##NAMES=Clinochlore
##RRUFFID=R060725
##IDEAL CHEMISTRY=Mg_5_Al(AlSi_3_O_10_)(OH)_8_
##LOCALITY=Crestmore Quarry, Riverside, California, USA
##OWNER=RRUFF
##SOURCE=Bob Jenkins
##DESCRIPTION=Green transparent books of mica
##STATUS=The identification of this mineral has been confirmed by X-ray diffraction and chemical analysis
##URL=rruff.info/R060725
##MEASURED CHEMISTRY=(Mg_4.65_Al_1.12_Fe^2+^_0.17_[box]_0.06_)_Σ=6_(Si_3.00_Al_1.00_)_Σ=4_O_10_(OH)_8_
##PIN_ID=L01967
116.2260, 2508.000
117.4620, 2581.000
118.6970, 2651.000
119.9320, 2802.000
121.1660, 2936.000
122.4010, 3114.000
123.6350, 3264.000
124.8690, 3499.000
126.1040, 3647.000
127.3370, 3840.000
128.5710, 4007.000
129.8050, 4150.000
131.0380, 4347.000
132.2710, 4455.000
133.5040, 4425.000
134.7370, 4433.000
135.9700, 4313.000
137.2030, 4207.000
138.4350, 4204.000
139.6670, 3999.000
140.9000, 3919.000
142.1310, 3801.000
143.3630, 3696.000
144.5950, 3566.000
145.8260, 3449.000
147.0580, 3372.000
148.2890, 3260.000
149.5200, 3200.997
150.7510, 3175.000
151.9810, 3072.000
153.2120, 3080.000
154.4420, 2986.000
155.6720, 2925.000
156.9020, 2887.000
158.1320, 2890.000
159.3620, 2802.000
160.5910, 2784.000
161.8200, 2806.000
163.0500, 2750.000
164.2790, 2720.000
165.5070, 2767.000
166.7360, 2745.000
167.9650, 2769.000
169.1930, 2679.000
170.4210, 2702.000
171.6490, 2747.000
172.8770, 2683.000
174.1050, 2711.000
175.3320, 2648.000
176.5600, 2715.000
177.7870, 2701.000
179.0140, 2710.000
180.2410, 2636.000
181.4670, 2667.000
182.6940, 2624.000
183.9200, 2666.000
185.1470, 2663.000
186.3730, 2698.000
187.5990, 2681.000
188.8240, 2663.000
190.0500, 2751.000
191.2750, 2793.000
192.5010, 2856.000
193.7260, 2851.000
194.9510, 2927.000
196.1750, 3087.000
197.4000, 3142.000
198.6240, 3369.000
199.8490, 3370.000
201.0730, 3578.000
202.2970, 3709.000
203.5200, 3958.000
204.7440, 3980.000
205.9670, 4017.000
207.1910, 3972.000
208.4140, 3801.000
209.6370, 3617.000
210.8600, 3456.000
212.0820, 3292.000
213.3050, 3128.000
214.5270, 3004.000
215.7490, 2905.000
216.9710, 2891.000
218.1930, 2865.000
219.4150, 2793.000
220.6360, 2837.000
221.8570, 2805.000
223.0790, 2810.000
224.3000, 2749.000
225.5200, 2811.000
226.7410, 2751.000
227.9620, 2790.000
229.1820, 2722.000
230.4020, 2716.000
231.6220, 2779.000
232.8420, 2712.000
234.0620, 2725.000
235.2810, 2705.000
236.5010, 2692.000
237.7200, 2753.000
238.9390, 2729.000
240.1580, 2764.000
241.3760, 2726.000
242.5950, 2721.000
243.8130, 2693.000
245.0320, 2685.000
246.2500, 2705.000
247.4680, 2737.000
248.6850, 2723.000
249.9030, 2704.000
251.1200, 2758.000
252.3370, 2757.000
253.5550, 2694.000
254.7710, 2696.000
255.9880, 2731.000
257.2050, 2770.000
258.4210, 2764.595
259.6370, 2839.000
260.8540, 2758.000
262.0690, 2746.000
263.2850, 2719.000
264.5010, 2834.000
265.7160, 2812.000
266.9320, 2842.000
268.1470, 2794.000
269.3620, 2823.000
270.5760, 2842.000
271.7910, 2886.000
273.0050, 2957.000
274.2200, 2913.000
275.4340, 3025.000
276.6480, 3001.000
277.8620, 3044.000
279.0750, 3069.000
280.2890, 3080.000
281.5020, 3140.000
282.7150, 3101.000
283.9280, 3100.000
285.1410, 3107.000
286.3540, 2976.000
287.5660, 3082.000
288.7780, 2973.000
289.9910, 3003.000
291.2030, 3009.000
292.4140, 3029.000
293.6260, 3025.062
294.8380, 3048.000
296.0490, 3006.000
297.2600, 3022.000
298.4710, 3008.000
299.6820, 3002.000
300.8930, 3021.000
302.1030, 3020.358
303.3140, 3033.000
304.5240, 3037.000
305.7340, 3040.000
306.9440, 3032.000
308.1530, 3053.000
309.3630, 3029.000
310.5720, 3112.000
311.7820, 3023.000
312.9910, 3056.000
314.1990, 3095.000
315.4080, 2985.000
316.6170, 3082.000
317.8250, 3076.000
319.0330, 3136.000
320.2410, 3150.000
321.4490, 3158.000
322.6570, 3139.000
323.8650, 3153.227
325.0720, 3203.000
326.2790, 3175.000
327.4860, 3207.000
328.6930, 3254.000
329.9000, 3244.000
331.1070, 3271.000
332.3130, 3203.000
333.5190, 3244.000
334.7250, 3292.000
335.9310, 3385.000
337.1370, 3408.000
338.3430, 3464.000
339.5480, 3491.000
340.7540, 3577.066
341.9590, 3674.000
343.1640, 3772.000
344.3680, 3947.000
345.5730, 4083.000
346.7770, 4212.000
347.9820, 4400.000
349.1860, 4815.000
350.3900, 5010.000
351.5940, 5352.000
352.7970, 5604.000
354.0010, 5809.000
355.2040, 5898.000
356.4070, 6021.000
357.6100, 6071.000
358.8130, 5990.000
360.0160, 5716.000
361.2180, 5456.000
362.4210, 5155.000
363.6230, 4878.000
364.8250, 4722.000
366.0270, 4456.000
367.2280, 4179.000
368.4300, 4069.000
369.6310, 3975.000
370.8320, 3901.000
372.0330, 3842.000
373.2340, 3765.000
374.4350, 3637.000
375.6350, 3533.000
376.8360, 3609.000
378.0360, 3500.000
379.2360, 3510.000
380.4360, 3475.000
381.6350, 3455.000
382.8350, 3493.000
384.0340, 3497.000
385.2340, 3466.000
386.4330, 3536.000
387.6320, 3465.000
388.8300, 3479.000
390.0290, 3610.000
391.2270, 3554.000
392.4250, 3605.000
393.6230, 3483.000
394.8210, 3464.000
396.0190, 3521.000
397.2170, 3350.000
398.4140, 3374.000
399.6110, 3250.000
400.8080, 3349.000
402.0050, 3316.000
403.2020, 3284.000
404.3990, 3275.000
405.5950, 3264.192
406.7910, 3281.000
407.9870, 3267.760
409.1830, 3300.000
410.3790, 3309.000
411.5750, 3363.000
412.7700, 3421.000
413.9650, 3332.000
415.1610, 3406.000
416.3550, 3353.000
417.5500, 3420.000
418.7450, 3479.000
419.9390, 3476.000
421.1340, 3524.003
422.3280, 3497.000
423.5220, 3565.000
424.7150, 3582.000
425.9090, 3600.000
427.1030, 3582.000
428.2960, 3592.000
429.4890, 3577.000
430.6820, 3576.509
431.8750, 3589.000
433.0670, 3597.000
434.2600, 3565.000
435.4520, 3624.000
436.6440, 3566.000
437.8360, 3610.000
439.0280, 3604.000
440.2200, 3576.000
441.4110, 3617.000
442.6030, 3620.000
443.7940, 3566.000
444.9850, 3597.000
446.1760, 3629.000
447.3660, 3550.000
448.5570, 3597.000
449.7470, 3515.000
450.9370, 3581.000
452.1270, 3612.000
453.3170, 3652.000
454.5070, 3704.000
455.6960, 3663.000
456.8860, 3680.000
458.0750, 3726.000
459.2640, 3840.000
460.4530, 3773.000
461.6420, 3816.000
462.8300, 3866.000
464.0190, 3819.000
465.2070, 3763.000
466.3950, 3861.000
467.5830, 3646.000
468.7700, 3724.000
469.9580, 3600.000
471.1450, 3497.000
472.3330, 3531.000
473.5200, 3440.000
474.7060, 3318.000
475.8930, 3349.000
477.0800, 3377.000
478.2660, 3369.000
479.4520, 3420.000
480.6390, 3343.000
481.8240, 3393.000
483.0100, 3304.000
484.1960, 3412.000
485.3810, 3333.000
486.5660, 3366.000
487.7510, 3285.000
488.9360, 3347.000
490.1210, 3369.000
491.3060, 3332.000
492.4900, 3327.000
493.6740, 3338.546
494.8590, 3368.000
496.0420, 3360.000
497.2260, 3365.000
498.4100, 3379.000
499.5930, 3368.000
500.7770, 3379.461
501.9600, 3396.000
503.1430, 3399.000
504.3250, 3396.000
505.5080, 3426.000
506.6900, 3427.000
507.8730, 3468.000
509.0550, 3544.000
510.2370, 3463.000
511.4190, 3479.000
512.6000, 3517.000
513.7820, 3633.000
514.9630, 3623.000
516.1440, 3670.171
517.3250, 3624.000
518.5060, 3704.000
519.6870, 3734.000
520.8670, 3748.000
522.0470, 3775.000
523.2280, 3870.000
524.4080, 3968.000
525.5870, 3948.000
526.7670, 4028.000
527.9470, 4061.000
529.1260, 4112.000
530.3050, 4173.878
531.4840, 4265.000
532.6630, 4264.000
533.8420, 4333.000
535.0200, 4330.000
536.1980, 4466.000
537.3770, 4506.000
538.5550, 4494.000
539.7320, 4652.000
540.9100, 4788.000
542.0880, 4999.000
543.2650, 5247.000
544.4420, 5473.000
545.6190, 5759.000
546.7960, 6124.000
547.9730, 6643.000
549.1490, 6900.000
550.3260, 7114.000
551.5020, 7314.000
552.6780, 7133.000
553.8540, 6868.000
555.0300, 6379.000
556.2050, 5911.000
557.3800, 5516.000
558.5560, 5011.000
559.7310, 4716.000
560.9060, 4519.000
562.0800, 4257.000
563.2550, 4210.000
564.4290, 4094.000
565.6040, 4025.000
566.7780, 3837.000
567.9510, 3877.000
569.1250, 3767.000
570.2990, 3698.000
571.4720, 3682.000
572.6450, 3611.000
573.8190, 3639.000
574.9910, 3553.000
576.1640, 3578.000
577.3370, 3514.000
578.5090, 3483.000
579.6810, 3453.000
580.8540, 3431.000
582.0250, 3354.000
583.1970, 3378.000
584.3690, 3354.000
585.5400, 3365.000
586.7120, 3272.000
587.8830, 3394.000
589.0540, 3291.000
590.2240, 3311.000
591.3950, 3345.000
592.5650, 3299.000
593.7360, 3377.000
594.9060, 3283.000
596.0760, 3278.000
597.2460, 3254.000
598.4150, 3315.000
599.5850, 3289.000
600.7540, 3374.000
601.9230, 3407.000
603.0920, 3367.000
604.2610, 3331.000
605.4290, 3381.000
606.5980, 3356.000
607.7660, 3347.000
608.9340, 3423.000
610.1020, 3414.000
611.2700, 3373.000
612.4380, 3327.000
613.6050, 3376.000
614.7730, 3334.000
615.9400, 3418.000
617.1070, 3468.000
618.2730, 3476.000
619.4400, 3446.000
620.6070, 3473.840
621.7730, 3466.000
622.9390, 3488.000
624.1050, 3507.000
625.2710, 3536.000
626.4370, 3530.000
627.6020, 3557.569
628.7670, 3538.058
629.9330, 3573.000
631.0980, 3512.000
632.2630, 3470.000
633.4270, 3487.000
634.5920, 3565.000
635.7560, 3530.000
636.9200, 3559.000
638.0840, 3615.000
639.2480, 3646.000
640.4120, 3603.000
641.5750, 3604.000
642.7390, 3789.000
643.9020, 3678.000
645.0650, 3749.000
646.2280, 3791.000
647.3910, 3782.000
648.5530, 3880.000
649.7150, 3978.000
650.8780, 3943.000
652.0400, 4018.000
653.2020, 4098.000
654.3630, 4183.000
655.5250, 4350.000
656.6860, 4439.000
657.8470, 4525.000
659.0080, 4587.000
660.1690, 4653.000
661.3300, 4867.000
662.4910, 4924.000
663.6510, 5048.000
664.8110, 5117.000
665.9710, 5301.000
667.1310, 5490.000
668.2910, 5708.000
669.4510, 5782.000
670.6100, 5972.000
671.7690, 6174.000
672.9280, 6368.000
674.0870, 6546.000
675.2460, 6740.000
676.4050, 6929.000
677.5630, 7076.000
678.7210, 7186.000
679.8790, 7181.000
681.0370, 7313.000
682.1950, 7376.000
683.3530, 7279.000
684.5100, 7273.000
685.6670, 7160.000
686.8240, 7009.000
687.9810, 6906.000
689.1380, 6793.000
690.2950, 6514.000
691.4510, 6367.000
692.6070, 6246.000
693.7640, 6136.000
694.9200, 5912.000
696.0750, 5772.000
697.2310, 5609.000
698.3860, 5423.000
699.5420, 5311.000
700.6970, 5239.000
701.8520, 5106.000
703.0070, 5011.122
704.1610, 4922.533
705.3160, 4798.000
706.4700, 4734.000
707.6240, 4633.000
708.7780, 4516.000
709.9320, 4418.000
711.0860, 4339.000
712.2390, 4362.000
713.3920, 4366.000
714.5450, 4357.000
715.6980, 4268.000
716.8510, 4314.000
718.0040, 4229.000
719.1560, 4127.000
720.3090, 4086.000
721.4610, 4109.000
722.6130, 4043.000
723.7650, 4063.000
724.9160, 3988.000
726.0680, 3979.000
727.2190, 3959.000
728.3700, 3916.071
729.5210, 3890.000
730.6720, 3865.000
731.8230, 3841.000
732.9730, 3832.000
734.1240, 3828.964
735.2740, 3787.000
736.4240, 3829.000
737.5740, 3769.000
738.7230, 3740.000
739.8730, 3770.000
741.0220, 3737.000
742.1720, 3686.000
743.3210, 3704.000
744.4690, 3778.000
745.6180, 3732.000
746.7670, 3756.000
747.9150, 3755.000
749.0630, 3765.000
750.2110, 3761.895
751.3590, 3805.000
752.5070, 3735.000
753.6540, 3696.000
754.8020, 3655.000
755.9490, 3758.000
757.0960, 3701.000
758.2430, 3734.000
759.3900, 3795.000
760.5360, 3689.000
761.6830, 3764.000
762.8290, 3748.000
763.9750, 3725.000
765.1210, 3784.000
766.2660, 3726.000
767.4120, 3708.000
768.5570, 3718.000
769.7030, 3664.000
770.8480, 3709.000
771.9930, 3741.000
773.1370, 3711.000
774.2820, 3763.000
775.4260, 3684.000
776.5710, 3665.000
777.7150, 3687.000
778.8590, 3751.000
780.0020, 3710.000
781.1460, 3773.000
782.2890, 3765.000
783.4330, 3731.000
784.5760, 3758.000
785.7190, 3742.000
786.8610, 3795.000
788.0040, 3671.000
789.1460, 3664.000
790.2890, 3805.000
791.4310, 3703.000
792.5730, 3749.000
793.7150, 3698.000
794.8560, 3705.000
795.9980, 3704.000
797.1390, 3725.000
798.2800, 3655.000
799.4210, 3727.000
800.5620, 3771.000
801.7020, 3677.000
802.8430, 3684.000
803.9830, 3657.000
805.1230, 3665.000
806.2630, 3698.000
807.4030, 3728.000
808.5430, 3756.000
809.6820, 3677.000
810.8210, 3707.000
811.9600, 3694.000
813.0990, 3705.000
814.2380, 3731.000
815.3770, 3697.000
816.5150, 3721.000
817.6540, 3749.000
818.7920, 3712.000
819.9300, 3761.000
821.0680, 3687.000
822.2050, 3715.000
823.3430, 3600.000
824.4800, 3660.000
825.6170, 3620.000
826.7540, 3680.000
827.8910, 3683.000
829.0280, 3671.000
830.1640, 3710.000
831.3000, 3798.000
832.4370, 3660.000
833.5730, 3811.000
834.7080, 3710.000
835.8440, 3685.000
836.9800, 3649.000
838.1150, 3640.966
839.2500, 3763.000
840.3850, 3667.000
841.5200, 3719.000
842.6550, 3725.000
843.7890, 3685.000
844.9240, 3666.000
846.0580, 3649.000
847.1920, 3648.439
848.3260, 3642.669
849.4590, 3648.617
850.5930, 3656.000
851.7260, 3683.000
852.8590, 3710.000
853.9920, 3758.000
855.1250, 3763.473
856.2580, 3658.000
857.3910, 3765.000
858.5230, 3764.000
859.6550, 3722.000
860.7870, 3827.000
861.9190, 3789.000
863.0510, 3729.000
864.1820, 3834.000
865.3140, 3696.000
866.4450, 3799.000
867.5760, 3823.000
868.7070, 3681.000
869.8380, 3734.000
870.9680, 3784.000
872.0990, 3855.000
873.2290, 3691.000
874.3590, 3801.000
875.4890, 3754.000
876.6180, 3725.000
877.7480, 3785.000
878.8770, 3821.000
880.0070, 3798.000
881.1360, 3767.000
882.2650, 3740.000
883.3930, 3761.914
884.5220, 3791.000
885.6500, 3811.000
886.7790, 3848.000
887.9070, 3861.000
889.0350, 3856.598
890.1620, 3850.000
891.2900, 3823.000
892.4170, 3842.000
893.5450, 3811.000
894.6720, 3807.000
895.7990, 3765.000
896.9250, 3794.637
898.0520, 3730.000
899.1780, 3831.000
900.3050, 3794.000
901.4310, 3761.000
902.5570, 3838.000
903.6830, 3834.000
904.8080, 3780.000
905.9340, 3782.000
907.0590, 3821.000
908.1840, 3927.000
909.3090, 3860.000
910.4340, 3863.000
911.5580, 3872.000
912.6830, 3826.000
913.8070, 3899.000
914.9310, 3827.000
916.0550, 3874.000
917.1790, 3838.000
918.3030, 3834.000
919.4260, 3885.000
920.5490, 3893.000
921.6730, 3850.000
922.7960, 3857.000
923.9180, 3879.000
925.0410, 3900.000
926.1630, 3922.000
927.2860, 3880.000
928.4080, 3964.000
929.5300, 3856.000
930.6520, 3929.000
931.7730, 3980.000
932.8950, 3931.000
934.0160, 3945.000
935.1370, 3985.000
936.2580, 4022.000
937.3790, 3989.000
938.5000, 4048.000
939.6200, 4006.000
940.7410, 3999.000
941.8610, 4055.000
942.9810, 3952.000
944.1010, 4008.000
945.2200, 3965.000
946.3400, 3940.000
947.4590, 3968.000
948.5780, 4039.000
949.6970, 4093.000
950.8160, 4036.000
951.9350, 4049.000
953.0530, 4041.000
954.1720, 4054.000
955.2900, 4093.000
956.4080, 4044.000
957.5260, 4005.000
958.6430, 4066.000
959.7610, 4071.000
960.8780, 4059.000
961.9960, 3973.000
963.1130, 4048.000
964.2290, 4082.000
965.3460, 4047.000
966.4630, 4119.000
967.5790, 4016.000
968.6950, 4127.000
969.8110, 4095.000
970.9270, 4063.000
972.0430, 4121.000
973.1580, 4040.000
974.2740, 4082.000
975.3890, 4103.000
976.5040, 4063.000
977.6190, 4091.000
978.7340, 4117.000
979.8480, 4124.000
980.9630, 4153.000
982.0770, 4174.000
983.1910, 4184.000
984.3050, 4194.000
985.4190, 4149.000
986.5320, 4166.000
987.6460, 4193.000
988.7590, 4250.000
989.8720, 4234.000
990.9850, 4197.000
992.0980, 4238.000
993.2100, 4305.000
994.3230, 4236.000
995.4350, 4306.000
996.5470, 4319.000
997.6590, 4316.000
998.7710, 4433.000
999.8820, 4295.000
1000.994, 4464.000
1002.105, 4535.000
1003.216, 4484.000
1004.327, 4478.000
1005.438, 4496.000
1006.548, 4313.000
1007.659, 4266.000
1008.769, 4258.000
1009.879, 4188.000
1010.989, 4189.000
1012.099, 4140.000
1013.208, 4126.000
1014.318, 4073.000
1015.427, 4107.000
1016.536, 4124.000
1017.645, 4069.000
1018.754, 4078.000
1019.863, 4082.864
1020.971, 4142.000
1022.079, 4105.000
1023.188, 4170.000
1024.295, 4181.000
1025.403, 4116.000
1026.511, 4164.000
1027.618, 4141.000
1028.726, 4110.000
1029.833, 4190.000
1030.940, 4209.000
1032.047, 4137.000
1033.153, 4198.000
1034.260, 4193.000
1035.366, 4250.000
1036.472, 4271.000
1037.578, 4246.000
1038.684, 4286.000
1039.790, 4296.634
1040.895, 4361.000
1042.000, 4354.000
1043.106, 4386.000
1044.211, 4436.000
1045.315, 4341.000
1046.420, 4392.000
1047.525, 4413.000
1048.629, 4436.000
1049.733, 4405.000
1050.837, 4421.000
1051.941, 4447.000
1053.045, 4478.000
1054.148, 4487.323
1055.251, 4470.337
1056.355, 4487.000
1057.458, 4404.000
1058.561, 4342.000
1059.663, 4290.000
1060.766, 4380.000
1061.868, 4377.000
1062.970, 4378.000
1064.072, 4400.961
1065.174, 4357.000
1066.276, 4380.000
1067.377, 4381.000
1068.479, 4340.000
1069.580, 4360.000
1070.681, 4349.000
1071.782, 4419.000
1072.883, 4420.484
1073.983, 4316.000
1075.083, 4452.000
1076.184, 4451.000
1077.284, 4435.000
1078.384, 4547.000
1079.483, 4521.000
1080.583, 4478.000
1081.682, 4563.000
1082.782, 4518.000
1083.881, 4558.000
1084.979, 4577.000
1086.078, 4624.000
1087.177, 4631.000
1088.275, 4619.000
1089.373, 4577.687
1090.471, 4535.000
1091.569, 4461.000
1092.667, 4380.000
1093.765, 4361.000
1094.862, 4286.000
1095.959, 4356.000
1097.056, 4247.000
1098.153, 4238.000
1099.250, 4166.000
1100.347, 4208.000
1101.443, 4191.000
1102.539, 4156.000
1103.635, 4104.000
1104.731, 4186.000
1105.827, 4153.000
1106.923, 4048.000
1108.018, 4142.000
1109.113, 4017.000
1110.209, 4039.000
1111.303, 4031.000
1112.398, 4116.000
1113.493, 4104.000
1114.587, 4060.000
1115.682, 4127.000
1116.776, 4146.000
1117.870, 4088.000
1118.963, 4032.000
1120.057, 4115.000
1121.150, 4113.000
1122.244, 4077.000
1123.337, 4073.000
1124.430, 4097.000
1125.523, 4089.000
1126.615, 4078.000
1127.708, 4105.000
1128.800, 4073.000
1129.892, 4123.000
1130.984, 4056.000
1132.076, 4139.000
1133.168, 4091.000
1134.259, 4070.000
1135.350, 4209.000
1136.442, 4112.000
1137.532, 4118.000
1138.623, 4119.000
1139.714, 4067.000
1140.804, 4167.000
1141.895, 4092.000
1142.985, 4107.000
1144.075, 4184.000
1145.165, 4087.000
1146.254, 4124.000
1147.344, 4024.000
1148.433, 4105.000
1149.522, 4094.000
1150.611, 4075.000
1151.700, 4198.000
1152.789, 4187.000
1153.877, 4114.000
1154.966, 4166.000
1156.054, 4215.000
1157.142, 4112.000
1158.230, 4100.000
1159.318, 4085.000
1160.405, 4114.000
1161.492, 4124.000
1162.580, 4231.000
1163.667, 4194.000
1164.753, 4178.000
1165.840, 4206.000
1166.927, 4150.000
1168.013, 4128.000
1169.099, 4235.000
1170.185, 4192.000
1171.271, 4178.000
1172.357, 4151.000
1173.442, 4186.000
1174.528, 4209.000
1175.613, 4196.000
1176.698, 4200.917
1177.783, 4172.000
1178.868, 4160.000
1179.952, 4159.000
1181.037, 4115.000
1182.121, 4160.643
1183.205, 4229.000
1184.289, 4225.000
1185.373, 4209.000
1186.456, 4206.000
1187.540, 4176.000
1188.623, 4184.000
1189.706, 4289.000
1190.789, 4251.000
1191.871, 4242.000
1192.954, 4316.000
1194.036, 4224.000
1195.119, 4150.000
1196.201, 4282.000
1197.283, 4239.000
1198.364, 4281.000
1199.446, 4274.000
1200.527, 4213.000
1201.609, 4224.000
1202.690, 4213.000
1203.771, 4249.000
1204.852, 4284.000
1205.932, 4232.000
1207.013, 4264.027
1208.093, 4262.000
1209.173, 4268.000
1210.253, 4288.000
1211.333, 4304.000
1212.412, 4271.000
1213.492, 4274.000
1214.571, 4223.000
1215.650, 4270.000
1216.729, 4298.000
1217.808, 4339.000
1218.886, 4326.000
1219.965, 4293.000
1221.043, 4286.000
1222.121, 4338.000
1223.199, 4322.000
1224.277, 4360.000
1225.355, 4347.000
1226.432, 4243.000
1227.510, 4267.000
1228.587, 4258.000
1229.664, 4285.000
1230.740, 4273.000
1231.817, 4369.000
1232.894, 4385.000
1233.970, 4440.000
1235.046, 4431.770
1236.122, 4357.000
1237.198, 4398.000
1238.274, 4344.000
1239.349, 4353.000
1240.424, 4343.427
1241.500, 4340.000
1242.575, 4324.000
1243.649, 4331.000
1244.724, 4334.000
1245.799, 4262.000
1246.873, 4396.000
1247.947, 4288.000
1249.021, 4446.000
1250.095, 4313.000
1251.169, 4335.000
1252.242, 4459.000
1253.316, 4364.000
1254.389, 4380.000
1255.462, 4311.000
1256.535, 4408.000
1257.607, 4435.000
1258.680, 4331.000
1259.752, 4419.000
1260.824, 4373.000
1261.896, 4367.000
1262.968, 4361.000
1264.040, 4442.000
1265.112, 4387.000
1266.183, 4525.000
1267.254, 4396.000
1268.325, 4352.000
1269.396, 4372.000
1270.467, 4410.000
1271.537, 4407.000
1272.608, 4429.000
1273.678, 4357.000
1274.748, 4399.052
1275.818, 4383.000
1276.888, 4443.000
1277.957, 4421.000
1279.027, 4456.000
1280.096, 4526.000
1281.165, 4498.000
1282.234, 4469.000
1283.303, 4523.000
1284.371, 4446.000
1285.440, 4512.000
1286.508, 4513.000
1287.576, 4592.000
1288.644, 4555.000
1289.712, 4545.000
1290.779, 4434.000
1291.847, 4529.000
1292.914, 4534.000
1293.981, 4596.000
1295.048, 4557.000
1296.115, 4548.000
1297.181, 4483.000
1298.248, 4513.000
1299.314, 4481.000
1300.380, 4514.000
1301.446, 4522.000
1302.512, 4528.000
1303.578, 4623.000
1304.643, 4539.000
1305.708, 4511.000
1306.773, 4463.000
1307.838, 4543.000
1308.903, 4569.000
1309.968, 4610.000
1311.032, 4541.000
1312.097, 4566.000
1313.161, 4485.000
1314.225, 4537.000
1315.288, 4533.000
1316.352, 4497.000
1317.416, 4544.000
1318.479, 4495.000
1319.542, 4527.000
1320.605, 4508.000
1321.668, 4523.000
1322.731, 4517.000
1323.793, 4550.000
1324.855, 4500.000
1325.918, 4534.000
1326.980, 4569.000
1328.041, 4493.000
1329.103, 4484.000
1330.165, 4485.000
1331.226, 4577.000
1332.287, 4481.000
1333.348, 4573.000
1334.409, 4662.000
1335.470, 4548.000
1336.530, 4592.000
1337.590, 4476.000
1338.651, 4542.000
1339.711, 4497.000
1340.771, 4505.000
1341.830, 4550.000
1342.890, 4575.000
1343.949, 4516.000
1345.008, 4492.000
1346.067, 4520.000
1347.126, 4618.000
1348.185, 4560.000
1349.244, 4586.000
1350.302, 4539.000
1351.360, 4626.000
1352.418, 4602.000
1353.476, 4650.000
1354.534, 4568.000
1355.591, 4627.000
1356.649, 4614.965
1357.706, 4603.000
1358.763, 4606.000
1359.820, 4611.000
1360.877, 4563.000
1361.933, 4552.000
1362.990, 4578.000
1364.046, 4534.000
1365.102, 4540.000
1366.158, 4544.840
1367.214, 4503.000
1368.269, 4557.000
1369.325, 4568.000
1370.380, 4574.000
1371.435, 4582.000
1372.490, 4566.000
1373.545, 4560.000
1374.599, 4597.000
1375.654, 4527.000
1376.708, 4633.000
1377.762, 4653.000
1378.816, 4533.000
1379.870, 4571.000
1380.923, 4546.000
1381.977, 4626.000
1383.030, 4590.000
1384.083, 4604.000
1385.136, 4609.000
1386.189, 4590.190
1387.242, 4614.000
1388.294, 4587.000
1389.346, 4568.000
1390.399, 4600.000
1391.451, 4525.000
1392.502, 4627.000
1393.554, 4563.000
1394.605, 4599.000
1395.657, 4548.000
1396.708, 4578.000
1397.759, 4656.000
1398.810, 4577.000
1399.860, 4639.000
1400.911, 4672.000
1401.961, 4620.000
1403.011, 4634.000
1404.061, 4570.000
1405.111, 4588.000
1406.161, 4680.000
1407.210, 4629.000
1408.260, 4634.000
1409.309, 4658.000
1410.358, 4608.000
1411.407, 4678.000
1412.455, 4617.000
1413.504, 4576.000
1414.552, 4616.000
1415.600, 4666.000
1416.649, 4662.000
1417.696, 4675.000
1418.744, 4654.000
1419.792, 4694.000
1420.839, 4600.000
1421.886, 4662.000
1422.933, 4693.000
1423.980, 4614.000
1425.027, 4703.000
1426.073, 4658.000
1427.120, 4640.000
1428.166, 4693.000
1429.212, 4696.000
1430.258, 4709.000
1431.304, 4789.000
1432.349, 4776.000
1433.395, 4763.000
1434.440, 4731.000
1435.485, 4733.000
1436.530, 4751.000
1437.575, 4744.834
1438.619, 4803.000
1439.664, 4785.000
1440.708, 4783.000
1441.752, 4845.000
1442.796, 4782.000
1443.840, 4926.000
1444.883, 4719.000
1445.927, 4834.000
1446.970, 4783.000
1448.013, 4747.000
1449.056, 4811.000
1450.099, 4861.000
1451.141, 4796.000
1452.184, 4802.000
1453.226, 4792.000
1454.268, 4882.000
1455.310, 4912.000
1456.352, 4801.000
1457.393, 4855.000
1458.435, 4815.000
1459.476, 4880.000
1460.517, 4855.864
1461.558, 4800.000
1462.599, 4841.000
1463.640, 4823.000
1464.680, 4846.000
1465.720, 4852.620
1466.761, 4858.789
1467.801, 4864.000
1468.840, 4874.000
1469.880, 4882.000
1470.920, 4872.000
1471.959, 4811.000
1472.998, 4839.000
1474.037, 4807.000
1475.076, 4826.000
1476.115, 4811.000
1477.153, 4745.000
1478.191, 4756.000
1479.230, 4833.000
1480.268, 4784.000
1481.305, 4786.000
1482.343, 4874.000
1483.381, 4799.000
1484.418, 4873.000
1485.455, 4836.000
1486.492, 4848.000
1487.529, 4800.000
1488.566, 4843.000
1489.602, 4818.590
1490.639, 4830.000
1491.675, 4806.000
1492.711, 4811.000
1493.747, 4812.000
1494.782, 4791.000
1495.818, 4832.000
1496.853, 4810.000
1497.889, 4807.000
1498.924, 4795.000
1499.959, 4792.797
1500.993, 4796.343
1502.028, 4797.000
1503.062, 4807.000
1504.096, 4815.000
1505.131, 4817.000
1506.164, 4884.000
1507.198, 4827.000
1508.232, 4847.000
1509.265, 4867.000
1510.298, 4808.000
1511.332, 4826.000
1512.364, 4788.000
1513.397, 4880.000
1514.430, 4778.000
1515.462, 4782.000
1516.494, 4888.000
1517.527, 4841.000
1518.559, 4848.000
1519.590, 4921.000
1520.622, 4853.000
1521.653, 4843.000
1522.685, 4894.000
1523.716, 4770.000
1524.747, 4910.000
1525.778, 4826.000
1526.808, 4811.000
1527.839, 4871.000
1528.869, 4818.000
1529.899, 4892.000
1530.929, 4912.000
1531.959, 4865.000
1532.988, 4796.000
1534.018, 4852.000
1535.047, 4902.000
1536.076, 4871.000
1537.105, 4928.000
1538.134, 4821.000
1539.163, 4836.000
1540.191, 4845.000
1541.220, 4961.000
1542.248, 4871.000
1543.276, 4927.000
1544.304, 4843.000
1545.331, 4819.000
1546.359, 4855.000
1547.386, 4856.000
1548.413, 4922.000
1549.440, 4900.000
1550.467, 4967.000
1551.494, 4844.000
1552.521, 5019.000
1553.547, 4871.000
1554.573, 5013.000
1555.599, 4923.000
1556.625, 4939.000
1557.651, 4911.000
1558.676, 4890.000
1559.702, 4980.000
1560.727, 5000.000
1561.752, 4952.000
1562.777, 4890.000
##END=



