##NAMES=Clinoptilolite-Na
##RRUFFID=R061099
##IDEAL CHEMISTRY=Na_6_(Si_30_Al_6_)O_72_&#183;20H_2_O
##LOCALITY=Richardson Ranch, Madras, Jefferson County, Oregon, USA
##OWNER=RRUFF
##SOURCE=Michael Scott
##DESCRIPTION=Red-brown to salmon, somewhat coffin shaped tabular crystals in a fragmented geode
##STATUS=The identification of this mineral has been confirmed by X-ray diffraction and chemical analysis
##URL=rruff.info/R061099
##MEASURED CHEMISTRY=(Na_2.70_Ca_1.46_K_0.89_Fe_0.08_Mg_0.02_)_Σ=5.15_(Si_29.29_Al_6.71_)O_72_·18.51H_2_O
##PIN_ID=M01647
##ORIENTATION=Laser parallel to c* (0 0 1). Fiducial mark perpendicular to laser is parallel to a [1 0 0]
131.1480, 21432.00
132.3880, 20989.00
133.6270, 20816.00
134.8650, 20603.00
136.1040, 20553.00
137.3420, 20430.00
138.5800, 20732.00
139.8180, 20801.00
141.0560, 20907.00
142.2940, 20991.00
143.5310, 20972.31
144.7680, 21029.46
146.0050, 20870.00
147.2420, 20965.00
148.4790, 20835.00
149.7150, 20617.00
150.9510, 20607.00
152.1870, 20601.00
153.4230, 20461.00
154.6590, 20516.00
155.8940, 20468.00
157.1300, 20239.00
158.3650, 19944.00
159.6000, 19830.00
160.8340, 19558.00
162.0690, 19255.00
163.3030, 18949.00
164.5370, 18725.00
165.7710, 18356.00
167.0050, 18055.00
168.2380, 17628.00
169.4720, 17409.00
170.7050, 17315.00
171.9380, 16930.00
173.1700, 16485.00
174.4030, 16450.00
175.6350, 16017.00
176.8680, 15828.00
178.1000, 15917.00
179.3310, 15773.00
180.5630, 15456.00
181.7940, 15354.00
183.0260, 15300.00
184.2570, 15120.00
185.4870, 15158.00
186.7180, 15319.00
187.9480, 15091.00
189.1790, 15064.00
190.4090, 15107.00
191.6390, 14968.00
192.8680, 15109.00
194.0980, 15026.00
195.3270, 15204.00
196.5560, 15160.64
197.7850, 15118.00
199.0140, 15106.00
200.2420, 15054.00
201.4710, 14977.00
202.6990, 14880.00
203.9270, 14705.00
205.1550, 14634.00
206.3820, 14372.00
207.6090, 14107.00
208.8370, 14119.00
210.0640, 13925.00
211.2900, 13957.00
212.5170, 13846.00
213.7440, 13705.00
214.9700, 13590.00
216.1960, 13532.00
217.4220, 13490.00
218.6470, 13367.00
219.8730, 13368.00
221.0980, 13294.00
222.3230, 13255.00
223.5480, 13192.00
224.7730, 13261.00
225.9970, 13187.00
227.2220, 13275.00
228.4460, 13185.00
229.6700, 13179.00
230.8940, 13128.00
232.1170, 13139.74
233.3400, 13156.65
234.5640, 13192.00
235.7870, 13235.00
237.0100, 13266.00
238.2320, 13328.25
239.4550, 13503.00
240.6770, 13543.00
241.8990, 13706.00
243.1210, 13807.00
244.3420, 13850.00
245.5640, 14008.00
246.7850, 14040.87
248.0060, 14255.00
249.2270, 14170.00
250.4480, 14304.00
251.6690, 14417.00
252.8890, 14470.00
254.1090, 14558.58
255.3290, 14640.12
256.5490, 14662.00
257.7680, 14692.00
258.9880, 14721.83
260.2070, 14778.00
261.4260, 14806.00
262.6450, 14841.34
263.8640, 14909.00
265.0820, 14876.00
266.3000, 14832.00
267.5180, 14811.00
268.7360, 14982.00
269.9540, 14995.00
271.1720, 14783.00
272.3890, 14919.00
273.6060, 14851.00
274.8230, 14733.00
276.0400, 14728.00
277.2560, 14713.68
278.4730, 14648.00
279.6890, 14799.00
280.9050, 14909.00
282.1210, 15039.00
283.3370, 14978.00
284.5520, 14902.00
285.7670, 14881.00
286.9820, 14912.00
288.1970, 15033.00
289.4120, 14916.00
290.6270, 15038.00
291.8410, 14846.00
293.0550, 14861.00
294.2690, 14917.00
295.4830, 14881.00
296.6970, 14949.00
297.9100, 14903.00
299.1230, 14725.00
300.3360, 14778.00
301.5490, 14905.00
302.7620, 14757.00
303.9740, 14971.00
305.1860, 14748.00
306.3990, 14772.00
307.6110, 14874.00
308.8220, 14751.00
310.0340, 14883.00
311.2450, 15029.00
312.4560, 14933.00
313.6670, 14969.00
314.8780, 15223.00
316.0890, 15161.00
317.2990, 15418.00
318.5090, 15380.00
319.7200, 15633.00
320.9290, 15736.00
322.1390, 15758.00
323.3490, 15800.00
324.5580, 15989.00
325.7670, 16053.00
326.9760, 16116.00
328.1850, 16308.00
329.3930, 16425.00
330.6020, 16373.00
331.8100, 16527.00
333.0180, 16414.00
334.2260, 16487.09
335.4340, 16705.00
336.6410, 16553.00
337.8480, 16574.00
339.0550, 16607.00
340.2620, 16675.00
341.4690, 16635.00
342.6760, 16602.00
343.8820, 16761.00
345.0880, 16789.00
346.2940, 16852.00
347.5000, 16829.00
348.7060, 16908.00
349.9110, 17061.06
351.1160, 17096.00
352.3210, 17397.00
353.5260, 17623.00
354.7310, 17724.00
355.9360, 17853.00
357.1400, 18075.00
358.3440, 18219.00
359.5480, 18587.00
360.7520, 18731.00
361.9550, 19168.00
363.1590, 19503.00
364.3620, 19588.00
365.5650, 20033.00
366.7680, 20473.00
367.9710, 20561.00
369.1730, 21133.00
370.3760, 21295.00
371.5780, 21597.00
372.7800, 22015.00
373.9810, 22234.00
375.1830, 22500.00
376.3840, 22959.00
377.5860, 23349.00
378.7870, 23895.00
379.9880, 24326.00
381.1880, 24448.00
382.3890, 25140.00
383.5890, 25669.00
384.7890, 26168.00
385.9890, 26843.00
387.1890, 27303.00
388.3880, 28117.00
389.5880, 28792.00
390.7870, 29896.00
391.9860, 30820.00
393.1850, 31751.00
394.3840, 33012.00
395.5820, 34493.00
396.7800, 35596.00
397.9790, 36862.00
399.1770, 38225.00
400.3740, 39408.00
401.5720, 40219.00
402.7690, 41197.00
403.9670, 41828.00
405.1640, 42229.00
406.3600, 42159.00
407.5570, 42140.00
408.7540, 41510.00
409.9500, 40690.00
411.1460, 39785.00
412.3420, 38701.00
413.5380, 37540.00
414.7330, 36301.00
415.9290, 35260.00
417.1240, 34146.00
418.3190, 32685.00
419.5140, 31587.00
420.7090, 30275.00
421.9030, 29188.00
423.0970, 28100.00
424.2920, 26793.00
425.4860, 26044.00
426.6790, 24799.00
427.8730, 23806.00
429.0660, 22891.00
430.2600, 22049.00
431.4530, 21123.00
432.6460, 20567.00
433.8380, 19827.00
435.0310, 19254.00
436.2230, 18830.00
437.4150, 18418.00
438.6070, 17892.00
439.7990, 17566.00
440.9910, 17656.00
442.1820, 17346.00
443.3730, 17090.00
444.5640, 16958.00
445.7550, 16847.00
446.9460, 16766.77
448.1370, 16761.67
449.3270, 16798.00
450.5170, 16836.00
451.7070, 17029.00
452.8970, 17125.00
454.0870, 17527.00
455.2760, 17841.00
456.4650, 18209.00
457.6550, 18596.00
458.8430, 19189.00
460.0320, 19624.00
461.2210, 20680.00
462.4090, 21018.00
463.5970, 21701.00
464.7850, 22377.00
465.9730, 22960.00
467.1610, 23482.00
468.3480, 23788.00
469.5360, 24099.00
470.7230, 24480.00
471.9100, 24721.00
473.0970, 25042.00
474.2830, 25204.00
475.4700, 25972.00
476.6560, 26697.00
477.8420, 27595.00
479.0280, 28206.00
480.2140, 29495.00
481.3990, 30577.00
482.5850, 30986.00
483.7700, 31218.00
484.9550, 31456.00
486.1400, 31217.00
487.3240, 30429.00
488.5090, 29262.00
489.6930, 27863.00
490.8770, 26892.00
492.0610, 25264.00
493.2450, 23834.00
494.4290, 22233.00
495.6120, 21048.00
496.7950, 19810.00
497.9780, 18858.00
499.1610, 18025.00
500.3440, 17356.00
501.5260, 16752.00
502.7090, 16032.00
503.8910, 15700.00
505.0730, 15351.00
506.2550, 15106.00
507.4360, 14671.00
508.6180, 14513.00
509.7990, 14378.00
510.9800, 14322.00
512.1610, 14020.00
513.3420, 14036.00
514.5230, 13955.00
515.7030, 13716.00
516.8830, 13632.00
518.0630, 13625.00
519.2430, 13656.00
520.4230, 13614.00
521.6020, 13480.00
522.7820, 13460.00
523.9610, 13414.00
525.1400, 13321.00
526.3190, 13353.00
527.4970, 13216.00
528.6760, 13184.00
529.8540, 13151.00
531.0320, 13113.00
532.2100, 13140.00
533.3880, 13098.03
534.5660, 13108.00
535.7430, 13043.00
536.9200, 12956.00
538.0970, 12891.00
539.2740, 12853.10
540.4510, 13031.00
541.6270, 12853.00
542.8040, 12870.00
543.9800, 13006.00
545.1560, 12949.00
546.3320, 12922.00
547.5080, 12942.00
548.6830, 13021.00
549.8580, 12862.00
551.0340, 12895.00
552.2090, 12836.00
553.3830, 12970.00
554.5580, 12963.00
555.7320, 12836.00
556.9070, 12834.00
558.0810, 12846.00
559.2550, 13081.00
560.4280, 12909.00
561.6020, 12764.00
562.7750, 12765.00
563.9490, 13043.00
565.1220, 12922.00
566.2950, 12899.00
567.4670, 12921.00
568.6400, 12842.00
569.8120, 12942.00
570.9840, 13050.00
572.1560, 13071.00
573.3280, 13008.00
574.5000, 12966.00
575.6710, 13044.00
576.8430, 13000.00
578.0140, 13103.00
579.1850, 13209.00
580.3560, 13242.00
581.5260, 13185.00
582.6970, 13179.00
583.8670, 13220.00
585.0370, 13228.37
586.2070, 13325.00
587.3770, 13351.00
588.5460, 13432.00
589.7160, 13568.00
590.8850, 13515.00
592.0540, 13599.00
593.2230, 13768.00
594.3920, 13652.00
595.5600, 13678.00
596.7290, 13912.00
597.8970, 14022.00
599.0650, 14075.00
600.2330, 14174.00
601.4000, 14281.00
602.5680, 14379.00
603.7350, 14478.00
604.9020, 14667.00
606.0690, 15053.00
607.2360, 15222.00
608.4030, 15436.00
609.5690, 15550.00
610.7360, 15835.00
611.9020, 16103.00
613.0680, 16215.00
614.2340, 16513.00
615.3990, 16567.00
616.5650, 16679.00
617.7300, 16696.00
618.8950, 16771.00
620.0600, 16661.00
621.2250, 16498.00
622.3890, 16338.00
623.5540, 16335.00
624.7180, 16065.00
625.8820, 15918.00
627.0460, 15711.76
628.2100, 15357.00
629.3730, 15221.00
630.5370, 14984.00
631.7000, 14723.00
632.8630, 14596.00
634.0260, 14393.00
635.1890, 14273.28
636.3510, 14214.00
637.5140, 14092.00
638.6760, 14024.00
639.8380, 13986.00
641.0000, 13894.68
642.1610, 13791.00
643.3230, 13785.00
644.4840, 13751.00
645.6450, 13743.00
646.8060, 13691.26
647.9670, 13723.00
649.1280, 13565.00
650.2880, 13506.00
651.4490, 13402.00
652.6090, 13625.00
653.7690, 13434.00
654.9290, 13492.00
656.0880, 13494.00
657.2480, 13342.00
658.4070, 13413.00
659.5660, 13275.00
660.7250, 13350.00
661.8840, 13354.14
663.0430, 13304.11
664.2010, 13350.00
665.3600, 13321.00
666.5180, 13314.48
667.6760, 13295.00
668.8330, 13292.00
669.9910, 13168.00
671.1480, 13137.00
672.3060, 13138.00
673.4630, 13320.00
674.6200, 13426.00
675.7770, 13226.00
676.9330, 13179.00
678.0900, 13198.00
679.2460, 13285.00
680.4020, 13266.00
681.5580, 13300.99
682.7140, 13294.00
683.8690, 13310.00
685.0250, 13393.00
686.1800, 13372.00
687.3350, 13289.00
688.4900, 13348.00
689.6450, 13407.00
690.7990, 13336.41
691.9540, 13422.00
693.1080, 13284.00
694.2620, 13370.00
695.4160, 13412.00
696.5700, 13351.00
697.7230, 13396.00
698.8770, 13351.00
700.0300, 13574.00
701.1830, 13464.00
702.3360, 13524.00
703.4890, 13369.00
704.6410, 13401.00
705.7930, 13375.00
706.9460, 13411.00
708.0980, 13416.00
709.2500, 13398.00
710.4010, 13480.00
711.5530, 13518.00
712.7040, 13440.00
713.8560, 13404.00
715.0070, 13467.00
716.1580, 13570.00
717.3080, 13565.00
718.4590, 13594.32
719.6090, 13542.00
720.7590, 13538.00
721.9090, 13571.00
723.0590, 13454.00
724.2090, 13501.00
725.3590, 13433.00
726.5080, 13596.00
727.6570, 13557.00
728.8060, 13551.00
729.9550, 13542.00
731.1040, 13516.00
732.2530, 13652.00
733.4010, 13631.00
734.5490, 13532.00
735.6970, 13426.00
736.8450, 13532.00
737.9930, 13503.00
739.1400, 13621.00
740.2880, 13573.00
741.4350, 13388.00
742.5820, 13590.00
743.7290, 13574.00
744.8760, 13714.00
746.0220, 13700.00
747.1690, 13693.00
748.3150, 13733.00
749.4610, 13689.30
750.6070, 13676.00
751.7530, 13689.00
752.8980, 13695.35
754.0440, 13888.00
755.1890, 13768.00
756.3340, 13869.00
757.4790, 13944.00
758.6240, 13857.00
759.7680, 13740.00
760.9130, 13984.00
762.0570, 13927.00
763.2010, 13965.00
764.3450, 14004.00
765.4890, 14097.00
766.6320, 14030.00
767.7760, 13972.00
768.9190, 14063.00
770.0620, 14134.00
771.2050, 14217.00
772.3480, 14313.00
773.4900, 14326.00
774.6330, 14441.00
775.7750, 14218.00
776.9170, 14295.00
778.0590, 14428.00
779.2010, 14413.00
780.3420, 14565.00
781.4840, 14424.00
782.6250, 14570.00
783.7660, 14576.00
784.9070, 14540.00
786.0480, 14435.00
787.1890, 14458.00
788.3290, 14466.00
789.4690, 14442.00
790.6100, 14587.00
791.7490, 14319.00
792.8890, 14338.00
794.0290, 14272.00
795.1680, 14372.00
796.3080, 14317.00
797.4470, 14356.00
798.5860, 14317.00
799.7250, 14094.00
800.8630, 14359.00
802.0020, 14047.00
803.1400, 14036.00
804.2780, 13963.00
805.4160, 14044.00
806.5540, 13972.00
807.6920, 14084.00
808.8300, 13958.00
809.9670, 14054.00
811.1040, 13911.00
812.2410, 14044.00
813.3780, 13935.00
814.5150, 14060.00
815.6510, 14002.00
816.7880, 14126.00
817.9240, 13996.00
819.0600, 13976.00
820.1960, 13995.00
821.3320, 13927.16
822.4670, 13987.00
823.6030, 13897.00
824.7380, 14005.00
825.8730, 14034.00
827.0080, 14044.00
828.1430, 14057.00
829.2770, 13916.00
830.4120, 13851.00
831.5460, 13906.00
832.6800, 13873.00
833.8140, 13920.00
834.9480, 13835.00
836.0810, 13929.00
837.2150, 13886.00
838.3480, 13816.00
839.4810, 13839.00
840.6140, 13854.00
841.7470, 13902.00
842.8800, 13915.00
844.0120, 13895.00
845.1450, 13950.62
846.2770, 13862.00
847.4090, 13999.00
848.5410, 13957.00
849.6720, 13919.00
850.8040, 14048.00
851.9350, 13962.00
853.0660, 13916.00
854.1970, 13989.00
855.3280, 13933.41
856.4590, 14081.00
857.5900, 13937.00
858.7200, 13973.00
859.8500, 13983.00
860.9800, 14110.00
862.1100, 14080.89
863.2400, 14012.00
864.3700, 14061.00
865.4990, 14002.00
866.6280, 13942.00
867.7570, 13972.00
868.8860, 14079.00
870.0150, 14022.00
871.1440, 14061.00
872.2720, 14085.00
873.4010, 14123.00
874.5290, 14040.00
875.6570, 14071.67
876.7850, 14086.30
877.9120, 14087.00
879.0400, 14137.00
880.1670, 14222.00
881.2940, 14236.00
882.4210, 14198.00
883.5480, 14251.18
884.6750, 14152.00
885.8020, 14273.00
886.9280, 14201.00
888.0540, 14186.00
889.1800, 14238.00
890.3060, 14278.00
891.4320, 14219.00
892.5580, 14282.00
893.6830, 14169.00
894.8080, 14356.00
895.9330, 14281.00
897.0580, 14262.00
898.1830, 14320.00
899.3080, 14247.00
900.4320, 14350.00
901.5570, 14380.00
902.6810, 14309.00
903.8050, 14322.00
904.9290, 14322.17
906.0520, 14250.00
907.1760, 14366.00
908.2990, 14331.00
909.4230, 14415.00
910.5460, 14387.00
911.6690, 14399.00
912.7910, 14448.00
913.9140, 14505.00
915.0360, 14471.00
916.1590, 14443.00
917.2810, 14656.00
918.4030, 14520.00
919.5240, 14510.00
920.6460, 14521.00
921.7680, 14409.00
922.8890, 14537.00
924.0100, 14471.00
925.1310, 14555.00
926.2520, 14707.00
927.3730, 14539.00
928.4930, 14564.00
929.6130, 14671.00
930.7340, 14647.00
931.8540, 14670.00
932.9740, 14637.00
934.0930, 14683.00
935.2130, 14745.00
936.3320, 14707.00
937.4520, 14707.99
938.5710, 14725.00
939.6900, 14663.00
940.8090, 14700.00
941.9270, 14752.00
943.0460, 14782.00
944.1640, 14951.00
945.2820, 14821.00
946.4000, 14743.00
947.5180, 15016.00
948.6360, 14883.00
949.7530, 15005.00
950.8710, 15010.00
951.9880, 14868.00
953.1050, 14972.00
954.2220, 15039.00
955.3390, 15011.00
956.4550, 14916.00
957.5720, 15143.00
958.6880, 15067.00
959.8040, 15158.00
960.9200, 15191.00
962.0360, 15237.00
963.1520, 15170.00
964.2670, 15211.00
965.3820, 15189.00
966.4980, 15237.00
967.6130, 15230.00
968.7280, 15200.00
969.8420, 15286.00
970.9570, 15283.30
972.0710, 15360.00
973.1850, 15331.00
974.3000, 15441.00
975.4140, 15419.00
976.5270, 15395.00
977.6410, 15430.00
978.7540, 15357.00
979.8680, 15378.00
980.9810, 15490.00
982.0940, 15590.00
983.2070, 15465.00
984.3200, 15610.00
985.4320, 15632.00
986.5440, 15711.00
987.6570, 15662.00
988.7690, 15776.00
989.8810, 15769.00
990.9920, 15824.00
992.1040, 15744.00
993.2160, 15766.00
994.3270, 15700.00
995.4380, 15711.00
996.5490, 15749.98
997.6600, 15885.00
998.7710, 15863.00
999.8810, 15876.00
1000.991, 15951.00
1002.102, 15899.00
1003.212, 15978.84
1004.322, 15978.53
1005.431, 16092.00
1006.541, 15991.00
1007.651, 16045.00
1008.760, 16027.00
1009.869, 16021.29
1010.978, 16093.00
1012.087, 16021.00
1013.195, 16082.00
1014.304, 16035.00
1015.412, 16166.00
1016.521, 16181.00
1017.629, 16210.00
1018.737, 16425.00
1019.844, 16157.00
1020.952, 16277.00
1022.059, 16362.00
1023.167, 16474.00
1024.274, 16334.00
1025.381, 16517.00
1026.488, 16446.00
1027.594, 16604.00
1028.701, 16478.00
1029.807, 16565.00
1030.913, 16610.00
1032.019, 16480.00
1033.125, 16647.00
1034.231, 16467.00
1035.337, 16602.00
1036.442, 16702.00
1037.548, 16525.00
1038.653, 16828.00
1039.758, 16644.00
1040.863, 16555.00
1041.967, 16676.00
1043.072, 16766.00
1044.176, 16714.00
1045.280, 16817.00
1046.384, 16686.00
1047.488, 16611.00
1048.592, 16651.00
1049.696, 16719.00
1050.799, 16743.00
1051.903, 16764.00
1053.006, 16807.57
1054.109, 16762.00
1055.212, 16817.00
1056.314, 16773.00
1057.417, 16662.00
1058.519, 16676.00
1059.621, 16828.00
1060.724, 17023.00
1061.826, 16886.00
1062.927, 16839.00
1064.029, 16783.00
1065.130, 16842.00
1066.232, 16930.00
1067.333, 16967.00
1068.434, 16937.00
1069.535, 17011.00
1070.636, 16818.00
1071.736, 16919.00
1072.837, 17005.00
1073.937, 16917.00
1075.037, 17095.00
1076.137, 16918.00
1077.237, 17163.00
1078.337, 17126.00
1079.436, 17146.00
1080.535, 17241.00
1081.635, 17261.00
1082.734, 17231.00
1083.833, 17235.00
1084.931, 17296.56
1086.030, 17515.00
1087.128, 17447.00
1088.227, 17628.00
1089.325, 17739.00
1090.423, 17748.00
1091.521, 17757.00
1092.618, 17875.00
1093.716, 17834.00
1094.813, 17990.00
1095.911, 18037.00
1097.008, 18070.00
1098.105, 18252.00
1099.202, 18247.00
1100.298, 18369.00
1101.395, 18350.00
1102.491, 18429.00
1103.587, 18342.00
1104.683, 18355.00
1105.779, 18686.00
1106.875, 18719.00
1107.971, 18622.00
1109.066, 18806.00
1110.161, 18821.00
1111.256, 18929.00
1112.351, 19071.00
1113.446, 19075.65
1114.541, 19157.00
1115.636, 19148.00
1116.730, 19260.00
1117.824, 19307.00
1118.918, 19450.00
1120.012, 19442.00
1121.106, 19515.00
1122.200, 19549.00
1123.293, 19668.00
1124.387, 19429.00
1125.480, 19783.00
1126.573, 19621.00
1127.666, 19719.00
1128.759, 19792.00
1129.851, 19746.00
1130.944, 20033.00
1132.036, 20052.00
1133.128, 20057.00
1134.220, 20053.00
1135.312, 20120.00
1136.404, 20082.00
1137.495, 20153.79
1138.587, 20117.00
1139.678, 20261.00
1140.769, 20328.00
1141.860, 20367.00
1142.951, 20197.95
1144.041, 20406.21
1145.132, 20532.18
1146.222, 20580.08
1147.313, 20325.88
1148.403, 20454.32
1149.493, 20424.87
1150.582, 20385.81
1151.672, 20558.83
1152.761, 20331.83
1153.851, 20494.95
1154.940, 20497.79
1156.029, 20569.26
1157.118, 20481.87
1158.207, 20439.30
1159.295, 20549.18
1160.384, 20569.60
1161.472, 20451.35
1162.560, 20507.96
1163.648, 20463.03
1164.736, 20254.29
1165.824, 20382.68
1166.911, 20256.00
1167.999, 20108.00
1169.086, 20015.87
1170.173, 20046.43
1171.260, 20037.46
1172.347, 19991.09
1173.434, 19795.29
1174.520, 19792.50
1175.606, 19712.38
1176.693, 19629.04
1177.779, 19653.41
1178.865, 19479.39
1179.951, 19502.05
1181.036, 19551.00
1182.122, 19372.00
1183.207, 19436.00
1184.292, 19516.00
1185.377, 19264.00
1186.462, 19218.00
1187.547, 19127.00
1188.632, 19158.00
1189.716, 19061.00
1190.800, 19089.00
1191.885, 18972.00
1192.969, 18878.00
1194.052, 18804.00
1195.136, 18816.00
1196.220, 18718.00
1197.303, 18649.00
1198.387, 18655.00
1199.470, 18575.00
1200.553, 18597.00
1201.636, 18412.00
1202.718, 18469.00
1203.801, 18220.00
1204.883, 18136.00
1205.966, 18173.00
1207.048, 18207.00
1208.130, 18110.00
1209.211, 18061.00
1210.293, 18034.00
1211.375, 17876.00
1212.456, 17979.00
1213.537, 17973.00
1214.618, 18150.00
1215.699, 17810.00
1216.780, 18052.00
1217.861, 17907.00
1218.941, 17956.00
1220.022, 17904.00
1221.102, 17836.00
1222.182, 17909.00
1223.262, 17857.00
1224.342, 17698.00
1225.422, 17844.00
1226.501, 17692.00
1227.580, 17939.00
1228.660, 17721.00
1229.739, 17806.00
1230.818, 17924.00
1231.896, 17813.00
1232.975, 17858.00
1234.054, 17868.00
1235.132, 17919.00
1236.210, 17836.00
1237.288, 17839.00
1238.366, 17869.55
1239.444, 17961.00
1240.521, 17902.00
1241.599, 17978.00
1242.676, 17930.00
1243.753, 17928.18
1244.830, 17855.00
1245.907, 17975.00
1246.984, 17934.00
1248.061, 18109.00
1249.137, 17963.00
1250.214, 17939.00
1251.290, 17840.00
1252.366, 18007.00
1253.442, 17848.00
1254.517, 17941.00
1255.593, 17882.00
1256.668, 17911.00
1257.744, 17928.00
1258.819, 17884.00
1259.894, 18122.00
1260.969, 17976.00
1262.044, 18111.00
1263.118, 17941.00
1264.193, 17999.00
1265.267, 18103.00
1266.341, 18065.00
1267.415, 18242.00
1268.489, 18094.00
1269.563, 18170.00
1270.636, 18026.00
1271.710, 18187.00
1272.783, 18137.00
1273.856, 18113.00
1274.929, 18259.00
1276.002, 18086.00
1277.075, 18180.00
1278.147, 18193.00
1279.220, 18114.00
1280.292, 18321.00
1281.364, 18102.00
1282.436, 18203.00
1283.508, 18255.00
1284.580, 18254.00
1285.652, 18266.00
1286.723, 18293.00
1287.794, 18329.00
1288.865, 18146.00
1289.936, 18301.00
1291.007, 18345.00
1292.078, 18150.00
1293.149, 18249.00
1294.219, 18310.00
1295.289, 18247.00
1296.360, 18354.00
1297.430, 18378.00
1298.499, 18521.00
1299.569, 18461.00
1300.639, 18537.00
1301.708, 18476.00
1302.778, 18484.00
1303.847, 18369.00
1304.916, 18536.00
1305.985, 18412.00
1307.053, 18485.00
1308.122, 18500.00
1309.190, 18522.00
1310.259, 18611.00
1311.327, 18492.00
1312.395, 18776.00
1313.463, 18614.00
1314.531, 18844.00
1315.598, 18633.00
1316.666, 18683.00
1317.733, 18595.00
1318.800, 18813.00
1319.867, 18708.00
1320.934, 18566.00
1322.001, 18755.00
1323.067, 18638.00
1324.134, 18695.00
1325.200, 18647.00
1326.266, 18702.00
1327.333, 18872.00
1328.398, 18743.00
1329.464, 18669.00
1330.530, 18735.00
1331.595, 18520.00
1332.661, 18886.00
1333.726, 18661.00
1334.791, 18802.00
1335.856, 18859.00
1336.921, 18752.00
1337.985, 18771.00
1339.050, 18794.00
1340.114, 18747.00
1341.178, 18868.00
1342.242, 19040.00
1343.306, 18747.00
1344.370, 18983.00
1345.434, 18848.00
1346.497, 19046.00
1347.561, 18993.00
1348.624, 19071.00
1349.687, 18823.00
1350.750, 19029.00
1351.813, 19093.00
1352.876, 18862.00
1353.938, 18972.00
1355.000, 19224.00
1356.063, 19125.00
1357.125, 19022.00
1358.187, 19105.00
1359.249, 19107.00
1360.310, 18978.00
1361.372, 19196.00
1362.433, 19018.00
1363.495, 19185.00
1364.556, 19084.00
1365.617, 19220.00
1366.678, 19252.00
1367.738, 19357.00
1368.799, 19316.00
1369.859, 19218.00
1370.920, 19345.00
1371.980, 19311.00
1373.040, 19065.00
1374.100, 19347.00
1375.159, 19170.00
1376.219, 19423.00
1377.278, 19288.00
1378.338, 19256.00
1379.397, 19295.00
1380.456, 19285.00
1381.515, 19361.00
1382.574, 19326.00
1383.632, 19366.00
1384.691, 19435.00
1385.749, 19446.00
1386.807, 19532.00
1387.865, 19470.00
1388.923, 19347.00
1389.981, 19579.00
1391.039, 19416.00
1392.096, 19545.00
1393.154, 19446.00
1394.211, 19451.00
1395.268, 19490.00
1396.325, 19407.00
1397.382, 19463.11
1398.439, 19495.00
1399.495, 19497.00
1400.552, 19447.00
1401.608, 19425.49
1402.664, 19543.00
1403.720, 19455.00
1404.776, 19629.00
1405.832, 19716.00
1406.887, 19643.00
1407.943, 19598.00
1408.998, 19567.00
1410.053, 19547.00
1411.108, 19548.00
1412.163, 19596.00
1413.218, 19633.00
1414.272, 19619.79
1415.327, 19563.00
1416.381, 19639.00
1417.435, 19680.00
1418.489, 19775.00
1419.543, 19571.00
1420.597, 19955.00
1421.651, 19743.00
1422.704, 19711.00
1423.758, 19968.00
1424.811, 19795.00
1425.864, 19889.00
1426.917, 19782.00
1427.970, 19785.00
1429.023, 19975.00
1430.075, 19854.00
1431.128, 19875.00
1432.180, 20130.00
1433.232, 19838.00
1434.284, 19905.00
1435.336, 19946.00
1436.388, 20002.00
1437.439, 19959.00
1438.491, 19805.00
1439.542, 20080.00
1440.593, 20256.00
1441.644, 19964.00
1442.695, 20227.00
1443.746, 20082.00
1444.797, 20205.00
1445.847, 20244.00
1446.898, 20352.00
1447.948, 20284.00
1448.998, 20352.00
1450.048, 20284.13
1451.098, 20375.21
1452.147, 20431.81
1453.197, 20455.82
1454.246, 20349.54
1455.296, 20411.49
1456.345, 20406.02
1457.394, 20397.78
1458.443, 20483.40
1459.491, 20396.05
1460.540, 20480.19
1461.588, 20495.86
1462.637, 20542.88
1463.685, 20522.04
1464.733, 20522.16
1465.781, 20590.13
1466.829, 20620.54
1467.876, 20591.88
1468.924, 20640.88
1469.971, 20544.00
1471.019, 20491.00
1472.066, 20567.00
1473.113, 20483.00
1474.160, 20537.00
1475.206, 20535.57
1476.253, 20473.00
1477.299, 20582.00
1478.346, 20510.00
1479.392, 20597.00
1480.438, 20490.00
1481.484, 20592.00
1482.529, 20511.00
1483.575, 20576.00
1484.620, 20605.00
1485.666, 20514.00
1486.711, 20622.00
1487.756, 20707.00
1488.801, 20704.00
1489.846, 20637.00
1490.891, 20572.00
1491.935, 20826.00
1492.980, 20572.00
1494.024, 20794.00
1495.068, 20723.00
1496.112, 20692.00
1497.156, 20697.00
1498.200, 20838.00
1499.243, 20792.66
1500.287, 20933.00
1501.330, 20803.00
1502.373, 20816.00
1503.416, 20798.00
1504.459, 20857.00
1505.502, 20960.00
1506.545, 21166.00
1507.587, 20980.00
1508.630, 21228.00
1509.672, 20950.00
1510.714, 20950.00
1511.756, 20977.00
1512.798, 21004.00
1513.840, 21067.00
1514.881, 20970.00
1515.923, 20993.00
1516.964, 21149.00
1518.005, 20944.00
1519.046, 21006.00
1520.087, 20913.00
1521.128, 21095.00
1522.169, 20983.00
1523.209, 21183.00
1524.249, 21062.00
1525.290, 21005.00
1526.330, 21415.00
1527.370, 21232.00
1528.410, 21295.00
1529.449, 21150.00
1530.489, 21259.00
1531.528, 21199.00
1532.568, 21403.00
1533.607, 21270.00
1534.646, 21397.00
1535.685, 21148.00
1536.724, 21139.00
1537.762, 21271.00
1538.801, 21352.00
1539.839, 21274.00
1540.878, 21543.00
1541.916, 21443.00
1542.954, 21290.00
1543.992, 21484.00
1545.029, 21467.00
1546.067, 21476.00
1547.104, 21584.00
1548.142, 21519.00
1549.179, 21449.00
1550.216, 21654.00
1551.253, 21668.00
1552.290, 21526.00
1553.326, 21741.00
1554.363, 21524.00
1555.399, 21735.00
1556.436, 21695.00
1557.472, 21571.00
1558.508, 21673.00
1559.544, 21742.00
1560.579, 21566.00
1561.615, 21643.00
1562.651, 21856.00
1563.686, 21752.00
1564.721, 21727.00
1565.756, 21711.00
1566.791, 21798.00
1567.826, 21686.00
1568.861, 21723.00
1569.895, 21926.00
1570.930, 21802.00
1571.964, 21825.00
1572.998, 21666.00
1574.032, 21750.97
1575.066, 21850.00
1576.100, 21893.00
1577.134, 21930.00
1578.167, 21983.00
1579.200, 22005.00
1580.234, 22135.00
##END=



