##NAMES=Clinozoisite
##RRUFFID=R060284
##IDEAL CHEMISTRY=Ca_2_Al_3_(Si_2_O_7_)(SiO_4_)O(OH)
##LOCALITY=near Zagi Mountain, Khaffor Dehri, North-West Frontier Province, Pakistan
##OWNER=RRUFF
##SOURCE=Herb Obodda
##DESCRIPTION=Greenish-brown fragment of a prismatic crystal
##STATUS=The identification of this mineral has been confirmed by X-ray diffraction and chemical analysis
##URL=rruff.info/R060284
##MEASURED CHEMISTRY=Ca_2.00_(Al_0.90_Fe^3+^_0.10_)_3_(Si_1.00_O_4_)(Si_2.00_O_7_)O(OH)
##PIN_ID=L00506
##ORIENTATION=Laser parallel to -a* (-1 0 0). Fiducial mark perpendicular to laser is parallel to b [0 1 0]
118.1340, 11065.00
119.3650, 11082.00
120.5960, 11110.00
121.8270, 11235.00
123.0580, 11394.38
124.2880, 11599.45
125.5190, 11859.00
126.7490, 12158.00
127.9790, 12469.00
129.2090, 12834.00
130.4390, 13329.00
131.6680, 13944.00
132.8980, 14394.00
134.1270, 14948.00
135.3560, 15649.00
136.5850, 16528.00
137.8140, 17321.00
139.0430, 18195.00
140.2710, 18528.00
141.5000, 18963.00
142.7280, 19134.00
143.9560, 19217.00
145.1840, 19359.00
146.4120, 19196.00
147.6390, 19285.00
148.8670, 18971.00
150.0940, 18885.00
151.3210, 19064.00
152.5490, 18863.00
153.7750, 18717.00
155.0020, 18695.00
156.2290, 18661.00
157.4550, 18787.00
158.6810, 18772.00
159.9080, 18827.00
161.1340, 19101.00
162.3590, 19372.00
163.5850, 19795.00
164.8110, 19968.00
166.0360, 20126.00
167.2610, 20052.00
168.4860, 20199.00
169.7110, 20038.00
170.9360, 19652.00
172.1610, 19159.00
173.3850, 18552.00
174.6100, 17998.00
175.8340, 17532.00
177.0580, 16538.00
178.2820, 15976.00
179.5050, 15057.00
180.7290, 14507.00
181.9520, 13878.00
183.1760, 13348.00
184.3990, 12932.00
185.6220, 12525.00
186.8450, 12420.00
188.0670, 12061.00
189.2900, 11980.00
190.5120, 11876.00
191.7340, 11751.00
192.9560, 11649.00
194.1780, 11818.00
195.4000, 11842.00
196.6220, 11855.00
197.8430, 12046.00
199.0640, 12144.00
200.2860, 12526.00
201.5070, 12602.48
202.7270, 12766.00
203.9480, 12894.00
205.1690, 13021.00
206.3890, 13156.00
207.6090, 13444.00
208.8290, 13554.00
210.0490, 13735.00
211.2690, 13999.00
212.4890, 14155.00
213.7080, 14283.00
214.9280, 14413.00
216.1470, 14468.00
217.3660, 14530.00
218.5850, 14624.00
219.8030, 14704.00
221.0220, 14926.00
222.2400, 15023.00
223.4590, 15337.00
224.6770, 15554.00
225.8950, 16146.00
227.1120, 16638.00
228.3300, 17395.00
229.5480, 18062.00
230.7650, 18885.00
231.9820, 20133.00
233.1990, 21092.00
234.4160, 21845.00
235.6330, 22804.00
236.8490, 23336.00
238.0660, 23717.00
239.2820, 24198.00
240.4980, 24333.00
241.7140, 24705.00
242.9300, 25191.00
244.1460, 25947.00
245.3610, 26980.00
246.5770, 27998.00
247.7920, 29620.00
249.0070, 31246.00
250.2220, 32851.00
251.4370, 34083.00
252.6510, 35333.00
253.8660, 36252.00
255.0800, 36574.00
256.2940, 36221.00
257.5080, 35495.00
258.7220, 34827.00
259.9360, 33171.00
261.1490, 31424.00
262.3630, 30666.00
263.5760, 29674.00
264.7890, 29593.00
266.0020, 29437.00
267.2150, 29968.00
268.4270, 30387.00
269.6400, 31152.00
270.8520, 32039.00
272.0640, 32593.00
273.2760, 33310.00
274.4880, 33631.00
275.7000, 33508.00
276.9120, 32903.00
278.1230, 31822.00
279.3340, 30673.00
280.5450, 29341.00
281.7560, 27902.00
282.9670, 27037.00
284.1780, 25761.00
285.3880, 24868.00
286.5980, 23864.00
287.8090, 23394.00
289.0190, 22616.00
290.2290, 22066.00
291.4380, 21658.00
292.6480, 21360.00
293.8570, 20916.00
295.0670, 20785.00
296.2760, 20644.00
297.4850, 20555.00
298.6930, 20345.00
299.9020, 20206.82
301.1110, 20070.00
302.3190, 19871.00
303.5270, 19700.00
304.7350, 19549.00
305.9430, 19450.00
307.1510, 19519.00
308.3580, 19709.00
309.5660, 20078.00
310.7730, 20116.00
311.9800, 20539.00
313.1870, 20846.00
314.3940, 21150.00
315.6010, 21732.00
316.8070, 22013.00
318.0130, 22350.00
319.2200, 22889.00
320.4260, 23621.00
321.6310, 24296.00
322.8370, 24520.00
324.0430, 25057.00
325.2480, 25476.00
326.4540, 25789.00
327.6590, 26088.00
328.8640, 26493.00
330.0680, 27398.00
331.2730, 28184.00
332.4780, 29245.00
333.6820, 30346.00
334.8860, 31875.00
336.0900, 33190.00
337.2940, 34465.00
338.4980, 35725.00
339.7010, 37486.00
340.9050, 38752.00
342.1080, 39941.00
343.3110, 41319.00
344.5140, 42351.36
345.7170, 43239.00
346.9200, 44437.00
348.1220, 45567.00
349.3240, 46556.00
350.5270, 47287.00
351.7290, 46814.00
352.9310, 45975.00
354.1320, 43504.00
355.3340, 40934.00
356.5350, 37502.00
357.7370, 34094.00
358.9380, 30946.00
360.1390, 28122.00
361.3400, 25681.00
362.5400, 24067.00
363.7410, 22753.00
364.9410, 21660.00
366.1410, 20914.00
367.3410, 20451.00
368.5410, 19884.00
369.7410, 19504.00
370.9400, 19271.00
372.1400, 18837.00
373.3390, 18566.00
374.5380, 18210.00
375.7370, 17932.00
376.9360, 17804.00
378.1350, 17604.00
379.3330, 17669.00
380.5310, 17641.00
381.7300, 17961.00
382.9280, 18532.00
384.1260, 18970.00
385.3230, 19540.00
386.5210, 20278.00
387.7180, 20418.00
388.9160, 20500.00
390.1130, 20429.00
391.3100, 20020.00
392.5060, 19687.00
393.7030, 19151.00
394.9000, 18765.00
396.0960, 18049.00
397.2920, 17484.00
398.4880, 17144.00
399.6840, 16615.00
400.8800, 15766.00
402.0750, 15292.00
403.2710, 14686.00
404.4660, 14155.00
405.6610, 13796.00
406.8560, 13453.00
408.0510, 13301.00
409.2450, 13013.00
410.4400, 13131.00
411.6340, 13081.00
412.8280, 13368.00
414.0220, 13495.00
415.2160, 13959.00
416.4100, 14390.00
417.6030, 15006.00
418.7970, 15813.00
419.9900, 16578.00
421.1830, 17620.00
422.3760, 18670.00
423.5690, 19842.00
424.7610, 21321.00
425.9540, 22146.00
427.1460, 23049.00
428.3380, 23530.00
429.5300, 23646.00
430.7220, 23826.00
431.9140, 23177.00
433.1050, 23101.00
434.2970, 22539.00
435.4880, 22667.00
436.6790, 22858.00
437.8700, 23299.00
439.0610, 24350.00
440.2510, 25731.00
441.4420, 27334.00
442.6320, 29310.00
443.8220, 32083.00
445.0120, 34943.00
446.2020, 38721.00
447.3910, 42091.00
448.5810, 46019.00
449.7700, 49549.00
450.9600, 52415.00
452.1490, 54311.00
453.3370, 55048.00
454.5260, 54679.00
455.7150, 53094.00
456.9030, 50570.00
458.0910, 47810.00
459.2800, 44410.00
460.4670, 41658.00
461.6550, 38756.00
462.8430, 36767.00
464.0300, 34967.00
465.2180, 33688.00
466.4050, 32953.00
467.5920, 32527.00
468.7790, 32384.00
469.9650, 32110.00
471.1520, 32142.00
472.3380, 32153.00
473.5250, 32114.00
474.7110, 32435.00
475.8970, 32257.00
477.0820, 32077.00
478.2680, 32357.00
479.4540, 32211.00
480.6390, 32089.00
481.8240, 32277.00
483.0090, 31787.00
484.1940, 31140.00
485.3780, 30443.00
486.5630, 29285.00
487.7470, 28119.00
488.9320, 26729.00
490.1160, 25265.00
491.3000, 24244.00
492.4830, 22838.00
493.6670, 21754.00
494.8500, 20949.00
496.0340, 20534.00
497.2170, 20011.00
498.4000, 19830.00
499.5820, 19664.00
500.7650, 19980.00
501.9480, 20495.00
503.1300, 20730.00
504.3120, 21379.00
505.4940, 22271.00
506.6760, 22467.00
507.8580, 23229.00
509.0390, 23078.00
510.2210, 22869.00
511.4020, 23048.00
512.5830, 22601.00
513.7640, 22443.00
514.9450, 22343.00
516.1250, 22482.00
517.3060, 22119.00
518.4860, 22176.00
519.6660, 22331.00
520.8460, 21951.00
522.0260, 22074.00
523.2060, 21533.00
524.3850, 21530.00
525.5650, 21367.00
526.7440, 20979.00
527.9230, 21017.00
529.1020, 20761.00
530.2810, 20150.00
531.4590, 19460.00
532.6380, 18377.00
533.8160, 17625.00
534.9940, 16396.00
536.1720, 15824.00
537.3500, 14871.00
538.5270, 14487.00
539.7050, 13903.00
540.8820, 13794.00
542.0590, 13470.00
543.2360, 13308.00
544.4130, 13226.00
545.5900, 13215.00
546.7660, 13150.00
547.9430, 13217.00
549.1190, 13271.00
550.2950, 13559.00
551.4710, 13947.00
552.6470, 13965.00
553.8220, 14432.00
554.9980, 14939.00
556.1730, 15676.00
557.3480, 16356.00
558.5230, 17475.00
559.6980, 18579.00
560.8730, 20000.00
562.0470, 21915.00
563.2220, 24335.00
564.3960, 27223.11
565.5700, 30519.00
566.7440, 34462.00
567.9170, 38827.00
569.0910, 43630.00
570.2640, 47639.00
571.4380, 49606.00
572.6110, 48752.00
573.7840, 45844.00
574.9570, 41239.00
576.1290, 35648.00
577.3020, 30263.00
578.4740, 26194.00
579.6460, 23194.00
580.8180, 20639.00
581.9900, 19689.00
583.1620, 18957.00
584.3330, 18704.00
585.5040, 18542.00
586.6760, 18853.00
587.8470, 19254.00
589.0180, 19801.00
590.1880, 20476.00
591.3590, 20913.00
592.5290, 21702.00
593.7000, 22576.00
594.8700, 23333.00
596.0400, 24247.00
597.2090, 25298.00
598.3790, 26156.00
599.5490, 27332.00
600.7180, 28266.00
601.8870, 29475.00
603.0560, 30349.00
604.2250, 30781.00
605.3940, 30982.00
606.5620, 30663.00
607.7300, 29759.00
608.8990, 28723.00
610.0670, 27316.00
611.2350, 25959.00
612.4020, 24265.00
613.5700, 23228.00
614.7370, 21855.00
615.9050, 21038.00
617.0720, 20135.00
618.2390, 19086.00
619.4060, 18227.00
620.5720, 16916.00
621.7390, 16113.00
622.9050, 15245.00
624.0710, 14157.00
625.2370, 13368.00
626.4030, 12994.00
627.5690, 12508.00
628.7340, 12239.00
629.9000, 11883.00
631.0650, 11642.00
632.2300, 11394.00
633.3950, 11185.00
634.5600, 11071.00
635.7240, 11082.00
636.8890, 11032.00
638.0530, 11019.00
639.2170, 10799.00
640.3810, 10909.00
641.5450, 10872.00
642.7080, 10951.00
643.8720, 10974.00
645.0350, 10931.00
646.1980, 11333.00
647.3610, 11430.00
648.5240, 11811.00
649.6870, 12191.00
650.8490, 12520.00
652.0120, 12954.00
653.1740, 13293.00
654.3360, 13715.00
655.4980, 14094.00
656.6600, 14126.00
657.8210, 14060.00
658.9830, 14146.00
660.1440, 13704.00
661.3050, 13599.00
662.4660, 13315.00
663.6270, 12882.00
664.7870, 12629.00
665.9480, 12411.00
667.1080, 12195.65
668.2680, 12102.00
669.4280, 11941.00
670.5880, 11960.00
671.7480, 11890.00
672.9070, 11723.00
674.0670, 11828.00
675.2260, 11751.00
676.3850, 11705.00
677.5440, 11998.00
678.7030, 12053.00
679.8610, 12422.00
681.0200, 12436.00
682.1780, 12743.00
683.3360, 12872.00
684.4940, 12857.00
685.6520, 12797.00
686.8090, 12938.00
687.9670, 13042.00
689.1240, 13024.00
690.2810, 13053.00
691.4380, 12947.00
692.5950, 13010.00
693.7520, 12950.00
694.9080, 13096.00
696.0650, 13448.00
697.2210, 13441.00
698.3770, 13569.00
699.5330, 13532.00
700.6880, 13598.00
701.8440, 13519.00
702.9990, 13491.00
704.1550, 13136.00
705.3100, 12852.00
706.4650, 12608.00
707.6190, 12235.00
708.7740, 11776.00
709.9290, 11515.00
711.0830, 11106.00
712.2370, 10932.00
713.3910, 10644.00
714.5450, 10338.00
715.6980, 10089.00
716.8520, 9972.000
718.0050, 9665.000
719.1580, 9541.000
720.3110, 9529.000
721.4640, 9456.000
722.6170, 9364.000
723.7700, 9317.935
724.9220, 9248.542
726.0740, 9173.000
727.2260, 9150.000
728.3780, 9071.000
729.5300, 9048.000
730.6810, 9082.000
731.8330, 9020.000
732.9840, 8992.000
734.1350, 8949.611
735.2860, 8954.000
736.4370, 8870.000
737.5880, 8920.000
738.7380, 8973.000
739.8880, 9021.000
741.0390, 8897.000
742.1890, 8928.000
743.3380, 8842.000
744.4880, 8809.000
745.6380, 8733.000
746.7870, 8653.000
747.9360, 8669.000
749.0850, 8566.000
750.2340, 8679.000
751.3830, 8635.000
752.5310, 8787.000
753.6800, 8652.000
754.8280, 8590.000
755.9760, 8699.000
757.1240, 8560.000
758.2720, 8635.000
759.4190, 8690.000
760.5670, 8659.000
761.7140, 8680.000
762.8610, 8704.000
764.0080, 8744.000
765.1550, 8730.000
766.3020, 8755.000
767.4480, 8773.000
768.5950, 8714.000
769.7410, 8671.000
770.8870, 8733.000
772.0330, 8840.000
773.1780, 8859.000
774.3240, 8774.000
775.4690, 8820.000
776.6140, 8825.124
777.7590, 8886.000
778.9040, 8949.000
780.0490, 8775.000
781.1940, 8955.000
782.3380, 8884.000
783.4820, 8946.000
784.6260, 8979.000
785.7700, 9024.000
786.9140, 9052.402
788.0580, 8992.000
789.2010, 9062.000
790.3450, 9149.000
791.4880, 9083.000
792.6310, 9186.000
793.7730, 9166.000
794.9160, 9371.000
796.0590, 9226.000
797.2010, 9387.000
798.3430, 9326.000
799.4850, 9416.000
800.6270, 9405.000
801.7690, 9479.000
802.9100, 9545.000
804.0520, 9599.000
805.1930, 9704.000
806.3340, 9866.000
807.4750, 9999.000
808.6160, 10053.00
809.7560, 10143.00
810.8970, 10204.00
812.0370, 10338.00
813.1770, 10547.00
814.3170, 10716.00
815.4570, 10871.00
816.5960, 10867.00
817.7360, 11145.00
818.8750, 11105.00
820.0140, 11457.00
821.1530, 11708.00
822.2920, 11796.00
823.4310, 12020.00
824.5690, 12086.00
825.7070, 12266.00
826.8460, 12275.00
827.9840, 12538.00
829.1220, 12596.00
830.2590, 12848.00
831.3970, 12945.00
832.5340, 13065.00
833.6710, 13280.00
834.8080, 13511.00
835.9450, 13554.00
837.0820, 13684.00
838.2190, 14120.00
839.3550, 14320.00
840.4910, 14444.00
841.6270, 14871.00
842.7630, 15129.00
843.8990, 15429.00
845.0350, 15771.00
846.1700, 16124.00
847.3060, 16459.00
848.4410, 16925.00
849.5760, 17085.00
850.7100, 17766.00
851.8450, 18154.00
852.9800, 18754.00
854.1140, 19424.00
855.2480, 20126.00
856.3820, 20950.00
857.5160, 21954.00
858.6500, 22885.00
859.7830, 23983.00
860.9170, 25493.00
862.0500, 26685.00
863.1830, 28267.00
864.3160, 29931.00
865.4480, 31920.00
866.5810, 34331.00
867.7130, 35812.00
868.8460, 38050.00
869.9780, 39989.00
871.1100, 41830.00
872.2410, 42627.00
873.3730, 43354.00
874.5050, 43747.00
875.6360, 44393.00
876.7670, 45076.00
877.8980, 45530.00
879.0290, 46238.00
880.1590, 47088.00
881.2900, 47407.00
882.4200, 48152.00
883.5500, 48903.00
884.6800, 49050.00
885.8100, 49750.00
886.9400, 50472.00
888.0690, 51275.00
889.1990, 52820.00
890.3280, 53928.00
891.4570, 55891.00
892.5860, 57188.00
893.7140, 58518.00
894.8430, 59489.00
895.9710, 59895.00
897.1000, 59448.00
898.2280, 58308.00
899.3560, 56667.00
900.4830, 54579.00
901.6110, 52964.00
902.7380, 51073.00
903.8660, 49601.00
904.9930, 48655.00
906.1200, 48380.00
907.2460, 48576.00
908.3730, 48724.00
909.5000, 49326.00
910.6260, 49986.00
911.7520, 50425.00
912.8780, 50796.00
914.0040, 50209.00
915.1290, 49899.00
916.2550, 48520.00
917.3800, 46987.00
918.5050, 45539.00
919.6300, 43744.00
920.7550, 41839.00
921.8800, 40282.00
923.0040, 38714.00
924.1290, 37149.00
925.2530, 35854.00
926.3770, 34628.12
927.5010, 33468.00
928.6250, 32536.00
929.7480, 31360.00
930.8720, 30460.00
931.9950, 29299.00
933.1180, 28207.00
934.2410, 26914.00
935.3640, 25756.00
936.4860, 24547.00
937.6090, 23542.00
938.7310, 22397.00
939.8530, 21175.00
940.9750, 20065.00
942.0970, 19394.00
943.2180, 18501.00
944.3400, 17889.00
945.4610, 17335.00
946.5820, 16641.00
947.7030, 16268.00
948.8240, 15979.00
949.9450, 15764.00
951.0650, 15413.00
952.1860, 15297.00
953.3060, 15037.00
954.4260, 15096.00
955.5460, 14901.00
956.6650, 14872.00
957.7850, 15101.00
958.9040, 14962.00
960.0230, 15064.00
961.1420, 15067.00
962.2610, 15045.00
963.3800, 15248.00
964.4990, 15191.00
965.6170, 15431.00
966.7350, 15465.00
967.8530, 15476.00
968.9710, 15557.00
970.0890, 15859.00
971.2070, 16092.00
972.3240, 16479.00
973.4410, 16855.00
974.5580, 17548.00
975.6750, 18331.00
976.7920, 19158.00
977.9090, 20438.00
979.0250, 21666.00
980.1410, 23114.00
981.2580, 24847.00
982.3740, 26261.00
983.4890, 27398.00
984.6050, 28047.00
985.7200, 28490.00
986.8360, 27978.00
987.9510, 27162.00
989.0660, 25589.00
990.1810, 24203.00
991.2950, 22207.00
992.4100, 20882.00
993.5240, 19377.00
994.6390, 18313.00
995.7530, 17221.00
996.8660, 16396.00
997.9800, 15907.00
999.0940, 15202.00
1000.207, 14869.00
1001.320, 14259.00
1002.433, 13919.00
1003.546, 13547.00
1004.659, 13413.00
1005.772, 13032.00
1006.884, 12887.00
1007.996, 12670.00
1009.108, 12468.00
1010.220, 12389.00
1011.332, 12457.00
1012.444, 12371.00
1013.555, 12400.00
1014.666, 12707.00
1015.777, 12544.00
1016.888, 12803.00
1017.999, 12887.00
1019.110, 13056.00
1020.220, 13474.00
1021.331, 13776.00
1022.441, 14371.00
1023.551, 14908.00
1024.661, 15622.00
1025.770, 16356.00
1026.880, 17073.00
1027.989, 17572.00
1029.098, 17836.00
1030.207, 18109.00
1031.316, 17856.00
1032.425, 17668.00
1033.533, 17252.00
1034.642, 16786.00
1035.750, 16555.00
1036.858, 16154.00
1037.966, 15937.00
1039.073, 15715.00
1040.181, 15715.00
1041.288, 15665.00
1042.396, 15626.00
1043.503, 15710.00
1044.610, 15547.00
1045.716, 15657.00
1046.823, 15529.00
1047.929, 15527.00
1049.036, 15280.00
1050.142, 15160.00
1051.248, 14989.00
1052.353, 14959.00
1053.459, 14467.00
1054.564, 14404.00
1055.670, 14116.00
1056.775, 13811.00
1057.880, 13529.00
1058.985, 13318.00
1060.089, 12970.00
1061.194, 13030.00
1062.298, 12730.00
1063.402, 12699.00
1064.506, 12605.00
1065.610, 12523.00
1066.713, 12471.00
1067.817, 12502.00
1068.920, 12427.00
1070.023, 12600.00
1071.126, 12821.00
1072.229, 12882.00
1073.332, 13212.00
1074.435, 13400.00
1075.537, 13602.00
1076.639, 14120.00
1077.741, 14432.00
1078.843, 14875.00
1079.945, 15387.00
1081.046, 15940.00
1082.148, 16397.00
1083.249, 17254.00
1084.350, 18198.00
1085.451, 19273.00
1086.551, 20687.00
1087.652, 22249.00
1088.752, 23792.00
1089.853, 25912.00
1090.953, 27344.00
1092.053, 29030.00
1093.152, 30055.00
1094.252, 30133.00
1095.351, 29475.00
1096.451, 28003.00
1097.550, 25687.00
1098.649, 23335.00
1099.748, 21077.00
1100.846, 19187.00
1101.945, 17689.00
1103.043, 16393.00
1104.141, 15487.00
1105.239, 14766.00
1106.337, 14511.00
1107.434, 14012.00
1108.532, 13840.00
1109.629, 13526.00
1110.726, 13213.00
1111.823, 13105.00
1112.920, 12850.00
1114.017, 13013.00
1115.113, 12751.00
1116.210, 12809.00
1117.306, 12761.00
1118.402, 12629.00
1119.498, 12737.00
1120.593, 12643.00
1121.689, 12737.00
1122.784, 12691.00
1123.879, 12449.00
1124.974, 12260.00
1126.069, 12073.00
1127.164, 11913.56
1128.259, 11764.24
1129.353, 11628.00
1130.447, 11494.00
1131.541, 11328.00
1132.635, 11184.00
1133.729, 11105.00
1134.822, 11118.00
1135.916, 11145.00
1137.009, 11089.00
1138.102, 11080.00
1139.195, 11118.00
1140.288, 11045.00
1141.380, 11045.00
1142.473, 10978.00
1143.565, 10870.00
1144.657, 10902.87
1145.749, 10877.00
1146.841, 10906.00
1147.932, 10914.00
1149.024, 10888.00
1150.115, 10877.00
1151.206, 10908.00
1152.297, 10808.00
1153.388, 10761.00
1154.479, 10887.00
1155.569, 10792.00
1156.659, 10663.00
1157.750, 10671.00
1158.839, 10814.00
1159.929, 10689.00
1161.019, 10769.00
1162.108, 10720.00
1163.198, 10768.00
1164.287, 10749.00
1165.376, 10602.00
1166.465, 10766.00
1167.553, 10761.00
1168.642, 10647.00
1169.730, 10651.00
1170.818, 10702.00
1171.906, 10697.00
1172.994, 10705.00
1174.082, 10655.00
1175.170, 10710.00
1176.257, 10685.00
1177.344, 10716.00
1178.431, 10604.00
1179.518, 10594.00
1180.605, 10670.00
1181.691, 10632.00
1182.778, 10734.00
1183.864, 10683.00
1184.950, 10753.00
1186.036, 10713.00
1187.122, 10653.00
1188.207, 10600.00
1189.292, 10652.00
1190.378, 10549.00
1191.463, 10703.00
1192.548, 10707.00
1193.632, 10624.00
1194.717, 10757.00
1195.801, 10684.00
1196.886, 10687.00
1197.970, 10719.00
1199.054, 10712.00
1200.137, 10707.00
1201.221, 10660.00
1202.305, 10665.72
1203.388, 10742.00
1204.471, 10627.00
1205.554, 10665.00
1206.637, 10600.00
1207.719, 10598.00
1208.802, 10603.00
1209.884, 10652.00
1210.966, 10627.00
1212.048, 10655.89
1213.130, 10633.00
1214.212, 10665.00
1215.293, 10647.00
1216.374, 10610.00
1217.456, 10718.00
1218.536, 10538.00
1219.617, 10625.00
1220.698, 10688.00
1221.778, 10622.00
1222.859, 10637.00
1223.939, 10685.00
1225.019, 10648.00
1226.099, 10647.57
1227.178, 10605.00
1228.258, 10602.00
1229.337, 10631.00
1230.417, 10631.00
1231.496, 10638.00
1232.574, 10569.00
1233.653, 10588.00
1234.732, 10595.00
1235.810, 10720.00
1236.888, 10634.00
1237.966, 10699.00
1239.044, 10591.00
1240.122, 10615.00
1241.199, 10586.00
1242.277, 10604.00
1243.354, 10772.00
1244.431, 10573.00
1245.508, 10627.00
1246.585, 10526.00
1247.661, 10692.00
1248.738, 10590.00
1249.814, 10495.00
1250.890, 10612.00
1251.966, 10753.00
1253.042, 10713.00
1254.117, 10615.00
1255.193, 10593.00
1256.268, 10497.00
1257.343, 10462.00
1258.418, 10444.00
1259.493, 10594.00
1260.567, 10583.00
1261.642, 10738.00
1262.716, 10560.00
1263.790, 10649.00
1264.864, 10664.00
1265.938, 10756.00
1267.011, 10691.00
1268.085, 10709.00
1269.158, 10752.00
1270.231, 10742.00
1271.304, 10759.00
1272.377, 10726.00
1273.450, 10859.00
1274.522, 10753.00
1275.594, 10647.00
1276.666, 10727.00
1277.738, 10783.00
1278.810, 10744.00
1279.882, 10717.00
1280.953, 10821.00
1282.025, 10841.00
1283.096, 10846.00
1284.167, 10767.00
1285.238, 10681.00
1286.308, 10607.00
1287.379, 10646.00
1288.449, 10611.26
1289.519, 10640.53
1290.589, 10657.00
1291.659, 10731.00
1292.729, 10788.00
1293.798, 10864.00
1294.868, 10729.00
1295.937, 10756.00
1297.006, 10761.00
1298.075, 10889.00
1299.143, 10669.00
1300.212, 10661.00
1301.280, 10768.00
1302.348, 10662.00
1303.416, 10702.00
1304.484, 10761.00
1305.552, 10760.00
1306.620, 10746.00
1307.687, 10916.00
1308.754, 10889.11
1309.821, 10744.00
1310.888, 10971.00
1311.955, 10951.00
1313.021, 11011.73
1314.088, 10771.00
1315.154, 10931.00
1316.220, 10973.00
1317.286, 10845.00
1318.352, 10969.00
1319.417, 10943.00
1320.483, 10960.00
1321.548, 10997.83
1322.613, 10977.18
1323.678, 11032.00
1324.743, 10966.00
1325.807, 10999.00
1326.872, 10987.00
1327.936, 10892.00
1329.000, 10857.00
1330.064, 10982.00
1331.128, 11037.00
1332.191, 10922.00
1333.255, 11036.00
1334.318, 11082.00
1335.381, 10977.00
1336.444, 10998.00
1337.507, 11063.00
1338.569, 11044.00
1339.632, 10988.00
1340.694, 10927.00
1341.756, 11046.00
1342.818, 11112.00
1343.880, 10991.00
1344.941, 10961.00
1346.003, 11160.00
1347.064, 11020.00
1348.125, 11157.00
1349.186, 11173.00
1350.247, 11157.00
1351.308, 11125.00
1352.368, 11047.00
1353.428, 10991.00
1354.489, 11085.00
1355.549, 10985.00
1356.608, 11043.76
1357.668, 11144.00
1358.727, 11136.00
1359.787, 11105.00
1360.846, 11204.00
1361.905, 11171.00
1362.964, 11226.00
1364.022, 11175.00
1365.081, 11044.00
1366.139, 11338.00
1367.197, 11193.00
1368.255, 11163.00
1369.313, 11408.00
1370.371, 11256.00
1371.428, 11324.00
1372.486, 11199.00
1373.543, 11320.00
1374.600, 11240.00
1375.657, 11319.00
1376.713, 11147.00
1377.770, 11276.00
1378.826, 11190.00
1379.882, 11317.00
1380.938, 11208.00
1381.994, 11118.00
1383.050, 11093.00
1384.106, 11384.00
1385.161, 11266.00
1386.216, 11282.00
1387.271, 11323.00
1388.326, 11161.00
1389.381, 11312.00
1390.435, 11270.00
1391.490, 11236.00
1392.544, 11403.00
1393.598, 11276.00
1394.652, 11243.00
1395.705, 11223.00
1396.759, 11077.00
1397.812, 11252.00
1398.866, 11269.00
1399.919, 11152.00
1400.972, 11363.00
1402.024, 11295.00
1403.077, 11362.00
1404.129, 11167.00
1405.181, 11313.00
1406.233, 11192.00
1407.285, 11322.00
1408.337, 11341.00
1409.389, 11354.00
1410.440, 11357.00
1411.491, 11452.00
1412.542, 11274.00
1413.593, 11234.00
1414.644, 11338.00
1415.695, 11426.00
1416.745, 11470.00
1417.795, 11433.00
1418.845, 11472.00
1419.895, 11354.00
1420.945, 11413.00
1421.995, 11389.00
1423.044, 11468.00
1424.093, 11405.00
1425.142, 11465.00
1426.191, 11341.00
1427.240, 11507.00
1428.289, 11512.00
1429.337, 11481.00
1430.385, 11431.00
1431.433, 11482.00
1432.481, 11544.00
1433.529, 11424.00
1434.577, 11477.00
1435.624, 11473.00
1436.672, 11598.00
1437.719, 11641.00
1438.766, 11643.13
1439.812, 11527.00
1440.859, 11632.00
1441.905, 11645.00
1442.952, 11620.00
1443.998, 11691.00
1445.044, 11625.00
1446.090, 11732.00
1447.135, 11646.00
1448.181, 11614.00
1449.226, 11678.00
1450.271, 11598.00
1451.316, 11684.00
1452.361, 11498.00
1453.405, 11599.75
1454.450, 11750.00
1455.494, 11688.00
1456.538, 11795.00
1457.582, 11782.00
1458.626, 11698.00
1459.670, 11701.00
1460.713, 11751.00
1461.757, 11710.00
1462.800, 11759.00
1463.843, 11665.00
1464.886, 11631.00
1465.928, 11689.00
1466.971, 11742.00
1468.013, 11692.00
1469.055, 11687.00
1470.097, 11803.00
1471.139, 11695.00
1472.181, 11699.00
1473.222, 11636.00
1474.263, 11621.00
1475.305, 11682.00
1476.346, 11688.00
1477.386, 11660.00
1478.427, 11770.00
1479.468, 11696.00
1480.508, 11741.00
1481.548, 11766.00
1482.588, 11665.00
1483.628, 11709.00
1484.668, 11724.00
1485.707, 11691.00
1486.747, 11749.00
1487.786, 11724.00
1488.825, 11774.00
1489.864, 11789.00
1490.902, 11853.00
1491.941, 11834.00
1492.979, 11778.00
1494.017, 11813.26
1495.055, 11809.00
1496.093, 11826.00
1497.131, 11787.00
1498.168, 11814.00
1499.206, 11766.00
1500.243, 11802.00
1501.280, 11752.00
1502.317, 11738.00
1503.354, 11699.00
1504.390, 11805.00
1505.426, 11780.00
1506.463, 11945.00
1507.499, 11900.00
1508.535, 11984.00
1509.570, 11880.00
1510.606, 11847.00
1511.641, 11921.00
1512.676, 12029.00
1513.711, 11849.00
1514.746, 11907.00
1515.781, 11835.00
1516.816, 11836.00
1517.850, 11946.00
1518.884, 11911.00
1519.918, 11992.00
1520.952, 12037.00
1521.986, 11913.00
1523.019, 11868.00
1524.053, 11962.00
1525.086, 11989.00
1526.119, 12004.00
1527.152, 11838.00
1528.185, 11992.00
1529.217, 11997.00
1530.250, 12020.00
1531.282, 12111.00
1532.314, 12084.00
1533.346, 12120.00
1534.377, 12055.00
1535.409, 11986.00
1536.440, 12006.00
1537.472, 12069.00
1538.503, 12005.00
1539.534, 12035.00
1540.564, 12005.00
1541.595, 12114.00
1542.625, 12118.00
1543.656, 12156.00
1544.686, 12170.00
1545.716, 12198.00
1546.745, 12016.00
1547.775, 12069.00
1548.804, 11968.00
1549.834, 12154.00
1550.863, 12174.00
1551.892, 12152.00
1552.920, 12234.12
1553.949, 12400.00
1554.977, 12177.00
1556.006, 12276.00
1557.034, 12050.00
1558.062, 12052.00
1559.089, 12215.00
1560.117, 12160.00
1561.144, 12112.00
1562.172, 12175.00
1563.199, 12183.00
1564.226, 12103.00
1565.252, 12101.00
1566.279, 12168.00
1567.305, 12114.00
1568.332, 12237.00
1569.358, 12292.00
1570.384, 12147.00
1571.409, 12420.00
1572.435, 12257.00
##END=



