##NAMES=Clinoptilolite-Na
##RRUFFID=R061099
##IDEAL CHEMISTRY=Na_6_(Si_30_Al_6_)O_72_&#183;20H_2_O
##LOCALITY=Richardson Ranch, Madras, Jefferson County, Oregon, USA
##OWNER=RRUFF
##SOURCE=Michael Scott
##DESCRIPTION=Red-brown to salmon, somewhat coffin shaped tabular crystals in a fragmented geode
##STATUS=The identification of this mineral has been confirmed by X-ray diffraction and chemical analysis
##URL=rruff.info/R061099
##MEASURED CHEMISTRY=(Na_2.70_Ca_1.46_K_0.89_Fe_0.08_Mg_0.02_)_Σ=5.15_(Si_29.29_Al_6.71_)O_72_·18.51H_2_O
##PIN_ID=M00738
##ORIENTATION=Laser parallel to b* (0 1 0). Fiducial mark perpendicular to laser is parallel to c [0 0 1]
84.42800, 1706.000
85.66300, 2000.000
86.89900, 2263.000
88.13400, 2545.000
89.36900, 2977.000
90.60400, 3358.000
91.83800, 3991.000
93.07300, 4532.000
94.30700, 5134.000
95.54100, 5827.000
96.77500, 6548.258
98.00900, 7341.000
99.24300, 8179.000
100.4770, 9106.000
101.7100, 10040.00
102.9440, 10662.00
104.1770, 11321.00
105.4100, 12386.00
106.6430, 14024.00
107.8750, 13935.00
109.1080, 14917.00
110.3400, 15525.00
111.5720, 15747.00
112.8040, 16018.00
114.0360, 16570.00
115.2680, 17189.00
116.5000, 17491.00
117.7310, 17851.00
118.9620, 17964.00
120.1940, 18017.00
121.4250, 18304.00
122.6550, 18061.00
123.8860, 18089.00
125.1170, 18180.00
126.3470, 18150.00
127.5770, 18270.00
128.8070, 18239.00
130.0370, 18114.00
131.2670, 18322.00
132.4970, 18167.00
133.7260, 18378.00
134.9550, 18437.00
136.1850, 18363.00
137.4140, 18313.00
138.6420, 18370.00
139.8710, 18459.00
141.1000, 18316.00
142.3280, 18342.00
143.5560, 18059.00
144.7840, 17951.00
146.0120, 17792.00
147.2400, 17708.00
148.4680, 17414.00
149.6950, 17191.00
150.9220, 17009.00
152.1500, 16808.00
153.3770, 16560.00
154.6030, 16313.95
155.8300, 16171.00
157.0570, 15767.00
158.2830, 15443.00
159.5090, 15174.00
160.7350, 15074.00
161.9610, 14916.00
163.1870, 14677.00
164.4130, 14644.00
165.6380, 14449.00
166.8630, 14237.00
168.0880, 14151.00
169.3130, 13925.00
170.5380, 13737.00
171.7630, 13659.00
172.9870, 13394.00
174.2120, 13123.00
175.4360, 12881.00
176.6600, 12692.00
177.8840, 12621.00
179.1080, 12483.00
180.3310, 12276.00
181.5550, 11954.00
182.7780, 11803.00
184.0010, 11588.00
185.2240, 11561.00
186.4470, 11325.00
187.6700, 11351.00
188.8920, 11209.00
190.1150, 11170.00
191.3370, 10942.00
192.5590, 10855.00
193.7810, 10781.00
195.0020, 10688.00
196.2240, 10718.00
197.4450, 10647.00
198.6670, 10544.00
199.8880, 10550.00
201.1090, 10609.00
202.3300, 10570.00
203.5500, 10362.00
204.7710, 10273.00
205.9910, 10087.00
207.2110, 9948.000
208.4310, 9975.000
209.6510, 9999.000
210.8710, 9891.000
212.0910, 9816.000
213.3100, 9850.000
214.5290, 9805.000
215.7480, 9831.000
216.9670, 9779.000
218.1860, 9746.000
219.4050, 9727.000
220.6230, 9749.000
221.8420, 9677.000
223.0600, 9686.000
224.2780, 9648.719
225.4960, 9669.840
226.7130, 9611.000
227.9310, 9778.000
229.1480, 9842.000
230.3660, 9991.000
231.5830, 9833.000
232.8000, 9917.000
234.0160, 9993.000
235.2330, 10141.00
236.4490, 10248.00
237.6660, 10256.00
238.8820, 10483.00
240.0980, 10510.00
241.3140, 10749.00
242.5300, 10628.00
243.7450, 10912.00
244.9600, 11287.00
246.1760, 11282.00
247.3910, 11404.00
248.6060, 11493.00
249.8200, 11668.00
251.0350, 11782.00
252.2500, 11865.00
253.4640, 11812.00
254.6780, 12017.00
255.8920, 11915.00
257.1060, 11996.00
258.3190, 11984.00
259.5330, 12178.00
260.7460, 12105.00
261.9600, 11897.00
263.1730, 11876.00
264.3850, 11614.00
265.5980, 11466.00
266.8110, 11590.00
268.0230, 11491.00
269.2360, 11478.00
270.4480, 11237.00
271.6600, 11182.00
272.8710, 11090.00
274.0830, 10969.00
275.2950, 10884.00
276.5060, 10789.22
277.7170, 10740.00
278.9280, 10617.00
280.1390, 10516.00
281.3500, 10436.00
282.5600, 10479.00
283.7710, 10430.00
284.9810, 10329.00
286.1910, 10230.00
287.4010, 10184.00
288.6110, 10121.00
289.8200, 10205.00
291.0300, 10073.00
292.2390, 10155.00
293.4480, 10102.00
294.6570, 10038.00
295.8660, 10229.00
297.0750, 10234.00
298.2830, 10349.00
299.4920, 10324.00
300.7000, 10273.00
301.9080, 10431.00
303.1160, 10586.00
304.3240, 10558.00
305.5310, 10603.00
306.7390, 10586.00
307.9460, 10649.77
309.1530, 10766.00
310.3600, 10777.00
311.5670, 10847.00
312.7740, 10894.00
313.9800, 10877.00
315.1870, 11023.00
316.3930, 11068.00
317.5990, 10937.00
318.8050, 10905.00
320.0110, 10980.00
321.2160, 10908.00
322.4220, 11091.00
323.6270, 11180.00
324.8320, 10971.00
326.0370, 10966.00
327.2420, 10873.00
328.4460, 10890.05
329.6510, 11046.00
330.8550, 11025.00
332.0590, 10989.00
333.2630, 11101.00
334.4670, 11021.00
335.6710, 11095.00
336.8740, 11145.00
338.0780, 11145.00
339.2810, 11204.00
340.4840, 11274.00
341.6870, 11415.00
342.8900, 11425.00
344.0920, 11556.00
345.2950, 11577.00
346.4970, 11677.00
347.6990, 11682.00
348.9010, 11899.00
350.1030, 12078.00
351.3050, 12057.00
352.5060, 12270.00
353.7080, 12443.00
354.9090, 12512.00
356.1100, 12560.00
357.3110, 12846.00
358.5110, 12887.00
359.7120, 13146.00
360.9120, 13354.00
362.1130, 13605.00
363.3130, 13747.00
364.5130, 14081.00
365.7120, 14144.00
366.9120, 14571.00
368.1120, 14613.00
369.3110, 14829.00
370.5100, 15187.00
371.7090, 15433.00
372.9080, 15715.00
374.1070, 15863.00
375.3050, 16316.00
376.5040, 16498.00
377.7020, 16478.00
378.9000, 17261.00
380.0980, 17344.00
381.2950, 17771.00
382.4930, 18356.00
383.6910, 18769.00
384.8880, 19433.00
386.0850, 19853.00
387.2820, 20597.00
388.4790, 21254.00
389.6750, 22267.00
390.8720, 22932.00
392.0680, 24011.00
393.2640, 24971.00
394.4600, 26058.00
395.6560, 27234.00
396.8520, 28679.00
398.0480, 29746.00
399.2430, 30677.00
400.4380, 31910.00
401.6330, 32608.00
402.8280, 33561.00
404.0230, 33885.00
405.2180, 34065.00
406.4120, 34040.00
407.6060, 33826.00
408.8000, 33035.00
409.9940, 32362.00
411.1880, 31336.00
412.3820, 30352.00
413.5750, 29345.00
414.7690, 28319.00
415.9620, 27218.65
417.1550, 26143.88
418.3480, 24940.00
419.5410, 23941.00
420.7330, 22759.00
421.9260, 21709.00
423.1180, 20642.00
424.3100, 19543.00
425.5020, 18779.00
426.6940, 18053.00
427.8850, 17433.00
429.0770, 16630.49
430.2680, 15839.00
431.4590, 15275.00
432.6500, 14683.00
433.8410, 14373.00
435.0320, 13894.54
436.2220, 13370.00
437.4130, 13221.00
438.6030, 12976.00
439.7930, 12788.00
440.9830, 12706.00
442.1730, 12528.00
443.3620, 12359.00
444.5520, 12182.00
445.7410, 12294.00
446.9300, 12272.00
448.1190, 12294.00
449.3080, 12408.00
450.4960, 12545.00
451.6850, 12683.00
452.8730, 12962.00
454.0610, 13172.00
455.2490, 13695.00
456.4370, 13911.00
457.6250, 14462.00
458.8130, 14897.00
460.0000, 15305.00
461.1870, 16055.00
462.3740, 16394.00
463.5610, 16898.00
464.7480, 17434.00
465.9340, 17484.00
467.1210, 17869.00
468.3070, 18042.00
469.4930, 18356.00
470.6790, 18526.00
471.8650, 18893.00
473.0510, 19481.00
474.2360, 19956.00
475.4210, 20452.00
476.6070, 21383.00
477.7920, 22089.00
478.9770, 22797.00
480.1610, 23252.00
481.3460, 23836.00
482.5300, 24170.00
483.7140, 24224.00
484.8980, 23985.00
486.0820, 23336.00
487.2660, 22348.00
488.4500, 21561.00
489.6330, 20083.00
490.8160, 18946.00
492.0000, 17909.00
493.1830, 16552.00
494.3650, 15369.00
495.5480, 14485.00
496.7300, 13566.00
497.9130, 12890.00
499.0950, 12093.00
500.2770, 11629.00
501.4590, 11176.00
502.6410, 10976.00
503.8220, 10648.00
505.0030, 10450.00
506.1850, 10185.00
507.3660, 9938.000
508.5470, 9818.000
509.7270, 9661.000
510.9080, 9522.911
512.0880, 9443.086
513.2690, 9329.000
514.4490, 9320.000
515.6290, 9295.000
516.8090, 9297.000
517.9880, 9258.713
519.1680, 9227.130
520.3470, 9187.000
521.5260, 9148.000
522.7050, 9109.480
523.8840, 9079.480
525.0630, 9005.000
526.2410, 8969.000
527.4200, 8930.000
528.5980, 8830.000
529.7760, 8959.000
530.9540, 8750.000
532.1320, 8837.000
533.3090, 8855.000
534.4870, 8782.000
535.6640, 8782.000
536.8410, 8705.000
538.0180, 8802.000
539.1950, 8696.000
540.3710, 8707.000
541.5480, 8608.000
542.7240, 8678.000
543.9000, 8633.000
545.0760, 8592.000
546.2520, 8509.000
547.4280, 8620.000
548.6040, 8512.000
549.7790, 8697.000
550.9540, 8652.000
552.1290, 8542.000
553.3040, 8772.000
554.4790, 8670.000
555.6530, 8560.000
556.8280, 8648.000
558.0020, 8656.000
559.1760, 8692.000
560.3500, 8824.000
561.5240, 8631.000
562.6980, 8626.000
563.8710, 8872.000
565.0440, 8696.000
566.2170, 8723.000
567.3900, 8735.000
568.5630, 8800.000
569.7360, 8800.000
570.9090, 8844.000
572.0810, 8805.000
573.2530, 8860.000
574.4250, 8923.000
575.5970, 8842.000
576.7690, 8886.000
577.9400, 8909.254
579.1120, 8992.000
580.2830, 8992.000
581.4540, 9087.000
582.6250, 9162.000
583.7960, 9200.000
584.9660, 9293.000
586.1370, 9349.000
587.3070, 9251.000
588.4770, 9315.000
589.6470, 9356.000
590.8170, 9492.000
591.9870, 9532.000
593.1560, 9572.000
594.3260, 9569.000
595.4950, 9735.000
596.6640, 9802.000
597.8330, 9769.000
599.0010, 10049.00
600.1700, 10136.00
601.3380, 10347.00
602.5070, 10419.00
603.6750, 10477.00
604.8430, 10684.00
606.0100, 10991.00
607.1780, 11090.00
608.3450, 11411.00
609.5130, 11507.00
610.6800, 11739.00
611.8470, 11943.00
613.0140, 12331.00
614.1800, 12429.00
615.3470, 12711.00
616.5130, 12766.00
617.6790, 12916.00
618.8450, 13150.00
620.0110, 13106.00
621.1770, 13095.00
622.3420, 13171.00
623.5080, 13003.00
624.6730, 12960.00
625.8380, 12825.00
627.0030, 12570.00
628.1680, 12447.00
629.3320, 12047.00
630.4970, 11656.00
631.6610, 11192.00
632.8250, 11083.00
633.9890, 10725.00
635.1530, 10420.00
636.3160, 10267.00
637.4800, 10196.00
638.6430, 10210.00
639.8060, 10091.00
640.9690, 10106.00
642.1320, 10086.00
643.2950, 10180.00
644.4570, 9999.000
645.6200, 10208.00
646.7820, 10169.00
647.9440, 10038.00
649.1060, 9945.000
650.2670, 9884.000
651.4290, 9783.598
652.5900, 9713.678
653.7520, 9619.000
654.9130, 9539.000
656.0740, 9433.000
657.2340, 9290.000
658.3950, 9185.000
659.5550, 8956.000
660.7160, 8933.000
661.8760, 8874.000
663.0360, 8874.000
664.1960, 8689.000
665.3550, 8660.000
666.5150, 8693.000
667.6740, 8605.581
668.8330, 8777.000
669.9920, 8485.000
671.1510, 8636.000
672.3100, 8417.000
673.4680, 8356.000
674.6270, 8414.000
675.7850, 8448.000
676.9430, 8469.000
678.1010, 8459.007
679.2590, 8471.000
680.4160, 8395.000
681.5740, 8409.000
682.7310, 8365.000
683.8880, 8405.000
685.0450, 8428.000
686.2020, 8390.000
687.3580, 8349.000
688.5150, 8399.000
689.6710, 8283.000
690.8270, 8359.000
691.9830, 8323.000
693.1390, 8281.000
694.2950, 8285.000
695.4500, 8264.000
696.6050, 8358.000
697.7610, 8297.000
698.9160, 8316.000
700.0710, 8509.000
701.2250, 8446.000
702.3800, 8547.000
703.5340, 8340.000
704.6880, 8384.000
705.8420, 8306.000
706.9960, 8362.000
708.1500, 8406.000
709.3040, 8368.000
710.4570, 8426.000
711.6100, 8305.000
712.7640, 8320.000
713.9160, 8323.000
715.0690, 8574.000
716.2220, 8396.000
717.3740, 8445.000
718.5270, 8456.000
719.6790, 8350.000
720.8310, 8357.000
721.9830, 8461.000
723.1340, 8385.000
724.2860, 8526.000
725.4370, 8436.000
726.5880, 8527.000
727.7390, 8580.000
728.8900, 8562.000
730.0410, 8544.000
731.1910, 8473.000
732.3420, 8477.294
733.4920, 8448.000
734.6420, 8450.000
735.7920, 8514.069
736.9420, 8584.234
738.0910, 8624.882
739.2410, 8637.602
740.3900, 8538.739
741.5390, 8583.961
742.6880, 8571.439
743.8370, 8556.551
744.9860, 8622.051
746.1340, 8539.416
747.2820, 8603.639
748.4310, 8609.241
749.5790, 8641.672
750.7260, 8616.002
751.8740, 8608.278
753.0220, 8538.000
754.1690, 8496.000
755.3160, 8636.000
756.4630, 8672.000
757.6100, 8532.000
758.7570, 8601.000
759.9030, 8567.000
761.0500, 8635.000
762.1960, 8562.000
763.3420, 8590.000
764.4880, 8598.000
765.6340, 8680.000
766.7790, 8659.000
767.9250, 8602.000
769.0700, 8537.000
770.2150, 8779.000
771.3600, 8678.000
772.5050, 8767.000
773.6490, 8630.000
774.7940, 8716.000
775.9380, 8717.000
777.0820, 8791.000
778.2260, 8864.000
779.3700, 8792.000
780.5140, 8725.000
781.6570, 8872.000
782.8010, 8820.000
783.9440, 8763.000
785.0870, 8841.000
786.2300, 8942.000
787.3720, 8798.000
788.5150, 9029.000
789.6570, 8834.000
790.8000, 8940.000
791.9420, 8974.000
793.0840, 8857.000
794.2250, 8941.000
795.3670, 8914.000
796.5080, 8877.000
797.6500, 9061.000
798.7910, 8932.000
799.9320, 8967.000
801.0720, 8977.000
802.2130, 9038.000
803.3530, 9030.000
804.4940, 8985.000
805.6340, 9022.000
806.7740, 9007.000
807.9140, 8998.000
809.0530, 8987.000
810.1930, 9000.000
811.3320, 9086.000
812.4710, 9022.000
813.6100, 9074.000
814.7490, 9098.000
815.8880, 9251.000
817.0270, 9258.000
818.1650, 9264.000
819.3030, 9413.000
820.4410, 9204.000
821.5790, 9268.000
822.7170, 9221.000
823.8540, 9280.000
824.9920, 9186.000
826.1290, 9143.000
827.2660, 9129.000
828.4030, 9116.000
829.5400, 9093.652
830.6760, 9059.000
831.8130, 9062.000
832.9490, 9147.000
834.0850, 9128.930
835.2210, 9095.000
836.3570, 9097.000
837.4930, 9035.000
838.6280, 9017.000
839.7640, 9165.000
840.8990, 9095.000
842.0340, 9246.000
843.1690, 9190.000
844.3030, 9245.000
845.4380, 9399.000
846.5720, 9350.000
847.7060, 9294.000
848.8400, 9331.000
849.9740, 9335.728
851.1080, 9421.000
852.2420, 9425.000
853.3750, 9538.000
854.5080, 9589.000
855.6410, 9710.000
856.7740, 9746.000
857.9070, 9871.000
859.0400, 9914.000
860.1720, 9942.664
861.3040, 10053.00
862.4360, 9938.000
863.5680, 9918.000
864.7000, 9835.000
865.8320, 9684.000
866.9630, 9608.000
868.0950, 9506.000
869.2260, 9420.000
870.3570, 9469.000
871.4880, 9228.000
872.6180, 9210.000
873.7490, 9283.000
874.8790, 9320.000
876.0090, 9327.000
877.1390, 9279.000
878.2690, 9257.000
879.3990, 9116.000
880.5280, 9312.000
881.6580, 9151.000
882.7870, 9244.000
883.9160, 9167.000
885.0450, 9148.000
886.1740, 9141.000
887.3020, 9188.000
888.4310, 9239.000
889.5590, 9254.000
890.6870, 9293.499
891.8150, 9342.000
892.9430, 9314.000
894.0700, 9298.000
895.1980, 9237.000
896.3250, 9331.000
897.4520, 9327.000
898.5790, 9330.000
899.7060, 9347.945
900.8330, 9322.188
901.9590, 9338.000
903.0850, 9284.000
904.2120, 9294.000
905.3380, 9288.000
906.4630, 9333.000
907.5890, 9265.000
908.7150, 9189.000
909.8400, 9327.000
910.9650, 9243.000
912.0900, 9210.000
913.2150, 9247.000
914.3400, 9135.000
915.4640, 9149.000
916.5890, 9055.000
917.7130, 9188.000
918.8370, 9010.000
919.9610, 9010.000
921.0850, 8892.000
922.2080, 9062.000
923.3320, 8968.000
924.4550, 8994.000
925.5780, 8995.000
926.7010, 8979.000
927.8240, 9086.000
928.9460, 9063.000
930.0690, 9144.000
931.1910, 9065.000
932.3130, 8984.000
933.4350, 9057.000
934.5570, 9078.000
935.6790, 9101.000
936.8000, 9191.000
937.9220, 9250.000
939.0430, 9083.000
940.1640, 9067.000
941.2850, 9146.000
942.4050, 9152.000
943.5260, 9109.000
944.6460, 9139.000
945.7660, 9053.000
946.8860, 9145.000
948.0060, 9151.000
949.1260, 9069.000
950.2460, 9092.000
951.3650, 9088.000
952.4840, 9307.000
953.6030, 9338.000
954.7220, 9275.000
955.8410, 9358.000
956.9590, 9225.000
958.0780, 9224.000
959.1960, 9228.000
960.3140, 9342.000
961.4320, 9358.000
962.5500, 9347.540
963.6680, 9277.000
964.7850, 9284.000
965.9020, 9333.000
967.0190, 9282.000
968.1360, 9383.000
969.2530, 9268.000
970.3700, 9225.000
971.4860, 9209.000
972.6030, 9293.000
973.7190, 9245.000
974.8350, 9138.000
975.9510, 9210.000
977.0660, 9093.000
978.1820, 9288.000
979.2970, 9042.000
980.4130, 9268.000
981.5280, 9139.000
982.6420, 9267.000
983.7570, 9233.000
984.8720, 9321.000
985.9860, 9472.000
987.1000, 9376.000
988.2140, 9491.000
989.3280, 9469.000
990.4420, 9377.000
991.5560, 9429.000
992.6690, 9369.000
993.7820, 9454.000
994.8950, 9479.000
996.0080, 9538.000
997.1210, 9683.000
998.2340, 9868.000
999.3460, 10213.00
1000.458, 10436.00
1001.571, 10724.00
1002.683, 10814.00
1003.794, 10634.00
1004.906, 10410.00
1006.017, 10098.00
1007.129, 9831.000
1008.240, 9708.000
1009.351, 9576.000
1010.462, 9474.000
1011.572, 9540.000
1012.683, 9512.000
1013.793, 9490.000
1014.904, 9715.000
1016.014, 9572.000
1017.123, 9891.000
1018.233, 9721.000
1019.343, 9993.000
1020.452, 10043.00
1021.561, 9959.000
1022.670, 10174.00
1023.779, 10152.00
1024.888, 10177.00
1025.997, 10189.00
1027.105, 10056.00
1028.213, 10057.00
1029.321, 9932.000
1030.429, 10019.00
1031.537, 9933.000
1032.645, 9856.000
1033.752, 9877.000
1034.859, 9823.000
1035.966, 9845.000
1037.073, 9757.000
1038.180, 9803.000
1039.287, 9707.000
1040.393, 9877.000
1041.500, 9840.000
1042.606, 9833.000
1043.712, 9874.000
1044.818, 9761.000
1045.923, 9873.000
1047.029, 9873.000
1048.134, 9983.000
1049.239, 9984.000
1050.344, 9952.000
1051.449, 9996.000
1052.554, 10035.00
1053.658, 9948.000
1054.763, 9952.000
1055.867, 9886.000
1056.971, 9903.000
1058.075, 9839.000
1059.179, 9811.000
1060.282, 9850.000
1061.385, 9832.000
1062.489, 9914.000
1063.592, 9858.000
1064.695, 9987.000
1065.797, 9976.000
1066.900, 9934.000
1068.002, 10007.00
1069.105, 9982.524
1070.207, 10010.00
1071.309, 9985.000
1072.411, 9985.000
1073.512, 9948.000
1074.614, 10083.00
1075.715, 10224.00
1076.816, 10214.00
1077.917, 10218.00
1079.018, 10415.00
1080.118, 10290.00
1081.219, 10457.00
1082.319, 10623.00
1083.419, 10585.00
1084.519, 10820.00
1085.619, 10711.00
1086.719, 10778.00
1087.818, 10615.00
1088.918, 10605.00
1090.017, 10753.00
1091.116, 10815.00
1092.215, 10687.00
1093.314, 10567.00
1094.412, 10853.00
1095.510, 10670.00
1096.609, 10826.00
1097.707, 10736.00
1098.805, 10852.00
1099.902, 10914.00
1101.000, 10957.00
1102.097, 11027.00
1103.195, 10957.00
1104.292, 11102.00
1105.389, 10978.00
1106.485, 11147.00
1107.582, 11086.00
1108.678, 11276.00
1109.775, 11286.00
1110.871, 11275.00
1111.967, 11373.00
1113.062, 11331.00
1114.158, 11301.00
1115.254, 11325.00
1116.349, 11304.00
1117.444, 11313.00
1118.539, 11284.00
1119.634, 11320.00
1120.728, 11306.00
1121.823, 11437.00
1122.917, 11420.00
1124.011, 11394.00
1125.105, 11325.00
1126.199, 11278.00
1127.293, 11370.00
1128.386, 11493.00
1129.480, 11441.00
1130.573, 11418.00
1131.666, 11526.00
1132.759, 11437.00
1133.851, 11415.00
1134.944, 11487.00
1136.036, 11403.00
1137.129, 11397.00
1138.221, 11341.00
1139.313, 11496.00
1140.404, 11402.00
1141.496, 11429.00
1142.587, 11309.00
1143.678, 11505.00
1144.770, 11384.00
1145.860, 11557.00
1146.951, 11492.00
1148.042, 11285.00
1149.132, 11382.00
1150.223, 11528.00
1151.313, 11425.00
1152.403, 11591.00
1153.492, 11587.00
1154.582, 11630.00
1155.671, 11650.00
1156.761, 11541.00
1157.850, 11462.00
1158.939, 11595.00
1160.028, 11462.00
1161.116, 11532.00
1162.205, 11685.00
1163.293, 11725.00
1164.381, 11602.00
1165.469, 11507.00
1166.557, 11604.00
1167.645, 11652.00
1168.732, 11637.00
1169.820, 11619.00
1170.907, 11602.00
1171.994, 11586.87
1173.081, 11546.00
1174.167, 11532.00
1175.254, 11493.00
1176.340, 11412.00
1177.426, 11391.00
1178.512, 11333.41
1179.598, 11298.00
1180.684, 11246.00
1181.770, 11211.49
1182.855, 11246.00
1183.940, 11168.00
1185.025, 11134.00
1186.110, 11161.00
1187.195, 11027.00
1188.280, 11039.00
1189.364, 11035.00
1190.448, 10927.00
1191.532, 10887.00
1192.616, 10847.10
1193.700, 10626.00
1194.784, 10754.00
1195.867, 10633.00
1196.950, 10555.00
1198.034, 10624.00
1199.117, 10475.00
1200.199, 10365.00
1201.282, 10490.00
1202.364, 10277.00
1203.447, 10422.00
1204.529, 10332.00
1205.611, 10213.00
1206.693, 10263.00
1207.774, 10103.00
1208.856, 10118.00
1209.937, 10194.00
1211.018, 10222.00
1212.099, 10181.00
1213.180, 10223.00
1214.261, 10231.00
1215.341, 10162.00
1216.422, 10154.00
1217.502, 10146.00
1218.582, 10146.00
1219.662, 10111.00
1220.742, 10082.75
1221.821, 10032.00
1222.900, 9999.000
1223.980, 10027.00
1225.059, 9992.000
1226.138, 10037.00
1227.216, 10139.00
1228.295, 10051.00
1229.373, 10111.00
1230.452, 10058.00
1231.530, 9999.000
1232.608, 10126.00
1233.685, 10085.01
1234.763, 10179.00
1235.840, 10193.00
1236.918, 10212.00
1237.995, 10376.00
1239.072, 10384.00
1240.149, 10311.00
1241.225, 10303.00
1242.302, 10208.00
1243.378, 10367.00
1244.454, 10215.00
1245.530, 10240.00
1246.606, 10321.00
1247.681, 10183.00
1248.757, 10303.00
1249.832, 10243.00
1250.907, 10236.00
1251.982, 10362.00
1253.057, 10224.00
1254.132, 10146.00
1255.206, 10339.00
1256.281, 10194.00
1257.355, 10387.00
1258.429, 10275.00
1259.503, 10293.00
1260.576, 10309.00
1261.650, 10349.00
1262.723, 10312.00
1263.797, 10479.00
1264.870, 10357.00
1265.942, 10485.00
1267.015, 10480.00
1268.088, 10579.00
1269.160, 10437.00
1270.232, 10564.00
1271.304, 10687.00
1272.376, 10576.00
1273.448, 10759.00
1274.520, 10460.00
1275.591, 10500.00
1276.662, 10652.00
1277.733, 10558.00
1278.804, 10586.00
1279.875, 10598.00
1280.946, 10429.00
1282.016, 10403.00
1283.086, 10504.00
1284.156, 10415.00
1285.226, 10347.00
1286.296, 10458.00
1287.366, 10395.00
1288.435, 10327.00
1289.505, 10512.00
1290.574, 10569.00
1291.643, 10659.00
1292.711, 10654.00
1293.780, 10618.00
1294.849, 10697.00
1295.917, 10739.00
1296.985, 10673.00
1298.053, 10654.00
1299.121, 10649.09
1300.189, 10607.00
1301.256, 10637.00
1302.323, 10554.00
1303.391, 10584.00
1304.458, 10603.00
1305.524, 10564.00
1306.591, 10600.00
1307.658, 10772.00
1308.724, 10833.00
1309.790, 10875.00
1310.856, 10902.00
1311.922, 10957.00
1312.988, 10997.00
1314.053, 10837.00
1315.119, 10829.00
1316.184, 10899.00
1317.249, 10870.00
1318.314, 10935.00
1319.379, 10877.00
1320.443, 10879.00
1321.508, 10851.00
1322.572, 10840.00
1323.636, 10798.00
1324.700, 10730.37
1325.764, 10618.00
1326.827, 10592.00
1327.891, 10557.00
1328.954, 10540.55
1330.017, 10444.00
1331.080, 10419.00
1332.143, 10447.00
1333.205, 10272.00
1334.268, 10164.00
1335.330, 10268.00
1336.392, 10173.00
1337.454, 10160.00
1338.516, 10264.00
1339.578, 10260.00
1340.639, 10289.00
1341.701, 10220.00
1342.762, 10131.00
1343.823, 10152.00
1344.883, 10273.00
1345.944, 10180.00
1347.005, 10176.00
1348.065, 10122.00
1349.125, 10252.00
1350.185, 10199.00
1351.245, 10211.00
1352.305, 10219.00
1353.364, 10148.00
1354.424, 10218.00
1355.483, 10267.00
1356.542, 10264.00
1357.601, 10162.00
1358.659, 10091.00
1359.718, 10135.00
1360.776, 10033.00
1361.834, 10059.00
1362.893, 10043.00
1363.950, 10141.00
1365.008, 10163.17
1366.066, 10232.00
1367.123, 10233.00
1368.180, 10264.00
1369.237, 10210.00
1370.294, 10238.00
1371.351, 10158.00
1372.408, 10249.00
1373.464, 10391.00
1374.520, 10312.00
1375.576, 10370.00
1376.632, 10421.00
1377.688, 10344.00
1378.744, 10437.00
1379.799, 10317.00
1380.854, 10337.00
1381.910, 10353.00
1382.965, 10321.00
1384.019, 10451.00
1385.074, 10398.00
1386.128, 10297.00
1387.183, 10324.00
1388.237, 10477.00
1389.291, 10252.00
1390.345, 10336.00
1391.398, 10359.00
1392.452, 10242.00
1393.505, 10319.00
1394.558, 10338.00
1395.611, 10229.00
1396.664, 10223.00
1397.717, 10250.00
1398.769, 10285.00
1399.822, 10125.00
1400.874, 10269.00
1401.926, 10195.00
1402.978, 10168.00
1404.029, 10252.00
1405.081, 10266.00
1406.132, 10339.00
1407.183, 10353.00
1408.234, 10204.00
1409.285, 10149.00
1410.336, 10258.00
1411.387, 10209.00
1412.437, 10275.00
1413.487, 10283.00
1414.537, 10283.00
1415.587, 10237.00
1416.637, 10258.00
1417.686, 10213.00
1418.736, 10269.00
1419.785, 10291.00
1420.834, 10207.00
1421.883, 10335.00
1422.932, 10406.00
1423.980, 10205.00
1425.029, 10343.00
1426.077, 10359.00
1427.125, 10448.00
1428.173, 10430.00
1429.221, 10498.00
1430.269, 10494.00
1431.316, 10646.00
1432.363, 10741.00
1433.410, 10677.00
1434.457, 10867.00
1435.504, 10935.00
1436.551, 11054.00
1437.597, 11195.00
1438.644, 11308.72
1439.690, 11442.58
1440.736, 11570.00
1441.781, 11693.00
1442.827, 11790.00
1443.873, 11891.00
1444.918, 11966.00
1445.963, 11950.00
1447.008, 12011.00
1448.053, 12097.00
1449.098, 12194.00
1450.142, 12066.00
1451.186, 12214.00
1452.231, 12343.00
1453.275, 12306.00
1454.319, 12500.00
1455.362, 12272.00
1456.406, 12199.00
1457.449, 12258.00
1458.492, 12367.00
1459.535, 12031.00
1460.578, 12053.00
1461.621, 11796.00
1462.663, 11738.00
1463.706, 11817.00
1464.748, 11530.00
1465.790, 11459.00
1466.832, 11376.00
1467.874, 11294.00
1468.915, 11225.60
1469.957, 11170.27
1470.998, 11124.39
1472.039, 11084.00
1473.080, 11065.00
1474.121, 11039.00
1475.161, 11026.88
1476.202, 10935.00
1477.242, 11018.00
1478.282, 11030.00
1479.322, 11068.00
1480.362, 10971.00
1481.401, 10968.00
1482.441, 10920.00
1483.480, 11008.00
1484.519, 10892.00
1485.558, 10807.00
1486.597, 10567.00
1487.636, 10618.00
1488.674, 10547.00
1489.712, 10482.00
1490.751, 10421.00
1491.788, 10397.35
1492.826, 10345.00
1493.864, 10405.00
1494.901, 10412.00
1495.939, 10498.00
1496.976, 10332.00
1498.013, 10319.00
1499.050, 10370.00
1500.086, 10315.00
1501.123, 10301.00
1502.159, 10324.00
1503.195, 10333.00
1504.231, 10330.00
1505.267, 10347.24
1506.303, 10360.00
1507.338, 10360.00
1508.374, 10353.00
1509.409, 10346.00
1510.444, 10452.00
1511.479, 10358.00
1512.514, 10423.00
1513.548, 10328.00
1514.583, 10393.00
1515.617, 10325.00
1516.651, 10388.00
1517.685, 10321.00
1518.718, 10426.00
1519.752, 10439.00
1520.785, 10401.00
1521.819, 10478.00
1522.852, 10584.00
1523.885, 10342.00
1524.917, 10416.00
1525.950, 10397.00
1526.982, 10514.00
1528.015, 10457.00
1529.047, 10719.00
1530.079, 10641.00
1531.110, 10710.00
1532.142, 10643.00
1533.173, 10544.00
1534.205, 10615.00
1535.236, 10550.00
1536.267, 10700.00
1537.298, 10581.00
1538.328, 10566.00
1539.359, 10657.00
1540.389, 10566.00
1541.419, 10649.00
1542.449, 10533.00
1543.479, 10596.00
1544.508, 10630.00
1545.538, 10658.00
1546.567, 10732.00
1547.596, 10602.00
1548.625, 10672.00
1549.654, 10534.00
1550.683, 10629.00
1551.711, 10712.00
1552.740, 10730.00
1553.768, 10544.00
1554.796, 10561.00
1555.824, 10625.00
1556.851, 10633.00
1557.879, 10667.00
1558.906, 10552.00
1559.933, 10703.00
1560.960, 10600.00
1561.987, 10621.00
1563.014, 10605.00
##END=



