##NAMES=Clinozoisite
##RRUFFID=R060284
##IDEAL CHEMISTRY=Ca_2_Al_3_(Si_2_O_7_)(SiO_4_)O(OH)
##LOCALITY=near Zagi Mountain, Khaffor Dehri, North-West Frontier Province, Pakistan
##OWNER=RRUFF
##SOURCE=Herb Obodda
##DESCRIPTION=Greenish-brown fragment of a prismatic crystal
##STATUS=The identification of this mineral has been confirmed by X-ray diffraction and chemical analysis
##URL=rruff.info/R060284
##MEASURED CHEMISTRY=Ca_2.00_(Al_0.90_Fe^3+^_0.10_)_3_(Si_1.00_O_4_)(Si_2.00_O_7_)O(OH)
##PIN_ID=L00714
##ORIENTATION=Laser parallel to c* (0 0 1). Fiducial mark perpendicular to laser is parallel to a [1 0 0]
118.1340, 13880.00
119.3650, 13636.00
120.5960, 13742.00
121.8270, 13768.00
123.0580, 13875.00
124.2880, 13922.00
125.5190, 13932.99
126.7490, 14011.92
127.9790, 13961.00
129.2090, 14173.00
130.4390, 14249.00
131.6680, 14464.00
132.8980, 14551.00
134.1270, 14700.00
135.3560, 15131.00
136.5850, 15613.00
137.8140, 16057.00
139.0430, 16697.00
140.2710, 16940.00
141.5000, 17030.00
142.7280, 17431.00
143.9560, 17296.00
145.1840, 17269.00
146.4120, 17326.00
147.6390, 17020.00
148.8670, 16850.00
150.0940, 16770.00
151.3210, 16595.00
152.5490, 16327.00
153.7750, 16025.00
155.0020, 15702.00
156.2290, 15411.00
157.4550, 14983.00
158.6810, 14599.00
159.9080, 14464.00
161.1340, 14064.00
162.3590, 13836.00
163.5850, 13782.00
164.8110, 13590.00
166.0360, 13376.00
167.2610, 13439.00
168.4860, 13402.00
169.7110, 13579.00
170.9360, 13773.00
172.1610, 13631.00
173.3850, 13816.00
174.6100, 13870.00
175.8340, 13786.00
177.0580, 13450.00
178.2820, 13285.00
179.5050, 12859.00
180.7290, 12570.00
181.9520, 12264.00
183.1760, 11996.00
184.3990, 11981.00
185.6220, 11946.00
186.8450, 11880.00
188.0670, 11863.08
189.2900, 11846.00
190.5120, 11815.00
191.7340, 11790.00
192.9560, 11804.00
194.1780, 11887.00
195.4000, 11922.00
196.6220, 11886.00
197.8430, 11790.00
199.0640, 11768.00
200.2860, 11926.00
201.5070, 11953.00
202.7270, 12111.00
203.9480, 12250.00
205.1690, 12295.00
206.3890, 12405.00
207.6090, 12733.00
208.8290, 12888.00
210.0490, 12982.00
211.2690, 13098.00
212.4890, 13233.51
213.7080, 13447.00
214.9280, 13505.00
216.1470, 13534.00
217.3660, 13692.00
218.5850, 13525.00
219.8030, 13663.00
221.0220, 13683.00
222.2400, 13748.00
223.4590, 13798.00
224.6770, 14279.00
225.8950, 14628.00
227.1120, 15154.00
228.3300, 15705.00
229.5480, 16528.00
230.7650, 17461.63
231.9820, 18531.00
233.1990, 19475.00
234.4160, 20479.00
235.6330, 21117.00
236.8490, 21767.00
238.0660, 22146.00
239.2820, 22152.00
240.4980, 22179.00
241.7140, 22228.00
242.9300, 22383.00
244.1460, 22745.19
245.3610, 23249.00
246.5770, 23801.00
247.7920, 24932.00
249.0070, 25858.00
250.2220, 26836.00
251.4370, 27578.00
252.6510, 28067.00
253.8660, 28046.00
255.0800, 27622.00
256.2940, 27107.00
257.5080, 26327.00
258.7220, 25870.00
259.9360, 24343.00
261.1490, 22835.00
262.3630, 21691.00
263.5760, 21333.00
264.7890, 21100.00
266.0020, 20988.00
267.2150, 21140.00
268.4270, 21314.00
269.6400, 22315.00
270.8520, 22979.00
272.0640, 23626.00
273.2760, 24749.00
274.4880, 25481.00
275.7000, 26107.00
276.9120, 26162.00
278.1230, 25666.00
279.3340, 24943.00
280.5450, 23889.00
281.7560, 22644.00
282.9670, 21515.00
284.1780, 20677.00
285.3880, 19982.00
286.5980, 19458.00
287.8090, 19088.00
289.0190, 18632.00
290.2290, 18258.00
291.4380, 18261.00
292.6480, 17947.00
293.8570, 17989.00
295.0670, 17534.00
296.2760, 17383.00
297.4850, 17754.00
298.6930, 17588.30
299.9020, 17629.59
301.1110, 17863.00
302.3190, 17588.00
303.5270, 17736.00
304.7350, 17748.00
305.9430, 17974.00
307.1510, 18182.00
308.3580, 18349.00
309.5660, 18442.00
310.7730, 18488.59
311.9800, 18543.00
313.1870, 18439.00
314.3940, 18328.00
315.6010, 18230.00
316.8070, 18238.00
318.0130, 18197.00
319.2200, 18211.00
320.4260, 18267.00
321.6310, 18581.00
322.8370, 18521.00
324.0430, 18818.00
325.2480, 18941.00
326.4540, 19094.00
327.6590, 19252.00
328.8640, 19790.00
330.0680, 20347.00
331.2730, 21032.00
332.4780, 21836.00
333.6820, 22670.00
334.8860, 23732.00
336.0900, 24624.00
337.2940, 25518.00
338.4980, 26455.00
339.7010, 27460.00
340.9050, 27880.00
342.1080, 28615.00
343.3110, 28933.00
344.5140, 29454.00
345.7170, 29744.00
346.9200, 30234.00
348.1220, 30628.00
349.3240, 31012.00
350.5270, 31269.00
351.7290, 31073.00
352.9310, 30440.00
354.1320, 29354.00
355.3340, 28010.00
356.5350, 26310.00
357.7370, 24783.00
358.9380, 23311.00
360.1390, 21870.00
361.3400, 20783.00
362.5400, 19852.00
363.7410, 19166.00
364.9410, 18476.00
366.1410, 18156.00
367.3410, 17756.00
368.5410, 17403.00
369.7410, 17267.00
370.9400, 16800.00
372.1400, 16513.00
373.3390, 16360.00
374.5380, 15942.00
375.7370, 15669.00
376.9360, 15342.00
378.1350, 14923.00
379.3330, 15024.00
380.5310, 14822.00
381.7300, 15020.00
382.9280, 15107.00
384.1260, 15488.00
385.3230, 15933.00
386.5210, 16514.00
387.7180, 16733.00
388.9160, 17240.00
390.1130, 17651.00
391.3100, 17840.00
392.5060, 18095.00
393.7030, 18270.00
394.9000, 18270.00
396.0960, 18066.00
397.2920, 17854.00
398.4880, 17416.00
399.6840, 16948.00
400.8800, 16158.00
402.0750, 15594.00
403.2710, 14823.00
404.4660, 14379.00
405.6610, 13800.00
406.8560, 13269.00
408.0510, 13046.00
409.2450, 12971.00
410.4400, 13017.01
411.6340, 13191.00
412.8280, 13693.00
414.0220, 14080.00
415.2160, 14861.00
416.4100, 15887.00
417.6030, 16943.00
418.7970, 18489.00
419.9900, 20343.00
421.1830, 22620.00
422.3760, 25263.00
423.5690, 28526.00
424.7610, 30916.00
425.9540, 33402.00
427.1460, 34567.00
428.3380, 35408.00
429.5300, 34847.00
430.7220, 33552.00
431.9140, 32129.00
433.1050, 30319.00
434.2970, 28808.00
435.4880, 27439.00
436.6790, 26779.00
437.8700, 26550.00
439.0610, 26784.00
440.2510, 27738.00
441.4420, 29314.00
442.6320, 31166.00
443.8220, 34405.00
445.0120, 37765.00
446.2020, 41614.00
447.3910, 45884.00
448.5810, 50554.00
449.7700, 54541.00
450.9600, 58693.00
452.1490, 60650.00
453.3370, 62247.00
454.5260, 62376.00
455.7150, 61093.00
456.9030, 59165.00
458.0910, 57241.00
459.2800, 53636.00
460.4670, 50824.00
461.6550, 48219.00
462.8430, 46374.00
464.0300, 44720.20
465.2180, 43536.00
466.4050, 42813.00
467.5920, 42359.00
468.7790, 42450.00
469.9650, 42590.00
471.1520, 42475.00
472.3380, 42454.00
473.5250, 42459.00
474.7110, 41910.00
475.8970, 41661.00
477.0820, 40985.00
478.2680, 40260.00
479.4540, 39673.00
480.6390, 38991.00
481.8240, 37599.00
483.0090, 36940.00
484.1940, 35524.00
485.3780, 33871.00
486.5630, 32022.00
487.7470, 30406.00
488.9320, 28580.00
490.1160, 26806.00
491.3000, 25246.45
492.4830, 24112.00
493.6670, 22328.00
494.8500, 21352.00
496.0340, 20446.00
497.2170, 20025.00
498.4000, 19489.00
499.5820, 19529.00
500.7650, 19517.00
501.9480, 19766.00
503.1300, 20165.00
504.3120, 20628.00
505.4940, 21294.00
506.6760, 21837.00
507.8580, 22221.00
509.0390, 22211.00
510.2210, 21965.00
511.4020, 21523.00
512.5830, 20873.00
513.7640, 20219.00
514.9450, 19647.00
516.1250, 19050.00
517.3060, 18279.00
518.4860, 17857.00
519.6660, 17197.00
520.8460, 16461.59
522.0260, 15874.00
523.2060, 15097.00
524.3850, 14516.00
525.5650, 14124.00
526.7440, 13451.00
527.9230, 13184.00
529.1020, 12606.00
530.2810, 12481.00
531.4590, 12224.00
532.6380, 11885.73
533.8160, 11857.00
534.9940, 11380.00
536.1720, 11484.00
537.3500, 11306.00
538.5270, 11442.00
539.7050, 11417.00
540.8820, 11663.00
542.0590, 11600.00
543.2360, 11719.00
544.4130, 11712.00
545.5900, 11919.00
546.7660, 12066.00
547.9430, 12219.00
549.1190, 12326.00
550.2950, 12565.00
551.4710, 13084.00
552.6470, 13403.00
553.8220, 13873.00
554.9980, 14425.00
556.1730, 14865.00
557.3480, 15529.00
558.5230, 16360.00
559.6980, 17363.00
560.8730, 18660.00
562.0470, 20414.00
563.2220, 22741.00
564.3960, 25708.00
565.5700, 29490.00
566.7440, 33861.00
567.9170, 39249.00
569.0910, 44879.00
570.2640, 49479.00
571.4380, 50883.00
572.6110, 48946.00
573.7840, 45794.00
574.9570, 40438.00
576.1290, 34677.00
577.3020, 29378.00
578.4740, 24957.00
579.6460, 21776.00
580.8180, 19685.00
581.9900, 18278.00
583.1620, 17558.00
584.3330, 17248.00
585.5040, 16919.00
586.6760, 17079.00
587.8470, 17629.00
589.0180, 18162.00
590.1880, 18924.00
591.3590, 19341.00
592.5290, 20292.00
593.7000, 20817.00
594.8700, 21707.00
596.0400, 22760.00
597.2090, 23884.00
598.3790, 25145.00
599.5490, 26581.00
600.7180, 28171.00
601.8870, 29554.00
603.0560, 30704.00
604.2250, 31733.00
605.3940, 31938.00
606.5620, 31520.00
607.7300, 30383.00
608.8990, 29115.00
610.0670, 27218.00
611.2350, 25591.00
612.4020, 23563.00
613.5700, 22018.00
614.7370, 20629.00
615.9050, 19431.00
617.0720, 18222.00
618.2390, 17529.00
619.4060, 16536.00
620.5720, 15578.00
621.7390, 14609.00
622.9050, 13944.00
624.0710, 13355.00
625.2370, 12838.00
626.4030, 12290.00
627.5690, 11877.00
628.7340, 11772.00
629.9000, 11364.00
631.0650, 11158.00
632.2300, 10964.00
633.3950, 10728.00
634.5600, 10658.00
635.7240, 10530.00
636.8890, 10376.00
638.0530, 10242.00
639.2170, 10158.00
640.3810, 10120.00
641.5450, 10135.00
642.7080, 10087.00
643.8720, 10062.00
645.0350, 10198.00
646.1980, 10315.00
647.3610, 10470.00
648.5240, 10727.73
649.6870, 10911.00
650.8490, 11360.00
652.0120, 11799.00
653.1740, 12269.00
654.3360, 12686.00
655.4980, 12998.00
656.6600, 13202.00
657.8210, 13441.00
658.9830, 13301.00
660.1440, 13128.00
661.3050, 12960.00
662.4660, 12913.00
663.6270, 12802.00
664.7870, 12621.00
665.9480, 12380.00
667.1080, 12180.00
668.2680, 12174.00
669.4280, 12062.00
670.5880, 11886.00
671.7480, 11601.00
672.9070, 11470.00
674.0670, 11428.00
675.2260, 11401.00
676.3850, 11359.00
677.5440, 11383.00
678.7030, 11404.00
679.8610, 11574.00
681.0200, 11788.00
682.1780, 12023.00
683.3360, 12125.00
684.4940, 12429.00
685.6520, 12581.00
686.8090, 12838.00
687.9670, 12967.00
689.1240, 13083.67
690.2810, 13283.00
691.4380, 13243.00
692.5950, 13268.00
693.7520, 13313.00
694.9080, 13317.00
696.0650, 13348.00
697.2210, 13412.00
698.3770, 13476.00
699.5330, 13429.00
700.6880, 13302.60
701.8440, 13132.00
702.9990, 12866.00
704.1550, 12530.00
705.3100, 12185.00
706.4650, 11844.02
707.6190, 11498.00
708.7740, 11108.00
709.9290, 10727.83
711.0830, 10359.95
712.2370, 9955.000
713.3910, 9726.000
714.5450, 9486.000
715.6980, 9310.000
716.8520, 9144.224
718.0050, 8963.000
719.1580, 8881.000
720.3110, 8736.000
721.4640, 8624.000
722.6170, 8587.049
723.7700, 8548.000
724.9220, 8524.000
726.0740, 8388.000
727.2260, 8350.000
728.3780, 8290.000
729.5300, 8304.000
730.6810, 8279.000
731.8330, 8208.000
732.9840, 8175.000
734.1350, 8169.297
735.2860, 8137.961
736.4370, 8162.000
737.5880, 8173.000
738.7380, 8149.000
739.8880, 8276.000
741.0390, 8038.000
742.1890, 7983.000
743.3380, 7988.000
744.4880, 8090.000
745.6380, 8024.000
746.7870, 8000.000
747.9360, 7900.000
749.0850, 7975.000
750.2340, 8039.000
751.3830, 7887.000
752.5310, 7917.000
753.6800, 7906.000
754.8280, 7811.000
755.9760, 7924.000
757.1240, 7888.000
758.2720, 7927.000
759.4190, 7854.000
760.5670, 7896.000
761.7140, 7860.000
762.8610, 7977.000
764.0080, 7917.000
765.1550, 7925.000
766.3020, 7965.011
767.4480, 7909.000
768.5950, 7981.000
769.7410, 8005.000
770.8870, 7967.000
772.0330, 7921.000
773.1780, 7978.000
774.3240, 7938.000
775.4690, 7941.000
776.6140, 7982.000
777.7590, 7991.038
778.9040, 8140.000
780.0490, 8067.000
781.1940, 8081.000
782.3380, 8116.000
783.4820, 8043.000
784.6260, 8054.000
785.7700, 8108.000
786.9140, 8110.000
788.0580, 8132.000
789.2010, 8187.000
790.3450, 8304.000
791.4880, 8320.000
792.6310, 8233.000
793.7730, 8304.000
794.9160, 8263.000
796.0590, 8316.000
797.2010, 8320.000
798.3430, 8404.000
799.4850, 8433.692
800.6270, 8587.000
801.7690, 8545.000
802.9100, 8626.000
804.0520, 8725.000
805.1930, 8683.000
806.3340, 8674.000
807.4750, 8865.000
808.6160, 8952.000
809.7560, 8890.000
810.8970, 9039.000
812.0370, 9225.000
813.1770, 9462.000
814.3170, 9368.000
815.4570, 9438.000
816.5960, 9604.000
817.7360, 9754.000
818.8750, 9743.000
820.0140, 9953.000
821.1530, 10108.00
822.2920, 10280.00
823.4310, 10491.00
824.5690, 10536.00
825.7070, 10799.00
826.8460, 10972.00
827.9840, 11016.00
829.1220, 11307.00
830.2590, 11349.00
831.3970, 11535.00
832.5340, 11771.00
833.6710, 11775.00
834.8080, 12063.00
835.9450, 12188.00
837.0820, 12317.00
838.2190, 12504.00
839.3550, 12603.00
840.4910, 12857.00
841.6270, 12982.00
842.7630, 13096.00
843.8990, 13226.00
845.0350, 13306.00
846.1700, 13487.00
847.3060, 13917.00
848.4410, 13885.00
849.5760, 14380.00
850.7100, 14598.00
851.8450, 14921.00
852.9800, 15225.00
854.1140, 15674.00
855.2480, 16183.84
856.3820, 16848.00
857.5160, 17413.00
858.6500, 18152.00
859.7830, 18914.00
860.9170, 20014.00
862.0500, 21135.00
863.1830, 22360.00
864.3160, 23888.00
865.4480, 25655.00
866.5810, 27350.00
867.7130, 29484.00
868.8460, 31347.00
869.9780, 33155.00
871.1100, 34915.00
872.2410, 35957.00
873.3730, 37151.00
874.5050, 37639.00
875.6360, 37995.00
876.7670, 38150.00
877.8980, 38380.00
879.0290, 38584.00
880.1590, 38574.00
881.2900, 39098.00
882.4200, 38869.00
883.5500, 38861.00
884.6800, 38546.00
885.8100, 38703.00
886.9400, 38869.00
888.0690, 39084.00
889.1990, 39499.00
890.3280, 40501.00
891.4570, 41468.00
892.5860, 42795.00
893.7140, 44091.00
894.8430, 45082.00
895.9710, 45388.00
897.1000, 45771.00
898.2280, 45277.00
899.3560, 44259.00
900.4830, 42944.00
901.6110, 41465.00
902.7380, 39937.00
903.8660, 38700.00
904.9930, 37484.00
906.1200, 37250.00
907.2460, 36576.00
908.3730, 36737.00
909.5000, 36967.00
910.6260, 37318.00
911.7520, 37602.00
912.8780, 37899.00
914.0040, 37937.00
915.1290, 37789.00
916.2550, 37126.00
917.3800, 36367.00
918.5050, 35183.00
919.6300, 34345.00
920.7550, 33145.00
921.8800, 31917.00
923.0040, 31306.00
924.1290, 30394.00
925.2530, 29482.00
926.3770, 29049.00
927.5010, 28203.00
928.6250, 27833.00
929.7480, 27016.00
930.8720, 26614.00
931.9950, 26012.00
933.1180, 25436.00
934.2410, 24923.00
935.3640, 24154.00
936.4860, 23451.00
937.6090, 22946.00
938.7310, 21938.00
939.8530, 21354.00
940.9750, 20465.00
942.0970, 20102.00
943.2180, 19479.00
944.3400, 18854.00
945.4610, 18511.00
946.5820, 17755.00
947.7030, 17602.00
948.8240, 17298.00
949.9450, 16864.00
951.0650, 16815.00
952.1860, 16755.00
953.3060, 16773.00
954.4260, 16832.00
955.5460, 16953.00
956.6650, 17032.00
957.7850, 16974.00
958.9040, 17015.00
960.0230, 17185.00
961.1420, 17281.00
962.2610, 17219.00
963.3800, 17533.00
964.4990, 17606.00
965.6170, 17456.00
966.7350, 17295.00
967.8530, 17279.00
968.9710, 17435.00
970.0890, 17356.00
971.2070, 17501.00
972.3240, 17803.00
973.4410, 17988.00
974.5580, 18776.00
975.6750, 19710.00
976.7920, 20831.00
977.9090, 22222.00
979.0250, 23946.00
980.1410, 25857.00
981.2580, 28260.00
982.3740, 30273.00
983.4890, 31994.00
984.6050, 33263.00
985.7200, 33592.00
986.8360, 33098.00
987.9510, 31816.00
989.0660, 29944.00
990.1810, 27607.00
991.2950, 25289.00
992.4100, 23041.00
993.5240, 20971.00
994.6390, 19451.00
995.7530, 17946.00
996.8660, 16902.00
997.9800, 15948.00
999.0940, 15205.00
1000.207, 14474.00
1001.320, 13894.00
1002.433, 13473.00
1003.546, 13005.00
1004.659, 12672.00
1005.772, 12376.00
1006.884, 12080.05
1007.996, 11938.00
1009.108, 11686.00
1010.220, 11582.00
1011.332, 11548.00
1012.444, 11366.00
1013.555, 11406.00
1014.666, 11472.00
1015.777, 11384.00
1016.888, 11479.00
1017.999, 11556.00
1019.110, 11633.00
1020.220, 11887.00
1021.331, 12063.00
1022.441, 12506.00
1023.551, 12860.00
1024.661, 13345.00
1025.770, 13923.00
1026.880, 14334.00
1027.989, 14843.00
1029.098, 15267.00
1030.207, 15504.00
1031.316, 15612.00
1032.425, 15609.00
1033.533, 15443.00
1034.642, 15135.00
1035.750, 14850.00
1036.858, 14786.00
1037.966, 14774.00
1039.073, 14690.00
1040.181, 14747.00
1041.288, 14940.00
1042.396, 15132.00
1043.503, 15399.00
1044.610, 15459.00
1045.716, 15734.00
1046.823, 15811.00
1047.929, 15902.00
1049.036, 16005.00
1050.142, 15754.00
1051.248, 15589.00
1052.353, 15419.00
1053.459, 15144.20
1054.564, 14900.00
1055.670, 14566.00
1056.775, 14218.00
1057.880, 13805.00
1058.985, 13447.00
1060.089, 13262.00
1061.194, 12899.00
1062.298, 12685.00
1063.402, 12547.00
1064.506, 12448.00
1065.610, 12217.00
1066.713, 12319.00
1067.817, 12367.00
1068.920, 12376.00
1070.023, 12603.00
1071.126, 12869.00
1072.229, 13276.00
1073.332, 13708.00
1074.435, 14161.00
1075.537, 14973.00
1076.639, 15700.00
1077.741, 16601.00
1078.843, 17716.00
1079.945, 18641.00
1081.046, 19841.00
1082.148, 21220.00
1083.249, 22991.00
1084.350, 24854.00
1085.451, 27255.00
1086.551, 29825.00
1087.652, 32760.00
1088.752, 35891.00
1089.853, 39561.00
1090.953, 42840.00
1092.053, 46043.00
1093.152, 47839.00
1094.252, 47996.00
1095.351, 46808.00
1096.451, 43731.00
1097.550, 38970.00
1098.649, 34182.00
1099.748, 29422.00
1100.846, 25303.00
1101.945, 21955.00
1103.043, 19384.00
1104.141, 17460.00
1105.239, 16212.00
1106.337, 15001.00
1107.434, 14528.00
1108.532, 14533.00
1109.629, 13350.00
1110.726, 12882.00
1111.823, 13564.00
1112.920, 12555.00
1114.017, 12252.00
1115.113, 11990.00
1116.210, 11973.00
1117.306, 11761.00
1118.402, 11688.00
1119.498, 11539.00
1120.593, 11431.00
1121.689, 11275.00
1122.784, 11213.00
1123.879, 11148.00
1124.974, 11015.00
1126.069, 11049.00
1127.164, 10948.00
1128.259, 10886.00
1129.353, 10868.00
1130.447, 10693.00
1131.541, 10709.00
1132.635, 10584.00
1133.729, 10573.00
1134.822, 10679.00
1135.916, 10749.00
1137.009, 10513.00
1138.102, 10334.00
1139.195, 10530.00
1140.288, 10199.00
1141.380, 10433.00
1142.473, 10311.00
1143.565, 10285.00
1144.657, 10294.00
1145.749, 10147.00
1146.841, 10164.00
1147.932, 10275.00
1149.024, 10175.00
1150.115, 10101.00
1151.206, 10141.00
1152.297, 10125.00
1153.388, 9980.000
1154.479, 9862.000
1155.569, 9967.000
1156.659, 9936.000
1157.750, 9839.000
1158.839, 9980.000
1159.929, 9847.000
1161.019, 9809.000
1162.108, 9802.000
1163.198, 9887.000
1164.287, 9724.000
1165.376, 9679.000
1166.465, 9728.000
1167.553, 9663.000
1168.642, 9859.000
1169.730, 9765.000
1170.818, 9764.000
1171.906, 9645.000
1172.994, 9576.000
1174.082, 9701.000
1175.170, 9690.000
1176.257, 9589.000
1177.344, 9599.000
1178.431, 9623.000
1179.518, 9520.000
1180.605, 9527.000
1181.691, 9490.000
1182.778, 9480.218
1183.864, 9545.000
1184.950, 9520.000
1186.036, 9567.000
1187.122, 9639.000
1188.207, 9690.000
1189.292, 9534.000
1190.378, 9623.000
1191.463, 9524.000
1192.548, 9618.000
1193.632, 9644.000
1194.717, 9605.000
1195.801, 9669.000
1196.886, 9585.000
1197.970, 9649.000
1199.054, 9592.919
1200.137, 9551.000
1201.221, 9491.000
1202.305, 9544.000
1203.388, 9485.000
1204.471, 9440.000
1205.554, 9509.000
1206.637, 9492.000
1207.719, 9503.000
1208.802, 9449.000
1209.884, 9436.197
1210.966, 9521.000
1212.048, 9430.000
1213.130, 9466.000
1214.212, 9586.000
1215.293, 9463.000
1216.374, 9467.000
1217.456, 9459.000
1218.536, 9434.000
1219.617, 9434.718
1220.698, 9406.000
1221.778, 9408.000
1222.859, 9427.000
1223.939, 9395.000
1225.019, 9432.000
1226.099, 9463.000
1227.178, 9459.000
1228.258, 9450.000
1229.337, 9454.000
1230.417, 9422.000
1231.496, 9446.000
1232.574, 9434.000
1233.653, 9401.000
1234.732, 9476.000
1235.810, 9480.000
1236.888, 9451.000
1237.966, 9426.000
1239.044, 9374.000
1240.122, 9432.000
1241.199, 9455.000
1242.277, 9416.000
1243.354, 9438.000
1244.431, 9450.000
1245.508, 9461.000
1246.585, 9414.000
1247.661, 9498.000
1248.738, 9249.000
1249.814, 9454.000
1250.890, 9279.000
1251.966, 9361.000
1253.042, 9410.000
1254.117, 9387.000
1255.193, 9420.323
1256.268, 9367.000
1257.343, 9421.000
1258.418, 9370.000
1259.493, 9395.000
1260.567, 9400.000
1261.642, 9403.239
1262.716, 9464.000
1263.790, 9444.000
1264.864, 9474.419
1265.938, 9597.000
1267.011, 9489.000
1268.085, 9463.000
1269.158, 9430.000
1270.231, 9519.000
1271.304, 9301.000
1272.377, 9447.000
1273.450, 9477.000
1274.522, 9427.000
1275.594, 9520.000
1276.666, 9430.000
1277.738, 9584.000
1278.810, 9520.000
1279.882, 9551.000
1280.953, 9513.000
1282.025, 9458.000
1283.096, 9534.000
1284.167, 9513.000
1285.238, 9541.000
1286.308, 9566.000
1287.379, 9479.000
1288.449, 9512.000
1289.519, 9530.000
1290.589, 9414.000
1291.659, 9511.000
1292.729, 9553.000
1293.798, 9517.000
1294.868, 9588.000
1295.937, 9518.000
1297.006, 9441.000
1298.075, 9519.000
1299.143, 9473.000
1300.212, 9400.000
1301.280, 9481.000
1302.348, 9461.000
1303.416, 9560.000
1304.484, 9529.000
1305.552, 9606.000
1306.620, 9710.000
1307.687, 9472.000
1308.754, 9441.000
1309.821, 9634.000
1310.888, 9466.000
1311.955, 9638.000
1313.021, 9677.000
1314.088, 9630.000
1315.154, 9654.387
1316.220, 9594.000
1317.286, 9588.000
1318.352, 9543.000
1319.417, 9598.000
1320.483, 9653.000
1321.548, 9559.000
1322.613, 9649.000
1323.678, 9679.000
1324.743, 9726.000
1325.807, 9635.000
1326.872, 9735.000
1327.936, 9706.000
1329.000, 9675.000
1330.064, 9721.000
1331.128, 9718.000
1332.191, 9660.000
1333.255, 9643.000
1334.318, 9651.803
1335.381, 9764.000
1336.444, 9692.000
1337.507, 9685.000
1338.569, 9729.000
1339.632, 9673.000
1340.694, 9668.000
1341.756, 9751.000
1342.818, 9776.000
1343.880, 9784.000
1344.941, 9809.981
1346.003, 9773.000
1347.064, 9793.000
1348.125, 9852.000
1349.186, 9810.000
1350.247, 9748.000
1351.308, 9800.000
1352.368, 9857.000
1353.428, 9762.000
1354.489, 9772.000
1355.549, 9832.000
1356.608, 9879.000
1357.668, 9832.000
1358.727, 10002.00
1359.787, 10003.00
1360.846, 9961.000
1361.905, 9960.000
1362.964, 9828.000
1364.022, 9979.000
1365.081, 9820.000
1366.139, 9797.000
1367.197, 9946.000
1368.255, 9889.000
1369.313, 10038.00
1370.371, 10056.00
1371.428, 9888.000
1372.486, 9927.000
1373.543, 9955.000
1374.600, 9911.000
1375.657, 9946.000
1376.713, 9890.000
1377.770, 10030.00
1378.826, 10018.00
1379.882, 9871.000
1380.938, 10002.00
1381.994, 10008.00
1383.050, 9856.000
1384.106, 10036.00
1385.161, 9932.000
1386.216, 9966.000
1387.271, 9797.000
1388.326, 9881.000
1389.381, 9986.000
1390.435, 10088.00
1391.490, 9827.000
1392.544, 9984.000
1393.598, 9840.000
1394.652, 10035.00
1395.705, 9995.000
1396.759, 9824.000
1397.812, 9951.000
1398.866, 10043.00
1399.919, 9897.000
1400.972, 9903.000
1402.024, 10028.00
1403.077, 9860.000
1404.129, 9850.000
1405.181, 9872.000
1406.233, 10002.00
1407.285, 10029.00
1408.337, 10066.00
1409.389, 10031.00
1410.440, 9912.000
1411.491, 10018.00
1412.542, 10004.00
1413.593, 10013.00
1414.644, 10066.00
1415.695, 9909.000
1416.745, 10172.00
1417.795, 9986.000
1418.845, 10077.00
1419.895, 10070.00
1420.945, 10059.00
1421.995, 10084.00
1423.044, 10086.00
1424.093, 9965.000
1425.142, 10137.00
1426.191, 10010.00
1427.240, 10224.00
1428.289, 10076.00
1429.337, 10085.00
1430.385, 10252.00
1431.433, 10206.00
1432.481, 10089.00
1433.529, 10070.00
1434.577, 10055.00
1435.624, 10123.00
1436.672, 10150.00
1437.719, 10272.00
1438.766, 10150.00
1439.812, 10207.00
1440.859, 10149.00
1441.905, 10207.00
1442.952, 10157.00
1443.998, 10148.00
1445.044, 10120.00
1446.090, 10132.58
1447.135, 10155.00
1448.181, 10202.00
1449.226, 10184.00
1450.271, 10270.00
1451.316, 10180.00
1452.361, 10142.00
1453.405, 10243.00
1454.450, 10168.00
1455.494, 10264.00
1456.538, 10261.00
1457.582, 10193.00
1458.626, 10188.00
1459.670, 10302.00
1460.713, 10340.00
1461.757, 10243.00
1462.800, 10182.00
1463.843, 10213.00
1464.886, 10306.00
1465.928, 10136.00
1466.971, 10260.00
1468.013, 10051.00
1469.055, 10126.00
1470.097, 10294.00
1471.139, 10218.29
1472.181, 10260.06
1473.222, 10246.00
1474.263, 10241.00
1475.305, 10164.00
1476.346, 10253.00
1477.386, 10317.00
1478.427, 10255.00
1479.468, 10236.00
1480.508, 10188.00
1481.548, 10173.00
1482.588, 10375.00
1483.628, 10291.00
1484.668, 10283.00
1485.707, 10341.00
1486.747, 10195.00
1487.786, 10330.00
1488.825, 10344.00
1489.864, 10310.00
1490.902, 10297.00
1491.941, 10326.00
1492.979, 10306.00
1494.017, 10302.86
1495.055, 10425.00
1496.093, 10299.00
1497.131, 10343.00
1498.168, 10386.00
1499.206, 10304.00
1500.243, 10310.00
1501.280, 10316.00
1502.317, 10448.00
1503.354, 10317.00
1504.390, 10237.00
1505.426, 10376.00
1506.463, 10392.00
1507.499, 10343.00
1508.535, 10343.00
1509.570, 10340.00
1510.606, 10394.00
1511.641, 10476.00
1512.676, 10492.00
1513.711, 10523.81
1514.746, 10430.00
1515.781, 10550.00
1516.816, 10480.00
1517.850, 10498.00
1518.884, 10359.00
1519.918, 10369.00
1520.952, 10464.00
1521.986, 10509.00
1523.019, 10477.00
1524.053, 10450.00
1525.086, 10498.06
1526.119, 10492.00
1527.152, 10539.00
1528.185, 10504.00
1529.217, 10459.00
1530.250, 10551.00
1531.282, 10519.00
1532.314, 10523.00
1533.346, 10504.00
1534.377, 10521.00
1535.409, 10464.00
1536.440, 10492.00
1537.472, 10613.00
1538.503, 10438.00
1539.534, 10582.00
1540.564, 10507.00
1541.595, 10494.00
1542.625, 10483.00
1543.656, 10449.00
1544.686, 10602.00
1545.716, 10581.00
1546.745, 10574.00
1547.775, 10525.00
1548.804, 10537.00
1549.834, 10584.00
1550.863, 10524.00
1551.892, 10575.00
1552.920, 10580.73
1553.949, 10692.00
1554.977, 10614.00
1556.006, 10663.00
1557.034, 10670.00
1558.062, 10534.00
1559.089, 10574.00
1560.117, 10567.00
1561.144, 10531.00
1562.172, 10538.00
1563.199, 10619.00
1564.226, 10697.00
1565.252, 10644.00
1566.279, 10537.00
1567.305, 10655.00
1568.332, 10499.00
1569.358, 10738.00
1570.384, 10655.00
1571.409, 10713.00
1572.435, 10751.00
##END=



