##NAMES=Clinozoisite
##RRUFFID=R040085
##IDEAL CHEMISTRY=Ca_2_Al_3_(Si_2_O_7_)(SiO_4_)O(OH)
##LOCALITY=Alamos, Sonora, Mexico
##OWNER=RRUFF
##SOURCE=University of Arizona Mineral Museum
##DESCRIPTION=Divergent aggregate of red thin prismatic crystals
##STATUS=The identification of this mineral has been confirmed by X-ray diffraction and chemical analysis
##URL=rruff.info/R040085
##MEASURED CHEMISTRY=Ca_2.03_(Al_0.90_Fe_0.13_)_3_(Si_1.00_O_4_)(Si_2.00_O_7_)O(OH)
##PIN_ID=M00391
##ORIENTATION=Laser parallel to c* (0 0 1). Fiducial mark perpendicular to laser is parallel to a [1 0 0]
185.6220, 29290.00
186.8450, 29417.00
188.0670, 29481.00
189.2900, 29714.00
190.5120, 29746.00
191.7340, 29727.00
192.9560, 29944.00
194.1780, 29638.00
195.4000, 29817.00
196.6220, 29727.00
197.8430, 29864.00
199.0640, 29848.00
200.2860, 29787.00
201.5070, 29997.00
202.7270, 30049.00
203.9480, 30217.00
205.1690, 30058.00
206.3890, 30403.00
207.6090, 30579.00
208.8290, 30234.00
210.0490, 30600.00
211.2690, 30574.00
212.4890, 30673.00
213.7080, 30931.00
214.9280, 30895.00
216.1470, 30877.00
217.3660, 30967.00
218.5850, 31256.00
219.8030, 31330.00
221.0220, 31348.00
222.2400, 31312.00
223.4590, 31323.00
224.6770, 31467.00
225.8950, 31471.00
227.1120, 31778.00
228.3300, 31889.00
229.5480, 32072.00
230.7650, 32400.00
231.9820, 32596.00
233.1990, 32620.00
234.4160, 32715.00
235.6330, 32626.00
236.8490, 32868.00
238.0660, 32978.00
239.2820, 32721.00
240.4980, 33094.00
241.7140, 33034.00
242.9300, 33353.00
244.1460, 33401.00
245.3610, 33920.00
246.5770, 33754.00
247.7920, 34331.00
249.0070, 34824.00
250.2220, 34703.00
251.4370, 34900.00
252.6510, 35067.00
253.8660, 35276.00
255.0800, 34943.00
256.2940, 34832.00
257.5080, 34796.00
258.7220, 34683.00
259.9360, 33976.00
261.1490, 33908.00
262.3630, 33681.00
263.5760, 33400.00
264.7890, 33794.00
266.0020, 33673.00
267.2150, 33703.00
268.4270, 34225.00
269.6400, 34413.00
270.8520, 34617.00
272.0640, 34703.00
273.2760, 34586.00
274.4880, 34354.00
275.7000, 34360.00
276.9120, 33938.00
278.1230, 33679.00
279.3340, 33166.00
280.5450, 32865.00
281.7560, 32751.00
282.9670, 32503.00
284.1780, 32444.00
285.3880, 32356.00
286.5980, 32383.00
287.8090, 32630.00
289.0190, 32479.00
290.2290, 32561.00
291.4380, 32472.00
292.6480, 32364.00
293.8570, 32507.00
295.0670, 32457.00
296.2760, 32747.00
297.4850, 32831.00
298.6930, 32763.00
299.9020, 32635.00
301.1110, 32589.00
302.3190, 32539.00
303.5270, 32575.16
304.7350, 32617.29
305.9430, 32734.00
307.1510, 32838.00
308.3580, 32950.00
309.5660, 32994.74
310.7730, 33041.00
311.9800, 33093.00
313.1870, 33100.00
314.3940, 33203.00
315.6010, 32863.00
316.8070, 32957.71
318.0130, 32851.00
319.2200, 32920.00
320.4260, 32796.00
321.6310, 32853.00
322.8370, 32957.00
324.0430, 32871.00
325.2480, 33260.00
326.4540, 33000.00
327.6590, 33238.00
328.8640, 33118.00
330.0680, 33362.00
331.2730, 33188.00
332.4780, 33342.00
333.6820, 33747.00
334.8860, 33659.00
336.0900, 33857.00
337.2940, 34011.00
338.4980, 34453.00
339.7010, 34414.00
340.9050, 34826.00
342.1080, 34828.00
343.3110, 34790.00
344.5140, 35424.00
345.7170, 35455.00
346.9200, 35816.00
348.1220, 36046.00
349.3240, 36385.00
350.5270, 36410.00
351.7290, 36398.00
352.9310, 36126.00
354.1320, 36118.00
355.3340, 35585.00
356.5350, 35105.00
357.7370, 34978.00
358.9380, 34642.00
360.1390, 34227.00
361.3400, 34286.00
362.5400, 34110.00
363.7410, 33754.00
364.9410, 33648.00
366.1410, 33428.00
367.3410, 33344.00
368.5410, 33244.00
369.7410, 33255.00
370.9400, 33224.00
372.1400, 33200.87
373.3390, 33102.00
374.5380, 33165.00
375.7370, 33078.00
376.9360, 33002.00
378.1350, 33136.00
379.3330, 33267.00
380.5310, 33364.00
381.7300, 33618.00
382.9280, 33621.00
384.1260, 33508.00
385.3230, 33915.00
386.5210, 33993.00
387.7180, 33978.00
388.9160, 34301.00
390.1130, 34424.00
391.3100, 34624.00
392.5060, 34954.00
393.7030, 35131.00
394.9000, 35120.00
396.0960, 35452.00
397.2920, 35053.00
398.4880, 35150.00
399.6840, 34613.00
400.8800, 34827.00
402.0750, 34607.00
403.2710, 34711.00
404.4660, 34307.00
405.6610, 34187.00
406.8560, 34050.00
408.0510, 34056.00
409.2450, 34099.48
410.4400, 34185.03
411.6340, 34419.00
412.8280, 34527.00
414.0220, 34884.00
415.2160, 35131.00
416.4100, 35619.25
417.6030, 36286.00
418.7970, 36810.00
419.9900, 37442.00
421.1830, 38251.00
422.3760, 38819.00
423.5690, 39536.00
424.7610, 40030.00
425.9540, 40269.00
427.1460, 40362.00
428.3380, 39992.00
429.5300, 39953.00
430.7220, 39402.00
431.9140, 39281.00
433.1050, 38718.00
434.2970, 38557.00
435.4880, 38228.00
436.6790, 38046.00
437.8700, 37930.00
439.0610, 38033.00
440.2510, 38123.00
441.4420, 38678.00
442.6320, 38978.00
443.8220, 39392.00
445.0120, 39815.00
446.2020, 40641.00
447.3910, 41130.00
448.5810, 41742.00
449.7700, 42158.00
450.9600, 42727.00
452.1490, 42737.00
453.3370, 42677.00
454.5260, 42054.00
455.7150, 41811.00
456.9030, 41487.00
458.0910, 40948.40
459.2800, 40366.00
460.4670, 40009.00
461.6550, 39679.00
462.8430, 39263.00
464.0300, 38984.00
465.2180, 38955.00
466.4050, 38834.55
467.5920, 39042.00
468.7790, 38971.00
469.9650, 39193.00
471.1520, 39407.00
472.3380, 39394.00
473.5250, 39482.00
474.7110, 39445.00
475.8970, 39598.00
477.0820, 39628.00
478.2680, 39501.00
479.4540, 39347.00
480.6390, 39129.00
481.8240, 39007.00
483.0090, 38941.98
484.1940, 38787.50
485.3780, 38834.00
486.5630, 38655.00
487.7470, 38492.00
488.9320, 38589.00
490.1160, 38384.00
491.3000, 38067.00
492.4830, 38221.00
493.6670, 37955.00
494.8500, 37887.00
496.0340, 37694.00
497.2170, 37777.00
498.4000, 38059.00
499.5820, 38207.00
500.7650, 38174.00
501.9480, 38245.00
503.1300, 38311.00
504.3120, 38484.00
505.4940, 38450.00
506.6760, 38834.00
507.8580, 38984.00
509.0390, 38795.00
510.2210, 38690.00
511.4020, 39019.00
512.5830, 38691.00
513.7640, 38568.00
514.9450, 38485.00
516.1250, 38662.00
517.3060, 38418.00
518.4860, 38127.00
519.6660, 38607.00
520.8460, 38373.00
522.0260, 38288.00
523.2060, 38352.00
524.3850, 38474.00
525.5650, 38522.00
526.7440, 38199.00
527.9230, 38141.00
529.1020, 37763.00
530.2810, 37726.00
531.4590, 37669.00
532.6380, 37595.00
533.8160, 37552.00
534.9940, 37355.00
536.1720, 37386.00
537.3500, 37212.00
538.5270, 37120.00
539.7050, 37314.00
540.8820, 37700.00
542.0590, 37372.00
543.2360, 37413.00
544.4130, 37533.00
545.5900, 37341.00
546.7660, 37599.00
547.9430, 37697.00
549.1190, 37882.00
550.2950, 37942.00
551.4710, 38125.00
552.6470, 38358.00
553.8220, 38364.00
554.9980, 38638.00
556.1730, 38868.00
557.3480, 39106.00
558.5230, 39717.00
559.6980, 40074.00
560.8730, 40832.45
562.0470, 41532.00
563.2220, 42550.00
564.3960, 43683.00
565.5700, 44789.00
566.7440, 46675.00
567.9170, 48172.00
569.0910, 48949.00
570.2640, 49931.00
571.4380, 49233.00
572.6110, 48735.00
573.7840, 47110.00
574.9570, 45193.00
576.1290, 44016.00
577.3020, 42527.00
578.4740, 41387.00
579.6460, 40649.00
580.8180, 40396.00
581.9900, 39734.00
583.1620, 39605.00
584.3330, 39656.00
585.5040, 39662.00
586.6760, 39630.00
587.8470, 39826.00
589.0180, 40113.00
590.1880, 40098.00
591.3590, 40429.00
592.5290, 41139.00
593.7000, 41129.00
594.8700, 41552.00
596.0400, 41998.00
597.2090, 42359.00
598.3790, 43003.00
599.5490, 43341.00
600.7180, 43970.00
601.8870, 44232.00
603.0560, 44816.00
604.2250, 44388.00
605.3940, 44606.00
606.5620, 44750.00
607.7300, 43986.00
608.8990, 43276.00
610.0670, 42807.00
611.2350, 42514.00
612.4020, 41442.00
613.5700, 41233.00
614.7370, 40624.00
615.9050, 40410.00
617.0720, 40205.00
618.2390, 39957.00
619.4060, 39852.00
620.5720, 39553.00
621.7390, 39540.00
622.9050, 39571.00
624.0710, 39459.00
625.2370, 39122.00
626.4030, 38893.00
627.5690, 38997.00
628.7340, 39001.00
629.9000, 38911.00
631.0650, 38920.00
632.2300, 38940.00
633.3950, 38810.00
634.5600, 38663.00
635.7240, 38517.00
636.8890, 38565.00
638.0530, 38747.00
639.2170, 38589.00
640.3810, 38338.00
641.5450, 38821.00
642.7080, 38774.00
643.8720, 39064.00
645.0350, 38870.00
646.1980, 38969.00
647.3610, 38657.00
648.5240, 39252.00
649.6870, 39156.00
650.8490, 39531.00
652.0120, 39256.00
653.1740, 39613.00
654.3360, 39727.00
655.4980, 39892.00
656.6600, 39995.00
657.8210, 39861.00
658.9830, 39898.00
660.1440, 40077.00
661.3050, 39753.00
662.4660, 40129.00
663.6270, 39898.00
664.7870, 39939.00
665.9480, 39986.00
667.1080, 39787.00
668.2680, 39901.00
669.4280, 39624.00
670.5880, 39678.00
671.7480, 39817.00
672.9070, 39869.00
674.0670, 39660.00
675.2260, 39750.00
676.3850, 39824.00
677.5440, 39609.00
678.7030, 39659.00
679.8610, 39599.00
681.0200, 39970.00
682.1780, 39806.00
683.3360, 40049.00
684.4940, 39967.00
685.6520, 39873.00
686.8090, 40254.00
687.9670, 39920.00
689.1240, 39893.00
690.2810, 40237.00
691.4380, 40283.00
692.5950, 39988.00
693.7520, 40388.00
694.9080, 40585.00
696.0650, 40406.00
697.2210, 40438.00
698.3770, 40399.00
699.5330, 40518.00
700.6880, 40359.00
701.8440, 40092.00
702.9990, 40014.00
704.1550, 40032.00
705.3100, 39814.00
706.4650, 40019.00
707.6190, 39711.00
708.7740, 39862.00
709.9290, 39809.00
711.0830, 39681.00
712.2370, 39636.00
713.3910, 39565.30
714.5450, 39531.00
715.6980, 39469.00
716.8520, 39449.00
718.0050, 39445.00
719.1580, 39448.00
720.3110, 39707.00
721.4640, 39409.00
722.6170, 39464.00
723.7700, 39773.00
724.9220, 39733.00
726.0740, 39592.00
727.2260, 39664.00
728.3780, 39425.00
729.5300, 39480.00
730.6810, 39418.00
731.8330, 39395.95
732.9840, 39641.00
734.1350, 39456.00
735.2860, 39568.00
736.4370, 39636.00
737.5880, 39629.00
738.7380, 39641.00
739.8880, 39785.00
741.0390, 39659.00
742.1890, 39835.00
743.3380, 39911.00
744.4880, 39745.00
745.6380, 39790.00
746.7870, 39841.00
747.9360, 40036.00
749.0850, 40154.00
750.2340, 39945.00
751.3830, 39986.00
752.5310, 39942.00
753.6800, 39976.00
754.8280, 39989.00
755.9760, 40028.13
757.1240, 40082.00
758.2720, 40147.00
759.4190, 40205.00
760.5670, 40270.44
761.7140, 40351.00
762.8610, 40264.00
764.0080, 40398.00
765.1550, 40314.00
766.3020, 40598.00
767.4480, 40482.00
768.5950, 40619.00
769.7410, 40366.00
770.8870, 40588.00
772.0330, 40484.00
773.1780, 40589.00
774.3240, 40757.00
775.4690, 40821.00
776.6140, 40840.00
777.7590, 40581.00
778.9040, 40698.00
780.0490, 40665.00
781.1940, 40786.00
782.3380, 40794.00
783.4820, 40846.00
784.6260, 40994.00
785.7700, 40912.00
786.9140, 40995.00
788.0580, 41036.72
789.2010, 40826.00
790.3450, 41049.00
791.4880, 41014.00
792.6310, 40861.00
793.7730, 40924.00
794.9160, 41095.00
796.0590, 41237.00
797.2010, 41132.00
798.3430, 41228.00
799.4850, 41309.21
800.6270, 41172.00
801.7690, 41422.00
802.9100, 41446.00
804.0520, 41323.00
805.1930, 41454.00
806.3340, 41665.00
807.4750, 41510.00
808.6160, 41747.00
809.7560, 41674.00
810.8970, 41596.00
812.0370, 41819.00
813.1770, 42055.00
814.3170, 41793.00
815.4570, 42274.00
816.5960, 41830.00
817.7360, 42173.00
818.8750, 42409.00
820.0140, 42047.00
821.1530, 42482.00
822.2920, 42305.00
823.4310, 42477.00
824.5690, 42779.00
825.7070, 42861.00
826.8460, 42593.00
827.9840, 42989.00
829.1220, 42883.00
830.2590, 42978.00
831.3970, 43317.00
832.5340, 43304.00
833.6710, 43209.00
834.8080, 43322.00
835.9450, 43381.00
837.0820, 43354.00
838.2190, 43383.00
839.3550, 43442.00
840.4910, 43618.00
841.6270, 43374.00
842.7630, 43639.00
843.8990, 43615.00
845.0350, 43790.00
846.1700, 43747.00
847.3060, 43906.00
848.4410, 43874.00
849.5760, 43734.00
850.7100, 43873.00
851.8450, 43893.00
852.9800, 44030.00
854.1140, 44324.00
855.2480, 44159.00
856.3820, 44194.00
857.5160, 44644.00
858.6500, 44728.00
859.7830, 44717.00
860.9170, 44975.00
862.0500, 45052.00
863.1830, 45135.00
864.3160, 45119.00
865.4480, 45258.00
866.5810, 45381.00
867.7130, 45545.45
868.8460, 45784.00
869.9780, 46034.00
871.1100, 46220.00
872.2410, 46594.00
873.3730, 46679.00
874.5050, 46727.00
875.6360, 47053.00
876.7670, 47106.00
877.8980, 47211.00
879.0290, 47414.00
880.1590, 47330.00
881.2900, 47313.00
882.4200, 47357.00
883.5500, 47449.00
884.6800, 47358.00
885.8100, 47233.00
886.9400, 47364.00
888.0690, 47274.00
889.1990, 47116.00
890.3280, 47036.00
891.4570, 46971.00
892.5860, 47099.34
893.7140, 47389.00
894.8430, 47566.00
895.9710, 47814.00
897.1000, 48254.00
898.2280, 48145.00
899.3560, 48757.00
900.4830, 48935.00
901.6110, 49521.00
902.7380, 49960.00
903.8660, 50308.00
904.9930, 50930.00
906.1200, 51511.00
907.2460, 52106.00
908.3730, 52769.00
909.5000, 53454.00
910.6260, 53792.00
911.7520, 54224.00
912.8780, 54757.00
914.0040, 54887.00
915.1290, 54606.00
916.2550, 54930.00
917.3800, 54582.00
918.5050, 54381.00
919.6300, 54116.00
920.7550, 53863.00
921.8800, 53587.00
923.0040, 53330.96
924.1290, 53033.62
925.2530, 52781.00
926.3770, 52487.00
927.5010, 52149.00
928.6250, 51988.00
929.7480, 51678.00
930.8720, 51630.00
931.9950, 51335.00
933.1180, 51130.00
934.2410, 50537.00
935.3640, 50333.00
936.4860, 50124.00
937.6090, 50017.00
938.7310, 49731.00
939.8530, 49325.00
940.9750, 49059.00
942.0970, 49065.00
943.2180, 48481.00
944.3400, 48300.00
945.4610, 48185.00
946.5820, 48300.00
947.7030, 48036.00
948.8240, 47954.00
949.9450, 48225.00
951.0650, 48309.00
952.1860, 48448.00
953.3060, 48135.00
954.4260, 48022.00
955.5460, 48066.00
956.6650, 48362.00
957.7850, 48023.00
958.9040, 48162.00
960.0230, 47909.00
961.1420, 48202.00
962.2610, 47992.00
963.3800, 47972.00
964.4990, 48152.00
965.6170, 48187.00
966.7350, 48036.00
967.8530, 47888.00
968.9710, 48140.00
970.0890, 48000.00
971.2070, 47786.00
972.3240, 48238.00
973.4410, 48107.00
974.5580, 48615.00
975.6750, 48502.00
976.7920, 48815.00
977.9090, 49243.00
979.0250, 49700.00
980.1410, 50214.00
981.2580, 50520.00
982.3740, 50670.00
983.4890, 50894.35
984.6050, 50671.00
985.7200, 50863.00
986.8360, 50657.00
987.9510, 50177.00
989.0660, 50008.00
990.1810, 49286.00
991.2950, 49031.00
992.4100, 48628.00
993.5240, 48396.00
994.6390, 48386.00
995.7530, 48527.00
996.8660, 47824.00
997.9800, 47501.00
999.0940, 47482.00
1000.207, 47872.00
1001.320, 47706.00
1002.433, 47666.00
1003.546, 47546.00
1004.659, 47368.00
1005.772, 47073.00
1006.884, 47002.00
1007.996, 47279.00
1009.108, 47011.00
1010.220, 46902.00
1011.332, 47128.00
1012.444, 47013.00
1013.555, 47163.00
1014.666, 46941.00
1015.777, 46984.00
1016.888, 47483.00
1017.999, 47570.00
1019.110, 47519.00
1020.220, 47439.00
1021.331, 47417.00
1022.441, 47485.00
1023.551, 47834.00
1024.661, 47543.00
1025.770, 47895.00
1026.880, 47981.00
1027.989, 47793.00
1029.098, 47725.00
1030.207, 48256.00
1031.316, 48274.00
1032.425, 48181.00
1033.533, 48559.00
1034.642, 48461.00
1035.750, 48318.00
1036.858, 48690.00
1037.966, 48417.00
1039.073, 48695.00
1040.181, 48659.00
1041.288, 48870.00
1042.396, 49148.00
1043.503, 49162.00
1044.610, 49276.00
1045.716, 49310.00
1046.823, 49244.00
1047.929, 49274.00
1049.036, 49261.00
1050.142, 49287.39
1051.248, 49271.36
1052.353, 49281.79
1053.459, 49259.00
1054.564, 49297.00
1055.670, 49338.00
1056.775, 49356.00
1057.880, 49102.00
1058.985, 49087.00
1060.089, 49268.00
1061.194, 48797.00
1062.298, 49195.00
1063.402, 49200.00
1064.506, 49291.00
1065.610, 49122.00
1066.713, 49261.00
1067.817, 49497.00
1068.920, 49682.00
1070.023, 49864.11
1071.126, 50037.82
1072.229, 50293.00
1073.332, 50323.00
1074.435, 50634.00
1075.537, 50740.00
1076.639, 51112.00
1077.741, 51298.00
1078.843, 51505.00
1079.945, 51730.00
1081.046, 52020.00
1082.148, 52511.00
1083.249, 52790.00
1084.350, 53454.00
1085.451, 54099.00
1086.551, 54651.00
1087.652, 55370.00
1088.752, 56184.00
1089.853, 57124.00
1090.953, 57726.00
1092.053, 58082.00
1093.152, 58327.00
1094.252, 58343.00
1095.351, 57494.00
1096.451, 56557.00
1097.550, 55485.00
1098.649, 54790.00
1099.748, 53960.00
1100.846, 52706.00
1101.945, 52199.00
1103.043, 51671.00
1104.141, 51487.00
1105.239, 51061.00
1106.337, 50706.00
1107.434, 50607.00
1108.532, 50644.00
1109.629, 50153.00
1110.726, 50494.00
1111.823, 50407.00
1112.920, 49995.00
1114.017, 50319.00
1115.113, 50333.00
1116.210, 49991.00
1117.306, 50123.00
1118.402, 50221.00
1119.498, 50171.00
1120.593, 49858.00
1121.689, 50177.00
1122.784, 50362.00
1123.879, 50217.00
1124.974, 50521.00
1126.069, 50232.00
1127.164, 50466.00
1128.259, 50587.00
1129.353, 50783.00
1130.447, 50201.00
1131.541, 50586.00
1132.635, 50294.00
1133.729, 50357.00
1134.822, 50698.00
1135.916, 50417.00
1137.009, 50334.00
1138.102, 50685.00
1139.195, 50473.00
1140.288, 51006.00
1141.380, 50780.00
1142.473, 50598.00
1143.565, 50749.00
1144.657, 50798.00
1145.749, 50898.00
1146.841, 51081.00
1147.932, 50665.00
1149.024, 50917.00
1150.115, 50815.00
1151.206, 50994.00
1152.297, 50763.00
1153.388, 51252.00
1154.479, 51070.00
1155.569, 51149.00
1156.659, 51227.00
1157.750, 51242.00
1158.839, 51165.00
1159.929, 51138.00
1161.019, 51165.00
1162.108, 51222.00
1163.198, 51099.00
1164.287, 51150.00
1165.376, 51142.00
1166.465, 51200.00
1167.553, 51508.00
1168.642, 51270.00
1169.730, 51683.00
1170.818, 51617.00
1171.906, 51564.00
1172.994, 51638.00
1174.082, 51769.00
1175.170, 51453.00
1176.257, 51945.00
1177.344, 51679.00
1178.431, 51820.00
1179.518, 52057.00
1180.605, 51606.00
1181.691, 52106.00
1182.778, 51945.00
1183.864, 52225.00
1184.950, 51925.00
1186.036, 52101.00
1187.122, 51874.00
1188.207, 52100.00
1189.292, 52225.00
1190.378, 52090.00
1191.463, 52101.00
1192.548, 52056.00
1193.632, 52318.00
1194.717, 52457.00
1195.801, 52443.00
1196.886, 52310.00
1197.970, 52365.08
1199.054, 52296.44
1200.137, 52457.00
1201.221, 52279.00
1202.305, 52643.00
1203.388, 52761.00
1204.471, 52584.00
1205.554, 52824.00
1206.637, 52594.00
1207.719, 52682.00
1208.802, 52759.00
1209.884, 52888.00
1210.966, 52840.00
1212.048, 52792.00
1213.130, 52728.00
1214.212, 52714.00
1215.293, 52749.71
1216.374, 52822.00
1217.456, 52957.00
1218.536, 53054.00
1219.617, 53102.66
1220.698, 53227.00
1221.778, 53215.00
1222.859, 53073.00
1223.939, 53163.00
1225.019, 53229.00
1226.099, 53420.00
1227.178, 53090.00
1228.258, 53240.00
1229.337, 53115.00
1230.417, 53277.00
1231.496, 53324.53
1232.574, 53396.00
1233.653, 53522.00
1234.732, 53675.00
1235.810, 53843.00
1236.888, 53888.00
1237.966, 53637.00
1239.044, 53933.00
1240.122, 53857.00
1241.199, 53769.00
1242.277, 54016.00
1243.354, 53744.00
1244.431, 53454.00
1245.508, 53990.00
1246.585, 53955.00
1247.661, 53967.00
1248.738, 54079.00
1249.814, 53965.00
1250.890, 54048.34
1251.966, 54301.00
1253.042, 54091.00
1254.117, 54149.00
1255.193, 54138.00
1256.268, 53896.00
1257.343, 54208.00
1258.418, 54174.00
1259.493, 54178.00
1260.567, 54397.00
1261.642, 54239.00
1262.716, 54464.00
1263.790, 54267.00
1264.864, 54572.00
1265.938, 54581.00
1267.011, 54818.00
1268.085, 54544.00
1269.158, 54689.00
1270.231, 54724.00
1271.304, 54784.00
1272.377, 54640.00
1273.450, 54845.00
1274.522, 54773.00
1275.594, 54942.00
1276.666, 54725.00
1277.738, 54594.00
1278.810, 54931.00
1279.882, 55049.00
1280.953, 54886.00
1282.025, 54736.00
1283.096, 55137.00
1284.167, 55236.00
1285.238, 54839.00
1286.308, 55156.00
1287.379, 55282.00
1288.449, 55436.00
1289.519, 55404.00
1290.589, 55321.00
1291.659, 55153.00
1292.729, 55519.00
1293.798, 55405.00
1294.868, 55508.00
1295.937, 55460.00
1297.006, 55476.00
1298.075, 55550.00
1299.143, 55619.00
1300.212, 55725.00
1301.280, 55607.00
1302.348, 55685.00
1303.416, 56024.00
1304.484, 55885.00
1305.552, 55760.00
1306.620, 56053.00
1307.687, 56050.00
1308.754, 56151.00
1309.821, 56096.00
1310.888, 56040.00
1311.955, 56223.00
1313.021, 56318.00
1314.088, 56224.00
1315.154, 56301.00
1316.220, 56208.00
1317.286, 56315.00
1318.352, 56367.35
1319.417, 56387.86
1320.483, 56480.00
1321.548, 56566.00
1322.613, 56486.00
1323.678, 56705.00
1324.743, 56704.00
1325.807, 56617.00
1326.872, 56718.00
1327.936, 56945.00
1329.000, 57039.00
1330.064, 56987.00
1331.128, 56543.00
1332.191, 56704.00
1333.255, 56751.00
1334.318, 56529.00
1335.381, 57022.00
1336.444, 56822.00
1337.507, 57085.00
1338.569, 56977.00
1339.632, 57172.00
1340.694, 57006.00
1341.756, 57200.00
1342.818, 57111.00
1343.880, 57236.00
1344.941, 57231.00
1346.003, 57240.00
1347.064, 57366.00
1348.125, 57416.39
1349.186, 57469.00
1350.247, 57559.00
1351.308, 57604.00
1352.368, 57532.00
1353.428, 57570.14
1354.489, 57526.00
1355.549, 57497.00
1356.608, 57455.00
1357.668, 57569.26
1358.727, 57458.00
1359.787, 57824.00
1360.846, 57984.00
1361.905, 58091.00
1362.964, 58036.00
1364.022, 57890.00
1365.081, 58093.00
1366.139, 57926.00
1367.197, 57873.00
1368.255, 58035.00
1369.313, 58184.00
1370.371, 57986.00
1371.428, 58092.00
1372.486, 58161.00
1373.543, 58269.00
1374.600, 58520.00
1375.657, 58365.00
1376.713, 58521.00
1377.770, 58378.00
1378.826, 58399.00
1379.882, 58380.00
1380.938, 58676.00
1381.994, 58476.00
1383.050, 58257.00
1384.106, 58645.00
1385.161, 58561.00
1386.216, 58561.00
1387.271, 58646.00
1388.326, 58816.00
1389.381, 58933.00
1390.435, 58818.00
1391.490, 58942.00
1392.544, 58771.00
1393.598, 58917.00
1394.652, 58918.00
1395.705, 58952.00
1396.759, 59129.00
1397.812, 59099.00
1398.866, 59211.00
1399.919, 58927.00
1400.972, 59257.00
1402.024, 59360.00
1403.077, 59125.00
1404.129, 59517.00
1405.181, 59356.00
1406.233, 59335.00
1407.285, 59048.00
1408.337, 59254.00
1409.389, 59275.00
1410.440, 59369.00
1411.491, 59700.00
1412.542, 59587.00
1413.593, 59497.00
1414.644, 59874.00
1415.695, 59664.00
1416.745, 59730.00
1417.795, 59773.00
1418.845, 59938.00
1419.895, 59826.00
1420.945, 59894.00
1421.995, 59944.10
1423.044, 60169.00
1424.093, 60040.00
1425.142, 60062.00
1426.191, 60121.00
1427.240, 59916.00
1428.289, 60034.00
1429.337, 60044.41
1430.385, 60344.00
1431.433, 60194.00
1432.481, 60351.00
1433.529, 60457.00
1434.577, 60685.00
1435.624, 60528.00
1436.672, 60735.00
1437.719, 60650.00
1438.766, 60909.00
1439.812, 61012.00
1440.859, 60995.00
1441.905, 60930.00
1442.952, 60741.00
1443.998, 61122.00
1445.044, 61249.00
1446.090, 61300.00
1447.135, 61209.00
1448.181, 61419.00
1449.226, 61243.00
1450.271, 61415.00
1451.316, 61269.00
1452.361, 61567.00
1453.405, 61385.00
1454.450, 61294.00
1455.494, 61244.00
1456.538, 61614.00
1457.582, 61769.00
1458.626, 61855.00
1459.670, 61685.00
1460.713, 61944.00
1461.757, 61568.00
1462.800, 61770.00
1463.843, 61733.00
1464.886, 61538.00
1465.928, 61688.00
1466.971, 61739.00
1468.013, 61654.00
1469.055, 61763.00
1470.097, 62183.00
1471.139, 61990.00
1472.181, 62136.00
1473.222, 62250.00
1474.263, 61754.00
1475.305, 62040.00
1476.346, 62244.00
1477.386, 61973.00
1478.427, 62328.00
1479.468, 62109.00
1480.508, 62293.00
1481.548, 62425.00
1482.588, 62115.00
1483.628, 62212.00
1484.668, 62125.00
1485.707, 62319.00
1486.747, 62521.00
1487.786, 62412.00
1488.825, 62408.00
1489.864, 62355.00
1490.902, 62444.00
1491.941, 62409.06
1492.979, 62408.00
1494.017, 62416.00
1495.055, 62479.00
1496.093, 62487.00
1497.131, 62448.00
1498.168, 62341.00
1499.206, 62644.00
1500.243, 62865.00
1501.280, 62881.00
1502.317, 62621.00
1503.354, 62815.00
1504.390, 62675.00
1505.426, 63167.00
1506.463, 63074.00
1507.499, 62727.00
1508.535, 63004.00
1509.570, 63369.00
1510.606, 63200.00
1511.641, 62929.00
1512.676, 63102.00
1513.711, 63138.00
1514.746, 63070.00
1515.781, 63204.00
1516.816, 63311.00
1517.850, 63273.00
1518.884, 63463.00
1519.918, 63223.00
1520.952, 63315.00
1521.986, 63567.00
1523.019, 63292.00
1524.053, 63512.00
1525.086, 63464.00
1526.119, 63494.00
1527.152, 63499.00
1528.185, 63641.00
1529.217, 63680.00
1530.250, 63826.00
1531.282, 63731.00
1532.314, 64044.00
1533.346, 63536.00
1534.377, 63912.00
1535.409, 63926.00
1536.440, 63713.00
1537.472, 63957.00
1538.503, 63902.00
1539.534, 63940.00
1540.564, 64024.00
1541.595, 63995.38
1542.625, 64065.00
1543.656, 64042.00
1544.686, 64087.71
1545.716, 64166.70
1546.745, 64232.00
1547.775, 64160.00
1548.804, 64239.00
1549.834, 64291.39
1550.863, 64331.00
1551.892, 64478.00
1552.920, 64453.00
1553.949, 64602.00
1554.977, 64474.00
1556.006, 64677.00
1557.034, 64477.00
1558.062, 64765.00
1559.089, 64591.00
1560.117, 64613.00
1561.144, 64591.00
1562.172, 64505.00
1563.199, 64798.00
1564.226, 64802.00
1565.252, 64831.00
1566.279, 64705.00
1567.305, 64693.00
1568.332, 64455.00
1569.358, 64963.00
1570.384, 65147.00
1571.409, 64975.00
1572.435, 65421.00
##END=



