##NAMES=Clinoptilolite-Na
##RRUFFID=R061099
##IDEAL CHEMISTRY=Na_6_(Si_30_Al_6_)O_72_&#183;20H_2_O
##LOCALITY=Richardson Ranch, Madras, Jefferson County, Oregon, USA
##OWNER=RRUFF
##SOURCE=Michael Scott
##DESCRIPTION=Red-brown to salmon, somewhat coffin shaped tabular crystals in a fragmented geode
##STATUS=The identification of this mineral has been confirmed by X-ray diffraction and chemical analysis
##URL=rruff.info/R061099
##MEASURED CHEMISTRY=(Na_2.70_Ca_1.46_K_0.89_Fe_0.08_Mg_0.02_)_Σ=5.15_(Si_29.29_Al_6.71_)O_72_·18.51H_2_O
##PIN_ID=M01647
##ORIENTATION=Laser parallel to c* (0 0 1). Fiducial mark perpendicular to laser is parallel to a [1 0 0]
132.3880, 18135.00
133.6270, 18167.00
134.8650, 18302.00
136.1040, 18622.00
137.3420, 18531.00
138.5800, 18885.00
139.8180, 18697.00
141.0560, 19012.00
142.2940, 18895.00
143.5310, 18970.00
144.7680, 18926.00
146.0050, 18679.00
147.2420, 18606.00
148.4790, 18503.00
149.7150, 18489.00
150.9510, 18282.00
152.1870, 18286.00
153.4230, 18018.00
154.6590, 17847.00
155.8940, 17874.00
157.1300, 17755.00
158.3650, 17408.00
159.6000, 16936.00
160.8340, 17002.00
162.0690, 16504.00
163.3030, 16273.00
164.5370, 15966.00
165.7710, 15541.00
167.0050, 15268.00
168.2380, 14808.00
169.4720, 14419.00
170.7050, 14246.00
171.9380, 13985.00
173.1700, 13797.00
174.4030, 13235.00
175.6350, 12912.00
176.8680, 12661.00
178.1000, 12569.00
179.3310, 12233.00
180.5630, 12128.00
181.7940, 11784.00
183.0260, 11760.00
184.2570, 11604.00
185.4870, 11476.00
186.7180, 11229.00
187.9480, 11309.00
189.1790, 11092.00
190.4090, 11163.00
191.6390, 11166.00
192.8680, 10975.00
194.0980, 11068.00
195.3270, 10840.00
196.5560, 11004.00
197.7850, 10985.00
199.0140, 10878.00
200.2420, 10798.00
201.4710, 10759.00
202.6990, 10605.02
203.9270, 10565.00
205.1550, 10338.00
206.3820, 10084.00
207.6090, 9965.000
208.8370, 9701.000
210.0640, 9764.000
211.2900, 9561.000
212.5170, 9508.000
213.7440, 9371.000
214.9700, 9428.000
216.1960, 9171.000
217.4220, 9224.000
218.6470, 9071.000
219.8730, 8922.000
221.0980, 8994.000
222.3230, 8969.000
223.5480, 8768.000
224.7730, 8721.000
225.9970, 8776.000
227.2220, 8772.000
228.4460, 8803.000
229.6700, 8797.000
230.8940, 8849.000
232.1170, 8863.000
233.3400, 8781.000
234.5640, 8934.000
235.7870, 8709.000
237.0100, 9008.000
238.2320, 9020.000
239.4550, 9192.000
240.6770, 9249.000
241.8990, 9335.000
243.1210, 9409.000
244.3420, 9501.000
245.5640, 9718.000
246.7850, 9793.000
248.0060, 9960.000
249.2270, 10195.00
250.4480, 10201.00
251.6690, 10213.00
252.8890, 10134.00
254.1090, 10304.00
255.3290, 10336.00
256.5490, 10313.00
257.7680, 10370.00
258.9880, 10304.50
260.2070, 10304.00
261.4260, 10174.00
262.6450, 10167.00
263.8640, 10082.00
265.0820, 10124.00
266.3000, 9903.000
267.5180, 10034.00
268.7360, 10039.00
269.9540, 9766.000
271.1720, 9759.000
272.3890, 9757.000
273.6060, 9587.000
274.8230, 9671.000
276.0400, 9446.000
277.2560, 9474.000
278.4730, 9389.000
279.6890, 9319.000
280.9050, 9369.000
282.1210, 9270.000
283.3370, 9138.000
284.5520, 9087.000
285.7670, 9156.000
286.9820, 9154.000
288.1970, 9062.000
289.4120, 8949.000
290.6270, 8899.000
291.8410, 8870.959
293.0550, 8812.000
294.2690, 8876.000
295.4830, 8905.000
296.6970, 8925.000
297.9100, 8806.000
299.1230, 8824.000
300.3360, 8821.000
301.5490, 8853.000
302.7620, 8819.000
303.9740, 8756.000
305.1860, 8775.000
306.3990, 8760.000
307.6110, 8667.000
308.8220, 8703.000
310.0340, 8803.000
311.2450, 8711.000
312.4560, 8771.000
313.6670, 8709.000
314.8780, 8764.000
316.0890, 8828.000
317.2990, 8752.000
318.5090, 8818.000
319.7200, 8922.000
320.9290, 8871.000
322.1390, 9032.000
323.3490, 9006.000
324.5580, 9123.000
325.7670, 9182.000
326.9760, 9229.000
328.1850, 9293.000
329.3930, 9347.000
330.6020, 9412.000
331.8100, 9522.000
333.0180, 9481.000
334.2260, 9463.000
335.4340, 9424.000
336.6410, 9549.000
337.8480, 9439.000
339.0550, 9541.000
340.2620, 9494.000
341.4690, 9487.000
342.6760, 9476.000
343.8820, 9536.000
345.0880, 9494.000
346.2940, 9663.000
347.5000, 9544.000
348.7060, 9644.000
349.9110, 9831.000
351.1160, 9903.000
352.3210, 9933.000
353.5260, 9902.000
354.7310, 9993.000
355.9360, 10077.00
357.1400, 10234.00
358.3440, 10375.00
359.5480, 10436.00
360.7520, 10621.00
361.9550, 10692.00
363.1590, 10821.00
364.3620, 11014.00
365.5650, 11224.00
366.7680, 11356.00
367.9710, 11593.00
369.1730, 11777.00
370.3760, 12013.00
371.5780, 12275.00
372.7800, 12563.00
373.9810, 12709.00
375.1830, 12928.00
376.3840, 13146.00
377.5860, 13468.00
378.7870, 13682.00
379.9880, 13963.00
381.1880, 14364.00
382.3890, 14612.00
383.5890, 14985.00
384.7890, 15364.00
385.9890, 15777.00
387.1890, 16312.00
388.3880, 16539.00
389.5880, 16961.00
390.7870, 17769.00
391.9860, 18272.00
393.1850, 19110.00
394.3840, 19861.00
395.5820, 20882.00
396.7800, 21731.00
397.9790, 22793.00
399.1770, 23379.00
400.3740, 24340.00
401.5720, 25201.00
402.7690, 25650.00
403.9670, 26319.00
405.1640, 26661.00
406.3600, 26555.00
407.5570, 26402.00
408.7540, 26228.00
409.9500, 25563.00
411.1460, 24944.00
412.3420, 24532.00
413.5380, 23638.00
414.7330, 22915.00
415.9290, 22139.00
417.1240, 21388.00
418.3190, 20512.00
419.5140, 19721.00
420.7090, 18901.00
421.9030, 18241.00
423.0970, 17425.00
424.2920, 16598.00
425.4860, 15962.00
426.6790, 15341.00
427.8730, 14710.00
429.0660, 14101.00
430.2600, 13458.00
431.4530, 12961.00
432.6460, 12500.35
433.8380, 12105.00
435.0310, 11703.00
436.2230, 11414.00
437.4150, 11008.00
438.6070, 10870.00
439.7990, 10681.00
440.9910, 10308.00
442.1820, 10312.00
443.3730, 10081.00
444.5640, 10209.00
445.7550, 10086.00
446.9460, 9921.000
448.1370, 9873.000
449.3270, 9825.000
450.5170, 9824.000
451.7070, 9925.000
452.8970, 9986.000
454.0870, 10039.00
455.2760, 10228.00
456.4650, 10292.00
457.6550, 10406.00
458.8430, 10724.00
460.0320, 10995.00
461.2210, 11414.00
462.4090, 11634.00
463.5970, 12201.00
464.7850, 12456.00
465.9730, 12828.00
467.1610, 13246.00
468.3480, 13437.00
469.5360, 13682.00
470.7230, 14033.00
471.9100, 14358.00
473.0970, 14853.00
474.2830, 15334.00
475.4700, 16005.00
476.6560, 16762.00
477.8420, 17543.00
479.0280, 18531.00
480.2140, 19535.00
481.3990, 20224.00
482.5850, 21001.00
483.7700, 21417.00
484.9550, 21639.00
486.1400, 21580.00
487.3240, 20776.00
488.5090, 20076.00
489.6930, 19063.00
490.8770, 17953.00
492.0610, 16859.00
493.2450, 15528.00
494.4290, 14461.00
495.6120, 13730.00
496.7950, 12634.54
497.9780, 11973.00
499.1610, 10998.00
500.3440, 10670.00
501.5260, 10192.00
502.7090, 9834.000
503.8910, 9471.000
505.0730, 9074.000
506.2550, 9056.000
507.4360, 8651.000
508.6180, 8670.000
509.7990, 8425.000
510.9800, 8251.000
512.1610, 8184.000
513.3420, 8110.000
514.5230, 8047.000
515.7030, 7953.000
516.8830, 7871.000
518.0630, 7919.000
519.2430, 7781.000
520.4230, 7850.000
521.6020, 7724.000
522.7820, 7673.000
523.9610, 7722.000
525.1400, 7639.000
526.3190, 7660.000
527.4970, 7621.000
528.6760, 7599.000
529.8540, 7579.822
531.0320, 7542.000
532.2100, 7510.000
533.3880, 7479.918
534.5660, 7456.134
535.7430, 7412.000
536.9200, 7419.000
538.0970, 7385.000
539.2740, 7371.787
540.4510, 7415.000
541.6270, 7393.000
542.8040, 7375.000
543.9800, 7454.000
545.1560, 7409.000
546.3320, 7441.000
547.5080, 7492.000
548.6830, 7394.000
549.8580, 7410.000
551.0340, 7404.000
552.2090, 7400.000
553.3830, 7466.000
554.5580, 7300.000
555.7320, 7437.000
556.9070, 7323.000
558.0810, 7368.000
559.2550, 7419.000
560.4280, 7355.000
561.6020, 7384.769
562.7750, 7475.000
563.9490, 7361.880
565.1220, 7322.000
566.2950, 7317.000
567.4670, 7397.000
568.6400, 7352.000
569.8120, 7424.000
570.9840, 7324.000
572.1560, 7266.000
573.3280, 7410.000
574.5000, 7375.000
575.6710, 7321.000
576.8430, 7385.000
578.0140, 7475.000
579.1850, 7453.000
580.3560, 7423.000
581.5260, 7517.000
582.6970, 7504.000
583.8670, 7613.000
585.0370, 7560.000
586.2070, 7700.000
587.3770, 7635.000
588.5460, 7652.000
589.7160, 7618.000
590.8850, 7746.000
592.0540, 7758.000
593.2230, 7733.000
594.3920, 7942.000
595.5600, 7804.000
596.7290, 8084.000
597.8970, 8117.000
599.0650, 7999.000
600.2330, 8189.000
601.4000, 8247.000
602.5680, 8360.000
603.7350, 8473.000
604.9020, 8616.000
606.0690, 8731.000
607.2360, 8854.000
608.4030, 9034.109
609.5690, 9297.000
610.7360, 9433.000
611.9020, 9624.000
613.0680, 9899.000
614.2340, 9985.000
615.3990, 10018.00
616.5650, 10231.00
617.7300, 10307.00
618.8950, 10233.00
620.0600, 10180.00
621.2250, 10167.00
622.3890, 10080.00
623.5540, 9919.000
624.7180, 9731.987
625.8820, 9580.794
627.0460, 9412.610
628.2100, 9229.147
629.3730, 8940.399
630.5370, 8821.598
631.7000, 8655.503
632.8630, 8493.000
634.0260, 8457.000
635.1890, 8351.000
636.3510, 8230.000
637.5140, 8148.000
638.6760, 8083.000
639.8380, 7968.000
641.0000, 7954.000
642.1610, 7820.000
643.3230, 7815.000
644.4840, 7687.893
645.6450, 7681.203
646.8060, 7665.952
647.9670, 7642.354
649.1280, 7599.136
650.2880, 7570.774
651.4490, 7530.023
652.6090, 7541.000
653.7690, 7476.000
654.9290, 7438.000
656.0880, 7468.000
657.2480, 7428.000
658.4070, 7395.000
659.5660, 7398.000
660.7250, 7432.000
661.8840, 7391.000
663.0430, 7337.000
664.2010, 7214.000
665.3600, 7255.000
666.5180, 7239.000
667.6760, 7264.000
668.8330, 7323.000
669.9910, 7200.000
671.1480, 7272.000
672.3060, 7189.000
673.4630, 7201.000
674.6200, 7282.000
675.7770, 7257.000
676.9330, 7209.000
678.0900, 7212.000
679.2460, 7224.460
680.4020, 7214.283
681.5580, 7226.778
682.7140, 7235.000
683.8690, 7236.000
685.0250, 7253.000
686.1800, 7247.000
687.3350, 7200.000
688.4900, 7244.000
689.6450, 7233.000
690.7990, 7278.000
691.9540, 7222.000
693.1080, 7283.000
694.2620, 7246.000
695.4160, 7284.000
696.5700, 7203.000
697.7230, 7299.000
698.8770, 7269.903
700.0300, 7335.930
701.1830, 7374.123
702.3360, 7385.976
703.4890, 7292.602
704.6410, 7335.104
705.7930, 7323.153
706.9460, 7308.971
708.0980, 7370.599
709.2500, 7292.528
710.4010, 7352.951
711.5530, 7358.090
712.7040, 7388.531
713.8560, 7364.183
715.0070, 7356.756
716.1580, 7404.137
717.3080, 7421.168
718.4590, 7390.511
719.6090, 7422.558
720.7590, 7342.568
721.9090, 7360.893
723.0590, 7278.000
724.2090, 7349.000
725.3590, 7339.000
726.5080, 7375.000
727.6570, 7388.000
728.8060, 7342.000
729.9550, 7325.000
731.1040, 7316.000
732.2530, 7397.000
733.4010, 7328.000
734.5490, 7276.000
735.6970, 7393.000
736.8450, 7382.206
737.9930, 7378.019
739.1400, 7466.000
740.2880, 7397.000
741.4350, 7339.000
742.5820, 7430.000
743.7290, 7422.000
744.8760, 7443.000
746.0220, 7339.000
747.1690, 7474.000
748.3150, 7436.000
749.4610, 7493.000
750.6070, 7473.000
751.7530, 7492.000
752.8980, 7492.000
754.0440, 7519.000
755.1890, 7510.568
756.3340, 7564.000
757.4790, 7537.000
758.6240, 7557.000
759.7680, 7654.000
760.9130, 7649.000
762.0570, 7707.372
763.2010, 7712.000
764.3450, 7792.000
765.4890, 7760.000
766.6320, 7800.000
767.7760, 7759.000
768.9190, 7858.000
770.0620, 7838.000
771.2050, 7786.000
772.3480, 7877.000
773.4900, 8012.000
774.6330, 8031.000
775.7750, 8123.000
776.9170, 8151.000
778.0590, 8114.000
779.2010, 8120.000
780.3420, 8165.725
781.4840, 8209.666
782.6250, 8291.000
783.7660, 8355.000
784.9070, 8471.000
786.0480, 8525.000
787.1890, 8521.000
788.3290, 8514.000
789.4690, 8549.000
790.6100, 8570.000
791.7490, 8545.435
792.8890, 8609.768
794.0290, 8646.266
795.1680, 8656.424
796.3080, 8561.355
797.4470, 8602.166
798.5860, 8588.522
799.7250, 8572.646
800.8630, 8632.579
802.0020, 8376.000
803.1400, 8409.000
804.2780, 8357.000
805.4160, 8433.000
806.5540, 8201.000
807.6920, 8388.000
808.8300, 8237.000
809.9670, 8257.000
811.1040, 7993.000
812.2410, 8030.000
813.3780, 8114.000
814.5150, 7998.000
815.6510, 8050.000
816.7880, 7997.000
817.9240, 7931.000
819.0600, 7981.000
820.1960, 8051.000
821.3320, 7928.000
822.4670, 7897.000
823.6030, 7981.000
824.7380, 7919.000
825.8730, 7775.000
827.0080, 7732.000
828.1430, 7775.000
829.2770, 7744.000
830.4120, 7754.000
831.5460, 7648.000
832.6800, 7720.000
833.8140, 7546.000
834.9480, 7518.000
836.0810, 7594.000
837.2150, 7535.000
838.3480, 7511.000
839.4810, 7511.453
840.6140, 7561.000
841.7470, 7453.000
842.8800, 7575.000
844.0120, 7536.000
845.1450, 7599.000
846.2770, 7528.000
847.4090, 7587.000
848.5410, 7584.000
849.6720, 7493.000
850.8040, 7562.332
851.9350, 7624.691
853.0660, 7659.216
854.1970, 7667.401
855.3280, 7570.360
856.4590, 7609.197
857.5900, 7593.581
858.7200, 7575.732
859.8500, 7633.694
860.9800, 7551.959
862.1100, 7608.719
863.2400, 7610.194
864.3700, 7636.972
865.4990, 7608.960
866.6280, 7597.872
867.7570, 7641.591
868.8860, 7654.963
870.0150, 7606.000
871.1440, 7572.000
872.2720, 7570.000
873.4010, 7587.000
874.5290, 7583.000
875.6570, 7570.000
876.7850, 7642.000
877.9120, 7518.000
879.0400, 7620.000
880.1670, 7594.000
881.2940, 7568.000
882.4210, 7572.000
883.5480, 7587.000
884.6750, 7604.000
885.8020, 7546.000
886.9280, 7528.000
888.0540, 7586.000
889.1800, 7653.000
890.3060, 7598.000
891.4320, 7560.000
892.5580, 7572.019
893.6830, 7536.000
894.8080, 7569.000
895.9330, 7550.000
897.0580, 7601.000
898.1830, 7630.000
899.3080, 7643.000
900.4320, 7660.585
901.5570, 7697.000
902.6810, 7672.000
903.8050, 7642.000
904.9290, 7657.000
906.0520, 7676.000
907.1760, 7651.801
908.2990, 7721.194
909.4230, 7762.757
910.5460, 7777.977
911.6690, 7687.969
912.7910, 7733.836
913.9140, 7725.253
915.0360, 7714.432
916.1590, 7779.428
917.2810, 7704.720
918.4030, 7768.508
919.5240, 7777.006
920.6460, 7810.812
921.7680, 7789.827
922.8890, 7669.000
924.0100, 7695.000
925.1310, 7768.000
926.2520, 7669.000
927.3730, 7721.000
928.4930, 7726.597
929.6130, 7704.572
930.7340, 7801.000
931.8540, 7699.000
932.9740, 7811.000
934.0930, 7798.000
935.2130, 7773.000
936.3320, 7732.000
937.4520, 7755.655
938.5710, 7741.000
939.6900, 7805.000
940.8090, 7776.000
941.9270, 7817.000
943.0460, 7816.000
944.1640, 7899.000
945.2820, 7794.000
946.4000, 7875.000
947.5180, 7886.000
948.6360, 7968.000
949.7530, 7961.000
950.8710, 7903.000
951.9880, 7983.000
953.1050, 8030.000
954.2220, 7971.000
955.3390, 7911.000
956.4550, 7918.000
957.5720, 8043.000
958.6880, 7962.000
959.8040, 8011.000
960.9200, 7918.000
962.0360, 7975.000
963.1520, 8096.000
964.2670, 8112.000
965.3820, 8111.000
966.4980, 8130.000
967.6130, 8057.000
968.7280, 8056.000
969.8420, 8097.000
970.9570, 8092.321
972.0710, 8122.261
973.1850, 8179.000
974.3000, 8135.000
975.4140, 8210.000
976.5270, 8138.000
977.6410, 8190.000
978.7540, 8140.000
979.8680, 8229.000
980.9810, 8302.000
982.0940, 8254.000
983.2070, 8224.000
984.3200, 8171.000
985.4320, 8275.000
986.5440, 8317.000
987.6570, 8317.000
988.7690, 8270.000
989.8810, 8230.000
990.9920, 8296.000
992.1040, 8306.000
993.2160, 8369.000
994.3270, 8300.000
995.4380, 8333.947
996.5490, 8411.489
997.6600, 8461.196
998.7710, 8484.564
999.8810, 8402.692
1000.991, 8456.700
1002.102, 8456.266
1003.212, 8453.586
1004.322, 8526.718
1005.431, 8460.139
1006.541, 8532.068
1007.651, 8548.712
1008.760, 8590.646
1009.869, 8577.791
1010.978, 8581.858
1012.087, 8640.732
1013.195, 8669.247
1014.304, 8650.084
1015.412, 8693.614
1016.521, 8625.121
1017.629, 8654.929
1018.737, 8727.153
1019.844, 8710.720
1020.952, 8755.252
1022.059, 8776.557
1023.167, 8692.375
1024.274, 8791.655
1025.381, 8811.588
1026.488, 8750.051
1027.594, 8843.030
1028.701, 8792.725
1029.807, 8793.555
1030.913, 8832.877
1032.019, 8809.000
1033.125, 8794.000
1034.231, 8852.000
1035.337, 8854.000
1036.442, 8936.000
1037.548, 8935.000
1038.653, 8998.000
1039.758, 9049.000
1040.863, 8894.000
1041.967, 8838.000
1043.072, 8932.000
1044.176, 8904.000
1045.280, 9000.000
1046.384, 8913.000
1047.488, 8925.000
1048.592, 8910.000
1049.696, 8894.171
1050.799, 8925.000
1051.903, 8920.000
1053.006, 9012.000
1054.109, 9072.000
1055.212, 9033.000
1056.314, 9069.000
1057.417, 9062.000
1058.519, 9109.000
1059.621, 9108.000
1060.724, 9002.000
1061.826, 9040.000
1062.927, 9107.000
1064.029, 8961.000
1065.130, 9087.000
1066.232, 8957.000
1067.333, 9119.000
1068.434, 9086.000
1069.535, 9111.000
1070.636, 9082.000
1071.736, 9125.629
1072.837, 9204.000
1073.937, 9183.000
1075.037, 9257.586
1076.137, 9217.409
1077.237, 9262.000
1078.337, 9286.000
1079.436, 9304.861
1080.535, 9332.000
1081.635, 9378.000
1082.734, 9391.000
1083.833, 9427.000
1084.931, 9340.006
1086.030, 9500.763
1087.128, 9605.821
1088.227, 9658.231
1089.325, 9500.153
1090.423, 9613.837
1091.521, 9618.612
1092.618, 9618.893
1093.716, 9770.821
1094.813, 9643.327
1095.911, 9792.855
1097.008, 9831.783
1098.105, 9921.312
1099.202, 9901.265
1100.298, 9915.029
1101.395, 10038.44
1102.491, 10101.13
1103.587, 9990.000
1104.683, 9949.000
1105.779, 10019.00
1106.875, 10218.00
1107.971, 10189.00
1109.066, 10106.00
1110.161, 10255.00
1111.256, 10138.00
1112.351, 10144.00
1113.446, 10205.00
1114.541, 10302.00
1115.636, 10324.00
1116.730, 10329.00
1117.824, 10376.00
1118.918, 10351.00
1120.012, 10457.00
1121.106, 10348.00
1122.200, 10418.00
1123.293, 10486.00
1124.387, 10474.00
1125.480, 10422.00
1126.573, 10557.00
1127.666, 10473.00
1128.759, 10575.00
1129.851, 10400.00
1130.944, 10441.00
1132.036, 10515.00
1133.128, 10528.00
1134.220, 10607.00
1135.312, 10508.00
1136.404, 10479.00
1137.495, 10580.00
1138.587, 10602.00
1139.678, 10641.00
1140.769, 10579.00
1141.860, 10571.00
1142.951, 10369.00
1144.041, 10426.39
1145.132, 10650.00
1146.222, 10484.00
1147.313, 10481.00
1148.403, 10581.00
1149.493, 10574.00
1150.582, 10606.47
1151.672, 10622.71
1152.761, 10647.00
1153.851, 10617.00
1154.940, 10640.00
1156.029, 10635.00
1157.118, 10598.00
1158.207, 10542.00
1159.295, 10648.00
1160.384, 10516.00
1161.472, 10677.00
1162.560, 10545.00
1163.648, 10364.00
1164.736, 10464.00
1165.824, 10558.00
1166.911, 10587.00
1167.999, 10421.00
1169.086, 10414.00
1170.173, 10286.00
1171.260, 10514.00
1172.347, 10397.00
1173.434, 10369.00
1174.520, 10374.00
1175.606, 10298.00
1176.693, 10253.00
1177.779, 10280.00
1178.865, 10362.00
1179.951, 10250.00
1181.036, 10234.00
1182.122, 10187.00
1183.207, 10129.00
1184.292, 10167.00
1185.377, 10082.00
1186.462, 10076.00
1187.547, 10065.00
1188.632, 10111.00
1189.716, 9903.000
1190.800, 9998.000
1191.885, 9939.000
1192.969, 9882.000
1194.052, 9956.000
1195.136, 9844.000
1196.220, 9767.000
1197.303, 9774.000
1198.387, 9799.000
1199.470, 9733.000
1200.553, 9578.000
1201.636, 9664.000
1202.718, 9571.000
1203.801, 9607.000
1204.883, 9499.000
1205.966, 9463.000
1207.048, 9506.000
1208.130, 9387.000
1209.211, 9369.000
1210.293, 9447.000
1211.375, 9485.000
1212.456, 9455.873
1213.537, 9303.000
1214.618, 9379.000
1215.699, 9388.000
1216.780, 9297.000
1217.861, 9350.000
1218.941, 9301.000
1220.022, 9355.000
1221.102, 9321.000
1222.182, 9239.000
1223.262, 9164.000
1224.342, 9200.000
1225.422, 9149.000
1226.501, 9185.868
1227.580, 9289.000
1228.660, 9249.000
1229.739, 9317.000
1230.818, 9307.000
1231.896, 9318.000
1232.975, 9252.000
1234.054, 9295.000
1235.132, 9278.468
1236.210, 9301.597
1237.288, 9254.000
1238.366, 9347.000
1239.444, 9271.000
1240.521, 9232.000
1241.599, 9287.000
1242.676, 9279.000
1243.753, 9339.000
1244.830, 9300.000
1245.907, 9227.000
1246.984, 9317.000
1248.061, 9367.000
1249.137, 9319.000
1250.214, 9127.000
1251.290, 9246.000
1252.366, 9284.000
1253.442, 9303.000
1254.517, 9380.000
1255.593, 9354.000
1256.668, 9332.000
1257.744, 9407.000
1258.819, 9235.000
1259.894, 9310.000
1260.969, 9351.000
1262.044, 9345.000
1263.118, 9427.000
1264.193, 9446.000
1265.267, 9366.000
1266.341, 9426.000
1267.415, 9371.000
1268.489, 9402.000
1269.563, 9426.000
1270.636, 9459.000
1271.710, 9449.000
1272.783, 9460.000
1273.856, 9504.494
1274.929, 9410.000
1276.002, 9540.000
1277.075, 9469.000
1278.147, 9361.000
1279.220, 9429.000
1280.292, 9387.000
1281.364, 9469.000
1282.436, 9495.000
1283.508, 9530.000
1284.580, 9574.000
1285.652, 9544.000
1286.723, 9580.677
1287.794, 9438.000
1288.865, 9594.000
1289.936, 9564.000
1291.007, 9547.000
1292.078, 9639.000
1293.149, 9540.000
1294.219, 9556.000
1295.289, 9559.000
1296.360, 9602.000
1297.430, 9605.000
1298.499, 9601.000
1299.569, 9651.000
1300.639, 9693.000
1301.708, 9695.000
1302.778, 9602.000
1303.847, 9659.000
1304.916, 9646.000
1305.985, 9701.000
1307.053, 9673.000
1308.122, 9765.000
1309.190, 9778.000
1310.259, 9711.000
1311.327, 9659.000
1312.395, 9841.000
1313.463, 9702.000
1314.531, 9587.000
1315.598, 9760.000
1316.666, 9719.000
1317.733, 9794.000
1318.800, 9834.000
1319.867, 9726.000
1320.934, 9768.000
1322.001, 9713.000
1323.067, 9674.000
1324.134, 9534.000
1325.200, 9761.000
1326.266, 9855.000
1327.333, 9712.000
1328.398, 9682.000
1329.464, 9688.000
1330.530, 9688.000
1331.595, 9795.000
1332.661, 9677.000
1333.726, 9761.000
1334.791, 9685.000
1335.856, 9774.000
1336.921, 9770.000
1337.985, 9736.000
1339.050, 9687.000
1340.114, 9786.000
1341.178, 9830.000
1342.242, 9722.000
1343.306, 9784.975
1344.370, 9739.000
1345.434, 9755.000
1346.497, 9755.000
1347.561, 9716.000
1348.624, 9784.000
1349.687, 9711.000
1350.750, 9602.000
1351.813, 9768.000
1352.876, 9706.000
1353.938, 9722.000
1355.000, 9743.000
1356.063, 9899.000
1357.125, 9820.000
1358.187, 9827.000
1359.249, 9845.000
1360.310, 9777.000
1361.372, 9923.000
1362.433, 9784.000
1363.495, 9919.000
1364.556, 9895.000
1365.617, 9887.000
1366.678, 9898.000
1367.738, 9832.000
1368.799, 9909.000
1369.859, 9957.000
1370.920, 9874.000
1371.980, 9946.000
1373.040, 9873.000
1374.100, 9822.000
1375.159, 9903.000
1376.219, 9901.000
1377.278, 9879.000
1378.338, 9927.000
1379.397, 9894.000
1380.456, 9996.000
1381.515, 9901.000
1382.574, 9965.000
1383.632, 9956.000
1384.691, 9865.000
1385.749, 9981.000
1386.807, 9850.000
1387.865, 9943.000
1388.923, 9890.000
1389.981, 9972.000
1391.039, 9918.000
1392.096, 10012.00
1393.154, 9988.000
1394.211, 9967.000
1395.268, 9954.000
1396.325, 9917.000
1397.382, 9930.000
1398.439, 9961.000
1399.495, 9926.000
1400.552, 10091.00
1401.608, 9954.000
1402.664, 9990.000
1403.720, 10137.00
1404.776, 9957.000
1405.832, 9987.000
1406.887, 9963.000
1407.943, 9960.000
1408.998, 9928.000
1410.053, 9934.480
1411.108, 10062.00
1412.163, 9960.000
1413.218, 9982.000
1414.272, 10034.00
1415.327, 9959.000
1416.381, 10240.00
1417.435, 10090.00
1418.489, 9958.000
1419.543, 10121.00
1420.597, 10012.00
1421.651, 10029.00
1422.704, 10166.00
1423.758, 10089.00
1424.811, 10182.00
1425.864, 10237.00
1426.917, 10258.00
1427.970, 10303.06
1429.023, 10341.00
1430.075, 10309.00
1431.128, 10313.00
1432.180, 10248.00
1433.232, 10436.00
1434.284, 10428.00
1435.336, 10518.00
1436.388, 10501.00
1437.439, 10431.00
1438.491, 10590.00
1439.542, 10478.00
1440.593, 10760.00
1441.644, 10637.00
1442.695, 10671.00
1443.746, 10672.00
1444.797, 10654.00
1445.847, 10696.74
1446.898, 10610.00
1447.948, 10726.00
1448.998, 10734.00
1450.048, 10681.00
1451.098, 10829.00
1452.147, 10614.00
1453.197, 10635.00
1454.246, 10758.00
1455.296, 10679.00
1456.345, 10740.00
1457.394, 10793.00
1458.443, 10803.00
1459.491, 10764.00
1460.540, 10699.00
1461.588, 10602.00
1462.637, 10694.00
1463.685, 10753.00
1464.733, 10716.00
1465.781, 10642.00
1466.829, 10594.00
1467.876, 10608.00
1468.924, 10508.00
1469.971, 10523.00
1471.019, 10627.00
1472.066, 10518.00
1473.113, 10469.00
1474.160, 10543.00
1475.206, 10611.00
1476.253, 10461.00
1477.299, 10446.00
1478.346, 10463.00
1479.392, 10507.00
1480.438, 10530.00
1481.484, 10530.72
1482.529, 10542.00
1483.575, 10522.00
1484.620, 10530.00
1485.666, 10523.00
1486.711, 10562.00
1487.756, 10477.00
1488.801, 10504.00
1489.846, 10590.00
1490.891, 10413.00
1491.935, 10520.00
1492.980, 10527.00
1494.024, 10570.00
1495.068, 10515.00
1496.112, 10551.00
1497.156, 10473.00
1498.200, 10477.00
1499.243, 10478.00
1500.287, 10544.00
1501.330, 10499.00
1502.373, 10568.00
1503.416, 10543.00
1504.459, 10549.00
1505.502, 10613.00
1506.545, 10564.00
1507.587, 10725.00
1508.630, 10664.00
1509.672, 10565.15
1510.714, 10695.19
1511.756, 10769.56
1512.798, 10791.25
1513.840, 10602.49
1514.881, 10685.49
1515.923, 10659.58
1516.964, 10629.20
1518.005, 10750.44
1519.046, 10592.29
1520.087, 10711.13
1521.128, 10719.40
1522.169, 10778.27
1523.209, 10727.56
1524.249, 10787.00
1525.290, 10810.00
1526.330, 10751.00
1527.370, 10672.00
1528.410, 10666.00
1529.449, 10692.00
1530.489, 10819.00
1531.528, 10753.00
1532.568, 10689.00
1533.607, 10906.00
1534.646, 10966.00
1535.685, 10737.00
1536.724, 10791.00
1537.762, 10879.00
1538.801, 10788.00
1539.839, 10896.00
1540.878, 10928.00
1541.916, 10932.00
1542.954, 10789.00
1543.992, 10823.00
1545.029, 10815.66
1546.067, 10729.38
1547.104, 10868.01
1548.142, 10950.98
1549.179, 10981.26
1550.216, 10801.09
1551.253, 10892.68
1552.290, 10875.36
1553.326, 10853.57
1554.363, 10983.40
1555.399, 10833.83
1556.436, 10961.27
1557.472, 10978.12
1558.508, 11045.58
1559.544, 11003.45
1560.579, 10995.16
1561.615, 11096.50
1562.651, 11137.14
1563.686, 11082.39
1564.721, 11153.06
1565.756, 11120.97
1566.791, 11103.74
1567.826, 11124.00
1568.861, 11044.00
1569.895, 11109.00
1570.930, 11064.00
1571.964, 10980.00
1572.998, 11080.00
1574.032, 10843.00
1575.066, 11128.00
1576.100, 11097.00
1577.134, 10944.00
1578.167, 11084.00
1579.200, 11095.00
1580.234, 11075.00
##END=



