##NAMES=Clinoptilolite-Na
##RRUFFID=R061099
##IDEAL CHEMISTRY=Na_6_(Si_30_Al_6_)O_72_&#183;20H_2_O
##LOCALITY=Richardson Ranch, Madras, Jefferson County, Oregon, USA
##OWNER=RRUFF
##SOURCE=Michael Scott
##DESCRIPTION=Red-brown to salmon, somewhat coffin shaped tabular crystals in a fragmented geode
##STATUS=The identification of this mineral has been confirmed by X-ray diffraction and chemical analysis
##URL=rruff.info/R061099
##MEASURED CHEMISTRY=(Na_2.70_Ca_1.46_K_0.89_Fe_0.08_Mg_0.02_)_Σ=5.15_(Si_29.29_Al_6.71_)O_72_·18.51H_2_O
##PIN_ID=M01022
##ORIENTATION=Laser parallel to a* (1 0 0). Fiducial mark perpendicular to laser is parallel to b [0 1 0]
93.07300, 3130.000
94.30700, 3584.000
95.54100, 4204.000
96.77500, 4796.000
98.00900, 5268.000
99.24300, 5894.000
100.4770, 6640.000
101.7100, 7234.000
102.9440, 7891.000
104.1770, 8479.000
105.4100, 8942.000
106.6430, 9381.000
107.8750, 9865.288
109.1080, 10331.41
110.3400, 10690.48
111.5720, 10967.00
112.8040, 11264.00
114.0360, 11410.00
115.2680, 11776.00
116.5000, 11921.00
117.7310, 12045.00
118.9620, 12314.00
120.1940, 12371.70
121.4250, 12472.18
122.6550, 12538.00
123.8860, 12607.00
125.1170, 12721.67
126.3470, 12776.00
127.5770, 12947.00
128.8070, 13022.00
130.0370, 13141.00
131.2670, 13229.55
132.4970, 13316.08
133.7260, 13378.47
134.9550, 13463.00
136.1850, 13460.00
137.4140, 13473.00
138.6420, 13479.00
139.8710, 13539.91
141.1000, 13520.84
142.3280, 13500.95
143.5560, 13462.00
144.7840, 13389.00
146.0120, 13246.00
147.2400, 13119.00
148.4680, 12992.84
149.6950, 12870.75
150.9220, 12742.92
152.1500, 12649.00
153.3770, 12494.00
154.6030, 12401.00
155.8300, 12287.00
157.0570, 11901.00
158.2830, 11690.00
159.5090, 11595.00
160.7350, 11408.00
161.9610, 11341.00
163.1870, 11324.00
164.4130, 11202.00
165.6380, 10932.00
166.8630, 10741.00
168.0880, 10490.00
169.3130, 10620.00
170.5380, 10418.00
171.7630, 10344.00
172.9870, 10234.00
174.2120, 10164.00
175.4360, 10037.38
176.6600, 9936.489
177.8840, 9810.000
179.1080, 9712.000
180.3310, 9653.000
181.5550, 9546.000
182.7780, 9592.000
184.0010, 9474.587
185.2240, 9616.000
186.4470, 9368.000
187.6700, 9219.000
188.8920, 9266.000
190.1150, 9205.000
191.3370, 9296.000
192.5590, 9185.000
193.7810, 9191.000
195.0020, 9074.000
196.2240, 9043.113
197.4450, 9064.000
198.6670, 9008.000
199.8880, 8961.000
201.1090, 9048.000
202.3300, 9019.000
203.5500, 8903.000
204.7710, 8788.000
205.9910, 8731.000
207.2110, 8607.000
208.4310, 8571.729
209.6510, 8461.000
210.8710, 8496.000
212.0910, 8460.000
213.3100, 8422.775
214.5290, 8385.000
215.7480, 8330.000
216.9670, 8288.000
218.1860, 8278.000
219.4050, 8276.000
220.6230, 8300.000
221.8420, 8287.354
223.0600, 8323.000
224.2780, 8275.000
225.4960, 8301.000
226.7130, 8278.000
227.9310, 8499.000
229.1480, 8378.000
230.3660, 8331.000
231.5830, 8487.000
232.8000, 8424.000
234.0160, 8427.000
235.2330, 8556.000
236.4490, 8609.000
237.6660, 8629.000
238.8820, 8684.000
240.0980, 8655.000
241.3140, 8763.664
242.5300, 9108.000
243.7450, 8999.000
244.9600, 9151.000
246.1760, 9366.000
247.3910, 9296.000
248.6060, 9335.000
249.8200, 9507.000
251.0350, 9547.000
252.2500, 9422.000
253.4640, 9542.000
254.6780, 9505.000
255.8920, 9548.168
257.1060, 9560.016
258.3190, 9549.572
259.5330, 9517.456
260.7460, 9428.900
261.9600, 9390.268
263.1730, 9317.626
264.3850, 9234.054
265.5980, 9173.880
266.8110, 9062.000
268.0230, 9134.000
269.2360, 9126.000
270.4480, 9021.000
271.6600, 9010.000
272.8710, 8964.000
274.0830, 8890.000
275.2950, 8905.000
276.5060, 8850.000
277.7170, 8759.000
278.9280, 8726.000
280.1390, 8710.000
281.3500, 8684.000
282.5600, 8664.934
283.7710, 8613.000
284.9810, 8605.000
286.1910, 8557.000
287.4010, 8471.000
288.6110, 8598.000
289.8200, 8678.000
291.0300, 8495.000
292.2390, 8499.000
293.4480, 8631.000
294.6570, 8624.000
295.8660, 8557.000
297.0750, 8417.000
298.2830, 8643.000
299.4920, 8565.000
300.7000, 8760.000
301.9080, 8630.000
303.1160, 8723.000
304.3240, 8786.000
305.5310, 8938.000
306.7390, 8815.000
307.9460, 8808.000
309.1530, 8838.000
310.3600, 8908.000
311.5670, 8958.000
312.7740, 8985.000
313.9800, 9058.000
315.1870, 9024.000
316.3930, 8939.000
317.5990, 8997.000
318.8050, 8967.737
320.0110, 8995.000
321.2160, 9020.000
322.4220, 9030.000
323.6270, 9109.000
324.8320, 9121.000
326.0370, 9109.000
327.2420, 9178.000
328.4460, 9215.000
329.6510, 9295.000
330.8550, 9312.520
332.0590, 9361.000
333.2630, 9377.000
334.4670, 9429.747
335.6710, 9483.049
336.8740, 9535.000
338.0780, 9598.000
339.2810, 9656.000
340.4840, 9699.000
341.6870, 9816.000
342.8900, 9890.225
344.0920, 9955.000
345.2950, 10099.00
346.4970, 10155.00
347.6990, 10272.00
348.9010, 10492.00
350.1030, 10502.00
351.3050, 10592.00
352.5060, 10779.00
353.7080, 11022.00
354.9090, 11089.00
356.1100, 11208.00
357.3110, 11530.00
358.5110, 11705.00
359.7120, 11876.00
360.9120, 12112.00
362.1130, 12229.00
363.3130, 12231.00
364.5130, 12589.00
365.7120, 12539.00
366.9120, 13087.00
368.1120, 13349.00
369.3110, 13292.00
370.5100, 13642.00
371.7090, 13742.00
372.9080, 13966.00
374.1070, 14264.00
375.3050, 14527.00
376.5040, 14708.00
377.7020, 15187.00
378.9000, 15210.00
380.0980, 15475.00
381.2950, 15816.00
382.4930, 16252.00
383.6910, 16660.00
384.8880, 17106.00
386.0850, 17548.00
387.2820, 18214.00
388.4790, 18776.00
389.6750, 19497.00
390.8720, 20331.00
392.0680, 21026.00
393.2640, 21933.00
394.4600, 22899.00
395.6560, 23645.00
396.8520, 24570.00
398.0480, 25447.00
399.2430, 26375.00
400.4380, 26923.00
401.6330, 27633.00
402.8280, 27827.00
404.0230, 28070.00
405.2180, 28079.00
406.4120, 27827.00
407.6060, 27416.00
408.8000, 26836.00
409.9940, 26088.00
411.1880, 25562.00
412.3820, 24571.00
413.5750, 23651.00
414.7690, 22752.00
415.9620, 21783.00
417.1550, 20981.00
418.3480, 20131.00
419.5410, 19328.00
420.7330, 18483.00
421.9260, 17731.00
423.1180, 17007.00
424.3100, 16249.00
425.5020, 15656.00
426.6940, 15077.00
427.8850, 14387.00
429.0770, 13927.00
430.2680, 13332.00
431.4590, 12880.00
432.6500, 12612.00
433.8410, 12189.00
435.0320, 12030.00
436.2220, 11690.00
437.4130, 11559.00
438.6030, 11311.00
439.7930, 11099.00
440.9830, 11005.00
442.1730, 10926.00
443.3620, 10691.00
444.5520, 10775.00
445.7410, 10795.00
446.9300, 10854.00
448.1190, 10768.00
449.3080, 10930.00
450.4960, 10892.00
451.6850, 11105.00
452.8730, 11312.00
454.0610, 11517.00
455.2490, 11690.00
456.4370, 12228.00
457.6250, 12594.00
458.8130, 12836.00
460.0000, 13135.00
461.1870, 13582.00
462.3740, 13941.00
463.5610, 14169.00
464.7480, 14630.00
465.9340, 14782.00
467.1210, 14865.00
468.3070, 15083.00
469.4930, 15130.00
470.6790, 15185.00
471.8650, 15375.00
473.0510, 15527.00
474.2360, 15906.00
475.4210, 16098.00
476.6070, 16539.00
477.7920, 17025.00
478.9770, 17243.00
480.1610, 17805.00
481.3460, 18003.00
482.5300, 18061.00
483.7140, 18280.00
484.8980, 17950.00
486.0820, 17536.00
487.2660, 17231.00
488.4500, 16595.00
489.6330, 15799.00
490.8160, 14800.00
492.0000, 14090.00
493.1830, 13445.00
494.3650, 12457.00
495.5480, 11964.00
496.7300, 11555.00
497.9130, 10843.00
499.0950, 10530.00
500.2770, 10239.00
501.4590, 9810.000
502.6410, 9647.000
503.8220, 9328.000
505.0030, 9085.000
506.1850, 9074.000
507.3660, 8876.000
508.5470, 8819.000
509.7270, 8692.000
510.9080, 8599.000
512.0880, 8590.000
513.2690, 8418.000
514.4490, 8496.000
515.6290, 8390.000
516.8090, 8322.000
517.9880, 8337.000
519.1680, 8223.000
520.3470, 8331.000
521.5260, 8209.000
522.7050, 8129.000
523.8840, 8178.000
525.0630, 8159.000
526.2410, 8048.000
527.4200, 8145.000
528.5980, 8206.000
529.7760, 8055.000
530.9540, 8085.000
532.1320, 8106.000
533.3090, 8090.000
534.4870, 8040.000
535.6640, 7935.000
536.8410, 8026.000
538.0180, 7911.000
539.1950, 7966.000
540.3710, 8009.000
541.5480, 7951.000
542.7240, 7978.000
543.9000, 7872.000
545.0760, 7817.000
546.2520, 7875.000
547.4280, 7952.000
548.6040, 7846.000
549.7790, 7872.000
550.9540, 7831.000
552.1290, 7954.000
553.3040, 7821.000
554.4790, 7881.000
555.6530, 7944.000
556.8280, 7909.000
558.0020, 8016.000
559.1760, 7924.000
560.3500, 7964.000
561.5240, 8033.000
562.6980, 7970.000
563.8710, 8015.000
565.0440, 7949.000
566.2170, 7984.000
567.3900, 7858.000
568.5630, 7914.000
569.7360, 8001.000
570.9090, 7936.000
572.0810, 8063.000
573.2530, 8011.000
574.4250, 8090.000
575.5970, 7999.000
576.7690, 8040.000
577.9400, 8039.000
579.1120, 8042.363
580.2830, 8079.372
581.4540, 8126.000
582.6250, 8141.000
583.7960, 8245.000
584.9660, 8288.000
586.1370, 8335.000
587.3070, 8372.000
588.4770, 8388.000
589.6470, 8374.000
590.8170, 8419.709
591.9870, 8443.965
593.1560, 8511.000
594.3260, 8545.000
595.4950, 8652.000
596.6640, 8748.000
597.8330, 8798.000
599.0010, 9002.000
600.1700, 9078.000
601.3380, 9198.000
602.5070, 9312.000
603.6750, 9481.000
604.8430, 9570.000
606.0100, 9754.000
607.1780, 9902.719
608.3450, 9936.000
609.5130, 10206.00
610.6800, 10354.00
611.8470, 10448.00
613.0140, 10660.00
614.1800, 10793.00
615.3470, 10770.00
616.5130, 10853.00
617.6790, 10929.00
618.8450, 10657.00
620.0110, 10726.00
621.1770, 10677.00
622.3420, 10519.00
623.5080, 10407.00
624.6730, 10307.00
625.8380, 10198.00
627.0030, 9989.000
628.1680, 9668.000
629.3320, 9686.000
630.4970, 9417.000
631.6610, 9453.000
632.8250, 9144.000
633.9890, 9119.000
635.1530, 8964.000
636.3160, 8966.000
637.4800, 8884.000
638.6430, 8638.000
639.8060, 8630.000
640.9690, 8672.000
642.1320, 8708.000
643.2950, 8527.000
644.4570, 8480.000
645.6200, 8427.000
646.7820, 8406.000
647.9440, 8397.541
649.1060, 8391.114
650.2670, 8387.000
651.4290, 8405.000
652.5900, 8348.000
653.7520, 8333.000
654.9130, 8319.000
656.0740, 8218.000
657.2340, 8288.000
658.3950, 8162.000
659.5550, 8097.000
660.7160, 8172.000
661.8760, 8155.000
663.0360, 8107.000
664.1960, 8207.000
665.3550, 8095.000
666.5150, 8094.000
667.6740, 8226.000
668.8330, 8223.000
669.9920, 8262.669
671.1510, 8217.000
672.3100, 8248.000
673.4680, 8158.000
674.6270, 8014.000
675.7850, 8189.000
676.9430, 8221.000
678.1010, 8074.000
679.2590, 8094.000
680.4160, 8178.000
681.5740, 8154.000
682.7310, 8049.000
683.8880, 8108.000
685.0450, 8103.000
686.2020, 8047.000
687.3580, 8039.000
688.5150, 8060.000
689.6710, 8167.000
690.8270, 8252.000
691.9830, 8171.000
693.1390, 8218.000
694.2950, 8159.000
695.4500, 8141.000
696.6050, 8247.000
697.7610, 8103.000
698.9160, 8236.000
700.0710, 8273.000
701.2250, 8217.000
702.3800, 8163.000
703.5340, 8215.000
704.6880, 8233.000
705.8420, 8158.000
706.9960, 8286.000
708.1500, 8233.000
709.3040, 8294.000
710.4570, 8220.000
711.6100, 8106.000
712.7640, 8341.000
713.9160, 8394.000
715.0690, 8325.000
716.2220, 8223.000
717.3740, 8222.000
718.5270, 8307.000
719.6790, 8306.000
720.8310, 8277.000
721.9830, 8302.000
723.1340, 8274.854
724.2860, 8340.000
725.4370, 8245.000
726.5880, 8350.000
727.7390, 8351.000
728.8900, 8350.000
730.0410, 8241.000
731.1910, 8242.000
732.3420, 8210.000
733.4920, 8208.716
734.6420, 8280.000
735.7920, 8243.000
736.9420, 8295.000
738.0910, 8290.000
739.2410, 8224.000
740.3900, 8312.000
741.5390, 8142.000
742.6880, 8391.000
743.8370, 8367.000
744.9860, 8367.000
746.1340, 8173.000
747.2820, 8345.000
748.4310, 8380.000
749.5790, 8477.000
750.7260, 8333.000
751.8740, 8275.000
753.0220, 8227.000
754.1690, 8409.000
755.3160, 8429.000
756.4630, 8413.000
757.6100, 8442.000
758.7570, 8406.000
759.9030, 8324.000
761.0500, 8385.713
762.1960, 8557.000
763.3420, 8461.000
764.4880, 8505.000
765.6340, 8553.000
766.7790, 8561.000
767.9250, 8608.000
769.0700, 8604.000
770.2150, 8561.000
771.3600, 8551.000
772.5050, 8614.000
773.6490, 8650.000
774.7940, 8613.000
775.9380, 8686.000
777.0820, 8688.000
778.2260, 8642.000
779.3700, 8571.000
780.5140, 8672.000
781.6570, 8632.000
782.8010, 8669.000
783.9440, 8646.000
785.0870, 8579.000
786.2300, 8683.000
787.3720, 8616.000
788.5150, 8655.000
789.6570, 8593.000
790.8000, 8632.000
791.9420, 8595.000
793.0840, 8590.000
794.2250, 8678.000
795.3670, 8733.000
796.5080, 8657.000
797.6500, 8643.000
798.7910, 8602.000
799.9320, 8626.000
801.0720, 8659.000
802.2130, 8665.000
803.3530, 8680.281
804.4940, 8628.000
805.6340, 8690.000
806.7740, 8616.000
807.9140, 8609.000
809.0530, 8659.000
810.1930, 8633.000
811.3320, 8747.000
812.4710, 8838.000
813.6100, 8920.000
814.7490, 8989.869
815.8880, 9037.000
817.0270, 9074.000
818.1650, 9124.000
819.3030, 9105.000
820.4410, 9095.000
821.5790, 9104.000
822.7170, 9087.000
823.8540, 9116.000
824.9920, 8922.000
826.1290, 8860.000
827.2660, 8856.000
828.4030, 8841.000
829.5400, 8740.000
830.6760, 8672.000
831.8130, 8556.000
832.9490, 8670.000
834.0850, 8563.000
835.2210, 8544.000
836.3570, 8505.000
837.4930, 8409.000
838.6280, 8413.357
839.7640, 8401.000
840.8990, 8392.000
842.0340, 8418.000
843.1690, 8442.000
844.3030, 8466.000
845.4380, 8534.000
846.5720, 8492.000
847.7060, 8494.000
848.8400, 8503.000
849.9740, 8420.000
851.1080, 8528.000
852.2420, 8429.000
853.3750, 8538.000
854.5080, 8403.000
855.6410, 8493.000
856.7740, 8520.000
857.9070, 8577.000
859.0400, 8626.000
860.1720, 8524.000
861.3040, 8550.000
862.4360, 8536.000
863.5680, 8532.000
864.7000, 8495.000
865.8320, 8525.000
866.9630, 8485.000
868.0950, 8546.000
869.2260, 8428.000
870.3570, 8369.000
871.4880, 8425.000
872.6180, 8483.000
873.7490, 8536.000
874.8790, 8492.000
876.0090, 8529.000
877.1390, 8612.000
878.2690, 8549.188
879.3990, 8630.000
880.5280, 8476.000
881.6580, 8572.000
882.7870, 8524.000
883.9160, 8525.000
885.0450, 8536.000
886.1740, 8504.000
887.3020, 8561.000
888.4310, 8520.000
889.5590, 8513.000
890.6870, 8555.000
891.8150, 8560.000
892.9430, 8561.938
894.0700, 8563.914
895.1980, 8557.000
896.3250, 8556.000
897.4520, 8545.000
898.5790, 8575.000
899.7060, 8459.000
900.8330, 8630.000
901.9590, 8527.000
903.0850, 8530.000
904.2120, 8602.000
905.3380, 8622.000
906.4630, 8609.000
907.5890, 8607.000
908.7150, 8628.104
909.8400, 8688.000
910.9650, 8680.000
912.0900, 8629.000
913.2150, 8681.000
914.3400, 8607.000
915.4640, 8773.000
916.5890, 8614.000
917.7130, 8523.000
918.8370, 8732.000
919.9610, 8692.000
921.0850, 8725.000
922.2080, 8637.000
923.3320, 8639.000
924.4550, 8700.000
925.5780, 8674.000
926.7010, 8636.000
927.8240, 8728.000
928.9460, 8662.000
930.0690, 8827.000
931.1910, 8743.000
932.3130, 8773.000
933.4350, 8800.000
934.5570, 8742.000
935.6790, 8799.653
936.8000, 8785.746
937.9220, 8842.000
939.0430, 8832.000
940.1640, 8816.000
941.2850, 8910.000
942.4050, 8781.000
943.5260, 8849.201
944.6460, 8927.000
945.7660, 8886.000
946.8860, 8947.000
948.0060, 8966.000
949.1260, 8934.000
950.2460, 8977.000
951.3650, 8954.000
952.4840, 9019.000
953.6030, 9030.478
954.7220, 9022.000
955.8410, 9083.000
956.9590, 9097.000
958.0780, 9121.578
959.1960, 9046.000
960.3140, 9109.000
961.4320, 9076.000
962.5500, 9036.000
963.6680, 9090.000
964.7850, 9133.000
965.9020, 9124.000
967.0190, 9159.131
968.1360, 9179.000
969.2530, 9142.000
970.3700, 9098.000
971.4860, 9117.565
972.6030, 9144.000
973.7190, 9151.000
974.8350, 9143.000
975.9510, 9208.000
977.0660, 9256.000
978.1820, 9205.000
979.2970, 9212.000
980.4130, 9146.000
981.5280, 9188.000
982.6420, 9286.000
983.7570, 9203.000
984.8720, 9169.000
985.9860, 9254.000
987.1000, 9197.000
988.2140, 9257.000
989.3280, 9279.000
990.4420, 9251.000
991.5560, 9262.000
992.6690, 9258.000
993.7820, 9342.000
994.8950, 9305.000
996.0080, 9345.694
997.1210, 9308.000
998.2340, 9400.000
999.3460, 9399.000
1000.458, 9456.000
1001.571, 9410.000
1002.683, 9467.000
1003.794, 9468.000
1004.906, 9555.000
1006.017, 9377.000
1007.129, 9525.000
1008.240, 9451.000
1009.351, 9353.000
1010.462, 9500.000
1011.572, 9519.000
1012.683, 9542.000
1013.793, 9580.000
1014.904, 9471.000
1016.014, 9657.000
1017.123, 9517.000
1018.233, 9511.000
1019.343, 9603.000
1020.452, 9642.000
1021.561, 9668.000
1022.670, 9578.000
1023.779, 9812.000
1024.888, 9605.000
1025.997, 9654.000
1027.105, 9699.000
1028.213, 9635.000
1029.321, 9719.000
1030.429, 9751.000
1031.537, 9712.000
1032.645, 9743.000
1033.752, 9620.000
1034.859, 9705.000
1035.966, 9669.000
1037.073, 9772.000
1038.180, 9793.000
1039.287, 9773.000
1040.393, 9896.000
1041.500, 9932.000
1042.606, 9926.859
1043.712, 9856.000
1044.818, 9902.000
1045.923, 9878.000
1047.029, 9836.000
1048.134, 9887.000
1049.239, 9901.000
1050.344, 9859.000
1051.449, 10007.00
1052.554, 9898.000
1053.658, 9901.000
1054.763, 9896.000
1055.867, 9782.000
1056.971, 9960.000
1058.075, 9984.000
1059.179, 9798.000
1060.282, 9924.000
1061.385, 9918.000
1062.489, 9932.000
1063.592, 9954.813
1064.695, 9926.235
1065.797, 9917.000
1066.900, 9877.000
1068.002, 9818.000
1069.105, 9787.929
1070.207, 9822.560
1071.309, 9811.000
1072.411, 9878.000
1073.512, 9957.000
1074.614, 9888.000
1075.715, 10070.00
1076.816, 10102.00
1077.917, 9980.000
1079.018, 10037.00
1080.118, 9968.000
1081.219, 10054.00
1082.319, 10216.00
1083.419, 10268.00
1084.519, 10244.00
1085.619, 10164.00
1086.719, 10259.00
1087.818, 10345.00
1088.918, 10269.00
1090.017, 10440.00
1091.116, 10483.00
1092.215, 10400.00
1093.314, 10520.00
1094.412, 10536.00
1095.510, 10545.00
1096.609, 10600.00
1097.707, 10596.17
1098.805, 10508.00
1099.902, 10616.00
1101.000, 10580.00
1102.097, 10589.00
1103.195, 10763.00
1104.292, 10862.00
1105.389, 10729.00
1106.485, 10843.00
1107.582, 10774.00
1108.678, 10992.00
1109.775, 10882.00
1110.871, 10879.00
1111.967, 11085.00
1113.062, 10974.00
1114.158, 11011.00
1115.254, 11005.00
1116.349, 11105.00
1117.444, 11194.00
1118.539, 11139.07
1119.634, 10888.00
1120.728, 11099.00
1121.823, 10955.00
1122.917, 11026.00
1124.011, 11080.00
1125.105, 10940.00
1126.199, 11008.00
1127.293, 11108.00
1128.386, 11110.00
1129.480, 11031.00
1130.573, 11130.00
1131.666, 11123.00
1132.759, 11041.00
1133.851, 11190.00
1134.944, 11281.00
1136.036, 11276.00
1137.129, 11204.00
1138.221, 11261.00
1139.313, 11253.00
1140.404, 11164.00
1141.496, 11386.00
1142.587, 11198.00
1143.678, 11244.00
1144.770, 11334.00
1145.860, 11230.00
1146.951, 11309.00
1148.042, 11336.09
1149.132, 11265.00
1150.223, 11421.00
1151.313, 11407.00
1152.403, 11426.00
1153.492, 11406.00
1154.582, 11334.00
1155.671, 11487.00
1156.761, 11391.00
1157.850, 11425.00
1158.939, 11542.00
1160.028, 11454.00
1161.116, 11518.48
1162.205, 11418.00
1163.293, 11513.00
1164.381, 11461.00
1165.469, 11400.00
1166.557, 11441.00
1167.645, 11213.00
1168.732, 11327.00
1169.820, 11278.00
1170.907, 11347.00
1171.994, 11393.00
1173.081, 11126.00
1174.167, 11333.00
1175.254, 11077.00
1176.340, 11189.00
1177.426, 11161.00
1178.512, 11151.00
1179.598, 11200.00
1180.684, 11018.00
1181.770, 11079.00
1182.855, 11012.00
1183.940, 11170.00
1185.025, 11120.00
1186.110, 10955.00
1187.195, 10795.00
1188.280, 10834.00
1189.364, 10913.00
1190.448, 10888.00
1191.532, 10754.00
1192.616, 10807.00
1193.700, 10756.00
1194.784, 10637.00
1195.867, 10647.00
1196.950, 10565.00
1198.034, 10618.00
1199.117, 10514.00
1200.199, 10489.00
1201.282, 10622.00
1202.364, 10473.00
1203.447, 10448.00
1204.529, 10402.00
1205.611, 10426.00
1206.693, 10447.00
1207.774, 10413.00
1208.856, 10387.00
1209.937, 10333.00
1211.018, 10324.00
1212.099, 10394.00
1213.180, 10321.00
1214.261, 10399.00
1215.341, 10318.00
1216.422, 10325.00
1217.502, 10200.00
1218.582, 10313.00
1219.662, 10361.00
1220.742, 10318.00
1221.821, 10280.00
1222.900, 10251.00
1223.980, 10234.77
1225.059, 10246.59
1226.138, 10228.00
1227.216, 10298.00
1228.295, 10323.00
1229.373, 10353.00
1230.452, 10286.00
1231.530, 10228.00
1232.608, 10390.00
1233.685, 10256.00
1234.763, 10311.00
1235.840, 10361.00
1236.918, 10324.00
1237.995, 10292.00
1239.072, 10402.00
1240.149, 10323.00
1241.225, 10406.00
1242.302, 10230.00
1243.378, 10391.00
1244.454, 10319.00
1245.530, 10306.00
1246.606, 10256.00
1247.681, 10248.15
1248.757, 10376.00
1249.832, 10263.00
1250.907, 10375.00
1251.982, 10429.00
1253.057, 10447.00
1254.132, 10323.00
1255.206, 10372.00
1256.281, 10328.00
1257.355, 10320.00
1258.429, 10379.00
1259.503, 10369.00
1260.576, 10381.00
1261.650, 10405.09
1262.723, 10418.03
1263.797, 10428.00
1264.870, 10436.00
1265.942, 10438.00
1267.015, 10377.00
1268.088, 10509.00
1269.160, 10390.00
1270.232, 10405.00
1271.304, 10430.00
1272.376, 10514.00
1273.448, 10468.00
1274.520, 10509.00
1275.591, 10395.00
1276.662, 10423.66
1277.733, 10454.00
1278.804, 10445.00
1279.875, 10459.00
1280.946, 10522.00
1282.016, 10432.00
1283.086, 10464.00
1284.156, 10348.00
1285.226, 10434.00
1286.296, 10403.00
1287.366, 10384.00
1288.435, 10539.00
1289.505, 10393.00
1290.574, 10498.00
1291.643, 10517.00
1292.711, 10626.00
1293.780, 10572.00
1294.849, 10585.00
1295.917, 10642.00
1296.985, 10671.00
1298.053, 10730.00
1299.121, 10446.00
1300.189, 10576.00
1301.256, 10546.00
1302.323, 10509.00
1303.391, 10627.00
1304.458, 10635.00
1305.524, 10677.00
1306.591, 10669.00
1307.658, 10591.00
1308.724, 10690.00
1309.790, 10633.00
1310.856, 10624.00
1311.922, 10828.00
1312.988, 10604.00
1314.053, 10651.00
1315.119, 10836.00
1316.184, 10729.00
1317.249, 10742.00
1318.314, 10789.00
1319.379, 10796.00
1320.443, 10657.00
1321.508, 10787.00
1322.572, 10731.00
1323.636, 10774.00
1324.700, 10825.00
1325.764, 10718.00
1326.827, 10756.00
1327.891, 10650.00
1328.954, 10744.00
1330.017, 10697.00
1331.080, 10882.00
1332.143, 10721.00
1333.205, 10836.00
1334.268, 10753.00
1335.330, 10713.00
1336.392, 10809.00
1337.454, 10770.00
1338.516, 10799.00
1339.578, 10757.00
1340.639, 10830.00
1341.701, 10806.00
1342.762, 10759.00
1343.823, 10849.00
1344.883, 10811.00
1345.944, 10715.00
1347.005, 10840.00
1348.065, 10915.00
1349.125, 10971.00
1350.185, 10864.00
1351.245, 10832.00
1352.305, 10807.00
1353.364, 10796.00
1354.424, 10988.00
1355.483, 10760.00
1356.542, 10905.00
1357.601, 10809.00
1358.659, 10764.00
1359.718, 10910.00
1360.776, 10798.00
1361.834, 10832.00
1362.893, 10890.00
1363.950, 10846.00
1365.008, 10975.00
1366.066, 10857.00
1367.123, 10982.00
1368.180, 10929.00
1369.237, 10995.00
1370.294, 10958.00
1371.351, 10921.00
1372.408, 11071.00
1373.464, 10955.00
1374.520, 10904.00
1375.576, 10987.00
1376.632, 10981.00
1377.688, 10941.00
1378.744, 11088.00
1379.799, 10976.00
1380.854, 11018.00
1381.910, 11129.00
1382.965, 10889.00
1384.019, 11072.00
1385.074, 11087.00
1386.128, 11166.00
1387.183, 11012.00
1388.237, 10973.00
1389.291, 11025.00
1390.345, 10981.00
1391.398, 10899.00
1392.452, 11031.00
1393.505, 11198.00
1394.558, 10942.00
1395.611, 11024.00
1396.664, 11060.00
1397.717, 11031.00
1398.769, 11008.00
1399.822, 11250.00
1400.874, 11145.00
1401.926, 11168.00
1402.978, 11038.00
1404.029, 11058.00
1405.081, 11085.00
1406.132, 11186.00
1407.183, 11246.00
1408.234, 11266.00
1409.285, 11142.00
1410.336, 11216.00
1411.387, 11171.00
1412.437, 11044.00
1413.487, 11149.00
1414.537, 11271.00
1415.587, 11145.00
1416.637, 11132.00
1417.686, 11217.00
1418.736, 11141.00
1419.785, 11185.56
1420.834, 11044.00
1421.883, 11179.00
1422.932, 11239.00
1423.980, 11172.00
1425.029, 11321.00
1426.077, 11172.00
1427.125, 11240.00
1428.173, 11233.00
1429.221, 11340.00
1430.269, 11342.00
1431.316, 11413.00
1432.363, 11352.00
1433.410, 11454.00
1434.457, 11217.00
1435.504, 11466.00
1436.551, 11323.00
1437.597, 11379.00
1438.644, 11442.00
1439.690, 11460.00
1440.736, 11409.00
1441.781, 11368.00
1442.827, 11496.00
1443.873, 11565.00
1444.918, 11499.00
1445.963, 11426.00
1447.008, 11519.00
1448.053, 11421.00
1449.098, 11582.00
1450.142, 11569.00
1451.186, 11541.00
1452.231, 11579.00
1453.275, 11528.00
1454.319, 11599.00
1455.362, 11599.00
1456.406, 11577.18
1457.449, 11691.00
1458.492, 11560.00
1459.535, 11497.00
1460.578, 11530.00
1461.621, 11623.00
1462.663, 11495.00
1463.706, 11496.00
1464.748, 11622.00
1465.790, 11501.00
1466.832, 11571.00
1467.874, 11505.00
1468.915, 11622.00
1469.957, 11574.00
1470.998, 11463.00
1472.039, 11454.00
1473.080, 11434.88
1474.121, 11435.00
1475.161, 11520.00
1476.202, 11563.00
1477.242, 11751.00
1478.282, 11525.00
1479.322, 11418.00
1480.362, 11696.00
1481.401, 11691.00
1482.441, 11688.00
1483.480, 11554.00
1484.519, 11634.00
1485.558, 11667.00
1486.597, 11836.00
1487.636, 11521.00
1488.674, 11710.00
1489.712, 11701.00
1490.751, 11579.00
1491.788, 11704.00
1492.826, 11714.00
1493.864, 11748.00
1494.901, 11580.00
1495.939, 11575.00
1496.976, 11683.00
1498.013, 11632.00
1499.050, 11685.00
1500.086, 11691.00
1501.123, 11622.00
1502.159, 11801.00
1503.195, 11700.00
1504.231, 11656.00
1505.267, 11598.00
1506.303, 11539.00
1507.338, 11903.00
1508.374, 11519.00
1509.409, 11737.00
1510.444, 11775.00
1511.479, 11584.00
1512.514, 11798.00
1513.548, 11655.00
1514.583, 11683.00
1515.617, 11835.00
1516.651, 11900.00
1517.685, 11788.00
1518.718, 11833.00
1519.752, 11948.00
1520.785, 11699.00
1521.819, 11819.00
1522.852, 11817.00
1523.885, 11750.00
1524.917, 11707.00
1525.950, 11963.00
1526.982, 11869.00
1528.015, 11896.00
1529.047, 11869.00
1530.079, 11864.45
1531.110, 11861.27
1532.142, 11898.00
1533.173, 11850.00
1534.205, 11883.00
1535.236, 11899.00
1536.267, 11976.00
1537.298, 11919.00
1538.328, 11934.00
1539.359, 11813.00
1540.389, 11876.00
1541.419, 12026.00
1542.449, 11908.00
1543.479, 11960.00
1544.508, 12032.00
1545.538, 11811.00
1546.567, 11933.83
1547.596, 11901.00
1548.625, 11950.00
1549.654, 12074.00
1550.683, 12007.00
1551.711, 11984.00
1552.740, 12069.00
1553.768, 11909.00
1554.796, 12058.00
1555.824, 12145.00
1556.851, 11927.00
1557.879, 12036.00
1558.906, 12030.00
1559.933, 12035.00
1560.960, 11946.00
1561.987, 12012.00
1563.014, 12046.00
##END=



