##NAMES=Clinoptilolite-Na
##RRUFFID=R061099
##IDEAL CHEMISTRY=Na_6_(Si_30_Al_6_)O_72_&#183;20H_2_O
##LOCALITY=Richardson Ranch, Madras, Jefferson County, Oregon, USA
##OWNER=RRUFF
##SOURCE=Michael Scott
##DESCRIPTION=Red-brown to salmon, somewhat coffin shaped tabular crystals in a fragmented geode
##STATUS=The identification of this mineral has been confirmed by X-ray diffraction and chemical analysis
##URL=rruff.info/R061099
##MEASURED CHEMISTRY=(Na_2.70_Ca_1.46_K_0.89_Fe_0.08_Mg_0.02_)_Σ=5.15_(Si_29.29_Al_6.71_)O_72_·18.51H_2_O
##PIN_ID=M01647
##ORIENTATION=Laser parallel to c* (0 0 1). Fiducial mark perpendicular to laser is parallel to a [1 0 0]
122.4690, 20950.00
123.7100, 20880.00
124.9500, 20665.05
126.1900, 20547.00
127.4300, 20196.00
128.6700, 20167.00
129.9090, 19888.00
131.1480, 19960.00
132.3880, 19802.00
133.6270, 19857.00
134.8650, 20058.00
136.1040, 19804.52
137.3420, 19929.08
138.5800, 20010.79
139.8180, 20051.96
141.0560, 19931.16
142.2940, 20019.52
143.5310, 20024.03
144.7680, 20142.00
146.0050, 19972.00
147.2420, 20041.00
148.4790, 19886.00
149.7150, 19942.00
150.9510, 19849.00
152.1870, 19720.00
153.4230, 19699.00
154.6590, 19433.00
155.8940, 19502.00
157.1300, 19253.00
158.3650, 19133.00
159.6000, 18754.00
160.8340, 18548.00
162.0690, 18390.00
163.3030, 17954.00
164.5370, 17661.00
165.7710, 17360.00
167.0050, 16968.00
168.2380, 16597.00
169.4720, 16479.00
170.7050, 16121.00
171.9380, 15741.00
173.1700, 15351.00
174.4030, 15151.00
175.6350, 14851.00
176.8680, 14543.00
178.1000, 14480.00
179.3310, 14201.00
180.5630, 14154.00
181.7940, 13854.00
183.0260, 13690.00
184.2570, 13712.00
185.4870, 13672.00
186.7180, 13530.00
187.9480, 13472.00
189.1790, 13391.00
190.4090, 13364.00
191.6390, 13398.00
192.8680, 13330.00
194.0980, 13451.00
195.3270, 13300.00
196.5560, 13486.00
197.7850, 13279.00
199.0140, 13330.00
200.2420, 13405.00
201.4710, 13384.00
202.6990, 13241.00
203.9270, 13126.00
205.1550, 12895.00
206.3820, 12814.00
207.6090, 12533.00
208.8370, 12358.00
210.0640, 12210.00
211.2900, 12114.00
212.5170, 12080.00
213.7440, 11943.00
214.9700, 11900.00
216.1960, 11656.00
217.4220, 11462.00
218.6470, 11485.00
219.8730, 11435.00
221.0980, 11423.00
222.3230, 11386.69
223.5480, 11323.65
224.7730, 11282.00
225.9970, 11207.00
227.2220, 11120.00
228.4460, 11092.00
229.6700, 11068.76
230.8940, 11044.00
232.1170, 11079.00
233.3400, 11098.00
234.5640, 11115.00
235.7870, 11351.00
237.0100, 11346.00
238.2320, 11447.00
239.4550, 11336.00
240.6770, 11494.00
241.8990, 11625.00
243.1210, 11602.00
244.3420, 11784.00
245.5640, 11889.00
246.7850, 11857.00
248.0060, 12160.00
249.2270, 12292.00
250.4480, 12317.00
251.6690, 12240.00
252.8890, 12437.00
254.1090, 12536.00
255.3290, 12462.00
256.5490, 12521.00
257.7680, 12528.00
258.9880, 12520.00
260.2070, 12456.00
261.4260, 12513.00
262.6450, 12450.75
263.8640, 12513.10
265.0820, 12532.63
266.3000, 12511.61
267.5180, 12328.62
268.7360, 12354.79
269.9540, 12327.74
271.1720, 12301.77
272.3890, 12352.00
273.6060, 12276.00
274.8230, 12275.00
276.0400, 12282.00
277.2560, 12070.00
278.4730, 12095.00
279.6890, 12132.00
280.9050, 12073.00
282.1210, 12138.00
283.3370, 12045.00
284.5520, 12100.00
285.7670, 12066.00
286.9820, 12043.00
288.1970, 11971.00
289.4120, 11850.00
290.6270, 11985.00
291.8410, 11990.00
293.0550, 12011.00
294.2690, 11901.00
295.4830, 12060.00
296.6970, 11961.00
297.9100, 12049.00
299.1230, 11894.00
300.3360, 11940.00
301.5490, 11910.00
302.7620, 11831.98
303.9740, 11893.34
305.1860, 11934.92
306.3990, 11957.80
307.6110, 11905.91
308.8220, 11950.54
310.0340, 11956.50
311.2450, 11960.85
312.4560, 12019.07
313.6670, 11978.04
314.8780, 12035.40
316.0890, 12053.49
317.2990, 12059.00
318.5090, 12025.00
319.7200, 12134.00
320.9290, 12194.26
322.1390, 12250.14
323.3490, 12436.00
324.5580, 12411.00
325.7670, 12568.00
326.9760, 12662.00
328.1850, 12530.00
329.3930, 12702.00
330.6020, 12719.00
331.8100, 12769.00
333.0180, 12879.00
334.2260, 12892.00
335.4340, 12912.00
336.6410, 12838.00
337.8480, 12810.00
339.0550, 12883.00
340.2620, 12915.00
341.4690, 12940.00
342.6760, 13035.00
343.8820, 13060.00
345.0880, 13096.00
346.2940, 13095.00
347.5000, 13063.00
348.7060, 13185.00
349.9110, 13153.00
351.1160, 13326.00
352.3210, 13461.00
353.5260, 13478.00
354.7310, 13494.00
355.9360, 13660.00
357.1400, 13843.00
358.3440, 13975.00
359.5480, 14155.14
360.7520, 14348.72
361.9550, 14507.00
363.1590, 14769.00
364.3620, 14993.00
365.5650, 15239.00
366.7680, 15473.44
367.9710, 15644.00
369.1730, 15970.00
370.3760, 16151.00
371.5780, 16468.00
372.7800, 16640.00
373.9810, 17000.00
375.1830, 17318.00
376.3840, 17404.00
377.5860, 17707.00
378.7870, 18070.00
379.9880, 18536.00
381.1880, 18696.00
382.3890, 19265.00
383.5890, 19364.00
384.7890, 19970.00
385.9890, 20264.00
387.1890, 20776.00
388.3880, 21423.00
389.5880, 21889.00
390.7870, 22706.00
391.9860, 23558.00
393.1850, 24291.00
394.3840, 25089.00
395.5820, 25862.00
396.7800, 27146.00
397.9790, 27855.00
399.1770, 29143.00
400.3740, 29991.00
401.5720, 30846.00
402.7690, 31403.00
403.9670, 32295.00
405.1640, 32461.00
406.3600, 32555.00
407.5570, 32393.00
408.7540, 32101.00
409.9500, 31370.00
411.1460, 30769.00
412.3420, 30027.00
413.5380, 29195.00
414.7330, 28230.00
415.9290, 27272.00
417.1240, 26548.00
418.3190, 25521.00
419.5140, 24586.00
420.7090, 23784.00
421.9030, 22957.00
423.0970, 21892.00
424.2920, 21184.00
425.4860, 20196.00
426.6790, 19536.00
427.8730, 18711.00
429.0660, 18054.00
430.2600, 17524.00
431.4530, 16597.00
432.6460, 16094.00
433.8380, 15746.00
435.0310, 15311.00
436.2230, 14973.00
437.4150, 14689.00
438.6070, 14397.00
439.7990, 14171.00
440.9910, 13941.45
442.1820, 13715.00
443.3730, 13572.00
444.5640, 13453.00
445.7550, 13340.00
446.9460, 13396.00
448.1370, 13272.00
449.3270, 13210.00
450.5170, 13100.00
451.7070, 13271.00
452.8970, 13518.00
454.0870, 13597.00
455.2760, 13809.00
456.4650, 14010.00
457.6550, 14285.00
458.8430, 14642.00
460.0320, 14996.00
461.2210, 15369.27
462.4090, 15920.00
463.5970, 16239.00
464.7850, 16694.00
465.9730, 17276.00
467.1610, 17692.00
468.3480, 17811.00
469.5360, 18379.00
470.7230, 18526.00
471.9100, 18725.00
473.0970, 19086.00
474.2830, 20022.00
475.4700, 20005.00
476.6560, 20821.00
477.8420, 21714.00
479.0280, 22189.00
480.2140, 23243.00
481.3990, 23877.00
482.5850, 24586.00
483.7700, 25255.00
484.9550, 25426.00
486.1400, 25340.00
487.3240, 24859.00
488.5090, 24106.00
489.6930, 23172.00
490.8770, 21848.00
492.0610, 20847.00
493.2450, 19632.00
494.4290, 18255.00
495.6120, 17458.00
496.7950, 16194.00
497.9780, 15731.00
499.1610, 14674.00
500.3440, 14156.00
501.5260, 13630.00
502.7090, 13158.00
503.8910, 12818.00
505.0730, 12368.00
506.2550, 12223.00
507.4360, 11881.00
508.6180, 11757.00
509.7990, 11503.00
510.9800, 11500.00
512.1610, 11426.00
513.3420, 11193.00
514.5230, 11213.00
515.7030, 11118.00
516.8830, 10884.00
518.0630, 10904.00
519.2430, 11025.00
520.4230, 10816.00
521.6020, 10929.00
522.7820, 10668.00
523.9610, 10823.00
525.1400, 10730.00
526.3190, 10786.00
527.4970, 10689.00
528.6760, 10586.00
529.8540, 10711.00
531.0320, 10660.00
532.2100, 10651.00
533.3880, 10512.00
534.5660, 10590.00
535.7430, 10459.00
536.9200, 10555.00
538.0970, 10458.00
539.2740, 10471.00
540.4510, 10449.00
541.6270, 10532.00
542.8040, 10532.00
543.9800, 10465.00
545.1560, 10551.00
546.3320, 10534.00
547.5080, 10397.00
548.6830, 10413.00
549.8580, 10508.00
551.0340, 10496.00
552.2090, 10489.00
553.3830, 10375.08
554.5580, 10475.29
555.7320, 10533.09
556.9070, 10550.78
558.0810, 10406.93
559.2550, 10472.67
560.4280, 10455.02
561.6020, 10434.38
562.7750, 10530.86
563.9490, 10412.74
565.1220, 10508.24
566.2950, 10519.08
567.4670, 10569.29
568.6400, 10535.60
569.8120, 10528.39
570.9840, 10605.98
572.1560, 10637.29
573.3280, 10595.62
574.5000, 10591.00
575.6710, 10577.00
576.8430, 10537.00
578.0140, 10651.00
579.1850, 10546.00
580.3560, 10592.00
581.5260, 10670.00
582.6970, 10711.00
583.8670, 10627.00
585.0370, 10737.00
586.2070, 10808.00
587.3770, 10645.00
588.5460, 10814.00
589.7160, 10900.00
590.8850, 10730.00
592.0540, 11026.00
593.2230, 10920.00
594.3920, 11119.00
595.5600, 10967.00
596.7290, 11124.00
597.8970, 11154.00
599.0650, 11192.00
600.2330, 11387.00
601.4000, 11464.00
602.5680, 11448.00
603.7350, 11757.00
604.9020, 11925.00
606.0690, 11971.00
607.2360, 12029.00
608.4030, 12282.00
609.5690, 12407.08
610.7360, 12659.00
611.9020, 12832.00
613.0680, 13028.00
614.2340, 13251.00
615.3990, 13475.00
616.5650, 13511.00
617.7300, 13476.00
618.8950, 13576.00
620.0600, 13474.00
621.2250, 13500.00
622.3890, 13187.00
623.5540, 13192.00
624.7180, 12971.00
625.8820, 12934.00
627.0460, 12697.00
628.2100, 12559.00
629.3730, 12423.00
630.5370, 12216.00
631.7000, 11975.00
632.8630, 11739.00
634.0260, 11725.00
635.1890, 11670.00
636.3510, 11416.00
637.5140, 11461.00
638.6760, 11301.00
639.8380, 11228.00
641.0000, 11028.00
642.1610, 10958.00
643.3230, 11052.00
644.4840, 11008.00
645.6450, 10983.00
646.8060, 10886.00
647.9670, 10848.00
649.1280, 10834.00
650.2880, 10782.00
651.4490, 10862.00
652.6090, 10887.00
653.7690, 10791.00
654.9290, 10755.00
656.0880, 10858.00
657.2480, 10818.00
658.4070, 10738.00
659.5660, 10862.00
660.7250, 10845.00
661.8840, 10614.00
663.0430, 10645.00
664.2010, 10636.00
665.3600, 10642.00
666.5180, 10590.00
667.6760, 10617.00
668.8330, 10635.00
669.9910, 10589.00
671.1480, 10618.00
672.3060, 10698.00
673.4630, 10695.00
674.6200, 10679.00
675.7770, 10630.00
676.9330, 10523.00
678.0900, 10635.00
679.2460, 10549.00
680.4020, 10586.00
681.5580, 10642.00
682.7140, 10580.00
683.8690, 10644.00
685.0250, 10714.00
686.1800, 10626.00
687.3350, 10669.00
688.4900, 10607.00
689.6450, 10603.50
690.7990, 10715.00
691.9540, 10626.00
693.1080, 10633.00
694.2620, 10713.00
695.4160, 10559.00
696.5700, 10631.00
697.7230, 10575.00
698.8770, 10744.00
700.0300, 10610.00
701.1830, 10819.00
702.3360, 10671.00
703.4890, 10681.00
704.6410, 10701.00
705.7930, 10666.00
706.9460, 10872.00
708.0980, 10724.00
709.2500, 10815.00
710.4010, 10708.00
711.5530, 10802.00
712.7040, 10912.00
713.8560, 10838.00
715.0070, 10745.00
716.1580, 10903.00
717.3080, 10783.00
718.4590, 10801.00
719.6090, 10832.00
720.7590, 10781.00
721.9090, 10777.00
723.0590, 10844.00
724.2090, 10906.00
725.3590, 10756.00
726.5080, 10731.00
727.6570, 10861.00
728.8060, 10804.00
729.9550, 10856.00
731.1040, 10829.00
732.2530, 10781.00
733.4010, 10949.00
734.5490, 10827.00
735.6970, 10866.00
736.8450, 10890.00
737.9930, 10900.00
739.1400, 10962.00
740.2880, 10834.00
741.4350, 10812.00
742.5820, 10914.00
743.7290, 10786.00
744.8760, 10856.00
746.0220, 10978.00
747.1690, 11005.00
748.3150, 10962.00
749.4610, 10844.00
750.6070, 11017.00
751.7530, 10998.00
752.8980, 11000.00
754.0440, 11056.00
755.1890, 11021.00
756.3340, 11036.00
757.4790, 11032.00
758.6240, 11040.12
759.7680, 11077.18
760.9130, 11097.00
762.0570, 11186.00
763.2010, 11270.00
764.3450, 11388.00
765.4890, 11203.00
766.6320, 11284.00
767.7760, 11290.00
768.9190, 11467.00
770.0620, 11501.00
771.2050, 11487.00
772.3480, 11498.00
773.4900, 11594.00
774.6330, 11662.00
775.7750, 11681.00
776.9170, 11668.00
778.0590, 11732.58
779.2010, 11688.00
780.3420, 11826.00
781.4840, 11879.00
782.6250, 11946.00
783.7660, 11921.00
784.9070, 11972.00
786.0480, 11883.00
787.1890, 12129.00
788.3290, 11923.00
789.4690, 12135.00
790.6100, 11891.00
791.7490, 11904.00
792.8890, 12049.00
794.0290, 11979.00
795.1680, 12012.00
796.3080, 12048.00
797.4470, 12013.00
798.5860, 11756.00
799.7250, 11970.00
800.8630, 11946.00
802.0020, 11801.00
803.1400, 11954.00
804.2780, 11877.00
805.4160, 11763.00
806.5540, 11678.00
807.6920, 11738.00
808.8300, 11589.00
809.9670, 11624.00
811.1040, 11624.00
812.2410, 11579.00
813.3780, 11532.00
814.5150, 11609.00
815.6510, 11506.00
816.7880, 11358.00
817.9240, 11454.00
819.0600, 11393.00
820.1960, 11495.00
821.3320, 11442.00
822.4670, 11491.00
823.6030, 11514.00
824.7380, 11425.00
825.8730, 11336.00
827.0080, 11237.00
828.1430, 11229.00
829.2770, 11154.00
830.4120, 11132.00
831.5460, 11045.00
832.6800, 11079.14
833.8140, 11090.77
834.9480, 11182.00
836.0810, 11141.00
837.2150, 11257.00
838.3480, 11193.00
839.4810, 11141.00
840.6140, 11027.00
841.7470, 11072.00
842.8800, 11162.00
844.0120, 11110.00
845.1450, 11080.00
846.2770, 11224.00
847.4090, 11024.00
848.5410, 11145.00
849.6720, 11110.00
850.8040, 11222.00
851.9350, 11102.00
853.0660, 11090.00
854.1970, 11165.00
855.3280, 11198.00
856.4590, 11252.00
857.5900, 11072.00
858.7200, 11062.00
859.8500, 11230.00
860.9800, 11097.00
862.1100, 11206.00
863.2400, 11129.00
864.3700, 11152.00
865.4990, 11182.34
866.6280, 11180.00
867.7570, 11199.00
868.8860, 11207.00
870.0150, 11169.00
871.1440, 11295.00
872.2720, 11173.00
873.4010, 11299.00
874.5290, 11262.00
875.6570, 11269.00
876.7850, 11367.00
877.9120, 11196.00
879.0400, 11128.00
880.1670, 11291.00
881.2940, 11248.00
882.4210, 11320.00
883.5480, 11305.00
884.6750, 11298.00
885.8020, 11224.00
886.9280, 11320.00
888.0540, 11313.00
889.1800, 11244.00
890.3060, 11164.00
891.4320, 11325.00
892.5580, 11414.00
893.6830, 11283.00
894.8080, 11324.00
895.9330, 11446.00
897.0580, 11368.00
898.1830, 11363.00
899.3080, 11258.00
900.4320, 11355.00
901.5570, 11322.00
902.6810, 11448.00
903.8050, 11350.00
904.9290, 11389.00
906.0520, 11356.00
907.1760, 11341.00
908.2990, 11377.00
909.4230, 11395.00
910.5460, 11415.00
911.6690, 11409.84
912.7910, 11569.00
913.9140, 11403.00
915.0360, 11483.00
916.1590, 11530.00
917.2810, 11461.00
918.4030, 11435.00
919.5240, 11374.00
920.6460, 11627.00
921.7680, 11473.00
922.8890, 11493.00
924.0100, 11534.00
925.1310, 11449.00
926.2520, 11449.00
927.3730, 11569.00
928.4930, 11559.00
929.6130, 11521.00
930.7340, 11541.00
931.8540, 11549.99
932.9740, 11662.00
934.0930, 11619.00
935.2130, 11737.00
936.3320, 11811.00
937.4520, 11738.00
938.5710, 11665.00
939.6900, 11728.00
940.8090, 11728.00
941.9270, 11712.00
943.0460, 11816.00
944.1640, 11852.00
945.2820, 11704.00
946.4000, 11793.00
947.5180, 11889.00
948.6360, 12010.00
949.7530, 11906.00
950.8710, 11902.00
951.9880, 11871.00
953.1050, 11940.00
954.2220, 11874.00
955.3390, 11899.17
956.4550, 11976.00
957.5720, 11941.00
958.6880, 11984.00
959.8040, 12085.00
960.9200, 12151.00
962.0360, 12020.00
963.1520, 12039.00
964.2670, 12168.00
965.3820, 12031.00
966.4980, 12118.00
967.6130, 12213.00
968.7280, 12351.00
969.8420, 12301.00
970.9570, 12296.00
972.0710, 12416.00
973.1850, 12412.00
974.3000, 12146.00
975.4140, 12195.00
976.5270, 12279.00
977.6410, 12203.00
978.7540, 12492.00
979.8680, 12399.00
980.9810, 12452.00
982.0940, 12363.00
983.2070, 12467.00
984.3200, 12339.00
985.4320, 12447.00
986.5440, 12467.00
987.6570, 12501.00
988.7690, 12563.00
989.8810, 12599.00
990.9920, 12595.00
992.1040, 12608.00
993.2160, 12546.00
994.3270, 12661.00
995.4380, 12649.00
996.5490, 12565.00
997.6600, 12653.00
998.7710, 12642.00
999.8810, 12619.00
1000.991, 12817.00
1002.102, 12753.00
1003.212, 12756.00
1004.322, 12686.00
1005.431, 12738.00
1006.541, 12837.00
1007.651, 12700.00
1008.760, 12848.00
1009.869, 12886.00
1010.978, 12836.00
1012.087, 12799.00
1013.195, 12941.00
1014.304, 12752.00
1015.412, 12834.00
1016.521, 12952.00
1017.629, 12984.00
1018.737, 13052.65
1019.844, 13075.00
1020.952, 13149.00
1022.059, 13084.00
1023.167, 13147.00
1024.274, 13146.91
1025.381, 13176.00
1026.488, 13180.00
1027.594, 13188.24
1028.701, 13184.00
1029.807, 13200.00
1030.913, 13181.00
1032.019, 13184.00
1033.125, 13281.00
1034.231, 13224.00
1035.337, 13160.00
1036.442, 13243.00
1037.548, 13214.00
1038.653, 13297.00
1039.758, 13263.00
1040.863, 13223.00
1041.967, 13233.00
1043.072, 13255.00
1044.176, 13337.00
1045.280, 13404.00
1046.384, 13287.00
1047.488, 13204.00
1048.592, 13317.00
1049.696, 13253.00
1050.799, 13344.00
1051.903, 13360.00
1053.006, 13369.00
1054.109, 13193.00
1055.212, 13396.00
1056.314, 13302.00
1057.417, 13334.00
1058.519, 13382.00
1059.621, 13260.00
1060.724, 13465.00
1061.826, 13508.00
1062.927, 13256.00
1064.029, 13441.00
1065.130, 13571.00
1066.232, 13445.00
1067.333, 13368.00
1068.434, 13426.00
1069.535, 13410.00
1070.636, 13385.98
1071.736, 13522.00
1072.837, 13411.00
1073.937, 13442.00
1075.037, 13584.00
1076.137, 13495.00
1077.237, 13558.00
1078.337, 13665.00
1079.436, 13669.00
1080.535, 13665.00
1081.635, 13697.00
1082.734, 13691.00
1083.833, 13691.00
1084.931, 13761.00
1086.030, 13801.36
1087.128, 13847.32
1088.227, 13928.00
1089.325, 13939.00
1090.423, 13954.00
1091.521, 13956.00
1092.618, 14063.00
1093.716, 14035.00
1094.813, 14154.00
1095.911, 14252.00
1097.008, 14122.00
1098.105, 14218.00
1099.202, 14368.00
1100.298, 14441.00
1101.395, 14430.00
1102.491, 14515.00
1103.587, 14587.00
1104.683, 14840.00
1105.779, 14639.00
1106.875, 14886.00
1107.971, 14831.00
1109.066, 14966.00
1110.161, 14916.00
1111.256, 14883.00
1112.351, 15002.00
1113.446, 14975.37
1114.541, 15024.86
1115.636, 15087.00
1116.730, 15073.00
1117.824, 15209.00
1118.918, 15184.00
1120.012, 15479.00
1121.106, 15174.00
1122.200, 15328.00
1123.293, 15603.00
1124.387, 15363.00
1125.480, 15460.00
1126.573, 15434.00
1127.666, 15534.00
1128.759, 15472.00
1129.851, 15633.00
1130.944, 15567.00
1132.036, 15626.00
1133.128, 15622.00
1134.220, 15532.00
1135.312, 15742.00
1136.404, 15665.00
1137.495, 15601.00
1138.587, 15739.00
1139.678, 15697.00
1140.769, 15751.00
1141.860, 15972.00
1142.951, 15903.00
1144.041, 15923.00
1145.132, 15776.00
1146.222, 15883.00
1147.313, 15943.00
1148.403, 15922.00
1149.493, 16046.00
1150.582, 15925.00
1151.672, 16141.00
1152.761, 15938.00
1153.851, 15945.00
1154.940, 15963.00
1156.029, 15794.00
1157.118, 15922.00
1158.207, 15780.00
1159.295, 15864.00
1160.384, 16020.00
1161.472, 15706.00
1162.560, 15812.00
1163.648, 15975.00
1164.736, 15781.00
1165.824, 15777.00
1166.911, 15744.00
1167.999, 15768.00
1169.086, 15560.00
1170.173, 15661.00
1171.260, 15477.00
1172.347, 15554.00
1173.434, 15523.00
1174.520, 15495.00
1175.606, 15528.00
1176.693, 15576.00
1177.779, 15499.00
1178.865, 15352.00
1179.951, 15403.00
1181.036, 15399.00
1182.122, 15201.00
1183.207, 15300.00
1184.292, 15224.00
1185.377, 15087.00
1186.462, 15257.00
1187.547, 14880.00
1188.632, 15165.00
1189.716, 14957.00
1190.800, 14887.00
1191.885, 14879.00
1192.969, 14761.00
1194.052, 14806.00
1195.136, 14742.00
1196.220, 14819.00
1197.303, 14727.00
1198.387, 14716.00
1199.470, 14574.00
1200.553, 14415.00
1201.636, 14387.00
1202.718, 14348.00
1203.801, 14410.00
1204.883, 14297.00
1205.966, 14343.00
1207.048, 14234.00
1208.130, 14231.00
1209.211, 14162.00
1210.293, 14129.00
1211.375, 14135.00
1212.456, 14178.00
1213.537, 14167.00
1214.618, 14248.00
1215.699, 14066.00
1216.780, 13891.00
1217.861, 14168.00
1218.941, 13937.00
1220.022, 14112.00
1221.102, 14032.00
1222.182, 13810.00
1223.262, 13978.00
1224.342, 13943.00
1225.422, 14037.00
1226.501, 13943.00
1227.580, 13969.00
1228.660, 13927.00
1229.739, 13913.41
1230.818, 13924.41
1231.896, 13931.00
1232.975, 13921.00
1234.054, 13983.00
1235.132, 13955.00
1236.210, 14013.00
1237.288, 14144.00
1238.366, 13912.00
1239.444, 14050.00
1240.521, 13941.00
1241.599, 13958.00
1242.676, 14144.00
1243.753, 14049.00
1244.830, 13843.00
1245.907, 13924.00
1246.984, 14019.00
1248.061, 13963.00
1249.137, 14041.00
1250.214, 13956.00
1251.290, 14044.00
1252.366, 14081.00
1253.442, 14099.00
1254.517, 14149.00
1255.593, 14095.29
1256.668, 14074.00
1257.744, 14043.00
1258.819, 14019.00
1259.894, 14129.00
1260.969, 14092.00
1262.044, 14251.00
1263.118, 14191.00
1264.193, 14267.00
1265.267, 14169.00
1266.341, 14181.00
1267.415, 14150.00
1268.489, 14259.00
1269.563, 14132.00
1270.636, 14116.00
1271.710, 14211.00
1272.783, 14171.00
1273.856, 14331.00
1274.929, 14364.00
1276.002, 14329.00
1277.075, 14390.73
1278.147, 14327.22
1279.220, 14393.00
1280.292, 14236.00
1281.364, 14238.00
1282.436, 14233.00
1283.508, 14291.00
1284.580, 14312.84
1285.652, 14280.00
1286.723, 14368.00
1287.794, 14311.00
1288.865, 14250.00
1289.936, 14309.00
1291.007, 14280.00
1292.078, 14317.00
1293.149, 14214.00
1294.219, 14334.00
1295.289, 14309.00
1296.360, 14507.00
1297.430, 14372.00
1298.499, 14357.00
1299.569, 14411.00
1300.639, 14347.00
1301.708, 14461.00
1302.778, 14533.00
1303.847, 14350.00
1304.916, 14568.00
1305.985, 14578.00
1307.053, 14519.00
1308.122, 14579.00
1309.190, 14523.00
1310.259, 14522.00
1311.327, 14614.00
1312.395, 14739.00
1313.463, 14540.00
1314.531, 14540.00
1315.598, 14593.00
1316.666, 14678.00
1317.733, 14791.00
1318.800, 14599.00
1319.867, 14582.00
1320.934, 14631.00
1322.001, 14691.00
1323.067, 14609.00
1324.134, 14681.00
1325.200, 14682.00
1326.266, 14575.00
1327.333, 14631.00
1328.398, 14557.00
1329.464, 14676.00
1330.530, 14676.00
1331.595, 14714.00
1332.661, 14647.00
1333.726, 14600.00
1334.791, 14632.00
1335.856, 14781.00
1336.921, 14777.00
1337.985, 14704.62
1339.050, 14550.00
1340.114, 14537.00
1341.178, 14577.00
1342.242, 14653.00
1343.306, 14531.00
1344.370, 14678.00
1345.434, 14620.00
1346.497, 14664.00
1347.561, 14732.00
1348.624, 14798.00
1349.687, 14765.00
1350.750, 14771.00
1351.813, 14867.00
1352.876, 14872.00
1353.938, 14768.00
1355.000, 14848.00
1356.063, 14847.00
1357.125, 14740.00
1358.187, 14980.00
1359.249, 14813.00
1360.310, 14743.00
1361.372, 14846.00
1362.433, 14864.00
1363.495, 14885.00
1364.556, 14996.00
1365.617, 15004.00
1366.678, 15066.00
1367.738, 14934.00
1368.799, 15031.00
1369.859, 14973.00
1370.920, 15156.00
1371.980, 14875.00
1373.040, 15025.00
1374.100, 15032.00
1375.159, 14941.00
1376.219, 14930.00
1377.278, 15038.00
1378.338, 14940.00
1379.397, 15119.00
1380.456, 15021.00
1381.515, 15105.00
1382.574, 14991.00
1383.632, 15089.00
1384.691, 15062.00
1385.749, 14886.00
1386.807, 15037.00
1387.865, 15301.00
1388.923, 15089.00
1389.981, 15172.00
1391.039, 15060.00
1392.096, 15079.00
1393.154, 15161.00
1394.211, 15156.00
1395.268, 15123.00
1396.325, 15169.00
1397.382, 15210.00
1398.439, 15121.00
1399.495, 15148.00
1400.552, 15294.00
1401.608, 15210.00
1402.664, 15032.00
1403.720, 15151.00
1404.776, 15105.00
1405.832, 15297.00
1406.887, 15263.00
1407.943, 15182.00
1408.998, 15249.00
1410.053, 15349.00
1411.108, 15355.00
1412.163, 15286.00
1413.218, 15324.00
1414.272, 15348.00
1415.327, 15174.00
1416.381, 15449.00
1417.435, 15232.00
1418.489, 15273.00
1419.543, 15365.00
1420.597, 15192.00
1421.651, 15410.00
1422.704, 15382.00
1423.758, 15431.00
1424.811, 15394.00
1425.864, 15424.00
1426.917, 15515.00
1427.970, 15513.00
1429.023, 15504.39
1430.075, 15515.00
1431.128, 15463.00
1432.180, 15525.00
1433.232, 15575.00
1434.284, 15425.00
1435.336, 15632.00
1436.388, 15714.00
1437.439, 15585.00
1438.491, 15531.00
1439.542, 15565.00
1440.593, 15799.00
1441.644, 15634.00
1442.695, 15777.00
1443.746, 15746.00
1444.797, 15817.00
1445.847, 15831.00
1446.898, 15635.00
1447.948, 15826.00
1448.998, 15558.58
1450.048, 15854.63
1451.098, 16022.15
1452.147, 16068.03
1453.197, 15627.98
1454.246, 15815.41
1455.296, 15751.38
1456.345, 15677.03
1457.394, 15952.78
1458.443, 15583.40
1459.491, 15853.59
1460.540, 15868.48
1461.588, 16000.21
1462.637, 15878.93
1463.685, 15835.79
1464.733, 16045.76
1465.781, 15955.00
1466.829, 15940.00
1467.876, 15796.00
1468.924, 15949.00
1469.971, 16029.00
1471.019, 15790.00
1472.066, 15929.00
1473.113, 15809.00
1474.160, 15790.00
1475.206, 15867.00
1476.253, 15824.00
1477.299, 15785.00
1478.346, 15894.00
1479.392, 16020.00
1480.438, 15908.00
1481.484, 15934.00
1482.529, 15935.00
1483.575, 16116.00
1484.620, 16029.00
1485.666, 15914.00
1486.711, 16103.00
1487.756, 15876.00
1488.801, 16016.00
1489.846, 15835.00
1490.891, 16032.00
1491.935, 15748.00
1492.980, 16107.00
1494.024, 15967.00
1495.068, 16007.00
1496.112, 16073.00
1497.156, 16067.00
1498.200, 16195.00
1499.243, 16104.00
1500.287, 16118.00
1501.330, 16154.00
1502.373, 16211.00
1503.416, 16098.00
1504.459, 16154.45
1505.502, 16126.00
1506.545, 16152.00
1507.587, 16123.00
1508.630, 16112.00
1509.672, 16209.00
1510.714, 16250.00
1511.756, 16310.00
1512.798, 16236.00
1513.840, 16120.00
1514.881, 16086.00
1515.923, 16236.00
1516.964, 16455.00
1518.005, 16379.00
1519.046, 16335.00
1520.087, 16337.00
1521.128, 16379.00
1522.169, 16312.00
1523.209, 16393.00
1524.249, 16476.00
1525.290, 16331.00
1526.330, 16463.00
1527.370, 16476.00
1528.410, 16430.00
1529.449, 16360.00
1530.489, 16301.00
1531.528, 16402.00
1532.568, 16387.00
1533.607, 16504.00
1534.646, 16512.00
1535.685, 16408.00
1536.724, 16451.00
1537.762, 16615.00
1538.801, 16489.00
1539.839, 16791.00
1540.878, 16689.00
1541.916, 16555.00
1542.954, 16635.00
1543.992, 16451.00
1545.029, 16671.00
1546.067, 16588.00
1547.104, 16521.00
1548.142, 16620.00
1549.179, 16638.00
1550.216, 16702.00
1551.253, 16809.00
1552.290, 16795.76
1553.326, 16821.00
1554.363, 16810.00
1555.399, 16838.00
1556.436, 16842.00
1557.472, 16592.00
1558.508, 16483.00
1559.544, 16656.00
1560.579, 16592.00
1561.615, 16733.00
1562.651, 16722.00
1563.686, 16743.00
1564.721, 16716.00
1565.756, 16728.00
1566.791, 16710.00
1567.826, 16650.00
1568.861, 16710.00
1569.895, 16850.00
1570.930, 16931.00
1571.964, 16896.00
1572.998, 16894.00
1574.032, 16859.00
1575.066, 16902.70
1576.100, 16882.00
1577.134, 17020.00
1578.167, 17008.00
1579.200, 17106.00
1580.234, 17095.00
##END=



