##NAMES=Clinozoisite
##RRUFFID=R040085
##IDEAL CHEMISTRY=Ca_2_Al_3_(Si_2_O_7_)(SiO_4_)O(OH)
##LOCALITY=Alamos, Sonora, Mexico
##OWNER=RRUFF
##SOURCE=University of Arizona Mineral Museum
##DESCRIPTION=Divergent aggregate of red thin prismatic crystals
##STATUS=The identification of this mineral has been confirmed by X-ray diffraction and chemical analysis
##URL=rruff.info/R040085
##MEASURED CHEMISTRY=Ca_2.03_(Al_0.90_Fe_0.13_)_3_(Si_1.00_O_4_)(Si_2.00_O_7_)O(OH)
##PIN_ID=M00327
##ORIENTATION=Laser parallel to (1 0 1). Fiducial mark perpendicular to laser is parallel to -b [0 -1 0]
191.7340, 31012.00
192.9560, 30963.00
194.1780, 31044.00
195.4000, 31192.00
196.6220, 31001.00
197.8430, 31314.00
199.0640, 31393.00
200.2860, 31349.00
201.5070, 31565.00
202.7270, 31639.00
203.9480, 31635.00
205.1690, 31706.00
206.3890, 31742.00
207.6090, 31732.00
208.8290, 32049.00
210.0490, 31802.00
211.2690, 32062.00
212.4890, 32244.00
213.7080, 32254.00
214.9280, 32632.00
216.1470, 32487.00
217.3660, 32440.00
218.5850, 32648.00
219.8030, 32767.00
221.0220, 32591.00
222.2400, 32661.00
223.4590, 32986.00
224.6770, 32979.00
225.8950, 33107.00
227.1120, 33194.00
228.3300, 33329.19
229.5480, 33681.00
230.7650, 33789.00
231.9820, 33957.00
233.1990, 34461.00
234.4160, 34401.00
235.6330, 34548.00
236.8490, 33988.00
238.0660, 34149.00
239.2820, 33971.00
240.4980, 34002.00
241.7140, 33988.00
242.9300, 33897.41
244.1460, 33816.00
245.3610, 33820.00
246.5770, 33918.00
247.7920, 33953.00
249.0070, 34113.00
250.2220, 34202.00
251.4370, 34361.00
252.6510, 34329.00
253.8660, 34185.00
255.0800, 34363.00
256.2940, 34229.00
257.5080, 34224.00
258.7220, 34228.00
259.9360, 34069.00
261.1490, 34005.00
262.3630, 33995.00
263.5760, 33987.00
264.7890, 33944.00
266.0020, 33908.00
267.2150, 34149.00
268.4270, 34402.00
269.6400, 34379.00
270.8520, 34511.00
272.0640, 34604.00
273.2760, 34712.00
274.4880, 34675.00
275.7000, 34417.00
276.9120, 34463.00
278.1230, 34288.00
279.3340, 34310.00
280.5450, 34213.00
281.7560, 34081.00
282.9670, 34150.00
284.1780, 33991.00
285.3880, 34249.00
286.5980, 34178.00
287.8090, 34112.00
289.0190, 34376.00
290.2290, 34231.00
291.4380, 34320.00
292.6480, 34240.00
293.8570, 34398.00
295.0670, 34090.00
296.2760, 34395.00
297.4850, 34457.00
298.6930, 34260.00
299.9020, 34426.00
301.1110, 34361.00
302.3190, 34469.00
303.5270, 34526.43
304.7350, 34568.84
305.9430, 34633.00
307.1510, 34744.00
308.3580, 34773.00
309.5660, 34919.00
310.7730, 34820.00
311.9800, 35070.00
313.1870, 35111.00
314.3940, 35196.00
315.6010, 35052.00
316.8070, 34969.00
318.0130, 34914.00
319.2200, 34895.00
320.4260, 34954.00
321.6310, 34958.00
322.8370, 35142.00
324.0430, 35119.00
325.2480, 35000.00
326.4540, 35195.00
327.6590, 35223.00
328.8640, 35217.00
330.0680, 35599.00
331.2730, 35833.00
332.4780, 35721.00
333.6820, 36139.00
334.8860, 36122.00
336.0900, 36427.00
337.2940, 36607.00
338.4980, 36738.00
339.7010, 37115.00
340.9050, 37197.00
342.1080, 37382.00
343.3110, 37871.00
344.5140, 38123.00
345.7170, 38769.00
346.9200, 38995.00
348.1220, 39362.00
349.3240, 39484.00
350.5270, 39729.00
351.7290, 39733.00
352.9310, 39674.00
354.1320, 39313.00
355.3340, 38689.00
356.5350, 38084.00
357.7370, 37509.00
358.9380, 37175.00
360.1390, 36839.00
361.3400, 36546.83
362.5400, 36411.00
363.7410, 36127.00
364.9410, 35994.00
366.1410, 35779.00
367.3410, 35857.00
368.5410, 35738.00
369.7410, 35837.00
370.9400, 35899.00
372.1400, 35684.00
373.3390, 35765.00
374.5380, 35574.00
375.7370, 35475.00
376.9360, 35464.00
378.1350, 35776.00
379.3330, 35588.00
380.5310, 35669.00
381.7300, 35888.00
382.9280, 35545.00
384.1260, 35595.00
385.3230, 35900.00
386.5210, 35736.00
387.7180, 35736.00
388.9160, 35903.00
390.1130, 36124.00
391.3100, 36008.00
392.5060, 36182.00
393.7030, 36294.00
394.9000, 36445.00
396.0960, 36510.00
397.2920, 36408.00
398.4880, 36471.00
399.6840, 36561.00
400.8800, 36351.00
402.0750, 36447.00
403.2710, 36413.00
404.4660, 36098.00
405.6610, 36062.00
406.8560, 36270.00
408.0510, 35967.00
409.2450, 36135.00
410.4400, 36449.00
411.6340, 36204.00
412.8280, 36360.00
414.0220, 36593.00
415.2160, 36527.00
416.4100, 36809.00
417.6030, 36833.00
418.7970, 37067.00
419.9900, 37259.00
421.1830, 37635.00
422.3760, 37783.88
423.5690, 37996.39
424.7610, 38153.00
425.9540, 38220.00
427.1460, 38338.00
428.3380, 38200.00
429.5300, 38389.00
430.7220, 38352.00
431.9140, 38264.00
433.1050, 38496.00
434.2970, 38022.00
435.4880, 38261.00
436.6790, 38276.00
437.8700, 38411.00
439.0610, 38403.00
440.2510, 38567.00
441.4420, 38738.57
442.6320, 38983.00
443.8220, 39256.00
445.0120, 39703.00
446.2020, 40189.00
447.3910, 40253.00
448.5810, 40892.00
449.7700, 41072.00
450.9600, 41284.00
452.1490, 41164.00
453.3370, 41213.00
454.5260, 40868.00
455.7150, 40745.00
456.9030, 40598.00
458.0910, 40125.00
459.2800, 39893.00
460.4670, 39734.00
461.6550, 39633.00
462.8430, 39677.00
464.0300, 39472.00
465.2180, 39610.00
466.4050, 39575.00
467.5920, 39449.00
468.7790, 39544.00
469.9650, 39642.00
471.1520, 39422.00
472.3380, 39460.00
473.5250, 39637.00
474.7110, 39652.00
475.8970, 39615.00
477.0820, 39642.83
478.2680, 39589.00
479.4540, 39582.00
480.6390, 39458.00
481.8240, 39478.00
483.0090, 39413.00
484.1940, 39424.00
485.3780, 39170.00
486.5630, 38981.00
487.7470, 38721.00
488.9320, 39124.00
490.1160, 38771.00
491.3000, 38648.00
492.4830, 38860.00
493.6670, 38581.00
494.8500, 38653.00
496.0340, 38735.00
497.2170, 38991.00
498.4000, 38904.00
499.5820, 38837.00
500.7650, 39042.00
501.9480, 39232.00
503.1300, 39144.00
504.3120, 39309.00
505.4940, 39556.00
506.6760, 39325.00
507.8580, 39322.00
509.0390, 38999.00
510.2210, 39350.00
511.4020, 38884.00
512.5830, 39324.00
513.7640, 39179.00
514.9450, 39188.00
516.1250, 39318.00
517.3060, 39061.00
518.4860, 39261.00
519.6660, 39013.00
520.8460, 39238.00
522.0260, 39104.00
523.2060, 38903.00
524.3850, 38768.00
525.5650, 38958.00
526.7440, 38703.00
527.9230, 38669.00
529.1020, 38856.00
530.2810, 38702.00
531.4590, 38776.00
532.6380, 38685.00
533.8160, 38585.00
534.9940, 38748.00
536.1720, 38845.00
537.3500, 38706.00
538.5270, 38716.00
539.7050, 38717.00
540.8820, 38867.00
542.0590, 38983.00
543.2360, 38899.00
544.4130, 38849.00
545.5900, 39030.00
546.7660, 39042.00
547.9430, 39148.00
549.1190, 39079.00
550.2950, 39263.00
551.4710, 39094.00
552.6470, 39499.00
553.8220, 39488.00
554.9980, 39806.00
556.1730, 39903.00
557.3480, 39843.00
558.5230, 40017.00
559.6980, 40306.00
560.8730, 40886.00
562.0470, 41170.00
563.2220, 41762.00
564.3960, 42717.00
565.5700, 43682.00
566.7440, 44799.00
567.9170, 45693.00
569.0910, 47110.00
570.2640, 47709.00
571.4380, 47636.00
572.6110, 46497.00
573.7840, 45381.00
574.9570, 43886.00
576.1290, 43006.00
577.3020, 42474.00
578.4740, 41557.00
579.6460, 41268.00
580.8180, 40736.00
581.9900, 40923.00
583.1620, 41258.00
584.3330, 40867.00
585.5040, 41120.00
586.6760, 41141.00
587.8470, 41215.00
589.0180, 41551.00
590.1880, 41829.00
591.3590, 42010.00
592.5290, 42166.00
593.7000, 42320.00
594.8700, 42378.00
596.0400, 42813.00
597.2090, 42983.00
598.3790, 43165.00
599.5490, 43757.00
600.7180, 44106.00
601.8870, 44374.00
603.0560, 44584.00
604.2250, 44576.25
605.3940, 44658.00
606.5620, 44226.00
607.7300, 43839.00
608.8990, 43279.00
610.0670, 43122.00
611.2350, 42657.00
612.4020, 42379.00
613.5700, 41992.00
614.7370, 41603.00
615.9050, 41575.00
617.0720, 41350.00
618.2390, 41281.00
619.4060, 41081.00
620.5720, 40858.00
621.7390, 40819.00
622.9050, 40871.00
624.0710, 40431.00
625.2370, 40797.00
626.4030, 40252.00
627.5690, 40456.00
628.7340, 40458.00
629.9000, 40167.00
631.0650, 40338.00
632.2300, 40353.00
633.3950, 40422.00
634.5600, 40403.00
635.7240, 40250.00
636.8890, 40430.00
638.0530, 40331.00
639.2170, 40491.00
640.3810, 40473.00
641.5450, 40375.00
642.7080, 40533.00
643.8720, 40653.00
645.0350, 40752.00
646.1980, 40553.00
647.3610, 40547.00
648.5240, 40855.00
649.6870, 40835.00
650.8490, 40987.00
652.0120, 41416.00
653.1740, 41115.00
654.3360, 41319.00
655.4980, 41381.00
656.6600, 41244.00
657.8210, 41465.00
658.9830, 41335.00
660.1440, 41202.00
661.3050, 41062.00
662.4660, 41146.00
663.6270, 40904.00
664.7870, 41139.00
665.9480, 40917.00
667.1080, 40947.00
668.2680, 41015.00
669.4280, 40905.00
670.5880, 40823.00
671.7480, 40908.00
672.9070, 40946.00
674.0670, 41036.00
675.2260, 41062.00
676.3850, 41079.00
677.5440, 41074.72
678.7030, 41084.64
679.8610, 40998.00
681.0200, 41112.00
682.1780, 41062.00
683.3360, 41138.00
684.4940, 41440.00
685.6520, 41179.00
686.8090, 41284.00
687.9670, 41165.00
689.1240, 41499.00
690.2810, 41132.00
691.4380, 41106.00
692.5950, 41510.00
693.7520, 41446.00
694.9080, 41437.00
696.0650, 41318.00
697.2210, 41769.00
698.3770, 41539.00
699.5330, 41937.00
700.6880, 41797.00
701.8440, 41830.00
702.9990, 41833.00
704.1550, 41840.00
705.3100, 41605.00
706.4650, 41514.00
707.6190, 41632.00
708.7740, 41527.00
709.9290, 41548.00
711.0830, 41795.00
712.2370, 41489.00
713.3910, 41333.00
714.5450, 41441.00
715.6980, 41236.00
716.8520, 41272.00
718.0050, 41350.00
719.1580, 41422.00
720.3110, 41308.00
721.4640, 41395.00
722.6170, 41357.00
723.7700, 41347.90
724.9220, 41367.00
726.0740, 41321.00
727.2260, 41284.00
728.3780, 41212.00
729.5300, 41317.00
730.6810, 41448.00
731.8330, 41144.00
732.9840, 41476.00
734.1350, 41264.00
735.2860, 41320.00
736.4370, 41659.00
737.5880, 41502.00
738.7380, 41605.00
739.8880, 41651.00
741.0390, 41705.00
742.1890, 41527.00
743.3380, 41497.00
744.4880, 41537.00
745.6380, 41691.00
746.7870, 41558.00
747.9360, 41783.00
749.0850, 41766.00
750.2340, 41726.00
751.3830, 41937.00
752.5310, 41943.00
753.6800, 41834.00
754.8280, 41664.00
755.9760, 41750.00
757.1240, 41762.00
758.2720, 41872.00
759.4190, 42004.00
760.5670, 41696.00
761.7140, 42074.00
762.8610, 41739.00
764.0080, 41756.00
765.1550, 41931.00
766.3020, 41886.00
767.4480, 42118.00
768.5950, 42118.00
769.7410, 42022.00
770.8870, 41847.00
772.0330, 41941.00
773.1780, 42015.00
774.3240, 41977.55
775.4690, 42078.84
776.6140, 42085.00
777.7590, 42172.00
778.9040, 42176.66
780.0490, 42213.80
781.1940, 42190.00
782.3380, 42269.00
783.4820, 42299.00
784.6260, 42328.00
785.7700, 42507.00
786.9140, 42217.00
788.0580, 42539.00
789.2010, 42286.00
790.3450, 42409.00
791.4880, 42275.00
792.6310, 42365.00
793.7730, 42308.00
794.9160, 42565.00
796.0590, 42678.00
797.2010, 42727.00
798.3430, 42810.00
799.4850, 42659.00
800.6270, 42674.00
801.7690, 42678.00
802.9100, 42644.00
804.0520, 42895.00
805.1930, 42672.00
806.3340, 42871.00
807.4750, 42851.00
808.6160, 42707.00
809.7560, 42748.00
810.8970, 42925.00
812.0370, 42748.00
813.1770, 43024.00
814.3170, 42699.00
815.4570, 42880.00
816.5960, 43075.00
817.7360, 43074.00
818.8750, 43222.00
820.0140, 43315.00
821.1530, 43301.00
822.2920, 43295.00
823.4310, 43437.00
824.5690, 43332.00
825.7070, 43547.00
826.8460, 43444.00
827.9840, 43565.00
829.1220, 43766.00
830.2590, 43725.00
831.3970, 43671.00
832.5340, 43619.00
833.6710, 43741.00
834.8080, 43908.00
835.9450, 43994.00
837.0820, 43908.00
838.2190, 43689.00
839.3550, 43859.00
840.4910, 43676.00
841.6270, 43923.00
842.7630, 43879.00
843.8990, 44241.00
845.0350, 43948.00
846.1700, 44050.00
847.3060, 44269.00
848.4410, 44010.00
849.5760, 44075.00
850.7100, 44330.00
851.8450, 44265.00
852.9800, 44296.00
854.1140, 44342.00
855.2480, 44376.00
856.3820, 44434.39
857.5160, 44727.00
858.6500, 44632.00
859.7830, 44708.00
860.9170, 44972.00
862.0500, 44989.00
863.1830, 45173.00
864.3160, 44970.00
865.4480, 45049.00
866.5810, 45245.00
867.7130, 45231.00
868.8460, 45518.00
869.9780, 45751.00
871.1100, 45577.00
872.2410, 46096.00
873.3730, 45966.00
874.5050, 45993.00
875.6360, 46030.00
876.7670, 46467.00
877.8980, 46764.00
879.0290, 46806.00
880.1590, 46921.00
881.2900, 46868.00
882.4200, 46718.00
883.5500, 47201.00
884.6800, 47009.00
885.8100, 46756.00
886.9400, 47191.00
888.0690, 46843.00
889.1990, 47049.00
890.3280, 47219.00
891.4570, 47233.00
892.5860, 47700.00
893.7140, 47681.00
894.8430, 47800.00
895.9710, 47915.00
897.1000, 48273.00
898.2280, 48405.00
899.3560, 48668.00
900.4830, 48696.00
901.6110, 49218.00
902.7380, 49531.00
903.8660, 50106.00
904.9930, 50485.00
906.1200, 51242.00
907.2460, 51606.00
908.3730, 51890.00
909.5000, 53080.00
910.6260, 53210.00
911.7520, 53767.00
912.8780, 54132.00
914.0040, 54124.00
915.1290, 54172.00
916.2550, 53807.00
917.3800, 53351.00
918.5050, 53069.00
919.6300, 52579.00
920.7550, 52209.00
921.8800, 51622.00
923.0040, 51484.00
924.1290, 51495.00
925.2530, 50846.00
926.3770, 50982.00
927.5010, 50339.00
928.6250, 50299.00
929.7480, 49826.00
930.8720, 49824.00
931.9950, 49481.00
933.1180, 49442.00
934.2410, 48698.00
935.3640, 48400.00
936.4860, 48300.00
937.6090, 48149.00
938.7310, 48034.00
939.8530, 47527.00
940.9750, 47345.00
942.0970, 47255.00
943.2180, 46816.00
944.3400, 47067.00
945.4610, 46915.00
946.5820, 46818.00
947.7030, 46764.00
948.8240, 46800.00
949.9450, 46694.00
951.0650, 46505.00
952.1860, 46859.00
953.3060, 46667.00
954.4260, 46916.00
955.5460, 46648.00
956.6650, 46869.00
957.7850, 46917.00
958.9040, 46862.00
960.0230, 46707.00
961.1420, 46860.00
962.2610, 46881.00
963.3800, 46684.00
964.4990, 46736.00
965.6170, 46792.00
966.7350, 46822.00
967.8530, 46831.00
968.9710, 46850.00
970.0890, 46735.00
971.2070, 46994.00
972.3240, 47155.00
973.4410, 47180.00
974.5580, 47141.00
975.6750, 47549.00
976.7920, 47678.00
977.9090, 47994.00
979.0250, 48043.00
980.1410, 48174.00
981.2580, 48419.00
982.3740, 48769.00
983.4890, 49083.00
984.6050, 49075.00
985.7200, 49096.00
986.8360, 48801.00
987.9510, 48754.00
989.0660, 48191.00
990.1810, 48079.00
991.2950, 47887.00
992.4100, 47795.00
993.5240, 47523.00
994.6390, 47310.00
995.7530, 47239.55
996.8660, 47076.75
997.9800, 47087.00
999.0940, 47029.00
1000.207, 46984.00
1001.320, 47221.00
1002.433, 46834.00
1003.546, 46850.00
1004.659, 47092.00
1005.772, 46879.00
1006.884, 47069.00
1007.996, 46888.00
1009.108, 46991.00
1010.220, 47161.00
1011.332, 47002.00
1012.444, 46775.00
1013.555, 46985.00
1014.666, 47482.00
1015.777, 47213.00
1016.888, 47140.00
1017.999, 47166.00
1019.110, 47057.00
1020.220, 47255.00
1021.331, 47487.00
1022.441, 47316.00
1023.551, 47616.00
1024.661, 47366.00
1025.770, 47661.00
1026.880, 47696.00
1027.989, 47487.00
1029.098, 47655.00
1030.207, 47699.00
1031.316, 47702.00
1032.425, 47923.00
1033.533, 47980.00
1034.642, 47999.00
1035.750, 47702.00
1036.858, 48076.00
1037.966, 48127.00
1039.073, 48311.00
1040.181, 47890.00
1041.288, 48221.00
1042.396, 48224.00
1043.503, 48561.00
1044.610, 48654.00
1045.716, 48428.00
1046.823, 48697.00
1047.929, 48212.00
1049.036, 48251.00
1050.142, 48414.00
1051.248, 48391.00
1052.353, 48416.23
1053.459, 48388.00
1054.564, 48398.00
1055.670, 48389.00
1056.775, 48426.00
1057.880, 48276.00
1058.985, 48293.00
1060.089, 48365.00
1061.194, 48019.00
1062.298, 48207.00
1063.402, 48195.00
1064.506, 47994.00
1065.610, 47923.00
1066.713, 47998.75
1067.817, 48021.20
1068.920, 48216.00
1070.023, 48311.00
1071.126, 48474.00
1072.229, 48677.00
1073.332, 48411.00
1074.435, 48413.00
1075.537, 48606.00
1076.639, 48700.00
1077.741, 48718.00
1078.843, 49030.00
1079.945, 48571.00
1081.046, 48784.00
1082.148, 49095.00
1083.249, 48918.00
1084.350, 49580.00
1085.451, 49865.00
1086.551, 49989.00
1087.652, 50023.00
1088.752, 50336.00
1089.853, 50265.00
1090.953, 50487.00
1092.053, 50892.00
1093.152, 51073.00
1094.252, 50842.00
1095.351, 50708.00
1096.451, 50574.00
1097.550, 50075.00
1098.649, 50106.00
1099.748, 49958.00
1100.846, 49474.00
1101.945, 49745.00
1103.043, 49365.00
1104.141, 49281.00
1105.239, 49332.00
1106.337, 49384.00
1107.434, 49300.00
1108.532, 49315.30
1109.629, 49185.00
1110.726, 49202.00
1111.823, 49161.00
1112.920, 49030.00
1114.017, 49575.00
1115.113, 49496.00
1116.210, 49420.00
1117.306, 49382.00
1118.402, 49409.00
1119.498, 49315.00
1120.593, 49615.00
1121.689, 49686.00
1122.784, 49792.00
1123.879, 49494.00
1124.974, 49488.00
1126.069, 49436.00
1127.164, 49569.00
1128.259, 49661.00
1129.353, 49359.00
1130.447, 49571.00
1131.541, 49534.00
1132.635, 49517.00
1133.729, 49597.00
1134.822, 49573.00
1135.916, 49557.00
1137.009, 49594.00
1138.102, 49673.00
1139.195, 49680.64
1140.288, 49718.27
1141.380, 49754.00
1142.473, 49736.00
1143.565, 49766.00
1144.657, 49728.00
1145.749, 49597.00
1146.841, 49794.00
1147.932, 49951.00
1149.024, 49857.00
1150.115, 50081.00
1151.206, 49812.00
1152.297, 49631.00
1153.388, 50040.00
1154.479, 50126.00
1155.569, 50065.00
1156.659, 50126.00
1157.750, 49987.00
1158.839, 49861.00
1159.929, 50072.00
1161.019, 50332.00
1162.108, 50042.00
1163.198, 50319.00
1164.287, 50236.00
1165.376, 50243.00
1166.465, 50187.00
1167.553, 50400.00
1168.642, 50503.00
1169.730, 50126.00
1170.818, 50401.00
1171.906, 50628.00
1172.994, 50168.00
1174.082, 50586.00
1175.170, 50600.00
1176.257, 50806.00
1177.344, 50848.27
1178.431, 50789.62
1179.518, 50796.00
1180.605, 50708.00
1181.691, 50640.00
1182.778, 50806.00
1183.864, 50752.00
1184.950, 50609.00
1186.036, 50975.00
1187.122, 51025.00
1188.207, 50785.00
1189.292, 50933.00
1190.378, 51014.00
1191.463, 50953.00
1192.548, 51119.00
1193.632, 50946.00
1194.717, 51008.00
1195.801, 51011.00
1196.886, 51057.00
1197.970, 50926.00
1199.054, 50944.00
1200.137, 51061.00
1201.221, 50945.00
1202.305, 51038.68
1203.388, 51264.00
1204.471, 51138.00
1205.554, 51204.00
1206.637, 51308.00
1207.719, 51478.00
1208.802, 51220.00
1209.884, 51420.00
1210.966, 51019.00
1212.048, 51474.00
1213.130, 51176.00
1214.212, 51537.00
1215.293, 51422.00
1216.374, 51238.00
1217.456, 51512.00
1218.536, 51351.00
1219.617, 51572.00
1220.698, 51728.00
1221.778, 51742.00
1222.859, 51609.00
1223.939, 51522.00
1225.019, 51819.00
1226.099, 52012.00
1227.178, 51582.00
1228.258, 51936.00
1229.337, 51850.00
1230.417, 51723.00
1231.496, 51760.00
1232.574, 52031.00
1233.653, 51958.00
1234.732, 51577.00
1235.810, 51914.00
1236.888, 51666.00
1237.966, 51930.00
1239.044, 51984.00
1240.122, 51708.00
1241.199, 52171.00
1242.277, 52305.00
1243.354, 52362.00
1244.431, 52422.94
1245.508, 52292.00
1246.585, 52216.00
1247.661, 52170.00
1248.738, 52097.34
1249.814, 52086.26
1250.890, 52028.00
1251.966, 52090.00
1253.042, 52099.00
1254.117, 52138.00
1255.193, 52074.00
1256.268, 52119.00
1257.343, 51966.00
1258.418, 52164.00
1259.493, 52103.00
1260.567, 52261.00
1261.642, 52379.00
1262.716, 52337.00
1263.790, 52436.00
1264.864, 52903.00
1265.938, 52527.00
1267.011, 52641.00
1268.085, 52803.00
1269.158, 52570.00
1270.231, 52925.00
1271.304, 52789.00
1272.377, 52567.00
1273.450, 52541.00
1274.522, 52740.00
1275.594, 52678.00
1276.666, 52998.00
1277.738, 52663.00
1278.810, 52434.00
1279.882, 52689.00
1280.953, 52943.00
1282.025, 52551.00
1283.096, 52840.00
1284.167, 52898.00
1285.238, 52857.00
1286.308, 52935.00
1287.379, 53081.00
1288.449, 52992.00
1289.519, 53079.00
1290.589, 53293.00
1291.659, 53272.00
1292.729, 53374.00
1293.798, 53064.00
1294.868, 53423.00
1295.937, 53099.00
1297.006, 53344.00
1298.075, 53477.00
1299.143, 53403.00
1300.212, 53452.00
1301.280, 53461.00
1302.348, 53318.00
1303.416, 53729.00
1304.484, 53294.00
1305.552, 53527.00
1306.620, 53648.00
1307.687, 53469.00
1308.754, 53740.00
1309.821, 53925.00
1310.888, 53717.00
1311.955, 53688.00
1313.021, 54076.00
1314.088, 54113.00
1315.154, 54175.00
1316.220, 53997.00
1317.286, 54144.00
1318.352, 54066.00
1319.417, 53804.00
1320.483, 54008.00
1321.548, 53853.00
1322.613, 54231.00
1323.678, 53971.00
1324.743, 54270.00
1325.807, 54100.00
1326.872, 54270.00
1327.936, 54588.00
1329.000, 54465.00
1330.064, 54399.00
1331.128, 54341.00
1332.191, 54213.00
1333.255, 54332.00
1334.318, 54231.00
1335.381, 54412.00
1336.444, 54679.00
1337.507, 54539.00
1338.569, 54357.00
1339.632, 54690.00
1340.694, 54387.00
1341.756, 54626.00
1342.818, 54641.00
1343.880, 54738.00
1344.941, 54952.00
1346.003, 54591.00
1347.064, 54450.00
1348.125, 54677.00
1349.186, 54611.00
1350.247, 54653.00
1351.308, 54843.00
1352.368, 54927.00
1353.428, 54956.18
1354.489, 55037.00
1355.549, 54961.00
1356.608, 54902.00
1357.668, 54827.00
1358.727, 54962.00
1359.787, 55356.00
1360.846, 54863.00
1361.905, 55079.00
1362.964, 55270.00
1364.022, 54925.00
1365.081, 55427.00
1366.139, 55074.00
1367.197, 55170.00
1368.255, 55016.00
1369.313, 54958.67
1370.371, 55249.00
1371.428, 55028.00
1372.486, 55318.00
1373.543, 55611.00
1374.600, 55346.00
1375.657, 55451.00
1376.713, 55385.00
1377.770, 55469.00
1378.826, 55592.00
1379.882, 55299.00
1380.938, 55362.00
1381.994, 55416.00
1383.050, 55324.00
1384.106, 55579.00
1385.161, 55301.00
1386.216, 55788.00
1387.271, 55560.00
1388.326, 55320.00
1389.381, 55697.00
1390.435, 55746.00
1391.490, 56016.00
1392.544, 56094.00
1393.598, 55787.00
1394.652, 55905.00
1395.705, 56161.00
1396.759, 55834.00
1397.812, 55830.00
1398.866, 56287.00
1399.919, 55796.00
1400.972, 55754.00
1402.024, 56226.00
1403.077, 56011.00
1404.129, 56069.00
1405.181, 56147.00
1406.233, 56255.00
1407.285, 56181.00
1408.337, 56150.00
1409.389, 56297.00
1410.440, 56457.00
1411.491, 56307.00
1412.542, 56113.00
1413.593, 56268.00
1414.644, 56193.00
1415.695, 56097.00
1416.745, 56124.00
1417.795, 56561.00
1418.845, 56461.00
1419.895, 56477.00
1420.945, 56977.00
1421.995, 56367.00
1423.044, 56312.00
1424.093, 56494.00
1425.142, 56593.00
1426.191, 56495.00
1427.240, 56825.00
1428.289, 56940.00
1429.337, 56508.00
1430.385, 56651.00
1431.433, 56776.00
1432.481, 56627.00
1433.529, 57102.00
1434.577, 56891.00
1435.624, 57078.00
1436.672, 56892.00
1437.719, 57035.00
1438.766, 56998.00
1439.812, 56914.00
1440.859, 57000.00
1441.905, 57028.32
1442.952, 56989.00
1443.998, 57157.00
1445.044, 57243.00
1446.090, 57198.00
1447.135, 57395.00
1448.181, 57297.00
1449.226, 57385.00
1450.271, 57380.00
1451.316, 57328.00
1452.361, 57463.00
1453.405, 57579.00
1454.450, 57610.95
1455.494, 57319.00
1456.538, 57711.00
1457.582, 57520.00
1458.626, 57444.00
1459.670, 57549.00
1460.713, 57536.00
1461.757, 57617.00
1462.800, 57745.00
1463.843, 57636.00
1464.886, 57654.00
1465.928, 57524.00
1466.971, 57737.00
1468.013, 57480.00
1469.055, 57747.00
1470.097, 57545.00
1471.139, 57705.00
1472.181, 58152.00
1473.222, 57925.00
1474.263, 57883.00
1475.305, 58078.00
1476.346, 57975.00
1477.386, 58140.00
1478.427, 57793.00
1479.468, 57913.00
1480.508, 57843.00
1481.548, 57865.00
1482.588, 58109.00
1483.628, 57883.00
1484.668, 57808.00
1485.707, 58109.00
1486.747, 58040.00
1487.786, 58181.00
1488.825, 57987.00
1489.864, 58156.00
1490.902, 58176.00
1491.941, 58114.00
1492.979, 58114.00
1494.017, 58221.00
1495.055, 58058.00
1496.093, 58288.00
1497.131, 58296.00
1498.168, 58320.00
1499.206, 58515.00
1500.243, 58520.00
1501.280, 58517.00
1502.317, 58387.00
1503.354, 58444.00
1504.390, 58540.00
1505.426, 58659.00
1506.463, 58230.00
1507.499, 58230.00
1508.535, 58517.00
1509.570, 58804.00
1510.606, 58295.00
1511.641, 58582.00
1512.676, 58577.00
1513.711, 58508.00
1514.746, 58897.00
1515.781, 59058.00
1516.816, 58556.00
1517.850, 58988.00
1518.884, 58881.00
1519.918, 59028.00
1520.952, 58896.00
1521.986, 58815.00
1523.019, 58775.00
1524.053, 58936.00
1525.086, 58951.00
1526.119, 59101.00
1527.152, 59057.00
1528.185, 59054.00
1529.217, 59163.00
1530.250, 58992.00
1531.282, 59267.00
1532.314, 59275.00
1533.346, 58926.00
1534.377, 59422.00
1535.409, 59466.00
1536.440, 59287.00
1537.472, 59649.00
1538.503, 59300.00
1539.534, 59384.00
1540.564, 59603.00
1541.595, 59309.00
1542.625, 59087.00
1543.656, 59653.00
1544.686, 59402.00
1545.716, 59443.00
1546.745, 59360.00
1547.775, 59547.00
1548.804, 59178.00
1549.834, 59409.00
1550.863, 59427.00
1551.892, 59841.00
1552.920, 59808.39
1553.949, 59632.00
1554.977, 59792.00
1556.006, 59779.00
1557.034, 59575.00
1558.062, 59981.00
1559.089, 59859.00
1560.117, 59678.00
1561.144, 59765.00
1562.172, 60089.00
1563.199, 59658.00
1564.226, 60049.00
1565.252, 59860.00
1566.279, 59685.00
1567.305, 60125.00
1568.332, 59743.00
1569.358, 60056.00
1570.384, 59751.00
1571.409, 59657.00
1572.435, 60490.00
##END=



