##NAMES=Clinoptilolite-Ca
##RRUFFID=R060662
##IDEAL CHEMISTRY=Ca_3_(Si_30_Al_6_)O_72_&#183;20H_2_O
##LOCALITY=Succor Creek, Malheur County, Oregon, USA
##OWNER=RRUFF
##SOURCE=Michael Scott
##DESCRIPTION=Group of colorless platy prismatic crystals
##STATUS=The identification of this mineral has been confirmed by X-ray diffraction and chemical analysis
##URL=rruff.info/R060662
##MEASURED CHEMISTRY=(Ca_1.02_Na_0.97_K_0.59_)_Σ=2.58_(Si_14.40_Al_3.60_)_Σ=18_O_36_·10.96H_2_O
##PIN_ID=M00063
##ORIENTATION=Laser parallel to -a* (-1 0 0). Fiducial mark perpendicular to laser is parallel to b [0 1 0]
134.1270, 34553.00
135.3560, 34527.00
136.5850, 34636.00
137.8140, 34470.00
139.0430, 34807.00
140.2710, 34814.00
141.5000, 34820.00
142.7280, 34928.00
143.9560, 35053.00
145.1840, 35192.00
146.4120, 35111.00
147.6390, 35420.00
148.8670, 35566.00
150.0940, 36047.00
151.3210, 36333.00
152.5490, 36083.00
153.7750, 36158.00
155.0020, 36258.00
156.2290, 36012.00
157.4550, 35664.00
158.6810, 35036.00
159.9080, 34544.00
161.1340, 33936.00
162.3590, 33519.00
163.5850, 32597.00
164.8110, 32058.00
166.0360, 30980.00
167.2610, 30406.00
168.4860, 29878.00
169.7110, 29304.00
170.9360, 28602.00
172.1610, 28204.00
173.3850, 27864.00
174.6100, 27733.00
175.8340, 27589.29
177.0580, 27535.00
178.2820, 27654.00
179.5050, 27870.00
180.7290, 28156.00
181.9520, 28403.00
183.1760, 28872.00
184.3990, 29012.00
185.6220, 29746.00
186.8450, 30441.00
188.0670, 30681.00
189.2900, 30969.00
190.5120, 31573.00
191.7340, 31892.00
192.9560, 32134.00
194.1780, 32278.96
195.4000, 32321.71
196.6220, 32155.00
197.8430, 32037.00
199.0640, 31702.00
200.2860, 31114.00
201.5070, 30730.00
202.7270, 30340.00
203.9480, 29140.00
205.1690, 28036.00
206.3890, 27479.00
207.6090, 26836.00
208.8290, 25846.00
210.0490, 25419.98
211.2690, 24765.00
212.4890, 24236.00
213.7080, 23855.00
214.9280, 23122.00
216.1470, 22714.00
217.3660, 22292.00
218.5850, 21902.00
219.8030, 21556.00
221.0220, 21221.00
222.2400, 20971.68
223.4590, 20779.00
224.6770, 20551.00
225.8950, 20393.00
227.1120, 20222.00
228.3300, 20111.00
229.5480, 20078.00
230.7650, 19929.00
231.9820, 20053.00
233.1990, 20023.00
234.4160, 19964.00
235.6330, 19961.00
236.8490, 20084.55
238.0660, 20490.00
239.2820, 20309.00
240.4980, 20450.00
241.7140, 20366.00
242.9300, 20258.00
244.1460, 20633.00
245.3610, 20635.00
246.5770, 20899.00
247.7920, 21059.00
249.0070, 21226.00
250.2220, 21405.18
251.4370, 21557.00
252.6510, 21686.00
253.8660, 21832.00
255.0800, 21933.00
256.2940, 22153.00
257.5080, 22682.00
258.7220, 23221.00
259.9360, 23176.00
261.1490, 22982.00
262.3630, 23223.63
263.5760, 22931.00
264.7890, 23263.00
266.0020, 23521.00
267.2150, 23524.00
268.4270, 23579.00
269.6400, 23889.00
270.8520, 24195.00
272.0640, 24101.00
273.2760, 24153.00
274.4880, 24449.00
275.7000, 24557.00
276.9120, 24446.00
278.1230, 24485.00
279.3340, 24388.00
280.5450, 24250.00
281.7560, 24156.00
282.9670, 24021.28
284.1780, 24027.00
285.3880, 23742.00
286.5980, 23595.00
287.8090, 23420.00
289.0190, 23446.00
290.2290, 23106.00
291.4380, 23092.00
292.6480, 23061.00
293.8570, 22548.00
295.0670, 22516.00
296.2760, 22337.00
297.4850, 22227.00
298.6930, 22125.00
299.9020, 21948.00
301.1110, 22052.00
302.3190, 21890.00
303.5270, 21835.00
304.7350, 21651.00
305.9430, 21641.00
307.1510, 21530.00
308.3580, 21425.00
309.5660, 21453.00
310.7730, 21094.00
311.9800, 21359.00
313.1870, 21201.00
314.3940, 21464.00
315.6010, 21216.00
316.8070, 21426.00
318.0130, 21455.00
319.2200, 21422.00
320.4260, 21542.00
321.6310, 21660.00
322.8370, 21808.00
324.0430, 21733.00
325.2480, 22058.00
326.4540, 21913.00
327.6590, 22044.00
328.8640, 21949.00
330.0680, 22056.00
331.2730, 22107.00
332.4780, 21977.00
333.6820, 21890.00
334.8860, 22070.00
336.0900, 22147.00
337.2940, 22279.00
338.4980, 22151.00
339.7010, 22344.00
340.9050, 22248.00
342.1080, 22362.00
343.3110, 22220.00
344.5140, 22502.00
345.7170, 22784.00
346.9200, 22754.00
348.1220, 22909.00
349.3240, 23071.00
350.5270, 23223.00
351.7290, 23404.00
352.9310, 23689.00
354.1320, 23874.00
355.3340, 24438.00
356.5350, 24614.00
357.7370, 25076.00
358.9380, 25331.00
360.1390, 25615.00
361.3400, 26123.00
362.5400, 26378.00
363.7410, 27021.00
364.9410, 27307.00
366.1410, 27830.00
367.3410, 28349.00
368.5410, 28908.00
369.7410, 29372.39
370.9400, 29847.34
372.1400, 30315.00
373.3390, 30741.00
374.5380, 31210.00
375.7370, 31677.00
376.9360, 32410.00
378.1350, 32890.00
379.3330, 33502.00
380.5310, 34302.00
381.7300, 35172.00
382.9280, 36005.00
384.1260, 37062.00
385.3230, 38003.00
386.5210, 39045.00
387.7180, 40612.00
388.9160, 41746.00
390.1130, 43119.00
391.3100, 44593.00
392.5060, 46374.00
393.7030, 48181.00
394.9000, 49949.00
396.0960, 51490.00
397.2920, 52981.00
398.4880, 54112.00
399.6840, 55350.00
400.8800, 56412.00
402.0750, 56705.00
403.2710, 57133.00
404.4660, 56786.00
405.6610, 56364.00
406.8560, 55454.00
408.0510, 54703.00
409.2450, 53286.00
410.4400, 51781.00
411.6340, 50326.00
412.8280, 48778.00
414.0220, 47048.60
415.2160, 45074.00
416.4100, 43451.00
417.6030, 41460.00
418.7970, 39571.00
419.9900, 38023.00
421.1830, 36509.00
422.3760, 35085.00
423.5690, 33528.00
424.7610, 32227.00
425.9540, 30725.00
427.1460, 29540.00
428.3380, 28546.00
429.5300, 27253.00
430.7220, 26299.00
431.9140, 25464.00
433.1050, 24905.00
434.2970, 24029.00
435.4880, 23402.00
436.6790, 23024.00
437.8700, 22589.00
439.0610, 22145.00
440.2510, 21745.00
441.4420, 21578.00
442.6320, 21300.00
443.8220, 21313.00
445.0120, 21058.00
446.2020, 21006.00
447.3910, 21247.00
448.5810, 21532.00
449.7700, 21551.00
450.9600, 21927.00
452.1490, 22181.00
453.3370, 22589.00
454.5260, 23188.00
455.7150, 23873.00
456.9030, 24409.00
458.0910, 25176.69
459.2800, 25977.13
460.4670, 26647.00
461.6550, 27585.00
462.8430, 28265.00
464.0300, 28770.00
465.2180, 29540.00
466.4050, 30090.00
467.5920, 30484.00
468.7790, 31167.00
469.9650, 31661.00
471.1520, 32476.00
472.3380, 33362.00
473.5250, 34454.00
474.7110, 35533.00
475.8970, 36927.00
477.0820, 38019.00
478.2680, 39306.00
479.4540, 40193.00
480.6390, 40786.00
481.8240, 40785.00
483.0090, 40613.00
484.1940, 39516.00
485.3780, 38263.00
486.5630, 36725.00
487.7470, 34902.00
488.9320, 33057.00
490.1160, 30670.00
491.3000, 28886.00
492.4830, 27064.00
493.6670, 25004.00
494.8500, 23501.00
496.0340, 22390.00
497.2170, 21174.00
498.4000, 20171.00
499.5820, 19343.00
500.7650, 18425.00
501.9480, 17978.00
503.1300, 17510.00
504.3120, 17146.00
505.4940, 16656.00
506.6760, 16382.00
507.8580, 15968.00
509.0390, 15748.44
510.2210, 15671.00
511.4020, 15438.00
512.5830, 15337.00
513.7640, 15349.00
514.9450, 15171.00
516.1250, 15123.00
517.3060, 14960.00
518.4860, 14901.00
519.6660, 14645.00
520.8460, 14668.00
522.0260, 14613.00
523.2060, 14566.00
524.3850, 14579.00
525.5650, 14568.00
526.7440, 14341.00
527.9230, 14297.00
529.1020, 14322.00
530.2810, 13985.00
531.4590, 14149.00
532.6380, 14087.00
533.8160, 13973.00
534.9940, 13896.00
536.1720, 14069.00
537.3500, 13848.00
538.5270, 13883.00
539.7050, 13715.00
540.8820, 13838.00
542.0590, 13882.00
543.2360, 13715.00
544.4130, 13659.00
545.5900, 13678.00
546.7660, 13521.00
547.9430, 13651.00
549.1190, 13511.00
550.2950, 13445.00
551.4710, 13405.00
552.6470, 13528.00
553.8220, 13389.00
554.9980, 13504.00
556.1730, 13397.00
557.3480, 13552.00
558.5230, 13251.00
559.6980, 13473.00
560.8730, 13427.00
562.0470, 13517.00
563.2220, 13390.00
564.3960, 13491.00
565.5700, 13406.00
566.7440, 13479.00
567.9170, 13621.00
569.0910, 13589.00
570.2640, 13523.00
571.4380, 13519.00
572.6110, 13472.00
573.7840, 13562.00
574.9570, 13584.00
576.1290, 13647.00
577.3020, 13753.00
578.4740, 13676.00
579.6460, 13797.00
580.8180, 13743.00
581.9900, 13793.92
583.1620, 13822.42
584.3330, 13891.00
585.5040, 13851.00
586.6760, 13915.00
587.8470, 13911.00
589.0180, 13812.00
590.1880, 14081.00
591.3590, 14227.00
592.5290, 14151.00
593.7000, 14346.00
594.8700, 14486.00
596.0400, 14590.00
597.2090, 14797.00
598.3790, 15072.00
599.5490, 15173.00
600.7180, 15448.00
601.8870, 15584.00
603.0560, 15774.00
604.2250, 16138.00
605.3940, 16542.00
606.5620, 16672.00
607.7300, 17043.00
608.8990, 17183.00
610.0670, 17386.00
611.2350, 17494.00
612.4020, 17452.00
613.5700, 18045.00
614.7370, 17852.00
615.9050, 17820.00
617.0720, 17605.00
618.2390, 17371.00
619.4060, 17298.00
620.5720, 17054.00
621.7390, 16797.00
622.9050, 16539.00
624.0710, 16284.00
625.2370, 15888.00
626.4030, 15772.00
627.5690, 15524.00
628.7340, 15310.00
629.9000, 14897.00
631.0650, 14673.00
632.2300, 14594.00
633.3950, 14437.00
634.5600, 14371.00
635.7240, 14146.00
636.8890, 14004.00
638.0530, 13787.00
639.2170, 13686.00
640.3810, 13749.00
641.5450, 13517.00
642.7080, 13459.00
643.8720, 13294.00
645.0350, 13390.00
646.1980, 13431.00
647.3610, 13248.00
648.5240, 13229.00
649.6870, 13040.00
650.8490, 13226.00
652.0120, 13104.00
653.1740, 13178.00
654.3360, 12964.00
655.4980, 12929.00
656.6600, 12957.00
657.8210, 12935.00
658.9830, 12843.00
660.1440, 12769.00
661.3050, 12699.00
662.4660, 12761.00
663.6270, 12805.00
664.7870, 12777.00
665.9480, 12757.61
667.1080, 12726.93
668.2680, 12634.00
669.4280, 12649.00
670.5880, 12586.00
671.7480, 12601.20
672.9070, 12552.00
674.0670, 12566.00
675.2260, 12425.00
676.3850, 12499.00
677.5440, 12441.00
678.7030, 12340.00
679.8610, 12405.00
681.0200, 12389.00
682.1780, 12363.98
683.3360, 12384.00
684.4940, 12310.00
685.6520, 12314.00
686.8090, 12220.00
687.9670, 12295.00
689.1240, 12212.00
690.2810, 12218.00
691.4380, 12223.00
692.5950, 12239.14
693.7520, 12313.00
694.9080, 12321.00
696.0650, 12260.00
697.2210, 12267.00
698.3770, 12154.00
699.5330, 12304.00
700.6880, 12174.00
701.8440, 12233.00
702.9990, 12354.00
704.1550, 12365.00
705.3100, 12247.00
706.4650, 12282.00
707.6190, 12239.00
708.7740, 12251.00
709.9290, 12127.00
711.0830, 12268.00
712.2370, 12164.00
713.3910, 12308.00
714.5450, 12291.00
715.6980, 12257.00
716.8520, 12220.00
718.0050, 12289.00
719.1580, 12277.00
720.3110, 12263.00
721.4640, 12188.00
722.6170, 12163.00
723.7700, 12257.00
724.9220, 12137.00
726.0740, 12195.00
727.2260, 12114.00
728.3780, 12209.00
729.5300, 12227.00
730.6810, 12372.00
731.8330, 12436.00
732.9840, 12154.00
734.1350, 12276.00
735.2860, 12180.00
736.4370, 12098.00
737.5880, 12162.00
738.7380, 12263.00
739.8880, 12182.00
741.0390, 12214.00
742.1890, 12306.00
743.3380, 12332.00
744.4880, 12394.00
745.6380, 12238.00
746.7870, 12252.00
747.9360, 12427.00
749.0850, 12532.00
750.2340, 12386.00
751.3830, 12340.00
752.5310, 12418.00
753.6800, 12526.00
754.8280, 12479.00
755.9760, 12640.00
757.1240, 12796.00
758.2720, 12721.00
759.4190, 12776.00
760.5670, 12982.00
761.7140, 12788.00
762.8610, 12946.00
764.0080, 13070.00
765.1550, 12874.00
766.3020, 13297.00
767.4480, 13142.00
768.5950, 13310.00
769.7410, 13276.00
770.8870, 13410.00
772.0330, 13298.00
773.1780, 13462.00
774.3240, 13327.00
775.4690, 13345.00
776.6140, 13399.00
777.7590, 13419.00
778.9040, 13421.00
780.0490, 13407.00
781.1940, 13366.00
782.3380, 13364.51
783.4820, 13325.00
784.6260, 13304.00
785.7700, 13237.00
786.9140, 13138.00
788.0580, 13094.16
789.2010, 13197.00
790.3450, 12987.00
791.4880, 13043.00
792.6310, 13062.00
793.7730, 12912.00
794.9160, 13113.00
796.0590, 12798.00
797.2010, 12671.00
798.3430, 12787.00
799.4850, 12676.00
800.6270, 12732.00
801.7690, 12622.00
802.9100, 12593.33
804.0520, 12550.49
805.1930, 12506.00
806.3340, 12406.00
807.4750, 12364.00
808.6160, 12312.67
809.7560, 12367.00
810.8970, 12244.00
812.0370, 12221.00
813.1770, 12222.00
814.3170, 12399.00
815.4570, 12394.00
816.5960, 12136.00
817.7360, 12324.00
818.8750, 12232.00
820.0140, 12160.00
821.1530, 12119.00
822.2920, 12090.00
823.4310, 12083.00
824.5690, 12018.59
825.7070, 11985.97
826.8460, 11922.00
827.9840, 11890.00
829.1220, 11880.00
830.2590, 11843.00
831.3970, 11648.00
832.5340, 11719.00
833.6710, 11491.00
834.8080, 11661.00
835.9450, 11621.00
837.0820, 11604.00
838.2190, 11621.00
839.3550, 11716.00
840.4910, 11622.00
841.6270, 11601.00
842.7630, 11614.00
843.8990, 11521.00
845.0350, 11520.00
846.1700, 11609.00
847.3060, 11590.00
848.4410, 11633.00
849.5760, 11454.00
850.7100, 11701.00
851.8450, 11451.00
852.9800, 11532.00
854.1140, 11531.00
855.2480, 11577.00
856.3820, 11573.00
857.5160, 11634.00
858.6500, 11566.00
859.7830, 11466.00
860.9170, 11638.00
862.0500, 11597.00
863.1830, 11713.00
864.3160, 11572.00
865.4480, 11546.00
866.5810, 11491.00
867.7130, 11628.00
868.8460, 11345.00
869.9780, 11605.00
871.1100, 11483.00
872.2410, 11567.00
873.3730, 11517.00
874.5050, 11539.00
875.6360, 11444.00
876.7670, 11367.00
877.8980, 11482.00
879.0290, 11442.00
880.1590, 11540.00
881.2900, 11548.00
882.4200, 11585.00
883.5500, 11486.00
884.6800, 11461.00
885.8100, 11564.00
886.9400, 11647.00
888.0690, 11545.00
889.1990, 11485.00
890.3280, 11534.00
891.4570, 11461.23
892.5860, 11534.00
893.7140, 11453.00
894.8430, 11467.00
895.9710, 11534.00
897.1000, 11521.00
898.2280, 11538.00
899.3560, 11537.00
900.4830, 11530.00
901.6110, 11529.54
902.7380, 11521.90
903.8660, 11517.00
904.9930, 11535.00
906.1200, 11541.00
907.2460, 11608.00
908.3730, 11496.00
909.5000, 11602.00
910.6260, 11515.00
911.7520, 11508.00
912.8780, 11483.00
914.0040, 11569.00
915.1290, 11639.00
916.2550, 11639.00
917.3800, 11636.00
918.5050, 11677.00
919.6300, 11650.35
920.7550, 11644.00
921.8800, 11653.00
923.0040, 11692.00
924.1290, 11765.00
925.2530, 11578.00
926.3770, 11811.00
927.5010, 11609.00
928.6250, 11729.00
929.7480, 11735.00
930.8720, 11667.00
931.9950, 11711.00
933.1180, 11660.00
934.2410, 11740.00
935.3640, 11755.00
936.4860, 11717.00
937.6090, 11678.00
938.7310, 11825.00
939.8530, 11764.00
940.9750, 11840.00
942.0970, 11860.00
943.2180, 11957.00
944.3400, 11865.00
945.4610, 11959.00
946.5820, 11802.00
947.7030, 11866.00
948.8240, 12032.00
949.9450, 11873.00
951.0650, 11905.00
952.1860, 12051.00
953.3060, 12079.00
954.4260, 12031.00
955.5460, 12100.00
956.6650, 12116.00
957.7850, 12074.00
958.9040, 11985.00
960.0230, 12189.00
961.1420, 12227.00
962.2610, 12162.00
963.3800, 12180.00
964.4990, 12145.00
965.6170, 12191.00
966.7350, 12250.00
967.8530, 12178.00
968.9710, 12340.00
970.0890, 12300.00
971.2070, 12379.00
972.3240, 12530.00
973.4410, 12450.00
974.5580, 12374.00
975.6750, 12443.00
976.7920, 12343.00
977.9090, 12608.00
979.0250, 12533.00
980.1410, 12564.00
981.2580, 12465.00
982.3740, 12649.00
983.4890, 12681.00
984.6050, 12581.00
985.7200, 12827.00
986.8360, 12787.00
987.9510, 12916.00
989.0660, 12926.00
990.1810, 12953.00
991.2950, 12843.00
992.4100, 13112.00
993.5240, 13007.00
994.6390, 13161.00
995.7530, 13179.00
996.8660, 13155.00
997.9800, 13217.00
999.0940, 13199.00
1000.207, 13360.00
1001.320, 13375.00
1002.433, 13420.00
1003.546, 13429.00
1004.659, 13415.00
1005.772, 13655.00
1006.884, 13603.00
1007.996, 13624.00
1009.108, 13574.00
1010.220, 13738.00
1011.332, 13869.00
1012.444, 13716.00
1013.555, 13881.00
1014.666, 13948.00
1015.777, 13965.00
1016.888, 14062.00
1017.999, 13995.00
1019.110, 14098.00
1020.220, 14091.00
1021.331, 14108.00
1022.441, 14072.00
1023.551, 14105.00
1024.661, 14150.00
1025.770, 14153.64
1026.880, 14198.17
1027.989, 14207.65
1029.098, 14243.84
1030.207, 14270.00
1031.316, 14248.00
1032.425, 14225.00
1033.533, 14209.67
1034.642, 14168.33
1035.750, 14169.00
1036.858, 14103.00
1037.966, 14125.00
1039.073, 14134.00
1040.181, 14094.00
1041.288, 14044.00
1042.396, 14210.00
1043.503, 14203.00
1044.610, 14196.00
1045.716, 14118.00
1046.823, 14064.00
1047.929, 14069.50
1049.036, 14035.19
1050.142, 14091.00
1051.248, 14030.00
1052.353, 14076.00
1053.459, 14074.00
1054.564, 14151.00
1055.670, 13954.00
1056.775, 14043.00
1057.880, 13974.00
1058.985, 13921.00
1060.089, 13978.00
1061.194, 13899.00
1062.298, 13739.00
1063.402, 13935.00
1064.506, 13806.00
1065.610, 13839.90
1066.713, 13966.00
1067.817, 13891.00
1068.920, 13838.00
1070.023, 13917.00
1071.126, 14089.00
1072.229, 13974.00
1073.332, 13990.00
1074.435, 14054.00
1075.537, 14031.00
1076.639, 13958.00
1077.741, 14071.00
1078.843, 14264.00
1079.945, 14216.00
1081.046, 14343.00
1082.148, 14404.00
1083.249, 14429.00
1084.350, 14432.00
1085.451, 14522.00
1086.551, 14719.00
1087.652, 14633.00
1088.752, 14833.00
1089.853, 14823.00
1090.953, 15006.00
1092.053, 15258.00
1093.152, 15270.00
1094.252, 15416.06
1095.351, 15455.00
1096.451, 15505.00
1097.550, 15613.02
1098.649, 15808.00
1099.748, 15837.00
1100.846, 15935.00
1101.945, 16163.00
1103.043, 16161.00
1104.141, 16118.00
1105.239, 16455.00
1106.337, 16506.00
1107.434, 16367.00
1108.532, 16676.00
1109.629, 16706.00
1110.726, 16738.00
1111.823, 16752.00
1112.920, 16702.00
1114.017, 16877.00
1115.113, 16963.00
1116.210, 16909.00
1117.306, 17110.00
1118.402, 17294.00
1119.498, 17142.00
1120.593, 17335.00
1121.689, 17296.00
1122.784, 17227.00
1123.879, 17427.00
1124.974, 17297.00
1126.069, 17464.00
1127.164, 17337.00
1128.259, 17431.00
1129.353, 17243.00
1130.447, 17255.00
1131.541, 17469.00
1132.635, 17508.00
1133.729, 17439.00
1134.822, 17457.00
1135.916, 17493.00
1137.009, 17554.00
1138.102, 17533.00
1139.195, 17577.00
1140.288, 17624.00
1141.380, 17718.00
1142.473, 17697.00
1143.565, 17658.00
1144.657, 17787.00
1145.749, 17790.00
1146.841, 17813.00
1147.932, 17584.00
1149.024, 17882.00
1150.115, 17637.00
1151.206, 18208.00
1152.297, 17791.00
1153.388, 17832.00
1154.479, 17829.00
1155.569, 17854.00
1156.659, 17837.56
1157.750, 17843.00
1158.839, 17774.30
1159.929, 17725.22
1161.019, 17652.00
1162.108, 17568.00
1163.198, 17460.00
1164.287, 17326.00
1165.376, 17292.00
1166.465, 17205.00
1167.553, 17222.00
1168.642, 17002.00
1169.730, 17087.00
1170.818, 16990.00
1171.906, 16695.00
1172.994, 16788.00
1174.082, 16720.00
1175.170, 16506.00
1176.257, 16564.00
1177.344, 16319.00
1178.431, 16328.00
1179.518, 16254.49
1180.605, 16292.00
1181.691, 16119.00
1182.778, 15859.00
1183.864, 15736.00
1184.950, 15744.00
1186.036, 15523.00
1187.122, 15485.00
1188.207, 15234.00
1189.292, 15298.00
1190.378, 15104.00
1191.463, 14985.00
1192.548, 14911.00
1193.632, 14740.00
1194.717, 14682.95
1195.801, 14692.00
1196.886, 14498.00
1197.970, 14409.00
1199.054, 14244.00
1200.137, 14141.00
1201.221, 14032.00
1202.305, 13886.00
1203.388, 13904.00
1204.471, 13673.00
1205.554, 13728.00
1206.637, 13713.00
1207.719, 13667.00
1208.802, 13522.00
1209.884, 13497.00
1210.966, 13221.00
1212.048, 13257.00
1213.130, 13223.00
1214.212, 13229.00
1215.293, 13036.00
1216.374, 13170.00
1217.456, 12992.00
1218.536, 12998.00
1219.617, 13138.00
1220.698, 12867.00
1221.778, 12958.00
1222.859, 12999.00
1223.939, 12866.00
1225.019, 12925.00
1226.099, 12814.00
1227.178, 12782.00
1228.258, 12755.00
1229.337, 12847.00
1230.417, 12922.00
1231.496, 12807.00
1232.574, 12705.00
1233.653, 12694.00
1234.732, 12722.00
1235.810, 12694.00
1236.888, 12762.00
1237.966, 12742.00
1239.044, 12612.00
1240.122, 12679.00
1241.199, 12513.00
1242.277, 12719.00
1243.354, 12671.00
1244.431, 12533.00
1245.508, 12509.00
1246.585, 12642.00
1247.661, 12719.00
1248.738, 12590.00
1249.814, 12647.00
1250.890, 12667.00
1251.966, 12598.00
1253.042, 12643.00
1254.117, 12645.00
1255.193, 12656.00
1256.268, 12598.00
1257.343, 12561.00
1258.418, 12448.00
1259.493, 12524.00
1260.567, 12658.00
1261.642, 12580.00
1262.716, 12793.00
1263.790, 12713.87
1264.864, 12546.00
1265.938, 12669.00
1267.011, 12598.00
1268.085, 12658.00
1269.158, 12453.00
1270.231, 12576.00
1271.304, 12693.00
1272.377, 12563.00
1273.450, 12717.00
1274.522, 12628.00
1275.594, 12557.00
1276.666, 12554.00
1277.738, 12676.00
1278.810, 12685.00
1279.882, 12669.00
1280.953, 12532.00
1282.025, 12614.27
1283.096, 12625.00
1284.167, 12669.00
1285.238, 12694.04
1286.308, 12518.00
1287.379, 12695.00
1288.449, 12581.00
1289.519, 12507.00
1290.589, 12651.00
1291.659, 12672.00
1292.729, 12727.00
1293.798, 12672.00
1294.868, 12556.00
1295.937, 12649.00
1297.006, 12767.00
1298.075, 12606.00
1299.143, 12680.00
1300.212, 12668.00
1301.280, 12599.00
1302.348, 12692.00
1303.416, 12634.00
1304.484, 12765.00
1305.552, 12846.00
1306.620, 12618.00
1307.687, 12676.00
1308.754, 12592.00
1309.821, 12685.00
1310.888, 12609.00
1311.955, 12686.00
1313.021, 12641.00
1314.088, 12709.00
1315.154, 12673.00
1316.220, 12706.00
1317.286, 12766.00
1318.352, 12734.00
1319.417, 12682.00
1320.483, 12780.00
1321.548, 12780.00
1322.613, 12640.00
1323.678, 12703.00
1324.743, 12746.00
1325.807, 12719.00
1326.872, 12678.00
1327.936, 12641.00
1329.000, 12691.00
1330.064, 12652.00
1331.128, 12729.00
1332.191, 12589.00
1333.255, 12946.00
1334.318, 12801.54
1335.381, 12953.00
1336.444, 12693.00
1337.507, 12843.00
1338.569, 12715.00
1339.632, 12678.00
1340.694, 12672.00
1341.756, 12701.00
1342.818, 12708.40
1343.880, 12736.65
1344.941, 12764.00
1346.003, 12783.00
1347.064, 12790.00
1348.125, 12774.00
1349.186, 12976.00
1350.247, 12881.44
1351.308, 12865.00
1352.368, 12738.00
1353.428, 12896.00
1354.489, 12668.00
1355.549, 13035.00
1356.608, 12900.00
1357.668, 12970.00
1358.727, 12866.00
1359.787, 12849.00
1360.846, 12855.00
1361.905, 12802.00
1362.964, 12835.00
1364.022, 12663.00
1365.081, 12879.00
1366.139, 12811.00
1367.197, 12731.00
1368.255, 12938.00
1369.313, 12840.00
1370.371, 12808.00
1371.428, 12775.00
1372.486, 12679.00
1373.543, 12737.32
1374.600, 12900.00
1375.657, 12810.00
1376.713, 12821.00
1377.770, 12812.00
1378.826, 12833.00
1379.882, 12836.00
1380.938, 12956.00
1381.994, 12878.00
1383.050, 12882.00
1384.106, 12701.00
1385.161, 12935.00
1386.216, 13043.00
1387.271, 12899.00
1388.326, 12839.00
1389.381, 12863.00
1390.435, 12885.00
1391.490, 12873.61
1392.544, 12861.00
1393.598, 12910.00
1394.652, 12918.00
1395.705, 12965.00
1396.759, 12962.00
1397.812, 13025.00
1398.866, 13104.00
1399.919, 12925.00
1400.972, 12978.00
1402.024, 13051.00
1403.077, 12910.00
1404.129, 12861.00
1405.181, 12957.00
1406.233, 12886.00
1407.285, 12818.00
1408.337, 12965.00
1409.389, 13079.00
1410.440, 12916.00
1411.491, 13149.00
1412.542, 12982.00
1413.593, 13058.00
1414.644, 13178.00
1415.695, 12923.00
1416.745, 12996.00
1417.795, 12919.00
1418.845, 12930.00
1419.895, 12975.00
1420.945, 13099.00
1421.995, 13080.00
1423.044, 13139.00
1424.093, 13076.00
1425.142, 13090.00
1426.191, 13184.00
1427.240, 13152.00
1428.289, 13166.00
1429.337, 13125.00
1430.385, 13240.00
1431.433, 13047.00
1432.481, 13104.00
1433.529, 13212.00
1434.577, 13061.00
1435.624, 13132.00
1436.672, 13100.00
1437.719, 13200.00
1438.766, 13140.00
1439.812, 13273.00
1440.859, 13235.00
1441.905, 13351.00
1442.952, 13282.00
1443.998, 13114.00
1445.044, 13162.00
1446.090, 13144.65
1447.135, 13239.00
1448.181, 13296.00
1449.226, 13281.00
1450.271, 13467.00
1451.316, 13386.00
1452.361, 13418.00
1453.405, 13302.00
1454.450, 13258.00
1455.494, 13244.00
1456.538, 13385.00
1457.582, 13288.00
1458.626, 13356.00
1459.670, 13385.00
1460.713, 13299.00
1461.757, 13486.00
1462.800, 13424.00
1463.843, 13301.00
1464.886, 13276.00
1465.928, 13376.00
1466.971, 13457.00
1468.013, 13431.00
1469.055, 13390.00
1470.097, 13326.00
1471.139, 13377.00
1472.181, 13352.00
1473.222, 13473.00
1474.263, 13446.00
1475.305, 13438.00
1476.346, 13344.00
1477.386, 13426.00
1478.427, 13395.00
1479.468, 13408.00
1480.508, 13401.00
1481.548, 13401.82
1482.588, 13408.00
1483.628, 13405.00
1484.668, 13396.00
1485.707, 13375.00
1486.747, 13374.59
1487.786, 13503.00
1488.825, 13394.00
1489.864, 13425.00
1490.902, 13504.00
1491.941, 13303.00
1492.979, 13306.00
1494.017, 13497.00
1495.055, 13553.00
1496.093, 13506.00
1497.131, 13417.00
1498.168, 13369.00
1499.206, 13382.09
1500.243, 13539.00
1501.280, 13478.00
1502.317, 13530.00
1503.354, 13669.00
1504.390, 13589.00
1505.426, 13538.00
1506.463, 13439.00
1507.499, 13431.00
1508.535, 13572.00
1509.570, 13460.00
1510.606, 13697.00
1511.641, 13535.00
1512.676, 13638.00
1513.711, 13593.00
1514.746, 13586.00
1515.781, 13514.00
1516.816, 13736.00
1517.850, 13620.00
1518.884, 13587.00
1519.918, 13706.00
1520.952, 13628.00
1521.986, 13604.00
1523.019, 13760.00
1524.053, 13710.00
1525.086, 13714.00
1526.119, 13761.00
1527.152, 13778.00
1528.185, 13823.00
1529.217, 13785.00
1530.250, 13809.00
1531.282, 13828.00
1532.314, 13752.00
1533.346, 13764.00
1534.377, 13903.00
1535.409, 13876.00
1536.440, 13806.00
1537.472, 13838.00
1538.503, 13780.00
1539.534, 13850.00
1540.564, 13829.00
1541.595, 13915.00
1542.625, 13882.00
1543.656, 13838.00
1544.686, 13916.00
1545.716, 13911.00
1546.745, 13829.00
1547.775, 13970.00
1548.804, 13906.00
1549.834, 14031.00
1550.863, 14132.00
1551.892, 14120.00
1552.920, 14064.00
1553.949, 14259.00
1554.977, 14278.00
1556.006, 14070.00
1557.034, 14029.00
1558.062, 14167.00
1559.089, 13971.00
1560.117, 13991.00
1561.144, 14113.00
1562.172, 14067.00
1563.199, 14074.00
1564.226, 14203.00
1565.252, 14135.00
1566.279, 14081.00
1567.305, 14192.00
1568.332, 14273.00
1569.358, 14168.00
1570.384, 14204.00
1571.409, 14194.00
1572.435, 14306.00
##END=



