##NAMES=Clinochlore
##RRUFFID=R060725
##IDEAL CHEMISTRY=Mg_5_Al(AlSi_3_O_10_)(OH)_8_
##LOCALITY=Crestmore Quarry, Riverside, California, USA
##OWNER=RRUFF
##SOURCE=Bob Jenkins
##DESCRIPTION=Green transparent books of mica
##STATUS=The identification of this mineral has been confirmed by X-ray diffraction and chemical analysis
##URL=rruff.info/R060725
##MEASURED CHEMISTRY=(Mg_4.65_Al_1.12_Fe^2+^_0.17_[box]_0.06_)_Σ=6_(Si_3.00_Al_1.00_)_Σ=4_O_10_(OH)_8_
##PIN_ID=L01861
154.8690, 6766.000
156.0980, 6840.000
157.3280, 6704.000
158.5580, 6794.000
159.7870, 6815.000
161.0170, 6791.000
162.2460, 6835.000
163.4750, 6856.000
164.7030, 6823.000
165.9320, 6752.000
167.1600, 6845.000
168.3890, 6858.000
169.6170, 6749.000
170.8450, 6987.000
172.0730, 6910.000
173.3000, 6874.000
174.5280, 6878.000
175.7550, 6934.000
176.9820, 6953.000
178.2090, 7006.000
179.4350, 6877.000
180.6620, 6893.000
181.8880, 6899.000
183.1150, 6922.000
184.3410, 6919.000
185.5670, 7061.000
186.7920, 6979.000
188.0180, 6997.000
189.2430, 7057.000
190.4690, 6998.000
191.6940, 7172.000
192.9180, 7201.000
194.1430, 7096.000
195.3680, 7144.000
196.5920, 7388.000
197.8160, 7381.000
199.0400, 7524.000
200.2640, 7674.000
201.4880, 7814.000
202.7110, 7873.000
203.9350, 8100.000
205.1580, 8074.000
206.3810, 8092.000
207.6040, 7948.000
208.8270, 8007.000
210.0490, 7673.000
211.2710, 7578.000
212.4940, 7534.000
213.7160, 7448.000
214.9370, 7425.000
216.1590, 7385.011
217.3810, 7380.000
218.6020, 7349.000
219.8230, 7285.000
221.0440, 7293.000
222.2650, 7345.000
223.4860, 7378.000
224.7060, 7316.000
225.9260, 7317.000
227.1470, 7253.000
228.3670, 7250.000
229.5860, 7256.070
230.8060, 7202.000
232.0260, 7297.000
233.2450, 7393.000
234.4640, 7440.000
235.6830, 7289.000
236.9020, 7469.000
238.1200, 7451.000
239.3390, 7315.000
240.5570, 7364.000
241.7750, 7448.000
242.9930, 7414.000
244.2110, 7408.000
245.4290, 7438.000
246.6460, 7440.000
247.8630, 7402.000
249.0810, 7480.000
250.2980, 7477.000
251.5140, 7544.000
252.7310, 7627.000
253.9470, 7622.000
255.1640, 7540.000
256.3800, 7559.000
257.5960, 7566.000
258.8120, 7562.365
260.0270, 7647.000
261.2430, 7612.000
262.4580, 7602.000
263.6730, 7633.000
264.8880, 7601.000
266.1030, 7761.000
267.3170, 7741.000
268.5320, 7793.000
269.7460, 7684.000
270.9600, 7818.000
272.1740, 7828.000
273.3880, 8011.000
274.6010, 7943.000
275.8150, 7936.000
277.0280, 7978.000
278.2410, 8106.000
279.4540, 8050.000
280.6670, 8172.000
281.8790, 8074.000
283.0920, 8110.000
284.3040, 8100.000
285.5160, 8032.000
286.7280, 8089.000
287.9400, 7988.000
289.1510, 7976.000
290.3630, 7985.000
291.5740, 7960.102
292.7850, 7981.440
293.9960, 7978.000
295.2070, 8018.000
296.4170, 8021.000
297.6280, 8042.000
298.8380, 8082.000
300.0480, 8012.000
301.2580, 7985.000
302.4680, 8033.000
303.6770, 8144.000
304.8870, 8163.000
306.0960, 8099.000
307.3050, 8126.000
308.5140, 8077.000
309.7230, 8085.000
310.9310, 8076.000
312.1400, 8131.000
313.3480, 8164.000
314.5560, 8214.000
315.7640, 8213.000
316.9720, 8219.000
318.1790, 8148.000
319.3870, 8292.000
320.5940, 8264.000
321.8010, 8267.000
323.0080, 8426.000
324.2150, 8339.000
325.4210, 8454.000
326.6280, 8513.000
327.8340, 8502.000
329.0400, 8528.000
330.2460, 8535.193
331.4510, 8534.000
332.6570, 8520.000
333.8620, 8609.000
335.0680, 8577.000
336.2730, 8551.000
337.4780, 8723.000
338.6820, 8664.000
339.8870, 8858.000
341.0910, 8869.000
342.2950, 8919.000
343.5000, 9015.000
344.7030, 9181.000
345.9070, 9298.000
347.1110, 9448.000
348.3140, 9551.000
349.5170, 9943.000
350.7200, 10048.00
351.9230, 10344.00
353.1260, 10599.00
354.3290, 10821.00
355.5310, 10798.00
356.7330, 10830.00
357.9350, 10817.00
359.1370, 10702.00
360.3390, 10270.00
361.5400, 10127.00
362.7420, 10037.00
363.9430, 9638.000
365.1440, 9485.000
366.3450, 9445.000
367.5460, 9236.000
368.7460, 9264.000
369.9470, 9212.000
371.1470, 8969.000
372.3470, 8994.000
373.5470, 8953.000
374.7460, 8880.000
375.9460, 8987.000
377.1450, 8920.000
378.3450, 9001.000
379.5440, 8922.000
380.7430, 8953.000
381.9410, 8900.000
383.1400, 8950.000
384.3380, 8930.000
385.5370, 8941.011
386.7350, 9025.000
387.9320, 8961.000
389.1300, 9007.000
390.3280, 9000.315
391.5250, 9013.695
392.7220, 9033.000
393.9190, 9078.000
395.1160, 9049.000
396.3130, 9101.000
397.5100, 8914.000
398.7060, 9050.000
399.9020, 8929.000
401.0980, 8988.000
402.2940, 8921.000
403.4900, 8953.000
404.6860, 8927.000
405.8810, 8963.000
407.0760, 9142.000
408.2710, 8981.000
409.4660, 9094.000
410.6610, 9031.000
411.8550, 9137.000
413.0500, 9156.000
414.2440, 9202.000
415.4380, 9212.532
416.6320, 9201.000
417.8260, 9209.000
419.0190, 9193.000
420.2130, 9224.000
421.4060, 9342.000
422.5990, 9299.000
423.7920, 9234.000
424.9850, 9407.000
426.1770, 9484.000
427.3700, 9380.000
428.5620, 9375.000
429.7540, 9685.000
430.9460, 9450.000
432.1380, 9588.000
433.3290, 9440.000
434.5210, 9578.000
435.7120, 9479.000
436.9030, 9521.000
438.0940, 9486.000
439.2850, 9440.000
440.4750, 9572.000
441.6660, 9465.000
442.8560, 9574.000
444.0460, 9487.000
445.2360, 9524.000
446.4260, 9383.000
447.6160, 9488.000
448.8050, 9611.000
449.9940, 9459.000
451.1830, 9442.000
452.3720, 9514.000
453.5610, 9424.000
454.7500, 9513.000
455.9380, 9566.000
457.1260, 9623.000
458.3150, 9619.840
459.5020, 9583.000
460.6900, 9591.000
461.8780, 9584.000
463.0650, 9598.000
464.2530, 9595.000
465.4400, 9532.000
466.6270, 9490.000
467.8130, 9660.000
469.0000, 9768.000
470.1870, 9690.000
471.3730, 9593.000
472.5590, 9522.000
473.7450, 9565.000
474.9310, 9535.000
476.1160, 9539.000
477.3020, 9591.000
478.4870, 9490.000
479.6720, 9388.000
480.8570, 9519.000
482.0420, 9503.000
483.2270, 9478.000
484.4110, 9497.000
485.5960, 9534.000
486.7800, 9566.000
487.9640, 9461.000
489.1480, 9454.000
490.3310, 9580.000
491.5150, 9449.000
492.6980, 9687.000
493.8810, 9552.000
495.0640, 9641.000
496.2470, 9662.000
497.4300, 9613.000
498.6120, 9763.000
499.7950, 9685.000
500.9770, 9692.000
502.1590, 9897.000
503.3410, 9713.000
504.5220, 9764.000
505.7040, 9797.000
506.8850, 9883.000
508.0660, 9823.000
509.2470, 9981.000
510.4280, 9867.000
511.6090, 9971.000
512.7890, 9888.000
513.9700, 9989.000
515.1500, 9899.000
516.3300, 9950.000
517.5100, 10133.00
518.6900, 10104.00
519.8690, 10160.00
521.0490, 10227.00
522.2280, 10427.00
523.4070, 10248.00
524.5860, 10352.00
525.7640, 10449.00
526.9430, 10253.00
528.1210, 10409.00
529.3000, 10494.00
530.4780, 10635.00
531.6560, 10578.00
532.8330, 10581.00
534.0110, 10750.00
535.1880, 10824.00
536.3650, 10857.00
537.5430, 10843.00
538.7190, 10894.00
539.8960, 11117.00
541.0730, 11141.00
542.2490, 11259.00
543.4250, 11352.00
544.6020, 11817.00
545.7780, 11983.00
546.9530, 12349.00
548.1290, 12723.00
549.3040, 12886.00
550.4800, 13257.00
551.6550, 13178.00
552.8300, 13023.00
554.0040, 12582.00
555.1790, 12355.00
556.3540, 11899.00
557.5280, 11491.00
558.7020, 11251.00
559.8760, 10996.00
561.0500, 10879.00
562.2230, 10631.00
563.3970, 10630.00
564.5700, 10436.00
565.7430, 10505.00
566.9160, 10411.00
568.0890, 10526.00
569.2620, 10438.00
570.4340, 10494.00
571.6070, 10421.00
572.7790, 10308.00
573.9510, 10379.00
575.1230, 10239.00
576.2940, 10296.00
577.4660, 10302.00
578.6370, 10148.00
579.8080, 10269.00
580.9790, 10339.00
582.1500, 10262.00
583.3210, 10273.00
584.4910, 10207.00
585.6620, 10188.00
586.8320, 10290.00
588.0020, 10271.00
589.1720, 10265.00
590.3410, 10177.00
591.5110, 10167.00
592.6800, 10271.00
593.8500, 10289.00
595.0190, 10396.00
596.1880, 10319.00
597.3560, 10343.00
598.5250, 10393.00
599.6930, 10389.00
600.8620, 10413.79
602.0300, 10288.00
603.1970, 10419.00
604.3650, 10409.00
605.5330, 10377.00
606.7000, 10226.00
607.8680, 10283.00
609.0350, 10352.00
610.2020, 10511.00
611.3680, 10482.00
612.5350, 10535.00
613.7010, 10591.00
614.8680, 10463.00
616.0340, 10423.00
617.2000, 10468.00
618.3660, 10595.00
619.5310, 10483.00
620.6970, 10476.00
621.8620, 10550.00
623.0270, 10531.00
624.1920, 10456.00
625.3570, 10662.00
626.5220, 10651.00
627.6860, 10628.00
628.8500, 10592.00
630.0140, 10685.00
631.1780, 10781.00
632.3420, 10486.00
633.5060, 10669.00
634.6700, 10643.00
635.8330, 10815.00
636.9960, 10721.00
638.1590, 10799.00
639.3220, 10862.00
640.4850, 10812.00
641.6470, 10731.00
642.8100, 10927.00
643.9720, 10843.00
645.1340, 10782.00
646.2960, 10974.00
647.4570, 11000.00
648.6190, 10998.00
649.7800, 11001.00
650.9420, 11117.00
652.1030, 11227.00
653.2640, 11128.00
654.4240, 11407.00
655.5850, 11324.00
656.7450, 11459.00
657.9060, 11498.00
659.0660, 11566.00
660.2260, 11663.00
661.3850, 11736.66
662.5450, 11885.00
663.7040, 11915.00
664.8640, 12174.00
666.0230, 12253.00
667.1820, 12462.00
668.3410, 12434.00
669.4990, 12682.00
670.6580, 12716.00
671.8160, 13011.00
672.9740, 13162.00
674.1320, 13220.00
675.2900, 13503.00
676.4480, 13515.00
677.6050, 13761.00
678.7630, 13743.00
679.9200, 13872.00
681.0770, 13869.00
682.2340, 13768.00
683.3900, 13881.00
684.5470, 13828.00
685.7030, 13717.00
686.8590, 13627.00
688.0150, 13514.78
689.1710, 13355.00
690.3270, 13246.00
691.4830, 13112.00
692.6380, 12932.00
693.7930, 13017.00
694.9480, 12666.00
696.1030, 12665.00
697.2580, 12475.00
698.4130, 12324.00
699.5670, 12347.00
700.7210, 12261.00
701.8750, 12035.00
703.0290, 12009.00
704.1830, 12054.00
705.3370, 12090.00
706.4900, 12065.00
707.6430, 12018.96
708.7970, 11929.00
709.9490, 11860.00
711.1020, 11834.00
712.2550, 11770.00
713.4070, 11787.00
714.5600, 11683.00
715.7120, 11686.00
716.8640, 11677.00
718.0160, 11576.00
719.1670, 11703.00
720.3190, 11663.00
721.4700, 11600.00
722.6210, 11674.00
723.7720, 11730.00
724.9230, 11529.00
726.0740, 11494.00
727.2250, 11523.00
728.3750, 11478.00
729.5250, 11595.00
730.6750, 11498.00
731.8250, 11574.00
732.9750, 11407.00
734.1240, 11558.00
735.2740, 11525.00
736.4230, 11574.00
737.5720, 11489.00
738.7210, 11652.00
739.8700, 11449.00
741.0190, 11560.00
742.1670, 11457.00
743.3150, 11544.00
744.4630, 11577.00
745.6110, 11642.00
746.7590, 11701.00
747.9070, 11626.00
749.0540, 11671.00
750.2020, 11544.00
751.3490, 11610.00
752.4960, 11569.00
753.6430, 11753.00
754.7890, 11648.00
755.9360, 11621.00
757.0820, 11607.00
758.2280, 11560.00
759.3740, 11602.00
760.5200, 11535.00
761.6660, 11596.00
762.8120, 11620.00
763.9570, 11614.45
765.1020, 11664.00
766.2470, 11628.00
767.3920, 11642.78
768.5370, 11736.00
769.6810, 11640.00
770.8260, 11707.00
771.9700, 11718.00
773.1140, 11720.00
774.2580, 11738.00
775.4020, 11764.00
776.5460, 11787.00
777.6890, 11836.00
778.8320, 11771.00
779.9750, 11675.00
781.1180, 11720.63
782.2610, 11868.00
783.4040, 11765.00
784.5460, 11862.00
785.6890, 11943.00
786.8310, 11892.00
787.9730, 11838.00
789.1150, 11703.00
790.2560, 11761.00
791.3980, 11700.00
792.5390, 11830.00
793.6810, 11846.00
794.8220, 11842.00
795.9630, 11890.36
797.1030, 11832.00
798.2440, 11892.00
799.3840, 11886.00
800.5240, 11859.00
801.6650, 11985.00
802.8040, 11810.00
803.9440, 11909.00
805.0840, 12089.00
806.2230, 11919.00
807.3630, 12083.00
808.5020, 11870.00
809.6410, 11962.00
810.7790, 11973.00
811.9180, 12048.00
813.0570, 11914.00
814.1950, 11987.00
815.3330, 11839.00
816.4710, 12021.00
817.6090, 12047.00
818.7470, 11953.00
819.8840, 12000.00
821.0220, 12041.00
822.1590, 11984.00
823.2960, 12042.00
824.4330, 12068.00
825.5690, 11949.00
826.7060, 12115.00
827.8420, 12105.00
828.9790, 12102.00
830.1150, 11976.00
831.2510, 12060.00
832.3860, 11980.00
833.5220, 12106.00
834.6570, 12262.00
835.7930, 12296.00
836.9280, 12300.49
838.0630, 12274.95
839.1980, 12188.00
840.3320, 12135.00
841.4670, 12136.64
842.6010, 12044.00
843.7350, 12155.00
844.8690, 12180.00
846.0030, 12209.00
847.1370, 12206.00
848.2700, 12117.00
849.4040, 12213.00
850.5370, 12415.00
851.6700, 12321.00
852.8030, 12166.00
853.9360, 12501.00
855.0680, 12375.00
856.2000, 12481.00
857.3330, 12365.00
858.4650, 12373.00
859.5970, 12406.00
860.7290, 12430.00
861.8600, 12494.00
862.9920, 12398.00
864.1230, 12403.00
865.2540, 12615.00
866.3850, 12482.00
867.5160, 12324.00
868.6460, 12523.00
869.7770, 12634.00
870.9070, 12529.00
872.0370, 12612.00
873.1670, 12592.41
874.2970, 12482.00
875.4270, 12572.00
876.5570, 12477.00
877.6860, 12464.00
878.8150, 12445.00
879.9440, 12495.00
881.0730, 12448.00
882.2020, 12459.00
883.3300, 12415.00
884.4590, 12516.00
885.5870, 12416.00
886.7150, 12541.00
887.8430, 12445.00
888.9710, 12641.00
890.0990, 12592.00
891.2260, 12509.00
892.3530, 12596.00
893.4810, 12518.00
894.6080, 12573.00
895.7340, 12579.00
896.8610, 12493.00
897.9880, 12573.00
899.1140, 12457.00
900.2400, 12509.00
901.3660, 12578.00
902.4920, 12671.00
903.6180, 12525.00
904.7430, 12660.00
905.8690, 12726.00
906.9940, 12626.00
908.1190, 12746.00
909.2440, 12585.00
910.3690, 12746.00
911.4930, 12745.00
912.6180, 12773.00
913.7420, 12873.00
914.8660, 12885.00
915.9900, 12811.00
917.1140, 12848.00
918.2380, 12740.00
919.3610, 12768.00
920.4850, 12818.63
921.6080, 12820.00
922.7310, 12939.00
923.8540, 12946.00
924.9760, 12947.00
926.0990, 12873.00
927.2210, 12887.00
928.3440, 12906.00
929.4660, 12984.00
930.5880, 12887.00
931.7090, 13002.00
932.8310, 13047.00
933.9520, 12911.00
935.0740, 13001.00
936.1950, 12898.00
937.3160, 12888.00
938.4360, 12999.00
939.5570, 12950.00
940.6780, 12989.02
941.7980, 13087.00
942.9180, 13011.00
944.0380, 12964.00
945.1580, 12969.86
946.2780, 12998.00
947.3970, 13103.00
948.5170, 13082.00
949.6360, 13237.00
950.7550, 13118.00
951.8740, 13030.00
952.9930, 13152.00
954.1110, 13206.00
955.2300, 13075.00
956.3480, 13298.00
957.4660, 13187.00
958.5840, 13196.00
959.7020, 13299.00
960.8190, 13230.00
961.9370, 13365.00
963.0540, 13400.00
964.1710, 13321.00
965.2880, 13193.00
966.4050, 13224.00
967.5220, 13353.00
968.6380, 13251.00
969.7550, 13314.00
970.8710, 13367.00
971.9870, 13367.00
973.1030, 13389.00
974.2190, 13391.00
975.3340, 13320.00
976.4500, 13512.00
977.5650, 13207.00
978.6800, 13390.00
979.7950, 13497.00
980.9100, 13345.00
982.0250, 13549.00
983.1390, 13489.00
984.2530, 13350.00
985.3680, 13439.00
986.4820, 13445.00
987.5950, 13495.00
988.7090, 13411.00
989.8230, 13347.00
990.9360, 13456.00
992.0490, 13630.00
993.1620, 13464.00
994.2750, 13559.00
995.3880, 13485.00
996.5010, 13568.00
997.6130, 13561.65
998.7250, 13617.00
999.8370, 13571.00
1000.949, 13603.00
1002.061, 13613.00
1003.173, 13631.00
1004.284, 13661.00
1005.396, 13652.00
1006.507, 13674.00
1007.618, 13681.00
1008.729, 13571.00
1009.839, 13591.00
1010.950, 13715.00
1012.060, 13605.00
1013.171, 13675.00
1014.281, 13651.00
1015.391, 13709.00
1016.500, 13669.21
1017.610, 13609.00
1018.719, 13643.00
1019.829, 13601.00
1020.938, 13715.00
1022.047, 13577.00
1023.156, 13708.00
1024.264, 13810.00
1025.373, 13783.00
1026.481, 13893.15
1027.589, 13756.00
1028.697, 13919.00
1029.805, 13914.00
1030.913, 13747.00
1032.020, 13905.00
1033.128, 13993.00
1034.235, 13883.00
1035.342, 13867.00
1036.449, 13864.00
1037.556, 13732.00
1038.663, 13876.00
1039.769, 14029.00
1040.875, 14023.00
1041.981, 13993.00
1043.087, 13988.00
1044.193, 14013.12
1045.299, 14022.52
1046.404, 14083.00
1047.510, 14096.00
1048.615, 14136.00
1049.720, 14199.31
1050.825, 14187.00
1051.930, 14256.00
1053.034, 14175.00
1054.139, 14149.00
1055.243, 14295.00
1056.347, 14122.00
1057.451, 14256.00
1058.555, 14083.00
1059.658, 14103.00
1060.762, 14175.00
1061.865, 14289.00
1062.968, 14280.86
1064.071, 14323.00
1065.174, 14262.00
1066.277, 14292.00
1067.380, 14181.00
1068.482, 14095.00
1069.584, 14182.00
1070.686, 14266.00
1071.788, 14483.00
1072.890, 14482.62
1073.992, 14298.00
1075.093, 14573.00
1076.194, 14461.00
1077.295, 14528.00
1078.396, 14567.00
1079.497, 14554.00
1080.598, 14613.00
1081.698, 14534.00
1082.799, 14721.00
1083.899, 14830.00
1084.999, 14830.00
1086.099, 14735.00
1087.199, 14864.00
1088.298, 14717.00
1089.398, 14512.00
1090.497, 14680.00
1091.596, 14478.00
1092.695, 14666.00
1093.794, 14543.00
1094.892, 14587.00
1095.991, 14368.00
1097.089, 14367.00
1098.187, 14463.00
1099.285, 14404.00
1100.383, 14504.00
1101.481, 14292.00
1102.579, 14217.00
1103.676, 14384.00
1104.773, 14501.00
1105.870, 14398.00
1106.967, 14436.00
1108.064, 14387.00
1109.161, 14433.00
1110.257, 14360.00
1111.353, 14317.00
1112.449, 14426.00
1113.545, 14404.00
1114.641, 14395.00
1115.737, 14279.00
1116.832, 14424.00
1117.928, 14371.00
1119.023, 14422.00
1120.118, 14536.00
1121.213, 14604.00
1122.308, 14481.00
1123.402, 14479.00
1124.497, 14481.00
1125.591, 14452.00
1126.685, 14595.00
1127.779, 14505.00
1128.873, 14712.00
1129.967, 14560.00
1131.060, 14704.00
1132.153, 14716.00
1133.247, 14503.00
1134.340, 14709.00
1135.433, 14583.00
1136.525, 14687.00
1137.618, 14696.00
1138.710, 14674.04
1139.802, 14708.00
1140.895, 14657.00
1141.987, 14678.00
1143.078, 14619.00
1144.170, 14537.00
1145.261, 14786.00
1146.353, 14630.00
1147.444, 14710.00
1148.535, 14867.00
1149.626, 14646.00
1150.716, 14788.00
1151.807, 14771.00
1152.897, 14803.00
1153.988, 14619.00
1155.078, 14903.00
1156.168, 14722.00
1157.257, 14815.00
1158.347, 14861.00
1159.436, 14881.00
1160.526, 14902.70
1161.615, 14889.68
1162.704, 14879.00
1163.793, 14885.00
1164.881, 14852.00
1165.970, 14947.00
1167.058, 14857.00
1168.147, 14821.00
1169.235, 14853.00
1170.323, 14927.00
1171.410, 14967.00
1172.498, 14970.00
1173.585, 15059.00
1174.673, 15113.00
1175.760, 15026.00
1176.847, 15014.00
1177.934, 15001.00
1179.020, 15008.00
1180.107, 15010.00
1181.193, 15020.38
1182.279, 15028.48
1183.365, 15021.00
1184.451, 15052.00
1185.537, 14988.00
1186.623, 14999.71
1187.708, 15031.00
1188.793, 15088.00
1189.878, 15094.00
1190.963, 15186.00
1192.048, 15171.00
1193.133, 15238.00
1194.217, 15210.00
1195.302, 15152.00
1196.386, 15171.00
1197.470, 15168.00
1198.554, 14995.00
1199.638, 15097.00
1200.721, 15168.00
1201.805, 15322.00
1202.888, 15239.00
1203.971, 15218.00
1205.054, 15211.00
1206.137, 15286.00
1207.219, 15181.00
1208.302, 15399.00
1209.384, 15256.00
1210.466, 15520.00
1211.548, 15251.00
1212.630, 15457.00
1213.712, 15418.00
1214.794, 15235.00
1215.875, 15499.00
1216.956, 15429.00
1218.037, 15342.00
1219.118, 15499.00
1220.199, 15469.00
1221.280, 15503.00
1222.360, 15473.00
1223.441, 15515.00
1224.521, 15456.00
1225.601, 15486.00
1226.681, 15514.00
1227.760, 15608.00
1228.840, 15591.00
1229.919, 15615.00
1230.999, 15541.00
1232.078, 15579.00
1233.157, 15476.00
1234.236, 15670.00
1235.314, 15599.00
1236.393, 15594.00
1237.471, 15513.00
1238.549, 15618.00
1239.627, 15591.96
1240.705, 15639.00
1241.783, 15641.00
1242.860, 15607.00
1243.938, 15627.00
1245.015, 15656.00
1246.092, 15629.95
1247.169, 15642.00
1248.246, 15633.00
1249.323, 15703.00
1250.399, 15763.00
1251.475, 15654.00
1252.552, 15759.81
1253.628, 15808.00
1254.703, 15842.00
1255.779, 15909.00
1256.855, 15932.00
1257.930, 15905.00
1259.005, 15901.00
1260.080, 15931.00
1261.155, 16047.00
1262.230, 15890.00
1263.305, 15847.00
1264.379, 15939.00
1265.454, 16086.00
1266.528, 16106.00
1267.602, 16082.81
1268.676, 16036.00
1269.750, 15924.00
1270.823, 15912.00
1271.897, 15812.00
1272.970, 15837.58
1274.043, 15834.91
1275.116, 15917.00
1276.189, 15883.00
1277.261, 15954.00
1278.334, 15970.00
1279.406, 15989.00
1280.478, 16036.00
1281.550, 16048.98
1282.622, 16080.94
1283.694, 16058.00
1284.766, 16131.00
1285.837, 16058.00
1286.908, 16067.00
1287.979, 16070.00
1289.050, 16165.00
1290.121, 16074.00
1291.192, 16190.00
1292.262, 16061.00
1293.333, 16206.00
1294.403, 16008.00
1295.473, 16278.00
1296.543, 16315.00
1297.613, 16249.00
1298.682, 16234.00
1299.752, 16233.00
1300.821, 16452.00
1301.890, 16200.00
1302.959, 16304.00
1304.028, 16474.00
1305.096, 16415.00
1306.165, 16353.00
1307.233, 16409.00
1308.301, 16350.00
1309.370, 16509.00
1310.437, 16499.00
1311.505, 16314.00
1312.573, 16575.00
1313.640, 16373.00
1314.708, 16494.00
1315.775, 16495.00
1316.842, 16445.00
1317.908, 16622.00
1318.975, 16528.00
1320.042, 16563.00
1321.108, 16428.00
1322.174, 16521.00
1323.240, 16644.00
1324.306, 16510.00
1325.372, 16613.00
1326.438, 16591.00
1327.503, 16706.00
1328.568, 16797.00
1329.634, 16622.00
1330.699, 16668.00
1331.763, 16639.00
1332.828, 16740.00
1333.893, 16631.00
1334.957, 16639.00
1336.021, 16769.00
1337.085, 16638.00
1338.149, 16800.00
1339.213, 16719.00
1340.277, 16858.00
1341.340, 16672.00
1342.404, 16740.00
1343.467, 16919.00
1344.530, 16869.00
1345.593, 16916.78
1346.655, 16672.00
1347.718, 16883.00
1348.780, 16751.00
1349.843, 16723.00
1350.905, 16703.00
1351.967, 16898.00
1353.028, 17061.00
1354.090, 16995.00
1355.152, 16887.00
1356.213, 16900.00
1357.274, 16996.00
1358.335, 16775.00
1359.396, 16937.00
1360.457, 16911.00
1361.517, 16779.00
1362.578, 16938.00
1363.638, 16981.00
1364.698, 16889.00
1365.758, 17039.00
1366.818, 17058.00
1367.878, 17058.00
1368.937, 17046.00
1369.997, 17039.00
1371.056, 17102.00
1372.115, 17093.00
1373.174, 16988.00
1374.232, 16990.00
1375.291, 17175.00
1376.350, 17043.00
1377.408, 17046.00
1378.466, 17163.00
1379.524, 17115.00
1380.582, 17308.00
1381.640, 17148.00
1382.697, 17219.00
1383.754, 17167.00
1384.812, 17233.00
1385.869, 17311.00
1386.926, 17173.00
1387.983, 17250.00
1389.039, 17268.00
1390.096, 17279.00
1391.152, 17352.00
1392.208, 17306.00
1393.264, 17341.87
1394.320, 17247.00
1395.376, 17307.00
1396.431, 17333.00
1397.487, 17209.00
1398.542, 17178.00
1399.597, 17316.00
1400.652, 17184.00
1401.707, 17333.00
1402.762, 17419.00
1403.816, 17419.00
1404.871, 17511.00
1405.925, 17361.00
1406.979, 17397.00
1408.033, 17449.00
1409.086, 17320.00
1410.140, 17351.00
1411.194, 17452.00
1412.247, 17485.00
1413.300, 17401.00
1414.353, 17434.00
1415.406, 17457.00
1416.458, 17476.00
1417.511, 17493.00
1418.563, 17533.00
1419.616, 17543.30
1420.668, 17592.00
1421.720, 17531.00
1422.772, 17638.00
1423.823, 17539.00
1424.875, 17470.00
1425.926, 17473.00
1426.977, 17468.00
1428.028, 17636.00
1429.079, 17607.00
1430.130, 17666.00
1431.180, 17617.00
1432.231, 17704.00
1433.281, 17690.00
1434.331, 17788.00
1435.381, 17808.00
1436.431, 17761.00
1437.481, 17655.00
1438.530, 17752.00
1439.580, 17785.00
1440.629, 17759.00
1441.678, 17794.00
1442.727, 18013.00
1443.776, 18002.00
1444.824, 17876.00
1445.873, 17964.00
1446.921, 17830.00
1447.969, 17866.00
1449.017, 17864.00
1450.065, 17922.00
1451.113, 18013.00
1452.160, 17820.00
1453.208, 17961.00
1454.255, 17934.00
1455.302, 18084.00
1456.349, 17899.00
1457.396, 17917.00
1458.443, 18033.00
1459.489, 18034.00
1460.535, 17930.00
1461.582, 17925.00
1462.628, 17726.00
1463.674, 17922.00
1464.719, 17890.00
1465.765, 17867.00
1466.810, 18021.00
1467.856, 18108.00
1468.901, 18029.00
1469.946, 18063.00
1470.991, 18098.00
1472.035, 18059.00
1473.080, 17911.00
1474.124, 18189.00
1475.169, 17827.00
1476.213, 18258.00
1477.257, 18139.00
1478.300, 18056.00
1479.344, 18060.00
1480.388, 18006.00
1481.431, 18318.00
1482.474, 18187.00
1483.517, 18145.00
1484.560, 18291.00
1485.603, 17992.00
1486.645, 18010.00
1487.688, 17973.00
1488.730, 18179.00
1489.772, 18148.00
1490.814, 18185.00
1491.856, 18248.00
1492.898, 18197.00
1493.939, 18291.00
1494.981, 18101.00
1496.022, 18205.00
1497.063, 18312.00
1498.104, 18213.00
1499.145, 18296.00
1500.186, 18297.00
1501.226, 18200.00
1502.266, 18336.00
1503.307, 18228.00
1504.347, 18229.00
1505.387, 18260.00
1506.426, 18352.00
1507.466, 18278.00
1508.505, 18217.00
1509.545, 18355.00
1510.584, 18378.00
1511.623, 18295.00
1512.662, 18294.00
1513.700, 18410.00
1514.739, 18219.00
1515.777, 18552.00
1516.815, 18423.00
1517.854, 18489.00
1518.892, 18358.00
1519.929, 18497.00
1520.967, 18640.00
1522.004, 18465.00
1523.042, 18449.00
1524.079, 18490.00
1525.116, 18666.00
1526.153, 18446.00
1527.190, 18659.00
1528.226, 18586.00
1529.263, 18586.00
1530.299, 18482.00
1531.335, 18680.00
1532.371, 18519.00
1533.407, 18520.00
1534.443, 18746.00
1535.478, 18562.00
1536.514, 18807.00
1537.549, 18542.00
1538.584, 18635.00
1539.619, 18630.00
1540.654, 18761.00
1541.689, 18701.00
1542.723, 18696.00
1543.757, 18759.00
1544.792, 18720.00
1545.826, 18706.00
1546.860, 18685.00
1547.893, 18693.00
1548.927, 18795.00
1549.960, 18953.00
1550.994, 18703.00
1552.027, 18727.00
1553.060, 18609.00
1554.093, 18803.00
1555.126, 18815.00
1556.158, 18820.00
1557.191, 18741.00
1558.223, 18750.00
1559.255, 18744.00
1560.287, 18788.00
1561.319, 18583.00
1562.350, 18849.00
##END=



