##NAMES=Clinohumite
##RRUFFID=R040122
##IDEAL CHEMISTRY=Mg_9_(SiO_4_)_4_F_2_
##LOCALITY=Anzahamazonono,  Madagascar
##OWNER=RRUFF
##SOURCE=University of Arizona Mineral Museum
##DESCRIPTION=Orange-brown blebs embedded in calcite matrix
##STATUS=The identification of this mineral has been confirmed by X-ray diffraction and chemical analysis
##URL=rruff.info/R040122
##MEASURED CHEMISTRY=(Mg_0.96_Fe_0.02_Ti_0.01_Ca_0.01_)_9_(SiO_4_)_4_(F_0.59_(OH)_0.41_)_2_
##PIN_ID=M00126
##ORIENTATION=Laser parallel to -b* (0 -1 0). Fiducial mark perpendicular to laser is parallel to -c [0 0 -1]
124.2880, 6464.000
125.5190, 6439.000
126.7490, 6540.000
127.9790, 6659.000
129.2090, 6633.000
130.4390, 6669.000
131.6680, 6663.000
132.8980, 6721.000
134.1270, 6719.000
135.3560, 6750.000
136.5850, 6840.000
137.8140, 6848.713
139.0430, 6977.000
140.2710, 6921.000
141.5000, 7030.000
142.7280, 7061.000
143.9560, 7107.000
145.1840, 7266.000
146.4120, 7152.000
147.6390, 7136.000
148.8670, 7290.000
150.0940, 7294.000
151.3210, 7362.000
152.5490, 7346.000
153.7750, 7316.000
155.0020, 7468.000
156.2290, 7473.000
157.4550, 7435.000
158.6810, 7549.000
159.9080, 7537.000
161.1340, 7524.000
162.3590, 7612.000
163.5850, 7711.000
164.8110, 7776.000
166.0360, 7791.000
167.2610, 7777.000
168.4860, 7900.000
169.7110, 7921.000
170.9360, 8084.000
172.1610, 8018.000
173.3850, 8077.000
174.6100, 8032.000
175.8340, 8147.000
177.0580, 8209.000
178.2820, 8305.000
179.5050, 8443.000
180.7290, 8432.000
181.9520, 8613.000
183.1760, 8601.000
184.3990, 8671.261
185.6220, 8710.050
186.8450, 8754.000
188.0670, 8703.000
189.2900, 8704.000
190.5120, 8636.000
191.7340, 8657.000
192.9560, 8734.000
194.1780, 8893.000
195.4000, 9025.000
196.6220, 9196.000
197.8430, 9391.000
199.0640, 9536.000
200.2860, 9547.000
201.5070, 9607.000
202.7270, 9567.000
203.9480, 9460.000
205.1690, 9320.000
206.3890, 9244.000
207.6090, 9218.000
208.8290, 9174.000
210.0490, 9117.819
211.2690, 9047.000
212.4890, 9044.000
213.7080, 8969.000
214.9280, 8986.000
216.1470, 8924.000
217.3660, 9053.000
218.5850, 9062.000
219.8030, 9021.000
221.0220, 9292.000
222.2400, 9395.000
223.4590, 9451.000
224.6770, 9610.000
225.8950, 9745.000
227.1120, 9921.000
228.3300, 10015.00
229.5480, 10181.00
230.7650, 10212.00
231.9820, 10195.00
233.1990, 10309.00
234.4160, 10207.00
235.6330, 10323.00
236.8490, 10342.00
238.0660, 10279.00
239.2820, 10289.00
240.4980, 10319.00
241.7140, 10164.00
242.9300, 10204.00
244.1460, 10076.00
245.3610, 10043.00
246.5770, 10064.00
247.7920, 10065.26
249.0070, 10159.00
250.2220, 10192.00
251.4370, 10302.00
252.6510, 10396.00
253.8660, 10354.91
255.0800, 10331.00
256.2940, 10262.00
257.5080, 10247.00
258.7220, 10177.00
259.9360, 10146.79
261.1490, 10245.00
262.3630, 10127.00
263.5760, 10123.00
264.7890, 10221.00
266.0020, 10165.00
267.2150, 10034.00
268.4270, 9997.000
269.6400, 9869.000
270.8520, 9797.000
272.0640, 9761.729
273.2760, 9763.000
274.4880, 9695.000
275.7000, 9725.000
276.9120, 9696.000
278.1230, 9676.000
279.3340, 9824.000
280.5450, 9853.000
281.7560, 9768.000
282.9670, 9898.000
284.1780, 10082.00
285.3880, 9934.000
286.5980, 10185.00
287.8090, 10063.00
289.0190, 10060.00
290.2290, 10165.00
291.4380, 10220.00
292.6480, 10015.00
293.8570, 9968.000
295.0670, 10086.00
296.2760, 10166.00
297.4850, 10019.00
298.6930, 10017.00
299.9020, 10113.00
301.1110, 10111.00
302.3190, 10175.00
303.5270, 10248.00
304.7350, 10375.00
305.9430, 10507.00
307.1510, 10698.00
308.3580, 10777.00
309.5660, 10805.00
310.7730, 11008.00
311.9800, 11073.00
313.1870, 11208.00
314.3940, 11353.00
315.6010, 11652.00
316.8070, 11970.00
318.0130, 12230.00
319.2200, 12413.00
320.4260, 12433.16
321.6310, 12271.00
322.8370, 12198.00
324.0430, 12041.00
325.2480, 11660.00
326.4540, 11414.00
327.6590, 11120.00
328.8640, 11081.00
330.0680, 10759.00
331.2730, 10781.00
332.4780, 10653.00
333.6820, 10714.00
334.8860, 10680.00
336.0900, 10638.00
337.2940, 10565.00
338.4980, 10379.00
339.7010, 10530.00
340.9050, 10348.00
342.1080, 10454.00
343.3110, 10425.00
344.5140, 10224.00
345.7170, 10304.00
346.9200, 10191.00
348.1220, 10278.00
349.3240, 10235.00
350.5270, 10295.00
351.7290, 10243.00
352.9310, 10157.00
354.1320, 10177.00
355.3340, 10189.00
356.5350, 10222.00
357.7370, 10219.43
358.9380, 10246.09
360.1390, 10213.00
361.3400, 10261.00
362.5400, 10245.00
363.7410, 10197.00
364.9410, 10301.00
366.1410, 10217.00
367.3410, 10089.00
368.5410, 10173.00
369.7410, 10185.00
370.9400, 10071.00
372.1400, 10140.00
373.3390, 10064.00
374.5380, 10174.00
375.7370, 10162.47
376.9360, 10241.00
378.1350, 10204.00
379.3330, 10312.00
380.5310, 10356.00
381.7300, 10259.00
382.9280, 10220.00
384.1260, 10351.00
385.3230, 10404.00
386.5210, 10396.00
387.7180, 10575.00
388.9160, 10604.00
390.1130, 10740.00
391.3100, 10613.00
392.5060, 10697.00
393.7030, 10653.00
394.9000, 10807.00
396.0960, 10610.00
397.2920, 10655.00
398.4880, 10670.00
399.6840, 10598.00
400.8800, 10568.00
402.0750, 10654.00
403.2710, 10647.00
404.4660, 10641.00
405.6610, 10708.00
406.8560, 10785.00
408.0510, 10691.00
409.2450, 10808.00
410.4400, 10887.00
411.6340, 10945.00
412.8280, 11041.00
414.0220, 10928.00
415.2160, 11032.00
416.4100, 11025.89
417.6030, 11093.00
418.7970, 11042.00
419.9900, 11034.00
421.1830, 10997.00
422.3760, 11128.00
423.5690, 11050.00
424.7610, 11088.00
425.9540, 11097.00
427.1460, 11033.00
428.3380, 10902.00
429.5300, 10885.00
430.7220, 10872.00
431.9140, 10884.00
433.1050, 10903.00
434.2970, 10839.00
435.4880, 10826.37
436.6790, 10809.00
437.8700, 10740.00
439.0610, 10735.00
440.2510, 10703.01
441.4420, 10746.16
442.6320, 10746.00
443.8220, 10864.00
445.0120, 10916.00
446.2020, 10967.00
447.3910, 10945.00
448.5810, 10991.00
449.7700, 11027.00
450.9600, 11072.00
452.1490, 11091.00
453.3370, 11092.10
454.5260, 11033.00
455.7150, 11040.00
456.9030, 11079.00
458.0910, 10993.00
459.2800, 11113.00
460.4670, 11095.00
461.6550, 11125.00
462.8430, 11052.00
464.0300, 11078.00
465.2180, 11286.00
466.4050, 11139.00
467.5920, 11080.00
468.7790, 11228.00
469.9650, 11115.00
471.1520, 11460.00
472.3380, 11267.00
473.5250, 11263.00
474.7110, 11336.00
475.8970, 11206.00
477.0820, 11230.00
478.2680, 11154.00
479.4540, 11357.00
480.6390, 11306.00
481.8240, 11320.00
483.0090, 11444.00
484.1940, 11308.00
485.3780, 11428.00
486.5630, 11342.00
487.7470, 11385.00
488.9320, 11297.00
490.1160, 11505.00
491.3000, 11383.00
492.4830, 11471.00
493.6670, 11478.00
494.8500, 11495.00
496.0340, 11489.00
497.2170, 11486.00
498.4000, 11522.00
499.5820, 11590.00
500.7650, 11685.00
501.9480, 11595.00
503.1300, 11565.00
504.3120, 11773.00
505.4940, 11609.00
506.6760, 11695.00
507.8580, 11600.00
509.0390, 11724.00
510.2210, 11829.00
511.4020, 11836.00
512.5830, 11801.00
513.7640, 11794.00
514.9450, 11758.00
516.1250, 11791.00
517.3060, 11789.00
518.4860, 11810.00
519.6660, 11830.57
520.8460, 11841.80
522.0260, 11868.00
523.2060, 11900.00
524.3850, 11913.00
525.5650, 11991.38
526.7440, 11939.00
527.9230, 12058.00
529.1020, 12014.00
530.2810, 11996.00
531.4590, 11951.00
532.6380, 12049.00
533.8160, 11949.00
534.9940, 12044.00
536.1720, 12005.00
537.3500, 11914.00
538.5270, 11959.00
539.7050, 12183.00
540.8820, 12086.00
542.0590, 12113.00
543.2360, 12183.00
544.4130, 12172.00
545.5900, 12200.00
546.7660, 12197.00
547.9430, 12282.00
549.1190, 12220.00
550.2950, 12362.00
551.4710, 12232.00
552.6470, 12263.00
553.8220, 12261.00
554.9980, 12207.00
556.1730, 12156.00
557.3480, 12278.00
558.5230, 12319.00
559.6980, 12303.00
560.8730, 12320.00
562.0470, 12412.00
563.2220, 12371.00
564.3960, 12414.00
565.5700, 12433.00
566.7440, 12407.00
567.9170, 12537.00
569.0910, 12517.00
570.2640, 12465.00
571.4380, 12608.00
572.6110, 12624.00
573.7840, 12714.00
574.9570, 12643.00
576.1290, 12624.00
577.3020, 12733.00
578.4740, 12856.00
579.6460, 12861.00
580.8180, 13013.00
581.9900, 13107.00
583.1620, 13199.00
584.3330, 13240.00
585.5040, 13418.00
586.6760, 13578.00
587.8470, 13778.00
589.0180, 13820.00
590.1880, 14099.00
591.3590, 14190.00
592.5290, 14560.00
593.7000, 15003.00
594.8700, 15250.00
596.0400, 15672.00
597.2090, 16317.00
598.3790, 17092.00
599.5490, 18099.00
600.7180, 19055.00
601.8870, 20029.00
603.0560, 21340.00
604.2250, 22442.00
605.3940, 23387.00
606.5620, 23887.00
607.7300, 23991.44
608.8990, 24165.00
610.0670, 23157.00
611.2350, 22113.00
612.4020, 20777.00
613.5700, 19389.00
614.7370, 18375.00
615.9050, 17280.00
617.0720, 16491.30
618.2390, 16102.00
619.4060, 15368.00
620.5720, 14880.00
621.7390, 14778.00
622.9050, 14361.00
624.0710, 14184.00
625.2370, 13828.00
626.4030, 13810.00
627.5690, 13573.00
628.7340, 13496.00
629.9000, 13506.00
631.0650, 13425.00
632.2300, 13357.00
633.3950, 13408.00
634.5600, 13248.00
635.7240, 13180.00
636.8890, 13298.00
638.0530, 13098.00
639.2170, 13197.00
640.3810, 13122.00
641.5450, 13117.00
642.7080, 13172.00
643.8720, 13168.00
645.0350, 12987.00
646.1980, 13070.00
647.3610, 13100.00
648.5240, 13080.00
649.6870, 13146.00
650.8490, 13242.00
652.0120, 13207.00
653.1740, 13059.00
654.3360, 13141.00
655.4980, 13040.00
656.6600, 13206.00
657.8210, 13068.00
658.9830, 13246.00
660.1440, 13254.00
661.3050, 13244.00
662.4660, 13164.00
663.6270, 13188.00
664.7870, 13173.00
665.9480, 13366.00
667.1080, 13226.00
668.2680, 13292.00
669.4280, 13241.00
670.5880, 13131.00
671.7480, 13308.00
672.9070, 13344.00
674.0670, 13239.00
675.2260, 13378.00
676.3850, 13390.00
677.5440, 13351.00
678.7030, 13421.00
679.8610, 13508.00
681.0200, 13469.00
682.1780, 13506.00
683.3360, 13505.60
684.4940, 13428.00
685.6520, 13466.00
686.8090, 13592.00
687.9670, 13539.00
689.1240, 13602.18
690.2810, 13607.29
691.4380, 13598.00
692.5950, 13658.00
693.7520, 13572.00
694.9080, 13717.00
696.0650, 13695.00
697.2210, 13676.52
698.3770, 13804.00
699.5330, 13683.00
700.6880, 13567.00
701.8440, 13679.00
702.9990, 13717.00
704.1550, 13766.00
705.3100, 13860.00
706.4650, 13752.00
707.6190, 13794.00
708.7740, 13863.00
709.9290, 13991.00
711.0830, 14068.00
712.2370, 14056.78
713.3910, 13916.00
714.5450, 14009.00
715.6980, 14030.00
716.8520, 14028.00
718.0050, 14166.00
719.1580, 14289.00
720.3110, 14130.00
721.4640, 14308.00
722.6170, 14310.00
723.7700, 14433.00
724.9220, 14510.00
726.0740, 14566.00
727.2260, 14589.00
728.3780, 14680.00
729.5300, 14992.00
730.6810, 14770.00
731.8330, 15002.00
732.9840, 14954.00
734.1350, 15020.00
735.2860, 15346.00
736.4370, 15277.00
737.5880, 15290.00
738.7380, 15457.00
739.8880, 15737.00
741.0390, 15769.00
742.1890, 16100.00
743.3380, 15947.00
744.4880, 16115.00
745.6380, 16299.00
746.7870, 16268.00
747.9360, 16408.00
749.0850, 16559.00
750.2340, 16551.00
751.3830, 16414.00
752.5310, 16534.00
753.6800, 16540.00
754.8280, 16362.00
755.9760, 16371.00
757.1240, 16352.00
758.2720, 16199.00
759.4190, 16239.00
760.5670, 16028.00
761.7140, 16019.00
762.8610, 16108.00
764.0080, 16033.00
765.1550, 16073.00
766.3020, 16047.00
767.4480, 16104.00
768.5950, 16259.00
769.7410, 16354.00
770.8870, 16395.00
772.0330, 16604.00
773.1780, 16893.00
774.3240, 17048.00
775.4690, 17693.00
776.6140, 17928.00
777.7590, 18558.00
778.9040, 19246.00
780.0490, 19997.00
781.1940, 20696.00
782.3380, 21145.00
783.4820, 21798.00
784.6260, 21979.00
785.7700, 21916.00
786.9140, 21608.00
788.0580, 20914.00
789.2010, 20368.00
790.3450, 19749.00
791.4880, 19430.00
792.6310, 19090.00
793.7730, 18889.00
794.9160, 18838.00
796.0590, 18915.00
797.2010, 19002.38
798.3430, 19373.00
799.4850, 19539.00
800.6270, 19953.00
801.7690, 20522.00
802.9100, 21400.00
804.0520, 21755.00
805.1930, 22562.00
806.3340, 23068.00
807.4750, 23794.00
808.6160, 24011.00
809.7560, 24052.00
810.8970, 24218.00
812.0370, 24230.00
813.1770, 24367.00
814.3170, 24342.00
815.4570, 24497.00
816.5960, 25213.00
817.7360, 25853.00
818.8750, 26725.00
820.0140, 27758.00
821.1530, 29360.00
822.2920, 31617.00
823.4310, 34328.00
824.5690, 37462.00
825.7070, 41766.00
826.8460, 45817.00
827.9840, 50049.00
829.1220, 52868.00
830.2590, 54010.00
831.3970, 52839.00
832.5340, 49672.00
833.6710, 46547.00
834.8080, 43250.00
835.9450, 40857.00
837.0820, 39477.00
838.2190, 39560.00
839.3550, 40052.00
840.4910, 41463.00
841.6270, 43523.00
842.7630, 45615.00
843.8990, 47879.00
845.0350, 49026.00
846.1700, 49524.00
847.3060, 48347.00
848.4410, 46147.00
849.5760, 44216.00
850.7100, 42423.00
851.8450, 41378.00
852.9800, 41312.00
854.1140, 41962.00
855.2480, 44261.00
856.3820, 46889.00
857.5160, 49924.00
858.6500, 52585.00
859.7830, 53634.00
860.9170, 52866.00
862.0500, 49695.00
863.1830, 45393.00
864.3160, 41251.00
865.4480, 37083.00
866.5810, 33467.00
867.7130, 31167.00
868.8460, 28962.00
869.9780, 27297.00
871.1100, 25859.00
872.2410, 25032.00
873.3730, 24041.00
874.5050, 23291.00
875.6360, 22788.00
876.7670, 22364.00
877.8980, 21968.00
879.0290, 21419.00
880.1590, 20944.00
881.2900, 20468.00
882.4200, 20095.92
883.5500, 19690.00
884.6800, 19471.00
885.8100, 19172.00
886.9400, 18958.00
888.0690, 18776.38
889.1990, 18682.00
890.3280, 18466.00
891.4570, 18353.00
892.5860, 18231.00
893.7140, 18071.00
894.8430, 18132.00
895.9710, 18007.00
897.1000, 17951.00
898.2280, 17773.00
899.3560, 17865.00
900.4830, 17789.00
901.6110, 17841.00
902.7380, 17825.05
903.8660, 17877.00
904.9930, 17762.00
906.1200, 17660.00
907.2460, 17559.00
908.3730, 17639.00
909.5000, 17678.00
910.6260, 17727.00
911.7520, 17724.00
912.8780, 17694.00
914.0040, 17766.00
915.1290, 17640.00
916.2550, 17835.00
917.3800, 17673.00
918.5050, 17623.00
919.6300, 17637.00
920.7550, 17557.00
921.8800, 17574.00
923.0040, 17666.00
924.1290, 17445.00
925.2530, 17595.00
926.3770, 17320.00
927.5010, 17493.00
928.6250, 17597.00
929.7480, 17561.00
930.8720, 17546.00
931.9950, 17508.00
933.1180, 17552.00
934.2410, 17400.00
935.3640, 17249.00
936.4860, 17252.00
937.6090, 17364.00
938.7310, 17374.00
939.8530, 17475.00
940.9750, 17346.00
942.0970, 17215.00
943.2180, 17408.00
944.3400, 17361.00
945.4610, 17634.00
946.5820, 17585.00
947.7030, 17415.00
948.8240, 17607.00
949.9450, 17719.00
951.0650, 17813.00
952.1860, 17847.00
953.3060, 17932.00
954.4260, 18173.00
955.5460, 18206.00
956.6650, 18504.00
957.7850, 18853.00
958.9040, 19302.00
960.0230, 19875.00
961.1420, 20779.00
962.2610, 21891.00
963.3800, 22866.00
964.4990, 24265.00
965.6170, 25542.00
966.7350, 26682.00
967.8530, 27514.00
968.9710, 27243.00
970.0890, 26466.00
971.2070, 25372.00
972.3240, 24229.00
973.4410, 22981.00
974.5580, 22064.00
975.6750, 21431.00
976.7920, 21155.00
977.9090, 20325.00
979.0250, 19929.00
980.1410, 19482.00
981.2580, 19184.00
982.3740, 19156.00
983.4890, 19059.00
984.6050, 18596.00
985.7200, 18765.00
986.8360, 18486.00
987.9510, 18503.00
989.0660, 18382.00
990.1810, 18356.00
991.2950, 18227.00
992.4100, 18233.00
993.5240, 18218.32
994.6390, 18253.00
995.7530, 18260.00
996.8660, 18287.00
997.9800, 18332.00
999.0940, 18212.00
1000.207, 18266.00
1001.320, 18196.00
1002.433, 18112.00
1003.546, 18345.00
1004.659, 18196.00
1005.772, 18278.00
1006.884, 18336.00
1007.996, 18295.00
1009.108, 18199.00
1010.220, 18176.00
1011.332, 18126.00
1012.444, 18153.00
1013.555, 18233.00
1014.666, 18270.00
1015.777, 18189.00
1016.888, 18225.00
1017.999, 18383.00
1019.110, 18224.00
1020.220, 18259.00
1021.331, 18343.00
1022.441, 18289.00
1023.551, 18095.00
1024.661, 18252.00
1025.770, 18259.00
1026.880, 18182.00
1027.989, 18276.00
1029.098, 18323.00
1030.207, 18414.00
1031.316, 18425.00
1032.425, 18345.00
1033.533, 18454.00
1034.642, 18203.00
1035.750, 18227.00
1036.858, 18434.00
1037.966, 18300.00
1039.073, 18326.00
1040.181, 18301.00
1041.288, 18257.00
1042.396, 18406.00
1043.503, 18326.00
1044.610, 18503.00
1045.716, 18138.00
1046.823, 18552.00
1047.929, 18487.00
1049.036, 18252.00
1050.142, 18386.00
1051.248, 18390.00
1052.353, 18355.00
1053.459, 18260.00
1054.564, 18396.00
1055.670, 18388.00
1056.775, 18314.22
1057.880, 18304.00
1058.985, 18159.00
1060.089, 18306.00
1061.194, 18243.00
1062.298, 18221.00
1063.402, 18369.00
1064.506, 18469.00
1065.610, 18381.00
1066.713, 18278.00
1067.817, 18341.00
1068.920, 18323.00
1070.023, 18411.00
1071.126, 18330.00
1072.229, 18383.87
1073.332, 18466.00
1074.435, 18481.00
1075.537, 18387.00
1076.639, 18538.00
1077.741, 18500.00
1078.843, 18519.00
1079.945, 18376.00
1081.046, 18491.00
1082.148, 18551.00
1083.249, 18719.00
1084.350, 18689.65
1085.451, 18673.00
1086.551, 18698.00
1087.652, 18602.00
1088.752, 18699.00
1089.853, 18692.00
1090.953, 18594.00
1092.053, 18651.00
1093.152, 18654.00
1094.252, 18819.00
1095.351, 18914.00
1096.451, 18789.00
1097.550, 18782.00
1098.649, 18979.00
1099.748, 18813.00
1100.846, 18759.00
1101.945, 18941.00
1103.043, 19029.00
1104.141, 18741.00
1105.239, 18825.00
1106.337, 18915.00
1107.434, 18853.00
1108.532, 18910.00
1109.629, 18816.00
1110.726, 18934.00
1111.823, 18882.00
1112.920, 18899.00
1114.017, 19013.00
1115.113, 18794.00
1116.210, 19174.00
1117.306, 19038.00
1118.402, 18983.00
1119.498, 19015.00
1120.593, 19033.50
1121.689, 19092.95
1122.784, 19194.00
1123.879, 19265.00
1124.974, 19315.00
1126.069, 19394.00
1127.164, 19223.00
1128.259, 19241.00
1129.353, 19129.00
1130.447, 19302.00
1131.541, 19346.00
1132.635, 19308.00
1133.729, 19394.29
1134.822, 19256.00
1135.916, 19422.00
1137.009, 19277.00
1138.102, 19258.00
1139.195, 19340.00
1140.288, 19334.00
1141.380, 19237.00
1142.473, 19399.00
1143.565, 19227.00
1144.657, 19457.00
1145.749, 19488.00
1146.841, 19412.00
1147.932, 19616.00
1149.024, 19517.00
1150.115, 19535.00
1151.206, 19552.00
1152.297, 19577.00
1153.388, 19461.00
1154.479, 19615.00
1155.569, 19489.00
1156.659, 19410.00
1157.750, 19712.00
1158.839, 19517.00
1159.929, 19584.00
1161.019, 19718.00
1162.108, 19558.00
1163.198, 19664.00
1164.287, 19542.00
1165.376, 19710.00
1166.465, 19769.00
1167.553, 19663.00
1168.642, 19820.00
1169.730, 19907.00
1170.818, 19821.00
1171.906, 19791.00
1172.994, 19740.00
1174.082, 19651.00
1175.170, 19654.00
1176.257, 19674.55
1177.344, 19678.38
1178.431, 19822.00
1179.518, 19777.00
1180.605, 19919.00
1181.691, 20012.00
1182.778, 19812.00
1183.864, 20053.00
1184.950, 19858.00
1186.036, 20009.00
1187.122, 19967.00
1188.207, 20007.00
1189.292, 19925.00
1190.378, 19967.00
1191.463, 20108.00
1192.548, 20015.00
1193.632, 20152.00
1194.717, 20090.00
1195.801, 20061.00
1196.886, 20176.00
1197.970, 20130.00
1199.054, 20169.00
1200.137, 20259.00
1201.221, 20282.00
1202.305, 20248.00
1203.388, 20228.00
1204.471, 20146.00
1205.554, 20165.00
1206.637, 20280.00
1207.719, 20186.00
1208.802, 20312.00
1209.884, 20413.00
1210.966, 20362.00
1212.048, 20266.00
1213.130, 20329.00
1214.212, 20498.00
1215.293, 20381.00
1216.374, 20570.00
1217.456, 20553.00
1218.536, 20471.00
1219.617, 20398.00
1220.698, 20639.00
1221.778, 20688.00
1222.859, 20656.00
1223.939, 20590.00
1225.019, 20543.00
1226.099, 20515.00
1227.178, 20569.98
1228.258, 20575.19
1229.337, 20700.00
1230.417, 20705.00
1231.496, 20694.00
1232.574, 20833.00
1233.653, 20806.24
1234.732, 20716.00
1235.810, 20867.00
1236.888, 20868.00
1237.966, 20935.00
1239.044, 20959.00
1240.122, 21017.00
1241.199, 20847.00
1242.277, 20999.00
1243.354, 20911.00
1244.431, 20925.00
1245.508, 21012.00
1246.585, 21113.00
1247.661, 21082.00
1248.738, 20966.00
1249.814, 20990.00
1250.890, 20966.29
1251.966, 20999.00
1253.042, 21040.00
1254.117, 21008.00
1255.193, 21150.00
1256.268, 21212.00
1257.343, 21162.00
1258.418, 21045.00
1259.493, 21133.00
1260.567, 21105.73
1261.642, 21261.00
1262.716, 21192.00
1263.790, 21268.00
1264.864, 21338.00
1265.938, 21363.00
1267.011, 21379.00
1268.085, 21388.67
1269.158, 21383.00
1270.231, 21348.00
1271.304, 21397.00
1272.377, 21340.00
1273.450, 21198.00
1274.522, 21461.00
1275.594, 21524.00
1276.666, 21339.00
1277.738, 21356.00
1278.810, 21369.00
1279.882, 21318.00
1280.953, 21364.00
1282.025, 21479.00
1283.096, 21436.00
1284.167, 21459.00
1285.238, 21459.00
1286.308, 21499.00
1287.379, 21531.00
1288.449, 21466.00
1289.519, 21477.00
1290.589, 21509.00
1291.659, 21509.00
1292.729, 21541.00
1293.798, 21598.69
1294.868, 21547.00
1295.937, 21646.00
1297.006, 21670.00
1298.075, 21508.00
1299.143, 21524.00
1300.212, 21709.00
1301.280, 21894.00
1302.348, 21858.00
1303.416, 21695.00
1304.484, 21677.00
1305.552, 21978.00
1306.620, 21727.00
1307.687, 21793.00
1308.754, 21894.00
1309.821, 21825.00
1310.888, 21837.00
1311.955, 21865.54
1313.021, 22007.00
1314.088, 21875.00
1315.154, 21958.00
1316.220, 21928.00
1317.286, 21930.00
1318.352, 22018.00
1319.417, 22049.00
1320.483, 22061.00
1321.548, 22083.00
1322.613, 22166.00
1323.678, 22151.00
1324.743, 22158.00
1325.807, 22005.00
1326.872, 22127.00
1327.936, 22185.00
1329.000, 22341.00
1330.064, 22258.00
1331.128, 22226.00
1332.191, 22316.00
1333.255, 22177.00
1334.318, 22285.00
1335.381, 22449.00
1336.444, 22301.00
1337.507, 22426.00
1338.569, 22302.00
1339.632, 22267.00
1340.694, 22359.00
1341.756, 22286.00
1342.818, 22511.00
1343.880, 22505.00
1344.941, 22554.00
1346.003, 22520.00
1347.064, 22389.00
1348.125, 22671.00
1349.186, 22563.00
1350.247, 22378.00
1351.308, 22558.00
1352.368, 22409.00
1353.428, 22485.00
1354.489, 22734.00
1355.549, 22733.00
1356.608, 22639.00
1357.668, 22818.00
1358.727, 22613.00
1359.787, 22490.00
1360.846, 22642.00
1361.905, 22668.00
1362.964, 22849.00
1364.022, 22754.00
1365.081, 22796.00
1366.139, 22971.00
1367.197, 22688.00
1368.255, 22941.00
1369.313, 22908.00
1370.371, 22833.00
1371.428, 22906.00
1372.486, 22944.00
1373.543, 22924.00
1374.600, 22901.00
1375.657, 22907.00
1376.713, 23071.00
1377.770, 23048.00
1378.826, 22935.00
1379.882, 23214.00
1380.938, 23113.00
1381.994, 22985.00
1383.050, 22905.00
1384.106, 23084.00
1385.161, 23374.00
1386.216, 23178.00
1387.271, 23246.00
1388.326, 23274.00
1389.381, 23192.00
1390.435, 23168.00
1391.490, 23282.00
1392.544, 23253.00
1393.598, 23134.00
1394.652, 23350.00
1395.705, 23245.00
1396.759, 23232.00
1397.812, 23489.00
1398.866, 23339.00
1399.919, 23463.00
1400.972, 23275.00
1402.024, 23285.00
1403.077, 23403.00
1404.129, 23418.00
1405.181, 23529.00
1406.233, 23474.00
1407.285, 23489.00
1408.337, 23350.00
1409.389, 23420.00
1410.440, 23434.51
1411.491, 23533.00
1412.542, 23548.00
1413.593, 23584.00
1414.644, 23625.00
1415.695, 23677.00
1416.745, 23754.00
1417.795, 23590.00
1418.845, 23547.00
1419.895, 23887.00
1420.945, 23637.00
1421.995, 23734.00
1423.044, 23638.00
1424.093, 23794.00
1425.142, 23699.00
1426.191, 23968.00
1427.240, 23790.00
1428.289, 23998.00
1429.337, 23913.00
1430.385, 23972.00
1431.433, 23856.00
1432.481, 23941.00
1433.529, 23908.00
1434.577, 23929.00
1435.624, 23871.00
1436.672, 24029.00
1437.719, 24096.00
1438.766, 24083.85
1439.812, 24123.00
1440.859, 24120.00
1441.905, 24035.00
1442.952, 24103.00
1443.998, 24263.00
1445.044, 24331.00
1446.090, 24145.00
1447.135, 24210.00
1448.181, 24164.00
1449.226, 24168.00
1450.271, 24427.00
1451.316, 24299.00
1452.361, 24407.00
1453.405, 24273.00
1454.450, 24177.00
1455.494, 24439.00
1456.538, 24418.00
1457.582, 24420.00
1458.626, 24269.00
1459.670, 24472.00
1460.713, 24397.00
1461.757, 24566.00
1462.800, 24636.00
1463.843, 24559.00
1464.886, 24534.00
1465.928, 24365.00
1466.971, 24520.00
1468.013, 24461.00
1469.055, 24696.00
1470.097, 24762.00
1471.139, 24649.00
1472.181, 24638.00
1473.222, 24772.00
1474.263, 24651.00
1475.305, 24633.00
1476.346, 24646.00
1477.386, 24671.00
1478.427, 24647.82
1479.468, 24782.00
1480.508, 24696.00
1481.548, 24827.00
1482.588, 25022.00
1483.628, 25025.00
1484.668, 24909.00
1485.707, 25072.00
1486.747, 25224.00
1487.786, 25006.00
1488.825, 24949.00
1489.864, 25089.00
1490.902, 24901.00
1491.941, 25061.00
1492.979, 25174.00
1494.017, 25023.00
1495.055, 25054.00
1496.093, 25287.00
1497.131, 25206.00
1498.168, 25125.00
1499.206, 25211.00
1500.243, 25128.00
1501.280, 25396.00
1502.317, 25223.00
1503.354, 25462.00
1504.390, 25524.00
1505.426, 25447.00
1506.463, 25349.00
1507.499, 25281.00
1508.535, 25262.54
1509.570, 25446.00
1510.606, 25263.00
1511.641, 25430.00
1512.676, 25464.00
1513.711, 25434.00
1514.746, 25531.00
1515.781, 25605.30
1516.816, 25555.00
1517.850, 25758.00
1518.884, 25745.00
1519.918, 25653.00
1520.952, 25627.00
1521.986, 25708.00
1523.019, 25628.00
1524.053, 25847.00
1525.086, 25940.00
1526.119, 25893.00
1527.152, 25879.00
1528.185, 25878.00
1529.217, 25887.67
1530.250, 25925.00
1531.282, 25908.00
1532.314, 25905.00
1533.346, 25834.00
1534.377, 25895.00
1535.409, 26083.00
1536.440, 25926.00
1537.472, 26002.00
1538.503, 25934.00
1539.534, 25938.00
1540.564, 26021.00
1541.595, 26170.00
1542.625, 26115.00
1543.656, 26283.00
1544.686, 26182.00
1545.716, 26042.00
1546.745, 26150.00
1547.775, 25921.00
1548.804, 26010.78
1549.834, 26019.00
1550.863, 26149.00
1551.892, 26260.00
1552.920, 26436.00
1553.949, 26347.00
1554.977, 26348.00
1556.006, 26514.00
1557.034, 26249.00
1558.062, 26234.00
1559.089, 26299.00
1560.117, 26384.00
1561.144, 26496.00
1562.172, 26428.00
1563.199, 26533.00
1564.226, 26428.00
1565.252, 26482.81
1566.279, 26424.00
1567.305, 26510.00
1568.332, 26585.00
1569.358, 26539.00
1570.384, 26623.00
1571.409, 26648.00
##END=



