##NAMES=Clinozoisite
##RRUFFID=R040085
##IDEAL CHEMISTRY=Ca_2_Al_3_(Si_2_O_7_)(SiO_4_)O(OH)
##LOCALITY=Alamos, Sonora, Mexico
##OWNER=RRUFF
##SOURCE=University of Arizona Mineral Museum
##DESCRIPTION=Divergent aggregate of red thin prismatic crystals
##STATUS=The identification of this mineral has been confirmed by X-ray diffraction and chemical analysis
##URL=rruff.info/R040085
##MEASURED CHEMISTRY=Ca_2.03_(Al_0.90_Fe_0.13_)_3_(Si_1.00_O_4_)(Si_2.00_O_7_)O(OH)
##PIN_ID=M00327
##ORIENTATION=Laser parallel to (1 0 1). Fiducial mark perpendicular to laser is parallel to -b [0 -1 0]
191.7340, 28723.00
192.9560, 28615.00
194.1780, 28668.00
195.4000, 28521.00
196.6220, 28480.00
197.8430, 28581.00
199.0640, 28486.00
200.2860, 28720.00
201.5070, 28838.00
202.7270, 28807.00
203.9480, 29037.00
205.1690, 28745.00
206.3890, 28892.00
207.6090, 28753.00
208.8290, 28881.00
210.0490, 29062.00
211.2690, 28925.00
212.4890, 28952.00
213.7080, 29100.00
214.9280, 29317.00
216.1470, 29035.00
217.3660, 29276.00
218.5850, 29226.00
219.8030, 29350.00
221.0220, 29366.00
222.2400, 29438.00
223.4590, 29563.00
224.6770, 29607.00
225.8950, 29999.00
227.1120, 29885.00
228.3300, 29988.00
229.5480, 30235.00
230.7650, 30208.00
231.9820, 30361.00
233.1990, 30771.00
234.4160, 31090.00
235.6330, 31315.00
236.8490, 31604.00
238.0660, 32152.00
239.2820, 32595.00
240.4980, 33218.29
241.7140, 33903.00
242.9300, 34645.00
244.1460, 35623.00
245.3610, 36503.00
246.5770, 37596.00
247.7920, 39129.00
249.0070, 40346.00
250.2220, 41719.00
251.4370, 42509.00
252.6510, 43279.00
253.8660, 43521.00
255.0800, 43428.00
256.2940, 42498.00
257.5080, 41503.00
258.7220, 40799.00
259.9360, 39693.00
261.1490, 38584.00
262.3630, 37897.00
263.5760, 37103.00
264.7890, 36359.00
266.0020, 36154.00
267.2150, 35447.00
268.4270, 35120.00
269.6400, 34861.00
270.8520, 34515.00
272.0640, 34117.00
273.2760, 33768.00
274.4880, 33581.00
275.7000, 33501.00
276.9120, 33253.00
278.1230, 33197.00
279.3340, 32951.00
280.5450, 33006.00
281.7560, 32555.00
282.9670, 32588.00
284.1780, 32688.00
285.3880, 32804.00
286.5980, 32719.00
287.8090, 32707.00
289.0190, 32635.00
290.2290, 32785.00
291.4380, 32820.00
292.6480, 32868.00
293.8570, 32756.00
295.0670, 32811.00
296.2760, 32991.00
297.4850, 32779.00
298.6930, 33060.00
299.9020, 32884.00
301.1110, 32803.00
302.3190, 32795.00
303.5270, 32619.00
304.7350, 32595.00
305.9430, 32448.00
307.1510, 32559.00
308.3580, 32639.00
309.5660, 32318.00
310.7730, 32519.00
311.9800, 32629.00
313.1870, 32623.00
314.3940, 32933.00
315.6010, 32898.00
316.8070, 32938.00
318.0130, 33010.00
319.2200, 33266.00
320.4260, 33400.00
321.6310, 33315.00
322.8370, 33200.00
324.0430, 33448.00
325.2480, 33706.00
326.4540, 34051.00
327.6590, 34396.00
328.8640, 34623.39
330.0680, 34757.00
331.2730, 35130.00
332.4780, 35422.00
333.6820, 35730.00
334.8860, 35746.00
336.0900, 36244.00
337.2940, 36364.00
338.4980, 36355.00
339.7010, 36732.00
340.9050, 37039.00
342.1080, 37632.00
343.3110, 38368.00
344.5140, 38776.00
345.7170, 39979.00
346.9200, 40651.00
348.1220, 41216.00
349.3240, 41891.00
350.5270, 41998.00
351.7290, 41686.00
352.9310, 41209.00
354.1320, 40147.00
355.3340, 39269.00
356.5350, 38434.00
357.7370, 37466.00
358.9380, 36749.00
360.1390, 36058.00
361.3400, 35592.00
362.5400, 35050.00
363.7410, 34946.00
364.9410, 34461.00
366.1410, 34592.00
367.3410, 34349.00
368.5410, 34194.00
369.7410, 33926.00
370.9400, 33912.00
372.1400, 33754.00
373.3390, 33771.00
374.5380, 33890.00
375.7370, 33724.00
376.9360, 33567.00
378.1350, 33768.00
379.3330, 33746.00
380.5310, 33625.00
381.7300, 33491.00
382.9280, 33660.00
384.1260, 33966.00
385.3230, 34010.00
386.5210, 34070.00
387.7180, 34154.03
388.9160, 34182.00
390.1130, 34190.00
391.3100, 34304.00
392.5060, 34375.00
393.7030, 34560.00
394.9000, 34461.00
396.0960, 34544.00
397.2920, 34473.00
398.4880, 34518.00
399.6840, 34406.00
400.8800, 34273.00
402.0750, 34278.00
403.2710, 34380.00
404.4660, 34287.00
405.6610, 34287.00
406.8560, 34262.00
408.0510, 34197.00
409.2450, 34297.00
410.4400, 34503.00
411.6340, 34337.00
412.8280, 34424.00
414.0220, 34717.00
415.2160, 35004.00
416.4100, 35033.00
417.6030, 35234.00
418.7970, 35206.00
419.9900, 35518.00
421.1830, 35729.00
422.3760, 36086.00
423.5690, 36285.00
424.7610, 36591.00
425.9540, 36740.00
427.1460, 37081.00
428.3380, 37294.00
429.5300, 37262.00
430.7220, 37483.00
431.9140, 37512.00
433.1050, 37852.00
434.2970, 38045.00
435.4880, 38552.00
436.6790, 38860.00
437.8700, 39211.00
439.0610, 40155.00
440.2510, 40899.00
441.4420, 41796.00
442.6320, 43133.00
443.8220, 43895.00
445.0120, 45178.00
446.2020, 46465.00
447.3910, 47603.00
448.5810, 48325.00
449.7700, 49192.00
450.9600, 48936.00
452.1490, 48835.00
453.3370, 48344.00
454.5260, 47219.00
455.7150, 45703.00
456.9030, 44220.00
458.0910, 42820.00
459.2800, 42127.00
460.4670, 40844.00
461.6550, 40083.00
462.8430, 39509.00
464.0300, 39368.00
465.2180, 38824.00
466.4050, 38831.00
467.5920, 38423.00
468.7790, 38596.00
469.9650, 38261.00
471.1520, 38667.00
472.3380, 38735.00
473.5250, 38680.00
474.7110, 38956.00
475.8970, 38957.00
477.0820, 39183.00
478.2680, 39717.00
479.4540, 39937.00
480.6390, 40123.00
481.8240, 40432.00
483.0090, 40706.00
484.1940, 40636.00
485.3780, 40515.00
486.5630, 40514.00
487.7470, 40152.00
488.9320, 39969.00
490.1160, 39735.61
491.3000, 39284.00
492.4830, 39181.00
493.6670, 38916.00
494.8500, 38613.00
496.0340, 38614.00
497.2170, 38581.00
498.4000, 38502.00
499.5820, 38645.00
500.7650, 38425.00
501.9480, 38641.00
503.1300, 38699.00
504.3120, 39030.00
505.4940, 39260.00
506.6760, 39301.00
507.8580, 39688.00
509.0390, 39722.00
510.2210, 40015.00
511.4020, 40161.00
512.5830, 40451.00
513.7640, 40631.00
514.9450, 40947.00
516.1250, 41357.00
517.3060, 41396.00
518.4860, 41565.00
519.6660, 41632.00
520.8460, 41603.00
522.0260, 41212.00
523.2060, 41020.00
524.3850, 40907.00
525.5650, 40818.00
526.7440, 40442.00
527.9230, 40389.00
529.1020, 40069.00
530.2810, 39592.00
531.4590, 39537.00
532.6380, 39097.00
533.8160, 38636.00
534.9940, 38157.00
536.1720, 38058.00
537.3500, 37542.00
538.5270, 37540.00
539.7050, 37446.00
540.8820, 37433.00
542.0590, 37443.00
543.2360, 37363.00
544.4130, 37349.00
545.5900, 37326.00
546.7660, 37304.00
547.9430, 37333.00
549.1190, 37238.00
550.2950, 37595.00
551.4710, 37454.00
552.6470, 37525.00
553.8220, 37967.00
554.9980, 38162.00
556.1730, 38039.00
557.3480, 38255.00
558.5230, 38473.00
559.6980, 38855.86
560.8730, 39428.00
562.0470, 40023.00
563.2220, 40827.16
564.3960, 41875.00
565.5700, 42820.00
566.7440, 44015.00
567.9170, 45427.00
569.0910, 46239.00
570.2640, 47215.00
571.4380, 46737.00
572.6110, 45866.00
573.7840, 44156.00
574.9570, 42565.00
576.1290, 41504.00
577.3020, 40552.00
578.4740, 39496.00
579.6460, 39295.00
580.8180, 38995.00
581.9900, 38766.00
583.1620, 38654.46
584.3330, 38517.00
585.5040, 38516.00
586.6760, 38542.00
587.8470, 38590.64
589.0180, 38587.00
590.1880, 38690.00
591.3590, 38843.00
592.5290, 38893.00
593.7000, 38995.00
594.8700, 38973.00
596.0400, 39328.00
597.2090, 39638.00
598.3790, 39559.00
599.5490, 39636.00
600.7180, 40300.00
601.8870, 40196.00
603.0560, 40063.00
604.2250, 40246.00
605.3940, 40108.00
606.5620, 40527.00
607.7300, 40119.00
608.8990, 39998.00
610.0670, 39650.00
611.2350, 39223.00
612.4020, 39222.00
613.5700, 38844.00
614.7370, 38958.00
615.9050, 38933.00
617.0720, 38735.00
618.2390, 38665.00
619.4060, 38591.00
620.5720, 38564.00
621.7390, 38454.03
622.9050, 38324.00
624.0710, 38276.00
625.2370, 38410.00
626.4030, 38381.00
627.5690, 38241.00
628.7340, 38471.00
629.9000, 38444.00
631.0650, 38242.00
632.2300, 38252.00
633.3950, 38370.00
634.5600, 38568.00
635.7240, 38313.00
636.8890, 38039.00
638.0530, 38717.00
639.2170, 38292.00
640.3810, 38255.00
641.5450, 38549.00
642.7080, 38538.00
643.8720, 38333.00
645.0350, 38453.00
646.1980, 38596.00
647.3610, 38690.00
648.5240, 38966.00
649.6870, 38811.00
650.8490, 38818.00
652.0120, 38882.00
653.1740, 39145.00
654.3360, 39151.00
655.4980, 39275.00
656.6600, 39301.00
657.8210, 39051.00
658.9830, 38934.00
660.1440, 39249.00
661.3050, 39155.00
662.4660, 39323.00
663.6270, 38991.00
664.7870, 39043.00
665.9480, 39194.00
667.1080, 39173.00
668.2680, 38958.00
669.4280, 39008.00
670.5880, 39004.00
671.7480, 38998.00
672.9070, 39085.00
674.0670, 39060.00
675.2260, 39055.00
676.3850, 39007.00
677.5440, 39002.00
678.7030, 39070.00
679.8610, 39053.94
681.0200, 39200.00
682.1780, 39297.00
683.3360, 39458.00
684.4940, 39622.00
685.6520, 39684.69
686.8090, 39708.68
687.9670, 39765.00
689.1240, 39639.00
690.2810, 39523.00
691.4380, 39461.00
692.5950, 39667.00
693.7520, 39918.00
694.9080, 39803.00
696.0650, 39938.00
697.2210, 39918.00
698.3770, 39924.00
699.5330, 39855.00
700.6880, 40089.00
701.8440, 39959.00
702.9990, 40038.00
704.1550, 39816.00
705.3100, 39910.00
706.4650, 39943.00
707.6190, 39911.00
708.7740, 39633.00
709.9290, 39637.00
711.0830, 39698.00
712.2370, 39643.00
713.3910, 39803.00
714.5450, 39632.00
715.6980, 39629.00
716.8520, 39705.00
718.0050, 39650.00
719.1580, 39594.00
720.3110, 39693.00
721.4640, 39573.00
722.6170, 39706.00
723.7700, 39669.00
724.9220, 39687.00
726.0740, 39726.00
727.2260, 39841.00
728.3780, 39792.00
729.5300, 39763.00
730.6810, 39531.00
731.8330, 39700.00
732.9840, 40080.00
734.1350, 39855.00
735.2860, 39938.00
736.4370, 39787.00
737.5880, 39714.00
738.7380, 39676.00
739.8880, 39908.00
741.0390, 39919.00
742.1890, 40017.00
743.3380, 40053.00
744.4880, 39869.00
745.6380, 40106.00
746.7870, 40227.00
747.9360, 40232.00
749.0850, 39805.00
750.2340, 40181.00
751.3830, 39806.00
752.5310, 40103.00
753.6800, 40143.00
754.8280, 39934.00
755.9760, 40162.00
757.1240, 40279.00
758.2720, 40246.00
759.4190, 40185.00
760.5670, 40353.00
761.7140, 40126.00
762.8610, 40248.00
764.0080, 40206.00
765.1550, 40371.00
766.3020, 40410.00
767.4480, 40249.00
768.5950, 40344.00
769.7410, 40298.00
770.8870, 40401.00
772.0330, 40309.00
773.1780, 40451.59
774.3240, 40473.52
775.4690, 40629.00
776.6140, 40615.00
777.7590, 40536.00
778.9040, 40649.00
780.0490, 40768.00
781.1940, 40908.00
782.3380, 40545.00
783.4820, 40842.00
784.6260, 40758.00
785.7700, 40794.00
786.9140, 40937.00
788.0580, 40917.00
789.2010, 40922.00
790.3450, 40965.41
791.4880, 40915.00
792.6310, 40982.00
793.7730, 40887.00
794.9160, 40895.00
796.0590, 40909.00
797.2010, 40901.00
798.3430, 41124.00
799.4850, 41236.00
800.6270, 41259.86
801.7690, 41460.00
802.9100, 41275.00
804.0520, 41312.00
805.1930, 41204.00
806.3340, 41282.00
807.4750, 41397.00
808.6160, 41400.00
809.7560, 41315.00
810.8970, 41418.00
812.0370, 41377.00
813.1770, 41461.45
814.3170, 41377.00
815.4570, 41627.00
816.5960, 41595.00
817.7360, 41630.00
818.8750, 41578.00
820.0140, 41811.00
821.1530, 41739.00
822.2920, 41873.00
823.4310, 41902.00
824.5690, 41864.00
825.7070, 41718.00
826.8460, 42062.00
827.9840, 41856.00
829.1220, 42284.00
830.2590, 42229.00
831.3970, 42108.00
832.5340, 42156.00
833.6710, 42212.00
834.8080, 42607.00
835.9450, 42472.00
837.0820, 42449.00
838.2190, 42720.00
839.3550, 42521.00
840.4910, 42717.00
841.6270, 42667.00
842.7630, 42723.00
843.8990, 42745.00
845.0350, 42764.00
846.1700, 42967.00
847.3060, 43258.00
848.4410, 43027.00
849.5760, 43113.00
850.7100, 43428.00
851.8450, 43636.00
852.9800, 43702.05
854.1140, 43724.00
855.2480, 43855.00
856.3820, 44096.00
857.5160, 44209.00
858.6500, 44370.00
859.7830, 44566.00
860.9170, 44753.42
862.0500, 45048.00
863.1830, 45158.00
864.3160, 45395.00
865.4480, 45524.00
866.5810, 45944.00
867.7130, 45971.00
868.8460, 46075.00
869.9780, 46822.00
871.1100, 47111.00
872.2410, 47333.00
873.3730, 47908.00
874.5050, 48270.00
875.6360, 48789.00
876.7670, 48855.00
877.8980, 49145.00
879.0290, 49327.00
880.1590, 49386.00
881.2900, 49019.00
882.4200, 49028.00
883.5500, 48503.00
884.6800, 48045.00
885.8100, 47801.00
886.9400, 47550.00
888.0690, 47419.00
889.1990, 47084.00
890.3280, 46831.00
891.4570, 46561.00
892.5860, 46699.00
893.7140, 46473.00
894.8430, 46233.00
895.9710, 46204.00
897.1000, 45952.00
898.2280, 46156.00
899.3560, 45778.00
900.4830, 46116.00
901.6110, 45750.00
902.7380, 46066.00
903.8660, 46045.00
904.9930, 46394.00
906.1200, 46594.00
907.2460, 46555.00
908.3730, 46717.00
909.5000, 46853.00
910.6260, 47202.00
911.7520, 47181.00
912.8780, 47218.00
914.0040, 47140.00
915.1290, 47261.00
916.2550, 47225.00
917.3800, 46952.00
918.5050, 46634.00
919.6300, 46261.00
920.7550, 46250.00
921.8800, 45957.00
923.0040, 45684.00
924.1290, 45734.00
925.2530, 45780.00
926.3770, 45354.00
927.5010, 45218.00
928.6250, 45175.00
929.7480, 44887.00
930.8720, 45247.00
931.9950, 45390.00
933.1180, 45181.00
934.2410, 44984.00
935.3640, 45229.00
936.4860, 44617.00
937.6090, 44824.00
938.7310, 44935.00
939.8530, 44868.00
940.9750, 44818.00
942.0970, 44825.00
943.2180, 44665.00
944.3400, 44775.00
945.4610, 44838.00
946.5820, 44638.00
947.7030, 44717.00
948.8240, 44614.00
949.9450, 44589.00
951.0650, 44640.00
952.1860, 44615.45
953.3060, 44956.00
954.4260, 44686.00
955.5460, 44948.00
956.6650, 45027.00
957.7850, 44981.00
958.9040, 44881.00
960.0230, 45026.00
961.1420, 45150.00
962.2610, 45114.00
963.3800, 45080.00
964.4990, 45015.00
965.6170, 45147.00
966.7350, 45075.00
967.8530, 45050.00
968.9710, 45154.00
970.0890, 45054.00
971.2070, 45390.00
972.3240, 45530.00
973.4410, 45777.00
974.5580, 45912.00
975.6750, 46190.00
976.7920, 46096.00
977.9090, 46223.00
979.0250, 46326.00
980.1410, 46861.00
981.2580, 46950.00
982.3740, 47092.00
983.4890, 47306.00
984.6050, 47126.00
985.7200, 47316.00
986.8360, 47355.00
987.9510, 46963.00
989.0660, 46521.00
990.1810, 46534.00
991.2950, 46260.03
992.4100, 46283.00
993.5240, 46110.00
994.6390, 46090.00
995.7530, 46133.00
996.8660, 46000.00
997.9800, 45994.00
999.0940, 46052.00
1000.207, 45972.00
1001.320, 45791.00
1002.433, 45919.00
1003.546, 45906.00
1004.659, 45975.00
1005.772, 45660.00
1006.884, 45737.00
1007.996, 45703.71
1009.108, 45720.00
1010.220, 45795.00
1011.332, 45804.00
1012.444, 45819.46
1013.555, 45911.00
1014.666, 45850.00
1015.777, 45908.00
1016.888, 45980.00
1017.999, 45944.61
1019.110, 46124.00
1020.220, 46019.00
1021.331, 45987.00
1022.441, 46191.00
1023.551, 46116.00
1024.661, 46272.00
1025.770, 46361.54
1026.880, 46776.00
1027.989, 46595.00
1029.098, 46590.00
1030.207, 46757.00
1031.316, 46629.00
1032.425, 46725.00
1033.533, 46796.00
1034.642, 46762.00
1035.750, 46611.00
1036.858, 46872.00
1037.966, 46743.00
1039.073, 47241.00
1040.181, 47168.00
1041.288, 47214.00
1042.396, 47084.00
1043.503, 47424.00
1044.610, 47254.00
1045.716, 47380.00
1046.823, 47277.00
1047.929, 47332.00
1049.036, 47548.00
1050.142, 47277.00
1051.248, 47464.00
1052.353, 47661.00
1053.459, 47533.00
1054.564, 47587.00
1055.670, 47179.00
1056.775, 47577.00
1057.880, 47898.00
1058.985, 47878.00
1060.089, 47522.00
1061.194, 47711.00
1062.298, 47911.00
1063.402, 47761.00
1064.506, 47825.00
1065.610, 48212.00
1066.713, 48181.00
1067.817, 48222.00
1068.920, 48024.00
1070.023, 48174.00
1071.126, 48259.00
1072.229, 48441.00
1073.332, 48378.00
1074.435, 48429.18
1075.537, 48236.00
1076.639, 48467.00
1077.741, 48582.00
1078.843, 48795.00
1079.945, 48663.00
1081.046, 48781.00
1082.148, 48589.00
1083.249, 48743.00
1084.350, 49324.00
1085.451, 49072.00
1086.551, 49414.00
1087.652, 49901.00
1088.752, 50150.00
1089.853, 50335.00
1090.953, 50319.00
1092.053, 50995.00
1093.152, 50526.00
1094.252, 50764.00
1095.351, 50405.00
1096.451, 50079.00
1097.550, 49895.00
1098.649, 49522.00
1099.748, 49264.00
1100.846, 49023.00
1101.945, 48943.00
1103.043, 48488.00
1104.141, 48565.00
1105.239, 48552.00
1106.337, 48736.00
1107.434, 48436.00
1108.532, 48815.00
1109.629, 48485.00
1110.726, 48539.00
1111.823, 48632.00
1112.920, 48501.00
1114.017, 48373.00
1115.113, 48693.00
1116.210, 48448.00
1117.306, 48401.00
1118.402, 48785.00
1119.498, 48481.00
1120.593, 48754.00
1121.689, 48911.00
1122.784, 48649.00
1123.879, 48506.00
1124.974, 48833.00
1126.069, 48825.00
1127.164, 48750.00
1128.259, 48561.00
1129.353, 48568.00
1130.447, 48534.00
1131.541, 48597.00
1132.635, 48854.00
1133.729, 48751.00
1134.822, 48964.00
1135.916, 48795.00
1137.009, 48888.00
1138.102, 48841.00
1139.195, 48815.00
1140.288, 48699.00
1141.380, 48841.00
1142.473, 48621.00
1143.565, 48859.00
1144.657, 49037.00
1145.749, 49210.00
1146.841, 49143.00
1147.932, 49021.00
1149.024, 48967.00
1150.115, 49050.00
1151.206, 49146.00
1152.297, 48941.00
1153.388, 49067.00
1154.479, 48879.00
1155.569, 49110.00
1156.659, 49195.00
1157.750, 49255.00
1158.839, 49432.00
1159.929, 49056.00
1161.019, 49313.00
1162.108, 49264.00
1163.198, 49282.00
1164.287, 49330.00
1165.376, 49212.00
1166.465, 49357.00
1167.553, 49554.00
1168.642, 49271.00
1169.730, 49326.00
1170.818, 49309.00
1171.906, 49599.00
1172.994, 49201.00
1174.082, 49531.00
1175.170, 49511.00
1176.257, 49764.00
1177.344, 49780.00
1178.431, 49627.00
1179.518, 49716.00
1180.605, 49848.00
1181.691, 49942.00
1182.778, 49623.00
1183.864, 49588.00
1184.950, 49682.00
1186.036, 49937.00
1187.122, 49984.00
1188.207, 49966.00
1189.292, 49884.00
1190.378, 50083.00
1191.463, 50078.00
1192.548, 50015.00
1193.632, 49957.00
1194.717, 50103.00
1195.801, 49816.00
1196.886, 49873.00
1197.970, 50193.00
1199.054, 50159.00
1200.137, 50403.00
1201.221, 50258.00
1202.305, 50295.00
1203.388, 50333.00
1204.471, 50505.00
1205.554, 50588.00
1206.637, 50603.36
1207.719, 50473.00
1208.802, 50505.00
1209.884, 50548.00
1210.966, 50260.00
1212.048, 50646.00
1213.130, 50702.00
1214.212, 50381.00
1215.293, 50816.00
1216.374, 50632.00
1217.456, 50568.00
1218.536, 50640.00
1219.617, 50615.00
1220.698, 50592.00
1221.778, 50851.00
1222.859, 51025.00
1223.939, 51001.38
1225.019, 50712.00
1226.099, 50889.00
1227.178, 50968.00
1228.258, 50664.00
1229.337, 50923.00
1230.417, 50855.00
1231.496, 51115.00
1232.574, 50627.00
1233.653, 50952.00
1234.732, 50879.00
1235.810, 50954.00
1236.888, 51106.00
1237.966, 51082.00
1239.044, 51148.00
1240.122, 51358.00
1241.199, 51204.00
1242.277, 51356.00
1243.354, 51113.00
1244.431, 51393.00
1245.508, 51112.00
1246.585, 51412.00
1247.661, 51478.00
1248.738, 51372.00
1249.814, 51232.00
1250.890, 51177.00
1251.966, 51226.00
1253.042, 51535.00
1254.117, 51376.00
1255.193, 51461.00
1256.268, 51368.00
1257.343, 51518.00
1258.418, 51142.00
1259.493, 51528.00
1260.567, 51274.00
1261.642, 51472.00
1262.716, 51736.00
1263.790, 51789.00
1264.864, 51967.00
1265.938, 51895.00
1267.011, 51650.00
1268.085, 51818.00
1269.158, 51780.00
1270.231, 51589.00
1271.304, 51661.00
1272.377, 51659.00
1273.450, 51698.93
1274.522, 51750.97
1275.594, 51878.00
1276.666, 51843.00
1277.738, 51893.00
1278.810, 51923.00
1279.882, 51929.00
1280.953, 52040.00
1282.025, 52098.00
1283.096, 52086.00
1284.167, 52026.00
1285.238, 52239.00
1286.308, 51993.00
1287.379, 52192.00
1288.449, 51882.00
1289.519, 52273.00
1290.589, 52231.00
1291.659, 52274.00
1292.729, 52454.00
1293.798, 52446.00
1294.868, 52672.00
1295.937, 52493.00
1297.006, 52812.00
1298.075, 52612.00
1299.143, 52676.00
1300.212, 52328.00
1301.280, 52760.00
1302.348, 52535.00
1303.416, 52649.00
1304.484, 52639.00
1305.552, 52576.00
1306.620, 52750.00
1307.687, 52909.00
1308.754, 52562.00
1309.821, 52745.00
1310.888, 52528.00
1311.955, 52926.00
1313.021, 53182.00
1314.088, 52829.00
1315.154, 52776.00
1316.220, 52848.00
1317.286, 52974.00
1318.352, 53171.00
1319.417, 53017.00
1320.483, 53290.00
1321.548, 52977.00
1322.613, 52963.00
1323.678, 53331.00
1324.743, 53048.00
1325.807, 53227.00
1326.872, 53280.00
1327.936, 53317.00
1329.000, 53676.00
1330.064, 53494.00
1331.128, 53220.00
1332.191, 53441.00
1333.255, 53280.00
1334.318, 53447.00
1335.381, 53168.00
1336.444, 53405.00
1337.507, 53508.00
1338.569, 53588.00
1339.632, 53728.00
1340.694, 53479.00
1341.756, 53607.00
1342.818, 54109.00
1343.880, 53493.00
1344.941, 53675.00
1346.003, 53982.00
1347.064, 53611.00
1348.125, 53954.00
1349.186, 53714.00
1350.247, 53775.00
1351.308, 53623.00
1352.368, 54062.00
1353.428, 53848.00
1354.489, 53927.00
1355.549, 53765.00
1356.608, 54059.00
1357.668, 53912.00
1358.727, 54019.00
1359.787, 54199.00
1360.846, 53873.00
1361.905, 54134.00
1362.964, 54244.00
1364.022, 53992.00
1365.081, 54223.00
1366.139, 54402.00
1367.197, 54337.00
1368.255, 54303.00
1369.313, 54260.00
1370.371, 54392.00
1371.428, 54414.00
1372.486, 54262.00
1373.543, 54330.00
1374.600, 54203.00
1375.657, 54202.05
1376.713, 54444.00
1377.770, 54200.00
1378.826, 54371.00
1379.882, 54417.00
1380.938, 54803.00
1381.994, 54549.00
1383.050, 54692.00
1384.106, 54399.00
1385.161, 54730.00
1386.216, 54619.00
1387.271, 54552.00
1388.326, 54708.00
1389.381, 54495.00
1390.435, 54888.00
1391.490, 54852.00
1392.544, 54731.00
1393.598, 54512.00
1394.652, 54596.80
1395.705, 54526.00
1396.759, 54762.00
1397.812, 54735.00
1398.866, 54967.00
1399.919, 54834.00
1400.972, 54663.00
1402.024, 54807.00
1403.077, 54825.00
1404.129, 54903.00
1405.181, 54968.11
1406.233, 54983.93
1407.285, 55044.00
1408.337, 55051.00
1409.389, 55028.00
1410.440, 55102.00
1411.491, 55117.00
1412.542, 55209.00
1413.593, 55212.35
1414.644, 55063.00
1415.695, 55243.00
1416.745, 55242.00
1417.795, 55276.00
1418.845, 55424.00
1419.895, 55229.00
1420.945, 55441.00
1421.995, 55086.00
1423.044, 55146.00
1424.093, 55299.00
1425.142, 55665.00
1426.191, 55405.00
1427.240, 55446.00
1428.289, 55618.00
1429.337, 55448.00
1430.385, 55673.00
1431.433, 55697.00
1432.481, 55890.00
1433.529, 55758.00
1434.577, 55903.00
1435.624, 55747.00
1436.672, 55681.00
1437.719, 55926.00
1438.766, 55997.00
1439.812, 55972.00
1440.859, 56060.00
1441.905, 56029.57
1442.952, 56228.00
1443.998, 56052.00
1445.044, 56050.00
1446.090, 56202.00
1447.135, 56023.00
1448.181, 56098.00
1449.226, 56241.00
1450.271, 56418.00
1451.316, 56153.00
1452.361, 56219.00
1453.405, 56083.00
1454.450, 56281.00
1455.494, 56434.00
1456.538, 56305.00
1457.582, 56424.00
1458.626, 56287.00
1459.670, 56618.00
1460.713, 56446.00
1461.757, 56109.00
1462.800, 56327.00
1463.843, 56604.00
1464.886, 56466.00
1465.928, 56481.00
1466.971, 56585.00
1468.013, 56486.00
1469.055, 56410.00
1470.097, 56667.00
1471.139, 56382.00
1472.181, 56330.00
1473.222, 56565.00
1474.263, 56433.00
1475.305, 56845.00
1476.346, 56729.00
1477.386, 56647.00
1478.427, 56867.00
1479.468, 56539.00
1480.508, 56713.00
1481.548, 56687.00
1482.588, 56897.00
1483.628, 56886.00
1484.668, 56849.00
1485.707, 56800.00
1486.747, 56865.00
1487.786, 57112.00
1488.825, 57044.00
1489.864, 56957.00
1490.902, 56977.00
1491.941, 57372.00
1492.979, 56960.00
1494.017, 57236.00
1495.055, 57054.00
1496.093, 56981.00
1497.131, 56951.00
1498.168, 57040.00
1499.206, 57123.00
1500.243, 57146.00
1501.280, 57429.00
1502.317, 57432.00
1503.354, 57378.00
1504.390, 57659.00
1505.426, 57470.00
1506.463, 57510.45
1507.499, 57411.00
1508.535, 57371.00
1509.570, 57374.00
1510.606, 57234.00
1511.641, 57255.00
1512.676, 57400.00
1513.711, 57273.00
1514.746, 57733.00
1515.781, 57390.00
1516.816, 57799.00
1517.850, 57366.00
1518.884, 57839.00
1519.918, 57424.00
1520.952, 57627.00
1521.986, 58009.00
1523.019, 57436.00
1524.053, 57608.00
1525.086, 57774.00
1526.119, 57594.00
1527.152, 57512.00
1528.185, 57548.00
1529.217, 57835.00
1530.250, 57829.00
1531.282, 57833.00
1532.314, 57820.00
1533.346, 57874.87
1534.377, 58054.00
1535.409, 58047.00
1536.440, 58098.00
1537.472, 58302.00
1538.503, 57985.00
1539.534, 57965.00
1540.564, 57737.00
1541.595, 58240.00
1542.625, 57962.00
1543.656, 58333.00
1544.686, 57991.00
1545.716, 58260.00
1546.745, 58146.00
1547.775, 58194.00
1548.804, 58061.00
1549.834, 58167.00
1550.863, 58425.00
1551.892, 58245.00
1552.920, 58108.00
1553.949, 58346.00
1554.977, 58327.00
1556.006, 58437.00
1557.034, 58437.00
1558.062, 58351.00
1559.089, 58562.00
1560.117, 58497.00
1561.144, 58569.00
1562.172, 58620.00
1563.199, 58463.00
1564.226, 58414.00
1565.252, 58358.00
1566.279, 58325.00
1567.305, 58625.00
1568.332, 58527.00
1569.358, 58672.00
1570.384, 58317.00
1571.409, 58421.00
1572.435, 58945.00
##END=



