##NAMES=Clinoptilolite-Ca
##RRUFFID=R060662
##IDEAL CHEMISTRY=Ca_3_(Si_30_Al_6_)O_72_&#183;20H_2_O
##LOCALITY=Succor Creek, Malheur County, Oregon, USA
##OWNER=RRUFF
##SOURCE=Michael Scott
##DESCRIPTION=Group of colorless platy prismatic crystals
##STATUS=The identification of this mineral has been confirmed by X-ray diffraction and chemical analysis
##URL=rruff.info/R060662
##MEASURED CHEMISTRY=(Ca_1.02_Na_0.97_K_0.59_)_Σ=2.58_(Si_14.40_Al_3.60_)_Σ=18_O_36_·10.96H_2_O
##PIN_ID=M00063
##ORIENTATION=Laser parallel to -a* (-1 0 0). Fiducial mark perpendicular to laser is parallel to b [0 1 0]
134.1270, 33470.00
135.3560, 33448.00
136.5850, 33235.00
137.8140, 33213.00
139.0430, 33173.00
140.2710, 33052.00
141.5000, 32891.00
142.7280, 32824.00
143.9560, 32677.94
145.1840, 32540.00
146.4120, 32468.00
147.6390, 32405.00
148.8670, 32381.00
150.0940, 32112.00
151.3210, 32210.00
152.5490, 31864.00
153.7750, 31466.00
155.0020, 31138.00
156.2290, 31130.00
157.4550, 30314.00
158.6810, 30164.00
159.9080, 29368.00
161.1340, 28958.00
162.3590, 28356.00
163.5850, 27859.00
164.8110, 27434.00
166.0360, 26887.53
167.2610, 26164.00
168.4860, 25854.00
169.7110, 25455.00
170.9360, 24836.00
172.1610, 24495.00
173.3850, 24251.00
174.6100, 24082.00
175.8340, 23627.00
177.0580, 23448.00
178.2820, 23459.00
179.5050, 23208.00
180.7290, 23177.00
181.9520, 23166.00
183.1760, 23165.00
184.3990, 23382.00
185.6220, 23573.00
186.8450, 23700.13
188.0670, 24007.00
189.2900, 24032.00
190.5120, 24178.00
191.7340, 24286.00
192.9560, 24232.00
194.1780, 24413.00
195.4000, 24136.00
196.6220, 24182.00
197.8430, 23977.00
199.0640, 23890.00
200.2860, 23590.00
201.5070, 23416.00
202.7270, 23001.00
203.9480, 22407.00
205.1690, 21859.00
206.3890, 21343.00
207.6090, 20988.00
208.8290, 20627.00
210.0490, 20291.00
211.2690, 20002.15
212.4890, 19743.15
213.7080, 19471.00
214.9280, 19321.00
216.1470, 19095.25
217.3660, 18937.00
218.5850, 18647.00
219.8030, 18380.00
221.0220, 18140.00
222.2400, 18143.00
223.4590, 17960.00
224.6770, 17971.00
225.8950, 17947.00
227.1120, 17884.00
228.3300, 17961.00
229.5480, 17952.00
230.7650, 17849.00
231.9820, 18164.00
233.1990, 18280.00
234.4160, 18373.00
235.6330, 18358.00
236.8490, 18413.00
238.0660, 18671.00
239.2820, 18725.00
240.4980, 18970.00
241.7140, 19017.00
242.9300, 19248.00
244.1460, 19253.00
245.3610, 19418.00
246.5770, 19741.00
247.7920, 19784.00
249.0070, 19868.00
250.2220, 20024.41
251.4370, 20161.00
252.6510, 20255.00
253.8660, 20449.00
255.0800, 20670.00
256.2940, 20647.00
257.5080, 20768.00
258.7220, 20807.78
259.9360, 20853.91
261.1490, 20853.00
262.3630, 20978.00
263.5760, 21022.00
264.7890, 21115.00
266.0020, 21088.00
267.2150, 21207.00
268.4270, 21162.00
269.6400, 21112.00
270.8520, 21105.00
272.0640, 21056.00
273.2760, 21130.00
274.4880, 21199.00
275.7000, 21200.00
276.9120, 21144.00
278.1230, 21026.00
279.3340, 21044.00
280.5450, 20956.00
281.7560, 20845.00
282.9670, 20780.00
284.1780, 20866.00
285.3880, 20742.00
286.5980, 20543.00
287.8090, 20590.00
289.0190, 20380.00
290.2290, 20371.00
291.4380, 20301.00
292.6480, 20275.00
293.8570, 20203.28
295.0670, 20140.25
296.2760, 20070.00
297.4850, 19999.00
298.6930, 19972.75
299.9020, 19903.00
301.1110, 20051.00
302.3190, 20077.00
303.5270, 20126.00
304.7350, 20012.00
305.9430, 20151.00
307.1510, 20090.00
308.3580, 20199.00
309.5660, 20129.00
310.7730, 20336.00
311.9800, 20238.00
313.1870, 20414.00
314.3940, 20484.00
315.6010, 20438.00
316.8070, 20685.00
318.0130, 20864.00
319.2200, 21031.00
320.4260, 21113.00
321.6310, 21131.00
322.8370, 21318.00
324.0430, 21304.00
325.2480, 21512.00
326.4540, 21651.00
327.6590, 21745.00
328.8640, 21745.00
330.0680, 21717.00
331.2730, 21711.00
332.4780, 21956.00
333.6820, 21970.00
334.8860, 21902.00
336.0900, 21940.00
337.2940, 21878.00
338.4980, 22090.00
339.7010, 22074.00
340.9050, 22394.00
342.1080, 22557.00
343.3110, 22500.00
344.5140, 22698.00
345.7170, 22966.00
346.9200, 23034.00
348.1220, 23346.00
349.3240, 23431.00
350.5270, 23517.00
351.7290, 24124.00
352.9310, 24324.00
354.1320, 24707.00
355.3340, 25033.00
356.5350, 25515.00
357.7370, 25972.00
358.9380, 26262.00
360.1390, 27030.00
361.3400, 27381.00
362.5400, 27815.00
363.7410, 28180.00
364.9410, 28846.00
366.1410, 29591.00
367.3410, 29958.00
368.5410, 30795.00
369.7410, 31095.00
370.9400, 31963.00
372.1400, 32491.00
373.3390, 33012.00
374.5380, 33700.00
375.7370, 34263.00
376.9360, 34960.00
378.1350, 35952.00
379.3330, 36653.00
380.5310, 37581.00
381.7300, 38422.00
382.9280, 39414.00
384.1260, 40802.00
385.3230, 42066.00
386.5210, 43421.00
387.7180, 45068.00
388.9160, 46972.00
390.1130, 48691.00
391.3100, 50739.00
392.5060, 52714.00
393.7030, 54677.00
394.9000, 56740.00
396.0960, 58651.00
397.2920, 60482.00
398.4880, 62001.00
399.6840, 63440.00
400.8800, 64432.00
402.0750, 65123.00
403.2710, 65344.59
404.4660, 65210.88
405.6610, 64709.00
406.8560, 63757.00
408.0510, 62593.00
409.2450, 60891.00
410.4400, 59039.00
411.6340, 57104.00
412.8280, 54917.00
414.0220, 52953.00
415.2160, 50555.00
416.4100, 48234.00
417.6030, 46484.00
418.7970, 44054.00
419.9900, 41839.00
421.1830, 40236.00
422.3760, 38362.00
423.5690, 36188.00
424.7610, 34611.00
425.9540, 32909.00
427.1460, 31526.00
428.3380, 30236.22
429.5300, 28995.00
430.7220, 27893.65
431.9140, 26936.00
433.1050, 25934.00
434.2970, 25138.00
435.4880, 24386.00
436.6790, 23947.00
437.8700, 23354.00
439.0610, 22886.00
440.2510, 22364.00
441.4420, 22319.00
442.6320, 22130.00
443.8220, 21935.00
445.0120, 21857.00
446.2020, 21965.00
447.3910, 22093.00
448.5810, 22129.00
449.7700, 22512.00
450.9600, 22815.00
452.1490, 23257.00
453.3370, 23834.00
454.5260, 24517.00
455.7150, 25482.00
456.9030, 26502.00
458.0910, 27372.00
459.2800, 28337.00
460.4670, 29160.00
461.6550, 30169.00
462.8430, 31169.00
464.0300, 31850.00
465.2180, 32653.00
466.4050, 33361.00
467.5920, 33752.00
468.7790, 34618.00
469.9650, 35706.00
471.1520, 36420.00
472.3380, 37648.00
473.5250, 38785.00
474.7110, 40342.00
475.8970, 41807.00
477.0820, 43421.00
478.2680, 44850.00
479.4540, 46009.00
480.6390, 46727.00
481.8240, 47037.00
483.0090, 46702.00
484.1940, 45743.00
485.3780, 43891.00
486.5630, 41830.00
487.7470, 39626.00
488.9320, 36727.00
490.1160, 34430.00
491.3000, 31979.00
492.4830, 29630.00
493.6670, 27417.00
494.8500, 25512.00
496.0340, 23882.00
497.2170, 22517.00
498.4000, 21296.00
499.5820, 20210.00
500.7650, 19389.00
501.9480, 18665.00
503.1300, 18045.00
504.3120, 17571.00
505.4940, 17146.00
506.6760, 16860.00
507.8580, 16315.00
509.0390, 16189.00
510.2210, 15911.00
511.4020, 15832.00
512.5830, 15516.00
513.7640, 15519.00
514.9450, 15244.00
516.1250, 15220.00
517.3060, 15101.00
518.4860, 14967.00
519.6660, 14966.00
520.8460, 14692.00
522.0260, 14667.00
523.2060, 14589.00
524.3850, 14401.00
525.5650, 14485.00
526.7440, 14342.00
527.9230, 14318.00
529.1020, 14222.00
530.2810, 14189.00
531.4590, 14222.00
532.6380, 14125.00
533.8160, 14161.00
534.9940, 13860.00
536.1720, 13908.00
537.3500, 13799.00
538.5270, 13928.00
539.7050, 13763.00
540.8820, 13844.00
542.0590, 13970.00
543.2360, 13744.00
544.4130, 13606.00
545.5900, 13729.00
546.7660, 13560.00
547.9430, 13491.00
549.1190, 13518.00
550.2950, 13510.00
551.4710, 13552.00
552.6470, 13545.00
553.8220, 13541.00
554.9980, 13515.00
556.1730, 13392.00
557.3480, 13411.00
558.5230, 13405.00
559.6980, 13528.00
560.8730, 13500.36
562.0470, 13404.00
563.2220, 13502.00
564.3960, 13491.00
565.5700, 13455.00
566.7440, 13488.00
567.9170, 13742.00
569.0910, 13620.00
570.2640, 13553.00
571.4380, 13496.00
572.6110, 13783.00
573.7840, 13635.00
574.9570, 13754.00
576.1290, 13772.00
577.3020, 13680.00
578.4740, 13847.00
579.6460, 13938.00
580.8180, 14026.00
581.9900, 14031.00
583.1620, 14109.00
584.3330, 14078.00
585.5040, 14112.00
586.6760, 14302.00
587.8470, 14469.00
589.0180, 14392.00
590.1880, 14555.00
591.3590, 14547.00
592.5290, 14777.00
593.7000, 14874.00
594.8700, 14961.00
596.0400, 15172.00
597.2090, 15405.00
598.3790, 15654.00
599.5490, 15837.00
600.7180, 16064.00
601.8870, 16443.00
603.0560, 16798.00
604.2250, 17227.00
605.3940, 17537.00
606.5620, 17862.70
607.7300, 18089.00
608.8990, 18394.00
610.0670, 18728.00
611.2350, 18878.86
612.4020, 18967.00
613.5700, 19012.00
614.7370, 19041.00
615.9050, 18894.00
617.0720, 18849.00
618.2390, 18677.00
619.4060, 18291.00
620.5720, 18047.00
621.7390, 17863.00
622.9050, 17592.00
624.0710, 17223.00
625.2370, 16925.00
626.4030, 16649.00
627.5690, 16298.00
628.7340, 15807.00
629.9000, 15662.00
631.0650, 15351.00
632.2300, 15256.00
633.3950, 15094.00
634.5600, 14969.00
635.7240, 14771.00
636.8890, 14587.00
638.0530, 14331.00
639.2170, 14242.00
640.3810, 14079.00
641.5450, 13939.64
642.7080, 13928.00
643.8720, 13742.00
645.0350, 13661.00
646.1980, 13645.00
647.3610, 13533.00
648.5240, 13428.00
649.6870, 13471.00
650.8490, 13483.00
652.0120, 13312.00
653.1740, 13329.00
654.3360, 13378.00
655.4980, 13312.00
656.6600, 13144.00
657.8210, 13159.00
658.9830, 13143.00
660.1440, 13026.00
661.3050, 13062.00
662.4660, 13136.00
663.6270, 13070.00
664.7870, 12876.00
665.9480, 12907.00
667.1080, 12935.00
668.2680, 12974.00
669.4280, 12909.00
670.5880, 12828.00
671.7480, 12823.00
672.9070, 12762.00
674.0670, 12853.00
675.2260, 12847.00
676.3850, 12780.00
677.5440, 12795.00
678.7030, 12647.00
679.8610, 12649.00
681.0200, 12617.00
682.1780, 12644.00
683.3360, 12654.00
684.4940, 12649.64
685.6520, 12774.00
686.8090, 12674.00
687.9670, 12694.00
689.1240, 12738.00
690.2810, 12653.00
691.4380, 12668.58
692.5950, 12548.00
693.7520, 12663.00
694.9080, 12622.00
696.0650, 12725.00
697.2210, 12585.00
698.3770, 12610.00
699.5330, 12613.00
700.6880, 12718.00
701.8440, 12882.00
702.9990, 12652.00
704.1550, 12798.00
705.3100, 12652.00
706.4650, 12755.00
707.6190, 12612.00
708.7740, 12732.00
709.9290, 12762.00
711.0830, 12827.00
712.2370, 12678.00
713.3910, 12602.00
714.5450, 12710.00
715.6980, 12838.00
716.8520, 12680.00
718.0050, 12788.00
719.1580, 12647.00
720.3110, 12746.00
721.4640, 12623.00
722.6170, 12748.00
723.7700, 12821.00
724.9220, 12713.00
726.0740, 12586.00
727.2260, 12770.00
728.3780, 12658.00
729.5300, 12722.00
730.6810, 12671.00
731.8330, 12643.00
732.9840, 12622.00
734.1350, 12503.00
735.2860, 12676.00
736.4370, 12570.00
737.5880, 12732.00
738.7380, 12569.00
739.8880, 12601.00
741.0390, 12649.00
742.1890, 12684.00
743.3380, 12662.09
744.4880, 12697.00
745.6380, 12680.50
746.7870, 12658.00
747.9360, 12659.00
749.0850, 12654.17
750.2340, 12657.00
751.3830, 12695.00
752.5310, 12703.00
753.6800, 12742.00
754.8280, 12743.00
755.9760, 12893.00
757.1240, 12944.00
758.2720, 12981.00
759.4190, 12999.00
760.5670, 13021.63
761.7140, 13019.11
762.8610, 13046.00
764.0080, 13031.22
765.1550, 13054.50
766.3020, 13131.00
767.4480, 13140.00
768.5950, 13256.00
769.7410, 13241.00
770.8870, 13192.00
772.0330, 13324.00
773.1780, 13369.00
774.3240, 13451.00
775.4690, 13468.03
776.6140, 13451.00
777.7590, 13460.00
778.9040, 13392.00
780.0490, 13373.00
781.1940, 13415.00
782.3380, 13323.00
783.4820, 13349.00
784.6260, 13384.00
785.7700, 13314.99
786.9140, 13305.00
788.0580, 13218.00
789.2010, 13202.00
790.3450, 13112.00
791.4880, 13121.00
792.6310, 13134.00
793.7730, 12992.00
794.9160, 12853.00
796.0590, 12851.00
797.2010, 12881.00
798.3430, 12787.00
799.4850, 12803.00
800.6270, 12744.00
801.7690, 12646.00
802.9100, 12674.00
804.0520, 12666.00
805.1930, 12570.00
806.3340, 12599.00
807.4750, 12737.00
808.6160, 12632.00
809.7560, 12640.00
810.8970, 12565.00
812.0370, 12593.00
813.1770, 12649.00
814.3170, 12588.00
815.4570, 12747.00
816.5960, 12678.00
817.7360, 12729.00
818.8750, 12713.00
820.0140, 12666.00
821.1530, 12531.00
822.2920, 12503.00
823.4310, 12556.00
824.5690, 12282.00
825.7070, 12371.00
826.8460, 12166.00
827.9840, 12130.00
829.1220, 12076.00
830.2590, 12124.00
831.3970, 12131.00
832.5340, 12078.00
833.6710, 12052.00
834.8080, 12003.00
835.9450, 11943.00
837.0820, 12022.00
838.2190, 12098.00
839.3550, 12014.00
840.4910, 11857.00
841.6270, 11790.00
842.7630, 11955.00
843.8990, 11877.00
845.0350, 12061.00
846.1700, 12061.00
847.3060, 11976.00
848.4410, 12002.00
849.5760, 11946.00
850.7100, 11895.00
851.8450, 11876.00
852.9800, 11959.00
854.1140, 11935.00
855.2480, 11862.00
856.3820, 12019.00
857.5160, 11928.00
858.6500, 11849.00
859.7830, 12048.00
860.9170, 11865.00
862.0500, 11959.00
863.1830, 12007.00
864.3160, 11925.00
865.4480, 11935.00
866.5810, 11947.00
867.7130, 11912.00
868.8460, 11877.00
869.9780, 11974.00
871.1100, 11943.00
872.2410, 11845.00
873.3730, 11770.00
874.5050, 11891.00
875.6360, 12056.00
876.7670, 11867.00
877.8980, 12098.00
879.0290, 11794.00
880.1590, 11971.00
881.2900, 11814.00
882.4200, 11920.00
883.5500, 11875.00
884.6800, 11889.00
885.8100, 11788.00
886.9400, 11890.00
888.0690, 11915.00
889.1990, 11881.00
890.3280, 11982.00
891.4570, 11968.00
892.5860, 11985.00
893.7140, 11892.00
894.8430, 11821.00
895.9710, 11937.00
897.1000, 11979.00
898.2280, 11808.00
899.3560, 11822.00
900.4830, 11933.00
901.6110, 11937.00
902.7380, 11869.00
903.8660, 11957.00
904.9930, 11887.00
906.1200, 11900.00
907.2460, 11920.25
908.3730, 12043.00
909.5000, 11930.00
910.6260, 11879.00
911.7520, 11858.00
912.8780, 11994.00
914.0040, 11997.00
915.1290, 12051.00
916.2550, 11952.00
917.3800, 11961.00
918.5050, 12007.00
919.6300, 12081.00
920.7550, 12066.00
921.8800, 12090.00
923.0040, 12171.00
924.1290, 12038.00
925.2530, 12122.00
926.3770, 12117.00
927.5010, 12003.00
928.6250, 12107.00
929.7480, 12074.00
930.8720, 12036.00
931.9950, 12199.00
933.1180, 12195.00
934.2410, 12084.00
935.3640, 12279.00
936.4860, 12025.00
937.6090, 12188.00
938.7310, 12260.00
939.8530, 12367.00
940.9750, 12134.00
942.0970, 12129.00
943.2180, 12309.00
944.3400, 12227.00
945.4610, 12277.00
946.5820, 12151.00
947.7030, 12296.00
948.8240, 12423.00
949.9450, 12349.00
951.0650, 12386.00
952.1860, 12396.00
953.3060, 12419.00
954.4260, 12367.00
955.5460, 12507.00
956.6650, 12424.00
957.7850, 12543.00
958.9040, 12455.00
960.0230, 12514.00
961.1420, 12709.00
962.2610, 12663.00
963.3800, 12558.00
964.4990, 12626.00
965.6170, 12577.00
966.7350, 12639.00
967.8530, 12536.00
968.9710, 12638.00
970.0890, 12685.00
971.2070, 12801.00
972.3240, 12700.00
973.4410, 12809.00
974.5580, 12801.00
975.6750, 12921.00
976.7920, 12741.00
977.9090, 13057.00
979.0250, 13008.00
980.1410, 12833.00
981.2580, 12833.00
982.3740, 13006.00
983.4890, 12994.00
984.6050, 12960.00
985.7200, 13087.00
986.8360, 13037.00
987.9510, 13158.00
989.0660, 13275.00
990.1810, 13311.00
991.2950, 13158.00
992.4100, 13329.00
993.5240, 13301.00
994.6390, 13205.00
995.7530, 13486.00
996.8660, 13348.00
997.9800, 13386.00
999.0940, 13637.00
1000.207, 13400.00
1001.320, 13524.00
1002.433, 13775.00
1003.546, 13623.00
1004.659, 13732.00
1005.772, 13750.00
1006.884, 13745.00
1007.996, 13896.00
1009.108, 13871.00
1010.220, 13764.00
1011.332, 13835.00
1012.444, 14020.00
1013.555, 13848.00
1014.666, 13948.00
1015.777, 14033.00
1016.888, 13957.00
1017.999, 14100.00
1019.110, 14132.00
1020.220, 14052.00
1021.331, 14176.00
1022.441, 14115.00
1023.551, 14169.00
1024.661, 14131.00
1025.770, 14111.00
1026.880, 14319.00
1027.989, 14192.00
1029.098, 14382.00
1030.207, 14189.00
1031.316, 14391.00
1032.425, 14331.00
1033.533, 14308.00
1034.642, 14339.00
1035.750, 14361.00
1036.858, 14339.62
1037.966, 14417.00
1039.073, 14295.00
1040.181, 14333.00
1041.288, 14276.54
1042.396, 14465.00
1043.503, 14307.00
1044.610, 14434.00
1045.716, 14474.00
1046.823, 14370.00
1047.929, 14532.00
1049.036, 14410.00
1050.142, 14470.00
1051.248, 14773.00
1052.353, 14392.00
1053.459, 14321.00
1054.564, 14163.00
1055.670, 14383.00
1056.775, 14290.00
1057.880, 14296.00
1058.985, 14201.00
1060.089, 14297.00
1061.194, 14255.00
1062.298, 14343.00
1063.402, 14258.00
1064.506, 14377.00
1065.610, 14295.00
1066.713, 14480.00
1067.817, 14323.00
1068.920, 14343.00
1070.023, 14494.00
1071.126, 14222.00
1072.229, 14406.00
1073.332, 14451.00
1074.435, 14373.00
1075.537, 14530.00
1076.639, 14588.00
1077.741, 14559.00
1078.843, 14653.00
1079.945, 14619.00
1081.046, 14740.00
1082.148, 14859.00
1083.249, 14845.00
1084.350, 14895.00
1085.451, 15131.00
1086.551, 15322.00
1087.652, 15425.00
1088.752, 15541.00
1089.853, 15633.00
1090.953, 15706.78
1092.053, 15773.00
1093.152, 15901.00
1094.252, 15996.00
1095.351, 16085.96
1096.451, 16197.03
1097.550, 16297.00
1098.649, 16416.00
1099.748, 16575.00
1100.846, 16729.00
1101.945, 16695.00
1103.043, 16876.00
1104.141, 16825.00
1105.239, 17093.00
1106.337, 17141.00
1107.434, 17300.00
1108.532, 17401.00
1109.629, 17324.00
1110.726, 17523.00
1111.823, 17509.00
1112.920, 17436.00
1114.017, 17616.00
1115.113, 17870.00
1116.210, 17847.00
1117.306, 17855.00
1118.402, 18052.00
1119.498, 18039.00
1120.593, 18070.00
1121.689, 18238.00
1122.784, 18180.00
1123.879, 18254.00
1124.974, 18278.00
1126.069, 18099.00
1127.164, 18212.00
1128.259, 18238.00
1129.353, 18245.00
1130.447, 18331.00
1131.541, 18192.00
1132.635, 18204.00
1133.729, 18412.00
1134.822, 18247.00
1135.916, 18428.00
1137.009, 18424.00
1138.102, 18412.53
1139.195, 18388.00
1140.288, 18443.00
1141.380, 18440.00
1142.473, 18472.00
1143.565, 18375.00
1144.657, 18456.00
1145.749, 18507.00
1146.841, 18606.00
1147.932, 18664.00
1149.024, 18717.00
1150.115, 18740.11
1151.206, 18740.00
1152.297, 18742.00
1153.388, 18682.00
1154.479, 18668.00
1155.569, 18599.00
1156.659, 18703.00
1157.750, 18535.00
1158.839, 18640.00
1159.929, 18261.00
1161.019, 18473.00
1162.108, 18244.00
1163.198, 18283.00
1164.287, 18260.00
1165.376, 18124.00
1166.465, 17963.00
1167.553, 17886.28
1168.642, 17802.39
1169.730, 17728.00
1170.818, 17668.00
1171.906, 17752.00
1172.994, 17628.00
1174.082, 17752.00
1175.170, 17415.00
1176.257, 17280.00
1177.344, 17195.00
1178.431, 17137.00
1179.518, 16890.00
1180.605, 16905.00
1181.691, 16668.00
1182.778, 16572.00
1183.864, 16550.00
1184.950, 16502.00
1186.036, 16184.00
1187.122, 16378.00
1188.207, 16591.00
1189.292, 16015.00
1190.378, 15805.00
1191.463, 15759.00
1192.548, 15535.00
1193.632, 15393.00
1194.717, 15362.00
1195.801, 15323.00
1196.886, 15095.00
1197.970, 14863.00
1199.054, 14858.00
1200.137, 14807.00
1201.221, 14657.00
1202.305, 14460.00
1203.388, 14415.64
1204.471, 14282.00
1205.554, 14251.00
1206.637, 14162.00
1207.719, 14075.00
1208.802, 13914.00
1209.884, 13927.00
1210.966, 13799.48
1212.048, 13873.00
1213.130, 13635.00
1214.212, 13677.00
1215.293, 13611.00
1216.374, 13683.00
1217.456, 13598.00
1218.536, 13472.00
1219.617, 13503.00
1220.698, 13562.00
1221.778, 13532.00
1222.859, 13510.58
1223.939, 13479.83
1225.019, 13377.00
1226.099, 13375.00
1227.178, 13263.00
1228.258, 13227.00
1229.337, 13328.00
1230.417, 13375.00
1231.496, 13336.00
1232.574, 13126.00
1233.653, 13143.00
1234.732, 13183.00
1235.810, 13124.00
1236.888, 13213.00
1237.966, 13018.00
1239.044, 13183.00
1240.122, 13168.00
1241.199, 12943.00
1242.277, 13106.00
1243.354, 13077.00
1244.431, 13193.00
1245.508, 13080.00
1246.585, 13172.00
1247.661, 13047.00
1248.738, 13064.00
1249.814, 12979.00
1250.890, 12997.00
1251.966, 12990.00
1253.042, 13033.00
1254.117, 13059.00
1255.193, 13244.00
1256.268, 12992.00
1257.343, 12987.00
1258.418, 12872.00
1259.493, 13115.00
1260.567, 13028.00
1261.642, 13042.00
1262.716, 13076.00
1263.790, 13085.00
1264.864, 12948.00
1265.938, 13083.00
1267.011, 12874.00
1268.085, 13123.00
1269.158, 13023.00
1270.231, 12989.00
1271.304, 13086.00
1272.377, 13100.00
1273.450, 13183.00
1274.522, 13173.10
1275.594, 13024.00
1276.666, 13112.00
1277.738, 13072.00
1278.810, 12973.00
1279.882, 13024.00
1280.953, 13111.00
1282.025, 13074.00
1283.096, 13077.00
1284.167, 13142.00
1285.238, 13067.00
1286.308, 13137.00
1287.379, 13080.00
1288.449, 13209.00
1289.519, 13209.00
1290.589, 13095.00
1291.659, 13094.00
1292.729, 13076.00
1293.798, 13248.00
1294.868, 13077.00
1295.937, 13219.00
1297.006, 13165.00
1298.075, 13087.00
1299.143, 13162.00
1300.212, 13111.00
1301.280, 13060.00
1302.348, 13037.00
1303.416, 13045.05
1304.484, 13057.75
1305.552, 13104.00
1306.620, 13120.00
1307.687, 13164.00
1308.754, 13166.00
1309.821, 13075.00
1310.888, 13295.00
1311.955, 13209.00
1313.021, 13392.00
1314.088, 13001.00
1315.154, 13218.00
1316.220, 13264.00
1317.286, 13065.00
1318.352, 13209.00
1319.417, 13299.00
1320.483, 13203.00
1321.548, 13093.00
1322.613, 13239.00
1323.678, 13270.00
1324.743, 13111.00
1325.807, 13303.00
1326.872, 13080.00
1327.936, 13208.00
1329.000, 13171.00
1330.064, 13203.00
1331.128, 13165.00
1332.191, 13309.00
1333.255, 13280.00
1334.318, 13308.14
1335.381, 13297.00
1336.444, 13280.00
1337.507, 13287.00
1338.569, 13255.31
1339.632, 13344.00
1340.694, 13227.00
1341.756, 13198.00
1342.818, 13237.00
1343.880, 13302.00
1344.941, 13232.00
1346.003, 13281.00
1347.064, 13250.00
1348.125, 13296.00
1349.186, 13234.00
1350.247, 13247.00
1351.308, 13371.00
1352.368, 13303.00
1353.428, 13355.49
1354.489, 13389.00
1355.549, 13353.00
1356.608, 13377.33
1357.668, 13223.00
1358.727, 13354.00
1359.787, 13270.00
1360.846, 13240.00
1361.905, 13372.00
1362.964, 13365.00
1364.022, 13373.00
1365.081, 13280.00
1366.139, 13335.00
1367.197, 13452.00
1368.255, 13400.00
1369.313, 13448.36
1370.371, 13390.00
1371.428, 13442.00
1372.486, 13350.00
1373.543, 13335.00
1374.600, 13459.00
1375.657, 13513.00
1376.713, 13379.00
1377.770, 13322.00
1378.826, 13453.00
1379.882, 13289.00
1380.938, 13392.00
1381.994, 13319.00
1383.050, 13334.00
1384.106, 13490.00
1385.161, 13389.00
1386.216, 13400.00
1387.271, 13478.00
1388.326, 13380.00
1389.381, 13427.55
1390.435, 13417.00
1391.490, 13473.00
1392.544, 13448.00
1393.598, 13562.00
1394.652, 13440.00
1395.705, 13392.00
1396.759, 13469.00
1397.812, 13365.00
1398.866, 13406.00
1399.919, 13419.00
1400.972, 13551.00
1402.024, 13633.00
1403.077, 13506.00
1404.129, 13571.00
1405.181, 13498.00
1406.233, 13468.00
1407.285, 13682.00
1408.337, 13598.00
1409.389, 13621.00
1410.440, 13608.00
1411.491, 13352.00
1412.542, 13409.00
1413.593, 13518.00
1414.644, 13458.00
1415.695, 13590.00
1416.745, 13582.00
1417.795, 13761.00
1418.845, 13580.00
1419.895, 13528.00
1420.945, 13588.00
1421.995, 13640.00
1423.044, 13626.00
1424.093, 13668.00
1425.142, 13571.00
1426.191, 13557.00
1427.240, 13517.00
1428.289, 13555.00
1429.337, 13576.00
1430.385, 13664.00
1431.433, 13641.00
1432.481, 13745.00
1433.529, 13672.00
1434.577, 13737.00
1435.624, 13672.00
1436.672, 13624.00
1437.719, 13688.00
1438.766, 13805.00
1439.812, 13776.00
1440.859, 13843.00
1441.905, 13662.00
1442.952, 13784.00
1443.998, 13715.00
1445.044, 13768.00
1446.090, 13923.00
1447.135, 13773.00
1448.181, 13791.00
1449.226, 13901.00
1450.271, 13854.00
1451.316, 13985.00
1452.361, 13837.00
1453.405, 13737.00
1454.450, 13869.00
1455.494, 13895.00
1456.538, 13851.00
1457.582, 14086.00
1458.626, 13960.00
1459.670, 13967.00
1460.713, 13849.00
1461.757, 13894.00
1462.800, 13943.00
1463.843, 13843.00
1464.886, 13821.00
1465.928, 13891.00
1466.971, 13941.00
1468.013, 13885.00
1469.055, 13983.00
1470.097, 13904.00
1471.139, 13971.00
1472.181, 13846.00
1473.222, 13975.00
1474.263, 13955.00
1475.305, 13875.00
1476.346, 13935.36
1477.386, 14003.00
1478.427, 13899.00
1479.468, 13866.00
1480.508, 13773.00
1481.548, 13939.00
1482.588, 13977.00
1483.628, 14016.00
1484.668, 13987.00
1485.707, 14044.00
1486.747, 14011.43
1487.786, 14013.00
1488.825, 13953.00
1489.864, 14097.00
1490.902, 14059.00
1491.941, 13841.00
1492.979, 13970.00
1494.017, 14000.00
1495.055, 14019.00
1496.093, 14082.00
1497.131, 13982.00
1498.168, 14025.00
1499.206, 14039.00
1500.243, 14022.00
1501.280, 14019.00
1502.317, 14068.00
1503.354, 14080.00
1504.390, 14090.00
1505.426, 14107.86
1506.463, 14043.00
1507.499, 14099.00
1508.535, 14082.00
1509.570, 14033.00
1510.606, 14067.00
1511.641, 14139.00
1512.676, 14140.02
1513.711, 14167.00
1514.746, 14191.00
1515.781, 14272.00
1516.816, 14245.00
1517.850, 14231.00
1518.884, 14168.00
1519.918, 14076.00
1520.952, 14128.00
1521.986, 14169.00
1523.019, 14203.00
1524.053, 14144.00
1525.086, 14231.00
1526.119, 14331.00
1527.152, 14177.00
1528.185, 14200.00
1529.217, 14217.00
1530.250, 14264.00
1531.282, 14279.33
1532.314, 14300.34
1533.346, 14323.00
1534.377, 14328.00
1535.409, 14338.00
1536.440, 14342.00
1537.472, 14151.00
1538.503, 14223.00
1539.534, 14189.00
1540.564, 14237.00
1541.595, 14289.00
1542.625, 14309.66
1543.656, 14465.00
1544.686, 14395.00
1545.716, 14508.00
1546.745, 14542.00
1547.775, 14487.00
1548.804, 14367.00
1549.834, 14465.00
1550.863, 14413.00
1551.892, 14685.00
1552.920, 14488.00
1553.949, 14643.00
1554.977, 14786.00
1556.006, 14562.00
1557.034, 14471.00
1558.062, 14694.00
1559.089, 14504.00
1560.117, 14527.00
1561.144, 14364.00
1562.172, 14546.00
1563.199, 14648.00
1564.226, 14616.00
1565.252, 14673.00
1566.279, 14638.00
1567.305, 14563.00
1568.332, 14730.00
1569.358, 14791.00
1570.384, 14734.00
1571.409, 14746.00
1572.435, 14727.00
##END=



