##NAMES=Clinozoisite
##RRUFFID=R060284
##IDEAL CHEMISTRY=Ca_2_Al_3_(Si_2_O_7_)(SiO_4_)O(OH)
##LOCALITY=near Zagi Mountain, Khaffor Dehri, North-West Frontier Province, Pakistan
##OWNER=RRUFF
##SOURCE=Herb Obodda
##DESCRIPTION=Greenish-brown fragment of a prismatic crystal
##STATUS=The identification of this mineral has been confirmed by X-ray diffraction and chemical analysis
##URL=rruff.info/R060284
##MEASURED CHEMISTRY=Ca_2.00_(Al_0.90_Fe^3+^_0.10_)_3_(Si_1.00_O_4_)(Si_2.00_O_7_)O(OH)
##PIN_ID=L01751
##ORIENTATION=Laser parallel to (1 0 1). Fiducial mark perpendicular to laser is parallel to -b [0 -1 0]
118.1340, 7598.000
119.3650, 7674.000
120.5960, 7737.000
121.8270, 7846.000
123.0580, 7902.000
124.2880, 8001.000
125.5190, 8176.000
126.7490, 8255.000
127.9790, 8572.000
129.2090, 8809.000
130.4390, 9195.000
131.6680, 9572.000
132.8980, 10017.00
134.1270, 10579.00
135.3560, 11144.00
136.5850, 11878.00
137.8140, 12666.00
139.0430, 13512.00
140.2710, 14183.00
141.5000, 14989.00
142.7280, 15473.00
143.9560, 15975.00
145.1840, 16148.00
146.4120, 16185.00
147.6390, 16227.00
148.8670, 16277.00
150.0940, 16181.00
151.3210, 16160.00
152.5490, 16066.00
153.7750, 16035.00
155.0020, 16001.00
156.2290, 15978.00
157.4550, 15911.00
158.6810, 16357.00
159.9080, 16331.00
161.1340, 16696.00
162.3590, 16982.00
163.5850, 17638.00
164.8110, 17818.00
166.0360, 18146.00
167.2610, 18385.00
168.4860, 18512.00
169.7110, 18220.00
170.9360, 17757.00
172.1610, 17025.00
173.3850, 16540.00
174.6100, 15967.00
175.8340, 15152.00
177.0580, 14629.00
178.2820, 13931.00
179.5050, 13469.00
180.7290, 12909.00
181.9520, 12369.00
183.1760, 11807.00
184.3990, 11385.00
185.6220, 11264.00
186.8450, 10874.00
188.0670, 10798.00
189.2900, 10521.00
190.5120, 10369.00
191.7340, 10297.00
192.9560, 10195.00
194.1780, 10116.00
195.4000, 9968.000
196.6220, 9844.000
197.8430, 9948.000
199.0640, 9994.000
200.2860, 9892.000
201.5070, 9954.000
202.7270, 9841.000
203.9480, 10007.00
205.1690, 10076.00
206.3890, 9948.000
207.6090, 9915.000
208.8290, 9897.000
210.0490, 9877.000
211.2690, 9955.000
212.4890, 9960.000
213.7080, 9914.000
214.9280, 10052.00
216.1470, 9983.000
217.3660, 10037.00
218.5850, 10023.00
219.8030, 10086.00
221.0220, 10073.00
222.2400, 10159.00
223.4590, 10364.00
224.6770, 10601.00
225.8950, 10817.00
227.1120, 11168.00
228.3300, 11497.00
229.5480, 11943.00
230.7650, 12515.00
231.9820, 13036.00
233.1990, 13636.00
234.4160, 14534.00
235.6330, 15374.00
236.8490, 16091.00
238.0660, 16906.00
239.2820, 17752.00
240.4980, 18841.00
241.7140, 19643.00
242.9300, 20778.00
244.1460, 21700.00
245.3610, 23198.00
246.5770, 24699.00
247.7920, 26206.00
249.0070, 27877.00
250.2220, 29729.00
251.4370, 31162.00
252.6510, 32640.00
253.8660, 33865.00
255.0800, 34505.00
256.2940, 34192.00
257.5080, 33407.00
258.7220, 32263.00
259.9360, 30535.00
261.1490, 28316.00
262.3630, 26266.00
263.5760, 24308.00
264.7890, 22846.00
266.0020, 21593.00
267.2150, 20530.00
268.4270, 19817.00
269.6400, 18854.00
270.8520, 18244.00
272.0640, 17848.00
273.2760, 17430.00
274.4880, 17087.00
275.7000, 16587.00
276.9120, 16198.00
278.1230, 15884.00
279.3340, 15493.00
280.5450, 14900.00
281.7560, 14759.00
282.9670, 14248.00
284.1780, 14132.00
285.3880, 13828.00
286.5980, 13634.00
287.8090, 13575.00
289.0190, 13490.00
290.2290, 13542.00
291.4380, 13523.00
292.6480, 13437.00
293.8570, 13658.00
295.0670, 13719.00
296.2760, 13706.00
297.4850, 13821.00
298.6930, 13755.00
299.9020, 13872.00
301.1110, 13729.00
302.3190, 13950.00
303.5270, 13841.00
304.7350, 13821.00
305.9430, 13677.00
307.1510, 13569.00
308.3580, 13533.00
309.5660, 13279.00
310.7730, 13088.00
311.9800, 13259.00
313.1870, 13054.00
314.3940, 12874.00
315.6010, 12933.00
316.8070, 12784.00
318.0130, 12809.00
319.2200, 12991.00
320.4260, 13041.00
321.6310, 13205.00
322.8370, 13702.00
324.0430, 13958.00
325.2480, 14345.00
326.4540, 14712.00
327.6590, 15330.00
328.8640, 15961.00
330.0680, 16552.00
331.2730, 17504.00
332.4780, 18307.00
333.6820, 19233.00
334.8860, 19815.00
336.0900, 20559.00
337.2940, 21276.00
338.4980, 21739.00
339.7010, 22208.00
340.9050, 22603.00
342.1080, 23709.00
343.3110, 24536.00
344.5140, 25860.00
345.7170, 26974.00
346.9200, 28514.00
348.1220, 30033.00
349.3240, 31672.00
350.5270, 33119.00
351.7290, 33678.00
352.9310, 33908.00
354.1320, 33518.00
355.3340, 31822.00
356.5350, 30107.00
357.7370, 27376.00
358.9380, 25119.00
360.1390, 22955.00
361.3400, 20775.00
362.5400, 19093.00
363.7410, 17733.00
364.9410, 16618.00
366.1410, 15844.00
367.3410, 15110.00
368.5410, 14420.00
369.7410, 14031.00
370.9400, 13644.00
372.1400, 13232.00
373.3390, 12933.84
374.5380, 12604.00
375.7370, 12369.00
376.9360, 12268.00
378.1350, 12058.00
379.3330, 12002.00
380.5310, 11959.00
381.7300, 11789.00
382.9280, 11861.00
384.1260, 11895.00
385.3230, 11972.00
386.5210, 12198.00
387.7180, 12393.00
388.9160, 12425.00
390.1130, 12617.00
391.3100, 12559.00
392.5060, 12735.00
393.7030, 13106.00
394.9000, 13059.00
396.0960, 13080.00
397.2920, 13220.00
398.4880, 13088.00
399.6840, 13040.00
400.8800, 12953.00
402.0750, 12744.00
403.2710, 12610.00
404.4660, 12212.00
405.6610, 12201.00
406.8560, 11960.00
408.0510, 12031.00
409.2450, 12036.00
410.4400, 12082.00
411.6340, 12041.00
412.8280, 12383.00
414.0220, 12728.00
415.2160, 12886.00
416.4100, 13335.00
417.6030, 13649.00
418.7970, 14351.00
419.9900, 14949.00
421.1830, 16073.00
422.3760, 16617.00
423.5690, 17757.00
424.7610, 18528.00
425.9540, 19573.00
427.1460, 20426.00
428.3380, 21035.00
429.5300, 21536.00
430.7220, 21760.00
431.9140, 21459.00
433.1050, 21575.00
434.2970, 21466.00
435.4880, 21483.00
436.6790, 21852.00
437.8700, 22449.00
439.0610, 23452.00
440.2510, 24710.00
441.4420, 26340.00
442.6320, 28580.00
443.8220, 31278.00
445.0120, 34222.00
446.2020, 37918.00
447.3910, 41677.00
448.5810, 45500.00
449.7700, 49246.00
450.9600, 53039.00
452.1490, 55611.00
453.3370, 57370.00
454.5260, 57682.00
455.7150, 56994.00
456.9030, 54841.00
458.0910, 52174.00
459.2800, 48960.00
460.4670, 45518.00
461.6550, 42474.00
462.8430, 40333.00
464.0300, 37899.00
465.2180, 36423.00
466.4050, 35539.00
467.5920, 34450.00
468.7790, 34353.00
469.9650, 33921.00
471.1520, 33783.00
472.3380, 33846.00
473.5250, 33828.00
474.7110, 33740.41
475.8970, 33679.00
477.0820, 33548.00
478.2680, 33575.00
479.4540, 33373.00
480.6390, 33395.00
481.8240, 33665.00
483.0090, 33489.00
484.1940, 33211.00
485.3780, 32715.00
486.5630, 31857.00
487.7470, 30881.00
488.9320, 29277.00
490.1160, 27680.00
491.3000, 26427.00
492.4830, 24929.00
493.6670, 23646.00
494.8500, 22343.00
496.0340, 21300.00
497.2170, 20476.00
498.4000, 19911.00
499.5820, 19422.00
500.7650, 19435.00
501.9480, 19177.00
503.1300, 19080.00
504.3120, 19119.00
505.4940, 19322.00
506.6760, 19267.00
507.8580, 19484.00
509.0390, 19724.00
510.2210, 19962.00
511.4020, 19916.00
512.5830, 20203.00
513.7640, 20282.00
514.9450, 20786.00
516.1250, 20977.00
517.3060, 21234.00
518.4860, 21809.00
519.6660, 21982.00
520.8460, 21991.00
522.0260, 22309.00
523.2060, 22408.00
524.3850, 22210.00
525.5650, 22465.00
526.7440, 22379.00
527.9230, 22486.00
529.1020, 22146.00
530.2810, 22161.00
531.4590, 21471.00
532.6380, 20750.00
533.8160, 19786.00
534.9940, 18750.00
536.1720, 17465.00
537.3500, 16512.00
538.5270, 15600.00
539.7050, 14844.00
540.8820, 14608.00
542.0590, 14141.00
543.2360, 13888.00
544.4130, 13716.00
545.5900, 13468.00
546.7660, 13416.44
547.9430, 13291.00
549.1190, 13395.00
550.2950, 13444.00
551.4710, 13555.00
552.6470, 13775.00
553.8220, 13937.00
554.9980, 14456.00
556.1730, 14643.00
557.3480, 14834.00
558.5230, 15385.00
559.6980, 16029.00
560.8730, 17054.00
562.0470, 17966.00
563.2220, 19545.00
564.3960, 20875.00
565.5700, 22640.00
566.7440, 24406.00
567.9170, 26371.00
569.0910, 28663.00
570.2640, 30387.00
571.4380, 31838.00
572.6110, 32053.00
573.7840, 31262.00
574.9570, 29044.00
576.1290, 26143.00
577.3020, 23130.00
578.4740, 20218.00
579.6460, 18233.00
580.8180, 16802.00
581.9900, 15880.00
583.1620, 15311.00
584.3330, 14986.00
585.5040, 14624.00
586.6760, 14727.00
587.8470, 14809.00
589.0180, 14869.00
590.1880, 14825.00
591.3590, 15031.00
592.5290, 15155.00
593.7000, 15485.00
594.8700, 15587.00
596.0400, 15926.00
597.2090, 16056.00
598.3790, 16433.00
599.5490, 16702.27
600.7180, 16775.00
601.8870, 17273.00
603.0560, 17585.00
604.2250, 17771.00
605.3940, 17849.00
606.5620, 17849.00
607.7300, 17479.00
608.8990, 17254.00
610.0670, 17001.00
611.2350, 16411.00
612.4020, 15906.00
613.5700, 15345.00
614.7370, 14995.00
615.9050, 14730.00
617.0720, 14224.00
618.2390, 14056.00
619.4060, 13851.00
620.5720, 13636.00
621.7390, 13331.00
622.9050, 13138.00
624.0710, 13004.00
625.2370, 12738.00
626.4030, 12752.00
627.5690, 12610.00
628.7340, 12287.00
629.9000, 12353.00
631.0650, 12210.00
632.2300, 12196.00
633.3950, 12326.00
634.5600, 12030.00
635.7240, 12169.00
636.8890, 12065.00
638.0530, 12117.00
639.2170, 12110.00
640.3810, 12112.00
641.5450, 12083.00
642.7080, 12186.00
643.8720, 12276.00
645.0350, 12420.00
646.1980, 12407.00
647.3610, 12558.00
648.5240, 12783.00
649.6870, 12825.00
650.8490, 13187.00
652.0120, 13442.00
653.1740, 13573.00
654.3360, 13902.00
655.4980, 14022.00
656.6600, 14285.00
657.8210, 14349.00
658.9830, 14278.00
660.1440, 14141.00
661.3050, 14089.00
662.4660, 13842.00
663.6270, 13689.00
664.7870, 13397.00
665.9480, 13435.00
667.1080, 13255.00
668.2680, 13226.00
669.4280, 13169.00
670.5880, 13123.00
671.7480, 13171.00
672.9070, 13012.00
674.0670, 13045.00
675.2260, 13170.00
676.3850, 13075.00
677.5440, 13109.00
678.7030, 13058.00
679.8610, 13295.00
681.0200, 13434.00
682.1780, 13547.00
683.3360, 13655.00
684.4940, 13813.00
685.6520, 13868.00
686.8090, 13843.00
687.9670, 14060.00
689.1240, 13959.00
690.2810, 13926.00
691.4380, 14050.00
692.5950, 14104.00
693.7520, 14107.00
694.9080, 14062.00
696.0650, 14058.00
697.2210, 14186.00
698.3770, 14139.00
699.5330, 14208.00
700.6880, 14100.00
701.8440, 14226.00
702.9990, 13953.00
704.1550, 14007.00
705.3100, 13786.00
706.4650, 13614.00
707.6190, 13329.00
708.7740, 13053.00
709.9290, 13034.00
711.0830, 12820.00
712.2370, 12734.00
713.3910, 12497.00
714.5450, 12190.00
715.6980, 12062.00
716.8520, 12145.00
718.0050, 11938.00
719.1580, 12043.00
720.3110, 11956.00
721.4640, 11918.00
722.6170, 12026.00
723.7700, 11782.00
724.9220, 11746.00
726.0740, 11710.00
727.2260, 11657.82
728.3780, 11654.68
729.5300, 11700.00
730.6810, 11695.00
731.8330, 11740.00
732.9840, 11872.00
734.1350, 11849.00
735.2860, 11743.00
736.4370, 11623.00
737.5880, 11794.00
738.7380, 11823.00
739.8880, 11662.00
741.0390, 11763.00
742.1890, 11679.00
743.3380, 11777.00
744.4880, 11763.00
745.6380, 11711.00
746.7870, 11711.00
747.9360, 11594.00
749.0850, 11675.00
750.2340, 11639.00
751.3830, 11691.00
752.5310, 11721.00
753.6800, 11621.00
754.8280, 11685.00
755.9760, 11621.00
757.1240, 11822.00
758.2720, 11710.00
759.4190, 11730.00
760.5670, 11724.00
761.7140, 11663.00
762.8610, 11820.00
764.0080, 11651.00
765.1550, 11722.00
766.3020, 11657.00
767.4480, 11715.00
768.5950, 11697.00
769.7410, 11856.00
770.8870, 11888.00
772.0330, 11694.00
773.1780, 11854.00
774.3240, 11766.00
775.4690, 11767.00
776.6140, 11705.00
777.7590, 11906.00
778.9040, 11766.00
780.0490, 11806.00
781.1940, 11978.00
782.3380, 11840.00
783.4820, 11836.00
784.6260, 11903.00
785.7700, 11845.00
786.9140, 11862.00
788.0580, 11846.00
789.2010, 11932.00
790.3450, 12043.00
791.4880, 12045.00
792.6310, 11885.00
793.7730, 11992.00
794.9160, 11972.00
796.0590, 11787.00
797.2010, 12074.00
798.3430, 12140.00
799.4850, 12001.00
800.6270, 12091.00
801.7690, 12063.00
802.9100, 12097.00
804.0520, 12210.00
805.1930, 12152.00
806.3340, 12153.00
807.4750, 12146.00
808.6160, 12224.00
809.7560, 12182.00
810.8970, 12277.00
812.0370, 12162.00
813.1770, 12489.00
814.3170, 12357.00
815.4570, 12384.00
816.5960, 12494.00
817.7360, 12490.00
818.8750, 12544.01
820.0140, 12621.00
821.1530, 12601.00
822.2920, 12670.00
823.4310, 12684.83
824.5690, 12805.00
825.7070, 12806.00
826.8460, 12957.00
827.9840, 13043.00
829.1220, 13183.00
830.2590, 13313.00
831.3970, 13170.00
832.5340, 13206.00
833.6710, 13277.00
834.8080, 13421.00
835.9450, 13316.00
837.0820, 13555.00
838.2190, 13506.00
839.3550, 13658.00
840.4910, 13846.00
841.6270, 13853.00
842.7630, 14060.00
843.8990, 14079.00
845.0350, 14101.00
846.1700, 14338.00
847.3060, 14494.00
848.4410, 14653.00
849.5760, 14994.00
850.7100, 15140.00
851.8450, 15548.00
852.9800, 15631.00
854.1140, 15914.00
855.2480, 16244.00
856.3820, 16674.00
857.5160, 17102.00
858.6500, 17449.00
859.7830, 17739.00
860.9170, 18301.00
862.0500, 18812.00
863.1830, 19257.00
864.3160, 20047.00
865.4480, 20538.00
866.5810, 21221.00
867.7130, 22094.00
868.8460, 23026.00
869.9780, 23925.00
871.1100, 24741.00
872.2410, 25862.00
873.3730, 26997.00
874.5050, 27940.00
875.6360, 29133.00
876.7670, 30122.00
877.8980, 30983.00
879.0290, 31506.00
880.1590, 31730.00
881.2900, 31911.00
882.4200, 31429.00
883.5500, 30624.00
884.6800, 29432.00
885.8100, 28396.00
886.9400, 26967.00
888.0690, 26041.00
889.1990, 24660.00
890.3280, 24059.00
891.4570, 22891.00
892.5860, 22339.00
893.7140, 22017.00
894.8430, 21360.00
895.9710, 20970.00
897.1000, 20421.00
898.2280, 19957.00
899.3560, 19680.00
900.4830, 19114.00
901.6110, 18820.00
902.7380, 18170.00
903.8660, 17980.00
904.9930, 17532.00
906.1200, 17398.00
907.2460, 17124.00
908.3730, 16862.00
909.5000, 16874.00
910.6260, 16781.00
911.7520, 16641.00
912.8780, 16594.00
914.0040, 16418.18
915.1290, 16486.00
916.2550, 16129.00
917.3800, 15941.00
918.5050, 15867.00
919.6300, 15805.00
920.7550, 15487.00
921.8800, 15268.00
923.0040, 15109.00
924.1290, 14964.00
925.2530, 15017.00
926.3770, 14664.00
927.5010, 14730.00
928.6250, 14558.00
929.7480, 14606.00
930.8720, 14462.00
931.9950, 14447.00
933.1180, 14340.00
934.2410, 14438.00
935.3640, 14292.00
936.4860, 14417.00
937.6090, 14299.00
938.7310, 14182.00
939.8530, 14154.00
940.9750, 14318.00
942.0970, 14057.00
943.2180, 14160.00
944.3400, 13903.00
945.4610, 14012.00
946.5820, 13885.00
947.7030, 13909.00
948.8240, 13848.00
949.9450, 13919.00
951.0650, 13916.00
952.1860, 13900.00
953.3060, 14006.00
954.4260, 13916.00
955.5460, 13962.00
956.6650, 14063.00
957.7850, 14074.00
958.9040, 14078.00
960.0230, 14131.00
961.1420, 14188.00
962.2610, 14407.00
963.3800, 14445.00
964.4990, 14578.00
965.6170, 14599.00
966.7350, 14731.00
967.8530, 14682.00
968.9710, 14885.00
970.0890, 15082.00
971.2070, 15314.00
972.3240, 15703.00
973.4410, 15827.00
974.5580, 16484.00
975.6750, 16873.00
976.7920, 17215.00
977.9090, 18026.00
979.0250, 18895.00
980.1410, 19795.00
981.2580, 20751.00
982.3740, 21593.00
983.4890, 22376.00
984.6050, 23098.00
985.7200, 23387.00
986.8360, 23405.00
987.9510, 22951.00
989.0660, 22069.00
990.1810, 21190.00
991.2950, 20194.00
992.4100, 19367.00
993.5240, 18410.00
994.6390, 17649.00
995.7530, 17026.00
996.8660, 16529.00
997.9800, 15988.00
999.0940, 15760.00
1000.207, 15412.00
1001.320, 15133.00
1002.433, 14930.00
1003.546, 14757.00
1004.659, 14582.03
1005.772, 14476.00
1006.884, 14302.00
1007.996, 14245.00
1009.108, 14090.00
1010.220, 13901.00
1011.332, 13848.00
1012.444, 13947.00
1013.555, 13771.00
1014.666, 14000.00
1015.777, 13764.00
1016.888, 13956.00
1017.999, 13767.00
1019.110, 14030.00
1020.220, 14001.00
1021.331, 13991.00
1022.441, 14153.00
1023.551, 14274.00
1024.661, 14265.00
1025.770, 14368.00
1026.880, 14404.00
1027.989, 14355.00
1029.098, 14549.00
1030.207, 14535.00
1031.316, 14616.00
1032.425, 14425.00
1033.533, 14493.00
1034.642, 14433.00
1035.750, 14128.00
1036.858, 14196.00
1037.966, 14168.00
1039.073, 14164.00
1040.181, 14161.00
1041.288, 14017.00
1042.396, 13966.00
1043.503, 13988.00
1044.610, 13980.00
1045.716, 14007.00
1046.823, 13909.00
1047.929, 14014.00
1049.036, 13845.00
1050.142, 13906.00
1051.248, 13981.00
1052.353, 13948.00
1053.459, 13895.00
1054.564, 14125.00
1055.670, 14014.00
1056.775, 13951.00
1057.880, 13997.00
1058.985, 14149.00
1060.089, 14194.00
1061.194, 14175.00
1062.298, 14295.00
1063.402, 14272.00
1064.506, 14383.00
1065.610, 14342.00
1066.713, 14563.00
1067.817, 14355.00
1068.920, 14649.00
1070.023, 14678.00
1071.126, 14933.00
1072.229, 15106.00
1073.332, 15237.00
1074.435, 15431.00
1075.537, 15696.00
1076.639, 15877.00
1077.741, 16247.00
1078.843, 16708.00
1079.945, 16931.00
1081.046, 17566.00
1082.148, 17928.00
1083.249, 18479.00
1084.350, 19042.00
1085.451, 19997.00
1086.551, 20848.00
1087.652, 21814.00
1088.752, 22968.00
1089.853, 23892.00
1090.953, 24982.00
1092.053, 25779.00
1093.152, 26141.00
1094.252, 26125.11
1095.351, 25657.70
1096.451, 24994.00
1097.550, 23661.00
1098.649, 22209.00
1099.748, 20556.00
1100.846, 19141.00
1101.945, 18079.00
1103.043, 17333.00
1104.141, 16769.00
1105.239, 16418.00
1106.337, 16050.00
1107.434, 15899.00
1108.532, 15746.00
1109.629, 15774.00
1110.726, 15463.00
1111.823, 15373.00
1112.920, 15166.00
1114.017, 15248.00
1115.113, 15315.00
1116.210, 15080.00
1117.306, 15080.00
1118.402, 14973.00
1119.498, 14862.00
1120.593, 14880.00
1121.689, 14737.00
1122.784, 14692.33
1123.879, 14702.00
1124.974, 14602.00
1126.069, 14466.00
1127.164, 14518.00
1128.259, 14397.00
1129.353, 14376.00
1130.447, 14354.00
1131.541, 14317.00
1132.635, 14279.20
1133.729, 14072.00
1134.822, 14160.00
1135.916, 14129.00
1137.009, 14011.00
1138.102, 14156.00
1139.195, 14069.00
1140.288, 14169.00
1141.380, 14095.00
1142.473, 14075.00
1143.565, 14080.00
1144.657, 13935.00
1145.749, 14201.00
1146.841, 13974.00
1147.932, 14203.00
1149.024, 14076.00
1150.115, 14286.00
1151.206, 13948.00
1152.297, 13827.00
1153.388, 14120.00
1154.479, 14022.00
1155.569, 14029.00
1156.659, 13973.00
1157.750, 14079.00
1158.839, 13869.00
1159.929, 13935.00
1161.019, 14101.00
1162.108, 14008.00
1163.198, 14024.00
1164.287, 13989.00
1165.376, 14032.00
1166.465, 14055.00
1167.553, 14079.00
1168.642, 14079.54
1169.730, 14075.38
1170.818, 14062.00
1171.906, 14048.00
1172.994, 14038.00
1174.082, 14035.00
1175.170, 14068.00
1176.257, 14043.42
1177.344, 14070.00
1178.431, 14025.00
1179.518, 13987.00
1180.605, 13986.00
1181.691, 14050.00
1182.778, 13886.00
1183.864, 13842.00
1184.950, 13954.00
1186.036, 13986.00
1187.122, 14142.00
1188.207, 14039.00
1189.292, 14092.00
1190.378, 13967.00
1191.463, 14032.00
1192.548, 14102.00
1193.632, 14046.00
1194.717, 14127.35
1195.801, 14103.00
1196.886, 14150.00
1197.970, 14119.00
1199.054, 14011.00
1200.137, 14197.00
1201.221, 14072.00
1202.305, 13973.00
1203.388, 14133.00
1204.471, 14034.00
1205.554, 14208.00
1206.637, 14038.00
1207.719, 14077.00
1208.802, 13989.00
1209.884, 14063.00
1210.966, 13996.00
1212.048, 14120.00
1213.130, 13984.00
1214.212, 14206.00
1215.293, 14065.00
1216.374, 13969.00
1217.456, 14041.00
1218.536, 14036.00
1219.617, 14074.00
1220.698, 14151.00
1221.778, 14129.00
1222.859, 14062.00
1223.939, 14078.00
1225.019, 14095.00
1226.099, 14044.00
1227.178, 14115.00
1228.258, 14071.00
1229.337, 14094.00
1230.417, 14039.00
1231.496, 14101.00
1232.574, 14104.00
1233.653, 14146.00
1234.732, 14086.00
1235.810, 14059.00
1236.888, 14029.00
1237.966, 14042.68
1239.044, 14081.00
1240.122, 14092.00
1241.199, 14130.00
1242.277, 14138.00
1243.354, 14150.00
1244.431, 14194.00
1245.508, 14142.00
1246.585, 14129.00
1247.661, 14152.01
1248.738, 14089.00
1249.814, 14177.00
1250.890, 14168.00
1251.966, 14168.00
1253.042, 14027.00
1254.117, 14118.00
1255.193, 13985.00
1256.268, 14114.00
1257.343, 14064.00
1258.418, 14198.00
1259.493, 14039.00
1260.567, 14057.00
1261.642, 13974.00
1262.716, 14081.00
1263.790, 14191.00
1264.864, 14225.00
1265.938, 14282.39
1267.011, 14142.00
1268.085, 14297.00
1269.158, 14197.00
1270.231, 14124.00
1271.304, 14347.00
1272.377, 14220.00
1273.450, 14269.00
1274.522, 14243.00
1275.594, 14075.00
1276.666, 14234.00
1277.738, 14322.00
1278.810, 14173.00
1279.882, 14312.00
1280.953, 14110.00
1282.025, 14327.00
1283.096, 14087.00
1284.167, 14095.00
1285.238, 14208.00
1286.308, 14137.00
1287.379, 14178.00
1288.449, 14319.00
1289.519, 14271.00
1290.589, 14197.00
1291.659, 14064.00
1292.729, 14180.00
1293.798, 14255.00
1294.868, 14175.00
1295.937, 14054.00
1297.006, 14300.00
1298.075, 14250.00
1299.143, 14161.00
1300.212, 14232.00
1301.280, 14236.00
1302.348, 14110.00
1303.416, 14315.00
1304.484, 14184.00
1305.552, 14162.00
1306.620, 14283.00
1307.687, 14399.00
1308.754, 14277.00
1309.821, 14387.00
1310.888, 14396.00
1311.955, 14457.00
1313.021, 14333.00
1314.088, 14430.00
1315.154, 14379.00
1316.220, 14352.00
1317.286, 14321.00
1318.352, 14380.00
1319.417, 14372.65
1320.483, 14331.00
1321.548, 14432.00
1322.613, 14490.00
1323.678, 14531.00
1324.743, 14461.00
1325.807, 14409.00
1326.872, 14498.00
1327.936, 14595.00
1329.000, 14482.00
1330.064, 14622.00
1331.128, 14591.00
1332.191, 14591.00
1333.255, 14479.00
1334.318, 14450.00
1335.381, 14419.00
1336.444, 14493.00
1337.507, 14471.00
1338.569, 14467.00
1339.632, 14451.00
1340.694, 14536.00
1341.756, 14398.00
1342.818, 14469.00
1343.880, 14560.00
1344.941, 14532.00
1346.003, 14588.00
1347.064, 14581.77
1348.125, 14468.00
1349.186, 14572.00
1350.247, 14539.00
1351.308, 14563.00
1352.368, 14431.00
1353.428, 14691.00
1354.489, 14629.00
1355.549, 14579.00
1356.608, 14737.00
1357.668, 14538.00
1358.727, 14633.00
1359.787, 14556.00
1360.846, 14609.00
1361.905, 14605.00
1362.964, 14713.00
1364.022, 14618.00
1365.081, 14719.00
1366.139, 14688.00
1367.197, 14650.00
1368.255, 14553.00
1369.313, 14633.00
1370.371, 14684.00
1371.428, 14753.00
1372.486, 14711.00
1373.543, 14732.00
1374.600, 14753.21
1375.657, 14731.33
1376.713, 14751.00
1377.770, 14711.00
1378.826, 14634.00
1379.882, 14600.96
1380.938, 14725.00
1381.994, 14602.00
1383.050, 14672.00
1384.106, 14744.00
1385.161, 14660.00
1386.216, 14795.00
1387.271, 14695.00
1388.326, 14815.00
1389.381, 14649.00
1390.435, 14708.00
1391.490, 14616.00
1392.544, 14718.00
1393.598, 14521.00
1394.652, 14705.00
1395.705, 14763.00
1396.759, 14842.00
1397.812, 14647.00
1398.866, 14730.00
1399.919, 14699.00
1400.972, 14824.00
1402.024, 14767.00
1403.077, 14802.00
1404.129, 14709.00
1405.181, 14748.52
1406.233, 14767.00
1407.285, 14809.00
1408.337, 14743.00
1409.389, 14795.00
1410.440, 14827.00
1411.491, 14776.00
1412.542, 14683.00
1413.593, 14986.00
1414.644, 14794.00
1415.695, 14809.00
1416.745, 14903.00
1417.795, 14709.00
1418.845, 14772.00
1419.895, 14921.00
1420.945, 14797.00
1421.995, 14877.00
1423.044, 14795.00
1424.093, 14867.00
1425.142, 14799.00
1426.191, 14920.00
1427.240, 15075.00
1428.289, 14747.00
1429.337, 14809.00
1430.385, 14952.00
1431.433, 14861.00
1432.481, 14797.00
1433.529, 14920.00
1434.577, 14763.00
1435.624, 14832.00
1436.672, 14990.00
1437.719, 14874.00
1438.766, 14951.00
1439.812, 14882.00
1440.859, 14812.00
1441.905, 14969.00
1442.952, 14928.00
1443.998, 14837.00
1445.044, 14857.00
1446.090, 15101.00
1447.135, 14858.00
1448.181, 15060.00
1449.226, 15094.00
1450.271, 14997.00
1451.316, 14882.00
1452.361, 15115.00
1453.405, 15088.00
1454.450, 14997.00
1455.494, 15038.00
1456.538, 15016.00
1457.582, 14957.00
1458.626, 15089.00
1459.670, 15006.00
1460.713, 14956.00
1461.757, 15014.00
1462.800, 15089.00
1463.843, 15088.00
1464.886, 15094.00
1465.928, 15031.00
1466.971, 15113.00
1468.013, 14940.00
1469.055, 14905.00
1470.097, 14840.00
1471.139, 15084.00
1472.181, 14862.00
1473.222, 15028.00
1474.263, 15101.00
1475.305, 15115.00
1476.346, 15101.00
1477.386, 15106.00
1478.427, 15027.00
1479.468, 14932.00
1480.508, 15061.00
1481.548, 14981.00
1482.588, 15108.00
1483.628, 15178.00
1484.668, 15083.00
1485.707, 15178.00
1486.747, 15147.00
1487.786, 14978.00
1488.825, 15141.00
1489.864, 15182.00
1490.902, 15079.00
1491.941, 14916.00
1492.979, 14953.00
1494.017, 14997.00
1495.055, 15113.00
1496.093, 15055.00
1497.131, 15167.00
1498.168, 15263.00
1499.206, 15020.00
1500.243, 15182.00
1501.280, 15042.00
1502.317, 15039.00
1503.354, 15069.00
1504.390, 15114.00
1505.426, 15217.00
1506.463, 15238.00
1507.499, 15084.00
1508.535, 15250.00
1509.570, 15100.00
1510.606, 15101.00
1511.641, 15216.00
1512.676, 15286.00
1513.711, 15295.00
1514.746, 15154.00
1515.781, 15276.00
1516.816, 15233.00
1517.850, 15228.00
1518.884, 15262.00
1519.918, 15147.00
1520.952, 15158.00
1521.986, 15263.00
1523.019, 15248.00
1524.053, 15398.00
1525.086, 15367.00
1526.119, 15331.00
1527.152, 15305.00
1528.185, 15277.00
1529.217, 15249.00
1530.250, 15278.06
1531.282, 15363.00
1532.314, 15361.00
1533.346, 15225.00
1534.377, 15277.00
1535.409, 15462.00
1536.440, 15462.00
1537.472, 15280.00
1538.503, 15490.00
1539.534, 15306.00
1540.564, 15443.00
1541.595, 15377.00
1542.625, 15258.00
1543.656, 15357.00
1544.686, 15296.95
1545.716, 15322.00
1546.745, 15314.00
1547.775, 15403.00
1548.804, 15410.00
1549.834, 15328.00
1550.863, 15473.00
1551.892, 15451.00
1552.920, 15437.00
1553.949, 15525.00
1554.977, 15579.00
1556.006, 15404.00
1557.034, 15411.00
1558.062, 15582.00
1559.089, 15361.00
1560.117, 15318.00
1561.144, 15441.00
1562.172, 15553.00
1563.199, 15473.00
1564.226, 15477.00
1565.252, 15386.00
1566.279, 15468.00
1567.305, 15436.00
1568.332, 15438.00
1569.358, 15544.00
1570.384, 15440.00
1571.409, 15507.00
1572.435, 15651.00
##END=



