##NAMES=Clinozoisite
##RRUFFID=R060284
##IDEAL CHEMISTRY=Ca_2_Al_3_(Si_2_O_7_)(SiO_4_)O(OH)
##LOCALITY=near Zagi Mountain, Khaffor Dehri, North-West Frontier Province, Pakistan
##OWNER=RRUFF
##SOURCE=Herb Obodda
##DESCRIPTION=Greenish-brown fragment of a prismatic crystal
##STATUS=The identification of this mineral has been confirmed by X-ray diffraction and chemical analysis
##URL=rruff.info/R060284
##MEASURED CHEMISTRY=Ca_2.00_(Al_0.90_Fe^3+^_0.10_)_3_(Si_1.00_O_4_)(Si_2.00_O_7_)O(OH)
##PIN_ID=L00766
##ORIENTATION=Laser parallel to b* (0 1 0). Fiducial mark perpendicular to laser is parallel to c [0 0 1]
118.1340, 7212.000
119.3650, 7293.000
120.5960, 7567.000
121.8270, 7737.000
123.0580, 8131.000
124.2880, 8672.000
125.5190, 8972.000
126.7490, 9727.000
127.9790, 10495.00
129.2090, 11532.00
130.4390, 12893.00
131.6680, 14114.00
132.8980, 15253.00
134.1270, 16615.00
135.3560, 17973.00
136.5850, 19205.00
137.8140, 20563.00
139.0430, 21401.00
140.2710, 22052.00
141.5000, 22782.00
142.7280, 22562.00
143.9560, 22565.00
145.1840, 21945.00
146.4120, 21633.00
147.6390, 20981.00
148.8670, 20463.00
150.0940, 19785.00
151.3210, 19670.00
152.5490, 19574.00
153.7750, 19622.00
155.0020, 19980.00
156.2290, 20447.00
157.4550, 21129.91
158.6810, 22048.00
159.9080, 23054.00
161.1340, 24360.00
162.3590, 25763.00
163.5850, 26822.00
164.8110, 27700.00
166.0360, 28083.00
167.2610, 28193.00
168.4860, 27955.00
169.7110, 27457.00
170.9360, 26599.00
172.1610, 25350.00
173.3850, 23699.00
174.6100, 22248.00
175.8340, 20572.00
177.0580, 18935.00
178.2820, 17741.00
179.5050, 16388.00
180.7290, 15205.00
181.9520, 14369.00
183.1760, 13578.00
184.3990, 12521.00
185.6220, 12089.00
186.8450, 11589.00
188.0670, 11058.00
189.2900, 10811.00
190.5120, 10358.00
191.7340, 10062.00
192.9560, 9809.000
194.1780, 9772.000
195.4000, 9600.000
196.6220, 9510.000
197.8430, 9328.000
199.0640, 9230.000
200.2860, 9255.000
201.5070, 9297.000
202.7270, 9281.000
203.9480, 9199.000
205.1690, 9125.000
206.3890, 9069.000
207.6090, 9068.000
208.8290, 9051.718
210.0490, 9130.000
211.2690, 9091.000
212.4890, 9117.000
213.7080, 9157.000
214.9280, 9127.335
216.1470, 9158.783
217.3660, 9144.000
218.5850, 9155.000
219.8030, 9243.000
221.0220, 9200.000
222.2400, 9568.000
223.4590, 9535.000
224.6770, 9764.000
225.8950, 10130.00
227.1120, 10373.00
228.3300, 10761.00
229.5480, 11271.00
230.7650, 11845.00
231.9820, 12368.00
233.1990, 13154.00
234.4160, 14145.00
235.6330, 15021.00
236.8490, 16231.00
238.0660, 17604.00
239.2820, 19170.00
240.4980, 21036.00
241.7140, 23152.59
242.9300, 25612.00
244.1460, 28132.00
245.3610, 31001.00
246.5770, 34082.00
247.7920, 37198.00
249.0070, 40159.00
250.2220, 43071.00
251.4370, 45539.00
252.6510, 47173.00
253.8660, 47775.95
255.0800, 47910.00
256.2940, 46746.00
257.5080, 45214.00
258.7220, 42756.00
259.9360, 39690.00
261.1490, 36379.00
262.3630, 33109.00
263.5760, 30528.00
264.7890, 28288.00
266.0020, 26485.00
267.2150, 24906.00
268.4270, 23404.00
269.6400, 22232.00
270.8520, 21233.00
272.0640, 20221.00
273.2760, 19611.00
274.4880, 18794.00
275.7000, 18087.00
276.9120, 17477.00
278.1230, 16956.00
279.3340, 16549.00
280.5450, 16132.00
281.7560, 15711.00
282.9670, 15411.00
284.1780, 15105.00
285.3880, 15027.00
286.5980, 14826.00
287.8090, 14815.00
289.0190, 14793.03
290.2290, 14803.00
291.4380, 14897.00
292.6480, 14926.00
293.8570, 15072.00
295.0670, 15128.00
296.2760, 15083.00
297.4850, 15442.00
298.6930, 15156.00
299.9020, 15191.00
301.1110, 15010.00
302.3190, 14779.00
303.5270, 14459.00
304.7350, 14213.00
305.9430, 13858.00
307.1510, 13526.00
308.3580, 13222.00
309.5660, 12978.00
310.7730, 12800.00
311.9800, 12662.00
313.1870, 12648.00
314.3940, 12700.00
315.6010, 12644.00
316.8070, 12854.00
318.0130, 13008.00
319.2200, 13279.00
320.4260, 13517.00
321.6310, 13880.00
322.8370, 14153.00
324.0430, 14706.00
325.2480, 15285.00
326.4540, 15921.00
327.6590, 16737.00
328.8640, 17682.00
330.0680, 18559.00
331.2730, 19460.00
332.4780, 20424.00
333.6820, 21258.00
334.8860, 22479.00
336.0900, 23273.00
337.2940, 24149.00
338.4980, 25338.00
339.7010, 26599.00
340.9050, 28063.00
342.1080, 30091.00
343.3110, 32251.00
344.5140, 34592.00
345.7170, 37002.00
346.9200, 39297.00
348.1220, 41940.00
349.3240, 43713.00
350.5270, 44924.00
351.7290, 45219.00
352.9310, 44163.00
354.1320, 42388.00
355.3340, 39686.00
356.5350, 36544.00
357.7370, 32753.00
358.9380, 29083.00
360.1390, 25720.00
361.3400, 22816.00
362.5400, 20279.00
363.7410, 18347.00
364.9410, 16833.00
366.1410, 15548.00
367.3410, 14465.00
368.5410, 13685.00
369.7410, 12957.00
370.9400, 12541.00
372.1400, 11961.00
373.3390, 11536.00
374.5380, 11088.00
375.7370, 10721.00
376.9360, 10498.64
378.1350, 10294.66
379.3330, 10244.00
380.5310, 10169.00
381.7300, 10239.00
382.9280, 10362.00
384.1260, 10172.00
385.3230, 10235.00
386.5210, 10468.00
387.7180, 10612.00
388.9160, 10719.00
390.1130, 10896.00
391.3100, 10911.00
392.5060, 10992.00
393.7030, 11111.00
394.9000, 11089.00
396.0960, 11068.00
397.2920, 11103.00
398.4880, 11021.00
399.6840, 10949.38
400.8800, 10747.00
402.0750, 10688.00
403.2710, 10500.00
404.4660, 10273.00
405.6610, 10275.00
406.8560, 10173.00
408.0510, 10215.00
409.2450, 10233.00
410.4400, 10334.65
411.6340, 10530.00
412.8280, 10705.00
414.0220, 10960.00
415.2160, 11312.00
416.4100, 11827.00
417.6030, 12381.00
418.7970, 12980.00
419.9900, 13701.00
421.1830, 14392.00
422.3760, 15180.00
423.5690, 15915.00
424.7610, 16596.00
425.9540, 17398.00
427.1460, 17999.83
428.3380, 18613.75
429.5300, 19215.00
430.7220, 19722.00
431.9140, 20273.00
433.1050, 20817.00
434.2970, 21732.00
435.4880, 22443.00
436.6790, 23530.00
437.8700, 25228.00
439.0610, 26995.00
440.2510, 29674.00
441.4420, 32397.00
442.6320, 36001.00
443.8220, 39969.00
445.0120, 43903.00
446.2020, 48509.00
447.3910, 52339.00
448.5810, 56118.00
449.7700, 59179.00
450.9600, 61452.00
452.1490, 61958.00
453.3370, 61502.00
454.5260, 59546.00
455.7150, 57116.00
456.9030, 53352.00
458.0910, 49379.00
459.2800, 45284.00
460.4670, 41182.00
461.6550, 37898.00
462.8430, 35202.00
464.0300, 32846.00
465.2180, 31158.00
466.4050, 30008.00
467.5920, 29104.00
468.7790, 28406.14
469.9650, 28358.00
471.1520, 27945.00
472.3380, 27911.00
473.5250, 28307.00
474.7110, 28383.00
475.8970, 28491.00
477.0820, 28525.00
478.2680, 29051.00
479.4540, 29538.00
480.6390, 29859.00
481.8240, 30185.00
483.0090, 30139.00
484.1940, 30048.00
485.3780, 29710.00
486.5630, 29218.00
487.7470, 28166.00
488.9320, 27109.00
490.1160, 25885.00
491.3000, 24554.00
492.4830, 23671.00
493.6670, 22632.00
494.8500, 21453.00
496.0340, 20734.00
497.2170, 20132.00
498.4000, 19836.00
499.5820, 19602.00
500.7650, 19713.00
501.9480, 19616.00
503.1300, 20091.00
504.3120, 20471.00
505.4940, 20785.00
506.6760, 21231.00
507.8580, 21768.79
509.0390, 22283.00
510.2210, 23020.00
511.4020, 23692.00
512.5830, 24464.00
513.7640, 25423.00
514.9450, 25964.00
516.1250, 26661.00
517.3060, 27220.00
518.4860, 27759.00
519.6660, 28045.00
520.8460, 28479.00
522.0260, 28146.00
523.2060, 27824.00
524.3850, 27628.00
525.5650, 27648.00
526.7440, 27334.00
527.9230, 26962.00
529.1020, 25957.00
530.2810, 25137.00
531.4590, 23849.00
532.6380, 22088.00
533.8160, 20707.00
534.9940, 19026.00
536.1720, 17328.00
537.3500, 15969.00
538.5270, 14841.00
539.7050, 14055.00
540.8820, 13346.00
542.0590, 12790.00
543.2360, 12434.00
544.4130, 12233.00
545.5900, 12165.00
546.7660, 11980.00
547.9430, 11905.00
549.1190, 12015.00
550.2950, 11938.00
551.4710, 12146.00
552.6470, 12502.00
553.8220, 12597.00
554.9980, 13021.00
556.1730, 13718.00
557.3480, 14185.00
558.5230, 15191.00
559.6980, 16052.00
560.8730, 17741.00
562.0470, 19231.00
563.2220, 21711.00
564.3960, 23912.00
565.5700, 26555.00
566.7440, 29200.00
567.9170, 31965.00
569.0910, 34546.00
570.2640, 36187.00
571.4380, 36620.00
572.6110, 35389.00
573.7840, 33254.00
574.9570, 29710.00
576.1290, 26285.00
577.3020, 22370.00
578.4740, 19339.00
579.6460, 16967.00
580.8180, 15578.00
581.9900, 14302.00
583.1620, 13642.00
584.3330, 13289.00
585.5040, 13106.00
586.6760, 13042.00
587.8470, 12857.00
589.0180, 13190.00
590.1880, 13412.00
591.3590, 13645.00
592.5290, 13788.00
593.7000, 14067.00
594.8700, 14186.00
596.0400, 14907.00
597.2090, 15189.00
598.3790, 15539.00
599.5490, 16158.00
600.7180, 16545.00
601.8870, 16863.00
603.0560, 17071.00
604.2250, 17135.01
605.3940, 17161.00
606.5620, 16876.00
607.7300, 16581.00
608.8990, 16011.00
610.0670, 15293.00
611.2350, 14549.00
612.4020, 13848.00
613.5700, 13213.00
614.7370, 12754.00
615.9050, 12241.00
617.0720, 11807.00
618.2390, 11463.00
619.4060, 11065.00
620.5720, 10802.00
621.7390, 10567.00
622.9050, 10231.00
624.0710, 10155.00
625.2370, 9941.000
626.4030, 9942.000
627.5690, 9809.000
628.7340, 9647.000
629.9000, 9587.000
631.0650, 9454.000
632.2300, 9462.000
633.3950, 9358.861
634.5600, 9262.000
635.7240, 9260.000
636.8890, 9258.000
638.0530, 9309.000
639.2170, 9287.000
640.3810, 9216.000
641.5450, 9336.000
642.7080, 9456.000
643.8720, 9405.000
645.0350, 9489.000
646.1980, 9659.000
647.3610, 9826.000
648.5240, 10072.00
649.6870, 10268.76
650.8490, 10525.00
652.0120, 10728.00
653.1740, 10930.00
654.3360, 11161.00
655.4980, 11240.00
656.6600, 11292.00
657.8210, 11183.00
658.9830, 11346.00
660.1440, 10981.00
661.3050, 10932.00
662.4660, 10863.00
663.6270, 10575.00
664.7870, 10498.00
665.9480, 10461.00
667.1080, 10109.00
668.2680, 10015.00
669.4280, 9950.000
670.5880, 10055.00
671.7480, 9910.000
672.9070, 9901.000
674.0670, 9849.000
675.2260, 9912.000
676.3850, 9910.746
677.5440, 9955.723
678.7030, 10001.00
679.8610, 10113.00
681.0200, 10215.00
682.1780, 10389.00
683.3360, 10369.00
684.4940, 10706.00
685.6520, 10534.00
686.8090, 10752.00
687.9670, 10651.00
689.1240, 10706.00
690.2810, 10749.00
691.4380, 10704.00
692.5950, 10840.00
693.7520, 10813.00
694.9080, 10940.00
696.0650, 10851.00
697.2210, 11143.00
698.3770, 11093.00
699.5330, 11137.00
700.6880, 10988.00
701.8440, 10917.00
702.9990, 10908.00
704.1550, 10715.00
705.3100, 10528.00
706.4650, 10382.00
707.6190, 10077.00
708.7740, 9920.000
709.9290, 9754.000
711.0830, 9557.000
712.2370, 9390.000
713.3910, 9161.000
714.5450, 9050.544
715.6980, 8887.000
716.8520, 8839.000
718.0050, 8734.000
719.1580, 8674.000
720.3110, 8673.000
721.4640, 8657.000
722.6170, 8595.000
723.7700, 8570.000
724.9220, 8542.000
726.0740, 8466.000
727.2260, 8508.000
728.3780, 8549.000
729.5300, 8499.000
730.6810, 8512.000
731.8330, 8393.000
732.9840, 8355.000
734.1350, 8501.000
735.2860, 8450.000
736.4370, 8521.000
737.5880, 8437.000
738.7380, 8484.000
739.8880, 8374.000
741.0390, 8322.000
742.1890, 8453.000
743.3380, 8272.000
744.4880, 8306.000
745.6380, 8311.000
746.7870, 8274.000
747.9360, 8317.000
749.0850, 8285.000
750.2340, 8237.000
751.3830, 8323.000
752.5310, 8220.000
753.6800, 8270.000
754.8280, 8277.000
755.9760, 8262.514
757.1240, 8328.000
758.2720, 8274.000
759.4190, 8357.000
760.5670, 8340.000
761.7140, 8330.000
762.8610, 8323.000
764.0080, 8195.000
765.1550, 8259.000
766.3020, 8372.000
767.4480, 8253.000
768.5950, 8327.000
769.7410, 8301.000
770.8870, 8380.000
772.0330, 8324.000
773.1780, 8351.000
774.3240, 8363.000
775.4690, 8370.000
776.6140, 8326.000
777.7590, 8342.497
778.9040, 8374.000
780.0490, 8344.000
781.1940, 8399.000
782.3380, 8420.000
783.4820, 8557.000
784.6260, 8424.000
785.7700, 8370.000
786.9140, 8344.000
788.0580, 8484.000
789.2010, 8475.000
790.3450, 8334.000
791.4880, 8547.000
792.6310, 8399.000
793.7730, 8469.000
794.9160, 8539.000
796.0590, 8479.000
797.2010, 8473.000
798.3430, 8427.000
799.4850, 8617.000
800.6270, 8650.000
801.7690, 8560.000
802.9100, 8643.000
804.0520, 8580.000
805.1930, 8595.000
806.3340, 8588.000
807.4750, 8599.379
808.6160, 8753.000
809.7560, 8676.000
810.8970, 8822.000
812.0370, 8911.000
813.1770, 8860.000
814.3170, 8864.000
815.4570, 8911.000
816.5960, 8928.000
817.7360, 9130.000
818.8750, 9107.000
820.0140, 9172.000
821.1530, 9169.000
822.2920, 9224.000
823.4310, 9218.000
824.5690, 9504.000
825.7070, 9513.000
826.8460, 9680.000
827.9840, 9625.000
829.1220, 9718.000
830.2590, 9777.000
831.3970, 9857.000
832.5340, 9887.000
833.6710, 10037.00
834.8080, 10214.00
835.9450, 10054.00
837.0820, 10171.00
838.2190, 10305.00
839.3550, 10474.00
840.4910, 10582.00
841.6270, 10773.52
842.7630, 10948.80
843.8990, 11133.00
845.0350, 11307.00
846.1700, 11470.00
847.3060, 11735.12
848.4410, 11854.00
849.5760, 12263.00
850.7100, 12503.00
851.8450, 12742.00
852.9800, 13315.00
854.1140, 13469.00
855.2480, 13965.00
856.3820, 14530.00
857.5160, 14830.00
858.6500, 15399.00
859.7830, 15789.00
860.9170, 16246.00
862.0500, 16711.00
863.1830, 17441.00
864.3160, 17870.00
865.4480, 18397.00
866.5810, 19321.00
867.7130, 20141.00
868.8460, 21203.00
869.9780, 22259.00
871.1100, 23528.00
872.2410, 24827.00
873.3730, 26175.00
874.5050, 27937.00
875.6360, 29140.00
876.7670, 30629.00
877.8980, 31398.00
879.0290, 31938.00
880.1590, 32397.00
881.2900, 31802.00
882.4200, 31081.00
883.5500, 29864.00
884.6800, 28070.00
885.8100, 26542.00
886.9400, 24591.00
888.0690, 23163.00
889.1990, 21679.00
890.3280, 20370.00
891.4570, 19058.00
892.5860, 18407.00
893.7140, 17540.00
894.8430, 17038.00
895.9710, 16747.00
897.1000, 16396.00
898.2280, 16235.62
899.3560, 16106.19
900.4830, 16168.00
901.6110, 16104.00
902.7380, 16338.00
903.8660, 16574.00
904.9930, 16864.00
906.1200, 17338.00
907.2460, 17751.00
908.3730, 18364.00
909.5000, 18764.00
910.6260, 19174.00
911.7520, 19425.00
912.8780, 19556.00
914.0040, 19528.00
915.1290, 19284.00
916.2550, 18762.00
917.3800, 18003.00
918.5050, 17483.00
919.6300, 16734.00
920.7550, 15960.00
921.8800, 15358.00
923.0040, 14632.00
924.1290, 14290.00
925.2530, 13816.00
926.3770, 13172.00
927.5010, 13020.00
928.6250, 12601.00
929.7480, 12305.00
930.8720, 12222.00
931.9950, 11852.00
933.1180, 11742.00
934.2410, 11536.00
935.3640, 11240.00
936.4860, 11289.00
937.6090, 11206.00
938.7310, 10960.00
939.8530, 10885.00
940.9750, 10880.00
942.0970, 10729.00
943.2180, 10511.00
944.3400, 10377.00
945.4610, 10391.00
946.5820, 10366.00
947.7030, 10252.00
948.8240, 10195.00
949.9450, 10181.38
951.0650, 10214.00
952.1860, 10170.00
953.3060, 10130.00
954.4260, 10138.00
955.5460, 10124.17
956.6650, 10157.00
957.7850, 10168.00
958.9040, 10259.00
960.0230, 10345.00
961.1420, 10429.91
962.2610, 10506.00
963.3800, 10594.00
964.4990, 10610.00
965.6170, 10649.00
966.7350, 10757.00
967.8530, 10846.00
968.9710, 11025.00
970.0890, 11244.20
971.2070, 11481.24
972.3240, 11807.00
973.4410, 12145.00
974.5580, 12513.00
975.6750, 13034.00
976.7920, 13450.00
977.9090, 14214.00
979.0250, 14945.00
980.1410, 15874.00
981.2580, 16604.00
982.3740, 17496.00
983.4890, 17800.00
984.6050, 18284.00
985.7200, 18127.00
986.8360, 17859.00
987.9510, 17354.00
989.0660, 16423.00
990.1810, 15913.00
991.2950, 15111.00
992.4100, 14254.00
993.5240, 13551.00
994.6390, 12957.00
995.7530, 12430.53
996.8660, 12055.99
997.9800, 11698.00
999.0940, 11552.00
1000.207, 11406.00
1001.320, 11309.00
1002.433, 11109.00
1003.546, 10870.00
1004.659, 10579.00
1005.772, 10701.00
1006.884, 10465.00
1007.996, 10441.00
1009.108, 10301.00
1010.220, 10197.00
1011.332, 10222.00
1012.444, 10142.00
1013.555, 10027.00
1014.666, 10111.00
1015.777, 10184.00
1016.888, 10084.00
1017.999, 10194.00
1019.110, 10239.00
1020.220, 10269.00
1021.331, 10331.00
1022.441, 10445.00
1023.551, 10466.00
1024.661, 10577.00
1025.770, 10565.00
1026.880, 10631.25
1027.989, 10595.00
1029.098, 10738.00
1030.207, 10725.00
1031.316, 10809.00
1032.425, 10852.00
1033.533, 10913.00
1034.642, 11014.00
1035.750, 11050.00
1036.858, 11086.00
1037.966, 11245.00
1039.073, 11242.00
1040.181, 11478.00
1041.288, 11583.00
1042.396, 11692.00
1043.503, 11733.00
1044.610, 11831.00
1045.716, 11917.00
1046.823, 12111.00
1047.929, 11866.00
1049.036, 12039.00
1050.142, 11918.00
1051.248, 12072.00
1052.353, 11959.00
1053.459, 11811.00
1054.564, 11824.00
1055.670, 11764.00
1056.775, 11627.00
1057.880, 11758.00
1058.985, 11890.00
1060.089, 11898.00
1061.194, 11915.00
1062.298, 12177.00
1063.402, 12086.00
1064.506, 11979.00
1065.610, 12293.00
1066.713, 12386.00
1067.817, 12500.00
1068.920, 12530.00
1070.023, 12691.00
1071.126, 12655.00
1072.229, 12692.00
1073.332, 12602.00
1074.435, 12703.00
1075.537, 12897.00
1076.639, 13015.00
1077.741, 13235.00
1078.843, 13285.00
1079.945, 13702.00
1081.046, 13959.00
1082.148, 14385.00
1083.249, 14715.00
1084.350, 15273.00
1085.451, 15592.00
1086.551, 16222.00
1087.652, 17093.00
1088.752, 18011.00
1089.853, 18555.00
1090.953, 19356.00
1092.053, 19737.00
1093.152, 19933.00
1094.252, 19497.00
1095.351, 19118.00
1096.451, 18145.00
1097.550, 17036.00
1098.649, 15800.00
1099.748, 14755.00
1100.846, 13879.00
1101.945, 13200.00
1103.043, 12671.00
1104.141, 12362.00
1105.239, 12207.00
1106.337, 12055.00
1107.434, 11894.00
1108.532, 11789.00
1109.629, 11688.00
1110.726, 11540.00
1111.823, 11444.00
1112.920, 11395.00
1114.017, 11200.27
1115.113, 11152.00
1116.210, 10927.00
1117.306, 11099.00
1118.402, 11145.00
1119.498, 11161.00
1120.593, 11041.00
1121.689, 11076.00
1122.784, 10996.00
1123.879, 10877.00
1124.974, 10788.00
1126.069, 10753.00
1127.164, 10686.00
1128.259, 10514.00
1129.353, 10350.00
1130.447, 10459.00
1131.541, 10175.00
1132.635, 10210.00
1133.729, 10161.00
1134.822, 10236.00
1135.916, 10200.78
1137.009, 10191.00
1138.102, 10167.00
1139.195, 10110.00
1140.288, 10084.00
1141.380, 10085.00
1142.473, 10002.00
1143.565, 10074.00
1144.657, 10090.00
1145.749, 9911.000
1146.841, 10117.00
1147.932, 10014.00
1149.024, 9988.000
1150.115, 9972.000
1151.206, 9948.466
1152.297, 10054.00
1153.388, 9977.000
1154.479, 10042.00
1155.569, 10096.00
1156.659, 10096.00
1157.750, 10018.00
1158.839, 9986.000
1159.929, 9940.000
1161.019, 9946.000
1162.108, 9998.000
1163.198, 9930.000
1164.287, 9977.000
1165.376, 10101.00
1166.465, 10002.00
1167.553, 9911.000
1168.642, 10017.00
1169.730, 10002.00
1170.818, 9989.000
1171.906, 9926.000
1172.994, 9967.000
1174.082, 9959.000
1175.170, 9952.000
1176.257, 10023.00
1177.344, 9945.000
1178.431, 10012.00
1179.518, 9929.000
1180.605, 9963.000
1181.691, 9980.000
1182.778, 10011.00
1183.864, 10022.94
1184.950, 9929.000
1186.036, 10032.00
1187.122, 9965.000
1188.207, 9936.000
1189.292, 10005.00
1190.378, 10034.00
1191.463, 10030.00
1192.548, 10059.00
1193.632, 10053.00
1194.717, 10035.00
1195.801, 10065.00
1196.886, 9936.000
1197.970, 10044.00
1199.054, 10114.00
1200.137, 10002.00
1201.221, 10020.00
1202.305, 10206.00
1203.388, 10058.00
1204.471, 10037.00
1205.554, 9976.000
1206.637, 10135.00
1207.719, 10022.00
1208.802, 10023.00
1209.884, 9959.000
1210.966, 9956.000
1212.048, 9922.000
1213.130, 9941.000
1214.212, 10075.00
1215.293, 10002.00
1216.374, 10034.00
1217.456, 10015.00
1218.536, 10008.00
1219.617, 9927.000
1220.698, 9977.000
1221.778, 10077.00
1222.859, 10131.00
1223.939, 9990.000
1225.019, 9862.000
1226.099, 9945.000
1227.178, 10036.00
1228.258, 9958.000
1229.337, 10018.00
1230.417, 9988.000
1231.496, 9945.000
1232.574, 9876.000
1233.653, 10019.00
1234.732, 9960.000
1235.810, 9946.000
1236.888, 9966.000
1237.966, 9960.000
1239.044, 9962.258
1240.122, 9945.000
1241.199, 9962.703
1242.277, 9979.000
1243.354, 9974.000
1244.431, 9981.000
1245.508, 10026.00
1246.585, 9990.000
1247.661, 9877.000
1248.738, 9926.000
1249.814, 10055.00
1250.890, 9922.000
1251.966, 9943.000
1253.042, 9923.000
1254.117, 9913.000
1255.193, 9919.000
1256.268, 10047.00
1257.343, 9982.000
1258.418, 10000.00
1259.493, 9922.000
1260.567, 10005.00
1261.642, 10069.00
1262.716, 9918.000
1263.790, 9991.000
1264.864, 10057.00
1265.938, 10101.00
1267.011, 10104.83
1268.085, 10006.00
1269.158, 10046.00
1270.231, 10011.00
1271.304, 9916.000
1272.377, 10002.00
1273.450, 9995.000
1274.522, 10057.00
1275.594, 10123.00
1276.666, 10060.00
1277.738, 9975.000
1278.810, 9919.000
1279.882, 10009.00
1280.953, 10008.00
1282.025, 10011.03
1283.096, 10028.00
1284.167, 10036.00
1285.238, 10032.00
1286.308, 10067.00
1287.379, 10055.00
1288.449, 9970.000
1289.519, 9994.000
1290.589, 10107.00
1291.659, 10014.00
1292.729, 10174.00
1293.798, 10064.00
1294.868, 9961.000
1295.937, 9932.000
1297.006, 10049.00
1298.075, 10156.00
1299.143, 9943.000
1300.212, 10188.00
1301.280, 10010.00
1302.348, 9892.000
1303.416, 10123.00
1304.484, 10070.00
1305.552, 10082.00
1306.620, 10168.00
1307.687, 10103.00
1308.754, 10198.00
1309.821, 10142.00
1310.888, 10051.00
1311.955, 10233.00
1313.021, 10186.00
1314.088, 10276.00
1315.154, 10180.00
1316.220, 10362.00
1317.286, 10149.00
1318.352, 10240.00
1319.417, 10208.00
1320.483, 10092.00
1321.548, 10135.00
1322.613, 10254.00
1323.678, 10166.00
1324.743, 10241.00
1325.807, 10234.00
1326.872, 10144.00
1327.936, 10140.00
1329.000, 10228.00
1330.064, 10194.00
1331.128, 10284.00
1332.191, 10178.00
1333.255, 10262.00
1334.318, 10280.00
1335.381, 10194.00
1336.444, 10213.00
1337.507, 10256.00
1338.569, 10140.00
1339.632, 10222.00
1340.694, 10258.00
1341.756, 10156.00
1342.818, 10190.00
1343.880, 10166.00
1344.941, 10248.00
1346.003, 10197.00
1347.064, 10213.00
1348.125, 10291.00
1349.186, 10287.00
1350.247, 10314.00
1351.308, 10156.00
1352.368, 10301.00
1353.428, 10130.00
1354.489, 10140.00
1355.549, 10360.00
1356.608, 10403.00
1357.668, 10365.00
1358.727, 10428.00
1359.787, 10297.00
1360.846, 10298.00
1361.905, 10394.00
1362.964, 10288.00
1364.022, 10351.00
1365.081, 10345.00
1366.139, 10352.00
1367.197, 10280.00
1368.255, 10287.00
1369.313, 10256.98
1370.371, 10255.00
1371.428, 10227.00
1372.486, 10262.00
1373.543, 10281.00
1374.600, 10389.00
1375.657, 10417.00
1376.713, 10447.00
1377.770, 10435.00
1378.826, 10426.00
1379.882, 10413.00
1380.938, 10321.00
1381.994, 10345.00
1383.050, 10354.00
1384.106, 10294.00
1385.161, 10421.00
1386.216, 10262.00
1387.271, 10297.00
1388.326, 10405.00
1389.381, 10423.00
1390.435, 10283.00
1391.490, 10329.00
1392.544, 10307.00
1393.598, 10349.00
1394.652, 10348.89
1395.705, 10352.00
1396.759, 10352.00
1397.812, 10327.00
1398.866, 10317.00
1399.919, 10478.00
1400.972, 10348.00
1402.024, 10570.00
1403.077, 10455.00
1404.129, 10356.00
1405.181, 10478.00
1406.233, 10452.00
1407.285, 10497.00
1408.337, 10451.00
1409.389, 10357.00
1410.440, 10444.00
1411.491, 10359.00
1412.542, 10413.00
1413.593, 10334.00
1414.644, 10548.00
1415.695, 10477.00
1416.745, 11041.00
1417.795, 10458.00
1418.845, 10548.00
1419.895, 11000.00
1420.945, 10477.00
1421.995, 10354.00
1423.044, 10523.00
1424.093, 10386.00
1425.142, 10347.00
1426.191, 10475.00
1427.240, 10582.00
1428.289, 10273.00
1429.337, 10406.00
1430.385, 10489.00
1431.433, 10357.00
1432.481, 10554.00
1433.529, 10546.00
1434.577, 10426.00
1435.624, 10573.00
1436.672, 10551.00
1437.719, 10370.00
1438.766, 10534.00
1439.812, 10576.00
1440.859, 10570.00
1441.905, 10622.00
1442.952, 10584.00
1443.998, 10576.00
1445.044, 10640.00
1446.090, 10749.00
1447.135, 10784.00
1448.181, 10646.00
1449.226, 10707.00
1450.271, 10655.00
1451.316, 10677.00
1452.361, 10637.00
1453.405, 10694.00
1454.450, 10680.00
1455.494, 10645.00
1456.538, 10642.00
1457.582, 10607.29
1458.626, 10589.18
1459.670, 10577.00
1460.713, 10586.00
1461.757, 10637.00
1462.800, 10725.00
1463.843, 10775.00
1464.886, 10577.00
1465.928, 10647.00
1466.971, 10626.00
1468.013, 10534.00
1469.055, 10665.00
1470.097, 10633.00
1471.139, 10718.00
1472.181, 10690.00
1473.222, 10612.00
1474.263, 10579.00
1475.305, 10646.00
1476.346, 10610.00
1477.386, 10675.00
1478.427, 10627.00
1479.468, 10674.00
1480.508, 10618.00
1481.548, 10637.00
1482.588, 10678.00
1483.628, 10655.00
1484.668, 10614.00
1485.707, 10549.00
1486.747, 10750.00
1487.786, 10687.00
1488.825, 10611.00
1489.864, 10401.00
1490.902, 10686.00
1491.941, 10615.00
1492.979, 10563.00
1494.017, 10729.00
1495.055, 10655.00
1496.093, 10448.00
1497.131, 10696.00
1498.168, 10602.00
1499.206, 10623.00
1500.243, 10719.00
1501.280, 10556.00
1502.317, 10665.00
1503.354, 10581.00
1504.390, 10597.00
1505.426, 10660.00
1506.463, 10641.00
1507.499, 10691.00
1508.535, 10675.00
1509.570, 10736.00
1510.606, 10606.00
1511.641, 10794.00
1512.676, 10647.00
1513.711, 10787.00
1514.746, 10740.00
1515.781, 10817.00
1516.816, 10733.00
1517.850, 10725.00
1518.884, 10746.00
1519.918, 10714.00
1520.952, 10671.00
1521.986, 10733.00
1523.019, 10635.00
1524.053, 10769.00
1525.086, 10730.00
1526.119, 10867.00
1527.152, 10788.00
1528.185, 10799.00
1529.217, 10762.00
1530.250, 10888.00
1531.282, 10736.00
1532.314, 10715.00
1533.346, 10653.00
1534.377, 10812.00
1535.409, 10838.00
1536.440, 10821.00
1537.472, 10900.00
1538.503, 10798.00
1539.534, 10747.00
1540.564, 10706.00
1541.595, 10663.00
1542.625, 11157.00
1543.656, 10909.39
1544.686, 11213.00
1545.716, 10747.00
1546.745, 10906.00
1547.775, 10820.00
1548.804, 10752.00
1549.834, 10733.00
1550.863, 10930.00
1551.892, 10768.00
1552.920, 10853.00
1553.949, 10804.00
1554.977, 10826.00
1556.006, 10844.00
1557.034, 10903.00
1558.062, 10839.00
1559.089, 10755.00
1560.117, 10854.00
1561.144, 10852.00
1562.172, 10833.86
1563.199, 11000.00
1564.226, 10813.00
1565.252, 10971.00
1566.279, 10970.00
1567.305, 10859.00
1568.332, 10994.00
1569.358, 11014.00
1570.384, 11053.00
1571.409, 10894.00
1572.435, 10984.00
##END=



