##NAMES=Clinozoisite
##RRUFFID=R060284
##IDEAL CHEMISTRY=Ca_2_Al_3_(Si_2_O_7_)(SiO_4_)O(OH)
##LOCALITY=near Zagi Mountain, Khaffor Dehri, North-West Frontier Province, Pakistan
##OWNER=RRUFF
##SOURCE=Herb Obodda
##DESCRIPTION=Greenish-brown fragment of a prismatic crystal
##STATUS=The identification of this mineral has been confirmed by X-ray diffraction and chemical analysis
##URL=rruff.info/R060284
##MEASURED CHEMISTRY=Ca_2.00_(Al_0.90_Fe^3+^_0.10_)_3_(Si_1.00_O_4_)(Si_2.00_O_7_)O(OH)
##PIN_ID=L00714
##ORIENTATION=Laser parallel to c* (0 0 1). Fiducial mark perpendicular to laser is parallel to a [1 0 0]
118.1340, 10066.00
119.3650, 9938.000
120.5960, 9755.000
121.8270, 9648.000
123.0580, 9595.884
124.2880, 9519.812
125.5190, 9579.000
126.7490, 9533.000
127.9790, 9597.000
129.2090, 9753.000
130.4390, 9757.000
131.6680, 9780.000
132.8980, 10080.00
134.1270, 10013.00
135.3560, 10295.00
136.5850, 10425.00
137.8140, 10784.00
139.0430, 11019.00
140.2710, 10903.00
141.5000, 10999.00
142.7280, 11013.00
143.9560, 11047.00
145.1840, 11261.00
146.4120, 11495.00
147.6390, 11459.00
148.8670, 11416.00
150.0940, 11635.00
151.3210, 11907.00
152.5490, 11948.00
153.7750, 12074.00
155.0020, 12153.00
156.2290, 12229.00
157.4550, 12220.11
158.6810, 12233.00
159.9080, 12139.00
161.1340, 12134.00
162.3590, 12080.00
163.5850, 12117.00
164.8110, 12242.00
166.0360, 12362.00
167.2610, 12610.00
168.4860, 12949.00
169.7110, 13642.00
170.9360, 13906.00
172.1610, 14063.00
173.3850, 14167.00
174.6100, 14025.00
175.8340, 13738.00
177.0580, 13477.00
178.2820, 12793.00
179.5050, 12374.00
180.7290, 11732.00
181.9520, 11431.00
183.1760, 11076.00
184.3990, 10797.00
185.6220, 10553.00
186.8450, 10439.00
188.0670, 10542.00
189.2900, 10420.00
190.5120, 10380.00
191.7340, 10415.00
192.9560, 10452.00
194.1780, 10357.00
195.4000, 10554.00
196.6220, 10431.00
197.8430, 10745.00
199.0640, 10870.00
200.2860, 10993.00
201.5070, 11275.00
202.7270, 11551.00
203.9480, 11733.00
205.1690, 11967.00
206.3890, 12118.00
207.6090, 12412.00
208.8290, 12862.00
210.0490, 13074.00
211.2690, 13336.00
212.4890, 13669.00
213.7080, 13895.00
214.9280, 13986.00
216.1470, 14158.87
217.3660, 14124.00
218.5850, 14273.00
219.8030, 14252.00
221.0220, 14200.00
222.2400, 14398.00
223.4590, 14470.00
224.6770, 14767.00
225.8950, 15062.00
227.1120, 15780.00
228.3300, 16487.99
229.5480, 17311.00
230.7650, 18510.00
231.9820, 19636.00
233.1990, 21071.00
234.4160, 21960.00
235.6330, 22310.00
236.8490, 22439.00
238.0660, 22098.00
239.2820, 21555.00
240.4980, 20782.00
241.7140, 20154.00
242.9300, 19259.00
244.1460, 18880.00
245.3610, 18697.00
246.5770, 18539.00
247.7920, 18607.00
249.0070, 19235.00
250.2220, 19621.00
251.4370, 19559.00
252.6510, 19507.00
253.8660, 19309.00
255.0800, 18717.00
256.2940, 18186.00
257.5080, 17639.00
258.7220, 17439.00
259.9360, 16535.00
261.1490, 15365.00
262.3630, 14736.00
263.5760, 14725.00
264.7890, 14542.00
266.0020, 14868.00
267.2150, 15193.00
268.4270, 16029.00
269.6400, 16734.00
270.8520, 17960.00
272.0640, 19160.00
273.2760, 19814.00
274.4880, 20165.00
275.7000, 19737.00
276.9120, 19109.00
278.1230, 18234.00
279.3340, 17300.00
280.5450, 16641.00
281.7560, 15986.00
282.9670, 15344.00
284.1780, 14970.00
285.3880, 14695.00
286.5980, 14408.00
287.8090, 14249.00
289.0190, 13996.00
290.2290, 14022.00
291.4380, 13902.00
292.6480, 13926.00
293.8570, 13846.00
295.0670, 13714.00
296.2760, 13576.00
297.4850, 13607.00
298.6930, 13621.00
299.9020, 13416.00
301.1110, 13272.00
302.3190, 13239.00
303.5270, 13312.00
304.7350, 13368.46
305.9430, 13504.00
307.1510, 13757.00
308.3580, 14014.00
309.5660, 14433.00
310.7730, 14562.00
311.9800, 14821.00
313.1870, 14862.00
314.3940, 14933.00
315.6010, 14842.00
316.8070, 14829.00
318.0130, 14555.00
319.2200, 14445.00
320.4260, 14189.00
321.6310, 14153.00
322.8370, 14122.00
324.0430, 14084.00
325.2480, 14034.00
326.4540, 14545.00
327.6590, 14643.00
328.8640, 15040.00
330.0680, 15615.00
331.2730, 16295.00
332.4780, 16969.00
333.6820, 17915.00
334.8860, 19009.00
336.0900, 20011.00
337.2940, 21036.00
338.4980, 22245.00
339.7010, 23246.00
340.9050, 24238.00
342.1080, 24872.00
343.3110, 25765.00
344.5140, 26924.00
345.7170, 28142.00
346.9200, 29709.00
348.1220, 31387.00
349.3240, 33400.00
350.5270, 34730.00
351.7290, 34974.00
352.9310, 34764.00
354.1320, 33144.00
355.3340, 31282.00
356.5350, 28788.00
357.7370, 25834.00
358.9380, 23201.00
360.1390, 20908.00
361.3400, 18911.00
362.5400, 17269.00
363.7410, 15870.00
364.9410, 14833.00
366.1410, 14002.00
367.3410, 13386.00
368.5410, 12815.00
369.7410, 12412.00
370.9400, 11950.00
372.1400, 11416.00
373.3390, 11132.00
374.5380, 10840.00
375.7370, 10408.00
376.9360, 10193.00
378.1350, 9807.000
379.3330, 9893.000
380.5310, 9765.000
381.7300, 9548.000
382.9280, 9876.000
384.1260, 9938.000
385.3230, 9982.000
386.5210, 10200.00
387.7180, 10526.00
388.9160, 10645.00
390.1130, 10796.00
391.3100, 11023.00
392.5060, 11179.00
393.7030, 11405.00
394.9000, 11581.00
396.0960, 11696.00
397.2920, 11829.00
398.4880, 11725.00
399.6840, 11604.00
400.8800, 11204.00
402.0750, 10628.00
403.2710, 10295.00
404.4660, 9607.000
405.6610, 9370.000
406.8560, 9043.000
408.0510, 8729.000
409.2450, 8542.000
410.4400, 8499.000
411.6340, 8641.000
412.8280, 8849.000
414.0220, 9119.000
415.2160, 9434.000
416.4100, 10009.00
417.6030, 10637.00
418.7970, 11782.00
419.9900, 12869.00
421.1830, 14293.00
422.3760, 15913.00
423.5690, 17700.00
424.7610, 19341.00
425.9540, 20748.00
427.1460, 21759.00
428.3380, 22110.00
429.5300, 21677.00
430.7220, 21307.00
431.9140, 20530.00
433.1050, 19550.00
434.2970, 19031.00
435.4880, 18437.00
436.6790, 18196.00
437.8700, 18454.00
439.0610, 18722.00
440.2510, 19500.00
441.4420, 20674.00
442.6320, 22076.00
443.8220, 23771.00
445.0120, 25878.00
446.2020, 28110.00
447.3910, 30587.00
448.5810, 33162.00
449.7700, 35453.00
450.9600, 37109.00
452.1490, 38249.00
453.3370, 38469.00
454.5260, 37889.00
455.7150, 36957.00
456.9030, 35058.00
458.0910, 33502.00
459.2800, 31645.00
460.4670, 30111.00
461.6550, 28331.00
462.8430, 27323.00
464.0300, 26257.00
465.2180, 25770.00
466.4050, 25400.00
467.5920, 25257.00
468.7790, 25087.00
469.9650, 25076.00
471.1520, 24925.00
472.3380, 24983.00
473.5250, 24437.00
474.7110, 24490.00
475.8970, 24137.00
477.0820, 23728.00
478.2680, 23344.00
479.4540, 22788.00
480.6390, 22334.00
481.8240, 21681.00
483.0090, 21065.00
484.1940, 19936.00
485.3780, 19296.00
486.5630, 18425.00
487.7470, 17344.00
488.9320, 16470.00
490.1160, 15704.00
491.3000, 15035.00
492.4830, 14506.30
493.6670, 13841.00
494.8500, 13704.00
496.0340, 13472.00
497.2170, 13197.00
498.4000, 13487.00
499.5820, 13891.00
500.7650, 14156.00
501.9480, 14778.00
503.1300, 15442.00
504.3120, 16090.00
505.4940, 16895.00
506.6760, 17272.79
507.8580, 17439.97
509.0390, 17733.00
510.2210, 17263.00
511.4020, 16708.00
512.5830, 16278.00
513.7640, 15903.00
514.9450, 15364.00
516.1250, 14946.00
517.3060, 14531.00
518.4860, 14339.00
519.6660, 13942.00
520.8460, 13351.00
522.0260, 12725.00
523.2060, 12281.00
524.3850, 11821.00
525.5650, 11158.00
526.7440, 10521.00
527.9230, 10173.00
529.1020, 9557.000
530.2810, 9208.000
531.4590, 8869.000
532.6380, 8697.000
533.8160, 8422.000
534.9940, 8294.000
536.1720, 8163.000
537.3500, 8146.000
538.5270, 8243.000
539.7050, 8115.000
540.8820, 8234.000
542.0590, 8355.000
543.2360, 8345.000
544.4130, 8436.000
545.5900, 8376.000
546.7660, 8695.000
547.9430, 8693.000
549.1190, 8867.000
550.2950, 9012.000
551.4710, 9329.000
552.6470, 9746.000
553.8220, 10026.00
554.9980, 10653.00
556.1730, 11020.00
557.3480, 11948.00
558.5230, 12636.00
559.6980, 13824.00
560.8730, 15133.00
562.0470, 16991.00
563.2220, 19371.00
564.3960, 22498.00
565.5700, 26662.00
566.7440, 32151.00
567.9170, 39192.00
569.0910, 46242.00
570.2640, 52073.00
571.4380, 54364.00
572.6110, 53130.00
573.7840, 49018.00
574.9570, 43509.00
576.1290, 36773.00
577.3020, 30477.00
578.4740, 25219.00
579.6460, 21123.00
580.8180, 18724.00
581.9900, 17041.00
583.1620, 16176.00
584.3330, 15720.00
585.5040, 15767.00
586.6760, 16424.00
587.8470, 16856.00
589.0180, 17685.00
590.1880, 18659.00
591.3590, 19831.00
592.5290, 20986.00
593.7000, 22272.00
594.8700, 23398.00
596.0400, 25155.00
597.2090, 26577.00
598.3790, 28310.00
599.5490, 30321.00
600.7180, 32289.00
601.8870, 34144.00
603.0560, 36039.00
604.2250, 37069.00
605.3940, 37492.00
606.5620, 36827.00
607.7300, 35189.00
608.8990, 33044.00
610.0670, 30349.00
611.2350, 27469.00
612.4020, 25059.00
613.5700, 22533.00
614.7370, 20708.00
615.9050, 18816.00
617.0720, 17248.00
618.2390, 15885.00
619.4060, 14617.00
620.5720, 13433.00
621.7390, 12453.00
622.9050, 11607.00
624.0710, 10853.00
625.2370, 10230.00
626.4030, 9849.000
627.5690, 9329.000
628.7340, 9002.000
629.9000, 8533.000
631.0650, 8364.000
632.2300, 8181.000
633.3950, 8049.000
634.5600, 7905.000
635.7240, 7873.000
636.8890, 7515.000
638.0530, 7567.000
639.2170, 7391.000
640.3810, 7416.000
641.5450, 7422.000
642.7080, 7296.000
643.8720, 7257.000
645.0350, 7401.000
646.1980, 7509.000
647.3610, 7637.000
648.5240, 7874.000
649.6870, 8258.000
650.8490, 8648.000
652.0120, 9026.000
653.1740, 9481.000
654.3360, 10001.00
655.4980, 10338.00
656.6600, 10405.00
657.8210, 10436.00
658.9830, 10268.00
660.1440, 10115.00
661.3050, 9836.000
662.4660, 9648.000
663.6270, 9429.980
664.7870, 9126.000
665.9480, 9004.000
667.1080, 8689.000
668.2680, 8492.000
669.4280, 8214.000
670.5880, 8038.000
671.7480, 7847.000
672.9070, 7764.000
674.0670, 7666.000
675.2260, 7607.000
676.3850, 7525.000
677.5440, 7565.000
678.7030, 7623.000
679.8610, 7690.000
681.0200, 7908.000
682.1780, 7990.000
683.3360, 8068.000
684.4940, 8185.000
685.6520, 8258.000
686.8090, 8349.000
687.9670, 8379.514
689.1240, 8300.000
690.2810, 8411.000
691.4380, 8407.000
692.5950, 8415.000
693.7520, 8560.000
694.9080, 8634.000
696.0650, 8825.000
697.2210, 9018.000
698.3770, 9171.000
699.5330, 9410.000
700.6880, 9452.000
701.8440, 9357.000
702.9990, 9339.000
704.1550, 9101.000
705.3100, 8763.000
706.4650, 8550.000
707.6190, 8053.000
708.7740, 7662.000
709.9290, 7282.000
711.0830, 6877.647
712.2370, 6580.000
713.3910, 6219.000
714.5450, 5989.000
715.6980, 5831.000
716.8520, 5611.000
718.0050, 5341.000
719.1580, 5278.000
720.3110, 5122.000
721.4640, 5043.000
722.6170, 5043.000
723.7700, 4817.000
724.9220, 4753.000
726.0740, 4793.000
727.2260, 4808.000
728.3780, 4791.000
729.5300, 4775.541
730.6810, 4678.000
731.8330, 4701.000
732.9840, 4647.000
734.1350, 4618.000
735.2860, 4605.277
736.4370, 4611.000
737.5880, 4558.000
738.7380, 4587.000
739.8880, 4569.000
741.0390, 4531.000
742.1890, 4524.000
743.3380, 4433.000
744.4880, 4434.000
745.6380, 4304.000
746.7870, 4368.000
747.9360, 4290.000
749.0850, 4342.000
750.2340, 4306.000
751.3830, 4317.000
752.5310, 4288.000
753.6800, 4298.000
754.8280, 4223.000
755.9760, 4211.000
757.1240, 4232.000
758.2720, 4274.000
759.4190, 4257.000
760.5670, 4182.000
761.7140, 4188.000
762.8610, 4208.000
764.0080, 4200.000
765.1550, 4265.000
766.3020, 4194.000
767.4480, 4276.000
768.5950, 4222.000
769.7410, 4257.000
770.8870, 4227.000
772.0330, 4225.067
773.1780, 4242.719
774.3240, 4266.000
775.4690, 4268.782
776.6140, 4283.688
777.7590, 4287.000
778.9040, 4292.000
780.0490, 4299.000
781.1940, 4286.000
782.3380, 4403.000
783.4820, 4331.000
784.6260, 4325.000
785.7700, 4304.000
786.9140, 4408.000
788.0580, 4363.000
789.2010, 4431.000
790.3450, 4456.000
791.4880, 4505.000
792.6310, 4510.000
793.7730, 4546.000
794.9160, 4549.000
796.0590, 4618.000
797.2010, 4604.000
798.3430, 4712.000
799.4850, 4735.000
800.6270, 4702.000
801.7690, 4823.000
802.9100, 4804.000
804.0520, 4836.091
805.1930, 4775.000
806.3340, 4888.000
807.4750, 4969.000
808.6160, 5024.000
809.7560, 5098.000
810.8970, 5091.000
812.0370, 5181.000
813.1770, 5211.000
814.3170, 5438.000
815.4570, 5356.000
816.5960, 5643.000
817.7360, 5589.000
818.8750, 5738.000
820.0140, 5947.000
821.1530, 6032.000
822.2920, 6218.000
823.4310, 6313.000
824.5690, 6552.000
825.7070, 6679.000
826.8460, 6715.000
827.9840, 7073.000
829.1220, 7211.000
830.2590, 7461.000
831.3970, 7711.000
832.5340, 7732.000
833.6710, 7963.000
834.8080, 8155.000
835.9450, 8369.000
837.0820, 8475.000
838.2190, 8429.000
839.3550, 8616.000
840.4910, 8653.000
841.6270, 8770.000
842.7630, 8887.000
843.8990, 8905.000
845.0350, 9111.000
846.1700, 9109.000
847.3060, 9254.000
848.4410, 9345.000
849.5760, 9519.000
850.7100, 9684.000
851.8450, 9892.000
852.9800, 10101.00
854.1140, 10468.00
855.2480, 10732.00
856.3820, 11100.00
857.5160, 11514.00
858.6500, 11933.00
859.7830, 12684.00
860.9170, 13235.00
862.0500, 13922.00
863.1830, 14563.00
864.3160, 15609.00
865.4480, 16567.00
866.5810, 17925.00
867.7130, 18881.00
868.8460, 20378.00
869.9780, 21421.00
871.1100, 22592.00
872.2410, 23103.00
873.3730, 23788.00
874.5050, 24266.00
875.6360, 24757.00
876.7670, 25336.95
877.8980, 25713.00
879.0290, 26402.00
880.1590, 26800.00
881.2900, 27338.00
882.4200, 27716.00
883.5500, 28253.00
884.6800, 28478.00
885.8100, 28781.00
886.9400, 29482.00
888.0690, 29793.00
889.1990, 30526.00
890.3280, 31454.00
891.4570, 32520.00
892.5860, 33860.00
893.7140, 34992.00
894.8430, 36425.00
895.9710, 37091.00
897.1000, 38215.00
898.2280, 38986.00
899.3560, 39421.00
900.4830, 39940.00
901.6110, 40460.00
902.7380, 41233.00
903.8660, 42585.00
904.9930, 44277.00
906.1200, 46397.00
907.2460, 48839.00
908.3730, 51582.00
909.5000, 54256.00
910.6260, 57035.00
911.7520, 58667.00
912.8780, 60324.00
914.0040, 61096.00
915.1290, 60708.00
916.2550, 59699.00
917.3800, 57979.00
918.5050, 56104.00
919.6300, 53878.00
920.7550, 51866.00
921.8800, 49665.00
923.0040, 47313.00
924.1290, 45582.00
925.2530, 43662.00
926.3770, 42103.00
927.5010, 40195.00
928.6250, 38826.00
929.7480, 36846.00
930.8720, 35444.00
931.9950, 33620.00
933.1180, 31873.00
934.2410, 30085.00
935.3640, 28257.00
936.4860, 26450.00
937.6090, 24399.00
938.7310, 22911.00
939.8530, 21262.00
940.9750, 19798.00
942.0970, 18500.00
943.2180, 17342.00
944.3400, 16483.00
945.4610, 15496.00
946.5820, 14725.00
947.7030, 14169.00
948.8240, 13556.00
949.9450, 13481.00
951.0650, 12954.00
952.1860, 12878.00
953.3060, 12749.00
954.4260, 12508.00
955.5460, 12416.00
956.6650, 12271.00
957.7850, 12466.00
958.9040, 12341.00
960.0230, 12435.71
961.1420, 12374.84
962.2610, 12517.00
963.3800, 12319.00
964.4990, 12181.00
965.6170, 12363.00
966.7350, 12246.00
967.8530, 12379.00
968.9710, 12245.00
970.0890, 12126.00
971.2070, 12294.00
972.3240, 12468.00
973.4410, 12893.00
974.5580, 13387.00
975.6750, 14129.00
976.7920, 15019.00
977.9090, 16163.00
979.0250, 17494.00
980.1410, 19243.00
981.2580, 20931.00
982.3740, 22637.00
983.4890, 23951.00
984.6050, 24695.00
985.7200, 24808.00
986.8360, 24090.00
987.9510, 22862.00
989.0660, 21002.00
990.1810, 19254.00
991.2950, 17241.00
992.4100, 15668.00
993.5240, 14021.00
994.6390, 12776.00
995.7530, 11627.00
996.8660, 10837.00
997.9800, 10105.00
999.0940, 9431.000
1000.207, 9006.000
1001.320, 8510.000
1002.433, 8037.000
1003.546, 7882.000
1004.659, 7565.000
1005.772, 7347.000
1006.884, 7125.000
1007.996, 6932.000
1009.108, 6854.000
1010.220, 6686.000
1011.332, 6614.000
1012.444, 6597.000
1013.555, 6498.000
1014.666, 6629.000
1015.777, 6767.000
1016.888, 6781.000
1017.999, 6862.000
1019.110, 7029.000
1020.220, 7274.000
1021.331, 7488.000
1022.441, 7652.000
1023.551, 8014.000
1024.661, 8457.000
1025.770, 8945.000
1026.880, 9308.000
1027.989, 9627.000
1029.098, 9914.062
1030.207, 10082.20
1031.316, 10277.00
1032.425, 10312.00
1033.533, 10315.00
1034.642, 10387.00
1035.750, 10272.00
1036.858, 10259.00
1037.966, 10398.00
1039.073, 10645.00
1040.181, 10757.00
1041.288, 11082.00
1042.396, 11255.00
1043.503, 11424.00
1044.610, 11642.00
1045.716, 11852.00
1046.823, 11831.00
1047.929, 11860.00
1049.036, 11870.00
1050.142, 11661.00
1051.248, 11446.00
1052.353, 11157.00
1053.459, 10842.00
1054.564, 10370.00
1055.670, 10032.00
1056.775, 9599.343
1057.880, 9193.895
1058.985, 8739.000
1060.089, 8452.000
1061.194, 8035.000
1062.298, 7806.000
1063.402, 7567.000
1064.506, 7355.000
1065.610, 7263.000
1066.713, 7158.000
1067.817, 7023.000
1068.920, 6979.000
1070.023, 7012.000
1071.126, 7121.000
1072.229, 7302.000
1073.332, 7469.000
1074.435, 7752.000
1075.537, 7924.000
1076.639, 8321.000
1077.741, 8853.000
1078.843, 9283.000
1079.945, 9667.000
1081.046, 10473.00
1082.148, 11027.00
1083.249, 12002.00
1084.350, 13077.00
1085.451, 14461.00
1086.551, 16078.00
1087.652, 17899.00
1088.752, 19830.00
1089.853, 22132.00
1090.953, 24734.00
1092.053, 26628.00
1093.152, 27733.00
1094.252, 28276.00
1095.351, 27176.00
1096.451, 25115.00
1097.550, 22511.00
1098.649, 19760.00
1099.748, 17098.00
1100.846, 14645.00
1101.945, 12696.00
1103.043, 11165.00
1104.141, 9886.000
1105.239, 9151.000
1106.337, 8396.000
1107.434, 7970.000
1108.532, 7579.000
1109.629, 7264.000
1110.726, 7034.000
1111.823, 6914.000
1112.920, 6743.000
1114.017, 6480.000
1115.113, 6459.000
1116.210, 6262.000
1117.306, 6287.000
1118.402, 6162.000
1119.498, 5983.000
1120.593, 5966.000
1121.689, 5929.000
1122.784, 5797.000
1123.879, 5857.000
1124.974, 5731.000
1126.069, 5672.000
1127.164, 5620.000
1128.259, 5549.000
1129.353, 5504.000
1130.447, 5448.000
1131.541, 5401.000
1132.635, 5366.861
1133.729, 5338.242
1134.822, 5320.000
1135.916, 5300.000
1137.009, 5313.000
1138.102, 5294.000
1139.195, 5285.000
1140.288, 5183.000
1141.380, 5247.000
1142.473, 5761.000
1143.565, 6278.000
1144.657, 5588.000
1145.749, 5190.000
1146.841, 5066.000
1147.932, 5072.000
1149.024, 5069.000
1150.115, 5103.000
1151.206, 5067.778
1152.297, 5013.000
1153.388, 5024.000
1154.479, 4985.000
1155.569, 4991.000
1156.659, 4871.000
1157.750, 4993.000
1158.839, 4843.000
1159.929, 4843.000
1161.019, 4840.000
1162.108, 4825.000
1163.198, 4734.000
1164.287, 4730.000
1165.376, 4738.000
1166.465, 4764.000
1167.553, 4761.000
1168.642, 4747.000
1169.730, 4752.000
1170.818, 4694.000
1171.906, 4724.000
1172.994, 4656.000
1174.082, 4632.000
1175.170, 4656.612
1176.257, 4739.000
1177.344, 4673.000
1178.431, 4683.000
1179.518, 4640.000
1180.605, 4693.000
1181.691, 4681.000
1182.778, 4657.000
1183.864, 4685.000
1184.950, 4672.000
1186.036, 4623.000
1187.122, 4604.000
1188.207, 4617.000
1189.292, 4610.000
1190.378, 4657.000
1191.463, 4580.000
1192.548, 4609.000
1193.632, 4569.000
1194.717, 4576.000
1195.801, 4546.000
1196.886, 4583.000
1197.970, 4582.000
1199.054, 4617.000
1200.137, 4563.000
1201.221, 4569.000
1202.305, 4603.000
1203.388, 4515.000
1204.471, 4587.000
1205.554, 4532.000
1206.637, 4564.000
1207.719, 4501.000
1208.802, 4529.000
1209.884, 4499.000
1210.966, 4472.000
1212.048, 4457.000
1213.130, 4500.000
1214.212, 4399.000
1215.293, 4564.000
1216.374, 4429.000
1217.456, 4473.000
1218.536, 4422.000
1219.617, 4358.000
1220.698, 4355.000
1221.778, 4418.000
1222.859, 4392.000
1223.939, 4418.000
1225.019, 4389.000
1226.099, 4382.000
1227.178, 4470.000
1228.258, 4332.000
1229.337, 4388.000
1230.417, 4293.000
1231.496, 4342.000
1232.574, 4367.000
1233.653, 4397.000
1234.732, 4296.000
1235.810, 4341.000
1236.888, 4390.000
1237.966, 4266.000
1239.044, 4358.000
1240.122, 4328.000
1241.199, 4367.000
1242.277, 4261.000
1243.354, 4288.000
1244.431, 4244.000
1245.508, 4325.000
1246.585, 4278.000
1247.661, 4293.000
1248.738, 4309.000
1249.814, 4250.000
1250.890, 4321.000
1251.966, 4315.000
1253.042, 4300.000
1254.117, 4275.000
1255.193, 4264.000
1256.268, 4235.000
1257.343, 4248.000
1258.418, 4192.000
1259.493, 4280.000
1260.567, 4231.000
1261.642, 4251.000
1262.716, 4371.000
1263.790, 4356.000
1264.864, 4334.000
1265.938, 4292.000
1267.011, 4348.000
1268.085, 4343.000
1269.158, 4310.000
1270.231, 4245.000
1271.304, 4253.000
1272.377, 4261.000
1273.450, 4338.000
1274.522, 4334.000
1275.594, 4288.000
1276.666, 4355.000
1277.738, 4263.000
1278.810, 4402.000
1279.882, 4366.000
1280.953, 4311.000
1282.025, 4231.000
1283.096, 4267.000
1284.167, 4266.000
1285.238, 4328.000
1286.308, 4262.000
1287.379, 4318.000
1288.449, 4255.000
1289.519, 4351.000
1290.589, 4308.000
1291.659, 4270.000
1292.729, 4349.000
1293.798, 4277.000
1294.868, 4243.000
1295.937, 4205.000
1297.006, 4230.000
1298.075, 4166.000
1299.143, 4212.000
1300.212, 4255.000
1301.280, 4274.000
1302.348, 4221.000
1303.416, 4246.000
1304.484, 4246.000
1305.552, 4238.000
1306.620, 4250.000
1307.687, 4236.000
1308.754, 4239.221
1309.821, 4282.000
1310.888, 4230.000
1311.955, 4238.000
1313.021, 4218.000
1314.088, 4271.000
1315.154, 4188.000
1316.220, 4176.000
1317.286, 4327.000
1318.352, 4292.000
1319.417, 4241.000
1320.483, 4174.000
1321.548, 4233.000
1322.613, 4293.000
1323.678, 4266.000
1324.743, 4224.000
1325.807, 4298.000
1326.872, 4250.000
1327.936, 4229.000
1329.000, 4288.000
1330.064, 4260.000
1331.128, 4247.000
1332.191, 4166.000
1333.255, 4284.000
1334.318, 4258.000
1335.381, 4415.000
1336.444, 4342.000
1337.507, 4326.000
1338.569, 4216.000
1339.632, 4341.000
1340.694, 4286.000
1341.756, 4345.000
1342.818, 4304.000
1343.880, 4320.000
1344.941, 4327.000
1346.003, 4248.000
1347.064, 4291.000
1348.125, 4307.000
1349.186, 4294.000
1350.247, 4248.000
1351.308, 4294.000
1352.368, 4261.000
1353.428, 4277.000
1354.489, 4358.000
1355.549, 4256.000
1356.608, 4320.000
1357.668, 4377.000
1358.727, 4390.000
1359.787, 4414.000
1360.846, 4346.000
1361.905, 4338.000
1362.964, 4331.000
1364.022, 4332.000
1365.081, 4345.000
1366.139, 4347.566
1367.197, 4390.000
1368.255, 4350.000
1369.313, 4370.000
1370.371, 4335.000
1371.428, 4354.000
1372.486, 4346.903
1373.543, 4397.000
1374.600, 4361.000
1375.657, 4354.000
1376.713, 4399.000
1377.770, 4331.000
1378.826, 4327.000
1379.882, 4342.000
1380.938, 4295.000
1381.994, 4366.000
1383.050, 4336.000
1384.106, 4322.000
1385.161, 4272.000
1386.216, 4351.000
1387.271, 4302.000
1388.326, 4324.000
1389.381, 4372.000
1390.435, 4359.000
1391.490, 4286.000
1392.544, 4315.000
1393.598, 4288.000
1394.652, 4256.000
1395.705, 4264.000
1396.759, 4354.000
1397.812, 4286.000
1398.866, 4362.000
1399.919, 4283.000
1400.972, 4289.000
1402.024, 4256.000
1403.077, 4320.000
1404.129, 4333.000
1405.181, 4354.000
1406.233, 4382.585
1407.285, 4334.000
1408.337, 4384.000
1409.389, 4377.000
1410.440, 4308.000
1411.491, 4340.000
1412.542, 4274.000
1413.593, 4292.000
1414.644, 4303.562
1415.695, 4467.000
1416.745, 4339.000
1417.795, 4361.000
1418.845, 4370.000
1419.895, 4303.000
1420.945, 4302.000
1421.995, 4290.000
1423.044, 4288.194
1424.093, 4376.000
1425.142, 4324.000
1426.191, 4388.000
1427.240, 4418.000
1428.289, 4324.000
1429.337, 4338.000
1430.385, 4379.000
1431.433, 4285.000
1432.481, 4384.000
1433.529, 4379.000
1434.577, 4418.000
1435.624, 4361.000
1436.672, 4339.000
1437.719, 4354.000
1438.766, 4361.000
1439.812, 4385.000
1440.859, 4417.000
1441.905, 4426.000
1442.952, 4415.000
1443.998, 4340.000
1445.044, 4434.000
1446.090, 4392.000
1447.135, 4327.000
1448.181, 4386.000
1449.226, 4421.000
1450.271, 4375.000
1451.316, 4421.000
1452.361, 4331.000
1453.405, 4411.000
1454.450, 4442.000
1455.494, 4423.000
1456.538, 4473.000
1457.582, 4335.000
1458.626, 4538.000
1459.670, 4399.000
1460.713, 4289.000
1461.757, 4472.000
1462.800, 4382.000
1463.843, 4426.000
1464.886, 4400.000
1465.928, 4398.000
1466.971, 4493.000
1468.013, 4429.000
1469.055, 4422.000
1470.097, 4394.000
1471.139, 4349.000
1472.181, 4408.000
1473.222, 4444.000
1474.263, 4419.000
1475.305, 4420.000
1476.346, 4473.000
1477.386, 4379.000
1478.427, 4421.000
1479.468, 4385.000
1480.508, 4437.000
1481.548, 4395.000
1482.588, 4472.000
1483.628, 4426.000
1484.668, 4459.000
1485.707, 4464.000
1486.747, 4417.000
1487.786, 4434.000
1488.825, 4511.000
1489.864, 4422.000
1490.902, 4418.000
1491.941, 4317.000
1492.979, 4462.000
1494.017, 4422.000
1495.055, 4412.000
1496.093, 4422.000
1497.131, 4412.000
1498.168, 4449.000
1499.206, 4440.000
1500.243, 4420.000
1501.280, 4414.000
1502.317, 4392.000
1503.354, 4410.000
1504.390, 4407.000
1505.426, 4469.000
1506.463, 4523.000
1507.499, 4521.000
1508.535, 4612.000
1509.570, 4577.184
1510.606, 4468.000
1511.641, 4500.000
1512.676, 4470.000
1513.711, 4365.000
1514.746, 4409.000
1515.781, 4496.000
1516.816, 4403.000
1517.850, 4474.000
1518.884, 4490.000
1519.918, 4411.000
1520.952, 4445.000
1521.986, 4510.000
1523.019, 4461.000
1524.053, 4389.000
1525.086, 4479.000
1526.119, 4503.000
1527.152, 4547.000
1528.185, 4544.680
1529.217, 4452.000
1530.250, 4508.000
1531.282, 4466.000
1532.314, 4454.000
1533.346, 4507.000
1534.377, 4473.000
1535.409, 4409.000
1536.440, 4373.000
1537.472, 4414.000
1538.503, 4470.000
1539.534, 4454.000
1540.564, 4426.000
1541.595, 4425.000
1542.625, 4434.000
1543.656, 4412.000
1544.686, 4429.556
1545.716, 4405.000
1546.745, 4453.000
1547.775, 4476.000
1548.804, 4494.000
1549.834, 4458.000
1550.863, 4506.000
1551.892, 4508.000
1552.920, 4673.000
1553.949, 4634.000
1554.977, 4648.000
1556.006, 4604.000
1557.034, 4458.000
1558.062, 4445.000
1559.089, 4452.000
1560.117, 4442.000
1561.144, 4485.000
1562.172, 4485.000
1563.199, 4555.000
1564.226, 4549.644
1565.252, 4557.123
1566.279, 4541.000
1567.305, 4553.000
1568.332, 4507.000
1569.358, 4514.000
1570.384, 4586.000
1571.409, 4492.000
1572.435, 4601.000
##END=



