##NAMES=Clinozoisite
##RRUFFID=R040085
##IDEAL CHEMISTRY=Ca_2_Al_3_(Si_2_O_7_)(SiO_4_)O(OH)
##LOCALITY=Alamos, Sonora, Mexico
##OWNER=RRUFF
##SOURCE=University of Arizona Mineral Museum
##DESCRIPTION=Divergent aggregate of red thin prismatic crystals
##STATUS=The identification of this mineral has been confirmed by X-ray diffraction and chemical analysis
##URL=rruff.info/R040085
##MEASURED CHEMISTRY=Ca_2.03_(Al_0.90_Fe_0.13_)_3_(Si_1.00_O_4_)(Si_2.00_O_7_)O(OH)
##PIN_ID=M00327
##ORIENTATION=Laser parallel to (1 0 1). Fiducial mark perpendicular to laser is parallel to -b [0 -1 0]
191.7340, 29482.00
192.9560, 29538.00
194.1780, 29556.00
195.4000, 29524.00
196.6220, 29522.00
197.8430, 29563.00
199.0640, 29616.03
200.2860, 29774.00
201.5070, 29790.00
202.7270, 29881.00
203.9480, 29973.00
205.1690, 29983.00
206.3890, 30046.00
207.6090, 29915.00
208.8290, 30023.75
210.0490, 30024.00
211.2690, 30131.00
212.4890, 30221.00
213.7080, 30248.00
214.9280, 30355.00
216.1470, 30531.00
217.3660, 30555.93
218.5850, 30631.96
219.8030, 30686.00
221.0220, 30686.00
222.2400, 30738.00
223.4590, 30752.00
224.6770, 30902.00
225.8950, 30966.52
227.1120, 31104.00
228.3300, 31190.00
229.5480, 31302.00
230.7650, 31427.48
231.9820, 31753.00
233.1990, 31857.00
234.4160, 32010.00
235.6330, 32400.00
236.8490, 32145.00
238.0660, 32260.00
239.2820, 32613.00
240.4980, 32726.00
241.7140, 33097.00
242.9300, 33290.00
244.1460, 33555.00
245.3610, 34013.00
246.5770, 34296.00
247.7920, 34797.00
249.0070, 35639.00
250.2220, 36109.00
251.4370, 36406.00
252.6510, 36745.00
253.8660, 36868.00
255.0800, 36902.00
256.2940, 36940.00
257.5080, 36732.00
258.7220, 36461.00
259.9360, 36208.00
261.1490, 35734.00
262.3630, 35766.00
263.5760, 35578.00
264.7890, 35493.00
266.0020, 35498.00
267.2150, 35443.00
268.4270, 35498.02
269.6400, 35834.00
270.8520, 35609.00
272.0640, 35715.00
273.2760, 35715.00
274.4880, 35509.00
275.7000, 35460.00
276.9120, 35233.00
278.1230, 35156.00
279.3340, 34692.00
280.5450, 34746.00
281.7560, 34420.00
282.9670, 34257.00
284.1780, 34162.00
285.3880, 34131.00
286.5980, 34000.79
287.8090, 33976.00
289.0190, 33833.00
290.2290, 33946.00
291.4380, 33898.00
292.6480, 33935.00
293.8570, 33917.00
295.0670, 33945.00
296.2760, 34055.00
297.4850, 34000.00
298.6930, 33509.00
299.9020, 33733.00
301.1110, 33668.00
302.3190, 33455.00
303.5270, 33723.00
304.7350, 33398.00
305.9430, 33369.00
307.1510, 33532.00
308.3580, 33334.00
309.5660, 33516.00
310.7730, 33514.00
311.9800, 33552.00
313.1870, 33744.00
314.3940, 33755.03
315.6010, 34014.00
316.8070, 34002.00
318.0130, 34157.00
319.2200, 34482.00
320.4260, 34272.00
321.6310, 34588.00
322.8370, 34830.00
324.0430, 34813.00
325.2480, 34940.00
326.4540, 35006.00
327.6590, 35119.00
328.8640, 35191.00
330.0680, 35217.00
331.2730, 35403.34
332.4780, 35524.20
333.6820, 35722.00
334.8860, 35868.00
336.0900, 35979.00
337.2940, 36124.00
338.4980, 36423.00
339.7010, 36495.00
340.9050, 36799.00
342.1080, 36972.44
343.3110, 36964.00
344.5140, 37405.00
345.7170, 37707.00
346.9200, 38017.00
348.1220, 37997.00
349.3240, 38361.00
350.5270, 38730.00
351.7290, 38784.00
352.9310, 38306.00
354.1320, 37666.00
355.3340, 37489.00
356.5350, 37168.00
357.7370, 36655.00
358.9380, 36063.00
360.1390, 35812.00
361.3400, 35742.00
362.5400, 35295.00
363.7410, 35218.00
364.9410, 35271.00
366.1410, 35151.00
367.3410, 35273.00
368.5410, 35281.00
369.7410, 35201.90
370.9400, 35013.00
372.1400, 35058.00
373.3390, 34947.00
374.5380, 34846.00
375.7370, 34888.00
376.9360, 34913.00
378.1350, 34788.00
379.3330, 35021.00
380.5310, 34800.00
381.7300, 35336.00
382.9280, 35602.00
384.1260, 35402.00
385.3230, 35415.00
386.5210, 35780.00
387.7180, 35573.00
388.9160, 36001.00
390.1130, 35823.00
391.3100, 35710.00
392.5060, 35864.00
393.7030, 35638.00
394.9000, 35844.00
396.0960, 35553.00
397.2920, 35517.00
398.4880, 35483.00
399.6840, 35273.00
400.8800, 35374.00
402.0750, 35145.00
403.2710, 35123.00
404.4660, 35046.00
405.6610, 35081.00
406.8560, 35315.00
408.0510, 35149.00
409.2450, 34889.00
410.4400, 35061.00
411.6340, 35369.00
412.8280, 35024.00
414.0220, 35591.00
415.2160, 35374.00
416.4100, 35544.00
417.6030, 35772.00
418.7970, 35713.00
419.9900, 35781.00
421.1830, 36060.00
422.3760, 35906.00
423.5690, 36439.00
424.7610, 36291.00
425.9540, 36564.00
427.1460, 36808.00
428.3380, 36873.00
429.5300, 36675.00
430.7220, 36722.00
431.9140, 36751.00
433.1050, 37137.00
434.2970, 37128.00
435.4880, 37283.00
436.6790, 37433.44
437.8700, 37540.00
439.0610, 37713.00
440.2510, 37936.00
441.4420, 38258.00
442.6320, 38755.00
443.8220, 39373.00
445.0120, 39733.00
446.2020, 40409.00
447.3910, 40782.65
448.5810, 41432.00
449.7700, 41578.00
450.9600, 41610.00
452.1490, 41939.00
453.3370, 41654.00
454.5260, 41347.00
455.7150, 40850.00
456.9030, 40355.00
458.0910, 39849.00
459.2800, 39439.00
460.4670, 38948.00
461.6550, 38618.00
462.8430, 38231.00
464.0300, 38134.00
465.2180, 37977.00
466.4050, 37879.16
467.5920, 38112.00
468.7790, 37935.00
469.9650, 38030.00
471.1520, 38288.00
472.3380, 37936.00
473.5250, 38203.00
474.7110, 38343.00
475.8970, 38232.00
477.0820, 38289.00
478.2680, 38406.00
479.4540, 38455.00
480.6390, 38512.00
481.8240, 38569.42
483.0090, 38633.00
484.1940, 38652.00
485.3780, 38715.00
486.5630, 38769.00
487.7470, 38618.00
488.9320, 38569.00
490.1160, 38284.00
491.3000, 38062.00
492.4830, 38017.00
493.6670, 37884.00
494.8500, 37778.00
496.0340, 38190.00
497.2170, 37885.00
498.4000, 38017.00
499.5820, 37939.00
500.7650, 37987.00
501.9480, 38020.00
503.1300, 38303.00
504.3120, 38144.00
505.4940, 38267.00
506.6760, 38268.00
507.8580, 38605.00
509.0390, 38590.00
510.2210, 38655.00
511.4020, 38743.00
512.5830, 38780.00
513.7640, 38982.00
514.9450, 39064.00
516.1250, 38931.00
517.3060, 39026.00
518.4860, 38886.00
519.6660, 39285.00
520.8460, 39161.00
522.0260, 39295.00
523.2060, 38998.00
524.3850, 39222.00
525.5650, 38890.00
526.7440, 38993.00
527.9230, 38702.00
529.1020, 38750.00
530.2810, 38692.00
531.4590, 38514.00
532.6380, 38230.00
533.8160, 38229.00
534.9940, 38381.00
536.1720, 37972.00
537.3500, 38154.00
538.5270, 37848.00
539.7050, 37610.00
540.8820, 38033.00
542.0590, 37787.00
543.2360, 37900.00
544.4130, 38060.00
545.5900, 37922.00
546.7660, 38042.00
547.9430, 38002.00
549.1190, 38052.00
550.2950, 38170.00
551.4710, 38187.00
552.6470, 38018.00
553.8220, 38605.00
554.9980, 38445.00
556.1730, 38684.00
557.3480, 38946.00
558.5230, 38947.00
559.6980, 38917.00
560.8730, 39516.00
562.0470, 39477.00
563.2220, 40246.00
564.3960, 40886.00
565.5700, 41114.00
566.7440, 41857.00
567.9170, 42647.00
569.0910, 43277.00
570.2640, 43810.00
571.4380, 43926.00
572.6110, 43372.00
573.7840, 42925.00
574.9570, 41929.00
576.1290, 41041.00
577.3020, 40432.00
578.4740, 39874.00
579.6460, 39720.00
580.8180, 39552.00
581.9900, 39296.00
583.1620, 39442.00
584.3330, 39159.00
585.5040, 39418.00
586.6760, 39349.00
587.8470, 39571.00
589.0180, 39690.00
590.1880, 39672.00
591.3590, 39767.00
592.5290, 39634.00
593.7000, 39991.00
594.8700, 39740.00
596.0400, 40309.00
597.2090, 40154.00
598.3790, 40811.00
599.5490, 40622.00
600.7180, 40835.00
601.8870, 40974.00
603.0560, 40914.85
604.2250, 41220.00
605.3940, 40978.00
606.5620, 41015.00
607.7300, 41128.00
608.8990, 40736.00
610.0670, 40944.00
611.2350, 40460.00
612.4020, 40460.00
613.5700, 40212.00
614.7370, 40120.00
615.9050, 40126.00
617.0720, 40274.00
618.2390, 39962.00
619.4060, 39961.00
620.5720, 40034.00
621.7390, 39730.00
622.9050, 39452.00
624.0710, 39468.00
625.2370, 39302.63
626.4030, 39442.00
627.5690, 39255.00
628.7340, 39432.00
629.9000, 39468.00
631.0650, 39172.00
632.2300, 39480.00
633.3950, 39434.00
634.5600, 39500.00
635.7240, 39317.00
636.8890, 39443.00
638.0530, 39400.00
639.2170, 39411.00
640.3810, 39309.00
641.5450, 39636.00
642.7080, 39506.00
643.8720, 39717.00
645.0350, 39753.90
646.1980, 39568.00
647.3610, 39780.00
648.5240, 39642.00
649.6870, 39560.00
650.8490, 40130.00
652.0120, 40004.00
653.1740, 40035.00
654.3360, 39972.00
655.4980, 40321.00
656.6600, 40135.00
657.8210, 40281.00
658.9830, 40016.00
660.1440, 40096.00
661.3050, 40220.00
662.4660, 40098.00
663.6270, 39976.00
664.7870, 40035.00
665.9480, 40260.00
667.1080, 40000.00
668.2680, 40036.00
669.4280, 39910.00
670.5880, 40200.00
671.7480, 40162.00
672.9070, 40238.00
674.0670, 40172.00
675.2260, 40266.00
676.3850, 40128.00
677.5440, 40364.00
678.7030, 40430.00
679.8610, 39954.00
681.0200, 40112.00
682.1780, 40339.00
683.3360, 40470.00
684.4940, 40556.00
685.6520, 40498.00
686.8090, 40413.00
687.9670, 40511.00
689.1240, 40343.00
690.2810, 40629.00
691.4380, 40497.00
692.5950, 40838.00
693.7520, 40856.00
694.9080, 40542.00
696.0650, 40900.00
697.2210, 41232.00
698.3770, 40636.00
699.5330, 41009.00
700.6880, 41010.00
701.8440, 41029.00
702.9990, 40950.00
704.1550, 41001.00
705.3100, 40841.00
706.4650, 40793.00
707.6190, 40626.00
708.7740, 40737.00
709.9290, 41004.00
711.0830, 40700.00
712.2370, 40957.00
713.3910, 40730.00
714.5450, 40589.00
715.6980, 40535.00
716.8520, 40799.00
718.0050, 40555.00
719.1580, 40761.00
720.3110, 40950.00
721.4640, 40512.00
722.6170, 40851.00
723.7700, 40774.00
724.9220, 40715.00
726.0740, 40744.00
727.2260, 40788.00
728.3780, 40635.00
729.5300, 40951.00
730.6810, 40658.00
731.8330, 40918.00
732.9840, 41166.00
734.1350, 41130.00
735.2860, 41177.00
736.4370, 41154.00
737.5880, 41155.00
738.7380, 41187.02
739.8880, 41133.00
741.0390, 41201.00
742.1890, 41133.00
743.3380, 41057.00
744.4880, 41073.00
745.6380, 40987.00
746.7870, 41195.00
747.9360, 41503.00
749.0850, 41140.00
750.2340, 41504.00
751.3830, 41249.00
752.5310, 41361.00
753.6800, 41195.00
754.8280, 41243.00
755.9760, 41195.00
757.1240, 41320.00
758.2720, 41414.00
759.4190, 41388.00
760.5670, 41412.00
761.7140, 41421.00
762.8610, 41384.00
764.0080, 41437.00
765.1550, 41451.69
766.3020, 41471.98
767.4480, 41486.00
768.5950, 41624.00
769.7410, 41555.00
770.8870, 41811.00
772.0330, 41854.00
773.1780, 41754.00
774.3240, 41678.00
775.4690, 41978.00
776.6140, 41664.00
777.7590, 41719.00
778.9040, 42062.00
780.0490, 41736.00
781.1940, 41833.00
782.3380, 42069.00
783.4820, 41948.00
784.6260, 41922.00
785.7700, 41786.00
786.9140, 41898.00
788.0580, 42036.00
789.2010, 41642.00
790.3450, 41993.00
791.4880, 42084.00
792.6310, 42423.00
793.7730, 42032.00
794.9160, 42294.00
796.0590, 42240.00
797.2010, 42186.00
798.3430, 42101.00
799.4850, 42363.00
800.6270, 42388.00
801.7690, 42411.00
802.9100, 42564.00
804.0520, 42195.00
805.1930, 42540.00
806.3340, 42472.00
807.4750, 42410.00
808.6160, 42540.00
809.7560, 42604.00
810.8970, 42753.00
812.0370, 42703.00
813.1770, 42746.00
814.3170, 42658.00
815.4570, 42524.00
816.5960, 42769.00
817.7360, 42757.00
818.8750, 42789.00
820.0140, 43167.00
821.1530, 43050.00
822.2920, 43062.00
823.4310, 43146.00
824.5690, 43068.00
825.7070, 43079.00
826.8460, 43345.00
827.9840, 43236.00
829.1220, 43394.00
830.2590, 43491.00
831.3970, 43467.00
832.5340, 43550.00
833.6710, 43495.00
834.8080, 43550.00
835.9450, 43697.00
837.0820, 43767.00
838.2190, 43473.00
839.3550, 43867.00
840.4910, 43771.00
841.6270, 43632.00
842.7630, 43917.00
843.8990, 43775.00
845.0350, 44024.00
846.1700, 44293.00
847.3060, 44683.00
848.4410, 44369.00
849.5760, 44471.00
850.7100, 44665.00
851.8450, 44363.00
852.9800, 44802.00
854.1140, 45037.00
855.2480, 44948.00
856.3820, 45230.00
857.5160, 45381.00
858.6500, 45550.00
859.7830, 45813.00
860.9170, 45718.00
862.0500, 45931.00
863.1830, 45931.00
864.3160, 46275.00
865.4480, 46289.00
866.5810, 46533.00
867.7130, 47007.00
868.8460, 46680.00
869.9780, 47179.00
871.1100, 47455.00
872.2410, 47575.00
873.3730, 48101.00
874.5050, 47970.00
875.6360, 48176.00
876.7670, 48246.00
877.8980, 48513.00
879.0290, 48594.00
880.1590, 48717.00
881.2900, 48757.00
882.4200, 48883.00
883.5500, 48963.00
884.6800, 48686.00
885.8100, 48658.00
886.9400, 49131.00
888.0690, 48744.00
889.1990, 49305.00
890.3280, 49457.00
891.4570, 49152.00
892.5860, 49457.00
893.7140, 49641.00
894.8430, 49621.00
895.9710, 49943.00
897.1000, 49939.00
898.2280, 49704.00
899.3560, 49333.00
900.4830, 49199.00
901.6110, 49206.00
902.7380, 49071.00
903.8660, 49054.00
904.9930, 49091.00
906.1200, 49338.00
907.2460, 49312.00
908.3730, 49646.00
909.5000, 49820.00
910.6260, 49778.00
911.7520, 49737.00
912.8780, 49968.00
914.0040, 49697.00
915.1290, 49959.00
916.2550, 49676.00
917.3800, 49528.00
918.5050, 49305.00
919.6300, 49014.00
920.7550, 49031.00
921.8800, 48580.00
923.0040, 48697.00
924.1290, 48429.00
925.2530, 47822.00
926.3770, 48300.00
927.5010, 47760.00
928.6250, 47908.00
929.7480, 47958.00
930.8720, 47577.00
931.9950, 47344.00
933.1180, 47437.00
934.2410, 46982.00
935.3640, 47182.00
936.4860, 46829.00
937.6090, 46916.00
938.7310, 46796.00
939.8530, 46630.00
940.9750, 46888.00
942.0970, 47029.00
943.2180, 46663.00
944.3400, 46341.00
945.4610, 46553.00
946.5820, 46450.00
947.7030, 46299.00
948.8240, 46585.00
949.9450, 46580.00
951.0650, 46592.00
952.1860, 46541.00
953.3060, 46694.00
954.4260, 46584.00
955.5460, 46658.00
956.6650, 46301.00
957.7850, 46560.00
958.9040, 46294.00
960.0230, 46385.00
961.1420, 46327.00
962.2610, 46499.00
963.3800, 46457.00
964.4990, 46344.00
965.6170, 46279.00
966.7350, 46364.30
967.8530, 46509.00
968.9710, 46556.00
970.0890, 46794.00
971.2070, 46864.00
972.3240, 46979.00
973.4410, 47158.00
974.5580, 47097.00
975.6750, 47173.00
976.7920, 47417.00
977.9090, 47486.00
979.0250, 47850.00
980.1410, 47703.00
981.2580, 48290.00
982.3740, 48225.00
983.4890, 48410.00
984.6050, 48535.00
985.7200, 48266.00
986.8360, 48420.00
987.9510, 48077.00
989.0660, 48232.00
990.1810, 48240.00
991.2950, 47791.00
992.4100, 47524.00
993.5240, 47837.00
994.6390, 47388.00
995.7530, 47269.00
996.8660, 47431.00
997.9800, 47408.00
999.0940, 47281.00
1000.207, 47212.00
1001.320, 47404.00
1002.433, 47067.00
1003.546, 47370.00
1004.659, 47072.00
1005.772, 47113.00
1006.884, 47426.00
1007.996, 47192.00
1009.108, 47276.00
1010.220, 47338.00
1011.332, 46984.00
1012.444, 47139.00
1013.555, 47650.00
1014.666, 47326.00
1015.777, 47450.00
1016.888, 47227.00
1017.999, 47483.00
1019.110, 47642.00
1020.220, 47593.00
1021.331, 47494.00
1022.441, 47812.00
1023.551, 48136.00
1024.661, 47921.00
1025.770, 48143.00
1026.880, 48114.00
1027.989, 48028.00
1029.098, 48066.00
1030.207, 48524.00
1031.316, 48490.00
1032.425, 48524.00
1033.533, 48612.37
1034.642, 48578.73
1035.750, 48415.00
1036.858, 48565.00
1037.966, 48209.00
1039.073, 48140.00
1040.181, 48323.00
1041.288, 48737.00
1042.396, 48668.00
1043.503, 48675.00
1044.610, 48504.00
1045.716, 48727.00
1046.823, 48590.00
1047.929, 48565.00
1049.036, 48691.00
1050.142, 48804.00
1051.248, 48829.46
1052.353, 48914.00
1053.459, 48904.00
1054.564, 48674.00
1055.670, 48597.00
1056.775, 49112.00
1057.880, 48860.00
1058.985, 48813.00
1060.089, 48678.00
1061.194, 48418.00
1062.298, 48856.00
1063.402, 48901.00
1064.506, 48763.00
1065.610, 48907.00
1066.713, 49244.00
1067.817, 49151.00
1068.920, 49232.00
1070.023, 49218.00
1071.126, 49337.00
1072.229, 49167.00
1073.332, 49364.00
1074.435, 49401.00
1075.537, 49592.00
1076.639, 49617.45
1077.741, 49684.07
1078.843, 49663.00
1079.945, 49752.00
1081.046, 49759.00
1082.148, 49760.00
1083.249, 49666.00
1084.350, 49875.00
1085.451, 50212.00
1086.551, 49974.00
1087.652, 50465.00
1088.752, 50557.00
1089.853, 50670.00
1090.953, 50859.00
1092.053, 51063.00
1093.152, 51032.00
1094.252, 51021.00
1095.351, 51163.00
1096.451, 50759.00
1097.550, 50883.00
1098.649, 50849.00
1099.748, 50319.00
1100.846, 49993.00
1101.945, 50098.00
1103.043, 50074.00
1104.141, 49840.00
1105.239, 49828.00
1106.337, 49783.00
1107.434, 49671.00
1108.532, 49708.00
1109.629, 49997.00
1110.726, 49910.00
1111.823, 50090.00
1112.920, 49585.00
1114.017, 50067.00
1115.113, 49822.00
1116.210, 49970.00
1117.306, 49844.00
1118.402, 50101.00
1119.498, 50194.00
1120.593, 50134.00
1121.689, 50200.00
1122.784, 50123.00
1123.879, 50242.00
1124.974, 50225.00
1126.069, 50150.00
1127.164, 50018.00
1128.259, 50026.70
1129.353, 49972.04
1130.447, 50082.00
1131.541, 50008.00
1132.635, 50240.00
1133.729, 50406.00
1134.822, 50388.00
1135.916, 50379.00
1137.009, 50221.00
1138.102, 50440.00
1139.195, 50026.00
1140.288, 50901.00
1141.380, 50234.00
1142.473, 50438.00
1143.565, 50262.00
1144.657, 50249.00
1145.749, 50455.00
1146.841, 50422.00
1147.932, 50472.29
1149.024, 50616.00
1150.115, 50519.00
1151.206, 50576.00
1152.297, 50638.00
1153.388, 50906.00
1154.479, 50710.00
1155.569, 50732.00
1156.659, 50606.00
1157.750, 50869.00
1158.839, 50523.00
1159.929, 50845.00
1161.019, 50980.00
1162.108, 50998.00
1163.198, 50945.00
1164.287, 51078.40
1165.376, 50950.00
1166.465, 51208.00
1167.553, 51138.00
1168.642, 51113.00
1169.730, 51036.00
1170.818, 51089.00
1171.906, 51065.00
1172.994, 51164.62
1174.082, 51342.00
1175.170, 51357.00
1176.257, 51411.00
1177.344, 51398.00
1178.431, 51411.82
1179.518, 51390.00
1180.605, 51353.00
1181.691, 51343.00
1182.778, 51343.14
1183.864, 51534.00
1184.950, 51398.00
1186.036, 51492.00
1187.122, 51602.00
1188.207, 51932.00
1189.292, 51643.00
1190.378, 51685.00
1191.463, 51812.00
1192.548, 51629.00
1193.632, 51709.00
1194.717, 51927.00
1195.801, 51567.00
1196.886, 51840.00
1197.970, 51775.00
1199.054, 51591.00
1200.137, 52004.00
1201.221, 51911.00
1202.305, 51945.00
1203.388, 52117.00
1204.471, 52259.00
1205.554, 52197.00
1206.637, 52365.00
1207.719, 52310.36
1208.802, 52218.00
1209.884, 52190.00
1210.966, 52216.00
1212.048, 52060.00
1213.130, 52137.00
1214.212, 51990.00
1215.293, 52509.00
1216.374, 52358.00
1217.456, 52597.00
1218.536, 52269.00
1219.617, 52702.00
1220.698, 52394.00
1221.778, 52454.00
1222.859, 52636.00
1223.939, 52300.00
1225.019, 52582.00
1226.099, 52863.00
1227.178, 52724.00
1228.258, 52494.00
1229.337, 52630.00
1230.417, 52473.00
1231.496, 52471.00
1232.574, 52663.00
1233.653, 52529.00
1234.732, 52767.00
1235.810, 52700.00
1236.888, 52778.00
1237.966, 53072.00
1239.044, 53042.00
1240.122, 53150.00
1241.199, 52923.00
1242.277, 52875.00
1243.354, 52926.00
1244.431, 52982.00
1245.508, 52989.98
1246.585, 52853.00
1247.661, 53097.00
1248.738, 53058.00
1249.814, 53174.00
1250.890, 52962.00
1251.966, 53080.00
1253.042, 52813.00
1254.117, 52829.00
1255.193, 52797.00
1256.268, 52763.00
1257.343, 52990.00
1258.418, 52963.00
1259.493, 52969.00
1260.567, 52907.00
1261.642, 53157.00
1262.716, 53433.00
1263.790, 53586.00
1264.864, 53741.00
1265.938, 53592.00
1267.011, 53615.00
1268.085, 53658.00
1269.158, 53698.00
1270.231, 53485.00
1271.304, 53448.00
1272.377, 53581.00
1273.450, 53877.00
1274.522, 53585.00
1275.594, 53971.00
1276.666, 53413.00
1277.738, 53834.00
1278.810, 53863.00
1279.882, 53919.00
1280.953, 54018.00
1282.025, 53935.22
1283.096, 53749.00
1284.167, 53826.00
1285.238, 53911.00
1286.308, 53959.00
1287.379, 54197.00
1288.449, 54007.00
1289.519, 53942.00
1290.589, 54147.00
1291.659, 54289.00
1292.729, 54183.00
1293.798, 54084.00
1294.868, 54005.00
1295.937, 54090.00
1297.006, 54147.51
1298.075, 54425.00
1299.143, 54398.00
1300.212, 54614.00
1301.280, 54673.00
1302.348, 54402.00
1303.416, 54377.00
1304.484, 54539.00
1305.552, 54730.00
1306.620, 54674.00
1307.687, 54839.73
1308.754, 54680.00
1309.821, 54948.00
1310.888, 54936.00
1311.955, 54868.00
1313.021, 54805.00
1314.088, 54741.00
1315.154, 54746.34
1316.220, 54972.00
1317.286, 54768.00
1318.352, 55025.00
1319.417, 55037.00
1320.483, 55004.00
1321.548, 55176.00
1322.613, 55215.00
1323.678, 54927.00
1324.743, 55009.00
1325.807, 54914.00
1326.872, 55125.00
1327.936, 55079.00
1329.000, 55041.54
1330.064, 55166.00
1331.128, 55184.70
1332.191, 55324.00
1333.255, 55364.00
1334.318, 55461.00
1335.381, 55556.00
1336.444, 55533.46
1337.507, 55559.08
1338.569, 55528.00
1339.632, 55514.00
1340.694, 55583.00
1341.756, 55589.00
1342.818, 55599.00
1343.880, 55814.00
1344.941, 55840.00
1346.003, 55902.86
1347.064, 55906.00
1348.125, 55931.00
1349.186, 55815.00
1350.247, 55696.00
1351.308, 55799.00
1352.368, 55767.23
1353.428, 55955.00
1354.489, 55912.00
1355.549, 55943.00
1356.608, 56064.00
1357.668, 56180.00
1358.727, 56028.00
1359.787, 55753.00
1360.846, 56268.00
1361.905, 56096.00
1362.964, 56465.00
1364.022, 55951.00
1365.081, 56336.00
1366.139, 56208.00
1367.197, 56124.00
1368.255, 56378.00
1369.313, 56728.00
1370.371, 56229.00
1371.428, 56360.00
1372.486, 56202.00
1373.543, 56610.00
1374.600, 56723.00
1375.657, 56624.00
1376.713, 56235.00
1377.770, 56525.00
1378.826, 56701.00
1379.882, 56600.00
1380.938, 56910.00
1381.994, 56626.00
1383.050, 56698.00
1384.106, 56988.00
1385.161, 56909.00
1386.216, 56915.50
1387.271, 56457.00
1388.326, 56769.00
1389.381, 56719.00
1390.435, 56735.00
1391.490, 56798.29
1392.544, 56742.29
1393.598, 56783.00
1394.652, 56751.00
1395.705, 56789.06
1396.759, 56927.00
1397.812, 56949.00
1398.866, 57316.00
1399.919, 57218.00
1400.972, 57085.00
1402.024, 57465.00
1403.077, 57216.00
1404.129, 57197.00
1405.181, 57255.00
1406.233, 57445.00
1407.285, 57544.00
1408.337, 57392.00
1409.389, 57231.00
1410.440, 57367.00
1411.491, 57270.00
1412.542, 57548.00
1413.593, 57484.00
1414.644, 57623.00
1415.695, 57648.95
1416.745, 57644.11
1417.795, 57611.00
1418.845, 57666.00
1419.895, 57688.28
1420.945, 57615.00
1421.995, 57780.00
1423.044, 57851.00
1424.093, 57870.00
1425.142, 57856.00
1426.191, 57849.00
1427.240, 57696.00
1428.289, 57932.00
1429.337, 57527.00
1430.385, 57578.00
1431.433, 57937.00
1432.481, 58006.00
1433.529, 58236.00
1434.577, 58026.00
1435.624, 58143.00
1436.672, 58038.00
1437.719, 58054.00
1438.766, 57964.00
1439.812, 58261.00
1440.859, 57978.00
1441.905, 58127.00
1442.952, 58406.00
1443.998, 58464.00
1445.044, 58482.00
1446.090, 58604.00
1447.135, 58539.00
1448.181, 58571.52
1449.226, 58439.00
1450.271, 58497.00
1451.316, 58671.00
1452.361, 58547.00
1453.405, 58656.00
1454.450, 58353.00
1455.494, 58144.00
1456.538, 58741.00
1457.582, 58634.00
1458.626, 58829.00
1459.670, 58868.00
1460.713, 58784.00
1461.757, 58603.00
1462.800, 58893.00
1463.843, 58829.00
1464.886, 58554.00
1465.928, 58729.00
1466.971, 59219.00
1468.013, 58853.00
1469.055, 58773.00
1470.097, 59024.00
1471.139, 58704.00
1472.181, 58861.00
1473.222, 59069.00
1474.263, 59254.00
1475.305, 59259.00
1476.346, 59208.00
1477.386, 58769.00
1478.427, 59014.00
1479.468, 59178.00
1480.508, 58956.00
1481.548, 59419.00
1482.588, 59120.00
1483.628, 59151.00
1484.668, 59274.00
1485.707, 59504.00
1486.747, 59243.00
1487.786, 59287.00
1488.825, 59484.00
1489.864, 59601.00
1490.902, 59709.00
1491.941, 59715.64
1492.979, 59527.00
1494.017, 59630.00
1495.055, 59515.00
1496.093, 59442.00
1497.131, 59519.00
1498.168, 59647.00
1499.206, 59583.00
1500.243, 59729.00
1501.280, 59803.00
1502.317, 59862.00
1503.354, 59818.00
1504.390, 59645.00
1505.426, 59741.00
1506.463, 59887.00
1507.499, 60009.00
1508.535, 60179.00
1509.570, 59902.00
1510.606, 60037.00
1511.641, 60097.00
1512.676, 60207.00
1513.711, 59957.00
1514.746, 59948.00
1515.781, 60107.00
1516.816, 60047.00
1517.850, 60152.00
1518.884, 59905.00
1519.918, 59953.00
1520.952, 60149.00
1521.986, 60387.00
1523.019, 60285.00
1524.053, 60265.00
1525.086, 60627.00
1526.119, 60258.00
1527.152, 60371.00
1528.185, 60377.00
1529.217, 60256.00
1530.250, 60595.00
1531.282, 60338.00
1532.314, 60388.00
1533.346, 60048.00
1534.377, 60525.00
1535.409, 60574.00
1536.440, 60355.00
1537.472, 60395.00
1538.503, 60524.00
1539.534, 60424.00
1540.564, 60662.00
1541.595, 60639.00
1542.625, 60607.00
1543.656, 60598.00
1544.686, 60784.00
1545.716, 60714.00
1546.745, 60928.00
1547.775, 60686.00
1548.804, 60799.50
1549.834, 60810.00
1550.863, 60825.00
1551.892, 60818.00
1552.920, 60768.00
1553.949, 60884.00
1554.977, 60831.00
1556.006, 60928.00
1557.034, 61217.00
1558.062, 60935.00
1559.089, 60838.00
1560.117, 61250.00
1561.144, 61039.00
1562.172, 61203.00
1563.199, 60770.00
1564.226, 61076.00
1565.252, 61171.00
1566.279, 60951.00
1567.305, 61230.00
1568.332, 61140.00
1569.358, 61038.00
1570.384, 61101.00
1571.409, 61051.00
1572.435, 61511.00
##END=



