##NAMES=Clinoptilolite-Na
##RRUFFID=R061099
##IDEAL CHEMISTRY=Na_6_(Si_30_Al_6_)O_72_&#183;20H_2_O
##LOCALITY=Richardson Ranch, Madras, Jefferson County, Oregon, USA
##OWNER=RRUFF
##SOURCE=Michael Scott
##DESCRIPTION=Red-brown to salmon, somewhat coffin shaped tabular crystals in a fragmented geode
##STATUS=The identification of this mineral has been confirmed by X-ray diffraction and chemical analysis
##URL=rruff.info/R061099
##MEASURED CHEMISTRY=(Na_2.70_Ca_1.46_K_0.89_Fe_0.08_Mg_0.02_)_Σ=5.15_(Si_29.29_Al_6.71_)O_72_·18.51H_2_O
##PIN_ID=M01086
##ORIENTATION=Laser parallel to (1 0 1). Fiducial mark perpendicular to laser is parallel to b [0 1 0]
86.89900, 635.0000
88.13400, 734.0000
89.36900, 783.0000
90.60400, 931.0000
91.83800, 996.0000
93.07300, 1161.000
94.30700, 1283.000
95.54100, 1450.000
96.77500, 1643.000
98.00900, 1773.000
99.24300, 1994.000
100.4770, 2217.000
101.7100, 2412.000
102.9440, 2548.000
104.1770, 2665.000
105.4100, 2868.725
106.6430, 3106.455
107.8750, 3312.036
109.1080, 3486.793
110.3400, 3575.904
111.5720, 3746.231
112.8040, 3866.162
114.0360, 3971.808
115.2680, 4117.133
116.5000, 4153.118
117.7310, 4272.070
118.9620, 4340.072
120.1940, 4407.000
121.4250, 4493.689
122.6550, 4526.000
123.8860, 4661.000
125.1170, 4751.000
126.3470, 4782.000
127.5770, 4827.000
128.8070, 4958.000
130.0370, 5036.000
131.2670, 5165.000
132.4970, 5206.000
133.7260, 5278.000
134.9550, 5351.000
136.1850, 5410.000
137.4140, 5415.000
138.6420, 5519.000
139.8710, 5579.000
141.1000, 5586.000
142.3280, 5562.000
143.5560, 5525.000
144.7840, 5521.000
146.0120, 5325.000
147.2400, 5349.000
148.4680, 5274.000
149.6950, 5248.000
150.9220, 5022.000
152.1500, 5050.000
153.3770, 4950.000
154.6030, 4846.000
155.8300, 4821.000
157.0570, 4643.000
158.2830, 4593.000
159.5090, 4600.000
160.7350, 4509.000
161.9610, 4497.000
163.1870, 4473.000
164.4130, 4403.000
165.6380, 4439.000
166.8630, 4465.000
168.0880, 4345.000
169.3130, 4343.000
170.5380, 4393.000
171.7630, 4318.000
172.9870, 4256.000
174.2120, 4282.000
175.4360, 4173.000
176.6600, 4148.000
177.8840, 4130.000
179.1080, 4131.000
180.3310, 4036.000
181.5550, 4083.000
182.7780, 4054.000
184.0010, 4026.000
185.2240, 4161.000
186.4470, 4080.000
187.6700, 4110.000
188.8920, 4116.000
190.1150, 4047.000
191.3370, 3975.000
192.5590, 4102.000
193.7810, 4114.000
195.0020, 4130.000
196.2240, 4087.000
197.4450, 4119.000
198.6670, 4142.000
199.8880, 4136.000
201.1090, 4176.000
202.3300, 4108.384
203.5500, 4165.000
204.7710, 3979.000
205.9910, 3855.000
207.2110, 3800.000
208.4310, 3778.000
209.6510, 3764.000
210.8710, 3797.000
212.0910, 3756.000
213.3100, 3831.000
214.5290, 3831.000
215.7480, 3884.000
216.9670, 3805.000
218.1860, 3769.000
219.4050, 3784.000
220.6230, 3824.000
221.8420, 3894.000
223.0600, 3909.000
224.2780, 3949.000
225.4960, 3988.000
226.7130, 4001.000
227.9310, 3990.000
229.1480, 3975.000
230.3660, 3903.000
231.5830, 3900.000
232.8000, 3927.000
234.0160, 3870.000
235.2330, 3892.000
236.4490, 3977.000
237.6660, 3930.000
238.8820, 3889.000
240.0980, 4014.000
241.3140, 4011.000
242.5300, 4069.000
243.7450, 4035.000
244.9600, 4125.000
246.1760, 4210.000
247.3910, 4205.000
248.6060, 4206.000
249.8200, 4152.000
251.0350, 4101.000
252.2500, 4070.000
253.4640, 4069.000
254.6780, 4040.822
255.8920, 4053.000
257.1060, 4062.000
258.3190, 4064.000
259.5330, 4049.604
260.7460, 4050.384
261.9600, 4009.000
263.1730, 4027.000
264.3850, 4013.000
265.5980, 3984.000
266.8110, 3992.000
268.0230, 3943.000
269.2360, 3933.000
270.4480, 3941.000
271.6600, 3929.000
272.8710, 3912.000
274.0830, 3926.000
275.2950, 3854.000
276.5060, 3893.000
277.7170, 3926.000
278.9280, 3830.000
280.1390, 3864.000
281.3500, 3862.000
282.5600, 3784.000
283.7710, 3886.000
284.9810, 3863.000
286.1910, 3787.000
287.4010, 3911.000
288.6110, 4008.000
289.8200, 3960.000
291.0300, 3973.000
292.2390, 4023.000
293.4480, 4011.000
294.6570, 4033.000
295.8660, 4097.000
297.0750, 4080.000
298.2830, 4065.000
299.4920, 4033.000
300.7000, 4073.000
301.9080, 4033.000
303.1160, 4050.000
304.3240, 3946.000
305.5310, 4059.000
306.7390, 3973.000
307.9460, 3884.000
309.1530, 3933.000
310.3600, 3972.000
311.5670, 3903.000
312.7740, 3846.000
313.9800, 3892.000
315.1870, 3896.000
316.3930, 3895.000
317.5990, 3847.000
318.8050, 3895.000
320.0110, 3881.000
321.2160, 3942.000
322.4220, 3836.000
323.6270, 3872.000
324.8320, 3820.000
326.0370, 3942.000
327.2420, 3888.255
328.4460, 3941.118
329.6510, 3975.874
330.8550, 3993.540
332.0590, 3939.575
333.2630, 3980.699
334.4670, 3985.301
335.6710, 3989.489
336.8740, 4047.216
338.0780, 4009.490
339.2810, 4068.645
340.4840, 4090.701
341.6870, 4131.382
342.8900, 4135.307
344.0920, 4152.043
345.2950, 4207.826
346.4970, 4243.731
347.6990, 4247.787
348.9010, 4220.000
350.1030, 4294.000
351.3050, 4213.000
352.5060, 4300.000
353.7080, 4364.000
354.9090, 4344.000
356.1100, 4375.000
357.3110, 4468.000
358.5110, 4399.000
359.7120, 4519.000
360.9120, 4590.000
362.1130, 4654.000
363.3130, 4713.000
364.5130, 4749.000
365.7120, 4738.000
366.9120, 4843.000
368.1120, 4902.000
369.3110, 4899.000
370.5100, 4996.000
371.7090, 5094.000
372.9080, 5100.000
374.1070, 5181.000
375.3050, 5211.000
376.5040, 5401.000
377.7020, 5301.000
378.9000, 5469.000
380.0980, 5442.000
381.2950, 5646.000
382.4930, 5771.000
383.6910, 5861.000
384.8880, 6008.702
386.0850, 6118.000
387.2820, 6211.000
388.4790, 6385.000
389.6750, 6448.000
390.8720, 6538.000
392.0680, 6859.000
393.2640, 7063.000
394.4600, 7100.000
395.6560, 7361.000
396.8520, 7630.000
398.0480, 7668.000
399.2430, 7933.000
400.4380, 8150.000
401.6330, 8145.000
402.8280, 8190.000
404.0230, 8221.000
405.2180, 8347.000
406.4120, 8385.000
407.6060, 8384.000
408.8000, 8170.000
409.9940, 8164.000
411.1880, 8099.000
412.3820, 7862.000
413.5750, 7753.000
414.7690, 7436.000
415.9620, 7267.000
417.1550, 6970.000
418.3480, 6748.000
419.5410, 6575.000
420.7330, 6346.000
421.9260, 6227.000
423.1180, 6012.000
424.3100, 5892.000
425.5020, 5647.000
426.6940, 5649.000
427.8850, 5440.000
429.0770, 5333.000
430.2680, 5279.000
431.4590, 5172.000
432.6500, 5098.338
433.8410, 4960.000
435.0320, 4956.000
436.2220, 4801.000
437.4130, 4753.000
438.6030, 4671.000
439.7930, 4696.000
440.9830, 4643.000
442.1730, 4636.000
443.3620, 4548.000
444.5520, 4547.928
445.7410, 4483.000
446.9300, 4527.000
448.1190, 4561.000
449.3080, 4569.000
450.4960, 4546.000
451.6850, 4653.000
452.8730, 4492.000
454.0610, 4517.000
455.2490, 4612.000
456.4370, 4695.000
457.6250, 4742.000
458.8130, 4714.000
460.0000, 4689.000
461.1870, 4879.000
462.3740, 4899.000
463.5610, 5022.000
464.7480, 5003.000
465.9340, 5058.000
467.1210, 5139.000
468.3070, 5102.000
469.4930, 5183.000
470.6790, 5263.000
471.8650, 5366.000
473.0510, 5375.000
474.2360, 5420.000
475.4210, 5581.000
476.6070, 5771.000
477.7920, 5839.000
478.9770, 5873.000
480.1610, 5937.000
481.3460, 6087.000
482.5300, 6178.000
483.7140, 6138.000
484.8980, 6245.000
486.0820, 6148.000
487.2660, 6106.000
488.4500, 5969.000
489.6330, 5873.000
490.8160, 5701.000
492.0000, 5529.000
493.1830, 5369.000
494.3650, 5211.000
495.5480, 5071.000
496.7300, 4961.000
497.9130, 4927.000
499.0950, 4885.000
500.2770, 4747.000
501.4590, 4731.000
502.6410, 4653.538
503.8220, 4639.000
505.0030, 4547.000
506.1850, 4547.000
507.3660, 4513.000
508.5470, 4486.754
509.7270, 4484.000
510.9080, 4464.000
512.0880, 4453.405
513.2690, 4443.250
514.4490, 4434.000
515.6290, 4422.000
516.8090, 4414.000
517.9880, 4406.000
519.1680, 4394.000
520.3470, 4364.000
521.5260, 4353.773
522.7050, 4403.000
523.8840, 4322.000
525.0630, 4326.000
526.2410, 4321.000
527.4200, 4384.000
528.5980, 4317.000
529.7760, 4324.000
530.9540, 4347.000
532.1320, 4312.000
533.3090, 4428.000
534.4870, 4285.000
535.6640, 4425.000
536.8410, 4313.000
538.0180, 4275.000
539.1950, 4408.000
540.3710, 4305.000
541.5480, 4357.000
542.7240, 4466.000
543.9000, 4321.000
545.0760, 4326.000
546.2520, 4328.000
547.4280, 4344.000
548.6040, 4373.000
549.7790, 4330.000
550.9540, 4291.000
552.1290, 4362.000
553.3040, 4376.000
554.4790, 4390.000
555.6530, 4369.000
556.8280, 4418.000
558.0020, 4438.000
559.1760, 4396.000
560.3500, 4392.000
561.5240, 4376.000
562.6980, 4388.000
563.8710, 4368.000
565.0440, 4470.000
566.2170, 4449.000
567.3900, 4425.000
568.5630, 4587.000
569.7360, 4476.000
570.9090, 4468.000
572.0810, 4541.000
573.2530, 4534.000
574.4250, 4401.000
575.5970, 4479.000
576.7690, 4524.000
577.9400, 4488.000
579.1120, 4632.000
580.2830, 4547.000
581.4540, 4614.000
582.6250, 4636.000
583.7960, 4699.000
584.9660, 4616.000
586.1370, 4614.000
587.3070, 4645.000
588.4770, 4736.000
589.6470, 4716.000
590.8170, 4729.000
591.9870, 4692.000
593.1560, 4775.000
594.3260, 4750.000
595.4950, 4781.000
596.6640, 4798.438
597.8330, 4766.000
599.0010, 4816.000
600.1700, 4905.000
601.3380, 4926.000
602.5070, 4909.000
603.6750, 4979.000
604.8430, 4971.000
606.0100, 5019.000
607.1780, 5167.000
608.3450, 5188.000
609.5130, 5089.000
610.6800, 5204.000
611.8470, 5197.000
613.0140, 5219.000
614.1800, 5318.000
615.3470, 5312.000
616.5130, 5328.000
617.6790, 5296.000
618.8450, 5312.193
620.0110, 5330.420
621.1770, 5329.400
622.3420, 5310.190
623.5080, 5218.196
624.6730, 5220.183
625.8380, 5061.000
627.0030, 5083.000
628.1680, 5118.000
629.3320, 5035.000
630.4970, 5014.000
631.6610, 5013.000
632.8250, 5000.000
633.9890, 4981.987
635.1530, 4938.000
636.3160, 4946.000
637.4800, 4919.000
638.6430, 4900.000
639.8060, 4917.000
640.9690, 4840.000
642.1320, 4893.000
643.2950, 4953.000
644.4570, 4900.000
645.6200, 4804.000
646.7820, 4863.000
647.9440, 4982.000
649.1060, 4878.000
650.2670, 4852.000
651.4290, 4924.000
652.5900, 4901.000
653.7520, 4916.000
654.9130, 4809.000
656.0740, 4879.000
657.2340, 4845.000
658.3950, 4931.000
659.5550, 4924.000
660.7160, 4919.000
661.8760, 4848.000
663.0360, 5004.000
664.1960, 4982.000
665.3550, 4892.000
666.5150, 4874.000
667.6740, 5012.000
668.8330, 4985.000
669.9920, 4832.000
671.1510, 4938.000
672.3100, 4885.000
673.4680, 4825.000
674.6270, 4890.000
675.7850, 4837.000
676.9430, 4882.000
678.1010, 4786.000
679.2590, 4936.000
680.4160, 4929.000
681.5740, 4906.000
682.7310, 4995.000
683.8880, 4884.000
685.0450, 4951.000
686.2020, 4875.000
687.3580, 4855.000
688.5150, 4777.000
689.6710, 4773.000
690.8270, 4918.000
691.9830, 4882.000
693.1390, 4825.000
694.2950, 4961.000
695.4500, 4949.000
696.6050, 4886.000
697.7610, 4938.000
698.9160, 4877.000
700.0710, 4943.000
701.2250, 4885.000
702.3800, 4868.000
703.5340, 4907.000
704.6880, 4936.000
705.8420, 4865.000
706.9960, 4881.000
708.1500, 4864.000
709.3040, 4940.000
710.4570, 4945.000
711.6100, 4973.000
712.7640, 4921.000
713.9160, 4916.000
715.0690, 4936.000
716.2220, 4955.000
717.3740, 4948.000
718.5270, 5006.000
719.6790, 4977.000
720.8310, 5021.000
721.9830, 4934.000
723.1340, 5006.000
724.2860, 4950.000
725.4370, 4952.000
726.5880, 4850.000
727.7390, 4890.809
728.8900, 5062.000
730.0410, 4942.000
731.1910, 5011.000
732.3420, 5036.000
733.4920, 5057.000
734.6420, 5062.022
735.7920, 5040.000
736.9420, 5028.000
738.0910, 5031.000
739.2410, 5001.000
740.3900, 5047.000
741.5390, 4999.000
742.6880, 5097.000
743.8370, 5017.000
744.9860, 5029.000
746.1340, 5073.000
747.2820, 5090.000
748.4310, 5073.000
749.5790, 5109.000
750.7260, 5051.000
751.8740, 5070.000
753.0220, 5180.000
754.1690, 5196.000
755.3160, 5037.000
756.4630, 5173.000
757.6100, 5094.000
758.7570, 5113.000
759.9030, 5092.000
761.0500, 5218.000
762.1960, 5131.000
763.3420, 5181.000
764.4880, 5264.000
765.6340, 5271.000
766.7790, 5233.000
767.9250, 5295.000
769.0700, 5287.000
770.2150, 5260.000
771.3600, 5305.000
772.5050, 5305.000
773.6490, 5318.000
774.7940, 5330.000
775.9380, 5431.000
777.0820, 5383.000
778.2260, 5432.000
779.3700, 5486.000
780.5140, 5416.000
781.6570, 5446.000
782.8010, 5516.000
783.9440, 5476.000
785.0870, 5445.000
786.2300, 5487.000
787.3720, 5453.000
788.5150, 5493.000
789.6570, 5476.068
790.8000, 5526.000
791.9420, 5474.000
793.0840, 5473.000
794.2250, 5523.000
795.3670, 5531.000
796.5080, 5460.000
797.6500, 5570.000
798.7910, 5505.000
799.9320, 5487.000
801.0720, 5525.000
802.2130, 5484.000
803.3530, 5538.000
804.4940, 5445.000
805.6340, 5534.000
806.7740, 5458.000
807.9140, 5478.000
809.0530, 5492.000
810.1930, 5584.000
811.3320, 5550.000
812.4710, 5551.000
813.6100, 5459.000
814.7490, 5642.000
815.8880, 5678.000
817.0270, 5590.000
818.1650, 5681.000
819.3030, 5723.000
820.4410, 5733.000
821.5790, 5747.000
822.7170, 5718.000
823.8540, 5729.000
824.9920, 5647.000
826.1290, 5713.000
827.2660, 5573.000
828.4030, 5728.000
829.5400, 5547.000
830.6760, 5569.000
831.8130, 5604.000
832.9490, 5546.000
834.0850, 5583.000
835.2210, 5492.000
836.3570, 5421.000
837.4930, 5516.000
838.6280, 5440.000
839.7640, 5385.000
840.8990, 5538.000
842.0340, 5396.000
843.1690, 5546.000
844.3030, 5403.000
845.4380, 5486.000
846.5720, 5508.000
847.7060, 5486.000
848.8400, 5494.000
849.9740, 5486.000
851.1080, 5457.000
852.2420, 5543.000
853.3750, 5488.000
854.5080, 5553.000
855.6410, 5420.000
856.7740, 5494.000
857.9070, 5472.000
859.0400, 5597.000
860.1720, 5492.000
861.3040, 5538.000
862.4360, 5601.000
863.5680, 5518.000
864.7000, 5541.000
865.8320, 5499.000
866.9630, 5493.000
868.0950, 5479.000
869.2260, 5497.307
870.3570, 5606.000
871.4880, 5570.000
872.6180, 5521.000
873.7490, 5576.000
874.8790, 5484.000
876.0090, 5570.000
877.1390, 5544.000
878.2690, 5607.000
879.3990, 5613.000
880.5280, 5561.000
881.6580, 5562.000
882.7870, 5521.000
883.9160, 5544.000
885.0450, 5618.000
886.1740, 5609.000
887.3020, 5686.000
888.4310, 5562.000
889.5590, 5573.000
890.6870, 5629.000
891.8150, 5718.000
892.9430, 5614.000
894.0700, 5637.000
895.1980, 5608.000
896.3250, 5598.000
897.4520, 5600.000
898.5790, 5595.181
899.7060, 5612.000
900.8330, 5647.000
901.9590, 5576.000
903.0850, 5678.000
904.2120, 5636.000
905.3380, 5725.000
906.4630, 5734.000
907.5890, 5693.000
908.7150, 5697.000
909.8400, 5689.000
910.9650, 5691.605
912.0900, 5702.168
913.2150, 5706.000
914.3400, 5750.000
915.4640, 5735.000
916.5890, 5804.000
917.7130, 5774.000
918.8370, 5822.000
919.9610, 5837.000
921.0850, 5816.000
922.2080, 5859.000
923.3320, 5819.000
924.4550, 5773.000
925.5780, 5899.000
926.7010, 5689.000
927.8240, 5877.000
928.9460, 5880.000
930.0690, 5833.000
931.1910, 5731.000
932.3130, 5862.000
933.4350, 5857.000
934.5570, 5780.000
935.6790, 5913.000
936.8000, 5811.000
937.9220, 5834.000
939.0430, 5857.000
940.1640, 5987.000
941.2850, 5898.000
942.4050, 5871.000
943.5260, 6012.000
944.6460, 5922.000
945.7660, 5953.000
946.8860, 5948.000
948.0060, 6014.000
949.1260, 6000.000
950.2460, 5960.000
951.3650, 5975.000
952.4840, 6001.000
953.6030, 6066.000
954.7220, 6004.000
955.8410, 5932.000
956.9590, 6113.000
958.0780, 6091.000
959.1960, 5981.000
960.3140, 5996.000
961.4320, 5993.000
962.5500, 6000.000
963.6680, 6086.000
964.7850, 6058.000
965.9020, 6098.000
967.0190, 6121.337
968.1360, 6003.000
969.2530, 6140.000
970.3700, 6092.000
971.4860, 6063.000
972.6030, 6119.000
973.7190, 6131.000
974.8350, 6107.000
975.9510, 6198.000
977.0660, 6181.000
978.1820, 6224.000
979.2970, 6188.000
980.4130, 6242.000
981.5280, 6207.000
982.6420, 6267.000
983.7570, 6286.000
984.8720, 6198.000
985.9860, 6347.000
987.1000, 6367.000
988.2140, 6458.000
989.3280, 6346.000
990.4420, 6338.000
991.5560, 6365.000
992.6690, 6256.000
993.7820, 6328.000
994.8950, 6320.000
996.0080, 6243.000
997.1210, 6276.000
998.2340, 6391.000
999.3460, 6306.000
1000.458, 6362.883
1001.571, 6410.000
1002.683, 6367.000
1003.794, 6374.000
1004.906, 6373.000
1006.017, 6311.000
1007.129, 6327.000
1008.240, 6304.000
1009.351, 6329.000
1010.462, 6389.000
1011.572, 6360.000
1012.683, 6374.000
1013.793, 6442.000
1014.904, 6479.000
1016.014, 6496.569
1017.123, 6408.000
1018.233, 6513.000
1019.343, 6489.000
1020.452, 6453.000
1021.561, 6507.000
1022.670, 6454.000
1023.779, 6505.000
1024.888, 6501.000
1025.997, 6473.000
1027.105, 6619.000
1028.213, 6583.000
1029.321, 6568.000
1030.429, 6559.000
1031.537, 6525.000
1032.645, 6541.793
1033.752, 6606.000
1034.859, 6579.000
1035.966, 6575.000
1037.073, 6617.000
1038.180, 6526.000
1039.287, 6625.000
1040.393, 6534.000
1041.500, 6674.000
1042.606, 6696.000
1043.712, 6696.000
1044.818, 6601.000
1045.923, 6686.000
1047.029, 6687.000
1048.134, 6758.000
1049.239, 6622.000
1050.344, 6708.000
1051.449, 6786.000
1052.554, 6672.000
1053.658, 6852.000
1054.763, 6742.000
1055.867, 6663.000
1056.971, 6798.000
1058.075, 6772.000
1059.179, 6733.000
1060.282, 6755.000
1061.385, 6728.000
1062.489, 6754.000
1063.592, 6715.000
1064.695, 6760.000
1065.797, 6756.293
1066.900, 6719.000
1068.002, 6785.000
1069.105, 6757.000
1070.207, 6786.000
1071.309, 6880.000
1072.411, 6833.000
1073.512, 6698.000
1074.614, 6858.000
1075.715, 6802.000
1076.816, 6946.000
1077.917, 6767.000
1079.018, 6909.000
1080.118, 6911.000
1081.219, 6982.000
1082.319, 6943.000
1083.419, 6927.000
1084.519, 6882.000
1085.619, 6852.000
1086.719, 6868.000
1087.818, 6874.000
1088.918, 6942.000
1090.017, 6963.000
1091.116, 6974.000
1092.215, 6948.000
1093.314, 6894.000
1094.412, 6998.000
1095.510, 6874.000
1096.609, 7041.000
1097.707, 6931.000
1098.805, 7066.000
1099.902, 7019.000
1101.000, 7103.000
1102.097, 7207.000
1103.195, 7072.000
1104.292, 7026.000
1105.389, 7154.000
1106.485, 7126.000
1107.582, 7165.000
1108.678, 7150.000
1109.775, 7109.000
1110.871, 7092.000
1111.967, 7229.000
1113.062, 7245.000
1114.158, 7218.000
1115.254, 7200.000
1116.349, 7128.000
1117.444, 7173.000
1118.539, 7161.857
1119.634, 7213.000
1120.728, 7226.000
1121.823, 7179.000
1122.917, 7249.000
1124.011, 7304.000
1125.105, 7350.000
1126.199, 7246.000
1127.293, 7242.000
1128.386, 7234.000
1129.480, 7233.000
1130.573, 7353.000
1131.666, 7357.000
1132.759, 7353.954
1133.851, 7297.000
1134.944, 7304.000
1136.036, 7296.000
1137.129, 7256.000
1138.221, 7271.000
1139.313, 7267.000
1140.404, 7266.000
1141.496, 7293.726
1142.587, 7372.000
1143.678, 7355.000
1144.770, 7371.720
1145.860, 7419.161
1146.951, 7351.000
1148.042, 7442.000
1149.132, 7389.000
1150.223, 7379.000
1151.313, 7330.000
1152.403, 7461.000
1153.492, 7376.000
1154.582, 7360.000
1155.671, 7464.000
1156.761, 7372.000
1157.850, 7363.000
1158.939, 7515.000
1160.028, 7333.000
1161.116, 7399.000
1162.205, 7514.000
1163.293, 7443.000
1164.381, 7512.354
1165.469, 7396.000
1166.557, 7521.000
1167.645, 7504.000
1168.732, 7477.000
1169.820, 7431.000
1170.907, 7513.000
1171.994, 7484.000
1173.081, 7469.000
1174.167, 7356.000
1175.254, 7482.000
1176.340, 7431.000
1177.426, 7343.000
1178.512, 7468.000
1179.598, 7415.000
1180.684, 7507.000
1181.770, 7448.000
1182.855, 7522.000
1183.940, 7503.000
1185.025, 7464.000
1186.110, 7466.000
1187.195, 7497.000
1188.280, 7518.000
1189.364, 7525.000
1190.448, 7509.000
1191.532, 7392.000
1192.616, 7486.000
1193.700, 7483.000
1194.784, 7388.000
1195.867, 7498.000
1196.950, 7544.000
1198.034, 7447.000
1199.117, 7458.000
1200.199, 7404.000
1201.282, 7516.000
1202.364, 7489.000
1203.447, 7411.000
1204.529, 7516.000
1205.611, 7451.000
1206.693, 7457.000
1207.774, 7461.000
1208.856, 7478.000
1209.937, 7641.000
1211.018, 7582.000
1212.099, 7424.000
1213.180, 7601.000
1214.261, 7540.843
1215.341, 7573.142
1216.422, 7565.000
1217.502, 7646.000
1218.582, 7528.000
1219.662, 7545.000
1220.742, 7601.000
1221.821, 7597.000
1222.900, 7506.000
1223.980, 7703.000
1225.059, 7502.000
1226.138, 7534.000
1227.216, 7530.000
1228.295, 7661.000
1229.373, 7547.000
1230.452, 7658.000
1231.530, 7586.000
1232.608, 7645.000
1233.685, 7569.000
1234.763, 7654.000
1235.840, 7673.000
1236.918, 7678.000
1237.995, 7717.205
1239.072, 7692.000
1240.149, 7733.000
1241.225, 7709.000
1242.302, 7685.000
1243.378, 7729.239
1244.454, 7674.497
1245.530, 7707.765
1246.606, 7608.000
1247.681, 7737.000
1248.757, 7718.000
1249.832, 7715.000
1250.907, 7821.000
1251.982, 7713.000
1253.057, 7828.000
1254.132, 7757.000
1255.206, 7807.000
1256.281, 7786.000
1257.355, 7902.000
1258.429, 7902.000
1259.503, 7946.000
1260.576, 8034.000
1261.650, 7904.000
1262.723, 8002.000
1263.797, 8134.000
1264.870, 8038.000
1265.942, 8057.000
1267.015, 8055.000
1268.088, 8059.000
1269.160, 8052.842
1270.232, 8093.000
1271.304, 8037.000
1272.376, 8082.000
1273.448, 8094.000
1274.520, 8016.000
1275.591, 8131.000
1276.662, 8151.000
1277.733, 8149.000
1278.804, 8118.000
1279.875, 8224.000
1280.946, 8165.000
1282.016, 8255.000
1283.086, 8251.000
1284.156, 8201.000
1285.226, 8288.000
1286.296, 8179.000
1287.366, 8219.000
1288.435, 8341.000
1289.505, 8211.000
1290.574, 8454.000
1291.643, 8401.000
1292.711, 8249.000
1293.780, 8411.000
1294.849, 8375.000
1295.917, 8386.000
1296.985, 8457.000
1298.053, 8498.000
1299.121, 8514.000
1300.189, 8604.000
1301.256, 8494.000
1302.323, 8581.000
1303.391, 8445.000
1304.458, 8578.000
1305.524, 8530.000
1306.591, 8683.000
1307.658, 8705.000
1308.724, 8595.000
1309.790, 8821.000
1310.856, 8843.000
1311.922, 8697.000
1312.988, 8737.000
1314.053, 8843.000
1315.119, 8862.000
1316.184, 8755.000
1317.249, 8830.000
1318.314, 8764.000
1319.379, 8800.000
1320.443, 8774.000
1321.508, 8800.000
1322.572, 8748.000
1323.636, 8799.000
1324.700, 8831.000
1325.764, 8843.000
1326.827, 8773.000
1327.891, 8716.000
1328.954, 8792.000
1330.017, 8825.000
1331.080, 8883.000
1332.143, 8704.000
1333.205, 8702.000
1334.268, 8884.000
1335.330, 8717.000
1336.392, 8764.000
1337.454, 8797.000
1338.516, 8749.000
1339.578, 8765.000
1340.639, 8783.000
1341.701, 8698.000
1342.762, 8732.000
1343.823, 8618.000
1344.883, 8708.000
1345.944, 8619.000
1347.005, 8689.000
1348.065, 8711.000
1349.125, 8700.000
1350.185, 8617.000
1351.245, 8668.000
1352.305, 8592.000
1353.364, 8657.000
1354.424, 8643.000
1355.483, 8553.000
1356.542, 8631.000
1357.601, 8551.000
1358.659, 8524.000
1359.718, 8497.000
1360.776, 8710.000
1361.834, 8469.000
1362.893, 8515.000
1363.950, 8538.000
1365.008, 8401.000
1366.066, 8511.000
1367.123, 8513.000
1368.180, 8497.000
1369.237, 8631.000
1370.294, 8526.000
1371.351, 8447.000
1372.408, 8511.000
1373.464, 8536.000
1374.520, 8480.000
1375.576, 8546.000
1376.632, 8511.000
1377.688, 8496.000
1378.744, 8603.000
1379.799, 8441.000
1380.854, 8501.000
1381.910, 8596.000
1382.965, 8466.000
1384.019, 8434.000
1385.074, 8416.000
1386.128, 8468.000
1387.183, 8537.000
1388.237, 8543.000
1389.291, 8570.095
1390.345, 8566.000
1391.398, 8554.000
1392.452, 8597.000
1393.505, 8540.000
1394.558, 8543.000
1395.611, 8582.000
1396.664, 8542.000
1397.717, 8479.000
1398.769, 8571.000
1399.822, 8465.000
1400.874, 8527.000
1401.926, 8532.000
1402.978, 8548.000
1404.029, 8514.000
1405.081, 8492.000
1406.132, 8552.000
1407.183, 8602.000
1408.234, 8576.000
1409.285, 8620.639
1410.336, 8578.000
1411.387, 8632.000
1412.437, 8580.000
1413.487, 8551.000
1414.537, 8545.000
1415.587, 8615.000
1416.637, 8624.000
1417.686, 8631.000
1418.736, 8623.000
1419.785, 8559.000
1420.834, 8646.000
1421.883, 8509.000
1422.932, 8567.000
1423.980, 8674.000
1425.029, 8537.000
1426.077, 8672.000
1427.125, 8672.000
1428.173, 8653.000
1429.221, 8663.000
1430.269, 8700.000
1431.316, 8663.000
1432.363, 8750.000
1433.410, 8711.000
1434.457, 8624.000
1435.504, 8655.000
1436.551, 8699.000
1437.597, 8660.000
1438.644, 8825.000
1439.690, 8596.000
1440.736, 8778.000
1441.781, 8633.000
1442.827, 8770.000
1443.873, 8833.000
1444.918, 8682.000
1445.963, 8701.000
1447.008, 8791.000
1448.053, 8753.000
1449.098, 8759.000
1450.142, 8722.000
1451.186, 8796.000
1452.231, 8736.000
1453.275, 8744.000
1454.319, 8827.000
1455.362, 8858.000
1456.406, 8802.000
1457.449, 8884.000
1458.492, 8807.000
1459.535, 8845.000
1460.578, 8774.000
1461.621, 8765.000
1462.663, 8751.000
1463.706, 8870.000
1464.748, 8781.000
1465.790, 8907.000
1466.832, 8933.000
1467.874, 8884.000
1468.915, 8848.000
1469.957, 8948.000
1470.998, 8876.000
1472.039, 8823.000
1473.080, 8904.000
1474.121, 8816.000
1475.161, 8842.000
1476.202, 8859.000
1477.242, 8837.000
1478.282, 8853.000
1479.322, 8868.000
1480.362, 8910.000
1481.401, 8872.000
1482.441, 8955.000
1483.480, 9016.000
1484.519, 8886.000
1485.558, 8941.000
1486.597, 8979.000
1487.636, 8969.000
1488.674, 9030.000
1489.712, 8833.000
1490.751, 8978.000
1491.788, 8933.000
1492.826, 8941.000
1493.864, 9049.000
1494.901, 8944.000
1495.939, 9009.000
1496.976, 8943.000
1498.013, 8974.000
1499.050, 9044.000
1500.086, 9023.000
1501.123, 9058.867
1502.159, 9074.000
1503.195, 9078.000
1504.231, 9042.000
1505.267, 9042.000
1506.303, 9106.000
1507.338, 9032.000
1508.374, 8955.000
1509.409, 8880.000
1510.444, 9082.000
1511.479, 9185.000
1512.514, 9085.000
1513.548, 9053.000
1514.583, 9109.000
1515.617, 8965.000
1516.651, 9101.000
1517.685, 9118.000
1518.718, 9089.000
1519.752, 9106.000
1520.785, 9153.000
1521.819, 9242.000
1522.852, 9123.000
1523.885, 9125.000
1524.917, 9165.000
1525.950, 9243.000
1526.982, 9149.000
1528.015, 9183.000
1529.047, 9219.000
1530.079, 9168.000
1531.110, 9115.000
1532.142, 9303.000
1533.173, 9240.000
1534.205, 9232.000
1535.236, 9387.000
1536.267, 9235.000
1537.298, 9241.000
1538.328, 9193.000
1539.359, 9109.000
1540.389, 9226.000
1541.419, 9156.000
1542.449, 9304.000
1543.479, 9237.000
1544.508, 9276.000
1545.538, 9291.000
1546.567, 9307.000
1547.596, 9348.618
1548.625, 9361.000
1549.654, 9418.000
1550.683, 9460.000
1551.711, 9483.649
1552.740, 9472.278
1553.768, 9462.000
1554.796, 9417.000
1555.824, 9374.000
1556.851, 9355.000
1557.879, 9350.000
1558.906, 9363.000
1559.933, 9329.000
1560.960, 9298.000
1561.987, 9352.000
1563.014, 9378.000
##END=



