##NAMES=Clinozoisite
##RRUFFID=R040085
##IDEAL CHEMISTRY=Ca_2_Al_3_(Si_2_O_7_)(SiO_4_)O(OH)
##LOCALITY=Alamos, Sonora, Mexico
##OWNER=RRUFF
##SOURCE=University of Arizona Mineral Museum
##DESCRIPTION=Divergent aggregate of red thin prismatic crystals
##STATUS=The identification of this mineral has been confirmed by X-ray diffraction and chemical analysis
##URL=rruff.info/R040085
##MEASURED CHEMISTRY=Ca_2.03_(Al_0.90_Fe_0.13_)_3_(Si_1.00_O_4_)(Si_2.00_O_7_)O(OH)
##PIN_ID=M00391
##ORIENTATION=Laser parallel to c* (0 0 1). Fiducial mark perpendicular to laser is parallel to a [1 0 0]
185.6220, 29138.00
186.8450, 29336.00
188.0670, 29493.00
189.2900, 29308.00
190.5120, 29670.00
191.7340, 29655.00
192.9560, 29751.00
194.1780, 29926.00
195.4000, 30077.00
196.6220, 29965.00
197.8430, 30006.00
199.0640, 30260.00
200.2860, 30336.00
201.5070, 30689.00
202.7270, 30599.00
203.9480, 30823.00
205.1690, 30993.00
206.3890, 30958.00
207.6090, 31236.00
208.8290, 31507.00
210.0490, 31417.00
211.2690, 31671.00
212.4890, 31944.00
213.7080, 31992.00
214.9280, 32212.22
216.1470, 32260.00
217.3660, 32420.00
218.5850, 32537.00
219.8030, 32499.00
221.0220, 32804.00
222.2400, 32789.00
223.4590, 32857.00
224.6770, 33216.00
225.8950, 33685.00
227.1120, 33576.00
228.3300, 34161.00
229.5480, 34628.00
230.7650, 34933.00
231.9820, 35395.00
233.1990, 35344.00
234.4160, 35615.00
235.6330, 35854.00
236.8490, 35461.00
238.0660, 35422.00
239.2820, 34913.00
240.4980, 34938.00
241.7140, 34453.00
242.9300, 34335.00
244.1460, 34387.00
245.3610, 34359.00
246.5770, 34386.35
247.7920, 34473.00
249.0070, 34513.00
250.2220, 34531.00
251.4370, 34643.00
252.6510, 34348.00
253.8660, 34038.00
255.0800, 34242.00
256.2940, 33836.00
257.5080, 33959.00
258.7220, 33995.00
259.9360, 33710.00
261.1490, 33255.00
262.3630, 33077.00
263.5760, 32965.00
264.7890, 33032.00
266.0020, 33422.00
267.2150, 33379.00
268.4270, 33676.00
269.6400, 33557.00
270.8520, 34162.00
272.0640, 33908.00
273.2760, 34121.00
274.4880, 34224.00
275.7000, 33947.00
276.9120, 33666.00
278.1230, 33426.00
279.3340, 33269.00
280.5450, 32917.00
281.7560, 32949.00
282.9670, 32831.00
284.1780, 32660.00
285.3880, 32492.00
286.5980, 32748.00
287.8090, 32890.00
289.0190, 32919.00
290.2290, 32833.00
291.4380, 32908.00
292.6480, 32709.00
293.8570, 32739.76
295.0670, 32811.00
296.2760, 32729.00
297.4850, 32930.00
298.6930, 33017.00
299.9020, 32939.00
301.1110, 33187.00
302.3190, 33132.00
303.5270, 33165.00
304.7350, 33457.00
305.9430, 33668.00
307.1510, 33797.00
308.3580, 33921.00
309.5660, 34074.00
310.7730, 33870.00
311.9800, 34075.00
313.1870, 33952.00
314.3940, 34111.00
315.6010, 34106.00
316.8070, 34005.00
318.0130, 33690.00
319.2200, 33671.00
320.4260, 33363.00
321.6310, 33533.00
322.8370, 33637.00
324.0430, 33613.00
325.2480, 33773.00
326.4540, 34114.00
327.6590, 34017.00
328.8640, 34227.00
330.0680, 34642.00
331.2730, 35122.00
332.4780, 35529.00
333.6820, 35969.00
334.8860, 36258.00
336.0900, 36767.00
337.2940, 37285.00
338.4980, 38059.00
339.7010, 38474.00
340.9050, 38953.00
342.1080, 39779.00
343.3110, 40229.00
344.5140, 41177.00
345.7170, 41996.00
346.9200, 42924.00
348.1220, 43552.00
349.3240, 43787.00
350.5270, 44336.00
351.7290, 43928.00
352.9310, 43515.00
354.1320, 42548.00
355.3340, 41770.00
356.5350, 40493.00
357.7370, 39433.00
358.9380, 38366.00
360.1390, 37366.00
361.3400, 36779.00
362.5400, 36129.00
363.7410, 35401.00
364.9410, 35063.00
366.1410, 34823.00
367.3410, 34674.00
368.5410, 34172.00
369.7410, 33943.00
370.9400, 33803.00
372.1400, 33469.00
373.3390, 33388.00
374.5380, 33330.00
375.7370, 33238.00
376.9360, 33324.00
378.1350, 33407.00
379.3330, 33351.73
380.5310, 33418.04
381.7300, 33275.00
382.9280, 33400.00
384.1260, 33273.00
385.3230, 33162.00
386.5210, 33270.00
387.7180, 33346.00
388.9160, 33597.00
390.1130, 33703.96
391.3100, 34021.00
392.5060, 34008.00
393.7030, 34203.00
394.9000, 34302.00
396.0960, 34289.00
397.2920, 34573.00
398.4880, 34399.00
399.6840, 34478.00
400.8800, 34383.00
402.0750, 34160.00
403.2710, 34236.00
404.4660, 33862.00
405.6610, 33840.00
406.8560, 33858.00
408.0510, 33738.00
409.2450, 33692.00
410.4400, 33631.00
411.6340, 33753.48
412.8280, 33901.09
414.0220, 34097.00
415.2160, 34479.00
416.4100, 34707.00
417.6030, 35218.00
418.7970, 35613.00
419.9900, 36145.00
421.1830, 36731.00
422.3760, 37185.00
423.5690, 37582.00
424.7610, 38296.00
425.9540, 38429.00
427.1460, 38666.00
428.3380, 38650.00
429.5300, 38510.00
430.7220, 38234.00
431.9140, 38086.00
433.1050, 38135.00
434.2970, 38243.00
435.4880, 38048.00
436.6790, 38243.00
437.8700, 38553.00
439.0610, 38883.00
440.2510, 39230.00
441.4420, 39660.00
442.6320, 40289.00
443.8220, 40920.00
445.0120, 41670.00
446.2020, 42616.00
447.3910, 43144.00
448.5810, 43871.00
449.7700, 44418.00
450.9600, 44588.00
452.1490, 44938.00
453.3370, 44788.00
454.5260, 44500.00
455.7150, 43898.00
456.9030, 43217.00
458.0910, 43130.00
459.2800, 42587.00
460.4670, 42232.00
461.6550, 41850.00
462.8430, 41757.00
464.0300, 41426.75
465.2180, 40903.00
466.4050, 41055.00
467.5920, 40914.00
468.7790, 40906.00
469.9650, 40979.00
471.1520, 40826.00
472.3380, 40685.00
473.5250, 40894.00
474.7110, 40660.00
475.8970, 40721.00
477.0820, 40509.00
478.2680, 40564.00
479.4540, 40221.00
480.6390, 40147.00
481.8240, 40005.00
483.0090, 39900.00
484.1940, 39580.00
485.3780, 39300.00
486.5630, 39099.00
487.7470, 38695.00
488.9320, 38575.00
490.1160, 38269.00
491.3000, 37937.00
492.4830, 37816.00
493.6670, 37879.00
494.8500, 37617.00
496.0340, 37793.00
497.2170, 37947.00
498.4000, 38096.00
499.5820, 38441.00
500.7650, 38205.00
501.9480, 38731.00
503.1300, 39023.00
504.3120, 38825.00
505.4940, 39120.00
506.6760, 39024.00
507.8580, 39054.00
509.0390, 39078.00
510.2210, 38766.00
511.4020, 38719.00
512.5830, 38635.00
513.7640, 38448.00
514.9450, 38572.00
516.1250, 38444.00
517.3060, 38298.00
518.4860, 38388.00
519.6660, 38197.00
520.8460, 38177.00
522.0260, 37701.00
523.2060, 37654.00
524.3850, 37329.00
525.5650, 37320.00
526.7440, 37284.00
527.9230, 37153.00
529.1020, 36821.00
530.2810, 36873.00
531.4590, 36619.00
532.6380, 36564.00
533.8160, 36557.00
534.9940, 36510.00
536.1720, 36383.00
537.3500, 36397.00
538.5270, 36441.81
539.7050, 36363.00
540.8820, 36636.00
542.0590, 36745.00
543.2360, 36865.00
544.4130, 36736.00
545.5900, 36967.00
546.7660, 36778.00
547.9430, 37061.00
549.1190, 37067.00
550.2950, 37413.00
551.4710, 37402.00
552.6470, 37695.00
553.8220, 38105.00
554.9980, 38449.00
556.1730, 38803.00
557.3480, 39113.00
558.5230, 39902.00
559.6980, 40715.00
560.8730, 41619.00
562.0470, 43088.00
563.2220, 44601.00
564.3960, 46940.00
565.5700, 49011.00
566.7440, 51364.00
567.9170, 53679.00
569.0910, 56024.00
570.2640, 56627.00
571.4380, 56068.00
572.6110, 54749.00
573.7840, 52828.00
574.9570, 50610.00
576.1290, 47939.00
577.3020, 45843.00
578.4740, 44120.00
579.6460, 42818.00
580.8180, 41860.00
581.9900, 41870.00
583.1620, 41353.00
584.3330, 41137.00
585.5040, 41525.00
586.6760, 41727.00
587.8470, 41974.00
589.0180, 42473.00
590.1880, 42894.00
591.3590, 43193.00
592.5290, 43979.00
593.7000, 44512.00
594.8700, 45395.00
596.0400, 45823.00
597.2090, 46272.00
598.3790, 47110.00
599.5490, 47838.00
600.7180, 48410.00
601.8870, 48987.00
603.0560, 49279.00
604.2250, 49255.00
605.3940, 49202.00
606.5620, 48621.00
607.7300, 47881.00
608.8990, 46965.00
610.0670, 45692.00
611.2350, 44801.00
612.4020, 44018.00
613.5700, 43119.00
614.7370, 42430.00
615.9050, 42125.00
617.0720, 41365.00
618.2390, 41050.00
619.4060, 40560.00
620.5720, 40501.00
621.7390, 40337.00
622.9050, 40019.00
624.0710, 39858.00
625.2370, 39581.48
626.4030, 39412.00
627.5690, 39152.00
628.7340, 38848.00
629.9000, 38843.00
631.0650, 38639.00
632.2300, 38628.00
633.3950, 38506.00
634.5600, 38606.00
635.7240, 38662.00
636.8890, 38302.00
638.0530, 38485.00
639.2170, 38584.00
640.3810, 38495.00
641.5450, 38768.00
642.7080, 38797.00
643.8720, 39090.00
645.0350, 39236.00
646.1980, 39219.00
647.3610, 39360.00
648.5240, 39437.00
649.6870, 39546.00
650.8490, 39678.12
652.0120, 39770.32
653.1740, 39992.00
654.3360, 40016.00
655.4980, 40281.00
656.6600, 40475.00
657.8210, 40120.00
658.9830, 39808.00
660.1440, 39539.00
661.3050, 39591.00
662.4660, 39563.00
663.6270, 39323.00
664.7870, 39102.00
665.9480, 39076.00
667.1080, 38853.29
668.2680, 38919.00
669.4280, 38810.50
670.5880, 38830.00
671.7480, 38696.00
672.9070, 38655.00
674.0670, 38580.00
675.2260, 38755.00
676.3850, 38719.00
677.5440, 39019.00
678.7030, 38673.00
679.8610, 38715.00
681.0200, 38844.00
682.1780, 38745.00
683.3360, 38889.00
684.4940, 38923.00
685.6520, 38882.00
686.8090, 39134.00
687.9670, 39175.00
689.1240, 38951.00
690.2810, 38947.00
691.4380, 39044.61
692.5950, 39084.00
693.7520, 39270.00
694.9080, 39419.00
696.0650, 39453.00
697.2210, 39640.00
698.3770, 39688.00
699.5330, 39806.00
700.6880, 39827.00
701.8440, 40046.00
702.9990, 39639.00
704.1550, 39788.00
705.3100, 39319.00
706.4650, 39590.00
707.6190, 39286.00
708.7740, 38874.00
709.9290, 38944.00
711.0830, 38832.00
712.2370, 38874.00
713.3910, 38607.00
714.5450, 38824.00
715.6980, 38469.00
716.8520, 38558.00
718.0050, 38397.00
719.1580, 38128.00
720.3110, 38483.00
721.4640, 38149.00
722.6170, 38130.00
723.7700, 38246.00
724.9220, 38387.00
726.0740, 38384.09
727.2260, 38319.00
728.3780, 38389.00
729.5300, 38313.00
730.6810, 38161.00
731.8330, 38366.00
732.9840, 38204.00
734.1350, 38302.00
735.2860, 38317.00
736.4370, 38296.68
737.5880, 38298.00
738.7380, 38359.00
739.8880, 38462.00
741.0390, 38545.00
742.1890, 38561.00
743.3380, 38462.00
744.4880, 38323.00
745.6380, 38356.00
746.7870, 38472.00
747.9360, 38478.00
749.0850, 38567.41
750.2340, 38530.00
751.3830, 38652.00
752.5310, 38527.00
753.6800, 38421.00
754.8280, 38689.00
755.9760, 38487.00
757.1240, 38549.00
758.2720, 38798.00
759.4190, 38809.00
760.5670, 38737.00
761.7140, 38850.00
762.8610, 38980.00
764.0080, 38776.00
765.1550, 38988.00
766.3020, 39202.00
767.4480, 39000.00
768.5950, 39224.00
769.7410, 38988.00
770.8870, 39007.00
772.0330, 38983.00
773.1780, 39048.00
774.3240, 38752.00
775.4690, 39157.00
776.6140, 39065.00
777.7590, 38991.00
778.9040, 39274.00
780.0490, 39421.00
781.1940, 39101.00
782.3380, 39378.00
783.4820, 38977.00
784.6260, 39160.00
785.7700, 39189.00
786.9140, 38960.00
788.0580, 39228.00
789.2010, 39455.00
790.3450, 39084.00
791.4880, 39422.00
792.6310, 39327.00
793.7730, 39337.00
794.9160, 39397.00
796.0590, 39491.00
797.2010, 39479.00
798.3430, 39401.00
799.4850, 39504.00
800.6270, 39486.00
801.7690, 39634.00
802.9100, 39572.99
804.0520, 39568.00
805.1930, 39563.00
806.3340, 39591.00
807.4750, 39765.00
808.6160, 39781.00
809.7560, 39894.00
810.8970, 40081.00
812.0370, 39877.00
813.1770, 40051.00
814.3170, 39827.00
815.4570, 40098.00
816.5960, 40278.00
817.7360, 40335.00
818.8750, 40232.00
820.0140, 40475.00
821.1530, 40396.00
822.2920, 40492.00
823.4310, 40659.00
824.5690, 40604.00
825.7070, 40740.00
826.8460, 40837.00
827.9840, 41080.00
829.1220, 41072.00
830.2590, 41152.00
831.3970, 41010.00
832.5340, 41494.00
833.6710, 41278.00
834.8080, 41231.00
835.9450, 41782.00
837.0820, 41691.00
838.2190, 41787.00
839.3550, 41441.00
840.4910, 41836.00
841.6270, 41528.00
842.7630, 41683.00
843.8990, 41781.00
845.0350, 41907.00
846.1700, 41964.00
847.3060, 42079.00
848.4410, 42236.00
849.5760, 42182.00
850.7100, 42303.28
851.8450, 41955.00
852.9800, 42475.00
854.1140, 42399.00
855.2480, 42616.00
856.3820, 42849.00
857.5160, 42885.00
858.6500, 43053.00
859.7830, 43335.00
860.9170, 43320.00
862.0500, 43538.00
863.1830, 43537.00
864.3160, 43468.00
865.4480, 43492.00
866.5810, 43722.00
867.7130, 44143.00
868.8460, 44128.00
869.9780, 44457.00
871.1100, 44589.00
872.2410, 44763.00
873.3730, 45421.00
874.5050, 45720.00
875.6360, 46289.00
876.7670, 46476.00
877.8980, 46920.00
879.0290, 47106.00
880.1590, 47254.00
881.2900, 47277.00
882.4200, 47605.00
883.5500, 47352.00
884.6800, 47374.00
885.8100, 47589.00
886.9400, 47575.00
888.0690, 47638.52
889.1990, 47552.00
890.3280, 47629.00
891.4570, 47733.00
892.5860, 47612.00
893.7140, 48180.00
894.8430, 48334.00
895.9710, 48882.00
897.1000, 49619.00
898.2280, 49968.00
899.3560, 51149.00
900.4830, 51843.00
901.6110, 52829.00
902.7380, 54080.00
903.8660, 55115.00
904.9930, 56716.00
906.1200, 57842.00
907.2460, 59234.00
908.3730, 60890.00
909.5000, 62124.00
910.6260, 63071.00
911.7520, 63912.00
912.8780, 64255.00
914.0040, 64157.00
915.1290, 63853.00
916.2550, 63418.00
917.3800, 62714.00
918.5050, 61936.00
919.6300, 60890.00
920.7550, 60245.00
921.8800, 59325.00
923.0040, 58607.66
924.1290, 57691.00
925.2530, 57207.00
926.3770, 56572.00
927.5010, 55852.00
928.6250, 55302.00
929.7480, 54608.00
930.8720, 54013.00
931.9950, 53012.00
933.1180, 52151.00
934.2410, 51369.00
935.3640, 50659.00
936.4860, 49905.77
937.6090, 49212.00
938.7310, 48522.00
939.8530, 47941.00
940.9750, 47279.00
942.0970, 46888.00
943.2180, 46391.00
944.3400, 46150.00
945.4610, 45756.00
946.5820, 45245.00
947.7030, 45053.00
948.8240, 44861.00
949.9450, 44990.00
951.0650, 45052.00
952.1860, 44829.00
953.3060, 45063.00
954.4260, 44648.00
955.5460, 44825.00
956.6650, 44964.00
957.7850, 45022.00
958.9040, 44889.00
960.0230, 44925.02
961.1420, 44931.00
962.2610, 44757.00
963.3800, 44834.00
964.4990, 44678.00
965.6170, 44835.00
966.7350, 44763.00
967.8530, 44847.00
968.9710, 44988.45
970.0890, 44925.00
971.2070, 45274.00
972.3240, 45289.00
973.4410, 45390.00
974.5580, 45945.00
975.6750, 46105.00
976.7920, 46548.00
977.9090, 47319.00
979.0250, 47553.00
980.1410, 48152.00
981.2580, 48882.00
982.3740, 48991.00
983.4890, 49115.00
984.6050, 49360.00
985.7200, 49180.00
986.8360, 48593.00
987.9510, 48238.00
989.0660, 47488.00
990.1810, 47154.00
991.2950, 46980.00
992.4100, 46843.00
993.5240, 46262.00
994.6390, 45159.00
995.7530, 44786.00
996.8660, 44841.00
997.9800, 44376.00
999.0940, 44626.00
1000.207, 44376.00
1001.320, 44392.00
1002.433, 44035.00
1003.546, 44220.00
1004.659, 43644.00
1005.772, 43773.00
1006.884, 43558.00
1007.996, 43597.00
1009.108, 43198.00
1010.220, 43346.00
1011.332, 43169.00
1012.444, 43154.00
1013.555, 43170.00
1014.666, 43162.00
1015.777, 43361.00
1016.888, 43491.00
1017.999, 43356.00
1019.110, 43674.00
1020.220, 43643.00
1021.331, 43619.00
1022.441, 43772.00
1023.551, 43970.00
1024.661, 44050.00
1025.770, 44016.00
1026.880, 44044.00
1027.989, 43981.00
1029.098, 44128.00
1030.207, 44276.00
1031.316, 44038.00
1032.425, 44430.00
1033.533, 44642.00
1034.642, 44500.00
1035.750, 44690.00
1036.858, 44791.00
1037.966, 44851.00
1039.073, 44703.00
1040.181, 44985.00
1041.288, 44931.00
1042.396, 45241.00
1043.503, 45411.00
1044.610, 45347.00
1045.716, 45485.00
1046.823, 45816.00
1047.929, 45882.00
1049.036, 45569.00
1050.142, 45774.00
1051.248, 45624.00
1052.353, 45055.00
1053.459, 45234.00
1054.564, 44864.00
1055.670, 44929.00
1056.775, 44575.00
1057.880, 44496.00
1058.985, 44735.00
1060.089, 44596.00
1061.194, 44296.00
1062.298, 44342.00
1063.402, 44115.00
1064.506, 44402.00
1065.610, 44396.00
1066.713, 44221.00
1067.817, 44070.00
1068.920, 44401.00
1070.023, 44587.00
1071.126, 44615.00
1072.229, 44360.00
1073.332, 44500.00
1074.435, 44629.00
1075.537, 44880.00
1076.639, 44909.00
1077.741, 45166.00
1078.843, 45429.00
1079.945, 45246.00
1081.046, 45895.00
1082.148, 45525.00
1083.249, 46114.00
1084.350, 46511.00
1085.451, 46915.00
1086.551, 47031.00
1087.652, 47578.00
1088.752, 48011.00
1089.853, 48975.00
1090.953, 49703.00
1092.053, 49945.00
1093.152, 49970.00
1094.252, 49643.00
1095.351, 49403.00
1096.451, 48949.00
1097.550, 48470.00
1098.649, 47715.00
1099.748, 47136.00
1100.846, 46590.00
1101.945, 46034.00
1103.043, 45874.00
1104.141, 45761.00
1105.239, 45626.00
1106.337, 45474.47
1107.434, 45284.57
1108.532, 45175.00
1109.629, 44973.00
1110.726, 44815.00
1111.823, 44897.00
1112.920, 45018.00
1114.017, 44901.00
1115.113, 45046.00
1116.210, 44824.00
1117.306, 45094.00
1118.402, 45099.00
1119.498, 44931.00
1120.593, 44794.00
1121.689, 44665.00
1122.784, 44640.00
1123.879, 44699.00
1124.974, 44809.00
1126.069, 44933.00
1127.164, 44944.67
1128.259, 44947.00
1129.353, 44897.00
1130.447, 44938.00
1131.541, 44722.00
1132.635, 44813.00
1133.729, 44921.00
1134.822, 44710.00
1135.916, 44548.00
1137.009, 44885.00
1138.102, 44819.00
1139.195, 44758.00
1140.288, 45161.00
1141.380, 44951.00
1142.473, 44934.00
1143.565, 45140.00
1144.657, 45057.00
1145.749, 45128.00
1146.841, 44952.00
1147.932, 44950.00
1149.024, 45092.00
1150.115, 44948.00
1151.206, 44875.00
1152.297, 44670.00
1153.388, 45009.00
1154.479, 44941.33
1155.569, 45274.00
1156.659, 45108.00
1157.750, 45229.00
1158.839, 45212.00
1159.929, 44967.00
1161.019, 45028.00
1162.108, 45193.00
1163.198, 44973.00
1164.287, 45210.00
1165.376, 45126.00
1166.465, 45588.00
1167.553, 45236.00
1168.642, 45314.00
1169.730, 45727.00
1170.818, 45553.00
1171.906, 45481.00
1172.994, 45302.00
1174.082, 45765.00
1175.170, 45352.00
1176.257, 45440.00
1177.344, 45534.00
1178.431, 45307.00
1179.518, 45546.00
1180.605, 45414.00
1181.691, 45601.00
1182.778, 45467.00
1183.864, 45818.00
1184.950, 45730.00
1186.036, 45306.00
1187.122, 45712.00
1188.207, 45326.00
1189.292, 45792.00
1190.378, 45636.00
1191.463, 45738.00
1192.548, 45585.00
1193.632, 45711.00
1194.717, 45907.00
1195.801, 45719.00
1196.886, 45646.00
1197.970, 45804.00
1199.054, 45690.00
1200.137, 45715.00
1201.221, 45530.00
1202.305, 45647.00
1203.388, 45640.00
1204.471, 45774.00
1205.554, 46047.00
1206.637, 45890.00
1207.719, 46027.00
1208.802, 45884.00
1209.884, 45944.00
1210.966, 46079.00
1212.048, 46244.00
1213.130, 46334.00
1214.212, 46324.15
1215.293, 46035.00
1216.374, 46215.00
1217.456, 46087.00
1218.536, 46005.00
1219.617, 46068.00
1220.698, 46465.00
1221.778, 46214.00
1222.859, 46383.00
1223.939, 46370.00
1225.019, 46409.00
1226.099, 46290.00
1227.178, 46627.00
1228.258, 46219.00
1229.337, 46581.00
1230.417, 46339.00
1231.496, 46733.00
1232.574, 46600.00
1233.653, 46511.00
1234.732, 46326.00
1235.810, 46350.00
1236.888, 46521.00
1237.966, 46478.00
1239.044, 46407.00
1240.122, 46761.00
1241.199, 46758.00
1242.277, 46460.00
1243.354, 46696.00
1244.431, 46590.00
1245.508, 46779.00
1246.585, 46514.00
1247.661, 46644.00
1248.738, 46952.00
1249.814, 46797.00
1250.890, 46664.00
1251.966, 46930.00
1253.042, 46693.00
1254.117, 46582.00
1255.193, 46704.00
1256.268, 46708.00
1257.343, 46804.00
1258.418, 46715.00
1259.493, 46825.79
1260.567, 46832.00
1261.642, 46982.00
1262.716, 47011.00
1263.790, 47099.00
1264.864, 47013.00
1265.938, 47040.00
1267.011, 47109.00
1268.085, 47114.00
1269.158, 47180.00
1270.231, 47066.00
1271.304, 47132.00
1272.377, 47212.00
1273.450, 47245.00
1274.522, 47329.09
1275.594, 47285.00
1276.666, 47335.00
1277.738, 47565.00
1278.810, 47286.00
1279.882, 47233.00
1280.953, 47427.00
1282.025, 47121.00
1283.096, 47309.00
1284.167, 46996.00
1285.238, 47296.00
1286.308, 47341.00
1287.379, 47691.00
1288.449, 47203.00
1289.519, 47511.00
1290.589, 47545.00
1291.659, 47208.00
1292.729, 47605.00
1293.798, 47659.00
1294.868, 47555.00
1295.937, 47535.00
1297.006, 47599.34
1298.075, 47741.00
1299.143, 47745.00
1300.212, 47912.00
1301.280, 48031.00
1302.348, 47740.00
1303.416, 47849.00
1304.484, 47929.00
1305.552, 47857.00
1306.620, 47915.00
1307.687, 47930.00
1308.754, 48034.00
1309.821, 48046.00
1310.888, 47841.00
1311.955, 48318.00
1313.021, 48440.00
1314.088, 48111.00
1315.154, 48241.00
1316.220, 48018.00
1317.286, 48047.10
1318.352, 48510.00
1319.417, 48212.00
1320.483, 48242.00
1321.548, 48511.00
1322.613, 48292.00
1323.678, 48291.00
1324.743, 48152.00
1325.807, 48140.00
1326.872, 48191.00
1327.936, 48243.00
1329.000, 48196.00
1330.064, 48258.00
1331.128, 48230.00
1332.191, 48468.00
1333.255, 48381.00
1334.318, 48442.00
1335.381, 48119.00
1336.444, 48233.00
1337.507, 48221.00
1338.569, 48305.00
1339.632, 48390.00
1340.694, 48421.86
1341.756, 48585.00
1342.818, 48534.00
1343.880, 48683.00
1344.941, 48740.00
1346.003, 48518.00
1347.064, 48736.00
1348.125, 48584.00
1349.186, 48779.00
1350.247, 48810.00
1351.308, 48713.00
1352.368, 48816.00
1353.428, 48930.00
1354.489, 48674.00
1355.549, 48880.00
1356.608, 48562.00
1357.668, 48791.00
1358.727, 48677.00
1359.787, 48813.00
1360.846, 48672.00
1361.905, 48746.00
1362.964, 48872.00
1364.022, 48721.00
1365.081, 48747.00
1366.139, 49232.00
1367.197, 49040.00
1368.255, 49105.00
1369.313, 49192.00
1370.371, 49087.00
1371.428, 48922.00
1372.486, 49206.00
1373.543, 48857.00
1374.600, 49211.00
1375.657, 49104.00
1376.713, 48872.00
1377.770, 48998.00
1378.826, 49137.00
1379.882, 49435.00
1380.938, 49398.82
1381.994, 49394.00
1383.050, 49392.00
1384.106, 49347.00
1385.161, 49304.00
1386.216, 49235.00
1387.271, 49215.00
1388.326, 49205.19
1389.381, 49408.00
1390.435, 49301.00
1391.490, 49209.00
1392.544, 49423.00
1393.598, 49190.00
1394.652, 49416.00
1395.705, 49734.00
1396.759, 49573.00
1397.812, 49707.00
1398.866, 49573.00
1399.919, 49415.00
1400.972, 49426.00
1402.024, 49823.00
1403.077, 49478.00
1404.129, 49773.00
1405.181, 49461.00
1406.233, 49200.00
1407.285, 49578.00
1408.337, 49601.00
1409.389, 49879.00
1410.440, 49780.00
1411.491, 49724.00
1412.542, 49561.00
1413.593, 49616.00
1414.644, 49913.00
1415.695, 49884.00
1416.745, 49792.00
1417.795, 49803.00
1418.845, 49813.00
1419.895, 49848.00
1420.945, 49966.00
1421.995, 49982.94
1423.044, 49996.88
1424.093, 50051.00
1425.142, 50049.00
1426.191, 49994.00
1427.240, 50166.00
1428.289, 50132.17
1429.337, 50324.00
1430.385, 50283.00
1431.433, 50252.00
1432.481, 50494.00
1433.529, 50331.00
1434.577, 50413.00
1435.624, 50258.00
1436.672, 50488.00
1437.719, 50885.00
1438.766, 50768.00
1439.812, 51017.00
1440.859, 50951.00
1441.905, 51009.00
1442.952, 50882.00
1443.998, 51027.00
1445.044, 51225.00
1446.090, 51294.00
1447.135, 51102.00
1448.181, 51364.00
1449.226, 51257.00
1450.271, 51333.00
1451.316, 51382.00
1452.361, 51334.00
1453.405, 51528.00
1454.450, 51295.00
1455.494, 51157.00
1456.538, 51516.00
1457.582, 51223.00
1458.626, 51252.00
1459.670, 51405.00
1460.713, 51130.00
1461.757, 51353.00
1462.800, 51223.00
1463.843, 51775.00
1464.886, 51249.00
1465.928, 51548.00
1466.971, 51422.00
1468.013, 51061.00
1469.055, 51199.00
1470.097, 51387.00
1471.139, 51061.00
1472.181, 51393.00
1473.222, 51367.00
1474.263, 51246.00
1475.305, 51160.00
1476.346, 51627.00
1477.386, 51710.00
1478.427, 51598.00
1479.468, 51575.00
1480.508, 51270.00
1481.548, 51465.00
1482.588, 51314.00
1483.628, 51390.00
1484.668, 51449.00
1485.707, 51172.00
1486.747, 51549.00
1487.786, 51215.00
1488.825, 51761.00
1489.864, 51398.00
1490.902, 51556.00
1491.941, 51587.00
1492.979, 51662.00
1494.017, 51616.00
1495.055, 51605.00
1496.093, 51451.00
1497.131, 51652.00
1498.168, 51261.00
1499.206, 51451.00
1500.243, 51543.00
1501.280, 51612.00
1502.317, 51680.00
1503.354, 51555.00
1504.390, 51851.00
1505.426, 51812.00
1506.463, 51729.00
1507.499, 51393.00
1508.535, 51863.00
1509.570, 51482.00
1510.606, 51677.00
1511.641, 51931.00
1512.676, 51545.00
1513.711, 51852.00
1514.746, 52036.00
1515.781, 51792.00
1516.816, 52004.00
1517.850, 51891.00
1518.884, 52188.00
1519.918, 52031.00
1520.952, 52306.00
1521.986, 52200.00
1523.019, 51925.00
1524.053, 51987.00
1525.086, 52454.00
1526.119, 51852.00
1527.152, 51858.00
1528.185, 52430.00
1529.217, 52282.00
1530.250, 52493.00
1531.282, 52556.00
1532.314, 52458.00
1533.346, 52159.00
1534.377, 52442.00
1535.409, 52147.00
1536.440, 52251.00
1537.472, 52392.00
1538.503, 52616.00
1539.534, 52438.00
1540.564, 52678.00
1541.595, 52576.00
1542.625, 52416.00
1543.656, 52784.00
1544.686, 52626.00
1545.716, 52731.00
1546.745, 52490.00
1547.775, 52712.00
1548.804, 52311.00
1549.834, 52535.00
1550.863, 52778.00
1551.892, 52890.00
1552.920, 52720.00
1553.949, 53102.00
1554.977, 52717.00
1556.006, 52549.00
1557.034, 52892.00
1558.062, 53035.00
1559.089, 53115.00
1560.117, 53172.77
1561.144, 53065.00
1562.172, 53049.00
1563.199, 52839.00
1564.226, 52682.00
1565.252, 52898.00
1566.279, 52822.00
1567.305, 53101.00
1568.332, 53078.00
1569.358, 53262.00
1570.384, 53360.00
1571.409, 53166.00
1572.435, 53534.00
##END=



