##NAMES=Clinozoisite
##RRUFFID=R060284
##IDEAL CHEMISTRY=Ca_2_Al_3_(Si_2_O_7_)(SiO_4_)O(OH)
##LOCALITY=near Zagi Mountain, Khaffor Dehri, North-West Frontier Province, Pakistan
##OWNER=RRUFF
##SOURCE=Herb Obodda
##DESCRIPTION=Greenish-brown fragment of a prismatic crystal
##STATUS=The identification of this mineral has been confirmed by X-ray diffraction and chemical analysis
##URL=rruff.info/R060284
##MEASURED CHEMISTRY=Ca_2.00_(Al_0.90_Fe^3+^_0.10_)_3_(Si_1.00_O_4_)(Si_2.00_O_7_)O(OH)
##PIN_ID=L00766
##ORIENTATION=Laser parallel to b* (0 1 0). Fiducial mark perpendicular to laser is parallel to c [0 0 1]
118.1340, 14608.00
119.3650, 14507.00
120.5960, 14873.00
121.8270, 15085.00
123.0580, 15407.00
124.2880, 15604.00
125.5190, 15864.00
126.7490, 16176.00
127.9790, 16798.00
129.2090, 17266.00
130.4390, 18002.00
131.6680, 18707.00
132.8980, 19272.00
134.1270, 20423.00
135.3560, 21252.00
136.5850, 22153.00
137.8140, 22803.00
139.0430, 23395.00
140.2710, 23550.00
141.5000, 23666.00
142.7280, 23333.00
143.9560, 22916.00
145.1840, 22443.00
146.4120, 21657.00
147.6390, 21113.00
148.8670, 20793.00
150.0940, 20351.00
151.3210, 20030.00
152.5490, 19876.00
153.7750, 19460.00
155.0020, 19223.00
156.2290, 18623.00
157.4550, 18123.00
158.6810, 17486.00
159.9080, 17133.00
161.1340, 16308.00
162.3590, 15751.00
163.5850, 15327.00
164.8110, 14727.00
166.0360, 14242.00
167.2610, 13419.00
168.4860, 12820.00
169.7110, 12210.00
170.9360, 11608.00
172.1610, 11012.00
173.3850, 10572.00
174.6100, 10267.00
175.8340, 9878.000
177.0580, 9728.000
178.2820, 9583.000
179.5050, 9391.000
180.7290, 9468.000
181.9520, 9437.000
183.1760, 9497.000
184.3990, 9564.000
185.6220, 9714.000
186.8450, 9976.000
188.0670, 10093.00
189.2900, 10377.00
190.5120, 10450.00
191.7340, 10764.00
192.9560, 10924.00
194.1780, 11177.00
195.4000, 11426.00
196.6220, 11679.69
197.8430, 11955.00
199.0640, 12271.00
200.2860, 12583.00
201.5070, 12934.00
202.7270, 13155.00
203.9480, 13512.00
205.1690, 13813.00
206.3890, 14178.00
207.6090, 14655.00
208.8290, 14959.00
210.0490, 15241.00
211.2690, 15652.00
212.4890, 15796.00
213.7080, 15987.00
214.9280, 16243.00
216.1470, 16286.00
217.3660, 16287.00
218.5850, 16449.00
219.8030, 16506.00
221.0220, 16488.00
222.2400, 16524.00
223.4590, 16753.00
224.6770, 16754.00
225.8950, 17058.00
227.1120, 17076.00
228.3300, 17246.00
229.5480, 17541.00
230.7650, 17598.00
231.9820, 17605.00
233.1990, 17588.00
234.4160, 17665.00
235.6330, 17614.00
236.8490, 17601.00
238.0660, 17641.00
239.2820, 17628.00
240.4980, 17790.00
241.7140, 18455.00
242.9300, 18973.00
244.1460, 19966.00
245.3610, 21086.00
246.5770, 22013.00
247.7920, 23487.00
249.0070, 24785.00
250.2220, 25917.00
251.4370, 26905.00
252.6510, 27334.00
253.8660, 27485.00
255.0800, 27126.00
256.2940, 26547.00
257.5080, 25702.00
258.7220, 24942.00
259.9360, 23500.00
261.1490, 22282.00
262.3630, 21575.00
263.5760, 21066.00
264.7890, 20985.00
266.0020, 21328.00
267.2150, 22020.00
268.4270, 22869.00
269.6400, 23990.00
270.8520, 25333.00
272.0640, 27070.00
273.2760, 28077.00
274.4880, 28539.00
275.7000, 28491.00
276.9120, 27461.00
278.1230, 25987.00
279.3340, 24075.00
280.5450, 21813.00
281.7560, 19583.00
282.9670, 17697.00
284.1780, 16042.00
285.3880, 15041.00
286.5980, 14294.00
287.8090, 13623.00
289.0190, 13286.00
290.2290, 13096.00
291.4380, 12994.00
292.6480, 12869.00
293.8570, 12883.00
295.0670, 12868.00
296.2760, 13088.00
297.4850, 13124.00
298.6930, 13422.00
299.9020, 13504.00
301.1110, 13651.00
302.3190, 13937.00
303.5270, 14030.00
304.7350, 14121.00
305.9430, 14321.00
307.1510, 14471.00
308.3580, 14646.00
309.5660, 15005.00
310.7730, 15103.00
311.9800, 15122.00
313.1870, 15125.00
314.3940, 15064.00
315.6010, 14917.00
316.8070, 14602.00
318.0130, 14396.00
319.2200, 14228.00
320.4260, 14154.00
321.6310, 14075.32
322.8370, 14065.00
324.0430, 13995.00
325.2480, 14068.00
326.4540, 13949.00
327.6590, 14096.00
328.8640, 14089.00
330.0680, 14092.00
331.2730, 13849.00
332.4780, 13612.00
333.6820, 13357.00
334.8860, 13161.00
336.0900, 12833.00
337.2940, 12585.00
338.4980, 12451.00
339.7010, 12290.00
340.9050, 12103.00
342.1080, 11959.00
343.3110, 12034.00
344.5140, 11950.00
345.7170, 12130.00
346.9200, 12229.00
348.1220, 12361.00
349.3240, 12546.00
350.5270, 12653.00
351.7290, 12864.00
352.9310, 13024.00
354.1320, 13023.00
355.3340, 12979.00
356.5350, 12921.00
357.7370, 12669.00
358.9380, 12351.00
360.1390, 12207.00
361.3400, 12153.00
362.5400, 11996.00
363.7410, 11819.00
364.9410, 11753.00
366.1410, 11705.00
367.3410, 11635.00
368.5410, 11574.00
369.7410, 11554.00
370.9400, 11516.00
372.1400, 11535.00
373.3390, 11536.00
374.5380, 11566.00
375.7370, 11701.00
376.9360, 11748.00
378.1350, 12113.00
379.3330, 12288.00
380.5310, 12510.00
381.7300, 13014.00
382.9280, 13296.00
384.1260, 13996.00
385.3230, 14385.00
386.5210, 15312.00
387.7180, 15961.00
388.9160, 16889.00
390.1130, 17901.00
391.3100, 18505.00
392.5060, 19402.00
393.7030, 20273.00
394.9000, 21123.00
396.0960, 21316.00
397.2920, 21614.00
398.4880, 21443.00
399.6840, 21098.00
400.8800, 20438.00
402.0750, 19259.00
403.2710, 18444.00
404.4660, 17644.00
405.6610, 16598.00
406.8560, 15920.00
408.0510, 15402.00
409.2450, 15288.20
410.4400, 15379.87
411.6340, 15845.00
412.8280, 16419.00
414.0220, 17329.00
415.2160, 18527.00
416.4100, 20438.00
417.6030, 22420.00
418.7970, 25207.00
419.9900, 28200.00
421.1830, 31322.00
422.3760, 35284.00
423.5690, 38819.00
424.7610, 42493.00
425.9540, 45191.00
427.1460, 46923.00
428.3380, 47799.00
429.5300, 47267.00
430.7220, 45716.00
431.9140, 43237.00
433.1050, 40361.00
434.2970, 37667.00
435.4880, 34845.00
436.6790, 32682.00
437.8700, 31018.00
439.0610, 29977.00
440.2510, 29476.00
441.4420, 29538.00
442.6320, 30046.00
443.8220, 30941.00
445.0120, 32356.00
446.2020, 34244.00
447.3910, 36552.00
448.5810, 38880.00
449.7700, 41412.00
450.9600, 43272.00
452.1490, 44524.00
453.3370, 45148.00
454.5260, 44934.00
455.7150, 44280.00
456.9030, 42223.00
458.0910, 40316.00
459.2800, 37522.00
460.4670, 35545.00
461.6550, 33379.00
462.8430, 31649.00
464.0300, 30441.00
465.2180, 29583.00
466.4050, 28834.00
467.5920, 28106.00
468.7790, 28027.00
469.9650, 27902.00
471.1520, 28096.00
472.3380, 28090.00
473.5250, 27566.00
474.7110, 27666.00
475.8970, 27403.00
477.0820, 27135.00
478.2680, 26826.00
479.4540, 26466.00
480.6390, 26241.00
481.8240, 26000.00
483.0090, 25690.00
484.1940, 25168.00
485.3780, 24987.00
486.5630, 24859.00
487.7470, 24300.00
488.9320, 24153.00
490.1160, 23914.00
491.3000, 23415.00
492.4830, 23273.00
493.6670, 22785.00
494.8500, 22547.00
496.0340, 22367.00
497.2170, 21972.00
498.4000, 21619.00
499.5820, 21421.00
500.7650, 21161.00
501.9480, 21154.00
503.1300, 21259.00
504.3120, 21416.00
505.4940, 21203.00
506.6760, 21553.00
507.8580, 21685.00
509.0390, 22092.00
510.2210, 22374.00
511.4020, 22695.00
512.5830, 22791.00
513.7640, 22897.00
514.9450, 23091.00
516.1250, 23186.00
517.3060, 23042.00
518.4860, 23160.00
519.6660, 23328.00
520.8460, 23441.00
522.0260, 23632.00
523.2060, 24124.00
524.3850, 24448.00
525.5650, 25320.00
526.7440, 25758.00
527.9230, 25993.00
529.1020, 26242.00
530.2810, 25820.00
531.4590, 24977.00
532.6380, 23756.00
533.8160, 22563.00
534.9940, 21282.00
536.1720, 20114.00
537.3500, 19188.00
538.5270, 18793.00
539.7050, 18590.00
540.8820, 18328.00
542.0590, 18294.76
543.2360, 18403.00
544.4130, 18404.00
545.5900, 18668.00
546.7660, 18846.00
547.9430, 19047.00
549.1190, 19216.00
550.2950, 19566.00
551.4710, 20233.00
552.6470, 20641.00
553.8220, 21028.00
554.9980, 21809.00
556.1730, 22117.00
557.3480, 22966.00
558.5230, 24075.00
559.6980, 25238.00
560.8730, 27089.00
562.0470, 29181.00
563.2220, 32023.00
564.3960, 35467.00
565.5700, 39280.00
566.7440, 43641.00
567.9170, 48411.00
569.0910, 52977.00
570.2640, 56445.00
571.4380, 57236.00
572.6110, 55844.00
573.7840, 52470.00
574.9570, 47276.00
576.1290, 40995.00
577.3020, 34706.00
578.4740, 29505.00
579.6460, 25289.00
580.8180, 22671.00
581.9900, 20734.00
583.1620, 19539.00
584.3330, 18808.00
585.5040, 18366.00
586.6760, 18144.00
587.8470, 18344.00
589.0180, 18723.00
590.1880, 19086.00
591.3590, 19637.00
592.5290, 20528.00
593.7000, 21487.00
594.8700, 22649.59
596.0400, 23880.00
597.2090, 25481.00
598.3790, 27192.00
599.5490, 28983.00
600.7180, 31148.00
601.8870, 32835.00
603.0560, 34707.00
604.2250, 35902.00
605.3940, 36467.00
606.5620, 36413.89
607.7300, 35676.00
608.8990, 34422.00
610.0670, 32253.00
611.2350, 29734.00
612.4020, 27300.00
613.5700, 25158.00
614.7370, 23146.00
615.9050, 21442.00
617.0720, 20033.00
618.2390, 18896.00
619.4060, 17904.00
620.5720, 17346.00
621.7390, 16744.00
622.9050, 16261.00
624.0710, 15629.00
625.2370, 15174.00
626.4030, 14756.00
627.5690, 14451.00
628.7340, 14091.50
629.9000, 13844.00
631.0650, 13545.00
632.2300, 13218.00
633.3950, 13048.00
634.5600, 12721.00
635.7240, 12233.00
636.8890, 12205.00
638.0530, 11833.00
639.2170, 11690.00
640.3810, 11551.00
641.5450, 11467.00
642.7080, 11179.00
643.8720, 11142.00
645.0350, 10973.00
646.1980, 10966.00
647.3610, 11005.00
648.5240, 11143.00
649.6870, 11189.00
650.8490, 11382.00
652.0120, 11529.00
653.1740, 11789.00
654.3360, 12120.00
655.4980, 12407.00
656.6600, 12839.00
657.8210, 13085.00
658.9830, 13496.00
660.1440, 13858.00
661.3050, 14050.00
662.4660, 14266.00
663.6270, 14635.00
664.7870, 14836.00
665.9480, 15146.00
667.1080, 15093.00
668.2680, 15174.00
669.4280, 14856.00
670.5880, 14701.00
671.7480, 14546.00
672.9070, 14377.00
674.0670, 14264.00
675.2260, 14172.00
676.3850, 14145.00
677.5440, 14194.00
678.7030, 14257.71
679.8610, 14527.00
681.0200, 14570.00
682.1780, 14747.00
683.3360, 15041.00
684.4940, 15083.00
685.6520, 15293.00
686.8090, 15507.00
687.9670, 15453.00
689.1240, 15405.00
690.2810, 15519.00
691.4380, 15378.00
692.5950, 15485.00
693.7520, 15294.00
694.9080, 15217.00
696.0650, 14975.00
697.2210, 14945.00
698.3770, 14648.00
699.5330, 14309.00
700.6880, 13820.00
701.8440, 13600.00
702.9990, 12986.00
704.1550, 12532.00
705.3100, 12142.00
706.4650, 11709.00
707.6190, 11367.00
708.7740, 10991.88
709.9290, 10633.00
711.0830, 10357.00
712.2370, 10040.00
713.3910, 9858.000
714.5450, 9683.000
715.6980, 9479.876
716.8520, 9404.000
718.0050, 9199.000
719.1580, 9128.000
720.3110, 9071.000
721.4640, 9061.000
722.6170, 8962.000
723.7700, 9012.000
724.9220, 8960.000
726.0740, 8863.000
727.2260, 8833.000
728.3780, 8763.000
729.5300, 8879.000
730.6810, 8796.000
731.8330, 8786.000
732.9840, 8697.000
734.1350, 8859.000
735.2860, 8731.000
736.4370, 8725.000
737.5880, 8782.000
738.7380, 8602.000
739.8880, 8696.000
741.0390, 8628.000
742.1890, 8464.000
743.3380, 8547.000
744.4880, 8413.000
745.6380, 8481.000
746.7870, 8476.000
747.9360, 8350.000
749.0850, 8322.000
750.2340, 8414.000
751.3830, 8450.000
752.5310, 8374.000
753.6800, 8335.000
754.8280, 8303.000
755.9760, 8385.000
757.1240, 8322.000
758.2720, 8310.000
759.4190, 8329.000
760.5670, 8297.000
761.7140, 8322.000
762.8610, 8375.000
764.0080, 8402.000
765.1550, 8419.000
766.3020, 8297.000
767.4480, 8352.000
768.5950, 8368.000
769.7410, 8440.000
770.8870, 8466.000
772.0330, 8490.828
773.1780, 8348.000
774.3240, 8523.000
775.4690, 8435.000
776.6140, 8423.000
777.7590, 8622.000
778.9040, 8631.000
780.0490, 8584.000
781.1940, 8484.000
782.3380, 8697.000
783.4820, 8512.000
784.6260, 8455.000
785.7700, 8586.000
786.9140, 8697.000
788.0580, 8657.000
789.2010, 8644.000
790.3450, 8580.000
791.4880, 8692.000
792.6310, 8687.000
793.7730, 8761.000
794.9160, 8817.000
796.0590, 8873.000
797.2010, 8824.000
798.3430, 8931.000
799.4850, 8974.000
800.6270, 9067.000
801.7690, 9027.000
802.9100, 9046.000
804.0520, 8997.000
805.1930, 9131.000
806.3340, 9234.000
807.4750, 9208.000
808.6160, 9260.000
809.7560, 9428.000
810.8970, 9637.000
812.0370, 9644.000
813.1770, 9711.000
814.3170, 9835.000
815.4570, 9986.000
816.5960, 10123.00
817.7360, 10456.00
818.8750, 10478.00
820.0140, 10730.00
821.1530, 11214.00
822.2920, 11420.00
823.4310, 11938.00
824.5690, 12177.00
825.7070, 12704.00
826.8460, 13184.00
827.9840, 13597.00
829.1220, 13940.00
830.2590, 14335.00
831.3970, 14516.00
832.5340, 14802.00
833.6710, 14779.00
834.8080, 14851.00
835.9450, 14905.00
837.0820, 14617.00
838.2190, 14536.00
839.3550, 14547.00
840.4910, 14280.00
841.6270, 14156.00
842.7630, 14090.00
843.8990, 13818.00
845.0350, 14099.00
846.1700, 13938.07
847.3060, 14120.00
848.4410, 13916.00
849.5760, 13936.00
850.7100, 13927.00
851.8450, 14040.00
852.9800, 14235.00
854.1140, 14385.00
855.2480, 14575.00
856.3820, 14727.00
857.5160, 14976.00
858.6500, 15146.00
859.7830, 15392.00
860.9170, 15712.00
862.0500, 15866.00
863.1830, 16143.00
864.3160, 16419.00
865.4480, 16665.00
866.5810, 17131.00
867.7130, 17401.00
868.8460, 17964.00
869.9780, 18206.00
871.1100, 18598.00
872.2410, 18971.00
873.3730, 19350.00
874.5050, 19803.00
875.6360, 20131.00
876.7670, 20394.00
877.8980, 20542.00
879.0290, 20940.00
880.1590, 20801.00
881.2900, 20652.00
882.4200, 20266.00
883.5500, 19807.00
884.6800, 19427.00
885.8100, 19106.00
886.9400, 18536.00
888.0690, 18298.00
889.1990, 18081.00
890.3280, 17682.00
891.4570, 17527.00
892.5860, 17434.00
893.7140, 17535.00
894.8430, 17715.00
895.9710, 18195.00
897.1000, 18360.00
898.2280, 18875.00
899.3560, 19431.00
900.4830, 20360.00
901.6110, 20980.00
902.7380, 22163.00
903.8660, 23116.00
904.9930, 24324.00
906.1200, 25766.00
907.2460, 26972.00
908.3730, 28199.00
909.5000, 29698.00
910.6260, 31235.00
911.7520, 32215.00
912.8780, 33624.00
914.0040, 34396.00
915.1290, 35344.00
916.2550, 35930.00
917.3800, 36335.00
918.5050, 36622.00
919.6300, 36851.00
920.7550, 36778.00
921.8800, 36787.00
923.0040, 36369.00
924.1290, 36210.00
925.2530, 35870.00
926.3770, 35334.00
927.5010, 34962.00
928.6250, 34377.00
929.7480, 33797.00
930.8720, 33112.00
931.9950, 32818.00
933.1180, 32233.00
934.2410, 31863.00
935.3640, 31150.00
936.4860, 30519.00
937.6090, 29950.00
938.7310, 29255.00
939.8530, 28586.11
940.9750, 27893.00
942.0970, 27118.00
943.2180, 26302.00
944.3400, 25445.00
945.4610, 24689.00
946.5820, 23939.00
947.7030, 23049.00
948.8240, 22524.00
949.9450, 22044.00
951.0650, 21668.00
952.1860, 21516.00
953.3060, 21205.00
954.4260, 21240.00
955.5460, 21384.00
956.6650, 21591.00
957.7850, 21696.00
958.9040, 21760.00
960.0230, 21856.00
961.1420, 21888.85
962.2610, 22264.00
963.3800, 21877.00
964.4990, 21742.00
965.6170, 21581.00
966.7350, 21002.00
967.8530, 20519.00
968.9710, 20084.00
970.0890, 19627.00
971.2070, 19414.00
972.3240, 19306.90
973.4410, 19217.00
974.5580, 19542.00
975.6750, 19839.00
976.7920, 20397.00
977.9090, 21523.00
979.0250, 22569.00
980.1410, 23470.00
981.2580, 25091.00
982.3740, 26309.00
983.4890, 27341.00
984.6050, 27992.00
985.7200, 27707.00
986.8360, 27438.00
987.9510, 26439.00
989.0660, 25115.00
990.1810, 23506.00
991.2950, 22082.00
992.4100, 20411.00
993.5240, 19033.00
994.6390, 18052.00
995.7530, 16852.00
996.8660, 16271.00
997.9800, 15393.00
999.0940, 14779.00
1000.207, 14288.00
1001.320, 13852.00
1002.433, 13455.00
1003.546, 13144.00
1004.659, 12695.00
1005.772, 12390.00
1006.884, 12016.00
1007.996, 11741.00
1009.108, 11548.00
1010.220, 11328.00
1011.332, 11228.00
1012.444, 11138.00
1013.555, 11104.00
1014.666, 10960.00
1015.777, 11003.00
1016.888, 10931.00
1017.999, 10873.00
1019.110, 10903.00
1020.220, 10849.00
1021.331, 10915.00
1022.441, 11025.00
1023.551, 10921.00
1024.661, 11127.00
1025.770, 11106.00
1026.880, 11400.00
1027.989, 11380.00
1029.098, 11525.00
1030.207, 11736.00
1031.316, 11953.00
1032.425, 12261.00
1033.533, 12427.00
1034.642, 12600.00
1035.750, 12919.00
1036.858, 13355.00
1037.966, 13585.00
1039.073, 14022.00
1040.181, 14666.00
1041.288, 15020.00
1042.396, 15436.00
1043.503, 15872.00
1044.610, 16285.00
1045.716, 16533.00
1046.823, 16696.00
1047.929, 16623.00
1049.036, 16947.00
1050.142, 16720.00
1051.248, 16586.00
1052.353, 16441.00
1053.459, 16116.00
1054.564, 15801.00
1055.670, 15575.00
1056.775, 15314.00
1057.880, 15001.00
1058.985, 14624.00
1060.089, 14377.00
1061.194, 14150.00
1062.298, 14146.00
1063.402, 14181.00
1064.506, 14303.00
1065.610, 14352.00
1066.713, 14725.00
1067.817, 15116.00
1068.920, 15670.00
1070.023, 16204.00
1071.126, 16910.00
1072.229, 17625.00
1073.332, 18771.00
1074.435, 20093.00
1075.537, 21260.00
1076.639, 22638.00
1077.741, 24087.00
1078.843, 25767.00
1079.945, 27310.00
1081.046, 29047.00
1082.148, 31007.00
1083.249, 33412.00
1084.350, 35899.00
1085.451, 38690.00
1086.551, 42209.00
1087.652, 45453.00
1088.752, 50096.00
1089.853, 54121.00
1090.953, 58007.00
1092.053, 61008.00
1093.152, 62679.00
1094.252, 61830.00
1095.351, 60006.00
1096.451, 55641.00
1097.550, 50011.00
1098.649, 43954.00
1099.748, 37769.00
1100.846, 32210.00
1101.945, 27802.00
1103.043, 24033.00
1104.141, 21132.00
1105.239, 18965.00
1106.337, 17093.00
1107.434, 15782.00
1108.532, 14681.00
1109.629, 13791.00
1110.726, 13307.00
1111.823, 12789.00
1112.920, 12373.00
1114.017, 12170.00
1115.113, 11767.00
1116.210, 11729.00
1117.306, 11667.00
1118.402, 11421.00
1119.498, 11602.00
1120.593, 11340.00
1121.689, 11235.00
1122.784, 11204.00
1123.879, 11130.00
1124.974, 10965.00
1126.069, 11074.00
1127.164, 10678.00
1128.259, 10796.00
1129.353, 10599.00
1130.447, 10512.00
1131.541, 10436.00
1132.635, 10446.00
1133.729, 10442.00
1134.822, 10315.00
1135.916, 10310.00
1137.009, 10246.00
1138.102, 10159.00
1139.195, 10290.00
1140.288, 10236.00
1141.380, 10285.00
1142.473, 10129.00
1143.565, 10192.00
1144.657, 10141.00
1145.749, 10131.00
1146.841, 10122.00
1147.932, 10136.00
1149.024, 9955.000
1150.115, 10029.00
1151.206, 9900.000
1152.297, 9833.000
1153.388, 9985.000
1154.479, 9788.000
1155.569, 9740.000
1156.659, 9724.000
1157.750, 9639.000
1158.839, 9646.000
1159.929, 9556.000
1161.019, 9610.000
1162.108, 9551.000
1163.198, 9493.000
1164.287, 9566.000
1165.376, 9491.000
1166.465, 9529.000
1167.553, 9621.000
1168.642, 9489.000
1169.730, 9325.000
1170.818, 9492.000
1171.906, 9275.000
1172.994, 9356.278
1174.082, 9475.000
1175.170, 9421.000
1176.257, 9337.000
1177.344, 9332.000
1178.431, 9378.000
1179.518, 9399.000
1180.605, 9349.000
1181.691, 9380.000
1182.778, 9214.000
1183.864, 9418.000
1184.950, 9308.000
1186.036, 9209.000
1187.122, 9331.000
1188.207, 9256.000
1189.292, 9167.000
1190.378, 9279.000
1191.463, 9229.000
1192.548, 9133.000
1193.632, 9341.000
1194.717, 9225.000
1195.801, 9284.000
1196.886, 9268.000
1197.970, 9200.000
1199.054, 9167.000
1200.137, 9280.000
1201.221, 9237.000
1202.305, 9251.000
1203.388, 9214.000
1204.471, 9214.000
1205.554, 9233.000
1206.637, 9319.000
1207.719, 9214.000
1208.802, 9292.000
1209.884, 9214.000
1210.966, 9170.000
1212.048, 9186.000
1213.130, 9271.000
1214.212, 9202.000
1215.293, 9211.000
1216.374, 9276.000
1217.456, 9213.000
1218.536, 9322.000
1219.617, 9314.000
1220.698, 9233.000
1221.778, 9206.000
1222.859, 9285.000
1223.939, 9177.000
1225.019, 9214.000
1226.099, 9234.000
1227.178, 9361.000
1228.258, 9260.000
1229.337, 9255.000
1230.417, 9263.000
1231.496, 9221.000
1232.574, 9236.994
1233.653, 9201.000
1234.732, 9238.000
1235.810, 9318.000
1236.888, 9315.000
1237.966, 9317.000
1239.044, 9408.000
1240.122, 9303.000
1241.199, 9433.000
1242.277, 9351.000
1243.354, 9270.000
1244.431, 9257.000
1245.508, 9310.000
1246.585, 9245.000
1247.661, 9321.000
1248.738, 9184.000
1249.814, 9197.000
1250.890, 9252.000
1251.966, 9285.000
1253.042, 9334.000
1254.117, 9332.000
1255.193, 9346.000
1256.268, 9322.000
1257.343, 9313.000
1258.418, 9352.000
1259.493, 9258.000
1260.567, 9237.000
1261.642, 9333.000
1262.716, 9298.000
1263.790, 9314.000
1264.864, 9465.000
1265.938, 9382.000
1267.011, 9412.000
1268.085, 9479.000
1269.158, 9461.345
1270.231, 9472.324
1271.304, 9497.000
1272.377, 9434.000
1273.450, 9402.000
1274.522, 9364.000
1275.594, 9339.000
1276.666, 9255.000
1277.738, 9391.000
1278.810, 9538.000
1279.882, 9461.000
1280.953, 9466.000
1282.025, 9293.000
1283.096, 9416.000
1284.167, 9271.000
1285.238, 9446.000
1286.308, 9300.000
1287.379, 9263.000
1288.449, 9308.000
1289.519, 9368.000
1290.589, 9361.000
1291.659, 9327.000
1292.729, 9328.000
1293.798, 9419.000
1294.868, 9437.000
1295.937, 9346.000
1297.006, 9426.000
1298.075, 9353.000
1299.143, 9401.000
1300.212, 9330.000
1301.280, 9428.000
1302.348, 9350.000
1303.416, 9377.000
1304.484, 9415.000
1305.552, 9468.000
1306.620, 9461.791
1307.687, 9493.619
1308.754, 9444.000
1309.821, 9488.000
1310.888, 9456.000
1311.955, 9385.000
1313.021, 9415.000
1314.088, 9385.000
1315.154, 9395.000
1316.220, 9543.000
1317.286, 9231.000
1318.352, 9417.000
1319.417, 9338.000
1320.483, 9458.000
1321.548, 9352.000
1322.613, 9408.000
1323.678, 9302.000
1324.743, 9387.000
1325.807, 9358.000
1326.872, 9429.000
1327.936, 9416.000
1329.000, 9326.000
1330.064, 9365.000
1331.128, 9399.000
1332.191, 9296.000
1333.255, 9343.000
1334.318, 9391.000
1335.381, 9337.000
1336.444, 9288.000
1337.507, 9398.000
1338.569, 9507.000
1339.632, 9406.000
1340.694, 9421.000
1341.756, 9367.000
1342.818, 9328.000
1343.880, 9246.000
1344.941, 9310.000
1346.003, 9408.000
1347.064, 9369.000
1348.125, 9419.000
1349.186, 9375.000
1350.247, 9499.000
1351.308, 9435.000
1352.368, 9486.000
1353.428, 9441.000
1354.489, 9542.000
1355.549, 9494.000
1356.608, 9342.000
1357.668, 9426.000
1358.727, 9458.000
1359.787, 9454.000
1360.846, 9525.000
1361.905, 9459.000
1362.964, 9386.000
1364.022, 9533.000
1365.081, 9535.000
1366.139, 9514.000
1367.197, 9566.000
1368.255, 9540.000
1369.313, 9528.000
1370.371, 9570.000
1371.428, 9501.000
1372.486, 9602.000
1373.543, 9649.000
1374.600, 9501.000
1375.657, 9544.000
1376.713, 9569.000
1377.770, 9436.000
1378.826, 9517.000
1379.882, 9527.000
1380.938, 9460.000
1381.994, 9523.000
1383.050, 9511.000
1384.106, 9486.000
1385.161, 9482.000
1386.216, 9577.000
1387.271, 9450.000
1388.326, 9516.000
1389.381, 9430.000
1390.435, 9560.000
1391.490, 9454.000
1392.544, 9507.000
1393.598, 9551.000
1394.652, 9398.000
1395.705, 9495.000
1396.759, 9411.000
1397.812, 9480.000
1398.866, 9467.000
1399.919, 9295.000
1400.972, 9552.000
1402.024, 9532.000
1403.077, 9461.000
1404.129, 9391.000
1405.181, 9510.000
1406.233, 9562.000
1407.285, 9554.000
1408.337, 9461.000
1409.389, 9413.000
1410.440, 9443.000
1411.491, 9421.000
1412.542, 9500.000
1413.593, 9371.000
1414.644, 9493.000
1415.695, 9485.000
1416.745, 9467.000
1417.795, 9364.000
1418.845, 9470.000
1419.895, 9428.000
1420.945, 9491.000
1421.995, 9506.000
1423.044, 9498.000
1424.093, 9392.000
1425.142, 9344.000
1426.191, 9554.000
1427.240, 9361.000
1428.289, 9557.000
1429.337, 9525.000
1430.385, 9490.000
1431.433, 9546.000
1432.481, 9560.000
1433.529, 9434.000
1434.577, 9501.000
1435.624, 9457.000
1436.672, 9581.000
1437.719, 9630.000
1438.766, 9597.000
1439.812, 9783.000
1440.859, 9612.000
1441.905, 9723.000
1442.952, 9631.000
1443.998, 9806.000
1445.044, 9808.000
1446.090, 9711.000
1447.135, 9833.000
1448.181, 9649.000
1449.226, 9783.000
1450.271, 9765.000
1451.316, 9762.000
1452.361, 9738.000
1453.405, 9744.000
1454.450, 9772.000
1455.494, 9783.000
1456.538, 9701.000
1457.582, 9827.000
1458.626, 9765.000
1459.670, 9880.000
1460.713, 9783.000
1461.757, 9799.000
1462.800, 9796.000
1463.843, 9623.000
1464.886, 9775.000
1465.928, 9682.000
1466.971, 9760.000
1468.013, 9599.000
1469.055, 9766.000
1470.097, 9721.000
1471.139, 9670.000
1472.181, 9598.000
1473.222, 9702.000
1474.263, 9656.000
1475.305, 9551.000
1476.346, 9657.000
1477.386, 9682.000
1478.427, 9719.000
1479.468, 9670.000
1480.508, 9704.000
1481.548, 9676.000
1482.588, 9575.000
1483.628, 9704.000
1484.668, 9697.000
1485.707, 9628.000
1486.747, 9687.000
1487.786, 9570.000
1488.825, 9595.000
1489.864, 9663.000
1490.902, 9620.000
1491.941, 9619.000
1492.979, 9649.000
1494.017, 9590.000
1495.055, 9539.000
1496.093, 9719.000
1497.131, 9741.000
1498.168, 9662.000
1499.206, 9643.000
1500.243, 9638.000
1501.280, 9650.000
1502.317, 9666.000
1503.354, 9693.000
1504.390, 9628.000
1505.426, 9654.000
1506.463, 9588.000
1507.499, 9694.000
1508.535, 9623.000
1509.570, 9700.000
1510.606, 9681.000
1511.641, 9690.000
1512.676, 9661.000
1513.711, 9666.000
1514.746, 9680.000
1515.781, 9743.000
1516.816, 9736.525
1517.850, 9741.000
1518.884, 9758.000
1519.918, 9675.000
1520.952, 9672.000
1521.986, 9717.000
1523.019, 9603.000
1524.053, 9833.000
1525.086, 9735.000
1526.119, 9780.000
1527.152, 9853.000
1528.185, 9721.000
1529.217, 9780.000
1530.250, 9794.000
1531.282, 9792.000
1532.314, 9777.000
1533.346, 9846.000
1534.377, 9833.000
1535.409, 9846.000
1536.440, 9892.000
1537.472, 9752.000
1538.503, 9750.000
1539.534, 9824.000
1540.564, 9853.000
1541.595, 9864.000
1542.625, 9866.923
1543.656, 9819.000
1544.686, 9814.000
1545.716, 9797.000
1546.745, 9752.000
1547.775, 9777.266
1548.804, 9792.000
1549.834, 9787.000
1550.863, 9826.000
1551.892, 9784.000
1552.920, 9894.000
1553.949, 9910.000
1554.977, 9894.000
1556.006, 9753.000
1557.034, 9895.000
1558.062, 9863.000
1559.089, 9752.000
1560.117, 9840.000
1561.144, 9854.000
1562.172, 9787.000
1563.199, 9802.000
1564.226, 9751.000
1565.252, 9794.000
1566.279, 9779.000
1567.305, 9907.000
1568.332, 9853.000
1569.358, 9844.000
1570.384, 9929.000
1571.409, 9780.000
1572.435, 9914.000
##END=



