##NAMES=Clinozoisite
##RRUFFID=R060284
##IDEAL CHEMISTRY=Ca_2_Al_3_(Si_2_O_7_)(SiO_4_)O(OH)
##LOCALITY=near Zagi Mountain, Khaffor Dehri, North-West Frontier Province, Pakistan
##OWNER=RRUFF
##SOURCE=Herb Obodda
##DESCRIPTION=Greenish-brown fragment of a prismatic crystal
##STATUS=The identification of this mineral has been confirmed by X-ray diffraction and chemical analysis
##URL=rruff.info/R060284
##MEASURED CHEMISTRY=Ca_2.00_(Al_0.90_Fe^3+^_0.10_)_3_(Si_1.00_O_4_)(Si_2.00_O_7_)O(OH)
##PIN_ID=L00766
##ORIENTATION=Laser parallel to b* (0 1 0). Fiducial mark perpendicular to laser is parallel to c [0 0 1]
118.1340, 16465.00
119.3650, 16819.00
120.5960, 17163.00
121.8270, 17546.00
123.0580, 18565.00
124.2880, 18900.00
125.5190, 19793.00
126.7490, 20719.00
127.9790, 22138.00
129.2090, 23646.00
130.4390, 25222.00
131.6680, 26957.00
132.8980, 28682.00
134.1270, 30097.00
135.3560, 31601.00
136.5850, 32821.00
137.8140, 33537.00
139.0430, 33694.00
140.2710, 33627.00
141.5000, 32517.00
142.7280, 31585.00
143.9560, 30327.00
145.1840, 29561.00
146.4120, 28590.00
147.6390, 27936.00
148.8670, 27172.00
150.0940, 26573.00
151.3210, 26582.00
152.5490, 25941.00
153.7750, 25684.00
155.0020, 25334.00
156.2290, 25033.00
157.4550, 24935.00
158.6810, 25011.00
159.9080, 24909.00
161.1340, 24909.00
162.3590, 25163.00
163.5850, 25237.00
164.8110, 25104.00
166.0360, 24802.00
167.2610, 24673.00
168.4860, 23704.00
169.7110, 23265.00
170.9360, 22428.00
172.1610, 21254.00
173.3850, 20455.00
174.6100, 19189.00
175.8340, 17993.00
177.0580, 17181.00
178.2820, 16123.00
179.5050, 15626.00
180.7290, 14981.00
181.9520, 14476.00
183.1760, 13989.00
184.3990, 13600.00
185.6220, 13442.00
186.8450, 13254.00
188.0670, 13103.00
189.2900, 12958.00
190.5120, 13085.00
191.7340, 12917.00
192.9560, 13245.00
194.1780, 13114.00
195.4000, 13214.00
196.6220, 13305.00
197.8430, 13439.00
199.0640, 13606.00
200.2860, 13949.00
201.5070, 14195.00
202.7270, 14651.00
203.9480, 14716.00
205.1690, 14723.00
206.3890, 15068.00
207.6090, 15351.00
208.8290, 15658.00
210.0490, 16090.00
211.2690, 16138.00
212.4890, 16568.00
213.7080, 16755.00
214.9280, 16952.00
216.1470, 17245.00
217.3660, 17525.00
218.5850, 17912.00
219.8030, 18155.00
221.0220, 18565.00
222.2400, 19046.00
223.4590, 19512.00
224.6770, 20200.00
225.8950, 20871.00
227.1120, 21536.00
228.3300, 21929.00
229.5480, 22903.00
230.7650, 23649.00
231.9820, 24337.00
233.1990, 24340.00
234.4160, 24465.00
235.6330, 24162.00
236.8490, 24256.00
238.0660, 24017.00
239.2820, 23986.00
240.4980, 24390.00
241.7140, 24921.04
242.9300, 25831.00
244.1460, 26993.00
245.3610, 28863.00
246.5770, 30858.00
247.7920, 32852.00
249.0070, 35055.00
250.2220, 37077.00
251.4370, 38718.00
252.6510, 39569.00
253.8660, 39602.00
255.0800, 39253.00
256.2940, 38568.70
257.5080, 37024.00
258.7220, 35787.00
259.9360, 33589.00
261.1490, 31249.00
262.3630, 29442.00
263.5760, 28014.00
264.7890, 27211.00
266.0020, 26655.00
267.2150, 26337.00
268.4270, 26410.00
269.6400, 26875.00
270.8520, 27412.00
272.0640, 28076.00
273.2760, 28243.00
274.4880, 28001.00
275.7000, 27351.00
276.9120, 26424.00
278.1230, 25178.00
279.3340, 23892.00
280.5450, 22456.00
281.7560, 20953.00
282.9670, 19886.00
284.1780, 18768.00
285.3880, 18194.00
286.5980, 17723.00
287.8090, 17624.00
289.0190, 17384.00
290.2290, 17447.00
291.4380, 17391.00
292.6480, 17543.00
293.8570, 17452.00
295.0670, 17807.00
296.2760, 17868.00
297.4850, 18139.00
298.6930, 18139.00
299.9020, 18145.00
301.1110, 18035.00
302.3190, 18041.00
303.5270, 17987.00
304.7350, 17637.00
305.9430, 17514.00
307.1510, 17331.00
308.3580, 17184.59
309.5660, 17076.03
310.7730, 17017.00
311.9800, 16861.00
313.1870, 16824.00
314.3940, 16714.00
315.6010, 16269.00
316.8070, 16338.00
318.0130, 16354.00
319.2200, 16284.00
320.4260, 16393.00
321.6310, 16598.00
322.8370, 16755.00
324.0430, 16928.00
325.2480, 17172.00
326.4540, 17620.00
327.6590, 18042.00
328.8640, 18408.24
330.0680, 18702.11
331.2730, 19076.00
332.4780, 19176.00
333.6820, 19139.00
334.8860, 19303.00
336.0900, 19468.00
337.2940, 19727.00
338.4980, 19925.00
339.7010, 20172.00
340.9050, 20714.00
342.1080, 21356.00
343.3110, 22129.22
344.5140, 23020.00
345.7170, 24211.00
346.9200, 25430.00
348.1220, 26936.00
349.3240, 27959.00
350.5270, 29014.00
351.7290, 29465.00
352.9310, 29336.00
354.1320, 28574.00
355.3340, 27993.00
356.5350, 26767.00
357.7370, 25414.00
358.9380, 24113.00
360.1390, 22838.00
361.3400, 21903.00
362.5400, 20884.00
363.7410, 20161.00
364.9410, 19526.00
366.1410, 19154.00
367.3410, 18441.00
368.5410, 17945.00
369.7410, 17612.00
370.9400, 17076.00
372.1400, 17033.00
373.3390, 16602.00
374.5380, 16207.00
375.7370, 15722.00
376.9360, 15683.00
378.1350, 15605.00
379.3330, 15487.00
380.5310, 15702.00
381.7300, 15834.00
382.9280, 16099.00
384.1260, 16343.00
385.3230, 16733.00
386.5210, 17428.00
387.7180, 18034.00
388.9160, 18542.00
390.1130, 19255.00
391.3100, 19969.00
392.5060, 20578.00
393.7030, 21001.00
394.9000, 21352.00
396.0960, 21387.00
397.2920, 21406.00
398.4880, 21313.00
399.6840, 20927.00
400.8800, 20413.00
402.0750, 19586.00
403.2710, 19062.00
404.4660, 18320.00
405.6610, 17822.00
406.8560, 17297.00
408.0510, 17159.00
409.2450, 17052.00
410.4400, 17176.00
411.6340, 17546.00
412.8280, 18124.00
414.0220, 18953.00
415.2160, 19729.00
416.4100, 21025.00
417.6030, 22898.00
418.7970, 24969.00
419.9900, 27642.00
421.1830, 30280.00
422.3760, 33015.00
423.5690, 36322.00
424.7610, 38859.00
425.9540, 40764.00
427.1460, 42015.00
428.3380, 42373.00
429.5300, 42071.00
430.7220, 41161.00
431.9140, 39629.00
433.1050, 38139.00
434.2970, 37082.00
435.4880, 36473.00
436.6790, 35087.00
437.8700, 34890.00
439.0610, 35789.00
440.2510, 36682.00
441.4420, 38704.00
442.6320, 41461.00
443.8220, 44944.00
445.0120, 47334.00
446.2020, 49871.00
447.3910, 52722.00
448.5810, 55494.00
449.7700, 57180.00
450.9600, 58778.00
452.1490, 59078.00
453.3370, 58612.00
454.5260, 57429.00
455.7150, 55399.00
456.9030, 53073.00
458.0910, 49839.00
459.2800, 46937.00
460.4670, 44143.00
461.6550, 41512.00
462.8430, 39490.00
464.0300, 37758.00
465.2180, 36514.00
466.4050, 35492.00
467.5920, 35017.00
468.7790, 34852.00
469.9650, 34291.00
471.1520, 33950.00
472.3380, 33807.00
473.5250, 33631.00
474.7110, 33061.00
475.8970, 32907.00
477.0820, 32390.00
478.2680, 32123.00
479.4540, 31625.00
480.6390, 31269.00
481.8240, 31238.00
483.0090, 30739.00
484.1940, 30180.00
485.3780, 29715.00
486.5630, 29095.00
487.7470, 28083.00
488.9320, 27466.00
490.1160, 26892.00
491.3000, 25977.00
492.4830, 25440.00
493.6670, 24621.00
494.8500, 23980.00
496.0340, 23809.00
497.2170, 23064.00
498.4000, 22913.00
499.5820, 22747.00
500.7650, 22777.00
501.9480, 22820.00
503.1300, 22796.00
504.3120, 23134.00
505.4940, 23447.00
506.6760, 24006.00
507.8580, 24326.00
509.0390, 25096.00
510.2210, 25544.00
511.4020, 26102.00
512.5830, 26751.00
513.7640, 27295.00
514.9450, 27730.00
516.1250, 27993.00
517.3060, 28440.00
518.4860, 28531.00
519.6660, 28910.00
520.8460, 28789.00
522.0260, 28979.00
523.2060, 28923.00
524.3850, 29159.00
525.5650, 29412.00
526.7440, 29744.00
527.9230, 29372.00
529.1020, 28839.00
530.2810, 27885.00
531.4590, 26686.00
532.6380, 25501.00
533.8160, 23988.00
534.9940, 22409.00
536.1720, 21147.00
537.3500, 20066.00
538.5270, 19224.00
539.7050, 18605.00
540.8820, 18360.00
542.0590, 18054.00
543.2360, 17836.00
544.4130, 17778.00
545.5900, 17823.00
546.7660, 17867.48
547.9430, 18149.00
549.1190, 18275.00
550.2950, 18546.00
551.4710, 18995.00
552.6470, 19184.00
553.8220, 19883.00
554.9980, 20372.00
556.1730, 20920.00
557.3480, 21652.00
558.5230, 22663.00
559.6980, 23714.00
560.8730, 25419.00
562.0470, 27724.00
563.2220, 30310.00
564.3960, 33780.00
565.5700, 37372.00
566.7440, 42009.00
567.9170, 46883.00
569.0910, 50999.00
570.2640, 53446.00
571.4380, 53408.00
572.6110, 51237.00
573.7840, 47942.00
574.9570, 43692.00
576.1290, 38303.00
577.3020, 32894.00
578.4740, 28452.00
579.6460, 24558.00
580.8180, 22079.00
581.9900, 20421.00
583.1620, 19211.00
584.3330, 18759.00
585.5040, 18154.00
586.6760, 18250.00
587.8470, 18146.00
589.0180, 18453.00
590.1880, 18955.00
591.3590, 19337.00
592.5290, 20009.00
593.7000, 20834.00
594.8700, 21645.00
596.0400, 22800.00
597.2090, 24134.00
598.3790, 25361.00
599.5490, 26777.00
600.7180, 28411.00
601.8870, 29892.00
603.0560, 31068.00
604.2250, 31994.00
605.3940, 32270.00
606.5620, 32142.00
607.7300, 31245.00
608.8990, 29965.00
610.0670, 28331.00
611.2350, 26313.00
612.4020, 24597.00
613.5700, 22810.00
614.7370, 21379.00
615.9050, 20057.00
617.0720, 18873.00
618.2390, 18016.00
619.4060, 17236.00
620.5720, 16511.00
621.7390, 16110.00
622.9050, 15453.00
624.0710, 15232.00
625.2370, 14890.00
626.4030, 14476.00
627.5690, 14183.00
628.7340, 14038.00
629.9000, 13618.00
631.0650, 13470.00
632.2300, 13246.00
633.3950, 12988.00
634.5600, 12854.00
635.7240, 12661.00
636.8890, 12452.00
638.0530, 12277.00
639.2170, 12134.00
640.3810, 12018.00
641.5450, 11925.37
642.7080, 11849.00
643.8720, 11829.00
645.0350, 11842.00
646.1980, 11875.00
647.3610, 11965.40
648.5240, 12070.00
649.6870, 12248.00
650.8490, 12455.00
652.0120, 12701.00
653.1740, 12996.00
654.3360, 13345.00
655.4980, 13606.00
656.6600, 13805.00
657.8210, 14022.00
658.9830, 14228.00
660.1440, 14369.00
661.3050, 14677.00
662.4660, 14614.00
663.6270, 14750.00
664.7870, 14667.00
665.9480, 14739.00
667.1080, 14810.00
668.2680, 14744.00
669.4280, 14500.00
670.5880, 14372.00
671.7480, 14287.00
672.9070, 14064.00
674.0670, 13951.00
675.2260, 14067.00
676.3850, 14103.00
677.5440, 14139.00
678.7030, 14308.00
679.8610, 14447.00
681.0200, 14523.00
682.1780, 14761.00
683.3360, 14914.00
684.4940, 15194.00
685.6520, 15164.00
686.8090, 15313.00
687.9670, 15382.00
689.1240, 15358.00
690.2810, 15356.00
691.4380, 15303.00
692.5950, 15295.00
693.7520, 15143.00
694.9080, 15137.93
696.0650, 15152.00
697.2210, 14986.00
698.3770, 14875.00
699.5330, 14652.00
700.6880, 14303.00
701.8440, 14015.00
702.9990, 13778.00
704.1550, 13348.00
705.3100, 13042.00
706.4650, 12615.00
707.6190, 12350.00
708.7740, 11933.00
709.9290, 11654.00
711.0830, 11425.00
712.2370, 11116.00
713.3910, 10885.00
714.5450, 10654.00
715.6980, 10659.00
716.8520, 10575.00
718.0050, 10392.00
719.1580, 10392.00
720.3110, 10169.00
721.4640, 10261.00
722.6170, 10184.00
723.7700, 10126.00
724.9220, 10068.00
726.0740, 10055.00
727.2260, 9997.365
728.3780, 9997.000
729.5300, 9940.000
730.6810, 9961.000
731.8330, 9990.000
732.9840, 9999.000
734.1350, 9918.000
735.2860, 10049.00
736.4370, 9980.000
737.5880, 9963.000
738.7380, 9845.000
739.8880, 9844.000
741.0390, 9723.000
742.1890, 9805.000
743.3380, 9739.000
744.4880, 9641.000
745.6380, 9645.000
746.7870, 9752.000
747.9360, 9707.000
749.0850, 9857.000
750.2340, 9665.000
751.3830, 9557.000
752.5310, 9625.000
753.6800, 9639.000
754.8280, 9658.000
755.9760, 9610.000
757.1240, 9589.000
758.2720, 9627.000
759.4190, 9649.000
760.5670, 9748.000
761.7140, 9740.823
762.8610, 9778.000
764.0080, 9780.000
765.1550, 9747.000
766.3020, 9794.000
767.4480, 9759.000
768.5950, 9719.000
769.7410, 9769.000
770.8870, 9766.105
772.0330, 9874.000
773.1780, 9849.000
774.3240, 9862.000
775.4690, 9936.000
776.6140, 9876.000
777.7590, 9918.000
778.9040, 9911.000
780.0490, 9906.000
781.1940, 9928.046
782.3380, 9963.000
783.4820, 9959.000
784.6260, 9953.000
785.7700, 9990.000
786.9140, 10118.00
788.0580, 10010.00
789.2010, 10093.00
790.3450, 10041.00
791.4880, 10175.00
792.6310, 10039.00
793.7730, 10137.00
794.9160, 10264.00
796.0590, 10198.00
797.2010, 10274.00
798.3430, 10343.00
799.4850, 10482.00
800.6270, 10477.00
801.7690, 10343.00
802.9100, 10452.00
804.0520, 10517.00
805.1930, 10822.00
806.3340, 10634.00
807.4750, 10806.00
808.6160, 10810.00
809.7560, 10896.00
810.8970, 11041.00
812.0370, 11177.00
813.1770, 11324.00
814.3170, 11375.00
815.4570, 11614.00
816.5960, 11730.00
817.7360, 11941.00
818.8750, 12177.00
820.0140, 12341.00
821.1530, 12707.00
822.2920, 12905.00
823.4310, 13368.00
824.5690, 13703.00
825.7070, 14077.98
826.8460, 14601.00
827.9840, 14936.00
829.1220, 15381.00
830.2590, 15680.61
831.3970, 15797.00
832.5340, 16102.00
833.6710, 16208.00
834.8080, 16137.00
835.9450, 16108.00
837.0820, 16056.00
838.2190, 15924.00
839.3550, 15704.00
840.4910, 15524.00
841.6270, 15394.00
842.7630, 15452.00
843.8990, 15406.00
845.0350, 15420.00
846.1700, 15362.00
847.3060, 15512.00
848.4410, 15457.00
849.5760, 15817.00
850.7100, 15942.00
851.8450, 16152.00
852.9800, 16295.00
854.1140, 16645.00
855.2480, 16868.40
856.3820, 17212.00
857.5160, 17515.00
858.6500, 17908.00
859.7830, 18392.00
860.9170, 18576.00
862.0500, 18998.00
863.1830, 19522.00
864.3160, 19844.00
865.4480, 20313.00
866.5810, 20807.00
867.7130, 21385.69
868.8460, 22282.00
869.9780, 22828.00
871.1100, 23712.00
872.2410, 24754.00
873.3730, 25487.00
874.5050, 26588.00
875.6360, 27316.00
876.7670, 28170.00
877.8980, 28731.00
879.0290, 29400.00
880.1590, 29397.00
881.2900, 29155.00
882.4200, 28818.00
883.5500, 28260.00
884.6800, 27282.00
885.8100, 26134.00
886.9400, 25232.00
888.0690, 24250.00
889.1990, 23315.00
890.3280, 22736.00
891.4570, 22253.00
892.5860, 21675.00
893.7140, 21754.00
894.8430, 21501.00
895.9710, 21520.00
897.1000, 21707.00
898.2280, 22187.00
899.3560, 22766.00
900.4830, 23342.00
901.6110, 24067.00
902.7380, 24900.00
903.8660, 25852.00
904.9930, 27002.00
906.1200, 28223.00
907.2460, 29791.00
908.3730, 30881.00
909.5000, 32641.00
910.6260, 33983.00
911.7520, 34816.00
912.8780, 36002.00
914.0040, 36690.00
915.1290, 37199.00
916.2550, 37415.00
917.3800, 37441.00
918.5050, 37399.00
919.6300, 37074.00
920.7550, 36717.00
921.8800, 35818.00
923.0040, 35167.00
924.1290, 34386.00
925.2530, 33786.00
926.3770, 33048.00
927.5010, 32456.00
928.6250, 32014.00
929.7480, 31247.00
930.8720, 30881.00
931.9950, 30166.00
933.1180, 29617.00
934.2410, 29078.00
935.3640, 28522.00
936.4860, 27888.00
937.6090, 27535.00
938.7310, 26889.00
939.8530, 26469.00
940.9750, 25581.00
942.0970, 25147.00
943.2180, 24215.00
944.3400, 23621.00
945.4610, 23171.00
946.5820, 22579.00
947.7030, 21911.00
948.8240, 21722.00
949.9450, 21149.00
951.0650, 20672.00
952.1860, 20803.00
953.3060, 20597.00
954.4260, 20724.00
955.5460, 20769.00
956.6650, 20834.00
957.7850, 20977.00
958.9040, 20999.00
960.0230, 21294.00
961.1420, 21413.00
962.2610, 21455.00
963.3800, 21454.00
964.4990, 21255.00
965.6170, 20912.00
966.7350, 20596.00
967.8530, 20512.00
968.9710, 20056.00
970.0890, 19885.00
971.2070, 19626.00
972.3240, 19671.00
973.4410, 20005.00
974.5580, 20375.00
975.6750, 20803.00
976.7920, 21516.00
977.9090, 22586.00
979.0250, 23605.00
980.1410, 25056.00
981.2580, 26296.00
982.3740, 27709.00
983.4890, 28797.00
984.6050, 29462.00
985.7200, 29298.00
986.8360, 28670.00
987.9510, 27904.00
989.0660, 26554.00
990.1810, 25367.00
991.2950, 23674.00
992.4100, 21999.00
993.5240, 20678.00
994.6390, 19470.00
995.7530, 18685.00
996.8660, 17792.00
997.9800, 17128.00
999.0940, 16431.00
1000.207, 16006.00
1001.320, 15709.00
1002.433, 15205.59
1003.546, 14996.00
1004.659, 14440.00
1005.772, 14206.00
1006.884, 13803.00
1007.996, 13715.00
1009.108, 13435.00
1010.220, 13272.00
1011.332, 13091.00
1012.444, 13033.00
1013.555, 13051.00
1014.666, 13012.00
1015.777, 13041.00
1016.888, 13034.00
1017.999, 13053.00
1019.110, 13094.93
1020.220, 13146.58
1021.331, 13196.00
1022.441, 13289.00
1023.551, 13364.00
1024.661, 13428.00
1025.770, 13442.00
1026.880, 13582.00
1027.989, 13770.00
1029.098, 13991.00
1030.207, 14184.00
1031.316, 14434.00
1032.425, 14639.00
1033.533, 15040.00
1034.642, 15190.00
1035.750, 15468.00
1036.858, 16003.00
1037.966, 16533.00
1039.073, 16853.00
1040.181, 17432.00
1041.288, 17753.00
1042.396, 18453.00
1043.503, 18656.00
1044.610, 19166.00
1045.716, 19640.00
1046.823, 19618.00
1047.929, 19881.00
1049.036, 19876.00
1050.142, 19829.00
1051.248, 19624.00
1052.353, 19350.00
1053.459, 19172.00
1054.564, 18895.00
1055.670, 18645.35
1056.775, 18417.95
1057.880, 18128.00
1058.985, 17967.00
1060.089, 17737.00
1061.194, 17592.00
1062.298, 17540.00
1063.402, 17686.00
1064.506, 17605.00
1065.610, 17800.00
1066.713, 18097.00
1067.817, 18291.00
1068.920, 18794.00
1070.023, 19108.00
1071.126, 19687.00
1072.229, 20365.00
1073.332, 21230.00
1074.435, 21970.00
1075.537, 23018.00
1076.639, 24036.00
1077.741, 25283.00
1078.843, 26412.00
1079.945, 27690.00
1081.046, 29338.00
1082.148, 30743.00
1083.249, 32469.00
1084.350, 34720.00
1085.451, 37256.00
1086.551, 40076.00
1087.652, 43324.00
1088.752, 47083.00
1089.853, 50698.00
1090.953, 53407.00
1092.053, 56259.00
1093.152, 57425.00
1094.252, 56805.00
1095.351, 54668.00
1096.451, 50535.00
1097.550, 45857.00
1098.649, 40793.00
1099.748, 35607.00
1100.846, 31145.00
1101.945, 27495.00
1103.043, 24408.00
1104.141, 22393.00
1105.239, 20256.00
1106.337, 18808.00
1107.434, 17816.00
1108.532, 16833.00
1109.629, 16428.00
1110.726, 15797.00
1111.823, 15209.00
1112.920, 15020.00
1114.017, 14617.00
1115.113, 14434.00
1116.210, 14334.00
1117.306, 14054.00
1118.402, 13965.00
1119.498, 13661.00
1120.593, 13616.00
1121.689, 13671.00
1122.784, 13451.00
1123.879, 13404.00
1124.974, 13371.00
1126.069, 13201.00
1127.164, 13127.00
1128.259, 13048.00
1129.353, 13029.00
1130.447, 13166.00
1131.541, 13013.00
1132.635, 13014.00
1133.729, 12903.00
1134.822, 13018.00
1135.916, 12898.00
1137.009, 12855.00
1138.102, 12668.00
1139.195, 12742.00
1140.288, 12544.00
1141.380, 12749.00
1142.473, 12701.00
1143.565, 12713.00
1144.657, 12784.00
1145.749, 12559.00
1146.841, 12608.00
1147.932, 12494.00
1149.024, 12625.00
1150.115, 12544.00
1151.206, 12504.00
1152.297, 12496.00
1153.388, 12470.00
1154.479, 12360.00
1155.569, 12422.00
1156.659, 12243.00
1157.750, 12277.00
1158.839, 12246.00
1159.929, 12114.00
1161.019, 12249.00
1162.108, 12135.00
1163.198, 12197.00
1164.287, 12131.00
1165.376, 12069.00
1166.465, 12214.00
1167.553, 12181.00
1168.642, 12180.00
1169.730, 12133.00
1170.818, 11968.00
1171.906, 12110.00
1172.994, 12080.00
1174.082, 11960.00
1175.170, 12042.00
1176.257, 12016.00
1177.344, 12132.00
1178.431, 12110.00
1179.518, 12047.00
1180.605, 12017.00
1181.691, 11973.00
1182.778, 11924.00
1183.864, 12038.00
1184.950, 11985.67
1186.036, 11805.00
1187.122, 12030.00
1188.207, 11908.00
1189.292, 11989.00
1190.378, 11905.00
1191.463, 11989.00
1192.548, 11832.00
1193.632, 11979.00
1194.717, 11862.00
1195.801, 11793.00
1196.886, 11876.00
1197.970, 11996.00
1199.054, 11939.57
1200.137, 11989.00
1201.221, 11881.00
1202.305, 12003.00
1203.388, 11901.00
1204.471, 11971.00
1205.554, 11925.00
1206.637, 11954.00
1207.719, 11896.00
1208.802, 11882.00
1209.884, 11852.00
1210.966, 12005.00
1212.048, 11878.00
1213.130, 11950.00
1214.212, 11837.00
1215.293, 11999.00
1216.374, 11886.00
1217.456, 12065.00
1218.536, 11980.00
1219.617, 12038.00
1220.698, 11924.00
1221.778, 11889.00
1222.859, 11861.00
1223.939, 11956.00
1225.019, 11892.00
1226.099, 12024.00
1227.178, 11855.00
1228.258, 11995.00
1229.337, 12010.00
1230.417, 12120.00
1231.496, 11891.00
1232.574, 11992.00
1233.653, 12056.00
1234.732, 11840.00
1235.810, 12031.00
1236.888, 12017.00
1237.966, 12045.00
1239.044, 11879.00
1240.122, 12061.00
1241.199, 11943.00
1242.277, 11928.00
1243.354, 11824.00
1244.431, 11906.00
1245.508, 11944.00
1246.585, 11996.00
1247.661, 12034.00
1248.738, 12091.00
1249.814, 12099.49
1250.890, 12132.21
1251.966, 12088.00
1253.042, 12136.00
1254.117, 12078.58
1255.193, 12005.00
1256.268, 11906.00
1257.343, 12006.00
1258.418, 11859.00
1259.493, 12079.00
1260.567, 12023.00
1261.642, 12159.00
1262.716, 12089.00
1263.790, 12208.00
1264.864, 12266.00
1265.938, 12180.00
1267.011, 12037.00
1268.085, 12203.00
1269.158, 12161.00
1270.231, 12084.00
1271.304, 12241.00
1272.377, 12133.00
1273.450, 12222.00
1274.522, 12145.00
1275.594, 12299.00
1276.666, 12149.00
1277.738, 12240.00
1278.810, 12160.00
1279.882, 12126.00
1280.953, 12295.00
1282.025, 12220.00
1283.096, 12104.00
1284.167, 12270.00
1285.238, 12078.00
1286.308, 12024.00
1287.379, 12145.00
1288.449, 12128.00
1289.519, 12079.00
1290.589, 12191.00
1291.659, 12200.00
1292.729, 12112.00
1293.798, 12048.00
1294.868, 12222.00
1295.937, 12014.00
1297.006, 12144.00
1298.075, 12279.00
1299.143, 12159.00
1300.212, 12052.00
1301.280, 12056.00
1302.348, 12229.00
1303.416, 12320.00
1304.484, 12232.00
1305.552, 12233.00
1306.620, 12275.00
1307.687, 12333.00
1308.754, 12301.00
1309.821, 12413.00
1310.888, 12298.00
1311.955, 12347.00
1313.021, 12310.00
1314.088, 12328.00
1315.154, 12382.00
1316.220, 12340.00
1317.286, 12379.00
1318.352, 12452.00
1319.417, 12299.00
1320.483, 12268.00
1321.548, 12360.00
1322.613, 12448.00
1323.678, 12321.00
1324.743, 12443.00
1325.807, 12430.00
1326.872, 12452.00
1327.936, 12451.00
1329.000, 12458.00
1330.064, 12460.43
1331.128, 12316.00
1332.191, 12457.00
1333.255, 12351.00
1334.318, 12341.00
1335.381, 12369.00
1336.444, 12372.00
1337.507, 12336.00
1338.569, 12430.00
1339.632, 12474.00
1340.694, 12459.05
1341.756, 12387.00
1342.818, 12439.00
1343.880, 12414.00
1344.941, 12376.00
1346.003, 12377.00
1347.064, 12391.00
1348.125, 12454.00
1349.186, 12483.00
1350.247, 12515.00
1351.308, 12490.00
1352.368, 12568.00
1353.428, 12565.00
1354.489, 12474.00
1355.549, 12586.00
1356.608, 12496.00
1357.668, 12647.00
1358.727, 12696.00
1359.787, 12503.00
1360.846, 12646.00
1361.905, 12623.00
1362.964, 12664.00
1364.022, 12734.00
1365.081, 12678.00
1366.139, 12477.00
1367.197, 12519.00
1368.255, 12598.00
1369.313, 12717.00
1370.371, 12708.00
1371.428, 12758.85
1372.486, 12797.00
1373.543, 12754.00
1374.600, 12749.00
1375.657, 12700.00
1376.713, 12759.00
1377.770, 12807.00
1378.826, 12748.00
1379.882, 12737.00
1380.938, 12622.00
1381.994, 12701.00
1383.050, 12691.00
1384.106, 12679.00
1385.161, 12769.00
1386.216, 12669.00
1387.271, 12734.00
1388.326, 12624.00
1389.381, 12791.00
1390.435, 12680.00
1391.490, 12717.00
1392.544, 12677.00
1393.598, 12693.00
1394.652, 12701.00
1395.705, 12604.00
1396.759, 12627.00
1397.812, 12637.00
1398.866, 12703.00
1399.919, 12793.00
1400.972, 12679.00
1402.024, 12778.00
1403.077, 12705.00
1404.129, 12802.00
1405.181, 12888.00
1406.233, 12843.00
1407.285, 12823.00
1408.337, 12753.00
1409.389, 12808.00
1410.440, 12825.00
1411.491, 12839.00
1412.542, 12709.00
1413.593, 12775.00
1414.644, 12701.00
1415.695, 12676.00
1416.745, 12821.00
1417.795, 12631.00
1418.845, 12910.00
1419.895, 12743.00
1420.945, 13002.00
1421.995, 12841.00
1423.044, 12778.00
1424.093, 12887.00
1425.142, 12729.00
1426.191, 12860.00
1427.240, 12837.00
1428.289, 12881.00
1429.337, 12837.00
1430.385, 12807.00
1431.433, 12746.00
1432.481, 12828.00
1433.529, 12912.00
1434.577, 12846.00
1435.624, 12967.00
1436.672, 12866.00
1437.719, 12922.00
1438.766, 13145.00
1439.812, 13032.00
1440.859, 13035.00
1441.905, 13194.00
1442.952, 13256.00
1443.998, 13119.00
1445.044, 13256.00
1446.090, 13281.00
1447.135, 13322.00
1448.181, 13301.00
1449.226, 13351.87
1450.271, 13386.00
1451.316, 13413.00
1452.361, 13357.00
1453.405, 13363.00
1454.450, 13288.00
1455.494, 13376.00
1456.538, 13348.00
1457.582, 13533.00
1458.626, 13392.00
1459.670, 13220.00
1460.713, 13385.00
1461.757, 13268.00
1462.800, 13288.00
1463.843, 13344.00
1464.886, 13185.00
1465.928, 13279.00
1466.971, 13271.00
1468.013, 13260.00
1469.055, 13144.00
1470.097, 13246.00
1471.139, 13131.00
1472.181, 13191.00
1473.222, 13163.00
1474.263, 13142.00
1475.305, 13050.00
1476.346, 13032.00
1477.386, 13066.00
1478.427, 13042.99
1479.468, 13047.34
1480.508, 13091.00
1481.548, 13052.00
1482.588, 13087.00
1483.628, 13116.00
1484.668, 13182.00
1485.707, 13149.00
1486.747, 13219.00
1487.786, 13127.00
1488.825, 13097.00
1489.864, 13081.00
1490.902, 13056.00
1491.941, 12960.00
1492.979, 13119.00
1494.017, 13021.00
1495.055, 13132.00
1496.093, 13127.00
1497.131, 13103.00
1498.168, 13046.00
1499.206, 13019.00
1500.243, 13016.00
1501.280, 13081.00
1502.317, 13142.00
1503.354, 13196.60
1504.390, 13177.00
1505.426, 13336.00
1506.463, 13171.00
1507.499, 13200.00
1508.535, 13146.00
1509.570, 13225.00
1510.606, 13216.00
1511.641, 13282.00
1512.676, 13211.00
1513.711, 13094.00
1514.746, 13207.00
1515.781, 12973.00
1516.816, 13280.00
1517.850, 13243.00
1518.884, 13218.00
1519.918, 13233.00
1520.952, 13227.40
1521.986, 13234.46
1523.019, 13268.00
1524.053, 13258.00
1525.086, 13296.00
1526.119, 13310.00
1527.152, 13300.00
1528.185, 13329.51
1529.217, 13376.00
1530.250, 13355.00
1531.282, 13336.00
1532.314, 13338.00
1533.346, 13476.00
1534.377, 13292.00
1535.409, 13351.00
1536.440, 13539.00
1537.472, 13378.00
1538.503, 13535.00
1539.534, 13385.00
1540.564, 13348.00
1541.595, 13454.00
1542.625, 13473.00
1543.656, 13390.00
1544.686, 13509.00
1545.716, 13503.00
1546.745, 13490.00
1547.775, 13441.00
1548.804, 13337.00
1549.834, 13376.00
1550.863, 13406.00
1551.892, 13478.00
1552.920, 13328.00
1553.949, 13486.00
1554.977, 13743.00
1556.006, 13753.00
1557.034, 13343.00
1558.062, 13515.00
1559.089, 13229.00
1560.117, 13449.00
1561.144, 13489.00
1562.172, 13368.00
1563.199, 13565.00
1564.226, 13549.00
1565.252, 13575.00
1566.279, 13484.00
1567.305, 13646.00
1568.332, 13532.00
1569.358, 13575.00
1570.384, 13567.00
1571.409, 13578.00
1572.435, 13582.00
##END=



