##NAMES=Columbite-(Fe)
##RRUFFID=R050348
##IDEAL CHEMISTRY=Fe^2+^Nb^5+^_2_O_6_
##LOCALITY=Lord Hill mine, Stoneham, Oxford County, Maine, USA
##OWNER=RRUFF
##SOURCE=California Institute of Technology
##DESCRIPTION=Black fragment
##STATUS=The identification of this mineral has been confirmed by X-ray diffraction and chemical analysis
##URL=rruff.info/R050348
##MEASURED CHEMISTRY=(Fe^2+^_0.69_Mn^2+^_0.30_Ti_0.01_)(Nb_0.89_Ta_0.10_Ti_0.01_)_2_O_6_
##PIN_ID=L00573
##ORIENTATION=Laser parallel to -c* (0 0 -1). Fiducial mark perpendicular to laser is parallel to -a [-1 0 0]
221.0220, 10257.00
222.2400, 10285.00
223.4590, 10203.00
224.6770, 10238.00
225.8950, 10193.00
227.1120, 10234.27
228.3300, 10406.00
229.5480, 10342.00
230.7650, 10427.00
231.9820, 10494.00
233.1990, 10395.00
234.4160, 10630.00
235.6330, 10564.00
236.8490, 10438.00
238.0660, 10632.00
239.2820, 10725.00
240.4980, 10680.00
241.7140, 10771.00
242.9300, 10825.00
244.1460, 10865.00
245.3610, 10918.00
246.5770, 10843.00
247.7920, 11054.00
249.0070, 10804.00
250.2220, 10940.00
251.4370, 10835.32
252.6510, 10935.20
253.8660, 11000.38
255.0800, 11032.69
256.2940, 10933.79
257.5080, 11004.33
258.7220, 11006.97
259.9360, 11006.82
261.1490, 11101.19
262.3630, 11021.37
263.5760, 11114.25
264.7890, 11138.18
266.0020, 11193.66
267.2150, 11180.82
268.4270, 11189.06
269.6400, 11265.67
270.8520, 11288.10
272.0640, 11133.00
273.2760, 11332.00
274.4880, 11224.00
275.7000, 11144.00
276.9120, 11270.00
278.1230, 11153.00
279.3340, 11149.00
280.5450, 11104.00
281.7560, 11124.00
282.9670, 11117.00
284.1780, 11052.00
285.3880, 11033.00
286.5980, 11058.00
287.8090, 11032.89
289.0190, 11003.00
290.2290, 11054.00
291.4380, 11034.00
292.6480, 11063.00
293.8570, 11084.00
295.0670, 11123.00
296.2760, 11187.00
297.4850, 11084.00
298.6930, 11307.00
299.9020, 11237.00
301.1110, 11345.00
302.3190, 11410.00
303.5270, 11302.00
304.7350, 11309.00
305.9430, 11246.00
307.1510, 11201.00
308.3580, 11256.00
309.5660, 11097.00
310.7730, 11200.00
311.9800, 11262.00
313.1870, 11212.00
314.3940, 11179.00
315.6010, 11183.00
316.8070, 11135.00
318.0130, 11324.00
319.2200, 11408.00
320.4260, 11373.00
321.6310, 11296.00
322.8370, 11359.00
324.0430, 11253.00
325.2480, 11353.00
326.4540, 11377.00
327.6590, 11399.00
328.8640, 11261.00
330.0680, 11264.00
331.2730, 11127.00
332.4780, 11309.00
333.6820, 11173.00
334.8860, 11250.00
336.0900, 11280.00
337.2940, 11293.00
338.4980, 11291.00
339.7010, 11356.00
340.9050, 11288.00
342.1080, 11346.00
343.3110, 11408.00
344.5140, 11402.00
345.7170, 11433.00
346.9200, 11377.00
348.1220, 11323.00
349.3240, 11353.00
350.5270, 11311.00
351.7290, 11403.00
352.9310, 11553.00
354.1320, 11393.00
355.3340, 11544.00
356.5350, 11450.00
357.7370, 11452.00
358.9380, 11378.00
360.1390, 11617.00
361.3400, 11596.00
362.5400, 11695.00
363.7410, 11592.00
364.9410, 11719.00
366.1410, 11788.00
367.3410, 11682.00
368.5410, 11755.00
369.7410, 11804.00
370.9400, 11866.00
372.1400, 11996.00
373.3390, 11867.00
374.5380, 12115.00
375.7370, 12061.44
376.9360, 12000.00
378.1350, 12134.00
379.3330, 12293.00
380.5310, 12458.00
381.7300, 12573.26
382.9280, 12389.00
384.1260, 12719.00
385.3230, 12747.00
386.5210, 12609.00
387.7180, 12834.00
388.9160, 12906.00
390.1130, 13068.00
391.3100, 12963.00
392.5060, 12886.00
393.7030, 13009.00
394.9000, 13038.00
396.0960, 12913.00
397.2920, 12959.00
398.4880, 13089.00
399.6840, 13002.00
400.8800, 12852.00
402.0750, 12738.00
403.2710, 12929.00
404.4660, 12786.00
405.6610, 12723.00
406.8560, 12600.00
408.0510, 12587.00
409.2450, 12363.00
410.4400, 12436.00
411.6340, 12342.00
412.8280, 12203.00
414.0220, 12226.00
415.2160, 12352.00
416.4100, 12311.00
417.6030, 12250.00
418.7970, 12340.00
419.9900, 12280.00
421.1830, 12141.00
422.3760, 12141.00
423.5690, 12380.00
424.7610, 12191.00
425.9540, 12334.00
427.1460, 12285.00
428.3380, 12462.00
429.5300, 12386.00
430.7220, 12279.00
431.9140, 12311.00
433.1050, 12391.00
434.2970, 12353.00
435.4880, 12316.00
436.6790, 12352.00
437.8700, 12286.00
439.0610, 12366.00
440.2510, 12448.00
441.4420, 12351.00
442.6320, 12436.00
443.8220, 12362.00
445.0120, 12591.00
446.2020, 12459.00
447.3910, 12535.00
448.5810, 12365.00
449.7700, 12564.00
450.9600, 12422.00
452.1490, 12527.00
453.3370, 12675.00
454.5260, 12490.00
455.7150, 12669.00
456.9030, 12601.00
458.0910, 12599.00
459.2800, 12556.00
460.4670, 12568.00
461.6550, 12637.00
462.8430, 12719.00
464.0300, 12779.00
465.2180, 12750.00
466.4050, 12705.00
467.5920, 12858.00
468.7790, 12833.00
469.9650, 12876.00
471.1520, 12914.00
472.3380, 12838.00
473.5250, 12945.00
474.7110, 13021.00
475.8970, 12853.00
477.0820, 12907.00
478.2680, 12958.00
479.4540, 13036.00
480.6390, 13066.88
481.8240, 13248.00
483.0090, 13124.00
484.1940, 13161.00
485.3780, 13152.00
486.5630, 13032.00
487.7470, 13202.00
488.9320, 13164.00
490.1160, 13103.00
491.3000, 13155.00
492.4830, 13061.00
493.6670, 13296.00
494.8500, 13224.00
496.0340, 13243.00
497.2170, 13236.00
498.4000, 13245.12
499.5820, 13295.00
500.7650, 13315.00
501.9480, 13437.00
503.1300, 13507.00
504.3120, 13458.00
505.4940, 13537.00
506.6760, 13449.00
507.8580, 13608.00
509.0390, 13637.00
510.2210, 13712.00
511.4020, 13745.00
512.5830, 13642.00
513.7640, 13736.00
514.9450, 13851.00
516.1250, 13607.00
517.3060, 13875.00
518.4860, 13755.00
519.6660, 13855.00
520.8460, 13945.00
522.0260, 13941.00
523.2060, 14057.00
524.3850, 14073.00
525.5650, 14054.00
526.7440, 14107.00
527.9230, 13831.00
529.1020, 14273.00
530.2810, 13929.00
531.4590, 14075.00
532.6380, 13943.00
533.8160, 13930.00
534.9940, 13986.00
536.1720, 13942.00
537.3500, 13948.00
538.5270, 13789.00
539.7050, 13803.00
540.8820, 13799.00
542.0590, 13733.00
543.2360, 13759.00
544.4130, 13635.00
545.5900, 13697.00
546.7660, 13636.00
547.9430, 13754.00
549.1190, 13689.00
550.2950, 13783.00
551.4710, 13783.00
552.6470, 13764.00
553.8220, 13724.00
554.9980, 13705.00
556.1730, 13747.00
557.3480, 13728.00
558.5230, 13814.00
559.6980, 13836.00
560.8730, 13759.00
562.0470, 13702.00
563.2220, 13826.00
564.3960, 13823.00
565.5700, 13841.00
566.7440, 13777.00
567.9170, 13998.00
569.0910, 13791.00
570.2640, 13760.00
571.4380, 13858.00
572.6110, 13693.00
573.7840, 13851.00
574.9570, 13879.00
576.1290, 13896.00
577.3020, 13848.00
578.4740, 13905.00
579.6460, 13756.00
580.8180, 13730.00
581.9900, 13746.00
583.1620, 13892.00
584.3330, 13812.00
585.5040, 13864.00
586.6760, 13842.00
587.8470, 13820.00
589.0180, 13802.00
590.1880, 13866.00
591.3590, 13887.00
592.5290, 13941.00
593.7000, 13900.00
594.8700, 13864.00
596.0400, 13914.00
597.2090, 14035.00
598.3790, 13889.00
599.5490, 14077.00
600.7180, 14099.00
601.8870, 14109.00
603.0560, 14276.00
604.2250, 14029.00
605.3940, 14413.00
606.5620, 14167.00
607.7300, 14360.00
608.8990, 14221.00
610.0670, 14336.00
611.2350, 14411.00
612.4020, 14427.00
613.5700, 14540.04
614.7370, 14574.71
615.9050, 14653.00
617.0720, 14698.00
618.2390, 14639.00
619.4060, 14727.00
620.5720, 14734.83
621.7390, 14842.00
622.9050, 14855.00
624.0710, 14925.00
625.2370, 15091.00
626.4030, 15056.00
627.5690, 15142.00
628.7340, 15152.00
629.9000, 15253.00
631.0650, 15295.00
632.2300, 15358.00
633.3950, 15323.00
634.5600, 15430.00
635.7240, 15325.00
636.8890, 15373.71
638.0530, 15381.00
639.2170, 15359.00
640.3810, 15389.00
641.5450, 15308.00
642.7080, 15405.00
643.8720, 15255.00
645.0350, 15209.00
646.1980, 15090.00
647.3610, 15229.00
648.5240, 15044.00
649.6870, 15176.00
650.8490, 15081.00
652.0120, 15052.00
653.1740, 15002.00
654.3360, 15152.00
655.4980, 15107.00
656.6600, 15119.00
657.8210, 15049.00
658.9830, 15069.83
660.1440, 14912.00
661.3050, 15035.00
662.4660, 15051.00
663.6270, 14914.00
664.7870, 14958.00
665.9480, 14933.00
667.1080, 14923.00
668.2680, 14965.00
669.4280, 15069.00
670.5880, 15081.00
671.7480, 15054.74
672.9070, 14924.00
674.0670, 14971.00
675.2260, 14854.00
676.3850, 14868.00
677.5440, 14941.00
678.7030, 14849.00
679.8610, 14868.00
681.0200, 14992.00
682.1780, 15064.00
683.3360, 15052.00
684.4940, 15179.00
685.6520, 15006.00
686.8090, 15036.00
687.9670, 15102.00
689.1240, 14972.00
690.2810, 15061.00
691.4380, 15085.00
692.5950, 15237.00
693.7520, 15207.00
694.9080, 15226.00
696.0650, 15221.15
697.2210, 15235.00
698.3770, 15133.00
699.5330, 15143.00
700.6880, 15104.00
701.8440, 15140.00
702.9990, 15143.17
704.1550, 15100.00
705.3100, 15196.00
706.4650, 15238.00
707.6190, 15294.00
708.7740, 15226.00
709.9290, 15440.00
711.0830, 15470.00
712.2370, 15294.00
713.3910, 15355.00
714.5450, 15456.00
715.6980, 15318.00
716.8520, 15444.00
718.0050, 15474.00
719.1580, 15235.00
720.3110, 15406.00
721.4640, 15397.00
722.6170, 15298.00
723.7700, 15471.00
724.9220, 15482.00
726.0740, 15233.00
727.2260, 15493.00
728.3780, 15341.00
729.5300, 15556.00
730.6810, 15233.00
731.8330, 15363.00
732.9840, 15349.00
734.1350, 15372.00
735.2860, 15548.00
736.4370, 15683.00
737.5880, 15521.00
738.7380, 15529.00
739.8880, 15736.00
741.0390, 15418.00
742.1890, 15409.00
743.3380, 15402.00
744.4880, 15399.00
745.6380, 15418.00
746.7870, 15634.00
747.9360, 15670.00
749.0850, 15714.00
750.2340, 15652.00
751.3830, 15606.00
752.5310, 15544.00
753.6800, 15593.00
754.8280, 15631.00
755.9760, 15597.00
757.1240, 15513.00
758.2720, 15405.00
759.4190, 15787.00
760.5670, 15587.00
761.7140, 15672.00
762.8610, 15790.00
764.0080, 15705.00
765.1550, 15848.00
766.3020, 15644.00
767.4480, 15678.00
768.5950, 15662.00
769.7410, 15685.00
770.8870, 15742.00
772.0330, 15765.00
773.1780, 15772.00
774.3240, 15867.00
775.4690, 15860.00
776.6140, 15900.66
777.7590, 15827.00
778.9040, 15942.00
780.0490, 15855.00
781.1940, 15846.00
782.3380, 15969.00
783.4820, 15850.00
784.6260, 16071.00
785.7700, 16137.00
786.9140, 16020.00
788.0580, 16075.00
789.2010, 16056.00
790.3450, 16077.00
791.4880, 15961.00
792.6310, 15969.00
793.7730, 16141.00
794.9160, 16086.00
796.0590, 16195.00
797.2010, 16170.00
798.3430, 16206.00
799.4850, 16274.00
800.6270, 16271.60
801.7690, 16376.00
802.9100, 16341.00
804.0520, 16418.00
805.1930, 16499.00
806.3340, 16530.00
807.4750, 16568.00
808.6160, 16632.00
809.7560, 16693.00
810.8970, 16724.00
812.0370, 16758.00
813.1770, 16915.00
814.3170, 16856.00
815.4570, 16980.00
816.5960, 17290.00
817.7360, 17287.00
818.8750, 17404.46
820.0140, 17567.00
821.1530, 17478.00
822.2920, 17374.00
823.4310, 17388.00
824.5690, 17577.00
825.7070, 17580.00
826.8460, 17632.00
827.9840, 17718.00
829.1220, 17752.00
830.2590, 17771.00
831.3970, 17770.00
832.5340, 17850.00
833.6710, 17778.00
834.8080, 17826.00
835.9450, 17912.00
837.0820, 17883.00
838.2190, 18107.00
839.3550, 18064.00
840.4910, 18039.00
841.6270, 18250.00
842.7630, 18366.00
843.8990, 18542.00
845.0350, 18639.00
846.1700, 18896.00
847.3060, 18978.00
848.4410, 19061.00
849.5760, 19365.00
850.7100, 19474.00
851.8450, 19767.00
852.9800, 20056.00
854.1140, 20445.00
855.2480, 20675.00
856.3820, 21366.00
857.5160, 21761.00
858.6500, 22470.00
859.7830, 22739.00
860.9170, 23484.00
862.0500, 24285.00
863.1830, 25029.00
864.3160, 25967.48
865.4480, 26985.00
866.5810, 27910.00
867.7130, 28834.00
868.8460, 29879.00
869.9780, 30770.00
871.1100, 31442.00
872.2410, 31745.00
873.3730, 31668.00
874.5050, 31493.00
875.6360, 30659.00
876.7670, 29608.00
877.8980, 28549.00
879.0290, 26994.00
880.1590, 25542.00
881.2900, 24535.00
882.4200, 23657.00
883.5500, 22548.00
884.6800, 21535.00
885.8100, 21033.00
886.9400, 20418.00
888.0690, 19970.00
889.1990, 19256.00
890.3280, 19093.00
891.4570, 18631.00
892.5860, 18472.00
893.7140, 18153.00
894.8430, 18102.00
895.9710, 17862.00
897.1000, 17985.00
898.2280, 17641.00
899.3560, 17529.00
900.4830, 17632.00
901.6110, 17581.00
902.7380, 17445.00
903.8660, 17384.00
904.9930, 17266.00
906.1200, 17278.00
907.2460, 17252.00
908.3730, 17165.00
909.5000, 17192.00
910.6260, 17245.00
911.7520, 17077.00
912.8780, 17175.20
914.0040, 17148.00
915.1290, 17132.00
916.2550, 17187.00
917.3800, 17158.32
918.5050, 17088.00
919.6300, 17141.00
920.7550, 17065.00
921.8800, 17014.00
923.0040, 17028.00
924.1290, 17114.00
925.2530, 16884.00
926.3770, 17021.00
927.5010, 17052.00
928.6250, 16910.00
929.7480, 16881.00
930.8720, 16846.00
931.9950, 16904.00
933.1180, 16943.00
934.2410, 17131.00
935.3640, 16972.00
936.4860, 17109.00
937.6090, 17035.00
938.7310, 17360.00
939.8530, 17214.00
940.9750, 17245.00
942.0970, 17200.00
943.2180, 17119.00
944.3400, 17063.00
945.4610, 17260.00
946.5820, 17066.00
947.7030, 17405.00
948.8240, 17154.00
949.9450, 17212.00
951.0650, 17305.00
952.1860, 17285.25
953.3060, 17263.00
954.4260, 17435.00
955.5460, 17383.00
956.6650, 17397.00
957.7850, 17335.00
958.9040, 17331.00
960.0230, 17322.43
961.1420, 17371.00
962.2610, 17329.00
963.3800, 17387.00
964.4990, 17434.00
965.6170, 17347.00
966.7350, 17577.00
967.8530, 17592.00
968.9710, 17432.00
970.0890, 17371.00
971.2070, 17528.00
972.3240, 17463.00
973.4410, 17534.00
974.5580, 17628.20
975.6750, 17739.00
976.7920, 17689.00
977.9090, 17777.00
979.0250, 17549.00
980.1410, 17753.00
981.2580, 17701.00
982.3740, 17852.00
983.4890, 17879.00
984.6050, 17870.00
985.7200, 17949.00
986.8360, 17870.00
987.9510, 17897.00
989.0660, 17876.00
990.1810, 17753.00
991.2950, 17795.00
992.4100, 17841.00
993.5240, 17852.00
994.6390, 17602.00
995.7530, 17734.00
996.8660, 17795.00
997.9800, 17981.00
999.0940, 17927.00
1000.207, 17914.00
1001.320, 17767.00
1002.433, 17972.00
1003.546, 17967.00
1004.659, 18146.00
1005.772, 18020.00
1006.884, 18019.00
1007.996, 17787.00
1009.108, 18032.00
1010.220, 17982.00
1011.332, 17973.00
1012.444, 18085.00
1013.555, 18078.00
1014.666, 18106.00
1015.777, 18129.56
1016.888, 18106.00
1017.999, 18134.00
1019.110, 18068.00
1020.220, 18071.00
1021.331, 18218.00
1022.441, 18097.00
1023.551, 18011.00
1024.661, 18234.00
1025.770, 18130.00
1026.880, 18219.00
1027.989, 18393.00
1029.098, 18189.00
1030.207, 18315.00
1031.316, 18500.00
1032.425, 18225.00
1033.533, 18320.00
1034.642, 18402.00
1035.750, 18413.00
1036.858, 18422.56
1037.966, 18285.00
1039.073, 18366.00
1040.181, 18324.00
1041.288, 18303.00
1042.396, 18436.00
1043.503, 18445.00
1044.610, 18526.00
1045.716, 18468.00
1046.823, 18517.00
1047.929, 18458.00
1049.036, 18628.00
1050.142, 18508.00
1051.248, 18588.00
1052.353, 18538.00
1053.459, 18527.00
1054.564, 18560.37
1055.670, 18554.15
1056.775, 18581.00
1057.880, 18618.00
1058.985, 18531.07
1060.089, 18641.17
1061.194, 18716.59
1062.298, 18759.14
1063.402, 18670.47
1064.506, 18751.24
1065.610, 18764.11
1066.713, 18774.17
1067.817, 18878.79
1068.920, 18809.17
1070.023, 18912.27
1071.126, 18946.42
1072.229, 19012.12
1073.332, 19009.50
1074.435, 19027.99
1075.537, 19114.79
1076.639, 19163.75
1077.741, 19153.23
1078.843, 19220.91
1079.945, 19148.88
1081.046, 19199.43
1082.148, 19302.89
1083.249, 19295.79
1084.350, 19364.69
1085.451, 19404.64
1086.551, 19343.00
1087.652, 19073.00
1088.752, 19188.00
1089.853, 19009.00
1090.953, 19012.08
1092.053, 19274.00
1093.152, 19072.00
1094.252, 19151.00
1095.351, 19279.00
1096.451, 19211.00
1097.550, 19163.00
1098.649, 19345.00
1099.748, 19257.00
1100.846, 19308.00
1101.945, 19248.00
1103.043, 19234.00
1104.141, 19164.00
1105.239, 19204.00
1106.337, 19223.00
1107.434, 19235.43
1108.532, 19282.83
1109.629, 19313.00
1110.726, 19377.00
1111.823, 19422.00
1112.920, 19493.00
1114.017, 19355.00
1115.113, 19361.00
1116.210, 19502.00
1117.306, 19407.00
1118.402, 19541.00
1119.498, 19773.00
1120.593, 19736.00
1121.689, 19920.00
1122.784, 19884.00
1123.879, 19926.00
1124.974, 19716.00
1126.069, 19872.00
1127.164, 19839.00
1128.259, 19701.22
1129.353, 19695.00
1130.447, 19514.00
1131.541, 19607.00
1132.635, 19657.00
1133.729, 19605.00
1134.822, 19781.00
1135.916, 19619.00
1137.009, 19710.00
1138.102, 19734.00
1139.195, 19637.00
1140.288, 19677.00
1141.380, 19778.00
1142.473, 19641.00
1143.565, 19665.00
1144.657, 19735.00
1145.749, 19806.00
1146.841, 19621.00
1147.932, 19956.00
1149.024, 19776.00
1150.115, 19637.00
1151.206, 19885.00
1152.297, 19756.00
1153.388, 19736.00
1154.479, 19737.00
1155.569, 19996.00
1156.659, 19840.00
1157.750, 19947.00
1158.839, 19853.00
1159.929, 19813.00
1161.019, 19871.00
1162.108, 19979.00
1163.198, 19826.00
1164.287, 20151.00
1165.376, 20186.00
1166.465, 20169.00
1167.553, 20091.00
1168.642, 19935.00
1169.730, 20022.00
1170.818, 19889.00
1171.906, 20021.00
1172.994, 20115.00
1174.082, 20160.00
1175.170, 20139.00
1176.257, 20081.00
1177.344, 20092.00
1178.431, 20310.00
1179.518, 20244.00
1180.605, 20263.00
1181.691, 20088.00
1182.778, 20199.00
1183.864, 20293.00
1184.950, 20326.00
1186.036, 20078.00
1187.122, 20219.00
1188.207, 20174.00
1189.292, 20357.00
1190.378, 20539.00
1191.463, 20393.00
1192.548, 20501.00
1193.632, 20493.00
1194.717, 20389.00
1195.801, 20501.00
1196.886, 20442.00
1197.970, 20281.00
1199.054, 20450.00
1200.137, 20376.00
1201.221, 20441.00
1202.305, 20464.00
1203.388, 20584.00
1204.471, 20601.00
1205.554, 20636.00
1206.637, 20827.00
1207.719, 20487.00
1208.802, 20525.00
1209.884, 20590.00
1210.966, 20804.00
1212.048, 20623.00
1213.130, 20675.00
1214.212, 20712.00
1215.293, 20614.00
1216.374, 20836.00
1217.456, 20813.00
1218.536, 20777.00
1219.617, 20809.00
1220.698, 20815.00
1221.778, 20851.00
1222.859, 20895.00
1223.939, 20872.00
1225.019, 20748.00
1226.099, 20757.00
1227.178, 20757.00
1228.258, 20891.00
1229.337, 20952.00
1230.417, 20957.54
1231.496, 20956.00
1232.574, 20978.00
1233.653, 20934.00
1234.732, 20954.00
1235.810, 21009.00
1236.888, 20940.00
1237.966, 20951.00
1239.044, 21076.00
1240.122, 21231.00
1241.199, 20962.00
1242.277, 21209.00
1243.354, 21209.00
1244.431, 21242.00
1245.508, 21354.00
1246.585, 21141.00
1247.661, 21153.00
1248.738, 21274.00
1249.814, 21291.00
1250.890, 21116.00
1251.966, 21323.00
1253.042, 21536.00
1254.117, 21187.00
1255.193, 21187.00
1256.268, 21329.00
1257.343, 21391.00
1258.418, 21563.00
1259.493, 21578.00
1260.567, 21432.00
1261.642, 21491.00
1262.716, 21318.00
1263.790, 21689.00
1264.864, 21481.00
1265.938, 21696.00
1267.011, 21473.00
1268.085, 21612.00
1269.158, 21563.00
1270.231, 21508.00
1271.304, 21784.00
1272.377, 21524.00
1273.450, 21627.34
1274.522, 21520.00
1275.594, 21649.00
1276.666, 21629.00
1277.738, 21713.00
1278.810, 21779.00
1279.882, 21713.14
1280.953, 21459.00
1282.025, 21638.00
1283.096, 21631.00
1284.167, 21680.00
1285.238, 22012.00
1286.308, 21851.00
1287.379, 21998.00
1288.449, 21737.00
1289.519, 21895.00
1290.589, 22115.00
1291.659, 22033.00
1292.729, 21997.00
1293.798, 22120.00
1294.868, 22150.00
1295.937, 22160.75
1297.006, 22064.00
1298.075, 22182.00
1299.143, 22146.00
1300.212, 22133.00
1301.280, 22238.00
1302.348, 22147.00
1303.416, 22269.00
1304.484, 22126.00
1305.552, 22040.00
1306.620, 22230.00
1307.687, 22388.00
1308.754, 22225.00
1309.821, 22125.00
1310.888, 22468.00
1311.955, 22501.00
1313.021, 22366.00
1314.088, 22539.00
1315.154, 22437.00
1316.220, 22433.00
1317.286, 22402.00
1318.352, 22362.00
1319.417, 22469.00
1320.483, 22383.00
1321.548, 22482.00
1322.613, 22415.00
1323.678, 22510.00
1324.743, 22629.00
1325.807, 22543.00
1326.872, 22644.00
1327.936, 22693.00
1329.000, 22593.00
1330.064, 22775.00
1331.128, 22547.00
1332.191, 22746.00
1333.255, 22942.00
1334.318, 22606.00
1335.381, 22859.00
1336.444, 22641.00
1337.507, 22874.00
1338.569, 22839.00
1339.632, 22868.00
1340.694, 22996.00
1341.756, 22754.00
1342.818, 22909.00
1343.880, 22946.00
1344.941, 22657.00
1346.003, 22923.00
1347.064, 23031.00
1348.125, 22846.00
1349.186, 23002.00
1350.247, 22941.00
1351.308, 22905.00
1352.368, 22830.00
1353.428, 22910.22
1354.489, 23187.00
1355.549, 23018.00
1356.608, 23176.00
1357.668, 23086.00
1358.727, 22976.00
1359.787, 22967.00
1360.846, 22938.00
1361.905, 22907.00
1362.964, 23200.00
1364.022, 23306.00
1365.081, 23276.00
1366.139, 23359.00
1367.197, 23394.56
1368.255, 23194.00
1369.313, 23419.00
1370.371, 23166.00
1371.428, 23033.00
1372.486, 23352.00
1373.543, 23127.00
1374.600, 23151.00
1375.657, 23482.00
1376.713, 23366.00
1377.770, 23277.00
1378.826, 23248.00
1379.882, 23247.57
1380.938, 23254.11
1381.994, 23333.00
1383.050, 23342.00
1384.106, 23385.00
1385.161, 23439.00
1386.216, 23418.60
1387.271, 23189.00
1388.326, 23409.00
1389.381, 23405.57
1390.435, 23436.73
1391.490, 23650.00
1392.544, 23547.00
1393.598, 23566.00
1394.652, 23702.00
1395.705, 23634.00
1396.759, 23526.00
1397.812, 23477.00
1398.866, 23556.00
1399.919, 23462.00
1400.972, 23441.00
1402.024, 23556.00
1403.077, 23792.00
1404.129, 23676.00
1405.181, 23866.00
1406.233, 23839.00
1407.285, 23837.00
1408.337, 23856.00
1409.389, 23755.00
1410.440, 23596.00
1411.491, 23821.00
1412.542, 23627.00
1413.593, 23568.00
1414.644, 23699.00
1415.695, 23895.00
1416.745, 23889.94
1417.795, 23989.94
1418.845, 23955.00
1419.895, 23997.00
1420.945, 23888.00
1421.995, 23744.00
1423.044, 23864.00
1424.093, 23850.00
1425.142, 23860.00
1426.191, 23928.00
1427.240, 23762.00
1428.289, 24037.00
1429.337, 23813.00
1430.385, 23960.00
1431.433, 24151.00
1432.481, 24203.00
1433.529, 23995.00
1434.577, 24196.00
1435.624, 24072.00
1436.672, 24016.00
1437.719, 24013.00
1438.766, 24004.00
1439.812, 24093.00
1440.859, 24023.00
1441.905, 24135.00
1442.952, 24236.00
1443.998, 24215.00
1445.044, 24372.00
1446.090, 24399.00
1447.135, 24425.00
1448.181, 24331.00
1449.226, 24067.00
1450.271, 24267.00
1451.316, 24243.00
1452.361, 24177.00
1453.405, 24334.00
1454.450, 24324.00
1455.494, 24367.00
1456.538, 24355.00
1457.582, 24496.00
1458.626, 24382.00
1459.670, 24445.00
1460.713, 24503.00
1461.757, 24299.00
1462.800, 24399.00
1463.843, 24504.00
1464.886, 24381.00
1465.928, 24648.00
1466.971, 24347.00
1468.013, 24388.00
1469.055, 24491.00
1470.097, 24658.00
1471.139, 24592.00
1472.181, 24296.00
1473.222, 24792.00
1474.263, 24489.00
1475.305, 24488.00
1476.346, 24782.00
1477.386, 24622.00
1478.427, 24665.00
1479.468, 24487.00
1480.508, 24565.00
1481.548, 24611.00
1482.588, 24911.00
1483.628, 24955.00
1484.668, 24632.00
1485.707, 24933.00
1486.747, 24963.00
1487.786, 24768.00
1488.825, 25252.00
1489.864, 24946.00
1490.902, 24818.00
1491.941, 24691.00
1492.979, 24924.00
1494.017, 24865.00
1495.055, 24845.00
1496.093, 25030.00
1497.131, 24855.00
1498.168, 25078.00
1499.206, 25005.00
1500.243, 25169.00
1501.280, 25059.00
1502.317, 25144.00
1503.354, 25183.00
1504.390, 24980.00
1505.426, 24998.00
1506.463, 25019.00
1507.499, 25020.00
1508.535, 25069.00
1509.570, 25164.00
1510.606, 25271.00
1511.641, 25257.00
1512.676, 25394.00
1513.711, 25306.00
1514.746, 25222.00
1515.781, 25352.00
1516.816, 25241.00
1517.850, 25271.00
1518.884, 25402.00
1519.918, 25263.00
1520.952, 25289.00
1521.986, 25419.00
1523.019, 25385.01
1524.053, 25511.00
1525.086, 25485.00
1526.119, 25528.00
1527.152, 25569.00
1528.185, 25500.00
1529.217, 25599.00
1530.250, 25378.00
1531.282, 25597.00
1532.314, 25355.00
1533.346, 25593.00
1534.377, 25720.00
1535.409, 25606.00
1536.440, 25603.00
1537.472, 25718.00
1538.503, 25749.00
1539.534, 25835.00
1540.564, 25763.00
1541.595, 25968.00
1542.625, 25790.00
1543.656, 25809.00
1544.686, 25829.00
1545.716, 25924.00
1546.745, 25788.00
1547.775, 25919.00
1548.804, 25913.00
1549.834, 26036.00
1550.863, 26034.00
1551.892, 26169.00
1552.920, 26281.00
1553.949, 26296.00
1554.977, 26271.00
1556.006, 26080.00
1557.034, 26027.00
1558.062, 26087.00
1559.089, 26040.00
1560.117, 25997.00
1561.144, 26057.00
1562.172, 26098.00
1563.199, 26307.00
1564.226, 26290.00
1565.252, 26373.00
1566.279, 26333.00
1567.305, 26487.00
1568.332, 26447.00
1569.358, 26254.00
1570.384, 26245.00
1571.409, 26448.00
##END=



