##NAMES=Columbite-(Fe)
##RRUFFID=R060001
##IDEAL CHEMISTRY=Fe^2+^Nb^5+^_2_O_6_
##LOCALITY=Gypsy mine, Minas Gerais, Brazil
##OWNER=RRUFF
##SOURCE=Eric Van Valkenburg
##DESCRIPTION=Steel gray fragment with internal red hints
##STATUS=The identification of this mineral has been confirmed by X-ray diffraction and chemical analysis
##URL=rruff.info/R060001
##MEASURED CHEMISTRY=(Fe^2+^_0.52_Mn^2+^_0.48_)_Σ=1_(Nb_1.61_Ta_0.39_)_Σ=2_O_6_
##PIN_ID=L01130
##ORIENTATION=Laser parallel to a* (1 0 0). Fiducial mark perpendicular to laser is parallel to -b [0 -1 0]
119.1230, 5462.000
120.3580, 5655.519
121.5920, 5833.797
122.8270, 6064.000
124.0610, 6276.000
125.2950, 6545.723
126.5290, 6805.990
127.7630, 7050.000
128.9970, 7246.000
130.2300, 7412.389
131.4640, 7524.051
132.6970, 7651.000
133.9300, 7654.000
135.1630, 7702.000
136.3950, 7726.000
137.6280, 7750.000
138.8600, 7545.599
140.0920, 7522.000
141.3240, 7025.000
142.5560, 6732.000
143.7880, 6386.000
145.0190, 6052.000
146.2510, 5865.000
147.4820, 5783.000
148.7130, 5684.000
149.9440, 5618.000
151.1750, 5618.000
152.4050, 5552.000
153.6360, 5497.000
154.8660, 5314.000
156.0960, 5207.000
157.3260, 5232.000
158.5560, 5209.000
159.7850, 5198.000
161.0150, 5170.000
162.2440, 5298.000
163.4730, 5461.000
164.7020, 5462.000
165.9310, 5392.000
167.1590, 5490.000
168.3880, 5421.000
169.6160, 5549.000
170.8440, 5507.000
172.0720, 5639.000
173.3000, 5637.000
174.5280, 5602.000
175.7550, 5626.000
176.9820, 5468.000
178.2100, 5496.000
179.4370, 5473.000
180.6630, 5434.000
181.8900, 5549.000
183.1170, 5467.000
184.3430, 5552.000
185.5690, 5603.000
186.7950, 5644.000
188.0210, 5641.000
189.2470, 5599.000
190.4720, 5648.000
191.6970, 5772.000
192.9230, 5937.000
194.1480, 6075.000
195.3730, 6131.000
196.5970, 6172.000
197.8220, 6248.000
199.0460, 6353.000
200.2700, 6534.000
201.4940, 6770.000
202.7180, 6653.000
203.9420, 6563.000
205.1660, 6282.000
206.3890, 6253.000
207.6120, 6184.000
208.8350, 6061.000
210.0580, 6011.000
211.2810, 5979.000
212.5040, 5844.000
213.7260, 5802.000
214.9480, 5742.000
216.1700, 5768.000
217.3920, 5714.000
218.6140, 5684.000
219.8360, 5689.000
221.0570, 5545.000
222.2790, 5489.000
223.5000, 5529.000
224.7210, 5562.000
225.9410, 5482.000
227.1620, 5595.000
228.3820, 5585.000
229.6030, 5641.000
230.8230, 5711.000
232.0430, 5700.000
233.2630, 5781.000
234.4820, 5872.000
235.7020, 5805.000
236.9210, 5893.000
238.1400, 5966.000
239.3590, 6074.000
240.5780, 6118.000
241.7970, 6184.000
243.0150, 6268.000
244.2340, 6277.000
245.4520, 6240.000
246.6700, 6270.000
247.8880, 6245.000
249.1060, 6247.000
250.3230, 6101.000
251.5400, 6243.553
252.7580, 6280.387
253.9750, 6299.060
255.1920, 6300.545
256.4080, 6233.366
257.6250, 6254.853
258.8410, 6240.809
260.0580, 6225.304
261.2740, 6259.275
262.4900, 6202.083
263.7050, 6235.273
264.9210, 6232.382
266.1360, 6127.000
267.3520, 6209.000
268.5670, 6264.000
269.7820, 6219.000
270.9960, 6188.000
272.2110, 6201.000
273.4250, 6204.000
274.6400, 6112.000
275.8540, 6104.000
277.0680, 6160.000
278.2810, 6032.000
279.4950, 6177.000
280.7090, 6146.000
281.9220, 5951.000
283.1350, 5949.000
284.3480, 5866.000
285.5610, 5807.000
286.7730, 5769.000
287.9860, 5719.985
289.1980, 5684.612
290.4100, 5660.000
291.6220, 5622.000
292.8340, 5600.000
294.0460, 5573.000
295.2570, 5504.000
296.4690, 5411.000
297.6800, 5450.000
298.8910, 5480.000
300.1020, 5419.000
301.3120, 5465.000
302.5230, 5343.000
303.7330, 5365.000
304.9440, 5363.000
306.1540, 5385.000
307.3630, 5399.000
308.5730, 5414.000
309.7830, 5475.000
310.9920, 5451.000
312.2010, 5413.000
313.4100, 5536.000
314.6190, 5520.000
315.8280, 5555.000
317.0370, 5528.000
318.2450, 5600.000
319.4530, 5606.000
320.6610, 5570.000
321.8690, 5602.000
323.0770, 5510.000
324.2850, 5472.000
325.4920, 5503.000
326.6990, 5433.000
327.9060, 5436.000
329.1130, 5289.000
330.3200, 5342.000
331.5270, 5298.000
332.7330, 5243.000
333.9390, 5335.000
335.1450, 5228.000
336.3510, 5270.000
337.5570, 5205.000
338.7630, 5249.000
339.9680, 5259.000
341.1740, 5269.000
342.3790, 5283.529
343.5840, 5262.000
344.7890, 5265.000
345.9930, 5258.000
347.1980, 5192.000
348.4020, 5203.000
349.6060, 5342.000
350.8100, 5240.000
352.0140, 5331.000
353.2180, 5220.000
354.4210, 5308.000
355.6250, 5314.000
356.8280, 5357.000
358.0310, 5360.000
359.2340, 5403.000
360.4360, 5338.000
361.6390, 5420.000
362.8410, 5361.000
364.0430, 5324.000
365.2450, 5361.000
366.4470, 5326.000
367.6490, 5493.000
368.8510, 5386.000
370.0520, 5472.000
371.2530, 5415.000
372.4540, 5417.000
373.6550, 5442.000
374.8560, 5555.000
376.0560, 5555.000
377.2570, 5598.000
378.4570, 5646.000
379.6570, 5600.000
380.8570, 5722.000
382.0570, 5767.000
383.2560, 5999.000
384.4560, 6043.000
385.6550, 6007.000
386.8540, 6205.000
388.0530, 6215.000
389.2520, 6255.000
390.4510, 6412.000
391.6490, 6533.000
392.8470, 6581.000
394.0450, 6676.000
395.2430, 6753.000
396.4410, 6693.000
397.6390, 6791.000
398.8360, 6618.000
400.0340, 6577.000
401.2310, 6515.000
402.4280, 6425.000
403.6250, 6371.000
404.8210, 6259.000
406.0180, 6176.933
407.2140, 6138.000
408.4100, 5978.000
409.6060, 5957.000
410.8020, 5845.000
411.9980, 5806.000
413.1930, 5785.000
414.3890, 5700.000
415.5840, 5707.000
416.7790, 5668.000
417.9740, 5566.000
419.1680, 5519.000
420.3630, 5531.000
421.5570, 5484.000
422.7510, 5542.000
423.9450, 5519.000
425.1390, 5511.000
426.3330, 5434.000
427.5270, 5375.000
428.7200, 5377.000
429.9130, 5446.000
431.1060, 5533.000
432.2990, 5457.000
433.4920, 5435.000
434.6840, 5516.000
435.8770, 5531.000
437.0690, 5462.000
438.2610, 5557.000
439.4530, 5429.000
440.6450, 5396.000
441.8360, 5377.000
443.0280, 5473.000
444.2190, 5487.000
445.4100, 5477.000
446.6010, 5458.000
447.7920, 5492.716
448.9820, 5464.000
450.1730, 5521.000
451.3630, 5499.000
452.5530, 5445.000
453.7430, 5517.000
454.9330, 5587.000
456.1230, 5532.000
457.3120, 5592.000
458.5010, 5546.000
459.6910, 5510.000
460.8800, 5573.000
462.0680, 5630.000
463.2570, 5610.000
464.4460, 5614.000
465.6340, 5600.000
466.8220, 5629.000
468.0100, 5633.000
469.1980, 5685.000
470.3860, 5683.986
471.5730, 5650.000
472.7600, 5717.000
473.9480, 5750.000
475.1350, 5806.000
476.3210, 5787.000
477.5080, 5831.000
478.6950, 5859.000
479.8810, 5861.647
481.0670, 5803.000
482.2530, 5861.000
483.4390, 5888.000
484.6250, 5834.000
485.8100, 5880.000
486.9960, 5765.000
488.1810, 5809.000
489.3660, 5818.000
490.5510, 5901.000
491.7360, 5851.000
492.9200, 5841.000
494.1050, 5794.000
495.2890, 5838.000
496.4730, 5722.000
497.6570, 5852.000
498.8400, 5778.000
500.0240, 5868.000
501.2070, 5935.000
502.3910, 5865.000
503.5740, 5764.000
504.7570, 5683.000
505.9400, 5790.000
507.1220, 5839.000
508.3050, 5883.000
509.4870, 5965.000
510.6690, 6021.000
511.8510, 6001.000
513.0330, 6007.000
514.2140, 6030.000
515.3960, 6175.000
516.5770, 6319.000
517.7580, 6328.000
518.9390, 6457.000
520.1200, 6447.000
521.3010, 6594.000
522.4810, 6691.000
523.6610, 6739.000
524.8420, 6783.000
526.0220, 6894.000
527.2010, 6910.000
528.3810, 6948.000
529.5610, 7067.000
530.7400, 6912.000
531.9190, 6866.000
533.0980, 7036.000
534.2770, 6902.000
535.4560, 6844.000
536.6340, 6851.000
537.8120, 6709.000
538.9910, 6611.000
540.1690, 6561.000
541.3460, 6493.000
542.5240, 6387.000
543.7020, 6365.000
544.8790, 6183.000
546.0560, 6210.000
547.2330, 6079.000
548.4100, 6119.000
549.5870, 6159.000
550.7630, 6007.000
551.9400, 6055.000
553.1160, 5999.000
554.2920, 5867.000
555.4680, 5954.000
556.6440, 5855.000
557.8190, 5866.000
558.9950, 5888.000
560.1700, 5744.000
561.3450, 5679.000
562.5200, 5823.000
563.6950, 5818.000
564.8690, 5785.000
566.0440, 5739.000
567.2180, 5712.289
568.3920, 5753.000
569.5660, 5665.000
570.7400, 5641.000
571.9130, 5689.000
573.0870, 5668.000
574.2600, 5646.495
575.4330, 5612.000
576.6060, 5593.000
577.7790, 5620.000
578.9520, 5620.000
580.1240, 5561.000
581.2960, 5517.000
582.4690, 5511.000
583.6410, 5511.000
584.8120, 5496.000
585.9840, 5516.000
587.1560, 5534.000
588.3270, 5453.000
589.4980, 5483.000
590.6690, 5438.000
591.8400, 5430.000
593.0110, 5497.000
594.1810, 5476.000
595.3510, 5408.000
596.5220, 5540.000
597.6920, 5540.000
598.8610, 5470.000
600.0310, 5447.000
601.2010, 5490.000
602.3700, 5519.000
603.5390, 5561.000
604.7080, 5582.000
605.8770, 5560.000
607.0460, 5485.000
608.2140, 5589.000
609.3830, 5488.000
610.5510, 5612.000
611.7190, 5572.000
612.8870, 5629.000
614.0550, 5484.000
615.2220, 5534.000
616.3900, 5555.000
617.5570, 5571.000
618.7240, 5536.000
619.8910, 5491.000
621.0580, 5591.000
622.2240, 5664.000
623.3910, 5649.489
624.5570, 5592.000
625.7230, 5625.000
626.8890, 5678.000
628.0550, 5577.000
629.2200, 5796.000
630.3860, 5708.899
631.5510, 5647.000
632.7160, 5662.000
633.8810, 5723.000
635.0460, 5684.000
636.2100, 5691.822
637.3750, 5719.000
638.5390, 5655.000
639.7030, 5636.000
640.8670, 5627.000
642.0310, 5613.955
643.1950, 5634.000
644.3580, 5626.000
645.5210, 5640.000
646.6850, 5645.000
647.8480, 5658.000
649.0100, 5666.977
650.1730, 5669.442
651.3350, 5674.000
652.4980, 5694.000
653.6600, 5673.000
654.8220, 5726.000
655.9840, 5694.000
657.1450, 5604.000
658.3070, 5635.000
659.4680, 5612.600
660.6300, 5694.000
661.7910, 5632.000
662.9510, 5637.000
664.1120, 5638.000
665.2730, 5755.000
666.4330, 5724.000
667.5930, 5683.000
668.7530, 5738.000
669.9130, 5690.000
671.0730, 5627.000
672.2320, 5765.000
673.3920, 5721.000
674.5510, 5708.000
675.7100, 5757.000
676.8690, 5873.000
678.0280, 5765.000
679.1860, 5773.000
680.3450, 5713.000
681.5030, 5831.000
682.6610, 5785.000
683.8190, 5756.000
684.9770, 5874.000
686.1340, 5824.000
687.2920, 5834.000
688.4490, 5902.000
689.6060, 5864.000
690.7630, 5913.000
691.9200, 5887.000
693.0760, 5941.000
694.2330, 5880.000
695.3890, 5902.105
696.5450, 5979.000
697.7010, 5936.000
698.8570, 5936.000
700.0130, 6016.000
701.1680, 6072.000
702.3230, 6028.000
703.4780, 6035.000
704.6330, 6128.000
705.7880, 6245.000
706.9430, 6128.000
708.0970, 6151.000
709.2520, 6126.000
710.4060, 6275.000
711.5600, 6196.000
712.7140, 6226.000
713.8670, 6221.000
715.0210, 6238.000
716.1740, 6262.000
717.3270, 6275.000
718.4800, 6329.000
719.6330, 6355.000
720.7860, 6400.000
721.9380, 6387.000
723.0910, 6469.000
724.2430, 6450.000
725.3950, 6504.000
726.5470, 6466.000
727.6980, 6512.000
728.8500, 6480.000
730.0010, 6565.000
731.1530, 6650.000
732.3040, 6698.000
733.4550, 6749.000
734.6050, 6863.000
735.7560, 6889.000
736.9060, 6787.000
738.0560, 6944.000
739.2060, 7044.000
740.3560, 6818.000
741.5060, 7048.000
742.6560, 6957.000
743.8050, 7074.000
744.9540, 7009.000
746.1030, 7215.000
747.2520, 7219.000
748.4010, 7259.000
749.5500, 7230.000
750.6980, 7249.000
751.8460, 7384.000
752.9950, 7356.000
754.1420, 7381.000
755.2900, 7541.000
756.4380, 7594.000
757.5850, 7639.000
758.7330, 7588.000
759.8800, 7620.000
761.0270, 7708.000
762.1730, 7742.000
763.3200, 7800.000
764.4670, 7861.000
765.6130, 7930.000
766.7590, 7991.000
767.9050, 8014.980
769.0510, 7974.000
770.1960, 8043.000
771.3420, 7943.000
772.4870, 7930.000
773.6320, 8137.000
774.7770, 8180.000
775.9220, 8128.000
777.0670, 8086.000
778.2110, 8367.000
779.3560, 8289.000
780.5000, 8315.000
781.6440, 8359.000
782.7880, 8204.000
783.9320, 8242.000
785.0750, 8301.000
786.2180, 8383.000
787.3620, 8348.000
788.5050, 8397.000
789.6480, 8367.000
790.7900, 8388.000
791.9330, 8403.596
793.0750, 8372.000
794.2170, 8412.260
795.3590, 8462.008
796.5010, 8493.592
797.6430, 8507.988
798.7850, 8453.716
799.9260, 8488.107
801.0670, 8486.964
802.2080, 8484.363
803.3490, 8531.234
804.4900, 8486.943
805.6310, 8533.030
806.7710, 8543.032
807.9110, 8569.547
809.0510, 8560.307
810.1910, 8562.109
811.3310, 8599.679
812.4710, 8617.444
813.6100, 8604.081
814.7490, 8597.000
815.8880, 8633.000
817.0270, 8607.000
818.1660, 8680.000
819.3050, 8613.000
820.4430, 8821.000
821.5820, 8664.000
822.7200, 8840.000
823.8580, 8864.000
824.9950, 8939.000
826.1330, 8877.000
827.2710, 8988.000
828.4080, 9053.000
829.5450, 9022.000
830.6820, 9056.000
831.8190, 9170.000
832.9560, 9345.000
834.0920, 9330.000
835.2280, 9322.000
836.3650, 9510.000
837.5010, 9305.000
838.6360, 9515.000
839.7720, 9534.000
840.9080, 9681.000
842.0430, 9873.000
843.1780, 9830.000
844.3130, 10027.00
845.4480, 10099.00
846.5830, 10261.00
847.7170, 10364.00
848.8520, 10502.00
849.9860, 10903.00
851.1200, 11099.00
852.2540, 11469.00
853.3870, 11733.00
854.5210, 12027.00
855.6540, 12344.00
856.7880, 12729.91
857.9210, 13173.00
859.0540, 13641.00
860.1860, 14215.00
861.3190, 14853.00
862.4510, 15544.52
863.5840, 16345.92
864.7160, 17186.92
865.8480, 18147.00
866.9790, 19101.00
868.1110, 20169.00
869.2420, 21304.00
870.3740, 22555.00
871.5050, 23496.00
872.6360, 24672.00
873.7660, 25126.00
874.8970, 25530.00
876.0280, 25584.00
877.1580, 24894.00
878.2880, 23735.00
879.4180, 22735.00
880.5480, 20874.00
881.6770, 19157.00
882.8070, 17292.00
883.9360, 15552.00
885.0650, 13987.00
886.1940, 12568.71
887.3230, 11295.00
888.4520, 10237.00
889.5800, 9309.000
890.7090, 8623.000
891.8370, 8096.000
892.9650, 7632.000
894.0930, 7213.000
895.2200, 6845.000
896.3480, 6592.000
897.4750, 6417.000
898.6020, 6065.000
899.7290, 6016.000
900.8560, 5875.000
901.9830, 5662.000
903.1090, 5678.000
904.2360, 5576.000
905.3620, 5463.000
906.4880, 5371.000
907.6140, 5367.000
908.7400, 5270.000
909.8650, 5218.224
910.9900, 5196.000
912.1160, 5098.000
913.2410, 5037.000
914.3660, 4989.000
915.4900, 4929.028
916.6150, 4897.000
917.7390, 4861.000
918.8640, 4840.000
919.9880, 4845.000
921.1120, 4839.000
922.2350, 4816.767
923.3590, 4759.000
924.4820, 4749.000
925.6060, 4760.000
926.7290, 4674.000
927.8520, 4798.000
928.9740, 4625.000
930.0970, 4713.000
931.2190, 4705.000
932.3420, 4670.000
933.4640, 4715.000
934.5860, 4621.000
935.7080, 4659.000
936.8290, 4639.000
937.9510, 4598.000
939.0720, 4598.000
940.1930, 4614.000
941.3140, 4563.000
942.4350, 4541.000
943.5560, 4521.000
944.6760, 4543.000
945.7960, 4482.000
946.9170, 4537.000
948.0370, 4517.000
949.1560, 4549.000
950.2760, 4514.000
951.3960, 4473.000
952.5150, 4471.000
953.6340, 4482.000
954.7530, 4531.000
955.8720, 4470.000
956.9910, 4414.000
958.1090, 4487.000
959.2280, 4371.000
960.3460, 4389.000
961.4640, 4423.000
962.5820, 4364.000
963.6990, 4381.000
964.8170, 4334.000
965.9340, 4416.000
967.0510, 4428.000
968.1690, 4446.000
969.2850, 4459.142
970.4020, 4428.000
971.5190, 4425.000
972.6350, 4437.000
973.7510, 4382.000
974.8670, 4435.000
975.9830, 4458.000
977.0990, 4424.000
978.2150, 4391.000
979.3300, 4346.000
980.4450, 4452.000
981.5600, 4451.000
982.6750, 4430.000
983.7900, 4340.000
984.9050, 4361.000
986.0190, 4386.000
987.1340, 4422.000
988.2480, 4364.000
989.3620, 4403.000
990.4750, 4459.000
991.5890, 4402.000
992.7020, 4430.000
993.8160, 4323.000
994.9290, 4298.000
996.0420, 4311.000
997.1550, 4431.000
998.2670, 4342.000
999.3800, 4447.000
1000.492, 4335.000
1001.604, 4412.000
1002.716, 4282.000
1003.828, 4364.000
1004.940, 4313.000
1006.051, 4441.000
1007.163, 4323.000
1008.274, 4455.000
1009.385, 4316.000
1010.496, 4431.000
1011.606, 4411.000
1012.717, 4349.000
1013.827, 4370.000
1014.937, 4355.000
1016.047, 4333.000
1017.157, 4355.405
1018.267, 4337.000
1019.377, 4382.000
1020.486, 4365.000
1021.595, 4379.000
1022.704, 4333.000
1023.813, 4368.000
1024.922, 4304.649
1026.030, 4347.681
1027.139, 4372.550
1028.247, 4380.230
1029.355, 4319.243
1030.463, 4346.925
1031.571, 4339.073
1032.678, 4329.762
1033.786, 4369.924
1034.893, 4318.922
1036.000, 4358.299
1037.107, 4361.598
1038.214, 4353.000
1039.321, 4428.000
1040.427, 4445.000
1041.533, 4331.000
1042.639, 4369.000
1043.745, 4358.336
1044.851, 4331.044
1045.957, 4373.000
1047.062, 4311.000
1048.168, 4279.000
1049.273, 4236.000
1050.378, 4363.000
1051.482, 4425.000
1052.587, 4358.000
1053.692, 4379.000
1054.796, 4385.356
1055.900, 4393.000
1057.004, 4400.000
1058.108, 4377.000
1059.212, 4391.000
1060.315, 4387.410
1061.418, 4386.000
1062.522, 4391.000
1063.625, 4423.000
1064.728, 4424.000
1065.830, 4353.000
1066.933, 4352.000
1068.035, 4382.000
1069.137, 4369.000
1070.239, 4376.000
1071.341, 4393.755
1072.443, 4367.000
1073.545, 4412.000
1074.646, 4413.000
1075.747, 4397.000
1076.848, 4384.000
1077.949, 4384.000
1079.050, 4344.000
1080.150, 4325.000
1081.251, 4329.744
1082.351, 4371.000
1083.451, 4341.000
1084.551, 4358.000
1085.651, 4368.000
1086.750, 4349.000
1087.850, 4371.000
1088.949, 4368.000
1090.048, 4377.761
1091.147, 4381.000
1092.246, 4393.000
1093.345, 4380.000
1094.443, 4364.000
1095.541, 4372.000
1096.639, 4363.000
1097.737, 4328.860
1098.835, 4368.290
1099.933, 4389.555
1101.030, 4393.634
1102.128, 4329.043
1103.225, 4353.125
1104.322, 4341.672
1105.419, 4328.761
1106.515, 4365.325
1107.612, 4310.724
1108.708, 4346.502
1109.804, 4346.204
1110.900, 4362.417
1111.996, 4342.876
1113.092, 4334.378
1114.187, 4361.648
1115.283, 4369.113
1116.378, 4345.458
1117.473, 4362.722
1118.568, 4306.876
1119.662, 4315.188
1120.757, 4351.177
1121.851, 4338.000
1122.946, 4318.000
1124.040, 4303.631
1125.134, 4297.000
1126.227, 4291.000
1127.321, 4279.000
1128.414, 4255.000
1129.508, 4268.000
1130.601, 4395.000
1131.693, 4230.000
1132.786, 4256.000
1133.879, 4336.000
1134.971, 4263.000
1136.064, 4343.000
1137.156, 4254.000
1138.248, 4290.000
1139.339, 4312.000
1140.431, 4357.000
1141.522, 4168.000
1142.614, 4304.000
1143.705, 4283.000
1144.796, 4259.000
1145.887, 4347.000
1146.977, 4209.000
1148.068, 4280.000
1149.158, 4300.000
1150.248, 4233.000
1151.338, 4241.000
1152.428, 4172.000
1153.518, 4268.000
1154.607, 4275.000
1155.696, 4249.000
1156.785, 4223.000
1157.874, 4229.091
1158.963, 4235.000
1160.052, 4218.000
1161.141, 4237.000
1162.229, 4213.000
1163.317, 4293.000
1164.405, 4218.000
1165.493, 4327.000
1166.581, 4190.000
1167.668, 4252.000
1168.756, 4245.000
1169.843, 4232.000
1170.930, 4290.000
1172.017, 4267.000
1173.103, 4212.000
1174.190, 4188.000
1175.276, 4224.000
1176.363, 4192.000
1177.449, 4250.000
1178.535, 4256.000
1179.620, 4208.000
1180.706, 4267.000
1181.791, 4245.000
1182.877, 4247.000
1183.962, 4219.000
1185.047, 4223.000
1186.131, 4238.000
1187.216, 4251.000
1188.300, 4297.000
1189.385, 4242.000
1190.469, 4264.000
1191.553, 4254.821
1192.637, 4195.000
1193.720, 4209.000
1194.804, 4229.000
1195.887, 4147.000
1196.970, 4251.000
1198.053, 4218.000
1199.136, 4136.000
1200.219, 4283.000
1201.301, 4189.000
1202.383, 4189.000
1203.465, 4265.000
1204.547, 4242.000
1205.629, 4205.000
1206.711, 4173.000
1207.792, 4266.000
1208.874, 4222.000
1209.955, 4223.000
1211.036, 4259.000
1212.117, 4240.000
1213.198, 4233.000
1214.278, 4216.000
1215.359, 4217.000
1216.439, 4175.000
1217.519, 4214.000
1218.599, 4234.000
1219.678, 4306.000
1220.758, 4155.000
1221.837, 4212.000
1222.917, 4236.000
1223.996, 4318.000
1225.075, 4208.000
1226.153, 4172.000
1227.232, 4207.000
1228.310, 4183.000
1229.389, 4258.000
1230.467, 4245.000
1231.545, 4257.000
1232.622, 4277.577
1233.700, 4270.075
1234.777, 4264.000
1235.855, 4271.000
1236.932, 4215.000
1238.009, 4206.000
1239.086, 4232.000
1240.162, 4217.000
1241.239, 4252.000
1242.315, 4188.000
1243.391, 4199.000
1244.467, 4179.000
1245.543, 4212.000
1246.619, 4248.000
1247.694, 4132.000
1248.769, 4209.000
1249.844, 4241.000
1250.919, 4173.000
1251.994, 4219.000
1253.069, 4216.000
1254.144, 4185.000
1255.218, 4189.000
1256.292, 4205.000
1257.366, 4131.000
1258.440, 4205.000
1259.514, 4201.000
1260.587, 4246.000
1261.661, 4218.000
1262.734, 4207.000
1263.807, 4157.000
1264.880, 4179.000
1265.952, 4153.559
1267.025, 4166.000
1268.097, 4152.000
1269.170, 4166.000
1270.242, 4168.314
1271.314, 4183.000
1272.385, 4184.000
1273.457, 4189.036
1274.528, 4205.000
1275.600, 4173.000
1276.671, 4228.000
1277.742, 4202.000
1278.812, 4247.000
1279.883, 4226.000
1280.954, 4112.000
1282.024, 4135.000
1283.094, 4125.000
1284.164, 4210.000
1285.234, 4169.000
1286.303, 4153.000
1287.373, 4240.000
1288.442, 4184.000
1289.511, 4160.000
1290.580, 4209.000
1291.649, 4172.000
1292.718, 4200.000
1293.786, 4233.000
1294.855, 4115.000
1295.923, 4173.000
1296.991, 4158.000
1298.059, 4220.000
1299.126, 4206.000
1300.194, 4205.908
1301.261, 4216.000
1302.328, 4188.000
1303.395, 4210.000
1304.462, 4210.000
1305.529, 4158.000
1306.596, 4164.000
1307.662, 4200.000
1308.728, 4193.000
1309.794, 4125.000
1310.860, 4202.000
1311.926, 4126.000
1312.991, 4222.000
1314.057, 4187.000
1315.122, 4260.000
1316.187, 4222.000
1317.252, 4179.000
1318.317, 4181.000
1319.381, 4220.000
1320.446, 4129.000
1321.510, 4246.000
1322.574, 4146.000
1323.638, 4193.000
1324.702, 4220.000
1325.766, 4173.000
1326.829, 4154.000
1327.892, 4272.000
1328.956, 4198.169
1330.019, 4237.000
1331.081, 4155.000
1332.144, 4196.000
1333.206, 4176.000
1334.269, 4214.000
1335.331, 4263.000
1336.393, 4162.000
1337.455, 4278.000
1338.516, 4188.000
1339.578, 4229.000
1340.639, 4200.000
1341.701, 4252.000
1342.762, 4235.641
1343.822, 4227.000
1344.883, 4248.000
1345.944, 4164.000
1347.004, 4225.000
1348.064, 4135.000
1349.124, 4260.000
1350.184, 4171.000
1351.244, 4194.000
1352.304, 4244.000
1353.363, 4211.000
1354.422, 4157.000
1355.481, 4188.000
1356.540, 4201.000
1357.599, 4235.000
1358.657, 4188.000
1359.716, 4233.000
1360.774, 4190.000
1361.832, 4296.000
1362.890, 4232.000
1363.948, 4151.000
1365.006, 4191.000
1366.063, 4275.000
1367.120, 4231.000
1368.178, 4305.000
1369.234, 4184.000
1370.291, 4227.000
1371.348, 4293.000
1372.404, 4230.000
1373.461, 4258.000
1374.517, 4241.000
1375.573, 4164.000
1376.629, 4268.000
1377.684, 4217.000
1378.740, 4277.000
1379.795, 4244.000
1380.850, 4260.000
1381.905, 4230.000
1382.960, 4214.000
1384.015, 4240.000
1385.070, 4155.000
1386.124, 4209.000
1387.178, 4198.000
1388.232, 4239.000
1389.286, 4218.000
1390.340, 4239.000
1391.393, 4217.000
1392.447, 4230.000
1393.500, 4287.000
1394.553, 4208.000
1395.606, 4252.000
1396.659, 4247.000
1397.711, 4325.000
1398.764, 4157.000
1399.816, 4254.000
1400.868, 4110.000
1401.920, 4307.000
1402.972, 4226.391
1404.023, 4271.792
1405.075, 4299.034
1406.126, 4309.083
1407.177, 4250.465
1408.228, 4280.518
1409.279, 4275.034
1410.330, 4268.094
1411.380, 4310.622
1412.431, 4261.991
1413.481, 4303.734
1414.531, 4309.401
1415.580, 4236.000
1416.630, 4184.000
1417.680, 4328.000
1418.729, 4244.000
1419.778, 4187.000
1420.827, 4311.000
1421.876, 4284.000
1422.925, 4257.000
1423.973, 4306.097
1425.022, 4346.146
1426.070, 4368.032
1427.118, 4372.730
1428.166, 4308.761
1429.214, 4333.462
1430.261, 4322.629
1431.309, 4310.337
1432.356, 4347.520
1433.403, 4293.539
1434.450, 4329.936
1435.497, 4330.256
1436.543, 4347.089
1437.590, 4328.167
1438.636, 4320.289
1439.682, 4348.177
1440.728, 4356.261
1441.774, 4332.000
1442.819, 4271.000
1443.865, 4254.000
1444.910, 4244.000
1445.955, 4305.000
1447.000, 4286.000
1448.045, 4270.000
1449.090, 4268.000
1450.134, 4268.000
1451.178, 4289.000
1452.223, 4304.000
1453.267, 4261.000
1454.310, 4247.000
1455.354, 4235.000
1456.398, 4225.000
1457.441, 4310.000
1458.484, 4283.000
1459.527, 4365.000
1460.570, 4313.000
1461.613, 4357.000
1462.655, 4317.000
1463.698, 4233.000
1464.740, 4259.665
1465.782, 4325.000
1466.824, 4237.000
1467.866, 4353.000
1468.907, 4343.000
1469.948, 4356.000
1470.990, 4361.000
1472.031, 4370.000
1473.072, 4352.000
1474.112, 4360.000
1475.153, 4302.000
1476.194, 4281.000
1477.234, 4284.000
1478.274, 4295.000
1479.314, 4279.000
1480.354, 4299.000
1481.393, 4282.000
1482.433, 4353.000
1483.472, 4372.000
1484.511, 4394.000
1485.550, 4395.176
1486.589, 4342.000
1487.628, 4337.000
1488.666, 4362.000
1489.704, 4286.000
1490.743, 4375.000
1491.781, 4345.000
1492.819, 4330.000
1493.856, 4311.000
1494.894, 4316.000
1495.931, 4324.000
1496.968, 4362.000
1498.005, 4309.000
1499.042, 4318.000
1500.079, 4329.000
1501.115, 4305.071
1502.152, 4335.000
1503.188, 4302.000
1504.224, 4372.000
1505.260, 4399.000
1506.296, 4370.000
1507.331, 4364.000
1508.367, 4355.000
1509.402, 4296.000
1510.437, 4305.000
1511.472, 4404.000
1512.507, 4350.000
1513.541, 4386.000
1514.576, 4358.000
1515.610, 4384.000
1516.644, 4308.000
1517.678, 4356.000
1518.712, 4335.423
1519.746, 4313.000
1520.779, 4339.000
1521.813, 4330.000
1522.846, 4346.000
1523.879, 4305.000
1524.912, 4332.590
1525.944, 4332.000
1526.977, 4370.000
1528.009, 4372.865
1529.041, 4351.000
1530.073, 4389.000
1531.105, 4379.000
1532.137, 4385.000
1533.168, 4423.000
1534.200, 4403.000
1535.231, 4378.000
1536.262, 4402.000
1537.293, 4286.000
1538.324, 4312.000
1539.354, 4332.000
1540.385, 4326.000
1541.415, 4387.000
1542.445, 4337.000
1543.475, 4418.000
1544.505, 4352.000
1545.534, 4347.000
1546.564, 4383.000
1547.593, 4418.000
1548.622, 4451.000
1549.651, 4458.000
1550.680, 4523.000
1551.708, 4560.000
1552.737, 4665.000
1553.765, 4726.000
1554.793, 4727.000
1555.821, 4545.000
1556.849, 4540.000
1557.877, 4386.000
1558.904, 4404.000
1559.932, 4440.000
1560.959, 4460.000
1561.986, 4370.000
1563.013, 4463.000
##END=



