##NAMES=Columbite-(Fe)
##RRUFFID=R060001
##IDEAL CHEMISTRY=Fe^2+^Nb^5+^_2_O_6_
##LOCALITY=Gypsy mine, Minas Gerais, Brazil
##OWNER=RRUFF
##SOURCE=Eric Van Valkenburg
##DESCRIPTION=Steel gray fragment with internal red hints
##STATUS=The identification of this mineral has been confirmed by X-ray diffraction and chemical analysis
##URL=rruff.info/R060001
##MEASURED CHEMISTRY=(Fe^2+^_0.52_Mn^2+^_0.48_)_Σ=1_(Nb_1.61_Ta_0.39_)_Σ=2_O_6_
##PIN_ID=L01167
##ORIENTATION=Laser parallel to c* (0 0 1). Fiducial mark perpendicular to laser is parallel to -a [-1 0 0]
130.2300, 10843.00
131.4640, 10735.00
132.6970, 10540.00
133.9300, 10681.00
135.1630, 10701.00
136.3950, 10697.00
137.6280, 10994.00
138.8600, 10986.00
140.0920, 10838.00
141.3240, 10544.00
142.5560, 10501.00
143.7880, 10299.00
145.0190, 10145.00
146.2510, 10225.00
147.4820, 10059.00
148.7130, 10116.00
149.9440, 10149.00
151.1750, 10433.00
152.4050, 10357.00
153.6360, 10273.00
154.8660, 10248.00
156.0960, 10135.00
157.3260, 9871.000
158.5560, 10003.00
159.7850, 9944.000
161.0150, 10108.00
162.2440, 10128.00
163.4730, 10151.00
164.7020, 10314.00
165.9310, 10235.00
167.1590, 10009.00
168.3880, 10048.00
169.6160, 10113.00
170.8440, 10194.00
172.0720, 10121.00
173.3000, 10181.00
174.5280, 10167.00
175.7550, 10081.00
176.9820, 10222.00
178.2100, 10360.56
179.4370, 10214.22
180.6630, 10239.73
181.8900, 10046.00
183.1170, 10116.00
184.3430, 10149.00
185.5690, 10240.00
186.7950, 10392.00
188.0210, 10350.00
189.2470, 10499.00
190.4720, 10454.00
191.6970, 10740.00
192.9230, 10730.00
194.1480, 10901.00
195.3730, 10988.00
196.5970, 11013.00
197.8220, 11271.00
199.0460, 11355.00
200.2700, 11645.00
201.4940, 11774.00
202.7180, 11773.00
203.9420, 11593.00
205.1660, 11430.00
206.3890, 11438.00
207.6120, 11246.00
208.8350, 11131.00
210.0580, 10896.00
211.2810, 10845.00
212.5040, 10752.00
213.7260, 10817.00
214.9480, 10596.00
216.1700, 10458.00
217.3920, 10354.00
218.6140, 10415.00
219.8360, 10241.00
221.0570, 10330.00
222.2790, 10250.00
223.5000, 10264.00
224.7210, 10156.00
225.9410, 10306.00
227.1620, 10298.00
228.3820, 10262.00
229.6030, 10218.00
230.8230, 10281.00
232.0430, 10351.00
233.2630, 10302.00
234.4820, 10571.00
235.7020, 10414.43
236.9210, 10467.00
238.1400, 10314.00
239.3590, 10347.00
240.5780, 10487.00
241.7970, 10597.00
243.0150, 10563.00
244.2340, 10622.00
245.4520, 10670.00
246.6700, 10642.00
247.8880, 10783.00
249.1060, 10765.00
250.3230, 10933.00
251.5400, 11011.00
252.7580, 11198.00
253.9750, 11331.00
255.1920, 11346.00
256.4080, 11495.00
257.6250, 12233.00
258.8410, 12194.29
260.0580, 12310.47
261.2740, 12571.00
262.4900, 12359.00
263.7050, 12462.00
264.9210, 12833.00
266.1360, 13052.00
267.3520, 13160.00
268.5670, 13168.00
269.7820, 13306.00
270.9960, 13275.00
272.2110, 13156.00
273.4250, 13037.00
274.6400, 12961.00
275.8540, 12831.00
277.0680, 12509.00
278.2810, 12282.00
279.4950, 11922.00
280.7090, 11738.00
281.9220, 11481.00
283.1350, 11338.00
284.3480, 11274.00
285.5610, 11008.00
286.7730, 10994.00
287.9860, 10829.00
289.1980, 10807.00
290.4100, 10799.00
291.6220, 10756.00
292.8340, 10799.00
294.0460, 10727.00
295.2570, 10698.00
296.4690, 10740.00
297.6800, 10599.00
298.8910, 10708.00
300.1020, 10618.00
301.3120, 10673.00
302.5230, 10625.00
303.7330, 10594.00
304.9440, 10626.00
306.1540, 10813.00
307.3630, 10817.00
308.5730, 10625.00
309.7830, 10857.00
310.9920, 10746.00
312.2010, 10876.00
313.4100, 11102.00
314.6190, 10920.00
315.8280, 11067.00
317.0370, 11091.00
318.2450, 11143.00
319.4530, 10953.00
320.6610, 11063.00
321.8690, 10930.00
323.0770, 10863.00
324.2850, 10861.00
325.4920, 10874.00
326.6990, 10787.00
327.9060, 10719.00
329.1130, 10679.00
330.3200, 10585.00
331.5270, 10649.00
332.7330, 10524.00
333.9390, 10466.00
335.1450, 10561.00
336.3510, 10478.24
337.5570, 10455.40
338.7630, 10459.00
339.9680, 10394.00
341.1740, 10368.00
342.3790, 10433.00
343.5840, 10451.00
344.7890, 10509.00
345.9930, 10420.00
347.1980, 10503.00
348.4020, 10424.00
349.6060, 10552.00
350.8100, 10557.00
352.0140, 10589.00
353.2180, 10468.00
354.4210, 10502.00
355.6250, 10313.00
356.8280, 10495.00
358.0310, 10394.00
359.2340, 10441.00
360.4360, 10511.00
361.6390, 10553.00
362.8410, 10575.00
364.0430, 10573.00
365.2450, 10577.00
366.4470, 10529.00
367.6490, 10439.00
368.8510, 10527.00
370.0520, 10649.00
371.2530, 10589.00
372.4540, 10674.00
373.6550, 10578.00
374.8560, 10617.00
376.0560, 10613.00
377.2570, 10575.00
378.4570, 10720.00
379.6570, 10785.00
380.8570, 10733.00
382.0570, 10644.00
383.2560, 10862.00
384.4560, 10736.00
385.6550, 10861.00
386.8540, 10836.00
388.0530, 10659.00
389.2520, 10683.00
390.4510, 10862.00
391.6490, 10853.00
392.8470, 10688.00
394.0450, 10609.00
395.2430, 10630.00
396.4410, 10746.00
397.6390, 10598.00
398.8360, 10749.00
400.0340, 10700.00
401.2310, 10740.00
402.4280, 10804.00
403.6250, 10720.00
404.8210, 10624.00
406.0180, 10655.00
407.2140, 10618.79
408.4100, 10604.00
409.6060, 10655.00
410.8020, 10656.00
411.9980, 10689.00
413.1930, 10635.00
414.3890, 10619.00
415.5840, 10733.00
416.7790, 10617.00
417.9740, 10743.00
419.1680, 10752.00
420.3630, 10779.00
421.5570, 10664.00
422.7510, 10812.00
423.9450, 10795.00
425.1390, 10640.00
426.3330, 10847.00
427.5270, 10809.00
428.7200, 10805.00
429.9130, 10952.00
431.1060, 10715.00
432.2990, 10962.00
433.4920, 10796.00
434.6840, 10856.00
435.8770, 10959.00
437.0690, 11069.00
438.2610, 11009.00
439.4530, 10961.00
440.6450, 10960.00
441.8360, 11103.00
443.0280, 11072.00
444.2190, 11067.00
445.4100, 11202.00
446.6010, 11165.00
447.7920, 11078.00
448.9820, 11115.00
450.1730, 11129.00
451.3630, 11120.00
452.5530, 11127.00
453.7430, 11203.00
454.9330, 11226.00
456.1230, 11171.00
457.3120, 11199.00
458.5010, 11354.00
459.6910, 11221.00
460.8800, 11235.00
462.0680, 11440.00
463.2570, 11378.00
464.4460, 11369.00
465.6340, 11458.00
466.8220, 11421.00
468.0100, 11430.00
469.1980, 11378.00
470.3860, 11672.00
471.5730, 11599.00
472.7600, 11521.00
473.9480, 11731.00
475.1350, 11660.00
476.3210, 11726.00
477.5080, 11733.00
478.6950, 11764.00
479.8810, 11824.00
481.0670, 11896.00
482.2530, 11918.00
483.4390, 12000.00
484.6250, 11967.00
485.8100, 12012.60
486.9960, 11927.00
488.1810, 12029.00
489.3660, 12008.00
490.5510, 11969.00
491.7360, 11951.00
492.9200, 12055.00
494.1050, 11823.00
495.2890, 12079.00
496.4730, 11935.00
497.6570, 12045.00
498.8400, 12041.00
500.0240, 11969.00
501.2070, 12079.00
502.3910, 12040.00
503.5740, 12028.00
504.7570, 12078.00
505.9400, 12025.00
507.1220, 12057.39
508.3050, 11975.00
509.4870, 12086.00
510.6690, 12050.00
511.8510, 12067.00
513.0330, 12181.00
514.2140, 12098.00
515.3960, 12100.00
516.5770, 12069.00
517.7580, 12122.00
518.9390, 12072.00
520.1200, 12227.00
521.3010, 12325.00
522.4810, 12375.00
523.6610, 12376.00
524.8420, 12285.00
526.0220, 12196.00
527.2010, 12361.00
528.3810, 12374.00
529.5610, 12374.00
530.7400, 12459.00
531.9190, 12365.00
533.0980, 12381.00
534.2770, 12347.00
535.4560, 12449.00
536.6340, 12409.00
537.8120, 12336.00
538.9910, 12270.00
540.1690, 12380.00
541.3460, 12283.00
542.5240, 12390.00
543.7020, 12343.00
544.8790, 12184.00
546.0560, 12249.00
547.2330, 12123.85
548.4100, 12215.75
549.5870, 12269.68
550.7630, 12287.67
551.9400, 12162.11
553.1160, 12221.92
554.2920, 12207.43
555.4680, 12189.90
556.6440, 12275.80
557.8190, 12171.11
558.9950, 12255.37
560.1700, 12264.20
561.3450, 12196.00
562.5200, 12245.00
563.6950, 12094.00
564.8690, 12395.00
566.0440, 12368.00
567.2180, 12271.00
568.3920, 12168.00
569.5660, 12365.00
570.7400, 12219.28
571.9130, 12347.00
573.0870, 12110.00
574.2600, 12202.00
575.4330, 12105.00
576.6060, 12176.00
577.7790, 12146.00
578.9520, 12005.00
580.1240, 11962.00
581.2960, 11949.00
582.4690, 11955.00
583.6410, 11854.00
584.8120, 11893.18
585.9840, 11980.00
587.1560, 11905.00
588.3270, 11976.00
589.4980, 11969.00
590.6690, 11912.00
591.8400, 11900.00
593.0110, 12016.00
594.1810, 12106.00
595.3510, 11889.00
596.5220, 12152.00
597.6920, 12079.00
598.8610, 12057.00
600.0310, 12149.79
601.2010, 12106.05
602.3700, 12192.00
603.5390, 12141.00
604.7080, 12158.00
605.8770, 12195.00
607.0460, 12218.08
608.2140, 12301.00
609.3830, 12303.00
610.5510, 12447.00
611.7190, 12448.00
612.8870, 12525.00
614.0550, 12460.00
615.2220, 12503.00
616.3900, 12665.00
617.5570, 12536.00
618.7240, 12698.00
619.8910, 12781.00
621.0580, 12870.00
622.2240, 12967.00
623.3910, 12998.00
624.5570, 13058.00
625.7230, 13123.00
626.8890, 13107.00
628.0550, 13335.00
629.2200, 13166.00
630.3860, 13360.00
631.5510, 13470.00
632.7160, 13511.00
633.8810, 13374.00
635.0460, 13478.00
636.2100, 13409.00
637.3750, 13543.00
638.5390, 13579.00
639.7030, 13698.00
640.8670, 13592.00
642.0310, 13521.00
643.1950, 13445.00
644.3580, 13358.09
645.5210, 13315.00
646.6850, 13225.00
647.8480, 13125.00
649.0100, 13110.51
650.1730, 13063.48
651.3350, 13107.00
652.4980, 13036.00
653.6600, 12907.00
654.8220, 12876.00
655.9840, 12780.00
657.1450, 12846.50
658.3070, 12773.00
659.4680, 12973.00
660.6300, 12888.00
661.7910, 12833.00
662.9510, 12731.00
664.1120, 12641.00
665.2730, 12625.78
666.4330, 12633.00
667.5930, 12599.00
668.7530, 12637.00
669.9130, 12637.00
671.0730, 12644.00
672.2320, 12641.49
673.3920, 12508.00
674.5510, 12641.00
675.7100, 12546.00
676.8690, 12593.00
678.0280, 12704.00
679.1860, 12580.00
680.3450, 12563.00
681.5030, 12689.00
682.6610, 12650.00
683.8190, 12574.00
684.9770, 12710.00
686.1340, 12555.00
687.2920, 12803.00
688.4490, 12731.00
689.6060, 12638.00
690.7630, 12586.00
691.9200, 12614.79
693.0760, 12816.00
694.2330, 12696.00
695.3890, 12782.00
696.5450, 12775.00
697.7010, 12826.00
698.8570, 12696.00
700.0130, 12832.00
701.1680, 12677.00
702.3230, 12835.00
703.4780, 12825.00
704.6330, 12837.00
705.7880, 13010.00
706.9430, 12967.00
708.0970, 12960.00
709.2520, 12894.00
710.4060, 13080.00
711.5600, 13092.00
712.7140, 13047.00
713.8670, 13221.00
715.0210, 13183.00
716.1740, 13163.00
717.3270, 13099.00
718.4800, 13023.00
719.6330, 13188.00
720.7860, 13104.00
721.9380, 13138.00
723.0910, 13330.00
724.2430, 13365.00
725.3950, 13323.00
726.5470, 13323.00
727.6980, 13207.00
728.8500, 13373.00
730.0010, 13380.00
731.1530, 13284.00
732.3040, 13332.00
733.4550, 13431.00
734.6050, 13415.00
735.7560, 13478.00
736.9060, 13503.00
738.0560, 13441.00
739.2060, 13460.00
740.3560, 13522.00
741.5060, 13468.00
742.6560, 13491.00
743.8050, 13679.00
744.9540, 13671.00
746.1030, 13668.00
747.2520, 13665.00
748.4010, 13730.00
749.5500, 13643.00
750.6980, 13665.00
751.8460, 13685.00
752.9950, 13619.00
754.1420, 13663.34
755.2900, 13780.00
756.4380, 13749.00
757.5850, 13749.00
758.7330, 13910.00
759.8800, 13837.00
761.0270, 13807.00
762.1730, 13890.00
763.3200, 13933.00
764.4670, 13901.00
765.6130, 13957.00
766.7590, 13982.00
767.9050, 14065.00
769.0510, 13991.00
770.1960, 13956.00
771.3420, 13668.00
772.4870, 13952.00
773.6320, 14019.00
774.7770, 13888.00
775.9220, 14095.00
777.0670, 13896.00
778.2110, 13983.00
779.3560, 14094.00
780.5000, 13970.00
781.6440, 13898.00
782.7880, 14085.00
783.9320, 14012.58
785.0750, 14055.00
786.2180, 14025.00
787.3620, 14025.92
788.5050, 14071.83
789.6480, 14097.29
790.7900, 14103.40
791.9330, 14032.20
793.0750, 14060.83
794.2170, 14049.46
795.3590, 14036.44
796.5010, 14079.12
797.6430, 14019.17
798.7850, 14060.96
799.9260, 14118.00
801.0670, 14126.00
802.2080, 14113.31
803.3490, 14194.00
804.4900, 14118.00
805.6310, 14139.00
806.7710, 14184.00
807.9110, 14166.00
809.0510, 14271.00
810.1910, 14230.00
811.3310, 14326.00
812.4710, 14269.00
813.6100, 14400.00
814.7490, 14524.00
815.8880, 14520.00
817.0270, 14505.00
818.1660, 14422.00
819.3050, 14653.00
820.4430, 14763.00
821.5820, 14750.00
822.7200, 14831.00
823.8580, 14864.00
824.9950, 15059.00
826.1330, 15079.00
827.2710, 15237.00
828.4080, 15308.00
829.5450, 15493.00
830.6820, 15484.00
831.8190, 15478.00
832.9560, 15505.00
834.0920, 15711.00
835.2280, 15934.00
836.3650, 15938.00
837.5010, 16021.00
838.6360, 16118.00
839.7720, 16280.00
840.9080, 16342.00
842.0430, 16412.00
843.1780, 16755.00
844.3130, 16746.00
845.4480, 17063.00
846.5830, 17488.00
847.7170, 17609.00
848.8520, 18080.00
849.9860, 18346.00
851.1200, 18646.00
852.2540, 19159.00
853.3870, 19733.00
854.5210, 20285.00
855.6540, 20971.78
856.7880, 21631.20
857.9210, 22466.00
859.0540, 23178.00
860.1860, 24070.00
861.3190, 25106.00
862.4510, 26360.00
863.5840, 27644.00
864.7160, 29142.00
865.8480, 30652.00
866.9790, 32472.00
868.1110, 34611.00
869.2420, 36615.00
870.3740, 38773.00
871.5050, 41107.00
872.6360, 43422.00
873.7660, 45435.00
874.8970, 46754.00
876.0280, 47670.00
877.1580, 47860.62
878.2880, 47694.00
879.4180, 46552.00
880.5480, 45022.00
881.6770, 42889.00
882.8070, 40416.00
883.9360, 37532.00
885.0650, 34590.00
886.1940, 31876.00
887.3230, 29126.00
888.4520, 26876.00
889.5800, 24573.00
890.7090, 22922.00
891.8370, 21325.00
892.9650, 20028.00
894.0930, 18876.00
895.2200, 17865.00
896.3480, 17240.00
897.4750, 16488.00
898.6020, 15902.00
899.7290, 15558.00
900.8560, 15151.00
901.9830, 14873.60
903.1090, 14567.10
904.2360, 14399.00
905.3620, 14144.00
906.4880, 13793.00
907.6140, 13811.00
908.7400, 13614.00
909.8650, 13640.00
910.9900, 13366.00
912.1160, 13320.00
913.2410, 13177.00
914.3660, 13109.00
915.4900, 12975.00
916.6150, 13010.00
917.7390, 12877.00
918.8640, 12793.00
919.9880, 12530.00
921.1120, 12755.00
922.2350, 12562.00
923.3590, 12646.00
924.4820, 12553.00
925.6060, 12495.00
926.7290, 12561.00
927.8520, 12479.00
928.9740, 12494.00
930.0970, 12529.00
931.2190, 12409.00
932.3420, 12480.00
933.4640, 12350.00
934.5860, 12497.00
935.7080, 12364.00
936.8290, 12335.00
937.9510, 12471.00
939.0720, 12427.00
940.1930, 12465.00
941.3140, 12356.00
942.4350, 12215.00
943.5560, 12357.00
944.6760, 12370.00
945.7960, 12231.00
946.9170, 12361.00
948.0370, 12146.00
949.1560, 12151.00
950.2760, 12350.00
951.3960, 12188.00
952.5150, 12222.00
953.6340, 12083.00
954.7530, 12222.00
955.8720, 12122.00
956.9910, 12080.00
958.1090, 12121.00
959.2280, 11949.00
960.3460, 12204.00
961.4640, 11863.00
962.5820, 11986.00
963.6990, 12078.00
964.8170, 12026.00
965.9340, 11993.00
967.0510, 11967.00
968.1690, 11929.00
969.2850, 11957.89
970.4020, 11946.00
971.5190, 12032.00
972.6350, 12074.00
973.7510, 12126.00
974.8670, 11916.00
975.9830, 12034.00
977.0990, 11971.00
978.2150, 12133.00
979.3300, 11963.00
980.4450, 12011.00
981.5600, 11993.00
982.6750, 12056.00
983.7900, 11991.00
984.9050, 11970.00
986.0190, 11988.00
987.1340, 11948.00
988.2480, 12066.00
989.3620, 12094.00
990.4750, 11965.00
991.5890, 12050.00
992.7020, 12002.00
993.8160, 11909.00
994.9290, 12013.00
996.0420, 12094.00
997.1550, 11991.00
998.2670, 12037.00
999.3800, 11945.00
1000.492, 12083.00
1001.604, 11965.00
1002.716, 12026.00
1003.828, 11975.00
1004.940, 11965.00
1006.051, 11984.00
1007.163, 11978.00
1008.274, 11994.30
1009.385, 12002.35
1010.496, 12036.00
1011.606, 12029.00
1012.717, 12067.00
1013.827, 12098.00
1014.937, 12034.00
1016.047, 11993.00
1017.157, 12068.00
1018.267, 12088.00
1019.377, 12040.00
1020.486, 12117.00
1021.595, 12180.00
1022.704, 12086.00
1023.813, 12099.00
1024.922, 12146.00
1026.030, 11966.00
1027.139, 11988.00
1028.247, 11944.00
1029.355, 12063.00
1030.463, 12021.00
1031.571, 11905.00
1032.678, 11997.44
1033.786, 12053.50
1034.893, 12089.11
1036.000, 12105.37
1037.107, 12044.33
1038.214, 12083.11
1039.321, 12081.88
1040.427, 12079.01
1041.533, 12131.83
1042.639, 12082.02
1043.745, 12133.96
1044.851, 12145.28
1045.957, 12064.00
1047.062, 12213.00
1048.168, 12110.00
1049.273, 12093.00
1050.378, 12091.00
1051.482, 12294.00
1052.587, 12195.00
1053.692, 12241.00
1054.796, 12136.00
1055.900, 12159.00
1057.004, 12190.00
1058.108, 12220.00
1059.212, 12183.00
1060.315, 12294.00
1061.418, 12347.00
1062.522, 12296.00
1063.625, 12194.00
1064.728, 12226.00
1065.830, 12179.00
1066.933, 12170.00
1068.035, 12304.00
1069.137, 12180.00
1070.239, 12262.00
1071.341, 12193.00
1072.443, 12223.00
1073.545, 12251.00
1074.646, 12295.00
1075.747, 12300.00
1076.848, 12206.00
1077.949, 12235.00
1079.050, 12336.00
1080.150, 12181.00
1081.251, 12205.36
1082.351, 12231.00
1083.451, 12127.00
1084.551, 12176.00
1085.651, 12218.00
1086.750, 12221.00
1087.850, 12252.00
1088.949, 12252.00
1090.048, 12206.00
1091.147, 12167.00
1092.246, 12177.00
1093.345, 12304.00
1094.443, 12284.00
1095.541, 12292.83
1096.639, 12325.00
1097.737, 12266.00
1098.835, 12146.00
1099.933, 12159.00
1101.030, 12216.00
1102.128, 12136.00
1103.225, 12156.00
1104.322, 12127.00
1105.419, 12139.00
1106.515, 12104.00
1107.612, 12204.00
1108.708, 12178.00
1109.804, 12038.00
1110.900, 12057.00
1111.996, 12203.00
1113.092, 12210.00
1114.187, 12319.00
1115.283, 12309.26
1116.378, 12123.00
1117.473, 12256.00
1118.568, 12249.00
1119.662, 12197.00
1120.757, 12319.00
1121.851, 12112.00
1122.946, 12169.00
1124.040, 12163.00
1125.134, 12151.00
1126.227, 12098.00
1127.321, 12007.00
1128.414, 12142.00
1129.508, 12066.00
1130.601, 12123.00
1131.693, 12135.00
1132.786, 12042.00
1133.879, 12174.00
1134.971, 12131.00
1136.064, 12080.00
1137.156, 12006.00
1138.248, 12016.00
1139.339, 12083.00
1140.431, 12069.00
1141.522, 12088.00
1142.614, 12126.00
1143.705, 11996.00
1144.796, 12061.00
1145.887, 11983.00
1146.977, 12033.00
1148.068, 12081.00
1149.158, 12062.00
1150.248, 12066.02
1151.338, 12102.85
1152.428, 12119.22
1153.518, 12116.25
1154.607, 12035.99
1155.696, 12055.54
1156.785, 12035.09
1157.874, 12013.00
1158.963, 12046.60
1160.052, 11977.58
1161.141, 12010.30
1162.229, 12002.42
1163.317, 12013.12
1164.405, 11983.57
1165.493, 11966.46
1166.581, 11989.61
1167.668, 11990.47
1168.756, 11956.29
1169.843, 11968.18
1170.930, 11897.77
1172.017, 11899.59
1173.103, 11999.00
1174.190, 11913.00
1175.276, 12022.00
1176.363, 11947.00
1177.449, 11929.00
1178.535, 11931.00
1179.620, 11891.67
1180.706, 11887.00
1181.791, 11872.00
1182.877, 11881.00
1183.962, 11898.00
1185.047, 11890.00
1186.131, 11882.99
1187.216, 11872.00
1188.300, 11853.00
1189.385, 11765.00
1190.469, 11751.00
1191.553, 11916.00
1192.637, 11837.00
1193.720, 11841.00
1194.804, 11923.00
1195.887, 11918.00
1196.970, 11935.98
1198.053, 11981.00
1199.136, 11936.00
1200.219, 11984.00
1201.301, 11972.00
1202.383, 11864.00
1203.465, 11854.00
1204.547, 11781.00
1205.629, 11889.00
1206.711, 11770.00
1207.792, 11836.00
1208.874, 11970.00
1209.955, 11920.00
1211.036, 11917.00
1212.117, 11810.00
1213.198, 11931.00
1214.278, 11869.00
1215.359, 11879.00
1216.439, 11780.00
1217.519, 11849.00
1218.599, 11841.40
1219.678, 11860.88
1220.758, 11845.00
1221.837, 11960.00
1222.917, 11849.00
1223.996, 11923.00
1225.075, 11955.00
1226.153, 11845.00
1227.232, 11969.00
1228.310, 11915.00
1229.389, 11908.00
1230.467, 11871.00
1231.545, 11839.00
1232.622, 11899.00
1233.700, 11935.00
1234.777, 11807.00
1235.855, 11817.00
1236.932, 11971.00
1238.009, 11772.00
1239.086, 11904.00
1240.162, 11911.00
1241.239, 11766.00
1242.315, 11897.00
1243.391, 12023.00
1244.467, 11850.00
1245.543, 11885.00
1246.619, 11862.00
1247.694, 11874.00
1248.769, 11853.00
1249.844, 11958.00
1250.919, 11846.00
1251.994, 11771.00
1253.069, 12022.00
1254.144, 11969.00
1255.218, 11781.00
1256.292, 11863.00
1257.366, 11753.00
1258.440, 12045.00
1259.514, 11898.00
1260.587, 12035.00
1261.661, 11863.00
1262.734, 11702.00
1263.807, 11766.00
1264.880, 11890.00
1265.952, 11845.00
1267.025, 11687.00
1268.097, 11847.00
1269.170, 11773.00
1270.242, 11797.00
1271.314, 11837.00
1272.385, 11890.00
1273.457, 11855.00
1274.528, 11868.21
1275.600, 11890.00
1276.671, 11810.00
1277.742, 11836.00
1278.812, 11772.00
1279.883, 11792.84
1280.954, 11911.00
1282.024, 11809.00
1283.094, 11908.00
1284.164, 11862.00
1285.234, 11885.00
1286.303, 11891.00
1287.373, 11839.00
1288.442, 11976.00
1289.511, 11815.00
1290.580, 11844.00
1291.649, 11856.00
1292.718, 11959.00
1293.786, 11767.00
1294.855, 11783.00
1295.923, 12033.00
1296.991, 11820.00
1298.059, 11899.00
1299.126, 11803.00
1300.194, 12109.00
1301.261, 11899.00
1302.328, 11928.00
1303.395, 11956.00
1304.462, 11888.00
1305.529, 11846.00
1306.596, 11788.00
1307.662, 11992.00
1308.728, 11883.00
1309.794, 12137.00
1310.860, 11844.00
1311.926, 11963.00
1312.991, 11896.00
1314.057, 11889.00
1315.122, 11894.00
1316.187, 11848.00
1317.252, 11834.00
1318.317, 11903.00
1319.381, 11953.00
1320.446, 11803.00
1321.510, 11993.00
1322.574, 11961.00
1323.638, 11830.00
1324.702, 11963.00
1325.766, 11871.00
1326.829, 12017.00
1327.892, 11989.00
1328.956, 12005.00
1330.019, 12082.00
1331.081, 11862.00
1332.144, 12068.00
1333.206, 11895.00
1334.269, 11975.00
1335.331, 11996.00
1336.393, 11916.00
1337.455, 11947.00
1338.516, 11996.00
1339.578, 12018.00
1340.639, 12096.00
1341.701, 12016.00
1342.762, 11880.00
1343.822, 11967.00
1344.883, 11984.00
1345.944, 12038.00
1347.004, 11877.00
1348.064, 11924.00
1349.124, 11982.00
1350.184, 11968.00
1351.244, 12019.00
1352.304, 11964.00
1353.363, 11972.82
1354.422, 12069.00
1355.481, 11961.00
1356.540, 11994.00
1357.599, 12027.00
1358.657, 11964.00
1359.716, 11898.00
1360.774, 12020.00
1361.832, 11993.00
1362.890, 11895.00
1363.948, 12033.00
1365.006, 11986.00
1366.063, 12005.00
1367.120, 11982.00
1368.178, 11901.00
1369.234, 12049.00
1370.291, 11924.00
1371.348, 11871.00
1372.404, 11991.00
1373.461, 12067.00
1374.517, 11925.00
1375.573, 12023.00
1376.629, 11957.00
1377.684, 11883.00
1378.740, 12101.00
1379.795, 11858.00
1380.850, 12002.00
1381.905, 12046.00
1382.960, 11958.00
1384.015, 12022.00
1385.070, 12066.00
1386.124, 11896.00
1387.178, 11989.00
1388.232, 11981.00
1389.286, 12029.00
1390.340, 11913.00
1391.393, 11847.00
1392.447, 12112.00
1393.500, 11973.00
1394.553, 11984.00
1395.606, 11931.00
1396.659, 12070.00
1397.711, 12037.00
1398.764, 12159.00
1399.816, 12078.00
1400.868, 12086.00
1401.920, 12002.00
1402.972, 12003.26
1404.023, 12125.00
1405.075, 11985.00
1406.126, 12043.00
1407.177, 12017.00
1408.228, 11951.00
1409.279, 11921.00
1410.330, 12019.00
1411.380, 11963.39
1412.431, 12070.00
1413.481, 12006.00
1414.531, 12003.00
1415.580, 12113.00
1416.630, 12046.00
1417.680, 12021.00
1418.729, 12163.00
1419.778, 12032.00
1420.827, 12055.00
1421.876, 12183.00
1422.925, 11914.00
1423.973, 11996.00
1425.022, 11903.00
1426.070, 12027.00
1427.118, 11959.00
1428.166, 12158.00
1429.214, 12167.00
1430.261, 12357.00
1431.309, 12067.00
1432.356, 12029.00
1433.403, 12244.00
1434.450, 12008.00
1435.497, 12104.00
1436.543, 11998.00
1437.590, 12038.00
1438.636, 12196.00
1439.682, 12157.00
1440.728, 12230.00
1441.774, 12165.00
1442.819, 12127.00
1443.865, 12078.00
1444.910, 12095.00
1445.955, 12181.00
1447.000, 12280.00
1448.045, 12206.00
1449.090, 12102.00
1450.134, 12085.00
1451.178, 12175.00
1452.223, 12137.89
1453.267, 12178.55
1454.310, 12207.00
1455.354, 12182.00
1456.398, 12236.00
1457.441, 12149.00
1458.484, 12137.00
1459.527, 12142.00
1460.570, 12207.00
1461.613, 12161.00
1462.655, 12103.00
1463.698, 12030.00
1464.740, 12031.68
1465.782, 12010.67
1466.824, 12065.00
1467.866, 12037.00
1468.907, 12124.00
1469.948, 12165.00
1470.990, 12268.00
1472.031, 12144.00
1473.072, 12295.00
1474.112, 12275.00
1475.153, 12048.00
1476.194, 12359.00
1477.234, 12142.00
1478.274, 12154.00
1479.314, 12208.00
1480.354, 12124.00
1481.393, 12079.00
1482.433, 12233.00
1483.472, 12056.00
1484.511, 12174.00
1485.550, 12135.00
1486.589, 12066.00
1487.628, 12213.00
1488.666, 12281.00
1489.704, 12164.00
1490.743, 12233.00
1491.781, 12241.00
1492.819, 12320.00
1493.856, 12266.75
1494.894, 12085.00
1495.931, 12185.00
1496.968, 12191.00
1498.005, 12216.00
1499.042, 12310.00
1500.079, 12175.00
1501.115, 12118.00
1502.152, 12262.00
1503.188, 12166.00
1504.224, 11979.00
1505.260, 12295.00
1506.296, 12188.00
1507.331, 12108.00
1508.367, 12225.00
1509.402, 12183.00
1510.437, 12245.00
1511.472, 12356.00
1512.507, 12230.00
1513.541, 12146.00
1514.576, 12158.00
1515.610, 12294.00
1516.644, 12286.00
1517.678, 12433.00
1518.712, 12285.00
1519.746, 12161.00
1520.779, 12159.00
1521.813, 12375.00
1522.846, 12172.00
1523.879, 12241.00
1524.912, 12265.00
1525.944, 12170.00
1526.977, 12254.00
1528.009, 12160.00
1529.041, 12178.00
1530.073, 12184.00
1531.105, 12239.00
1532.137, 12207.00
1533.168, 12166.00
1534.200, 12286.00
1535.231, 12235.00
1536.262, 12371.00
1537.293, 12409.00
1538.324, 12238.00
1539.354, 12162.00
1540.385, 12123.00
1541.415, 12261.00
1542.445, 12303.00
1543.475, 12182.00
1544.505, 12218.00
1545.534, 12245.00
1546.564, 12172.00
1547.593, 12149.00
1548.622, 12286.00
1549.651, 12376.00
1550.680, 12411.00
1551.708, 12691.00
1552.737, 12792.00
1553.765, 12833.00
1554.793, 12688.00
1555.821, 12414.00
1556.849, 12385.00
1557.877, 12115.00
1558.904, 12180.00
1559.932, 12289.00
1560.959, 12229.00
1561.986, 12341.00
1563.013, 12214.00
##END=



