##NAMES=Columbite-(Fe)
##RRUFFID=R050348
##IDEAL CHEMISTRY=Fe^2+^Nb^5+^_2_O_6_
##LOCALITY=Lord Hill mine, Stoneham, Oxford County, Maine, USA
##OWNER=RRUFF
##SOURCE=California Institute of Technology
##DESCRIPTION=Black fragment
##STATUS=The identification of this mineral has been confirmed by X-ray diffraction and chemical analysis
##URL=rruff.info/R050348
##MEASURED CHEMISTRY=(Fe^2+^_0.69_Mn^2+^_0.30_Ti_0.01_)(Nb_0.89_Ta_0.10_Ti_0.01_)_2_O_6_
##PIN_ID=L01882
##ORIENTATION=Laser parallel to -a* (-1 0 0). Fiducial mark perpendicular to laser is parallel to b [0 1 0]
221.0220, 14516.00
222.2400, 14507.00
223.4590, 14447.00
224.6770, 14330.00
225.8950, 14490.00
227.1120, 14600.00
228.3300, 14524.00
229.5480, 14580.00
230.7650, 14826.00
231.9820, 14842.00
233.1990, 15045.00
234.4160, 14905.00
235.6330, 15084.00
236.8490, 15119.00
238.0660, 15191.00
239.2820, 15366.00
240.4980, 15584.00
241.7140, 15362.00
242.9300, 15630.00
244.1460, 15472.00
245.3610, 15617.00
246.5770, 15523.00
247.7920, 15621.00
249.0070, 15491.00
250.2220, 15464.33
251.4370, 15561.78
252.6510, 15624.51
253.8660, 15654.41
255.0800, 15553.07
256.2940, 15621.17
257.5080, 15621.37
258.7220, 15618.79
259.9360, 15710.74
261.1490, 15628.47
262.3630, 15718.92
263.5760, 15740.42
264.7890, 15793.47
266.0020, 15844.00
267.2150, 15817.00
268.4270, 15738.00
269.6400, 15730.00
270.8520, 15655.00
272.0640, 15658.00
273.2760, 15727.00
274.4880, 15539.00
275.7000, 15716.00
276.9120, 15529.00
278.1230, 15452.00
279.3340, 15508.00
280.5450, 15534.00
281.7560, 15363.00
282.9670, 15334.00
284.1780, 15163.00
285.3880, 15240.00
286.5980, 15141.00
287.8090, 14873.00
289.0190, 15066.00
290.2290, 14846.00
291.4380, 14793.00
292.6480, 14779.00
293.8570, 14775.00
295.0670, 14748.00
296.2760, 14676.00
297.4850, 14501.00
298.6930, 14447.00
299.9020, 14289.33
301.1110, 14350.39
302.3190, 14376.75
303.5270, 14370.26
304.7350, 14232.56
305.9430, 14264.30
307.1510, 14228.14
308.3580, 14189.20
309.5660, 14244.79
310.7730, 14126.19
311.9800, 14180.29
313.1870, 14165.45
314.3940, 14182.17
315.6010, 14130.56
316.8070, 14100.07
318.0130, 14137.93
319.2200, 14137.92
320.4260, 14078.46
321.6310, 14097.21
322.8370, 13976.24
324.0430, 13977.87
325.2480, 14032.40
326.4540, 13976.38
327.6590, 13996.38
328.8640, 13987.43
330.0680, 13846.94
331.2730, 13935.22
332.4780, 13924.57
333.6820, 13812.33
334.8860, 13892.79
336.0900, 13794.56
337.2940, 13760.11
338.4980, 13773.66
339.7010, 13737.19
340.9050, 13779.59
342.1080, 13519.00
343.3110, 13652.00
344.5140, 13640.00
345.7170, 13597.00
346.9200, 13672.00
348.1220, 13563.00
349.3240, 13669.00
350.5270, 13629.00
351.7290, 13806.00
352.9310, 13876.00
354.1320, 13786.00
355.3340, 13674.00
356.5350, 13799.00
357.7370, 13817.00
358.9380, 14181.00
360.1390, 14272.00
361.3400, 14143.87
362.5400, 14315.00
363.7410, 13896.00
364.9410, 13856.00
366.1410, 13967.00
367.3410, 13876.00
368.5410, 14034.00
369.7410, 13835.00
370.9400, 14016.00
372.1400, 14289.00
373.3390, 14312.00
374.5380, 14212.00
375.7370, 14324.00
376.9360, 14300.00
378.1350, 14318.00
379.3330, 14364.00
380.5310, 14500.00
381.7300, 14451.28
382.9280, 14380.00
384.1260, 14527.00
385.3230, 14623.00
386.5210, 14910.00
387.7180, 14911.00
388.9160, 14850.00
390.1130, 14844.00
391.3100, 14773.00
392.5060, 14972.00
393.7030, 14879.00
394.9000, 14811.00
396.0960, 14928.00
397.2920, 14813.00
398.4880, 14854.13
399.6840, 14686.00
400.8800, 14840.00
402.0750, 14655.00
403.2710, 14570.00
404.4660, 14497.00
405.6610, 14310.00
406.8560, 14301.00
408.0510, 14308.00
409.2450, 14263.00
410.4400, 14132.00
411.6340, 14194.00
412.8280, 14168.00
414.0220, 14245.00
415.2160, 13974.00
416.4100, 13904.00
417.6030, 13896.00
418.7970, 14011.00
419.9900, 13984.00
421.1830, 14007.00
422.3760, 13854.00
423.5690, 13944.00
424.7610, 13913.00
425.9540, 14030.00
427.1460, 14011.00
428.3380, 13828.00
429.5300, 13940.00
430.7220, 13982.00
431.9140, 13822.00
433.1050, 13998.00
434.2970, 14081.00
435.4880, 13779.00
436.6790, 13947.00
437.8700, 14013.00
439.0610, 13967.00
440.2510, 14019.00
441.4420, 14105.00
442.6320, 13995.00
443.8220, 14142.47
445.0120, 14148.00
446.2020, 14240.00
447.3910, 14289.00
448.5810, 14140.00
449.7700, 14270.00
450.9600, 14083.00
452.1490, 14248.00
453.3370, 14162.00
454.5260, 14253.00
455.7150, 14352.00
456.9030, 14297.00
458.0910, 14439.00
459.2800, 14274.00
460.4670, 14356.00
461.6550, 14386.00
462.8430, 14511.00
464.0300, 14354.00
465.2180, 14292.00
466.4050, 14402.00
467.5920, 14426.00
468.7790, 14485.00
469.9650, 14346.00
471.1520, 14381.00
472.3380, 14461.00
473.5250, 14317.00
474.7110, 14409.00
475.8970, 14317.00
477.0820, 14373.00
478.2680, 14364.00
479.4540, 14365.00
480.6390, 14378.00
481.8240, 14322.00
483.0090, 14391.00
484.1940, 14435.00
485.3780, 14289.00
486.5630, 14322.00
487.7470, 14388.00
488.9320, 14333.00
490.1160, 14364.00
491.3000, 14197.00
492.4830, 14390.00
493.6670, 14285.00
494.8500, 14365.00
496.0340, 14196.00
497.2170, 14341.00
498.4000, 14345.00
499.5820, 14326.00
500.7650, 14344.00
501.9480, 14348.70
503.1300, 14184.00
504.3120, 14364.00
505.4940, 14335.00
506.6760, 14313.00
507.8580, 14466.00
509.0390, 14377.00
510.2210, 14373.00
511.4020, 14494.00
512.5830, 14603.00
513.7640, 14512.00
514.9450, 14645.00
516.1250, 14781.00
517.3060, 14646.00
518.4860, 14585.00
519.6660, 14655.00
520.8460, 14694.00
522.0260, 14941.00
523.2060, 14901.00
524.3850, 14941.18
525.5650, 14984.00
526.7440, 14878.00
527.9230, 14890.00
529.1020, 14824.00
530.2810, 14900.00
531.4590, 14883.00
532.6380, 14884.00
533.8160, 14873.00
534.9940, 15089.00
536.1720, 14926.57
537.3500, 14723.00
538.5270, 14799.00
539.7050, 14483.00
540.8820, 14563.00
542.0590, 14598.00
543.2360, 14489.00
544.4130, 14496.00
545.5900, 14377.00
546.7660, 14527.00
547.9430, 14518.00
549.1190, 14390.00
550.2950, 14538.00
551.4710, 14399.00
552.6470, 14337.00
553.8220, 14379.00
554.9980, 14368.00
556.1730, 14378.52
557.3480, 14456.06
558.5230, 14498.89
559.6980, 14508.87
560.8730, 14387.63
562.0470, 14435.84
563.2220, 14416.14
564.3960, 14393.66
565.5700, 14465.72
566.7440, 14363.57
567.9170, 14434.13
569.0910, 14435.74
570.2640, 14468.91
571.4380, 14433.76
572.6110, 14419.70
573.7840, 14474.00
574.9570, 14490.45
576.1290, 14447.43
577.3020, 14482.61
578.4740, 14378.08
579.6460, 14396.14
580.8180, 14467.10
581.9900, 14427.52
583.1620, 14463.95
584.3330, 14471.42
585.5040, 14312.48
586.6760, 14436.00
587.8470, 14362.25
589.0180, 14346.91
590.1880, 14304.00
591.3590, 14263.00
592.5290, 14221.00
593.7000, 14154.00
594.8700, 14062.00
596.0400, 14240.00
597.2090, 14123.00
598.3790, 14397.00
599.5490, 14307.00
600.7180, 14305.00
601.8870, 14206.00
603.0560, 14208.21
604.2250, 14192.00
605.3940, 14253.00
606.5620, 14265.00
607.7300, 14401.00
608.8990, 14389.00
610.0670, 14440.00
611.2350, 14336.00
612.4020, 14476.00
613.5700, 14278.00
614.7370, 14323.00
615.9050, 14415.00
617.0720, 14291.00
618.2390, 14339.00
619.4060, 14482.00
620.5720, 14381.00
621.7390, 14334.00
622.9050, 14545.00
624.0710, 14326.00
625.2370, 14377.00
626.4030, 14609.00
627.5690, 14577.00
628.7340, 14513.00
629.9000, 14658.00
631.0650, 14641.00
632.2300, 14569.00
633.3950, 15274.00
634.5600, 14588.00
635.7240, 14987.00
636.8890, 14721.00
638.0530, 14644.00
639.2170, 14564.00
640.3810, 14587.00
641.5450, 14603.00
642.7080, 14650.00
643.8720, 14543.00
645.0350, 14551.00
646.1980, 14709.00
647.3610, 14841.00
648.5240, 14789.00
649.6870, 14493.00
650.8490, 14733.00
652.0120, 14625.00
653.1740, 14566.00
654.3360, 14760.00
655.4980, 14615.00
656.6600, 14780.00
657.8210, 14729.00
658.9830, 14525.00
660.1440, 14921.00
661.3050, 14751.32
662.4660, 14720.00
663.6270, 14777.00
664.7870, 14647.00
665.9480, 14679.00
667.1080, 14786.00
668.2680, 14773.00
669.4280, 14714.00
670.5880, 14819.00
671.7480, 14887.00
672.9070, 14785.00
674.0670, 14968.00
675.2260, 14774.00
676.3850, 14913.00
677.5440, 14858.00
678.7030, 14992.00
679.8610, 14899.00
681.0200, 14852.00
682.1780, 14751.00
683.3360, 14889.00
684.4940, 14940.00
685.6520, 15077.00
686.8090, 15073.12
687.9670, 14993.00
689.1240, 15051.00
690.2810, 14998.00
691.4380, 14970.00
692.5950, 14984.32
693.7520, 15073.00
694.9080, 15060.00
696.0650, 15045.00
697.2210, 15265.00
698.3770, 15183.92
699.5330, 15239.60
700.6880, 15243.00
701.8440, 15210.00
702.9990, 15377.00
704.1550, 15305.00
705.3100, 15524.00
706.4650, 15348.00
707.6190, 15379.00
708.7740, 15572.00
709.9290, 15536.00
711.0830, 15671.00
712.2370, 15728.00
713.3910, 15515.00
714.5450, 15582.00
715.6980, 15676.00
716.8520, 15765.00
718.0050, 15760.00
719.1580, 15842.00
720.3110, 15882.75
721.4640, 15783.00
722.6170, 15953.00
723.7700, 16101.00
724.9220, 16092.00
726.0740, 15969.00
727.2260, 16099.00
728.3780, 16111.45
729.5300, 16129.00
730.6810, 16271.00
731.8330, 16292.00
732.9840, 16343.00
734.1350, 16301.00
735.2860, 16488.00
736.4370, 16515.00
737.5880, 16539.00
738.7380, 16715.00
739.8880, 16601.00
741.0390, 16717.46
742.1890, 16729.00
743.3380, 16884.00
744.4880, 16877.00
745.6380, 17088.00
746.7870, 17121.84
747.9360, 17190.00
749.0850, 17159.00
750.2340, 17286.00
751.3830, 17328.88
752.5310, 17411.00
753.6800, 17507.00
754.8280, 17515.00
755.9760, 17647.00
757.1240, 17650.95
758.2720, 17634.00
759.4190, 17668.00
760.5670, 17719.00
761.7140, 17681.00
762.8610, 17729.75
764.0080, 17888.00
765.1550, 17806.00
766.3020, 18057.00
767.4480, 18187.00
768.5950, 18137.00
769.7410, 18081.00
770.8870, 18205.00
772.0330, 18142.00
773.1780, 18358.00
774.3240, 18199.00
775.4690, 18358.00
776.6140, 18564.00
777.7590, 18414.93
778.9040, 18435.00
780.0490, 18418.00
781.1940, 18377.00
782.3380, 18410.43
783.4820, 18346.09
784.6260, 18460.00
785.7700, 18319.00
786.9140, 18356.91
788.0580, 18497.08
789.2010, 18489.00
790.3450, 18758.00
791.4880, 18992.00
792.6310, 18618.00
793.7730, 18693.00
794.9160, 18539.00
796.0590, 18539.00
797.2010, 18551.00
798.3430, 18850.00
799.4850, 18578.00
800.6270, 18662.00
801.7690, 18895.00
802.9100, 18698.00
804.0520, 18673.00
805.1930, 18873.00
806.3340, 18913.00
807.4750, 18923.00
808.6160, 18957.00
809.7560, 18912.00
810.8970, 18962.62
812.0370, 19137.00
813.1770, 19072.00
814.3170, 19186.00
815.4570, 19347.00
816.5960, 19231.00
817.7360, 19541.00
818.8750, 19502.00
820.0140, 19588.00
821.1530, 19720.00
822.2920, 19745.49
823.4310, 19809.00
824.5690, 19891.00
825.7070, 19996.00
826.8460, 20055.00
827.9840, 20154.00
829.1220, 20268.00
830.2590, 20548.00
831.3970, 20424.00
832.5340, 20446.00
833.6710, 20872.00
834.8080, 20784.00
835.9450, 20917.00
837.0820, 21117.00
838.2190, 21369.00
839.3550, 21569.13
840.4910, 21859.00
841.6270, 22002.00
842.7630, 22290.00
843.8990, 22402.00
845.0350, 22728.33
846.1700, 23227.00
847.3060, 23377.00
848.4410, 23776.00
849.5760, 24150.00
850.7100, 24525.97
851.8450, 25010.00
852.9800, 25497.00
854.1140, 26059.00
855.2480, 26720.00
856.3820, 27270.15
857.5160, 27929.71
858.6500, 28549.00
859.7830, 29264.00
860.9170, 30037.00
862.0500, 30782.00
863.1830, 31441.00
864.3160, 32571.00
865.4480, 32922.00
866.5810, 33520.00
867.7130, 34069.00
868.8460, 34153.00
869.9780, 34595.00
871.1100, 34036.00
872.2410, 33799.00
873.3730, 32752.00
874.5050, 32106.00
875.6360, 30659.00
876.7670, 29246.00
877.8980, 28070.00
879.0290, 26545.00
880.1590, 24882.00
881.2900, 23554.00
882.4200, 22360.00
883.5500, 21115.00
884.6800, 20131.00
885.8100, 18878.00
886.9400, 18176.00
888.0690, 17619.00
889.1990, 17240.00
890.3280, 16627.00
891.4570, 16238.00
892.5860, 15984.00
893.7140, 15656.00
894.8430, 15326.83
895.9710, 15068.86
897.1000, 14770.00
898.2280, 14529.00
899.3560, 14440.00
900.4830, 14204.00
901.6110, 14013.00
902.7380, 13947.00
903.8660, 13708.00
904.9930, 13696.00
906.1200, 13594.00
907.2460, 13437.00
908.3730, 13368.00
909.5000, 13368.00
910.6260, 13222.00
911.7520, 13313.00
912.8780, 13244.00
914.0040, 13232.00
915.1290, 13170.32
916.2550, 13088.61
917.3800, 12999.00
918.5050, 12945.00
919.6300, 12894.00
920.7550, 12862.16
921.8800, 12830.00
923.0040, 12855.00
924.1290, 12853.00
925.2530, 12802.54
926.3770, 12726.00
927.5010, 12698.00
928.6250, 12616.00
929.7480, 12555.44
930.8720, 12673.00
931.9950, 12528.00
933.1180, 12553.00
934.2410, 12634.00
935.3640, 12586.00
936.4860, 12578.00
937.6090, 12437.00
938.7310, 12518.00
939.8530, 12614.00
940.9750, 12425.00
942.0970, 12444.00
943.2180, 12444.00
944.3400, 12471.00
945.4610, 12436.94
946.5820, 12323.00
947.7030, 12369.00
948.8240, 12285.00
949.9450, 12250.00
951.0650, 12372.00
952.1860, 12157.00
953.3060, 12308.00
954.4260, 12350.00
955.5460, 12387.00
956.6650, 12366.27
957.7850, 12305.00
958.9040, 12263.00
960.0230, 12261.00
961.1420, 12280.00
962.2610, 12252.00
963.3800, 12290.00
964.4990, 12349.00
965.6170, 12343.23
966.7350, 12349.53
967.8530, 12346.00
968.9710, 12338.00
970.0890, 12264.00
971.2070, 12303.00
972.3240, 12294.00
973.4410, 12363.00
974.5580, 12279.00
975.6750, 12345.00
976.7920, 12282.00
977.9090, 12158.00
979.0250, 12330.00
980.1410, 12322.00
981.2580, 12294.79
982.3740, 12498.00
983.4890, 12279.00
984.6050, 12454.00
985.7200, 12516.00
986.8360, 12242.00
987.9510, 12481.00
989.0660, 12376.00
990.1810, 12400.00
991.2950, 12411.00
992.4100, 12350.35
993.5240, 12379.00
994.6390, 12277.00
995.7530, 12394.00
996.8660, 12355.00
997.9800, 12440.00
999.0940, 12347.00
1000.207, 12436.00
1001.320, 12377.00
1002.433, 12407.00
1003.546, 12378.00
1004.659, 12370.00
1005.772, 12514.00
1006.884, 12315.00
1007.996, 12397.00
1009.108, 12351.00
1010.220, 12235.00
1011.332, 12238.00
1012.444, 12466.00
1013.555, 12419.00
1014.666, 12337.00
1015.777, 12285.00
1016.888, 12264.00
1017.999, 12344.00
1019.110, 12440.00
1020.220, 12320.00
1021.331, 12338.00
1022.441, 12325.00
1023.551, 12281.00
1024.661, 12222.00
1025.770, 12254.00
1026.880, 12275.00
1027.989, 12231.00
1029.098, 12342.00
1030.207, 12277.00
1031.316, 12256.08
1032.425, 12414.00
1033.533, 12219.00
1034.642, 12242.00
1035.750, 12369.00
1036.858, 12280.00
1037.966, 12369.00
1039.073, 12277.00
1040.181, 12364.00
1041.288, 12316.00
1042.396, 12358.00
1043.503, 12326.00
1044.610, 12363.00
1045.716, 12431.00
1046.823, 12266.00
1047.929, 12404.00
1049.036, 12343.00
1050.142, 12418.00
1051.248, 12346.00
1052.353, 12495.00
1053.459, 12421.00
1054.564, 12368.00
1055.670, 12446.00
1056.775, 12502.00
1057.880, 12432.00
1058.985, 12498.00
1060.089, 12535.00
1061.194, 12449.00
1062.298, 12393.00
1063.402, 12405.00
1064.506, 12391.38
1065.610, 12520.00
1066.713, 12471.00
1067.817, 12545.00
1068.920, 12644.00
1070.023, 12417.00
1071.126, 12547.00
1072.229, 12525.00
1073.332, 12306.00
1074.435, 12417.00
1075.537, 12557.00
1076.639, 12366.00
1077.741, 12359.00
1078.843, 12413.00
1079.945, 12544.00
1081.046, 12482.00
1082.148, 12392.00
1083.249, 12461.00
1084.350, 12462.00
1085.451, 12398.00
1086.551, 12514.00
1087.652, 12475.00
1088.752, 12386.00
1089.853, 12292.00
1090.953, 12386.00
1092.053, 12345.00
1093.152, 12363.00
1094.252, 12365.00
1095.351, 12430.00
1096.451, 12455.00
1097.550, 12525.00
1098.649, 12679.98
1099.748, 12729.50
1100.846, 12811.28
1101.945, 12839.00
1103.043, 12905.00
1104.141, 12792.00
1105.239, 12760.00
1106.337, 13017.00
1107.434, 12647.00
1108.532, 12840.00
1109.629, 12909.00
1110.726, 12344.00
1111.823, 12309.00
1112.920, 12401.00
1114.017, 12330.00
1115.113, 12422.00
1116.210, 12354.00
1117.306, 12414.00
1118.402, 12806.00
1119.498, 12694.00
1120.593, 12800.00
1121.689, 12806.00
1122.784, 12838.00
1123.879, 12635.00
1124.974, 12685.00
1126.069, 12562.00
1127.164, 12473.00
1128.259, 12492.00
1129.353, 12443.00
1130.447, 12341.00
1131.541, 12288.00
1132.635, 12290.00
1133.729, 12237.00
1134.822, 12185.00
1135.916, 12096.00
1137.009, 12083.64
1138.102, 12301.00
1139.195, 12050.00
1140.288, 12233.00
1141.380, 12250.00
1142.473, 12198.00
1143.565, 12255.98
1144.657, 12214.55
1145.749, 12251.00
1146.841, 12167.00
1147.932, 12224.00
1149.024, 12201.00
1150.115, 12182.00
1151.206, 12178.92
1152.297, 12199.00
1153.388, 12141.00
1154.479, 12138.00
1155.569, 12150.00
1156.659, 12054.00
1157.750, 12250.00
1158.839, 12137.00
1159.929, 12102.00
1161.019, 12231.00
1162.108, 12092.00
1163.198, 12353.00
1164.287, 12187.00
1165.376, 12043.00
1166.465, 12192.00
1167.553, 12160.00
1168.642, 12169.00
1169.730, 12249.00
1170.818, 12362.00
1171.906, 12280.00
1172.994, 12286.34
1174.082, 12195.43
1175.170, 12245.00
1176.257, 12189.08
1177.344, 12150.00
1178.431, 12146.00
1179.518, 12103.00
1180.605, 12125.00
1181.691, 12174.00
1182.778, 12119.00
1183.864, 12161.00
1184.950, 12226.00
1186.036, 12118.00
1187.122, 12129.00
1188.207, 12107.00
1189.292, 12254.00
1190.378, 12111.00
1191.463, 12183.00
1192.548, 12275.00
1193.632, 12026.00
1194.717, 12186.00
1195.801, 12098.00
1196.886, 12142.00
1197.970, 12179.02
1199.054, 12200.00
1200.137, 12262.00
1201.221, 12143.00
1202.305, 12269.00
1203.388, 12298.00
1204.471, 12168.00
1205.554, 12216.00
1206.637, 12002.00
1207.719, 12185.00
1208.802, 12271.00
1209.884, 12156.00
1210.966, 12157.00
1212.048, 12086.00
1213.130, 12242.00
1214.212, 12270.00
1215.293, 12076.00
1216.374, 12144.00
1217.456, 12387.00
1218.536, 12209.00
1219.617, 12274.00
1220.698, 12273.00
1221.778, 12260.00
1222.859, 12124.00
1223.939, 12193.00
1225.019, 12179.00
1226.099, 12163.26
1227.178, 12186.03
1228.258, 12211.00
1229.337, 12195.00
1230.417, 12271.00
1231.496, 12305.00
1232.574, 12352.00
1233.653, 12267.00
1234.732, 12268.00
1235.810, 12293.00
1236.888, 12291.00
1237.966, 12327.00
1239.044, 12398.00
1240.122, 12420.00
1241.199, 12438.12
1242.277, 12360.00
1243.354, 12451.00
1244.431, 12305.00
1245.508, 12305.00
1246.585, 12494.00
1247.661, 12354.00
1248.738, 12260.00
1249.814, 12388.00
1250.890, 12418.00
1251.966, 12367.00
1253.042, 12332.00
1254.117, 12380.00
1255.193, 12382.00
1256.268, 12346.00
1257.343, 12146.00
1258.418, 12371.00
1259.493, 12497.00
1260.567, 12319.00
1261.642, 12276.00
1262.716, 12361.00
1263.790, 12392.00
1264.864, 12313.00
1265.938, 12446.00
1267.011, 12209.00
1268.085, 12448.00
1269.158, 12421.00
1270.231, 12501.00
1271.304, 12552.00
1272.377, 12445.00
1273.450, 12392.00
1274.522, 12483.00
1275.594, 12398.00
1276.666, 12476.00
1277.738, 12389.00
1278.810, 12350.00
1279.882, 12331.00
1280.953, 12320.00
1282.025, 12492.00
1283.096, 12485.00
1284.167, 12304.00
1285.238, 12601.00
1286.308, 12539.00
1287.379, 12324.00
1288.449, 12534.00
1289.519, 12422.00
1290.589, 12532.00
1291.659, 12679.00
1292.729, 12511.00
1293.798, 12671.00
1294.868, 12583.00
1295.937, 12486.00
1297.006, 12589.00
1298.075, 12625.00
1299.143, 12613.00
1300.212, 12646.00
1301.280, 12597.00
1302.348, 12562.00
1303.416, 12546.00
1304.484, 12539.91
1305.552, 12615.00
1306.620, 12561.00
1307.687, 12606.00
1308.754, 12625.00
1309.821, 12606.00
1310.888, 12659.00
1311.955, 12708.26
1313.021, 12792.00
1314.088, 12867.00
1315.154, 12543.00
1316.220, 12621.00
1317.286, 12888.00
1318.352, 13198.00
1319.417, 12888.00
1320.483, 12586.00
1321.548, 12689.00
1322.613, 12629.00
1323.678, 12825.00
1324.743, 12771.00
1325.807, 12783.00
1326.872, 12753.00
1327.936, 12817.00
1329.000, 12770.98
1330.064, 12694.00
1331.128, 12751.00
1332.191, 12819.00
1333.255, 12891.00
1334.318, 12732.00
1335.381, 12655.00
1336.444, 12690.00
1337.507, 12798.00
1338.569, 12783.00
1339.632, 12935.00
1340.694, 12784.00
1341.756, 12654.00
1342.818, 13039.00
1343.880, 12839.00
1344.941, 13439.00
1346.003, 13569.00
1347.064, 13823.00
1348.125, 12922.00
1349.186, 13020.00
1350.247, 12891.00
1351.308, 12725.00
1352.368, 12756.00
1353.428, 12991.00
1354.489, 12791.00
1355.549, 12931.00
1356.608, 12814.00
1357.668, 12965.00
1358.727, 12821.00
1359.787, 12892.00
1360.846, 12953.00
1361.905, 12923.00
1362.964, 12831.00
1364.022, 12852.00
1365.081, 12826.94
1366.139, 12813.00
1367.197, 12859.00
1368.255, 12898.00
1369.313, 12966.00
1370.371, 12919.00
1371.428, 13007.48
1372.486, 13034.27
1373.543, 13094.13
1374.600, 13109.00
1375.657, 13085.00
1376.713, 13071.00
1377.770, 13004.00
1378.826, 12978.00
1379.882, 13122.00
1380.938, 13012.00
1381.994, 13130.00
1383.050, 13065.00
1384.106, 12887.00
1385.161, 12909.00
1386.216, 12971.00
1387.271, 12929.00
1388.326, 12935.00
1389.381, 12918.08
1390.435, 12968.00
1391.490, 12916.00
1392.544, 12817.00
1393.598, 12937.00
1394.652, 13099.00
1395.705, 13014.00
1396.759, 12994.00
1397.812, 13026.00
1398.866, 13037.00
1399.919, 13053.00
1400.972, 13051.00
1402.024, 12977.00
1403.077, 13118.00
1404.129, 13092.00
1405.181, 13358.00
1406.233, 13156.18
1407.285, 13276.00
1408.337, 12927.00
1409.389, 12934.00
1410.440, 13079.00
1411.491, 12982.00
1412.542, 13035.00
1413.593, 13166.00
1414.644, 12949.00
1415.695, 13089.00
1416.745, 12982.00
1417.795, 13126.00
1418.845, 12889.00
1419.895, 12994.00
1420.945, 13044.00
1421.995, 13138.00
1423.044, 13017.00
1424.093, 13064.00
1425.142, 12995.00
1426.191, 13078.00
1427.240, 13011.00
1428.289, 12954.00
1429.337, 13025.00
1430.385, 13013.00
1431.433, 13001.88
1432.481, 13131.00
1433.529, 13012.00
1434.577, 13018.00
1435.624, 13087.00
1436.672, 13068.00
1437.719, 13025.00
1438.766, 13042.00
1439.812, 12901.00
1440.859, 13034.00
1441.905, 13165.00
1442.952, 13059.00
1443.998, 13059.00
1445.044, 13365.00
1446.090, 13193.77
1447.135, 13265.00
1448.181, 13139.00
1449.226, 13104.00
1450.271, 13150.00
1451.316, 13170.00
1452.361, 13104.00
1453.405, 13067.00
1454.450, 13054.00
1455.494, 13036.43
1456.538, 13141.00
1457.582, 13052.00
1458.626, 13110.00
1459.670, 13141.00
1460.713, 13114.00
1461.757, 12899.00
1462.800, 13332.00
1463.843, 13119.00
1464.886, 13056.00
1465.928, 13574.00
1466.971, 13201.00
1468.013, 13047.00
1469.055, 13168.00
1470.097, 13124.00
1471.139, 13236.00
1472.181, 13209.78
1473.222, 13394.00
1474.263, 13229.00
1475.305, 12986.00
1476.346, 13109.00
1477.386, 13203.00
1478.427, 13259.00
1479.468, 13136.00
1480.508, 13102.00
1481.548, 13157.00
1482.588, 13245.00
1483.628, 13295.00
1484.668, 13171.00
1485.707, 13264.00
1486.747, 13252.00
1487.786, 13208.00
1488.825, 13214.00
1489.864, 13306.00
1490.902, 13154.00
1491.941, 13278.00
1492.979, 13333.00
1494.017, 13179.00
1495.055, 13269.00
1496.093, 13397.00
1497.131, 13426.00
1498.168, 13211.00
1499.206, 13379.00
1500.243, 13207.00
1501.280, 13376.00
1502.317, 13317.00
1503.354, 13279.00
1504.390, 13257.00
1505.426, 13260.82
1506.463, 13223.00
1507.499, 13353.00
1508.535, 13338.00
1509.570, 13484.00
1510.606, 13412.00
1511.641, 13460.00
1512.676, 13549.00
1513.711, 13341.00
1514.746, 13503.00
1515.781, 13462.00
1516.816, 13407.00
1517.850, 13536.00
1518.884, 13525.00
1519.918, 13422.00
1520.952, 13483.00
1521.986, 13543.00
1523.019, 13657.00
1524.053, 13467.00
1525.086, 13600.00
1526.119, 13544.00
1527.152, 13565.00
1528.185, 13565.00
1529.217, 13632.00
1530.250, 13766.00
1531.282, 13576.00
1532.314, 13562.00
1533.346, 13634.00
1534.377, 13897.00
1535.409, 13872.00
1536.440, 13753.00
1537.472, 13863.00
1538.503, 13852.00
1539.534, 13945.00
1540.564, 13766.00
1541.595, 13784.00
1542.625, 13724.00
1543.656, 13770.00
1544.686, 13964.00
1545.716, 14247.00
1546.745, 13865.00
1547.775, 13809.00
1548.804, 14065.00
1549.834, 14030.00
1550.863, 14053.00
1551.892, 14384.00
1552.920, 14523.00
1553.949, 14778.00
1554.977, 14815.00
1556.006, 14554.00
1557.034, 14063.00
1558.062, 13845.00
1559.089, 14113.00
1560.117, 14037.00
1561.144, 14120.00
1562.172, 14090.00
1563.199, 14116.00
1564.226, 14079.00
1565.252, 14230.00
1566.279, 14163.00
1567.305, 14160.00
1568.332, 14212.00
1569.358, 14084.00
1570.384, 14153.00
1571.409, 14214.00
##END=



