##NAMES=Columbite-(Fe)
##RRUFFID=R050348
##IDEAL CHEMISTRY=Fe^2+^Nb^5+^_2_O_6_
##LOCALITY=Lord Hill mine, Stoneham, Oxford County, Maine, USA
##OWNER=RRUFF
##SOURCE=California Institute of Technology
##DESCRIPTION=Black fragment
##STATUS=The identification of this mineral has been confirmed by X-ray diffraction and chemical analysis
##URL=rruff.info/R050348
##MEASURED CHEMISTRY=(Fe^2+^_0.69_Mn^2+^_0.30_Ti_0.01_)(Nb_0.89_Ta_0.10_Ti_0.01_)_2_O_6_
##PIN_ID=L00509
##ORIENTATION=Laser parallel to -b* (0 -1 0). Fiducial mark perpendicular to laser is parallel to -c [0 0 -1]
221.0220, 6123.000
222.2400, 6221.000
223.4590, 6130.000
224.6770, 6133.000
225.8950, 6017.000
227.1120, 6135.000
228.3300, 6220.000
229.5480, 6181.000
230.7650, 6301.000
231.9820, 6226.000
233.1990, 6276.000
234.4160, 6352.000
235.6330, 6467.000
236.8490, 6489.000
238.0660, 6512.000
239.2820, 6496.000
240.4980, 6557.000
241.7140, 6568.290
242.9300, 6650.000
244.1460, 6614.000
245.3610, 6689.000
246.5770, 6684.000
247.7920, 6670.000
249.0070, 6649.000
250.2220, 6671.000
251.4370, 6652.000
252.6510, 6663.089
253.8660, 6744.581
255.0800, 6791.359
256.2940, 6805.292
257.5080, 6688.006
258.7220, 6740.163
259.9360, 6724.415
261.1490, 6705.880
262.3630, 6781.885
263.5760, 6683.682
264.7890, 6758.186
266.0020, 6763.749
267.2150, 6800.864
268.4270, 6769.653
269.6400, 6759.547
270.8520, 6664.000
272.0640, 6718.000
273.2760, 6602.000
274.4880, 6644.000
275.7000, 6589.000
276.9120, 6668.000
278.1230, 6655.000
279.3340, 6433.000
280.5450, 6457.000
281.7560, 6414.000
282.9670, 6353.000
284.1780, 6338.000
285.3880, 6292.000
286.5980, 6273.000
287.8090, 6309.000
289.0190, 6222.517
290.2290, 6275.000
291.4380, 6129.000
292.6480, 6108.000
293.8570, 6146.000
295.0670, 6047.000
296.2760, 6185.000
297.4850, 6070.000
298.6930, 6054.000
299.9020, 6009.000
301.1110, 6035.000
302.3190, 5954.000
303.5270, 6001.000
304.7350, 5949.000
305.9430, 5946.000
307.1510, 5914.000
308.3580, 5960.000
309.5660, 5953.000
310.7730, 5962.704
311.9800, 5938.000
313.1870, 5976.000
314.3940, 5918.000
315.6010, 5898.000
316.8070, 5934.000
318.0130, 5850.000
319.2200, 5792.000
320.4260, 5916.000
321.6310, 5882.000
322.8370, 5848.000
324.0430, 5883.000
325.2480, 5759.000
326.4540, 5820.000
327.6590, 5771.000
328.8640, 5758.000
330.0680, 5769.000
331.2730, 5730.000
332.4780, 5669.000
333.6820, 5712.000
334.8860, 5629.000
336.0900, 5688.000
337.2940, 5517.000
338.4980, 5658.000
339.7010, 5585.000
340.9050, 5662.000
342.1080, 5490.000
343.3110, 5674.000
344.5140, 5564.000
345.7170, 5593.000
346.9200, 5537.000
348.1220, 5525.000
349.3240, 5604.000
350.5270, 5594.000
351.7290, 5601.000
352.9310, 5571.000
354.1320, 5557.000
355.3340, 5598.000
356.5350, 5585.000
357.7370, 5588.170
358.9380, 5605.385
360.1390, 5619.000
361.3400, 5599.000
362.5400, 5693.000
363.7410, 5644.656
364.9410, 5785.000
366.1410, 5652.000
367.3410, 5642.090
368.5410, 5641.000
369.7410, 5527.000
370.9400, 5558.000
372.1400, 5550.000
373.3390, 5600.000
374.5380, 5512.000
375.7370, 5645.000
376.9360, 5690.000
378.1350, 5531.000
379.3330, 5620.000
380.5310, 5601.000
381.7300, 5569.000
382.9280, 5621.000
384.1260, 5563.000
385.3230, 5580.000
386.5210, 5527.000
387.7180, 5619.000
388.9160, 5604.000
390.1130, 5574.000
391.3100, 5536.000
392.5060, 5522.452
393.7030, 5508.756
394.9000, 5487.000
396.0960, 5500.537
397.2920, 5492.862
398.4880, 5425.386
399.6840, 5504.807
400.8800, 5549.519
402.0750, 5561.384
403.2710, 5442.030
404.4660, 5492.120
405.6610, 5474.304
406.8560, 5453.703
408.0510, 5527.641
409.2450, 5427.372
410.4400, 5499.811
411.6340, 5503.307
412.8280, 5538.357
414.0220, 5505.082
415.2160, 5492.911
416.4100, 5549.085
417.6030, 5567.416
418.7970, 5526.276
419.9900, 5563.331
421.1830, 5460.676
422.3760, 5480.618
423.5690, 5553.457
424.7610, 5515.751
425.9540, 5554.056
427.1460, 5563.412
428.3380, 5441.208
429.5300, 5547.799
430.7220, 5555.444
431.9140, 5461.493
433.1050, 5483.000
434.2970, 5546.000
435.4880, 5508.000
436.6790, 5480.000
437.8700, 5491.000
439.0610, 5514.000
440.2510, 5593.000
441.4420, 5644.000
442.6320, 5583.000
443.8220, 5497.000
445.0120, 5547.000
446.2020, 5571.000
447.3910, 5533.000
448.5810, 5541.000
449.7700, 5565.000
450.9600, 5531.000
452.1490, 5506.000
453.3370, 5649.000
454.5260, 5465.000
455.7150, 5558.000
456.9030, 5630.000
458.0910, 5543.000
459.2800, 5640.000
460.4670, 5471.000
461.6550, 5580.000
462.8430, 5608.000
464.0300, 5645.000
465.2180, 5702.000
466.4050, 5578.000
467.5920, 5565.000
468.7790, 5648.000
469.9650, 5615.000
471.1520, 5746.000
472.3380, 5673.000
473.5250, 5563.000
474.7110, 5652.000
475.8970, 5734.000
477.0820, 5689.000
478.2680, 5749.000
479.4540, 5595.000
480.6390, 5659.000
481.8240, 5644.000
483.0090, 5687.000
484.1940, 5718.000
485.3780, 5726.000
486.5630, 5733.573
487.7470, 5736.000
488.9320, 5716.000
490.1160, 5715.000
491.3000, 5703.000
492.4830, 5786.000
493.6670, 5725.000
494.8500, 5731.390
496.0340, 5735.000
497.2170, 5685.000
498.4000, 5705.000
499.5820, 5693.000
500.7650, 5693.000
501.9480, 5666.000
503.1300, 5663.000
504.3120, 5742.000
505.4940, 5685.000
506.6760, 5725.000
507.8580, 5748.000
509.0390, 5699.000
510.2210, 5698.000
511.4020, 5722.000
512.5830, 5794.000
513.7640, 5731.000
514.9450, 5751.000
516.1250, 5764.000
517.3060, 5736.000
518.4860, 5804.000
519.6660, 5855.000
520.8460, 5772.000
522.0260, 5853.000
523.2060, 5806.000
524.3850, 5876.000
525.5650, 5850.000
526.7440, 5878.000
527.9230, 5843.000
529.1020, 5968.000
530.2810, 5793.000
531.4590, 5852.000
532.6380, 5942.000
533.8160, 5913.000
534.9940, 5920.255
536.1720, 5898.000
537.3500, 5898.000
538.5270, 5798.000
539.7050, 5892.000
540.8820, 5806.000
542.0590, 5880.000
543.2360, 5895.000
544.4130, 5921.000
545.5900, 5799.000
546.7660, 5826.000
547.9430, 5764.000
549.1190, 5753.617
550.2950, 5821.000
551.4710, 5776.000
552.6470, 5811.000
553.8220, 5866.000
554.9980, 5848.000
556.1730, 5926.000
557.3480, 5854.000
558.5230, 5837.000
559.6980, 5757.000
560.8730, 5847.000
562.0470, 5759.000
563.2220, 5846.000
564.3960, 5817.000
565.5700, 5864.000
566.7440, 5887.000
567.9170, 5790.000
569.0910, 5745.000
570.2640, 5882.000
571.4380, 5805.000
572.6110, 5756.000
573.7840, 5858.000
574.9570, 5877.000
576.1290, 5878.000
577.3020, 5881.000
578.4740, 5798.000
579.6460, 5736.000
580.8180, 5869.000
581.9900, 5800.000
583.1620, 5827.000
584.3330, 5668.000
585.5040, 5901.000
586.6760, 5789.000
587.8470, 5861.000
589.0180, 5753.000
590.1880, 5855.000
591.3590, 5838.000
592.5290, 5788.000
593.7000, 5845.000
594.8700, 5846.000
596.0400, 5851.000
597.2090, 5812.000
598.3790, 5796.000
599.5490, 5822.000
600.7180, 5809.000
601.8870, 5871.000
603.0560, 5837.000
604.2250, 5875.000
605.3940, 5955.000
606.5620, 5853.000
607.7300, 5892.000
608.8990, 5845.000
610.0670, 5820.000
611.2350, 5856.302
612.4020, 5891.000
613.5700, 5904.000
614.7370, 5951.000
615.9050, 5966.000
617.0720, 5917.000
618.2390, 5926.000
619.4060, 5942.000
620.5720, 5911.000
621.7390, 6029.000
622.9050, 5976.000
624.0710, 6015.000
625.2370, 6008.000
626.4030, 5956.000
627.5690, 6050.000
628.7340, 5897.000
629.9000, 6068.000
631.0650, 6057.000
632.2300, 6028.000
633.3950, 6129.000
634.5600, 6018.000
635.7240, 6198.000
636.8890, 6304.000
638.0530, 6228.203
639.2170, 6248.059
640.3810, 6227.000
641.5450, 6047.000
642.7080, 6197.000
643.8720, 6041.000
645.0350, 6075.000
646.1980, 6048.000
647.3610, 6049.000
648.5240, 6155.000
649.6870, 6149.000
650.8490, 6060.000
652.0120, 6183.000
653.1740, 6072.000
654.3360, 6113.000
655.4980, 6175.000
656.6600, 6173.000
657.8210, 6151.000
658.9830, 6162.000
660.1440, 6153.000
661.3050, 6247.000
662.4660, 6150.000
663.6270, 6172.000
664.7870, 6215.000
665.9480, 6095.000
667.1080, 6296.000
668.2680, 6236.000
669.4280, 6224.000
670.5880, 6214.000
671.7480, 6145.000
672.9070, 6223.000
674.0670, 6296.000
675.2260, 6315.000
676.3850, 6201.000
677.5440, 6292.000
678.7030, 6259.000
679.8610, 6153.000
681.0200, 6330.000
682.1780, 6271.000
683.3360, 6252.000
684.4940, 6399.000
685.6520, 6271.000
686.8090, 6232.000
687.9670, 6331.000
689.1240, 6294.000
690.2810, 6329.000
691.4380, 6360.725
692.5950, 6365.254
693.7520, 6415.000
694.9080, 6398.000
696.0650, 6445.000
697.2210, 6433.000
698.3770, 6397.000
699.5330, 6504.000
700.6880, 6499.000
701.8440, 6440.000
702.9990, 6520.000
704.1550, 6470.000
705.3100, 6510.000
706.4650, 6465.000
707.6190, 6594.000
708.7740, 6539.000
709.9290, 6636.000
711.0830, 6633.000
712.2370, 6653.000
713.3910, 6553.000
714.5450, 6538.000
715.6980, 6624.000
716.8520, 6786.000
718.0050, 6730.000
719.1580, 6749.000
720.3110, 6813.000
721.4640, 6803.000
722.6170, 6789.000
723.7700, 6840.000
724.9220, 6784.000
726.0740, 6888.000
727.2260, 6894.000
728.3780, 6944.000
729.5300, 6964.000
730.6810, 6951.000
731.8330, 6956.000
732.9840, 6984.000
734.1350, 6976.000
735.2860, 6928.000
736.4370, 7069.000
737.5880, 7116.000
738.7380, 7102.000
739.8880, 7217.000
741.0390, 7120.000
742.1890, 7188.000
743.3380, 7307.000
744.4880, 7242.000
745.6380, 7360.000
746.7870, 7415.000
747.9360, 7381.000
749.0850, 7306.000
750.2340, 7515.000
751.3830, 7518.000
752.5310, 7441.000
753.6800, 7444.000
754.8280, 7566.000
755.9760, 7530.000
757.1240, 7697.000
758.2720, 7763.000
759.4190, 7662.000
760.5670, 7744.000
761.7140, 7776.000
762.8610, 7786.000
764.0080, 7861.000
765.1550, 7747.000
766.3020, 7726.000
767.4480, 7835.000
768.5950, 7781.000
769.7410, 7953.000
770.8870, 7971.000
772.0330, 7874.000
773.1780, 7868.000
774.3240, 7935.000
775.4690, 7927.254
776.6140, 7947.780
777.7590, 7990.000
778.9040, 8001.000
780.0490, 7952.000
781.1940, 8039.000
782.3380, 7997.000
783.4820, 8052.000
784.6260, 7972.000
785.7700, 8070.000
786.9140, 8077.000
788.0580, 8113.000
789.2010, 8081.000
790.3450, 8112.674
791.4880, 8046.000
792.6310, 8126.000
793.7730, 8115.000
794.9160, 8081.000
796.0590, 8116.000
797.2010, 8129.000
798.3430, 8134.000
799.4850, 8137.000
800.6270, 8136.000
801.7690, 8091.000
802.9100, 8166.000
804.0520, 8137.778
805.1930, 8131.000
806.3340, 8180.000
807.4750, 8161.000
808.6160, 8255.000
809.7560, 8211.000
810.8970, 8258.000
812.0370, 8270.000
813.1770, 8152.059
814.3170, 8265.794
815.4570, 8344.818
816.5960, 8390.969
817.7360, 8305.930
818.8750, 8390.303
820.0140, 8406.771
821.1530, 8420.455
822.2920, 8528.677
823.4310, 8462.693
824.5690, 8569.385
825.7070, 8607.136
826.8460, 8676.471
827.9840, 8677.450
829.1220, 8699.533
830.2590, 8789.932
831.3970, 8833.225
832.5340, 8718.392
833.6710, 9048.000
834.8080, 8866.170
835.9450, 9038.873
837.0820, 9176.860
838.2190, 9282.009
839.3550, 9255.853
840.4910, 9399.145
841.6270, 9474.526
842.7630, 9547.125
843.8990, 9714.262
845.0350, 9773.000
846.1700, 9977.000
847.3060, 10056.00
848.4410, 10162.00
849.5760, 10443.00
850.7100, 10533.00
851.8450, 10833.00
852.9800, 10934.00
854.1140, 11132.00
855.2480, 11336.00
856.3820, 11600.00
857.5160, 11658.00
858.6500, 11971.00
859.7830, 12185.00
860.9170, 12450.00
862.0500, 13037.00
863.1830, 13117.00
864.3160, 13379.00
865.4480, 13366.00
866.5810, 13691.00
867.7130, 13953.00
868.8460, 14094.00
869.9780, 13878.00
871.1100, 14010.00
872.2410, 13577.00
873.3730, 13408.00
874.5050, 12944.00
875.6360, 12516.85
876.7670, 12083.00
877.8980, 11532.00
879.0290, 10985.00
880.1590, 10438.00
881.2900, 9871.000
882.4200, 9246.000
883.5500, 8705.000
884.6800, 8329.000
885.8100, 7888.000
886.9400, 7702.000
888.0690, 7301.000
889.1990, 7014.000
890.3280, 6953.000
891.4570, 6685.000
892.5860, 6564.000
893.7140, 6393.000
894.8430, 6316.000
895.9710, 6157.000
897.1000, 6153.000
898.2280, 5923.000
899.3560, 5961.000
900.4830, 5883.000
901.6110, 5796.000
902.7380, 5755.000
903.8660, 5699.000
904.9930, 5689.000
906.1200, 5633.000
907.2460, 5639.000
908.3730, 5560.000
909.5000, 5463.000
910.6260, 5354.000
911.7520, 5458.000
912.8780, 5341.000
914.0040, 5358.000
915.1290, 5399.000
916.2550, 5398.000
917.3800, 5397.000
918.5050, 5372.000
919.6300, 5357.388
920.7550, 5318.000
921.8800, 5304.000
923.0040, 5291.000
924.1290, 5259.000
925.2530, 5260.596
926.3770, 5298.000
927.5010, 5266.000
928.6250, 5213.000
929.7480, 5237.000
930.8720, 5120.000
931.9950, 5220.000
933.1180, 5229.000
934.2410, 5118.000
935.3640, 5121.000
936.4860, 5121.000
937.6090, 5199.000
938.7310, 5141.000
939.8530, 5114.000
940.9750, 5042.000
942.0970, 5047.000
943.2180, 5025.000
944.3400, 5108.000
945.4610, 5002.000
946.5820, 5108.000
947.7030, 5092.000
948.8240, 5022.000
949.9450, 5027.000
951.0650, 5062.000
952.1860, 5074.000
953.3060, 5079.000
954.4260, 5034.000
955.5460, 5089.000
956.6650, 5071.000
957.7850, 4977.000
958.9040, 4966.000
960.0230, 5100.000
961.1420, 5094.000
962.2610, 5003.000
963.3800, 5071.000
964.4990, 5016.000
965.6170, 5031.000
966.7350, 5059.000
967.8530, 4986.000
968.9710, 5075.000
970.0890, 5099.000
971.2070, 5022.000
972.3240, 5095.000
973.4410, 4997.000
974.5580, 5053.000
975.6750, 5179.000
976.7920, 5117.455
977.9090, 5064.000
979.0250, 5087.000
980.1410, 5060.491
981.2580, 5093.000
982.3740, 5115.000
983.4890, 5109.000
984.6050, 5218.000
985.7200, 5293.000
986.8360, 5126.000
987.9510, 5112.000
989.0660, 5244.000
990.1810, 5144.000
991.2950, 5147.000
992.4100, 5140.000
993.5240, 5190.000
994.6390, 5139.000
995.7530, 5179.000
996.8660, 5158.000
997.9800, 5188.000
999.0940, 5159.000
1000.207, 5185.000
1001.320, 5095.000
1002.433, 5232.000
1003.546, 5126.000
1004.659, 5159.000
1005.772, 5100.000
1006.884, 5159.000
1007.996, 5109.000
1009.108, 5131.000
1010.220, 5158.000
1011.332, 5128.000
1012.444, 5084.000
1013.555, 5175.000
1014.666, 5069.000
1015.777, 5122.000
1016.888, 5160.000
1017.999, 5118.000
1019.110, 5079.000
1020.220, 5024.000
1021.331, 5085.000
1022.441, 5082.000
1023.551, 5088.000
1024.661, 5051.000
1025.770, 5032.000
1026.880, 5042.000
1027.989, 5045.088
1029.098, 5050.000
1030.207, 5099.000
1031.316, 5139.000
1032.425, 5186.000
1033.533, 5136.000
1034.642, 5231.000
1035.750, 5159.000
1036.858, 5179.000
1037.966, 5157.000
1039.073, 5155.000
1040.181, 5152.000
1041.288, 5060.000
1042.396, 5119.000
1043.503, 5129.000
1044.610, 5105.000
1045.716, 5214.000
1046.823, 5103.000
1047.929, 5157.000
1049.036, 5072.000
1050.142, 5159.000
1051.248, 5138.000
1052.353, 5244.000
1053.459, 5254.000
1054.564, 5159.000
1055.670, 5203.000
1056.775, 5161.000
1057.880, 5175.000
1058.985, 5198.000
1060.089, 5161.000
1061.194, 5195.000
1062.298, 5159.000
1063.402, 5114.000
1064.506, 5154.000
1065.610, 5156.000
1066.713, 5129.000
1067.817, 5239.000
1068.920, 5132.000
1070.023, 5120.000
1071.126, 5188.000
1072.229, 5126.000
1073.332, 5113.000
1074.435, 5109.000
1075.537, 5114.000
1076.639, 5119.000
1077.741, 5144.000
1078.843, 5156.119
1079.945, 5134.000
1081.046, 5179.000
1082.148, 5202.000
1083.249, 5175.187
1084.350, 5176.000
1085.451, 5096.000
1086.551, 5109.000
1087.652, 5102.000
1088.752, 5277.000
1089.853, 5173.540
1090.953, 5209.000
1092.053, 5100.000
1093.152, 5054.000
1094.252, 5096.000
1095.351, 5135.000
1096.451, 5099.000
1097.550, 5114.000
1098.649, 5030.000
1099.748, 5039.000
1100.846, 5123.000
1101.945, 5026.000
1103.043, 5059.000
1104.141, 5066.000
1105.239, 4992.079
1106.337, 5067.313
1107.434, 5107.841
1108.532, 5115.521
1109.629, 4991.983
1110.726, 5037.890
1111.823, 5015.891
1112.920, 4991.107
1114.017, 5060.862
1115.113, 4956.414
1116.210, 5024.669
1117.306, 5023.987
1118.402, 5054.857
1119.498, 5017.403
1120.593, 5001.056
1121.689, 5053.052
1122.784, 5067.207
1123.879, 5021.892
1124.974, 5054.771
1126.069, 4947.941
1127.164, 4963.708
1128.259, 5032.371
1129.353, 4990.494
1130.447, 5024.627
1131.541, 5029.811
1132.635, 4903.436
1133.729, 5005.855
1134.822, 5009.333
1135.916, 4911.210
1137.009, 5005.794
1138.102, 4921.681
1139.195, 4901.353
1140.288, 4929.024
1141.380, 4906.661
1142.473, 4963.187
1143.565, 4877.000
1144.657, 4887.586
1145.749, 4839.000
1146.841, 4873.000
1147.932, 4833.000
1149.024, 4822.000
1150.115, 4805.000
1151.206, 4838.000
1152.297, 4872.000
1153.388, 4783.000
1154.479, 4833.000
1155.569, 4824.000
1156.659, 4808.000
1157.750, 4801.000
1158.839, 4847.000
1159.929, 4844.000
1161.019, 4832.000
1162.108, 4793.000
1163.198, 4830.000
1164.287, 4798.000
1165.376, 4793.000
1166.465, 4834.000
1167.553, 4863.000
1168.642, 4818.000
1169.730, 4791.000
1170.818, 4801.000
1171.906, 4817.000
1172.994, 4818.287
1174.082, 4773.000
1175.170, 4834.000
1176.257, 4785.000
1177.344, 4758.000
1178.431, 4719.110
1179.518, 4791.335
1180.605, 4828.848
1181.691, 4833.523
1182.778, 4706.973
1183.864, 4749.871
1184.950, 4724.865
1186.036, 4697.074
1187.122, 4763.821
1188.207, 4656.368
1189.292, 4721.623
1190.378, 4717.929
1191.463, 4745.795
1192.548, 4705.337
1193.632, 4685.988
1194.717, 4734.979
1195.801, 4746.132
1196.886, 4697.809
1197.970, 4727.688
1199.054, 4804.000
1200.137, 4842.000
1201.221, 4858.000
1202.305, 4803.000
1203.388, 4807.000
1204.471, 4774.000
1205.554, 4716.000
1206.637, 4828.000
1207.719, 4757.000
1208.802, 4783.000
1209.884, 4804.000
1210.966, 4752.000
1212.048, 4785.000
1213.130, 4716.000
1214.212, 4742.000
1215.293, 4711.000
1216.374, 4787.000
1217.456, 4719.000
1218.536, 4794.000
1219.617, 4748.000
1220.698, 4827.000
1221.778, 4735.000
1222.859, 4727.000
1223.939, 4758.000
1225.019, 4740.000
1226.099, 4830.000
1227.178, 4794.000
1228.258, 4820.000
1229.337, 4817.000
1230.417, 4833.000
1231.496, 4834.000
1232.574, 4824.645
1233.653, 4731.000
1234.732, 4771.000
1235.810, 4774.000
1236.888, 4684.000
1237.966, 4745.000
1239.044, 4878.000
1240.122, 4772.000
1241.199, 4795.000
1242.277, 4745.000
1243.354, 4779.000
1244.431, 4643.000
1245.508, 4804.000
1246.585, 4757.000
1247.661, 4699.000
1248.738, 4792.000
1249.814, 4796.000
1250.890, 4735.000
1251.966, 4757.000
1253.042, 4754.000
1254.117, 4800.000
1255.193, 4753.000
1256.268, 4740.000
1257.343, 4781.000
1258.418, 4816.000
1259.493, 4785.000
1260.567, 4772.000
1261.642, 4811.000
1262.716, 4850.000
1263.790, 4747.000
1264.864, 4795.000
1265.938, 4781.000
1267.011, 4762.000
1268.085, 4756.000
1269.158, 4788.000
1270.231, 4718.000
1271.304, 4831.000
1272.377, 4736.000
1273.450, 4851.000
1274.522, 4752.000
1275.594, 4827.000
1276.666, 4826.000
1277.738, 4791.000
1278.810, 4788.000
1279.882, 4737.000
1280.953, 4788.000
1282.025, 4718.000
1283.096, 4826.000
1284.167, 4826.000
1285.238, 4800.000
1286.308, 4697.000
1287.379, 4764.000
1288.449, 4807.000
1289.519, 4805.000
1290.589, 4816.000
1291.659, 4828.000
1292.729, 4838.000
1293.798, 4858.000
1294.868, 4851.167
1295.937, 4765.000
1297.006, 4834.000
1298.075, 4792.000
1299.143, 4769.000
1300.212, 4788.000
1301.280, 4835.000
1302.348, 4842.000
1303.416, 4821.000
1304.484, 4800.000
1305.552, 4707.000
1306.620, 4881.000
1307.687, 4879.000
1308.754, 5018.000
1309.821, 4932.221
1310.888, 4884.843
1311.955, 4766.000
1313.021, 4740.000
1314.088, 4748.000
1315.154, 4834.000
1316.220, 4897.000
1317.286, 4801.000
1318.352, 4863.000
1319.417, 4854.000
1320.483, 4777.000
1321.548, 4828.000
1322.613, 4837.000
1323.678, 4846.000
1324.743, 4833.000
1325.807, 4833.000
1326.872, 4822.000
1327.936, 4833.000
1329.000, 4776.000
1330.064, 4892.000
1331.128, 4928.000
1332.191, 4842.000
1333.255, 4902.000
1334.318, 4846.000
1335.381, 4852.000
1336.444, 4920.000
1337.507, 4850.000
1338.569, 4903.000
1339.632, 4812.000
1340.694, 4883.000
1341.756, 4822.000
1342.818, 4749.000
1343.880, 4858.000
1344.941, 4902.000
1346.003, 4893.000
1347.064, 4808.000
1348.125, 4914.000
1349.186, 4824.000
1350.247, 4970.000
1351.308, 4909.093
1352.368, 5076.000
1353.428, 4892.000
1354.489, 4801.000
1355.549, 4902.000
1356.608, 4823.902
1357.668, 4842.000
1358.727, 4857.000
1359.787, 4920.000
1360.846, 4901.000
1361.905, 4873.000
1362.964, 4857.000
1364.022, 4804.000
1365.081, 4836.000
1366.139, 4822.000
1367.197, 4886.000
1368.255, 4805.000
1369.313, 4843.000
1370.371, 4815.000
1371.428, 4818.000
1372.486, 4901.000
1373.543, 4752.000
1374.600, 4837.000
1375.657, 4827.000
1376.713, 4881.000
1377.770, 4904.000
1378.826, 4833.000
1379.882, 4898.000
1380.938, 4918.000
1381.994, 4876.000
1383.050, 4909.000
1384.106, 4896.000
1385.161, 4912.000
1386.216, 4922.130
1387.271, 4908.973
1388.326, 4901.000
1389.381, 4898.000
1390.435, 4805.000
1391.490, 4809.000
1392.544, 4841.000
1393.598, 4915.000
1394.652, 4859.000
1395.705, 4858.000
1396.759, 4851.000
1397.812, 4843.000
1398.866, 4868.000
1399.919, 4888.000
1400.972, 4871.000
1402.024, 4890.000
1403.077, 4876.000
1404.129, 4886.000
1405.181, 4887.000
1406.233, 4844.000
1407.285, 4942.000
1408.337, 4890.000
1409.389, 4900.000
1410.440, 5013.000
1411.491, 4830.000
1412.542, 4882.000
1413.593, 4902.000
1414.644, 4883.000
1415.695, 4921.000
1416.745, 4887.000
1417.795, 4870.000
1418.845, 4895.000
1419.895, 4863.000
1420.945, 4891.000
1421.995, 4910.000
1423.044, 4906.000
1424.093, 4925.000
1425.142, 4922.532
1426.191, 4939.000
1427.240, 4909.000
1428.289, 4915.000
1429.337, 4886.000
1430.385, 4896.295
1431.433, 4936.000
1432.481, 4910.000
1433.529, 4898.000
1434.577, 4890.000
1435.624, 4942.000
1436.672, 4902.000
1437.719, 4856.000
1438.766, 4917.000
1439.812, 4922.000
1440.859, 4877.000
1441.905, 4959.000
1442.952, 5037.000
1443.998, 4957.000
1445.044, 4973.000
1446.090, 4874.000
1447.135, 4884.000
1448.181, 4933.000
1449.226, 4914.000
1450.271, 4926.000
1451.316, 4905.000
1452.361, 4943.000
1453.405, 4946.000
1454.450, 5065.000
1455.494, 4837.000
1456.538, 4948.000
1457.582, 4987.000
1458.626, 4902.000
1459.670, 5020.000
1460.713, 4962.000
1461.757, 5010.000
1462.800, 4927.000
1463.843, 4901.000
1464.886, 4983.000
1465.928, 4911.000
1466.971, 4937.000
1468.013, 4939.000
1469.055, 4839.000
1470.097, 4971.000
1471.139, 4987.000
1472.181, 4923.000
1473.222, 4947.000
1474.263, 4946.000
1475.305, 4942.000
1476.346, 4907.000
1477.386, 4980.000
1478.427, 4978.000
1479.468, 4934.000
1480.508, 5055.000
1481.548, 4993.000
1482.588, 5041.000
1483.628, 5001.000
1484.668, 5003.000
1485.707, 5014.000
1486.747, 4967.000
1487.786, 5012.000
1488.825, 5067.000
1489.864, 4949.000
1490.902, 4923.000
1491.941, 5002.000
1492.979, 5045.000
1494.017, 4966.000
1495.055, 4984.000
1496.093, 4982.000
1497.131, 4999.000
1498.168, 4958.000
1499.206, 4987.913
1500.243, 4988.891
1501.280, 5025.000
1502.317, 5022.000
1503.354, 5048.000
1504.390, 5080.000
1505.426, 5057.743
1506.463, 5066.000
1507.499, 5052.000
1508.535, 5019.000
1509.570, 5073.000
1510.606, 5015.000
1511.641, 5110.000
1512.676, 5043.000
1513.711, 5002.000
1514.746, 5027.000
1515.781, 5103.000
1516.816, 5090.000
1517.850, 5103.000
1518.884, 5197.000
1519.918, 5099.000
1520.952, 5079.000
1521.986, 5135.000
1523.019, 5133.000
1524.053, 5088.000
1525.086, 5099.000
1526.119, 4977.000
1527.152, 5099.000
1528.185, 5020.000
1529.217, 5150.000
1530.250, 5108.000
1531.282, 5196.277
1532.314, 5075.000
1533.346, 5292.000
1534.377, 5248.579
1535.409, 5109.000
1536.440, 5162.000
1537.472, 5095.000
1538.503, 5084.000
1539.534, 5163.000
1540.564, 5101.000
1541.595, 5114.000
1542.625, 5179.000
1543.656, 5125.000
1544.686, 5039.502
1545.716, 5123.025
1546.745, 5171.835
1547.775, 5187.803
1548.804, 5072.548
1549.834, 5126.739
1550.863, 5113.022
1551.892, 5096.520
1552.920, 5174.552
1553.949, 5078.382
1554.977, 5154.915
1556.006, 5162.510
1557.034, 5201.655
1558.062, 5172.474
1559.089, 5164.393
1560.117, 5224.662
1561.144, 5247.083
1562.172, 5210.038
1563.199, 5226.000
1564.226, 5168.000
1565.252, 5272.000
1566.279, 5223.000
1567.305, 5252.000
1568.332, 5268.000
1569.358, 5163.000
1570.384, 5215.000
1571.409, 5321.000
##END=



