##NAMES=Columbite-(Fe)
##RRUFFID=R060001
##IDEAL CHEMISTRY=Fe^2+^Nb^5+^_2_O_6_
##LOCALITY=Gypsy mine, Minas Gerais, Brazil
##OWNER=RRUFF
##SOURCE=Eric Van Valkenburg
##DESCRIPTION=Steel gray fragment with internal red hints
##STATUS=The identification of this mineral has been confirmed by X-ray diffraction and chemical analysis
##URL=rruff.info/R060001
##MEASURED CHEMISTRY=(Fe^2+^_0.52_Mn^2+^_0.48_)_Σ=1_(Nb_1.61_Ta_0.39_)_Σ=2_O_6_
##PIN_ID=L01167
##ORIENTATION=Laser parallel to c* (0 0 1). Fiducial mark perpendicular to laser is parallel to -a [-1 0 0]
126.5290, 11582.00
127.7630, 11989.00
128.9970, 12526.00
130.2300, 12782.00
131.4640, 13016.00
132.6970, 13176.00
133.9300, 13183.00
135.1630, 13270.00
136.3950, 13124.00
137.6280, 12992.00
138.8600, 13072.00
140.0920, 12506.00
141.3240, 11996.00
142.5560, 11543.00
143.7880, 11331.00
145.0190, 10927.00
146.2510, 10817.00
147.4820, 10477.00
148.7130, 10524.00
149.9440, 10423.00
151.1750, 10688.00
152.4050, 10712.00
153.6360, 10338.00
154.8660, 10274.00
156.0960, 10254.00
157.3260, 10023.00
158.5560, 10151.00
159.7850, 10196.00
161.0150, 10253.00
162.2440, 10349.76
163.4730, 10497.00
164.7020, 10456.00
165.9310, 10410.00
167.1590, 10337.00
168.3880, 10266.00
169.6160, 10292.00
170.8440, 10222.19
172.0720, 10213.00
173.3000, 10150.00
174.5280, 10093.00
175.7550, 10042.00
176.9820, 10012.00
178.2100, 10031.38
179.4370, 10133.00
180.6630, 10088.00
181.8900, 10132.00
183.1170, 10119.00
184.3430, 10148.00
185.5690, 10255.00
186.7950, 10273.00
188.0210, 10499.00
189.2470, 10536.00
190.4720, 10889.00
191.6970, 10656.00
192.9230, 10964.00
194.1480, 11012.00
195.3730, 10976.00
196.5970, 11212.00
197.8220, 11449.00
199.0460, 11521.00
200.2700, 11797.00
201.4940, 11810.03
202.7180, 11857.33
203.9420, 11813.00
205.1660, 11801.00
206.3890, 11694.00
207.6120, 11584.00
208.8350, 11334.00
210.0580, 11321.00
211.2810, 11177.00
212.5040, 11012.00
213.7260, 11013.00
214.9480, 10679.00
216.1700, 10497.00
217.3920, 10547.00
218.6140, 10387.00
219.8360, 10869.00
221.0570, 11151.00
222.2790, 10879.00
223.5000, 11013.00
224.7210, 10877.00
225.9410, 10697.00
227.1620, 10618.00
228.3820, 10420.00
229.6030, 10287.00
230.8230, 10375.00
232.0430, 10249.00
233.2630, 10440.00
234.4820, 10452.00
235.7020, 10550.00
236.9210, 10472.00
238.1400, 10497.00
239.3590, 10660.00
240.5780, 10705.00
241.7970, 10752.00
243.0150, 10752.00
244.2340, 10768.00
245.4520, 10822.00
246.6700, 10847.00
247.8880, 10856.00
249.1060, 10932.00
250.3230, 11004.00
251.5400, 10916.00
252.7580, 11025.00
253.9750, 11023.00
255.1920, 11127.00
256.4080, 11321.00
257.6250, 11684.00
258.8410, 11717.62
260.0580, 11728.01
261.2740, 11951.00
262.4900, 11535.00
263.7050, 11654.00
264.9210, 11590.00
266.1360, 11819.00
267.3520, 11863.00
268.5670, 11861.00
269.7820, 11837.00
270.9960, 11937.00
272.2110, 11782.00
273.4250, 11850.00
274.6400, 11777.00
275.8540, 11795.00
277.0680, 11715.00
278.2810, 11645.00
279.4950, 11401.00
280.7090, 11438.00
281.9220, 11276.00
283.1350, 11133.00
284.3480, 11052.00
285.5610, 10963.00
286.7730, 10887.30
287.9860, 10890.00
289.1980, 10783.00
290.4100, 10809.00
291.6220, 10786.00
292.8340, 10771.00
294.0460, 10808.00
295.2570, 10669.00
296.4690, 10793.00
297.6800, 10806.00
298.8910, 10922.00
300.1020, 10799.00
301.3120, 10953.00
302.5230, 10747.00
303.7330, 10670.00
304.9440, 10590.00
306.1540, 10729.00
307.3630, 10766.00
308.5730, 10704.00
309.7830, 10659.00
310.9920, 10702.00
312.2010, 10716.00
313.4100, 10784.00
314.6190, 10740.00
315.8280, 10766.00
317.0370, 10869.00
318.2450, 10903.00
319.4530, 10866.00
320.6610, 10819.00
321.8690, 10806.00
323.0770, 10781.00
324.2850, 10761.07
325.4920, 10755.00
326.6990, 10673.00
327.9060, 10672.00
329.1130, 10634.27
330.3200, 10497.00
331.5270, 10554.00
332.7330, 10591.00
333.9390, 10502.00
335.1450, 10444.00
336.3510, 10519.00
337.5570, 10496.00
338.7630, 10365.00
339.9680, 10430.00
341.1740, 10345.00
342.3790, 10588.00
343.5840, 10387.00
344.7890, 10520.00
345.9930, 10430.00
347.1980, 10490.00
348.4020, 10446.00
349.6060, 10637.00
350.8100, 10419.00
352.0140, 10556.00
353.2180, 10546.00
354.4210, 10558.00
355.6250, 10645.00
356.8280, 10641.00
358.0310, 10638.00
359.2340, 10506.00
360.4360, 10752.00
361.6390, 10605.00
362.8410, 10676.00
364.0430, 10876.00
365.2450, 10938.00
366.4470, 11004.00
367.6490, 11105.12
368.8510, 10970.00
370.0520, 11229.00
371.2530, 11165.00
372.4540, 11218.00
373.6550, 11359.00
374.8560, 11265.00
376.0560, 11532.00
377.2570, 11648.00
378.4570, 11780.00
379.6570, 11983.95
380.8570, 11996.00
382.0570, 12270.00
383.2560, 12398.00
384.4560, 12419.00
385.6550, 12723.00
386.8540, 12824.00
388.0530, 13073.00
389.2520, 13302.00
390.4510, 13495.00
391.6490, 13603.00
392.8470, 13717.00
394.0450, 13803.00
395.2430, 13994.00
396.4410, 13984.59
397.6390, 13964.07
398.8360, 13885.00
400.0340, 13804.00
401.2310, 13499.00
402.4280, 13428.00
403.6250, 13144.00
404.8210, 13174.00
406.0180, 12889.00
407.2140, 12814.00
408.4100, 12714.00
409.6060, 12245.00
410.8020, 12170.00
411.9980, 12031.00
413.1930, 12013.00
414.3890, 11925.00
415.5840, 11878.72
416.7790, 11847.35
417.9740, 11795.00
419.1680, 11753.00
420.3630, 11683.00
421.5570, 11568.00
422.7510, 11452.00
423.9450, 11562.00
425.1390, 11455.00
426.3330, 11531.00
427.5270, 11536.00
428.7200, 11523.14
429.9130, 11479.00
431.1060, 11530.00
432.2990, 11533.00
433.4920, 11505.00
434.6840, 11502.00
435.8770, 11452.00
437.0690, 11542.00
438.2610, 11535.00
439.4530, 11571.00
440.6450, 11552.00
441.8360, 11537.00
443.0280, 11577.00
444.2190, 11653.00
445.4100, 11668.45
446.6010, 11587.00
447.7920, 11729.00
448.9820, 11696.00
450.1730, 11661.00
451.3630, 11713.00
452.5530, 11701.00
453.7430, 11701.00
454.9330, 11718.00
456.1230, 11729.02
457.3120, 11691.00
458.5010, 11755.67
459.6910, 11777.00
460.8800, 11750.00
462.0680, 11797.00
463.2570, 11811.00
464.4460, 11855.00
465.6340, 11920.00
466.8220, 11941.00
468.0100, 11984.00
469.1980, 12047.00
470.3860, 12076.00
471.5730, 12072.00
472.7600, 12158.00
473.9480, 12151.00
475.1350, 12321.00
476.3210, 12236.00
477.5080, 12232.00
478.6950, 12299.00
479.8810, 12235.00
481.0670, 12376.00
482.2530, 12279.00
483.4390, 12371.00
484.6250, 12387.00
485.8100, 12346.00
486.9960, 12470.00
488.1810, 12295.00
489.3660, 12451.00
490.5510, 12445.00
491.7360, 12369.00
492.9200, 12553.00
494.1050, 12481.00
495.2890, 12454.00
496.4730, 12469.00
497.6570, 12373.00
498.8400, 12399.00
500.0240, 12365.00
501.2070, 12422.00
502.3910, 12422.53
503.5740, 12416.00
504.7570, 12443.00
505.9400, 12432.00
507.1220, 12474.72
508.3050, 12470.00
509.4870, 12575.00
510.6690, 12609.30
511.8510, 12694.41
513.0330, 12783.00
514.2140, 12787.00
515.3960, 12914.00
516.5770, 12866.00
517.7580, 12973.36
518.9390, 12911.00
520.1200, 13155.00
521.3010, 13244.00
522.4810, 13377.00
523.6610, 13593.00
524.8420, 13589.00
526.0220, 13579.00
527.2010, 13816.00
528.3810, 13925.00
529.5610, 13910.00
530.7400, 14044.00
531.9190, 13970.00
533.0980, 13985.00
534.2770, 13838.00
535.4560, 13849.00
536.6340, 13771.00
537.8120, 13697.00
538.9910, 13621.00
540.1690, 13650.00
541.3460, 13553.00
542.5240, 13400.00
543.7020, 13270.00
544.8790, 13078.00
546.0560, 12893.00
547.2330, 12968.00
548.4100, 13043.00
549.5870, 12856.00
550.7630, 12839.00
551.9400, 12866.00
553.1160, 12812.00
554.2920, 12799.15
555.4680, 12727.00
556.6440, 12727.00
557.8190, 12675.00
558.9950, 12625.00
560.1700, 12622.00
561.3450, 12560.00
562.5200, 12498.00
563.6950, 12487.00
564.8690, 12565.00
566.0440, 12409.00
567.2180, 12610.00
568.3920, 12605.00
569.5660, 12577.00
570.7400, 12564.00
571.9130, 12512.58
573.0870, 12349.00
574.2600, 12422.00
575.4330, 12310.00
576.6060, 12308.00
577.7790, 12399.00
578.9520, 12161.00
580.1240, 12126.00
581.2960, 12060.00
582.4690, 12061.00
583.6410, 11915.00
584.8120, 12066.00
585.9840, 12022.00
587.1560, 11717.00
588.3270, 11988.00
589.4980, 11782.00
590.6690, 11919.00
591.8400, 11980.00
593.0110, 11994.00
594.1810, 12018.42
595.3510, 11959.00
596.5220, 11943.00
597.6920, 11885.00
598.8610, 11781.00
600.0310, 12004.00
601.2010, 11835.00
602.3700, 12001.00
603.5390, 12018.00
604.7080, 11998.00
605.8770, 12066.00
607.0460, 12107.00
608.2140, 12044.00
609.3830, 12065.00
610.5510, 11979.00
611.7190, 12073.00
612.8870, 12094.00
614.0550, 12096.00
615.2220, 12245.00
616.3900, 12214.00
617.5570, 12262.00
618.7240, 12317.89
619.8910, 12327.00
621.0580, 12379.00
622.2240, 12371.00
623.3910, 12374.00
624.5570, 12439.00
625.7230, 12570.00
626.8890, 12677.00
628.0550, 12669.00
629.2200, 12736.00
630.3860, 12699.00
631.5510, 12677.00
632.7160, 12731.90
633.8810, 12754.92
635.0460, 12821.00
636.2100, 12881.00
637.3750, 12958.00
638.5390, 13026.00
639.7030, 12941.00
640.8670, 12991.00
642.0310, 12948.00
643.1950, 12952.00
644.3580, 12924.16
645.5210, 12798.00
646.6850, 12838.00
647.8480, 12755.00
649.0100, 12693.00
650.1730, 12534.00
651.3350, 12688.00
652.4980, 12593.00
653.6600, 12637.00
654.8220, 12461.00
655.9840, 12527.00
657.1450, 12538.00
658.3070, 12397.00
659.4680, 12513.00
660.6300, 12502.00
661.7910, 12500.00
662.9510, 12399.00
664.1120, 12331.00
665.2730, 12343.00
666.4330, 12283.50
667.5930, 12311.00
668.7530, 12240.00
669.9130, 12336.00
671.0730, 12307.00
672.2320, 12241.00
673.3920, 12376.00
674.5510, 12324.00
675.7100, 12226.00
676.8690, 12258.00
678.0280, 12216.95
679.1860, 12221.54
680.3450, 12240.00
681.5030, 12269.00
682.6610, 12337.00
683.8190, 12392.00
684.9770, 12323.00
686.1340, 12463.00
687.2920, 12335.00
688.4490, 12501.00
689.6060, 12396.00
690.7630, 12328.00
691.9200, 12304.00
693.0760, 12316.94
694.2330, 12327.00
695.3890, 12411.00
696.5450, 12420.00
697.7010, 12443.00
698.8570, 12428.00
700.0130, 12476.00
701.1680, 12438.00
702.3230, 12569.00
703.4780, 12588.00
704.6330, 12663.00
705.7880, 12504.00
706.9430, 12608.00
708.0970, 12524.00
709.2520, 12725.00
710.4060, 12751.00
711.5600, 12711.00
712.7140, 12703.00
713.8670, 12777.00
715.0210, 12868.00
716.1740, 12844.00
717.3270, 12901.00
718.4800, 12803.00
719.6330, 12840.00
720.7860, 12637.00
721.9380, 12988.00
723.0910, 12788.00
724.2430, 12795.00
725.3950, 12969.00
726.5470, 12902.00
727.6980, 13030.00
728.8500, 13006.00
730.0010, 13063.36
731.1530, 12979.00
732.3040, 13115.00
733.4550, 13154.00
734.6050, 13044.00
735.7560, 13214.00
736.9060, 13229.00
738.0560, 13275.00
739.2060, 13258.00
740.3560, 13238.00
741.5060, 13430.00
742.6560, 13376.00
743.8050, 13424.00
744.9540, 13406.00
746.1030, 13328.00
747.2520, 13300.00
748.4010, 13484.00
749.5500, 13569.00
750.6980, 13495.00
751.8460, 13501.00
752.9950, 13471.00
754.1420, 13530.00
755.2900, 13440.00
756.4380, 13475.00
757.5850, 13677.00
758.7330, 13580.00
759.8800, 13836.00
761.0270, 13755.00
762.1730, 13658.00
763.3200, 13866.00
764.4670, 13771.00
765.6130, 13730.00
766.7590, 13857.00
767.9050, 13975.00
769.0510, 13856.00
770.1960, 13857.00
771.3420, 13973.00
772.4870, 13984.00
773.6320, 14022.00
774.7770, 13864.00
775.9220, 14051.00
777.0670, 14036.00
778.2110, 13935.00
779.3560, 14023.00
780.5000, 14167.00
781.6440, 13995.00
782.7880, 13903.00
783.9320, 14038.00
785.0750, 14266.00
786.2180, 14153.00
787.3620, 14194.00
788.5050, 14123.00
789.6480, 14132.00
790.7900, 14113.00
791.9330, 14178.00
793.0750, 14183.00
794.2170, 14076.00
795.3590, 14320.00
796.5010, 14088.00
797.6430, 13985.00
798.7850, 14183.00
799.9260, 14266.00
801.0670, 14256.00
802.2080, 14112.00
803.3490, 14395.00
804.4900, 14194.00
805.6310, 14371.00
806.7710, 14399.00
807.9110, 14394.00
809.0510, 14513.00
810.1910, 14465.00
811.3310, 14542.00
812.4710, 14721.00
813.6100, 14704.00
814.7490, 14898.00
815.8880, 14983.00
817.0270, 15120.00
818.1660, 15336.00
819.3050, 15626.00
820.4430, 15568.00
821.5820, 15794.00
822.7200, 16127.00
823.8580, 15904.00
824.9950, 16135.00
826.1330, 16081.00
827.2710, 16171.00
828.4080, 16285.00
829.5450, 16603.00
830.6820, 16631.00
831.8190, 16686.00
832.9560, 16551.00
834.0920, 16815.00
835.2280, 16800.00
836.3650, 16791.00
837.5010, 16975.00
838.6360, 16960.00
839.7720, 17259.00
840.9080, 17161.00
842.0430, 17426.00
843.1780, 17449.00
844.3130, 17852.00
845.4480, 17801.00
846.5830, 18186.00
847.7170, 18476.00
848.8520, 18673.00
849.9860, 19044.00
851.1200, 19585.00
852.2540, 19994.00
853.3870, 20456.00
854.5210, 20998.00
855.6540, 21665.80
856.7880, 22285.00
857.9210, 23279.00
859.0540, 24139.00
860.1860, 25236.00
861.3190, 26206.00
862.4510, 27781.00
863.5840, 29231.00
864.7160, 30531.00
865.8480, 32574.00
866.9790, 34764.00
868.1110, 36681.00
869.2420, 39412.00
870.3740, 42139.00
871.5050, 44547.00
872.6360, 46983.00
873.7660, 49226.00
874.8970, 50855.00
876.0280, 52027.00
877.1580, 52035.00
878.2880, 51654.00
879.4180, 50095.00
880.5480, 48321.00
881.6770, 45676.00
882.8070, 42632.00
883.9360, 39139.00
885.0650, 35919.00
886.1940, 33235.00
887.3230, 30176.00
888.4520, 27458.00
889.5800, 25167.00
890.7090, 23206.00
891.8370, 21716.00
892.9650, 20354.00
894.0930, 18817.00
895.2200, 17795.00
896.3480, 17001.00
897.4750, 16331.00
898.6020, 15935.00
899.7290, 15293.00
900.8560, 14807.00
901.9830, 14586.00
903.1090, 14170.00
904.2360, 13928.00
905.3620, 13916.00
906.4880, 13494.00
907.6140, 13314.00
908.7400, 13342.00
909.8650, 13023.00
910.9900, 13025.00
912.1160, 12791.00
913.2410, 12754.00
914.3660, 12683.00
915.4900, 12544.00
916.6150, 12414.00
917.7390, 12306.00
918.8640, 12252.00
919.9880, 12246.00
921.1120, 12151.00
922.2350, 12127.00
923.3590, 12075.00
924.4820, 11994.00
925.6060, 12086.00
926.7290, 12104.00
927.8520, 11956.00
928.9740, 12097.00
930.0970, 12077.00
931.2190, 12021.00
932.3420, 11946.00
933.4640, 11904.00
934.5860, 11978.00
935.7080, 11897.00
936.8290, 12012.00
937.9510, 11973.00
939.0720, 11916.00
940.1930, 11968.00
941.3140, 11824.00
942.4350, 11867.00
943.5560, 11922.00
944.6760, 11873.00
945.7960, 11986.00
946.9170, 11736.00
948.0370, 11703.00
949.1560, 11857.00
950.2760, 11730.00
951.3960, 11751.00
952.5150, 11868.00
953.6340, 11710.00
954.7530, 11711.00
955.8720, 11601.00
956.9910, 11509.00
958.1090, 11565.00
959.2280, 11562.00
960.3460, 11453.00
961.4640, 11626.00
962.5820, 11438.00
963.6990, 11494.00
964.8170, 11572.00
965.9340, 11466.00
967.0510, 11614.00
968.1690, 11526.00
969.2850, 11553.00
970.4020, 11573.00
971.5190, 11502.00
972.6350, 11437.00
973.7510, 11399.00
974.8670, 11471.00
975.9830, 11503.00
977.0990, 11582.00
978.2150, 11532.00
979.3300, 11539.00
980.4450, 11489.00
981.5600, 11560.00
982.6750, 11452.00
983.7900, 11481.00
984.9050, 11457.99
986.0190, 11366.00
987.1340, 11437.00
988.2480, 11399.00
989.3620, 11433.00
990.4750, 11570.00
991.5890, 11364.00
992.7020, 11432.00
993.8160, 11467.00
994.9290, 11578.00
996.0420, 11564.00
997.1550, 11474.00
998.2670, 11476.00
999.3800, 11552.00
1000.492, 11481.00
1001.604, 11499.00
1002.716, 11482.00
1003.828, 11480.00
1004.940, 11545.00
1006.051, 11364.00
1007.163, 11491.00
1008.274, 11333.00
1009.385, 11513.00
1010.496, 11467.00
1011.606, 11499.00
1012.717, 11539.00
1013.827, 11594.00
1014.937, 11592.00
1016.047, 11547.00
1017.157, 11558.88
1018.267, 11475.00
1019.377, 11553.00
1020.486, 11430.00
1021.595, 11497.00
1022.704, 11423.00
1023.813, 11460.00
1024.922, 11449.97
1026.030, 11457.00
1027.139, 11435.00
1028.247, 11426.00
1029.355, 11420.00
1030.463, 11466.00
1031.571, 11506.00
1032.678, 11416.00
1033.786, 11486.00
1034.893, 11531.00
1036.000, 11558.00
1037.107, 11465.00
1038.214, 11520.08
1039.321, 11501.97
1040.427, 11538.00
1041.533, 11510.00
1042.639, 11519.00
1043.745, 11514.00
1044.851, 11487.00
1045.957, 11636.00
1047.062, 11487.00
1048.168, 11511.00
1049.273, 11744.00
1050.378, 11643.00
1051.482, 11628.00
1052.587, 11701.00
1053.692, 11499.00
1054.796, 11584.00
1055.900, 11570.00
1057.004, 11703.00
1058.108, 11614.00
1059.212, 11600.00
1060.315, 11748.00
1061.418, 11595.00
1062.522, 11848.00
1063.625, 11568.00
1064.728, 11580.00
1065.830, 11680.00
1066.933, 11646.00
1068.035, 11539.00
1069.137, 11670.00
1070.239, 11704.00
1071.341, 11585.00
1072.443, 11604.00
1073.545, 11658.00
1074.646, 11474.00
1075.747, 11518.00
1076.848, 11690.00
1077.949, 11625.00
1079.050, 11665.00
1080.150, 11587.00
1081.251, 11677.00
1082.351, 11581.00
1083.451, 11632.00
1084.551, 11609.00
1085.651, 11654.00
1086.750, 11631.00
1087.850, 11592.00
1088.949, 11651.00
1090.048, 11618.00
1091.147, 11544.00
1092.246, 11510.00
1093.345, 11517.32
1094.443, 11653.00
1095.541, 11547.00
1096.639, 11565.00
1097.737, 11563.00
1098.835, 11504.00
1099.933, 11475.00
1101.030, 11474.64
1102.128, 11520.00
1103.225, 11471.00
1104.322, 11554.00
1105.419, 11555.00
1106.515, 11464.00
1107.612, 11758.00
1108.708, 11594.00
1109.804, 11563.00
1110.900, 11667.00
1111.996, 11539.00
1113.092, 11581.00
1114.187, 11553.00
1115.283, 11506.00
1116.378, 11470.00
1117.473, 11573.00
1118.568, 11629.00
1119.662, 11539.00
1120.757, 11594.00
1121.851, 11432.00
1122.946, 11470.00
1124.040, 11555.00
1125.134, 11465.00
1126.227, 11558.00
1127.321, 11482.00
1128.414, 11622.00
1129.508, 11645.00
1130.601, 11504.00
1131.693, 11526.00
1132.786, 11525.00
1133.879, 11414.00
1134.971, 11436.00
1136.064, 11372.24
1137.156, 11504.00
1138.248, 11331.00
1139.339, 11348.00
1140.431, 11438.00
1141.522, 11407.00
1142.614, 11440.00
1143.705, 11384.00
1144.796, 11485.00
1145.887, 11347.00
1146.977, 11498.00
1148.068, 11355.00
1149.158, 11349.00
1150.248, 11420.00
1151.338, 11258.00
1152.428, 11338.00
1153.518, 11276.00
1154.607, 11368.00
1155.696, 11434.00
1156.785, 11383.00
1157.874, 11436.00
1158.963, 11401.00
1160.052, 11359.00
1161.141, 11208.00
1162.229, 11282.00
1163.317, 11309.00
1164.405, 11356.00
1165.493, 11380.00
1166.581, 11251.00
1167.668, 11380.00
1168.756, 11229.00
1169.843, 11358.00
1170.930, 11337.00
1172.017, 11371.00
1173.103, 11220.00
1174.190, 11309.00
1175.276, 11272.00
1176.363, 11405.00
1177.449, 11359.00
1178.535, 11319.00
1179.620, 11388.00
1180.706, 11360.00
1181.791, 11289.00
1182.877, 11432.00
1183.962, 11338.00
1185.047, 11245.00
1186.131, 11106.00
1187.216, 11314.00
1188.300, 11191.00
1189.385, 11398.00
1190.469, 11288.00
1191.553, 11223.00
1192.637, 11241.00
1193.720, 11199.38
1194.804, 11318.00
1195.887, 11236.00
1196.970, 11285.00
1198.053, 11355.00
1199.136, 11355.00
1200.219, 11294.00
1201.301, 11291.00
1202.383, 11209.00
1203.465, 11185.00
1204.547, 11309.00
1205.629, 11105.00
1206.711, 11355.00
1207.792, 11313.00
1208.874, 11305.00
1209.955, 11300.00
1211.036, 11264.00
1212.117, 11271.00
1213.198, 11291.94
1214.278, 11330.00
1215.359, 11337.00
1216.439, 11364.00
1217.519, 11338.00
1218.599, 11276.00
1219.678, 11237.00
1220.758, 11290.00
1221.837, 11242.00
1222.917, 11347.00
1223.996, 11286.00
1225.075, 11284.00
1226.153, 11356.00
1227.232, 11289.00
1228.310, 11232.00
1229.389, 11237.00
1230.467, 11117.00
1231.545, 11241.00
1232.622, 11283.00
1233.700, 11286.00
1234.777, 11255.00
1235.855, 11249.00
1236.932, 11270.00
1238.009, 11305.00
1239.086, 11297.00
1240.162, 11369.00
1241.239, 11304.00
1242.315, 11156.00
1243.391, 11218.00
1244.467, 11284.00
1245.543, 11373.00
1246.619, 11393.00
1247.694, 11293.00
1248.769, 11282.00
1249.844, 11309.00
1250.919, 11272.00
1251.994, 11243.00
1253.069, 11213.00
1254.144, 11361.00
1255.218, 11333.00
1256.292, 11342.00
1257.366, 11365.64
1258.440, 11217.00
1259.514, 11330.00
1260.587, 11265.00
1261.661, 11230.00
1262.734, 11333.00
1263.807, 11140.00
1264.880, 11204.00
1265.952, 11348.00
1267.025, 11267.00
1268.097, 11213.00
1269.170, 11088.00
1270.242, 11323.00
1271.314, 11192.00
1272.385, 11194.00
1273.457, 11191.00
1274.528, 11184.00
1275.600, 11283.82
1276.671, 11360.15
1277.742, 11405.38
1278.812, 11421.17
1279.883, 11319.38
1280.954, 11369.43
1282.024, 11358.62
1283.094, 11345.32
1284.164, 11416.73
1285.234, 11332.04
1286.303, 11402.11
1287.373, 11294.00
1288.442, 11270.00
1289.511, 11191.00
1290.580, 11330.00
1291.649, 11353.00
1292.718, 11398.00
1293.786, 11326.00
1294.855, 11374.70
1295.923, 11397.00
1296.991, 11355.00
1298.059, 11340.00
1299.126, 11229.00
1300.194, 11280.00
1301.261, 11282.00
1302.328, 11253.00
1303.395, 11308.00
1304.462, 11269.00
1305.529, 11368.00
1306.596, 11203.00
1307.662, 11287.00
1308.728, 11283.00
1309.794, 11388.00
1310.860, 11214.00
1311.926, 11309.00
1312.991, 11190.00
1314.057, 11332.00
1315.122, 11450.00
1316.187, 11311.00
1317.252, 11249.00
1318.317, 11285.00
1319.381, 11307.00
1320.446, 11376.00
1321.510, 11279.00
1322.574, 11416.00
1323.638, 11322.00
1324.702, 11225.00
1325.766, 11331.00
1326.829, 11159.00
1327.892, 11115.00
1328.956, 11297.00
1330.019, 11309.00
1331.081, 11208.00
1332.144, 11322.00
1333.206, 11365.00
1334.269, 11319.00
1335.331, 11285.00
1336.393, 11332.00
1337.455, 11421.00
1338.516, 11333.00
1339.578, 11313.00
1340.639, 11445.00
1341.701, 11361.00
1342.762, 11330.00
1343.822, 11185.00
1344.883, 11266.00
1345.944, 11309.00
1347.004, 11313.00
1348.064, 11276.00
1349.124, 11291.82
1350.184, 11363.00
1351.244, 11284.00
1352.304, 11370.00
1353.363, 11404.00
1354.422, 11400.00
1355.481, 11410.00
1356.540, 11352.00
1357.599, 11339.00
1358.657, 11363.00
1359.716, 11430.00
1360.774, 11332.00
1361.832, 11430.00
1362.890, 11345.00
1363.948, 11460.00
1365.006, 11371.00
1366.063, 11430.00
1367.120, 11401.00
1368.178, 11418.00
1369.234, 11288.00
1370.291, 11310.00
1371.348, 11417.00
1372.404, 11452.00
1373.461, 11263.00
1374.517, 11436.00
1375.573, 11204.00
1376.629, 11406.00
1377.684, 11373.00
1378.740, 11323.00
1379.795, 11367.00
1380.850, 11344.00
1381.905, 11256.00
1382.960, 11308.00
1384.015, 11293.00
1385.070, 11341.00
1386.124, 11319.00
1387.178, 11343.00
1388.232, 11347.00
1389.286, 11287.00
1390.340, 11438.00
1391.393, 11450.00
1392.447, 11403.00
1393.500, 11411.00
1394.553, 11490.00
1395.606, 11406.00
1396.659, 11437.00
1397.711, 11400.00
1398.764, 11363.00
1399.816, 11354.00
1400.868, 11459.00
1401.920, 11444.00
1402.972, 11524.00
1404.023, 11395.00
1405.075, 11453.00
1406.126, 11522.00
1407.177, 11255.00
1408.228, 11428.00
1409.279, 11388.00
1410.330, 11486.00
1411.380, 11393.00
1412.431, 11422.00
1413.481, 11363.00
1414.531, 11380.00
1415.580, 11263.00
1416.630, 11554.00
1417.680, 11323.00
1418.729, 11423.00
1419.778, 11425.33
1420.827, 11385.54
1421.876, 11317.00
1422.925, 11428.00
1423.973, 11237.00
1425.022, 11260.00
1426.070, 11454.00
1427.118, 11395.00
1428.166, 11468.00
1429.214, 11574.00
1430.261, 11461.00
1431.309, 11388.00
1432.356, 11515.00
1433.403, 11504.00
1434.450, 11463.00
1435.497, 11346.00
1436.543, 11408.00
1437.590, 11470.00
1438.636, 11469.00
1439.682, 11500.00
1440.728, 11500.00
1441.774, 11504.08
1442.819, 11538.00
1443.865, 11497.00
1444.910, 11428.00
1445.955, 11404.00
1447.000, 11397.00
1448.045, 11557.00
1449.090, 11544.00
1450.134, 11538.00
1451.178, 11309.00
1452.223, 11455.00
1453.267, 11392.00
1454.310, 11553.00
1455.354, 11431.00
1456.398, 11535.00
1457.441, 11499.00
1458.484, 11403.00
1459.527, 11574.00
1460.570, 11497.00
1461.613, 11501.00
1462.655, 11481.00
1463.698, 11375.00
1464.740, 11624.00
1465.782, 11457.00
1466.824, 11419.00
1467.866, 11368.00
1468.907, 11612.00
1469.948, 11545.00
1470.990, 11472.00
1472.031, 11581.00
1473.072, 11492.00
1474.112, 11530.00
1475.153, 11351.00
1476.194, 11564.00
1477.234, 11473.00
1478.274, 11504.00
1479.314, 11521.00
1480.354, 11378.00
1481.393, 11574.00
1482.433, 11466.00
1483.472, 11522.00
1484.511, 11458.00
1485.550, 11477.21
1486.589, 11571.00
1487.628, 11527.00
1488.666, 11549.00
1489.704, 11574.00
1490.743, 11557.00
1491.781, 11558.56
1492.819, 11411.00
1493.856, 11523.00
1494.894, 11598.00
1495.931, 11580.00
1496.968, 11413.00
1498.005, 11558.00
1499.042, 11509.00
1500.079, 11388.00
1501.115, 11496.00
1502.152, 11619.00
1503.188, 11521.00
1504.224, 11602.00
1505.260, 11528.00
1506.296, 11580.00
1507.331, 11437.00
1508.367, 11670.00
1509.402, 11387.00
1510.437, 11607.00
1511.472, 11587.00
1512.507, 11603.00
1513.541, 11459.00
1514.576, 11616.00
1515.610, 11499.00
1516.644, 11514.00
1517.678, 11403.00
1518.712, 11575.00
1519.746, 11650.00
1520.779, 11503.00
1521.813, 11642.00
1522.846, 11485.00
1523.879, 11583.00
1524.912, 11529.00
1525.944, 11483.00
1526.977, 11405.00
1528.009, 11478.00
1529.041, 11604.00
1530.073, 11710.00
1531.105, 11548.00
1532.137, 11344.00
1533.168, 11536.00
1534.200, 11450.00
1535.231, 11600.00
1536.262, 11519.00
1537.293, 11512.00
1538.324, 11550.00
1539.354, 11429.00
1540.385, 11544.00
1541.415, 11499.00
1542.445, 11466.00
1543.475, 11526.00
1544.505, 11397.00
1545.534, 11532.00
1546.564, 11601.00
1547.593, 11836.00
1548.622, 11800.00
1549.651, 11667.00
1550.680, 11757.00
1551.708, 12012.00
1552.737, 12017.00
1553.765, 12164.00
1554.793, 11983.00
1555.821, 11886.00
1556.849, 11552.00
1557.877, 11573.00
1558.904, 11478.00
1559.932, 11550.00
1560.959, 11532.00
1561.986, 11641.00
1563.013, 11612.00
##END=



