##NAMES=Columbite-(Fe)
##RRUFFID=R060001
##IDEAL CHEMISTRY=Fe^2+^Nb^5+^_2_O_6_
##LOCALITY=Gypsy mine, Minas Gerais, Brazil
##OWNER=RRUFF
##SOURCE=Eric Van Valkenburg
##DESCRIPTION=Steel gray fragment with internal red hints
##STATUS=The identification of this mineral has been confirmed by X-ray diffraction and chemical analysis
##URL=rruff.info/R060001
##MEASURED CHEMISTRY=(Fe^2+^_0.52_Mn^2+^_0.48_)_Σ=1_(Nb_1.61_Ta_0.39_)_Σ=2_O_6_
##PIN_ID=L01167
##ORIENTATION=Laser parallel to c* (0 0 1). Fiducial mark perpendicular to laser is parallel to -a [-1 0 0]
124.0610, 12074.00
125.2950, 12151.00
126.5290, 12738.00
127.7630, 13437.00
128.9970, 14104.00
130.2300, 14814.00
131.4640, 15146.00
132.6970, 15767.00
133.9300, 15778.00
135.1630, 15857.00
136.3950, 15585.00
137.6280, 15413.00
138.8600, 14972.00
140.0920, 14185.00
141.3240, 13120.00
142.5560, 12401.00
143.7880, 11532.00
145.0190, 11035.00
146.2510, 10609.00
147.4820, 10146.00
148.7130, 9853.000
149.9440, 9773.000
151.1750, 9936.000
152.4050, 9696.000
153.6360, 9459.000
154.8660, 9327.000
156.0960, 9244.000
157.3260, 9216.000
158.5560, 9102.000
159.7850, 9085.000
161.0150, 9047.000
162.2440, 9053.000
163.4730, 8971.000
164.7020, 9020.049
165.9310, 8998.764
167.1590, 9079.000
168.3880, 9057.000
169.6160, 9051.000
170.8440, 9036.966
172.0720, 9043.000
173.3000, 8961.000
174.5280, 8947.000
175.7550, 8925.000
176.9820, 8938.000
178.2100, 8956.506
179.4370, 8978.705
180.6630, 9005.000
181.8900, 9053.000
183.1170, 9037.000
184.3430, 9070.000
185.5690, 9250.000
186.7950, 9221.000
188.0210, 9463.000
189.2470, 9484.000
190.4720, 9441.000
191.6970, 9743.000
192.9230, 9885.000
194.1480, 10093.00
195.3730, 10264.00
196.5970, 10481.00
197.8220, 10705.00
199.0460, 10960.00
200.2700, 11234.00
201.4940, 11386.00
202.7180, 11441.17
203.9420, 11472.00
205.1660, 11372.00
206.3890, 11185.00
207.6120, 11036.00
208.8350, 10893.00
210.0580, 10813.00
211.2810, 10622.00
212.5040, 10358.00
213.7260, 10148.00
214.9480, 9862.000
216.1700, 9584.000
217.3920, 9444.000
218.6140, 9324.000
219.8360, 9187.000
221.0570, 9281.000
222.2790, 9153.000
223.5000, 9185.000
224.7210, 9130.000
225.9410, 9187.000
227.1620, 9346.000
228.3820, 9220.000
229.6030, 9365.000
230.8230, 9342.000
232.0430, 9370.000
233.2630, 9396.000
234.4820, 9496.000
235.7020, 9565.000
236.9210, 9457.000
238.1400, 9571.000
239.3590, 9707.000
240.5780, 9797.000
241.7970, 9958.000
243.0150, 9869.000
244.2340, 9900.000
245.4520, 10066.00
246.6700, 9974.000
247.8880, 10009.00
249.1060, 10052.00
250.3230, 9959.000
251.5400, 10056.00
252.7580, 10040.00
253.9750, 9999.000
255.1920, 10034.99
256.4080, 10104.51
257.6250, 10152.50
258.8410, 10180.10
260.0580, 10126.28
261.2740, 10177.60
262.4900, 10186.77
263.7050, 10194.21
264.9210, 10260.32
266.1360, 10218.32
267.3520, 10378.00
268.5670, 10450.25
269.7820, 10527.00
270.9960, 10569.00
272.2110, 10642.00
273.4250, 10683.00
274.6400, 10655.00
275.8540, 10817.00
277.0680, 10711.00
278.2810, 10751.00
279.4950, 10651.00
280.7090, 10454.00
281.9220, 10492.00
283.1350, 10380.00
284.3480, 10348.00
285.5610, 10171.00
286.7730, 10145.00
287.9860, 9949.000
289.1980, 9895.000
290.4100, 9860.000
291.6220, 9678.000
292.8340, 9511.000
294.0460, 9671.000
295.2570, 9540.000
296.4690, 9440.000
297.6800, 9520.000
298.8910, 9412.000
300.1020, 9397.000
301.3120, 9408.000
302.5230, 9275.000
303.7330, 9353.000
304.9440, 9294.000
306.1540, 9214.000
307.3630, 9403.000
308.5730, 9343.286
309.7830, 9347.740
310.9920, 9386.000
312.2010, 9336.000
313.4100, 9290.000
314.6190, 9348.000
315.8280, 9249.000
317.0370, 9315.000
318.2450, 9386.000
319.4530, 9375.000
320.6610, 9341.000
321.8690, 9383.000
323.0770, 9365.000
324.2850, 9290.000
325.4920, 9360.000
326.6990, 9294.000
327.9060, 9412.000
329.1130, 9428.000
330.3200, 9400.000
331.5270, 9529.000
332.7330, 9255.000
333.9390, 9304.000
335.1450, 9285.000
336.3510, 9457.000
337.5570, 9360.000
338.7630, 9367.000
339.9680, 9334.000
341.1740, 9438.000
342.3790, 9364.000
343.5840, 9401.000
344.7890, 9491.000
345.9930, 9521.000
347.1980, 9552.000
348.4020, 9536.000
349.6060, 9599.938
350.8100, 9609.000
352.0140, 9696.000
353.2180, 9746.000
354.4210, 9781.000
355.6250, 9788.000
356.8280, 9706.000
358.0310, 9866.000
359.2340, 9879.000
360.4360, 10015.00
361.6390, 10077.00
362.8410, 9895.000
364.0430, 10313.00
365.2450, 10193.00
366.4470, 10423.00
367.6490, 10595.00
368.8510, 10609.00
370.0520, 10654.00
371.2530, 10780.00
372.4540, 10965.00
373.6550, 11099.00
374.8560, 11226.00
376.0560, 11499.00
377.2570, 11716.00
378.4570, 11995.00
379.6570, 12354.00
380.8570, 12483.00
382.0570, 12855.00
383.2560, 13134.00
384.4560, 13689.00
385.6550, 14231.00
386.8540, 14513.00
388.0530, 14947.00
389.2520, 15453.00
390.4510, 15938.00
391.6490, 16321.00
392.8470, 16808.00
394.0450, 17070.00
395.2430, 17510.00
396.4410, 17490.00
397.6390, 17428.00
398.8360, 17453.00
400.0340, 17106.00
401.2310, 16933.00
402.4280, 16592.00
403.6250, 16134.00
404.8210, 15692.00
406.0180, 15211.00
407.2140, 14674.00
408.4100, 14156.00
409.6060, 13714.00
410.8020, 13408.00
411.9980, 13143.00
413.1930, 12770.00
414.3890, 12604.00
415.5840, 12344.00
416.7790, 11998.00
417.9740, 11878.00
419.1680, 11874.00
420.3630, 11777.00
421.5570, 11636.00
422.7510, 11483.00
423.9450, 11445.00
425.1390, 11376.00
426.3330, 11305.00
427.5270, 11247.00
428.7200, 11196.70
429.9130, 11147.37
431.1060, 11117.00
432.2990, 11069.00
433.4920, 11044.55
434.6840, 11014.76
435.8770, 11028.00
437.0690, 11012.00
438.2610, 11050.00
439.4530, 11106.00
440.6450, 11193.00
441.8360, 11100.00
443.0280, 11095.00
444.2190, 11017.00
445.4100, 11052.00
446.6010, 11117.00
447.7920, 11071.00
448.9820, 10991.00
450.1730, 10992.00
451.3630, 11178.00
452.5530, 11111.00
453.7430, 11194.00
454.9330, 11278.61
456.1230, 11255.00
457.3120, 11405.00
458.5010, 11424.00
459.6910, 11432.00
460.8800, 11477.00
462.0680, 11391.00
463.2570, 11467.00
464.4460, 11473.00
465.6340, 11570.00
466.8220, 11770.00
468.0100, 11669.00
469.1980, 11603.00
470.3860, 11790.00
471.5730, 11875.00
472.7600, 11821.00
473.9480, 11867.00
475.1350, 11972.00
476.3210, 12034.00
477.5080, 11989.00
478.6950, 12090.00
479.8810, 12085.00
481.0670, 12115.00
482.2530, 12183.00
483.4390, 12173.09
484.6250, 12251.00
485.8100, 12172.00
486.9960, 12266.00
488.1810, 12224.00
489.3660, 12266.00
490.5510, 12144.00
491.7360, 12181.00
492.9200, 12255.00
494.1050, 12080.00
495.2890, 12120.00
496.4730, 11992.00
497.6570, 12072.00
498.8400, 12028.00
500.0240, 12026.00
501.2070, 11985.00
502.3910, 12052.00
503.5740, 12089.00
504.7570, 12033.00
505.9400, 12157.00
507.1220, 12149.00
508.3050, 12190.00
509.4870, 12152.00
510.6690, 12203.00
511.8510, 12297.07
513.0330, 12413.00
514.2140, 12578.00
515.3960, 12692.00
516.5770, 12931.00
517.7580, 13167.00
518.9390, 13356.00
520.1200, 13509.00
521.3010, 13844.00
522.4810, 13907.00
523.6610, 14244.00
524.8420, 14427.00
526.0220, 14716.00
527.2010, 14923.00
528.3810, 15012.00
529.5610, 15039.00
530.7400, 15261.00
531.9190, 15249.00
533.0980, 15005.00
534.2770, 15166.00
535.4560, 14896.00
536.6340, 14743.00
537.8120, 14627.00
538.9910, 14337.00
540.1690, 14141.00
541.3460, 13901.00
542.5240, 13609.00
543.7020, 13433.89
544.8790, 13220.00
546.0560, 13014.00
547.2330, 12826.00
548.4100, 12643.55
549.5870, 12471.95
550.7630, 12313.00
551.9400, 12146.00
553.1160, 12002.00
554.2920, 11891.42
555.4680, 11852.00
556.6440, 11725.00
557.8190, 11670.00
558.9950, 11652.00
560.1700, 11536.00
561.3450, 11578.00
562.5200, 11499.00
563.6950, 11283.00
564.8690, 11395.00
566.0440, 11388.00
567.2180, 11223.00
568.3920, 11103.00
569.5660, 11121.00
570.7400, 11267.00
571.9130, 11155.00
573.0870, 11110.00
574.2600, 11079.00
575.4330, 10984.00
576.6060, 10932.00
577.7790, 10975.00
578.9520, 10964.00
580.1240, 10904.78
581.2960, 10820.00
582.4690, 10815.00
583.6410, 10697.00
584.8120, 10714.00
585.9840, 10627.41
587.1560, 10615.23
588.3270, 10512.00
589.4980, 10568.00
590.6690, 10575.00
591.8400, 10491.00
593.0110, 10496.00
594.1810, 10467.00
595.3510, 10580.00
596.5220, 10474.00
597.6920, 10585.00
598.8610, 10563.00
600.0310, 10555.00
601.2010, 10505.00
602.3700, 10506.86
603.5390, 10578.00
604.7080, 10520.00
605.8770, 10608.00
607.0460, 10684.00
608.2140, 10664.00
609.3830, 10562.00
610.5510, 10463.00
611.7190, 10519.00
612.8870, 10596.00
614.0550, 10612.00
615.2220, 10711.00
616.3900, 10595.00
617.5570, 10598.00
618.7240, 10683.18
619.8910, 10693.04
621.0580, 10827.00
622.2240, 10811.00
623.3910, 10827.00
624.5570, 10787.00
625.7230, 10884.00
626.8890, 10894.13
628.0550, 10976.00
629.2200, 10988.00
630.3860, 11117.00
631.5510, 11164.00
632.7160, 11146.00
633.8810, 11275.00
635.0460, 11275.33
636.2100, 11328.92
637.3750, 11360.98
638.5390, 11372.64
639.7030, 11302.88
640.8670, 11338.27
642.0310, 11331.52
643.1950, 11323.04
644.3580, 11373.22
645.5210, 11254.00
646.6850, 11391.00
647.8480, 11316.00
649.0100, 11213.00
650.1730, 11371.00
651.3350, 11310.00
652.4980, 11178.00
653.6600, 11229.00
654.8220, 11078.00
655.9840, 11152.00
657.1450, 11195.00
658.3070, 11093.00
659.4680, 11086.00
660.6300, 11094.00
661.7910, 10991.00
662.9510, 11190.00
664.1120, 11051.00
665.2730, 11044.00
666.4330, 11114.00
667.5930, 11039.00
668.7530, 10999.00
669.9130, 10864.00
671.0730, 11130.00
672.2320, 11005.00
673.3920, 11057.00
674.5510, 11077.00
675.7100, 10977.00
676.8690, 11071.00
678.0280, 10998.00
679.1860, 10951.00
680.3450, 11156.00
681.5030, 11060.00
682.6610, 11038.00
683.8190, 11038.00
684.9770, 11080.00
686.1340, 10999.00
687.2920, 11028.00
688.4490, 11133.00
689.6060, 10997.00
690.7630, 11051.00
691.9200, 11120.00
693.0760, 10912.00
694.2330, 10932.00
695.3890, 11100.00
696.5450, 11112.00
697.7010, 11132.00
698.8570, 11176.00
700.0130, 11250.00
701.1680, 11251.00
702.3230, 11213.00
703.4780, 11349.00
704.6330, 11225.00
705.7880, 11342.00
706.9430, 11232.00
708.0970, 11378.00
709.2520, 11257.00
710.4060, 11235.00
711.5600, 11441.00
712.7140, 11314.00
713.8670, 11350.00
715.0210, 11490.00
716.1740, 11502.00
717.3270, 11566.00
718.4800, 11571.00
719.6330, 11486.00
720.7860, 11617.00
721.9380, 11593.87
723.0910, 11713.00
724.2430, 11571.00
725.3950, 11816.00
726.5470, 11625.00
727.6980, 11791.00
728.8500, 11742.00
730.0010, 11797.00
731.1530, 11841.00
732.3040, 11881.00
733.4550, 11997.00
734.6050, 11933.00
735.7560, 11886.00
736.9060, 12040.00
738.0560, 12104.00
739.2060, 12026.00
740.3560, 12221.00
741.5060, 12213.00
742.6560, 12322.00
743.8050, 12200.00
744.9540, 12296.00
746.1030, 12171.00
747.2520, 12299.00
748.4010, 12324.00
749.5500, 12343.00
750.6980, 12516.00
751.8460, 12415.00
752.9950, 12494.00
754.1420, 12670.00
755.2900, 12489.00
756.4380, 12710.00
757.5850, 12598.00
758.7330, 12728.00
759.8800, 12788.00
761.0270, 12737.00
762.1730, 12884.00
763.3200, 12857.00
764.4670, 12912.00
765.6130, 12904.00
766.7590, 12947.00
767.9050, 12860.00
769.0510, 12829.00
770.1960, 13129.00
771.3420, 13020.00
772.4870, 13081.00
773.6320, 13036.00
774.7770, 13047.00
775.9220, 13117.00
777.0670, 13099.00
778.2110, 13199.00
779.3560, 13144.00
780.5000, 13219.00
781.6440, 13299.00
782.7880, 13311.00
783.9320, 13091.00
785.0750, 13145.00
786.2180, 13263.00
787.3620, 13205.00
788.5050, 13321.00
789.6480, 13325.00
790.7900, 13450.00
791.9330, 13428.65
793.0750, 13371.00
794.2170, 13391.00
795.3590, 13352.00
796.5010, 13324.00
797.6430, 13250.00
798.7850, 13318.00
799.9260, 13426.00
801.0670, 13250.00
802.2080, 13249.00
803.3490, 13413.00
804.4900, 13410.00
805.6310, 13522.00
806.7710, 13349.00
807.9110, 13630.00
809.0510, 13469.00
810.1910, 13586.00
811.3310, 13627.00
812.4710, 13677.00
813.6100, 13737.00
814.7490, 13789.99
815.8880, 13886.00
817.0270, 13951.00
818.1660, 13940.00
819.3050, 14102.00
820.4430, 14235.00
821.5820, 14413.00
822.7200, 14461.00
823.8580, 14701.00
824.9950, 14721.00
826.1330, 14712.00
827.2710, 14866.00
828.4080, 14985.00
829.5450, 15137.00
830.6820, 15263.00
831.8190, 15407.96
832.9560, 15542.00
834.0920, 15689.00
835.2280, 15848.00
836.3650, 15968.55
837.5010, 16193.00
838.6360, 16194.00
839.7720, 16430.00
840.9080, 16651.00
842.0430, 16781.00
843.1780, 17196.00
844.3130, 17312.00
845.4480, 17823.00
846.5830, 17985.00
847.7170, 18508.00
848.8520, 18732.00
849.9860, 19354.00
851.1200, 19784.00
852.2540, 20436.00
853.3870, 21131.00
854.5210, 21898.95
855.6540, 22649.00
856.7880, 23690.00
857.9210, 24753.00
859.0540, 25763.00
860.1860, 27212.00
861.3190, 28834.00
862.4510, 30391.00
863.5840, 32403.00
864.7160, 34662.00
865.8480, 36949.00
866.9790, 39842.00
868.1110, 43033.00
869.2420, 46205.00
870.3740, 49885.00
871.5050, 53554.00
872.6360, 56883.00
873.7660, 59014.00
874.8970, 61124.00
876.0280, 62240.00
877.1580, 61989.00
878.2880, 61190.00
879.4180, 58924.00
880.5480, 55788.00
881.6770, 52284.00
882.8070, 48249.00
883.9360, 43992.00
885.0650, 39672.00
886.1940, 35819.00
887.3230, 31961.00
888.4520, 28789.00
889.5800, 25995.00
890.7090, 23520.00
891.8370, 21646.00
892.9650, 19651.00
894.0930, 18399.00
895.2200, 17369.00
896.3480, 16449.00
897.4750, 15604.00
898.6020, 15069.00
899.7290, 14483.00
900.8560, 13926.00
901.9830, 13521.00
903.1090, 13144.00
904.2360, 12881.00
905.3620, 12629.00
906.4880, 12303.00
907.6140, 12347.00
908.7400, 12084.00
909.8650, 11933.00
910.9900, 11707.00
912.1160, 11649.00
913.2410, 11488.00
914.3660, 11340.00
915.4900, 11335.00
916.6150, 11173.55
917.7390, 11135.00
918.8640, 11018.00
919.9880, 10952.00
921.1120, 10998.00
922.2350, 10751.00
923.3590, 10709.00
924.4820, 10761.00
925.6060, 10746.00
926.7290, 10690.00
927.8520, 10751.00
928.9740, 10630.00
930.0970, 10710.00
931.2190, 10655.00
932.3420, 10587.00
933.4640, 10652.00
934.5860, 10695.00
935.7080, 10710.00
936.8290, 10727.00
937.9510, 10685.00
939.0720, 10581.00
940.1930, 10595.00
941.3140, 10632.00
942.4350, 10618.00
943.5560, 10485.00
944.6760, 10585.00
945.7960, 10448.00
946.9170, 10476.00
948.0370, 10506.00
949.1560, 10432.00
950.2760, 10381.00
951.3960, 10456.00
952.5150, 10479.00
953.6340, 10283.00
954.7530, 10271.00
955.8720, 10415.00
956.9910, 10210.00
958.1090, 10191.00
959.2280, 10267.00
960.3460, 10168.00
961.4640, 10180.00
962.5820, 9998.000
963.6990, 10123.00
964.8170, 10144.00
965.9340, 10037.00
967.0510, 10084.00
968.1690, 10022.74
969.2850, 10211.00
970.4020, 9953.000
971.5190, 9959.000
972.6350, 9955.000
973.7510, 10181.00
974.8670, 10086.00
975.9830, 10093.00
977.0990, 10091.00
978.2150, 10139.00
979.3300, 10031.00
980.4450, 10192.00
981.5600, 10073.00
982.6750, 10220.00
983.7900, 10145.00
984.9050, 10084.00
986.0190, 10132.00
987.1340, 10084.00
988.2480, 10035.00
989.3620, 10016.00
990.4750, 10065.00
991.5890, 10106.00
992.7020, 10115.16
993.8160, 10178.00
994.9290, 10158.00
996.0420, 10169.00
997.1550, 10179.00
998.2670, 10036.00
999.3800, 10151.00
1000.492, 10015.00
1001.604, 9949.000
1002.716, 10157.00
1003.828, 10070.00
1004.940, 10225.00
1006.051, 10145.00
1007.163, 10031.00
1008.274, 10162.00
1009.385, 10110.00
1010.496, 10046.00
1011.606, 10045.00
1012.717, 10095.00
1013.827, 10107.00
1014.937, 10071.00
1016.047, 10094.96
1017.157, 10097.00
1018.267, 10107.00
1019.377, 10031.00
1020.486, 10078.00
1021.595, 10102.00
1022.704, 10170.00
1023.813, 10195.00
1024.922, 10058.00
1026.030, 10053.00
1027.139, 10117.00
1028.247, 10074.00
1029.355, 10105.00
1030.463, 10165.00
1031.571, 10164.00
1032.678, 10069.00
1033.786, 10164.00
1034.893, 10193.00
1036.000, 10053.00
1037.107, 10003.00
1038.214, 10180.00
1039.321, 10189.00
1040.427, 10228.00
1041.533, 10159.00
1042.639, 10190.00
1043.745, 10118.00
1044.851, 10059.00
1045.957, 10216.00
1047.062, 10161.00
1048.168, 10163.00
1049.273, 10182.00
1050.378, 10110.00
1051.482, 10294.00
1052.587, 10276.00
1053.692, 10264.00
1054.796, 10157.00
1055.900, 10249.00
1057.004, 10240.00
1058.108, 10268.00
1059.212, 10189.00
1060.315, 10357.00
1061.418, 10312.00
1062.522, 10223.00
1063.625, 10295.00
1064.728, 10259.00
1065.830, 10258.00
1066.933, 10347.00
1068.035, 10262.00
1069.137, 10180.00
1070.239, 10243.00
1071.341, 10205.00
1072.443, 10372.00
1073.545, 10299.00
1074.646, 10142.00
1075.747, 10297.00
1076.848, 10199.00
1077.949, 10296.00
1079.050, 10287.00
1080.150, 10327.00
1081.251, 10267.00
1082.351, 10248.00
1083.451, 10206.00
1084.551, 10302.00
1085.651, 10285.00
1086.750, 10209.00
1087.850, 10210.00
1088.949, 10165.00
1090.048, 10132.41
1091.147, 10222.00
1092.246, 10161.00
1093.345, 10201.00
1094.443, 10186.24
1095.541, 10275.00
1096.639, 10164.00
1097.737, 10163.00
1098.835, 10199.00
1099.933, 10148.20
1101.030, 10175.45
1102.128, 10158.00
1103.225, 10166.00
1104.322, 10222.00
1105.419, 10174.00
1106.515, 10228.00
1107.612, 10120.00
1108.708, 10156.00
1109.804, 10128.00
1110.900, 10221.00
1111.996, 10148.00
1113.092, 10270.00
1114.187, 10182.00
1115.283, 10118.00
1116.378, 10062.00
1117.473, 10200.00
1118.568, 10102.00
1119.662, 10134.00
1120.757, 10041.00
1121.851, 9984.000
1122.946, 10127.00
1124.040, 10112.00
1125.134, 10100.80
1126.227, 10105.99
1127.321, 10064.00
1128.414, 10039.00
1129.508, 10038.00
1130.601, 10051.00
1131.693, 9940.000
1132.786, 10073.00
1133.879, 10138.00
1134.971, 10080.55
1136.064, 10047.00
1137.156, 9982.000
1138.248, 9965.353
1139.339, 10044.00
1140.431, 9933.000
1141.522, 10100.00
1142.614, 10108.00
1143.705, 10213.00
1144.796, 10143.00
1145.887, 10000.00
1146.977, 9982.000
1148.068, 10153.00
1149.158, 10015.00
1150.248, 9997.000
1151.338, 10061.00
1152.428, 10000.00
1153.518, 9980.000
1154.607, 10144.00
1155.696, 10054.11
1156.785, 10307.00
1157.874, 10041.00
1158.963, 9964.000
1160.052, 9997.000
1161.141, 9991.000
1162.229, 10035.00
1163.317, 10023.00
1164.405, 9837.000
1165.493, 9985.000
1166.581, 9885.000
1167.668, 9966.000
1168.756, 9992.000
1169.843, 9991.000
1170.930, 9957.000
1172.017, 9963.231
1173.103, 9958.776
1174.190, 9939.000
1175.276, 9958.000
1176.363, 9957.000
1177.449, 9941.000
1178.535, 9999.000
1179.620, 9945.000
1180.706, 10170.00
1181.791, 9966.000
1182.877, 10052.00
1183.962, 9943.000
1185.047, 9930.000
1186.131, 10027.00
1187.216, 9975.000
1188.300, 9917.000
1189.385, 9986.000
1190.469, 10186.00
1191.553, 10104.34
1192.637, 10102.61
1193.720, 10103.00
1194.804, 9952.000
1195.887, 9979.000
1196.970, 9967.000
1198.053, 9856.000
1199.136, 9921.000
1200.219, 9824.000
1201.301, 9913.000
1202.383, 9911.000
1203.465, 9939.000
1204.547, 9960.000
1205.629, 9871.000
1206.711, 10016.00
1207.792, 9989.000
1208.874, 9865.000
1209.955, 9798.000
1211.036, 9911.000
1212.117, 9827.000
1213.198, 9935.000
1214.278, 9928.000
1215.359, 9918.000
1216.439, 9977.000
1217.519, 9883.000
1218.599, 9987.000
1219.678, 9970.000
1220.758, 9947.000
1221.837, 9928.000
1222.917, 10009.00
1223.996, 9947.000
1225.075, 9870.000
1226.153, 9959.000
1227.232, 9909.000
1228.310, 9954.000
1229.389, 9988.000
1230.467, 9959.000
1231.545, 9800.000
1232.622, 9895.000
1233.700, 9959.000
1234.777, 9892.000
1235.855, 10087.00
1236.932, 9951.000
1238.009, 9934.000
1239.086, 9926.000
1240.162, 9915.000
1241.239, 9899.000
1242.315, 10017.00
1243.391, 9900.000
1244.467, 9920.000
1245.543, 9875.000
1246.619, 10002.00
1247.694, 9971.000
1248.769, 9872.000
1249.844, 9967.000
1250.919, 9912.000
1251.994, 9886.000
1253.069, 9901.000
1254.144, 9840.000
1255.218, 9910.000
1256.292, 9998.000
1257.366, 9958.000
1258.440, 9957.000
1259.514, 9940.000
1260.587, 9938.246
1261.661, 9924.000
1262.734, 9966.000
1263.807, 9937.000
1264.880, 9985.000
1265.952, 9937.000
1267.025, 9979.000
1268.097, 10006.00
1269.170, 9971.000
1270.242, 10044.00
1271.314, 9987.135
1272.385, 9979.000
1273.457, 9937.000
1274.528, 9905.000
1275.600, 9946.000
1276.671, 9927.000
1277.742, 9926.562
1278.812, 9938.727
1279.883, 9929.000
1280.954, 9918.000
1282.024, 9939.000
1283.094, 9873.000
1284.164, 9779.000
1285.234, 9930.000
1286.303, 9950.000
1287.373, 9897.000
1288.442, 9971.000
1289.511, 9882.000
1290.580, 9907.000
1291.649, 10018.00
1292.718, 9919.000
1293.786, 10000.00
1294.855, 9991.000
1295.923, 9881.000
1296.991, 9959.000
1298.059, 9950.000
1299.126, 9873.000
1300.194, 10037.00
1301.261, 9865.000
1302.328, 9954.000
1303.395, 9968.000
1304.462, 9939.000
1305.529, 10080.00
1306.596, 9896.000
1307.662, 10096.00
1308.728, 9918.000
1309.794, 9876.000
1310.860, 9930.000
1311.926, 9862.000
1312.991, 10002.00
1314.057, 9917.000
1315.122, 9833.000
1316.187, 9934.000
1317.252, 9980.000
1318.317, 9952.000
1319.381, 9981.000
1320.446, 10041.00
1321.510, 10005.00
1322.574, 10058.00
1323.638, 10065.73
1324.702, 10074.86
1325.766, 10091.00
1326.829, 10071.00
1327.892, 10074.00
1328.956, 9992.000
1330.019, 9942.000
1331.081, 10013.00
1332.144, 9963.000
1333.206, 10005.00
1334.269, 9993.000
1335.331, 10140.00
1336.393, 10013.00
1337.455, 10005.00
1338.516, 10082.00
1339.578, 9916.000
1340.639, 10160.00
1341.701, 9994.000
1342.762, 10042.00
1343.822, 9927.000
1344.883, 9876.000
1345.944, 9994.000
1347.004, 10099.00
1348.064, 10066.00
1349.124, 9998.000
1350.184, 10090.00
1351.244, 10105.00
1352.304, 10138.00
1353.363, 10105.00
1354.422, 9997.000
1355.481, 10085.00
1356.540, 10117.00
1357.599, 10006.00
1358.657, 10035.00
1359.716, 9994.000
1360.774, 10013.00
1361.832, 9987.000
1362.890, 10114.00
1363.948, 10147.00
1365.006, 9865.000
1366.063, 9979.000
1367.120, 9918.000
1368.178, 9954.000
1369.234, 10059.00
1370.291, 10045.00
1371.348, 10119.00
1372.404, 10138.12
1373.461, 10064.00
1374.517, 10120.00
1375.573, 10140.00
1376.629, 10023.00
1377.684, 10067.00
1378.740, 10077.00
1379.795, 10107.00
1380.850, 10040.00
1381.905, 10176.00
1382.960, 10210.00
1384.015, 10062.00
1385.070, 10124.00
1386.124, 10073.00
1387.178, 9951.000
1388.232, 9988.000
1389.286, 10053.00
1390.340, 10045.00
1391.393, 10081.28
1392.447, 10163.00
1393.500, 10096.00
1394.553, 10007.00
1395.606, 9973.000
1396.659, 10080.00
1397.711, 10043.00
1398.764, 10214.00
1399.816, 10045.00
1400.868, 10107.00
1401.920, 10130.00
1402.972, 10101.00
1404.023, 9982.000
1405.075, 10175.00
1406.126, 10096.00
1407.177, 9997.000
1408.228, 10192.00
1409.279, 10243.00
1410.330, 10040.04
1411.380, 10090.45
1412.431, 10119.33
1413.481, 10127.81
1414.531, 10054.87
1415.580, 10087.08
1416.630, 10077.15
1417.680, 10065.49
1418.729, 10112.50
1419.778, 10051.40
1420.827, 10097.48
1421.876, 10100.77
1422.925, 10123.65
1423.973, 10104.12
1425.022, 10097.69
1426.070, 10133.68
1427.118, 10146.17
1428.166, 10121.77
1429.214, 10145.89
1430.261, 10083.31
1431.309, 10096.80
1432.356, 10143.13
1433.403, 10120.85
1434.450, 10055.00
1435.497, 10088.00
1436.543, 10105.00
1437.590, 10162.00
1438.636, 10208.00
1439.682, 10199.00
1440.728, 10278.00
1441.774, 10133.00
1442.819, 10195.00
1443.865, 10287.00
1444.910, 10172.00
1445.955, 10140.00
1447.000, 10264.00
1448.045, 10087.00
1449.090, 10136.00
1450.134, 10184.00
1451.178, 10139.00
1452.223, 10160.00
1453.267, 10293.00
1454.310, 10127.00
1455.354, 10229.00
1456.398, 10163.00
1457.441, 10211.00
1458.484, 10344.00
1459.527, 10247.00
1460.570, 10103.00
1461.613, 10326.00
1462.655, 10086.00
1463.698, 10264.00
1464.740, 10051.00
1465.782, 10275.00
1466.824, 10116.00
1467.866, 10226.00
1468.907, 10273.00
1469.948, 10201.00
1470.990, 10285.00
1472.031, 10165.00
1473.072, 10406.00
1474.112, 10179.00
1475.153, 10280.00
1476.194, 10281.00
1477.234, 10226.00
1478.274, 10260.00
1479.314, 10177.00
1480.354, 10171.00
1481.393, 10233.00
1482.433, 10096.00
1483.472, 10270.00
1484.511, 10268.00
1485.550, 10285.00
1486.589, 10198.00
1487.628, 10362.00
1488.666, 10341.79
1489.704, 10325.37
1490.743, 10389.00
1491.781, 10273.00
1492.819, 10185.00
1493.856, 10143.00
1494.894, 10219.00
1495.931, 10287.00
1496.968, 10222.00
1498.005, 10205.00
1499.042, 10241.00
1500.079, 10256.62
1501.115, 10283.70
1502.152, 10339.00
1503.188, 10329.00
1504.224, 10304.00
1505.260, 10264.00
1506.296, 10271.00
1507.331, 10259.00
1508.367, 10333.00
1509.402, 10314.00
1510.437, 10195.00
1511.472, 10313.00
1512.507, 10317.00
1513.541, 10141.00
1514.576, 10274.00
1515.610, 10338.00
1516.644, 10256.00
1517.678, 10329.00
1518.712, 10251.00
1519.746, 10205.00
1520.779, 10259.00
1521.813, 10318.00
1522.846, 10270.00
1523.879, 10337.00
1524.912, 10384.00
1525.944, 10271.00
1526.977, 10277.00
1528.009, 10304.00
1529.041, 10325.00
1530.073, 10292.00
1531.105, 10401.00
1532.137, 10198.53
1533.168, 10309.56
1534.200, 10381.69
1535.231, 10416.00
1536.262, 10351.48
1537.293, 10374.73
1538.324, 10338.44
1539.354, 10283.07
1540.385, 10268.95
1541.415, 10411.00
1542.445, 10401.00
1543.475, 10236.00
1544.505, 10333.00
1545.534, 10277.00
1546.564, 10453.00
1547.593, 10432.00
1548.622, 10522.00
1549.651, 10493.00
1550.680, 10668.00
1551.708, 10681.00
1552.737, 10858.00
1553.765, 10736.00
1554.793, 10670.00
1555.821, 10549.00
1556.849, 10356.00
1557.877, 10332.00
1558.904, 10313.00
1559.932, 10466.00
1560.959, 10499.00
1561.986, 10369.00
1563.013, 10342.00
##END=



