##NAMES=Columbite-(Fe)
##RRUFFID=R060001
##IDEAL CHEMISTRY=Fe^2+^Nb^5+^_2_O_6_
##LOCALITY=Gypsy mine, Minas Gerais, Brazil
##OWNER=RRUFF
##SOURCE=Eric Van Valkenburg
##DESCRIPTION=Steel gray fragment with internal red hints
##STATUS=The identification of this mineral has been confirmed by X-ray diffraction and chemical analysis
##URL=rruff.info/R060001
##MEASURED CHEMISTRY=(Fe^2+^_0.52_Mn^2+^_0.48_)_Σ=1_(Nb_1.61_Ta_0.39_)_Σ=2_O_6_
##PIN_ID=L01130
##ORIENTATION=Laser parallel to a* (1 0 0). Fiducial mark perpendicular to laser is parallel to -b [0 -1 0]
120.3580, 8187.000
121.5920, 8426.000
122.8270, 8718.000
124.0610, 8545.000
125.2950, 8647.000
126.5290, 8843.000
127.7630, 9337.000
128.9970, 9609.000
130.2300, 9742.000
131.4640, 10067.00
132.6970, 10110.00
133.9300, 9969.000
135.1630, 10324.00
136.3950, 10303.00
137.6280, 10524.00
138.8600, 10469.00
140.0920, 10526.00
141.3240, 10405.00
142.5560, 10028.00
143.7880, 9772.000
145.0190, 9702.000
146.2510, 9650.000
147.4820, 9723.000
148.7130, 9670.000
149.9440, 9731.000
151.1750, 9767.000
152.4050, 9821.000
153.6360, 9797.000
154.8660, 9600.000
156.0960, 9450.000
157.3260, 9416.000
158.5560, 9508.000
159.7850, 9558.000
161.0150, 9511.000
162.2440, 9617.000
163.4730, 9604.000
164.7020, 9802.000
165.9310, 9622.000
167.1590, 9564.000
168.3880, 9687.000
169.6160, 9566.000
170.8440, 9745.000
172.0720, 9880.000
173.3000, 9881.000
174.5280, 9766.000
175.7550, 9640.000
176.9820, 9767.000
178.2100, 9898.000
179.4370, 9774.000
180.6630, 9775.000
181.8900, 9759.000
183.1170, 9827.000
184.3430, 9979.000
185.5690, 10003.26
186.7950, 10163.00
188.0210, 10154.00
189.2470, 10238.00
190.4720, 10303.40
191.6970, 10288.00
192.9230, 10586.00
194.1480, 10612.00
195.3730, 10805.00
196.5970, 10907.00
197.8220, 10986.00
199.0460, 10987.00
200.2700, 11156.00
201.4940, 11370.00
202.7180, 11127.00
203.9420, 11014.00
205.1660, 10621.00
206.3890, 10672.00
207.6120, 10488.00
208.8350, 10741.00
210.0580, 10678.00
211.2810, 10480.00
212.5040, 10496.00
213.7260, 10469.00
214.9480, 10469.00
216.1700, 10538.00
217.3920, 10438.00
218.6140, 10445.87
219.8360, 10420.88
221.0570, 10319.00
222.2790, 10343.00
223.5000, 10182.00
224.7210, 10102.00
225.9410, 10256.00
227.1620, 10163.59
228.3820, 10212.11
229.6030, 10212.00
230.8230, 10281.00
232.0430, 10329.00
233.2630, 10419.00
234.4820, 10608.00
235.7020, 10762.00
236.9210, 10875.00
238.1400, 10994.08
239.3590, 11105.29
240.5780, 11177.00
241.7970, 11279.00
243.0150, 11387.23
244.2340, 11420.34
245.4520, 11491.00
246.6700, 11440.00
247.8880, 11357.00
249.1060, 11329.00
250.3230, 11088.00
251.5400, 11078.00
252.7580, 11093.00
253.9750, 11229.00
255.1920, 11032.00
256.4080, 10978.00
257.6250, 11082.00
258.8410, 11240.00
260.0580, 11155.00
261.2740, 10898.00
262.4900, 10868.00
263.7050, 10798.00
264.9210, 10847.00
266.1360, 10919.00
267.3520, 10993.00
268.5670, 10917.00
269.7820, 10938.51
270.9960, 10880.13
272.2110, 10842.00
273.4250, 10716.00
274.6400, 10625.00
275.8540, 10489.79
277.0680, 10393.19
278.2810, 10286.00
279.4950, 10224.00
280.7090, 10170.00
281.9220, 10164.00
283.1350, 10078.00
284.3480, 10009.00
285.5610, 10120.00
286.7730, 10056.00
287.9860, 10110.00
289.1980, 9973.000
290.4100, 9844.000
291.6220, 9736.000
292.8340, 9753.000
294.0460, 9643.000
295.2570, 9740.000
296.4690, 9622.000
297.6800, 9723.000
298.8910, 9630.000
300.1020, 9608.000
301.3120, 9632.000
302.5230, 9580.000
303.7330, 9661.000
304.9440, 9651.000
306.1540, 9666.000
307.3630, 9725.000
308.5730, 9740.000
309.7830, 9887.000
310.9920, 9925.000
312.2010, 10042.00
313.4100, 10131.00
314.6190, 10197.00
315.8280, 10241.96
317.0370, 10222.00
318.2450, 10232.00
319.4530, 10308.00
320.6610, 10194.00
321.8690, 10072.00
323.0770, 10192.00
324.2850, 9907.000
325.4920, 10006.00
326.6990, 9779.000
327.9060, 9728.000
329.1130, 9684.000
330.3200, 9555.000
331.5270, 9472.000
332.7330, 9346.000
333.9390, 9396.000
335.1450, 9362.000
336.3510, 9229.000
337.5570, 9328.000
338.7630, 9173.000
339.9680, 9213.000
341.1740, 9134.000
342.3790, 9203.000
343.5840, 9147.000
344.7890, 9239.000
345.9930, 9208.000
347.1980, 9201.000
348.4020, 9104.000
349.6060, 9193.000
350.8100, 9241.000
352.0140, 9073.000
353.2180, 9057.000
354.4210, 8927.000
355.6250, 8896.000
356.8280, 8960.000
358.0310, 8772.000
359.2340, 9006.000
360.4360, 8971.000
361.6390, 8864.000
362.8410, 8880.000
364.0430, 8845.575
365.2450, 8761.000
366.4470, 8845.000
367.6490, 8872.000
368.8510, 8889.000
370.0520, 8841.000
371.2530, 8788.000
372.4540, 8839.000
373.6550, 8736.000
374.8560, 8737.000
376.0560, 8724.000
377.2570, 8769.000
378.4570, 8799.000
379.6570, 8732.000
380.8570, 8847.000
382.0570, 8768.486
383.2560, 8922.329
384.4560, 9006.048
385.6550, 9023.418
386.8540, 8775.705
388.0530, 8870.293
389.2520, 8827.703
390.4510, 8779.487
391.6490, 8922.259
392.8470, 8713.107
394.0450, 8852.850
395.2430, 8853.320
396.4410, 8917.532
397.6390, 8849.000
398.8360, 8739.000
400.0340, 8889.000
401.2310, 8766.000
402.4280, 8771.000
403.6250, 8745.000
404.8210, 8874.000
406.0180, 8880.000
407.2140, 8858.000
408.4100, 8810.000
409.6060, 8856.000
410.8020, 8758.000
411.9980, 8806.000
413.1930, 8805.000
414.3890, 8759.000
415.5840, 8799.000
416.7790, 8805.061
417.9740, 8942.000
419.1680, 8877.000
420.3630, 8921.000
421.5570, 8986.000
422.7510, 8924.000
423.9450, 8985.000
425.1390, 8904.000
426.3330, 8899.000
427.5270, 8953.000
428.7200, 8902.000
429.9130, 8934.000
431.1060, 8981.000
432.2990, 8999.000
433.4920, 8999.000
434.6840, 8938.000
435.8770, 9085.000
437.0690, 9004.000
438.2610, 9001.000
439.4530, 9113.000
440.6450, 9118.000
441.8360, 9051.000
443.0280, 9068.000
444.2190, 9058.000
445.4100, 9066.000
446.6010, 9081.605
447.7920, 9091.000
448.9820, 9137.000
450.1730, 9099.000
451.3630, 9170.000
452.5530, 9150.000
453.7430, 9213.000
454.9330, 9126.000
456.1230, 9290.000
457.3120, 9380.000
458.5010, 9337.000
459.6910, 9317.000
460.8800, 9342.000
462.0680, 9329.000
463.2570, 9375.000
464.4460, 9383.000
465.6340, 9366.000
466.8220, 9519.000
468.0100, 9496.000
469.1980, 9432.000
470.3860, 9549.000
471.5730, 9450.000
472.7600, 9486.000
473.9480, 9481.000
475.1350, 9496.000
476.3210, 9522.000
477.5080, 9559.478
478.6950, 9751.000
479.8810, 9634.000
481.0670, 9790.000
482.2530, 9777.000
483.4390, 9810.000
484.6250, 9893.000
485.8100, 9825.000
486.9960, 9755.000
488.1810, 9827.000
489.3660, 9794.000
490.5510, 9878.000
491.7360, 9903.272
492.9200, 9837.000
494.1050, 9981.000
495.2890, 9999.000
496.4730, 10027.00
497.6570, 9975.000
498.8400, 10016.23
500.0240, 10007.00
501.2070, 10018.00
502.3910, 10077.00
503.5740, 10014.00
504.7570, 10082.00
505.9400, 10135.00
507.1220, 10135.99
508.3050, 10192.90
509.4870, 10216.00
510.6690, 10292.00
511.8510, 10376.00
513.0330, 10500.00
514.2140, 10469.00
515.3960, 10530.00
516.5770, 10649.00
517.7580, 10626.00
518.9390, 10690.00
520.1200, 10920.00
521.3010, 11030.00
522.4810, 11058.00
523.6610, 11233.00
524.8420, 11376.00
526.0220, 11330.00
527.2010, 11453.00
528.3810, 11714.00
529.5610, 11620.00
530.7400, 11591.00
531.9190, 11761.00
533.0980, 11581.00
534.2770, 11508.00
535.4560, 11584.00
536.6340, 11513.00
537.8120, 11496.00
538.9910, 11673.00
540.1690, 11524.00
541.3460, 11558.00
542.5240, 11351.00
543.7020, 11309.00
544.8790, 11027.00
546.0560, 11176.00
547.2330, 11057.00
548.4100, 11042.00
549.5870, 11116.00
550.7630, 11064.00
551.9400, 11077.00
553.1160, 11041.00
554.2920, 10894.00
555.4680, 11033.00
556.6440, 10973.00
557.8190, 11142.00
558.9950, 10935.00
560.1700, 10908.00
561.3450, 10923.00
562.5200, 10821.00
563.6950, 10793.00
564.8690, 10826.00
566.0440, 10873.00
567.2180, 10892.00
568.3920, 10878.98
569.5660, 10782.00
570.7400, 10821.00
571.9130, 10765.00
573.0870, 10722.00
574.2600, 10482.00
575.4330, 10423.00
576.6060, 10314.00
577.7790, 10068.00
578.9520, 10110.00
580.1240, 9841.000
581.2960, 9738.000
582.4690, 9377.000
583.6410, 9496.000
584.8120, 9429.000
585.9840, 9222.000
587.1560, 9241.000
588.3270, 9057.000
589.4980, 9236.000
590.6690, 9224.000
591.8400, 9185.000
593.0110, 9165.000
594.1810, 9134.000
595.3510, 9104.000
596.5220, 9078.000
597.6920, 9059.000
598.8610, 8991.000
600.0310, 9084.000
601.2010, 9038.420
602.3700, 9087.000
603.5390, 9024.000
604.7080, 9146.000
605.8770, 9116.000
607.0460, 9044.000
608.2140, 9107.000
609.3830, 9055.000
610.5510, 9174.000
611.7190, 9109.000
612.8870, 9204.000
614.0550, 9053.000
615.2220, 9242.000
616.3900, 9150.000
617.5570, 9225.000
618.7240, 9157.000
619.8910, 9248.000
621.0580, 9135.000
622.2240, 9159.000
623.3910, 9288.000
624.5570, 9221.000
625.7230, 9247.000
626.8890, 9306.000
628.0550, 9240.000
629.2200, 9190.000
630.3860, 9253.000
631.5510, 9331.000
632.7160, 9281.000
633.8810, 9266.000
635.0460, 9195.000
636.2100, 9226.000
637.3750, 9197.000
638.5390, 9295.000
639.7030, 9338.000
640.8670, 9371.000
642.0310, 9210.281
643.1950, 9367.731
644.3580, 9455.063
645.5210, 9476.044
646.6850, 9231.938
647.8480, 9330.135
649.0100, 9291.156
650.1730, 9246.550
651.3350, 9392.927
652.4980, 9187.379
653.6600, 9330.728
654.8220, 9401.000
655.9840, 9315.000
657.1450, 9404.000
658.3070, 9381.000
659.4680, 9293.000
660.6300, 9395.000
661.7910, 9440.000
662.9510, 9487.000
664.1120, 9510.653
665.2730, 9346.000
666.4330, 9509.000
667.5930, 9404.000
668.7530, 9379.000
669.9130, 9505.000
671.0730, 9572.000
672.2320, 9429.000
673.3920, 9484.000
674.5510, 9512.000
675.7100, 9421.000
676.8690, 9548.000
678.0280, 9595.000
679.1860, 9529.000
680.3450, 9644.000
681.5030, 9500.000
682.6610, 9606.000
683.8190, 9615.000
684.9770, 9704.000
686.1340, 9676.000
687.2920, 9750.000
688.4490, 9672.000
689.6060, 9675.000
690.7630, 9745.000
691.9200, 9693.000
693.0760, 9714.000
694.2330, 9755.000
695.3890, 9794.000
696.5450, 9755.000
697.7010, 9801.000
698.8570, 9907.000
700.0130, 9950.000
701.1680, 9869.000
702.3230, 9927.000
703.4780, 9908.000
704.6330, 10051.00
705.7880, 10046.00
706.9430, 9987.000
708.0970, 10174.00
709.2520, 10014.00
710.4060, 10020.00
711.5600, 10102.00
712.7140, 10094.00
713.8670, 10148.00
715.0210, 10086.00
716.1740, 10314.00
717.3270, 10195.00
718.4800, 10302.00
719.6330, 10260.00
720.7860, 10304.00
721.9380, 10274.00
723.0910, 10325.00
724.2430, 10329.00
725.3950, 10512.00
726.5470, 10331.00
727.6980, 10346.00
728.8500, 10530.00
730.0010, 10565.00
731.1530, 10484.00
732.3040, 10562.00
733.4550, 10754.00
734.6050, 10651.00
735.7560, 10750.00
736.9060, 10759.00
738.0560, 10820.00
739.2060, 10886.00
740.3560, 10944.00
741.5060, 10969.00
742.6560, 11093.00
743.8050, 11016.00
744.9540, 10998.00
746.1030, 11070.00
747.2520, 11233.00
748.4010, 11240.00
749.5500, 11313.00
750.6980, 11255.00
751.8460, 11274.00
752.9950, 11254.00
754.1420, 11317.26
755.2900, 11447.00
756.4380, 11453.00
757.5850, 11622.00
758.7330, 11645.00
759.8800, 11710.00
761.0270, 11780.00
762.1730, 11688.00
763.3200, 11817.00
764.4670, 11851.00
765.6130, 11974.00
766.7590, 11850.00
767.9050, 11881.00
769.0510, 11971.00
770.1960, 12152.00
771.3420, 12111.00
772.4870, 12031.00
773.6320, 12204.00
774.7770, 12257.00
775.9220, 12182.00
777.0670, 12165.00
778.2110, 12193.00
779.3560, 12334.00
780.5000, 12247.00
781.6440, 12367.00
782.7880, 12230.00
783.9320, 12443.00
785.0750, 12353.00
786.2180, 12398.00
787.3620, 12581.00
788.5050, 12340.00
789.6480, 12620.00
790.7900, 12480.00
791.9330, 12419.00
793.0750, 12540.00
794.2170, 12390.00
795.3590, 12541.00
796.5010, 12553.00
797.6430, 12510.00
798.7850, 12424.00
799.9260, 12508.00
801.0670, 12488.00
802.2080, 12486.00
803.3490, 12363.00
804.4900, 12402.00
805.6310, 12373.96
806.7710, 12401.00
807.9110, 12448.00
809.0510, 12426.00
810.1910, 12604.00
811.3310, 12636.00
812.4710, 12553.00
813.6100, 12462.00
814.7490, 12642.00
815.8880, 12577.00
817.0270, 12633.00
818.1660, 12483.00
819.3050, 12487.00
820.4430, 12661.00
821.5820, 12805.00
822.7200, 12606.00
823.8580, 12667.00
824.9950, 12750.00
826.1330, 12712.00
827.2710, 12693.00
828.4080, 12797.00
829.5450, 12864.00
830.6820, 12853.00
831.8190, 12864.00
832.9560, 12930.00
834.0920, 12826.00
835.2280, 12970.00
836.3650, 12947.00
837.5010, 13026.00
838.6360, 12968.00
839.7720, 13013.00
840.9080, 13175.00
842.0430, 13139.00
843.1780, 13217.00
844.3130, 13336.00
845.4480, 13403.00
846.5830, 13529.00
847.7170, 13546.00
848.8520, 13579.00
849.9860, 13752.00
851.1200, 14024.00
852.2540, 14044.00
853.3870, 14287.00
854.5210, 14616.00
855.6540, 14563.00
856.7880, 15117.00
857.9210, 15347.00
859.0540, 15769.00
860.1860, 16036.00
861.3190, 16297.00
862.4510, 16982.00
863.5840, 17373.00
864.7160, 18129.00
865.8480, 18555.00
866.9790, 19235.00
868.1110, 19851.00
869.2420, 20942.00
870.3740, 21591.00
871.5050, 22351.00
872.6360, 23160.00
873.7660, 23560.00
874.8970, 23876.00
876.0280, 23704.00
877.1580, 23293.00
878.2880, 22624.00
879.4180, 21793.00
880.5480, 20663.00
881.6770, 19203.00
882.8070, 17924.00
883.9360, 16734.00
885.0650, 15648.00
886.1940, 14531.00
887.3230, 13557.00
888.4520, 12698.00
889.5800, 12228.00
890.7090, 11519.00
891.8370, 11215.00
892.9650, 10835.00
894.0930, 10465.00
895.2200, 10164.00
896.3480, 10143.00
897.4750, 9890.000
898.6020, 9691.000
899.7290, 9824.000
900.8560, 9412.000
901.9830, 9286.000
903.1090, 9306.000
904.2360, 9154.000
905.3620, 9160.000
906.4880, 8957.000
907.6140, 8904.000
908.7400, 8901.000
909.8650, 8916.000
910.9900, 8831.000
912.1160, 8927.000
913.2410, 8813.000
914.3660, 8716.000
915.4900, 8730.000
916.6150, 8729.000
917.7390, 8754.000
918.8640, 8571.000
919.9880, 8538.000
921.1120, 8497.230
922.2350, 8559.000
923.3590, 8450.000
924.4820, 8497.000
925.6060, 8536.000
926.7290, 8390.000
927.8520, 8493.000
928.9740, 8511.000
930.0970, 8405.000
931.2190, 8414.000
932.3420, 8357.000
933.4640, 8336.000
934.5860, 8296.000
935.7080, 8412.000
936.8290, 8402.000
937.9510, 8437.000
939.0720, 8192.000
940.1930, 8397.000
941.3140, 8341.000
942.4350, 8233.000
943.5560, 8340.000
944.6760, 8346.000
945.7960, 8290.000
946.9170, 8161.000
948.0370, 8312.000
949.1560, 8215.000
950.2760, 8308.000
951.3960, 8225.000
952.5150, 8166.000
953.6340, 8281.000
954.7530, 8157.000
955.8720, 8252.000
956.9910, 8255.000
958.1090, 8342.000
959.2280, 8211.000
960.3460, 8146.000
961.4640, 8220.000
962.5820, 8226.000
963.6990, 8217.000
964.8170, 8177.000
965.9340, 8226.000
967.0510, 8111.000
968.1690, 8149.000
969.2850, 8115.000
970.4020, 8219.000
971.5190, 8268.000
972.6350, 8181.000
973.7510, 8145.000
974.8670, 8179.000
975.9830, 8078.000
977.0990, 8160.000
978.2150, 8254.000
979.3300, 8216.000
980.4450, 8166.000
981.5600, 8159.000
982.6750, 8209.000
983.7900, 8196.000
984.9050, 8096.000
986.0190, 8186.000
987.1340, 8259.000
988.2480, 8155.000
989.3620, 8235.000
990.4750, 8094.000
991.5890, 8116.000
992.7020, 8235.000
993.8160, 8054.000
994.9290, 8160.000
996.0420, 8182.000
997.1550, 8157.000
998.2670, 8269.000
999.3800, 8150.000
1000.492, 8176.000
1001.604, 8010.000
1002.716, 8214.000
1003.828, 8094.000
1004.940, 8097.000
1006.051, 8224.000
1007.163, 8142.000
1008.274, 8263.000
1009.385, 8080.000
1010.496, 8179.000
1011.606, 8266.000
1012.717, 8119.000
1013.827, 8111.000
1014.937, 8109.000
1016.047, 8149.000
1017.157, 8124.268
1018.267, 8197.000
1019.377, 8140.000
1020.486, 8134.000
1021.595, 8219.000
1022.704, 8089.000
1023.813, 8118.000
1024.922, 8125.000
1026.030, 8133.000
1027.139, 8076.000
1028.247, 8153.000
1029.355, 8053.000
1030.463, 8104.000
1031.571, 8085.000
1032.678, 8121.000
1033.786, 8221.000
1034.893, 8278.000
1036.000, 8186.000
1037.107, 8165.000
1038.214, 8134.000
1039.321, 8188.000
1040.427, 8116.000
1041.533, 8189.000
1042.639, 8160.000
1043.745, 8213.000
1044.851, 8115.000
1045.957, 8073.000
1047.062, 8213.000
1048.168, 8190.000
1049.273, 8253.000
1050.378, 8185.000
1051.482, 8072.000
1052.587, 8152.000
1053.692, 8114.000
1054.796, 8104.000
1055.900, 8325.000
1057.004, 8187.000
1058.108, 8067.000
1059.212, 8207.000
1060.315, 8162.000
1061.418, 8201.000
1062.522, 8274.000
1063.625, 8213.000
1064.728, 8159.000
1065.830, 8135.000
1066.933, 8131.000
1068.035, 8190.000
1069.137, 8242.000
1070.239, 8051.000
1071.341, 8239.000
1072.443, 8146.000
1073.545, 8253.000
1074.646, 8230.000
1075.747, 8213.000
1076.848, 8183.000
1077.949, 8177.354
1079.050, 8152.000
1080.150, 8179.000
1081.251, 8108.000
1082.351, 8137.000
1083.451, 8243.000
1084.551, 8289.000
1085.651, 8152.000
1086.750, 8186.000
1087.850, 8147.000
1088.949, 8234.000
1090.048, 8368.000
1091.147, 8047.000
1092.246, 8231.000
1093.345, 8225.000
1094.443, 8111.000
1095.541, 8208.000
1096.639, 8137.000
1097.737, 8129.000
1098.835, 8224.000
1099.933, 8153.000
1101.030, 8091.000
1102.128, 8058.000
1103.225, 8072.000
1104.322, 8097.000
1105.419, 8119.000
1106.515, 8167.000
1107.612, 8197.217
1108.708, 8119.000
1109.804, 8227.000
1110.900, 8150.000
1111.996, 8048.000
1113.092, 8018.000
1114.187, 8081.000
1115.283, 8098.000
1116.378, 8157.000
1117.473, 8133.000
1118.568, 8105.000
1119.662, 8170.000
1120.757, 8219.000
1121.851, 8125.000
1122.946, 8141.000
1124.040, 8074.000
1125.134, 8023.000
1126.227, 8132.000
1127.321, 8148.000
1128.414, 8053.000
1129.508, 8038.000
1130.601, 8082.000
1131.693, 8179.000
1132.786, 8074.000
1133.879, 8050.000
1134.971, 8060.000
1136.064, 8044.124
1137.156, 8069.718
1138.248, 8103.000
1139.339, 8121.000
1140.431, 8170.000
1141.522, 8181.502
1142.614, 8070.000
1143.705, 8141.000
1144.796, 8112.000
1145.887, 8015.000
1146.977, 8008.000
1148.068, 8039.000
1149.158, 8027.000
1150.248, 7950.000
1151.338, 8029.000
1152.428, 8069.000
1153.518, 8022.000
1154.607, 8075.000
1155.696, 7974.000
1156.785, 7986.000
1157.874, 7954.000
1158.963, 7966.000
1160.052, 7984.578
1161.141, 7985.000
1162.229, 8042.000
1163.317, 8107.000
1164.405, 8148.000
1165.493, 7900.000
1166.581, 8023.000
1167.668, 7995.000
1168.756, 7948.000
1169.843, 8054.000
1170.930, 8066.000
1172.017, 8016.000
1173.103, 7942.000
1174.190, 8033.000
1175.276, 7938.000
1176.363, 8018.000
1177.449, 7893.000
1178.535, 8011.000
1179.620, 8070.000
1180.706, 7962.000
1181.791, 7933.000
1182.877, 8049.000
1183.962, 8027.000
1185.047, 7976.000
1186.131, 7921.000
1187.216, 7974.000
1188.300, 7911.000
1189.385, 7986.000
1190.469, 7866.000
1191.553, 7910.000
1192.637, 8057.000
1193.720, 7964.000
1194.804, 8005.000
1195.887, 8029.000
1196.970, 7882.000
1198.053, 8050.000
1199.136, 8011.000
1200.219, 8002.000
1201.301, 7899.000
1202.383, 7952.000
1203.465, 7999.000
1204.547, 7936.000
1205.629, 8000.000
1206.711, 7947.000
1207.792, 8078.000
1208.874, 7898.000
1209.955, 8118.000
1211.036, 7980.000
1212.117, 7899.000
1213.198, 7938.000
1214.278, 7952.000
1215.359, 7902.000
1216.439, 7891.000
1217.519, 8008.000
1218.599, 8042.000
1219.678, 8023.000
1220.758, 8027.000
1221.837, 7899.000
1222.917, 8034.000
1223.996, 8041.000
1225.075, 7903.000
1226.153, 7966.000
1227.232, 7907.000
1228.310, 7944.000
1229.389, 7963.000
1230.467, 7892.000
1231.545, 7918.000
1232.622, 7884.000
1233.700, 7883.000
1234.777, 7883.133
1235.855, 7871.000
1236.932, 7898.000
1238.009, 7912.000
1239.086, 7967.000
1240.162, 8001.000
1241.239, 7984.000
1242.315, 8008.648
1243.391, 7928.000
1244.467, 7964.000
1245.543, 7981.000
1246.619, 7875.000
1247.694, 7872.000
1248.769, 7882.000
1249.844, 8018.000
1250.919, 7858.000
1251.994, 7994.000
1253.069, 7887.000
1254.144, 7914.000
1255.218, 7873.000
1256.292, 7932.000
1257.366, 7979.000
1258.440, 7888.000
1259.514, 8055.000
1260.587, 7873.000
1261.661, 7937.000
1262.734, 7831.000
1263.807, 7917.000
1264.880, 7902.000
1265.952, 7996.000
1267.025, 7954.000
1268.097, 8046.000
1269.170, 7936.000
1270.242, 7957.000
1271.314, 7936.000
1272.385, 7963.000
1273.457, 7837.000
1274.528, 7924.000
1275.600, 7930.000
1276.671, 7846.000
1277.742, 7918.000
1278.812, 7904.000
1279.883, 7907.000
1280.954, 7969.000
1282.024, 7920.000
1283.094, 7903.000
1284.164, 7889.000
1285.234, 7872.925
1286.303, 7925.000
1287.373, 7875.000
1288.442, 7902.000
1289.511, 7928.000
1290.580, 8025.000
1291.649, 7857.000
1292.718, 7846.000
1293.786, 7796.000
1294.855, 7868.000
1295.923, 7857.000
1296.991, 7858.000
1298.059, 7916.000
1299.126, 7874.000
1300.194, 7931.000
1301.261, 7912.212
1302.328, 7856.000
1303.395, 7888.000
1304.462, 7890.000
1305.529, 7881.000
1306.596, 7944.000
1307.662, 7887.000
1308.728, 7945.000
1309.794, 7944.000
1310.860, 7828.000
1311.926, 7987.000
1312.991, 7883.000
1314.057, 7960.000
1315.122, 7894.000
1316.187, 7847.000
1317.252, 7953.000
1318.317, 7877.000
1319.381, 7896.000
1320.446, 7957.000
1321.510, 7905.000
1322.574, 7935.917
1323.638, 7858.000
1324.702, 7936.000
1325.766, 7942.000
1326.829, 7945.796
1327.892, 7979.000
1328.956, 7928.000
1330.019, 7961.704
1331.081, 7867.000
1332.144, 7970.000
1333.206, 8018.000
1334.269, 7989.750
1335.331, 7941.000
1336.393, 7886.000
1337.455, 7972.000
1338.516, 7875.000
1339.578, 7865.000
1340.639, 7990.000
1341.701, 7908.000
1342.762, 7950.000
1343.822, 8006.000
1344.883, 7914.000
1345.944, 7797.000
1347.004, 7942.000
1348.064, 7912.000
1349.124, 8023.000
1350.184, 7957.121
1351.244, 7958.301
1352.304, 7837.000
1353.363, 7883.000
1354.422, 7904.000
1355.481, 7843.000
1356.540, 7786.000
1357.599, 7951.000
1358.657, 7976.000
1359.716, 7901.000
1360.774, 7882.000
1361.832, 7965.000
1362.890, 7932.000
1363.948, 7952.884
1365.006, 7852.000
1366.063, 7961.000
1367.120, 7931.000
1368.178, 7932.000
1369.234, 7944.000
1370.291, 7869.000
1371.348, 7949.000
1372.404, 7895.000
1373.461, 7935.000
1374.517, 7979.000
1375.573, 7861.000
1376.629, 7832.000
1377.684, 7884.000
1378.740, 7842.000
1379.795, 7833.000
1380.850, 7885.000
1381.905, 7905.000
1382.960, 7903.000
1384.015, 7951.000
1385.070, 7959.608
1386.124, 7943.000
1387.178, 7971.000
1388.232, 7961.000
1389.286, 7898.000
1390.340, 7997.000
1391.393, 7859.000
1392.447, 7932.000
1393.500, 7944.000
1394.553, 7926.000
1395.606, 7954.000
1396.659, 7889.000
1397.711, 7966.000
1398.764, 7924.808
1399.816, 7933.000
1400.868, 7888.000
1401.920, 7907.000
1402.972, 7884.000
1404.023, 7817.000
1405.075, 8010.000
1406.126, 7875.000
1407.177, 7898.000
1408.228, 7952.000
1409.279, 7858.000
1410.330, 7950.000
1411.380, 7863.000
1412.431, 8032.000
1413.481, 7933.000
1414.531, 7885.000
1415.580, 7919.000
1416.630, 7908.000
1417.680, 7879.000
1418.729, 7905.000
1419.778, 7895.000
1420.827, 7984.000
1421.876, 7997.000
1422.925, 7971.000
1423.973, 7950.000
1425.022, 7938.000
1426.070, 7941.000
1427.118, 7899.000
1428.166, 7854.000
1429.214, 7870.000
1430.261, 7968.000
1431.309, 7928.000
1432.356, 7967.000
1433.403, 7937.000
1434.450, 7939.000
1435.497, 7922.000
1436.543, 8023.000
1437.590, 7913.000
1438.636, 8071.000
1439.682, 7896.000
1440.728, 7925.000
1441.774, 7980.000
1442.819, 7871.000
1443.865, 7920.000
1444.910, 7921.000
1445.955, 7914.000
1447.000, 7945.305
1448.045, 7956.672
1449.090, 7966.000
1450.134, 7978.000
1451.178, 7991.549
1452.223, 7908.000
1453.267, 8028.000
1454.310, 8035.000
1455.354, 8069.000
1456.398, 7944.000
1457.441, 8025.000
1458.484, 7980.000
1459.527, 7882.000
1460.570, 8003.000
1461.613, 7982.000
1462.655, 7993.000
1463.698, 7878.000
1464.740, 7941.000
1465.782, 7955.000
1466.824, 8067.000
1467.866, 8044.000
1468.907, 7974.000
1469.948, 7983.000
1470.990, 7963.000
1472.031, 7876.000
1473.072, 8067.000
1474.112, 7927.000
1475.153, 8060.000
1476.194, 8010.000
1477.234, 7981.000
1478.274, 7981.000
1479.314, 8074.000
1480.354, 8003.000
1481.393, 7991.000
1482.433, 8021.000
1483.472, 7948.000
1484.511, 7949.000
1485.550, 7854.000
1486.589, 8063.000
1487.628, 7944.000
1488.666, 8008.000
1489.704, 8090.000
1490.743, 8002.000
1491.781, 7991.000
1492.819, 8012.011
1493.856, 8074.664
1494.894, 8109.268
1495.931, 8117.333
1496.968, 8019.364
1498.005, 8058.315
1499.042, 8042.395
1500.079, 8024.225
1501.115, 8082.449
1502.152, 7999.902
1503.188, 8056.915
1504.224, 8058.218
1505.260, 8085.018
1506.296, 8056.608
1507.331, 8045.252
1508.367, 8089.123
1509.402, 8102.415
1510.437, 7978.000
1511.472, 8010.000
1512.507, 7911.000
1513.541, 7957.644
1514.576, 8038.000
1515.610, 8009.000
1516.644, 7994.000
1517.678, 8006.000
1518.712, 8059.000
1519.746, 8081.000
1520.779, 8060.000
1521.813, 8002.000
1522.846, 8035.000
1523.879, 8013.000
1524.912, 8063.000
1525.944, 8032.000
1526.977, 8068.000
1528.009, 8027.000
1529.041, 7956.000
1530.073, 8005.000
1531.105, 8074.000
1532.137, 8073.000
1533.168, 8153.000
1534.200, 8131.000
1535.231, 8003.000
1536.262, 8004.000
1537.293, 8027.000
1538.324, 8050.000
1539.354, 8015.000
1540.385, 8079.000
1541.415, 8012.000
1542.445, 8138.000
1543.475, 8098.000
1544.505, 8046.000
1545.534, 8013.000
1546.564, 8048.000
1547.593, 7997.000
1548.622, 8144.000
1549.651, 8128.000
1550.680, 8071.000
1551.708, 8201.000
1552.737, 8320.000
1553.765, 8358.000
1554.793, 8341.000
1555.821, 8192.000
1556.849, 8242.000
1557.877, 8123.000
1558.904, 8009.000
1559.932, 8088.000
1560.959, 8115.000
1561.986, 8045.000
1563.013, 8150.000
##END=



