##NAMES=Columbite-(Fe)
##RRUFFID=R050348
##IDEAL CHEMISTRY=Fe^2+^Nb^5+^_2_O_6_
##LOCALITY=Lord Hill mine, Stoneham, Oxford County, Maine, USA
##OWNER=RRUFF
##SOURCE=California Institute of Technology
##DESCRIPTION=Black fragment
##STATUS=The identification of this mineral has been confirmed by X-ray diffraction and chemical analysis
##URL=rruff.info/R050348
##MEASURED CHEMISTRY=(Fe^2+^_0.69_Mn^2+^_0.30_Ti_0.01_)(Nb_0.89_Ta_0.10_Ti_0.01_)_2_O_6_
##PIN_ID=L00573
##ORIENTATION=Laser parallel to -c* (0 0 -1). Fiducial mark perpendicular to laser is parallel to -a [-1 0 0]
221.0220, 6701.000
222.2400, 6741.360
223.4590, 6621.000
224.6770, 6751.000
225.8950, 6735.000
227.1120, 6672.000
228.3300, 6749.000
229.5480, 6755.000
230.7650, 6794.000
231.9820, 6863.000
233.1990, 6832.000
234.4160, 7020.000
235.6330, 7061.000
236.8490, 7148.000
238.0660, 7129.000
239.2820, 7369.000
240.4980, 7395.000
241.7140, 7435.000
242.9300, 7569.000
244.1460, 7524.000
245.3610, 7547.106
246.5770, 7493.000
247.7920, 7462.000
249.0070, 7450.000
250.2220, 7337.000
251.4370, 7407.000
252.6510, 7389.000
253.8660, 7238.000
255.0800, 7381.000
256.2940, 7302.000
257.5080, 7454.000
258.7220, 7876.000
259.9360, 7707.793
261.1490, 8049.000
262.3630, 7670.000
263.5760, 7467.000
264.7890, 7489.000
266.0020, 7512.000
267.2150, 7480.000
268.4270, 7448.000
269.6400, 7383.000
270.8520, 7384.000
272.0640, 7369.000
273.2760, 7372.000
274.4880, 7452.000
275.7000, 7485.000
276.9120, 7397.000
278.1230, 7484.000
279.3340, 7463.000
280.5450, 7387.000
281.7560, 7357.000
282.9670, 7388.000
284.1780, 7319.000
285.3880, 7304.000
286.5980, 7262.000
287.8090, 7226.262
289.0190, 7196.000
290.2290, 7156.000
291.4380, 7104.389
292.6480, 7047.000
293.8570, 6970.000
295.0670, 6980.000
296.2760, 6933.000
297.4850, 6937.000
298.6930, 6818.000
299.9020, 6848.000
301.1110, 6895.000
302.3190, 6957.000
303.5270, 6842.000
304.7350, 6860.000
305.9430, 6856.000
307.1510, 6854.000
308.3580, 6851.000
309.5660, 6770.000
310.7730, 6774.000
311.9800, 6782.000
313.1870, 6824.000
314.3940, 6783.000
315.6010, 6816.000
316.8070, 6849.000
318.0130, 6726.000
319.2200, 6870.000
320.4260, 6842.000
321.6310, 6785.000
322.8370, 6915.000
324.0430, 6886.000
325.2480, 6843.000
326.4540, 6838.000
327.6590, 6837.000
328.8640, 6815.000
330.0680, 6827.973
331.2730, 6801.000
332.4780, 6811.893
333.6820, 6801.000
334.8860, 6829.000
336.0900, 6848.000
337.2940, 6862.000
338.4980, 6890.000
339.7010, 6901.000
340.9050, 6898.000
342.1080, 6948.000
343.3110, 6986.000
344.5140, 6943.000
345.7170, 6952.000
346.9200, 6995.000
348.1220, 7057.000
349.3240, 7118.000
350.5270, 7136.377
351.7290, 7173.429
352.9310, 7162.000
354.1320, 7180.000
355.3340, 7167.000
356.5350, 7105.000
357.7370, 7234.000
358.9380, 7290.000
360.1390, 7278.000
361.3400, 7268.000
362.5400, 7288.000
363.7410, 7316.000
364.9410, 7343.593
366.1410, 7693.000
367.3410, 7400.000
368.5410, 7546.000
369.7410, 7526.000
370.9400, 7360.000
372.1400, 7497.000
373.3390, 7578.000
374.5380, 7649.000
375.7370, 7743.439
376.9360, 7851.000
378.1350, 7897.000
379.3330, 7892.000
380.5310, 7975.000
381.7300, 8132.000
382.9280, 8225.000
384.1260, 8439.000
385.3230, 8544.000
386.5210, 8758.000
387.7180, 8658.000
388.9160, 8896.000
390.1130, 8938.000
391.3100, 9044.000
392.5060, 9259.000
393.7030, 9337.000
394.9000, 9346.000
396.0960, 9362.000
397.2920, 9414.000
398.4880, 9460.000
399.6840, 9331.000
400.8800, 9042.000
402.0750, 9029.000
403.2710, 8843.000
404.4660, 8764.000
405.6610, 8555.000
406.8560, 8518.000
408.0510, 8502.000
409.2450, 8256.000
410.4400, 8156.000
411.6340, 8079.000
412.8280, 7940.000
414.0220, 7892.000
415.2160, 7740.000
416.4100, 7787.000
417.6030, 7795.000
418.7970, 7666.000
419.9900, 7704.000
421.1830, 7613.000
422.3760, 7616.000
423.5690, 7649.000
424.7610, 7585.000
425.9540, 7688.000
427.1460, 7503.000
428.3380, 7577.000
429.5300, 7542.000
430.7220, 7604.000
431.9140, 7555.000
433.1050, 7618.000
434.2970, 7650.000
435.4880, 7599.000
436.6790, 7567.000
437.8700, 7659.000
439.0610, 7502.000
440.2510, 7548.000
441.4420, 7683.000
442.6320, 7600.480
443.8220, 7661.577
445.0120, 7622.000
446.2020, 7635.000
447.3910, 7685.000
448.5810, 7615.000
449.7700, 7720.000
450.9600, 7712.000
452.1490, 7741.000
453.3370, 7760.000
454.5260, 7787.000
455.7150, 7729.000
456.9030, 7816.000
458.0910, 7825.000
459.2800, 7821.000
460.4670, 7899.413
461.6550, 8029.000
462.8430, 7983.000
464.0300, 8048.000
465.2180, 8028.000
466.4050, 8108.000
467.5920, 7997.000
468.7790, 8062.043
469.9650, 8203.000
471.1520, 8131.000
472.3380, 8114.000
473.5250, 8182.000
474.7110, 8156.000
475.8970, 8071.000
477.0820, 8149.000
478.2680, 8191.000
479.4540, 8180.000
480.6390, 8031.000
481.8240, 8099.000
483.0090, 8131.000
484.1940, 8234.000
485.3780, 8207.000
486.5630, 8165.000
487.7470, 8081.000
488.9320, 8174.000
490.1160, 8188.000
491.3000, 8118.000
492.4830, 8198.000
493.6670, 8166.000
494.8500, 8281.000
496.0340, 8182.000
497.2170, 8346.000
498.4000, 8188.000
499.5820, 8159.000
500.7650, 8343.000
501.9480, 8238.000
503.1300, 8270.000
504.3120, 8499.000
505.4940, 8594.000
506.6760, 8644.000
507.8580, 8471.000
509.0390, 8599.000
510.2210, 8640.000
511.4020, 8669.000
512.5830, 8855.000
513.7640, 8862.000
514.9450, 9049.000
516.1250, 8991.000
517.3060, 9230.000
518.4860, 9291.000
519.6660, 9361.000
520.8460, 9471.000
522.0260, 9525.012
523.2060, 9659.000
524.3850, 9641.000
525.5650, 9812.000
526.7440, 9828.000
527.9230, 9853.000
529.1020, 9707.000
530.2810, 9731.000
531.4590, 9696.000
532.6380, 9434.000
533.8160, 9433.000
534.9940, 9444.000
536.1720, 9219.000
537.3500, 9153.000
538.5270, 8937.000
539.7050, 8980.000
540.8820, 8858.000
542.0590, 8804.000
543.2360, 8769.000
544.4130, 8655.000
545.5900, 8548.000
546.7660, 8531.000
547.9430, 8372.000
549.1190, 8367.000
550.2950, 8422.000
551.4710, 8256.000
552.6470, 8419.000
553.8220, 8212.000
554.9980, 8173.000
556.1730, 8177.000
557.3480, 8118.000
558.5230, 8137.992
559.6980, 8192.000
560.8730, 8164.000
562.0470, 8167.000
563.2220, 8179.000
564.3960, 8134.292
565.5700, 8112.000
566.7440, 8072.000
567.9170, 8091.000
569.0910, 8090.000
570.2640, 8059.000
571.4380, 8078.000
572.6110, 8066.000
573.7840, 8010.000
574.9570, 8022.000
576.1290, 8033.000
577.3020, 8029.313
578.4740, 8037.000
579.6460, 8073.000
580.8180, 8052.000
581.9900, 8093.000
583.1620, 8031.000
584.3330, 8071.000
585.5040, 8038.000
586.6760, 8123.000
587.8470, 7990.000
589.0180, 8039.000
590.1880, 8168.000
591.3590, 8137.000
592.5290, 8039.000
593.7000, 8114.000
594.8700, 8067.000
596.0400, 8137.000
597.2090, 8113.000
598.3790, 8167.668
599.5490, 8143.000
600.7180, 8237.000
601.8870, 8220.000
603.0560, 8153.000
604.2250, 8221.000
605.3940, 8065.000
606.5620, 8134.000
607.7300, 8153.000
608.8990, 8195.000
610.0670, 8209.000
611.2350, 8244.000
612.4020, 8212.000
613.5700, 8243.000
614.7370, 8211.000
615.9050, 8316.000
617.0720, 8171.000
618.2390, 8367.000
619.4060, 8413.000
620.5720, 8357.000
621.7390, 8407.000
622.9050, 8416.000
624.0710, 8345.000
625.2370, 8337.000
626.4030, 8270.224
627.5690, 8352.651
628.7340, 8400.366
629.9000, 8415.238
631.0650, 8298.888
632.2300, 8351.980
633.3950, 8337.169
634.5600, 8319.572
635.7240, 8396.511
636.8890, 8299.246
638.0530, 8374.685
639.2170, 8381.183
640.3810, 8419.233
641.5450, 8388.959
642.7080, 8379.786
643.8720, 8438.961
645.0350, 8460.290
646.1980, 8422.148
647.3610, 8462.201
648.5240, 8362.544
649.6870, 8498.000
650.8490, 8392.000
652.0120, 8525.000
653.1740, 8488.000
654.3360, 8522.000
655.4980, 8573.000
656.6600, 8394.000
657.8210, 8482.000
658.9830, 8439.000
660.1440, 8490.000
661.3050, 8521.000
662.4660, 8502.000
663.6270, 8537.000
664.7870, 8391.000
665.9480, 8443.000
667.1080, 8423.000
668.2680, 8402.000
669.4280, 8400.000
670.5880, 8459.000
671.7480, 8387.000
672.9070, 8483.000
674.0670, 8490.000
675.2260, 8435.000
676.3850, 8530.000
677.5440, 8353.000
678.7030, 8490.000
679.8610, 8514.000
681.0200, 8279.000
682.1780, 8518.000
683.3360, 8385.000
684.4940, 8360.000
685.6520, 8461.000
686.8090, 8402.000
687.9670, 8493.000
689.1240, 8484.000
690.2810, 8515.000
691.4380, 8487.000
692.5950, 8526.000
693.7520, 8544.000
694.9080, 8406.000
696.0650, 8382.000
697.2210, 8491.000
698.3770, 8361.000
699.5330, 8609.000
700.6880, 8501.000
701.8440, 8570.000
702.9990, 8509.000
704.1550, 8548.000
705.3100, 8565.000
706.4650, 8721.000
707.6190, 8624.631
708.7740, 8592.257
709.9290, 8505.000
711.0830, 8435.000
712.2370, 8404.000
713.3910, 8437.000
714.5450, 8560.000
715.6980, 8475.000
716.8520, 8591.000
718.0050, 8550.000
719.1580, 8539.000
720.3110, 8449.000
721.4640, 8468.268
722.6170, 8480.000
723.7700, 8463.000
724.9220, 8520.000
726.0740, 8494.000
727.2260, 8577.000
728.3780, 8441.000
729.5300, 8557.000
730.6810, 8569.000
731.8330, 8437.000
732.9840, 8463.000
734.1350, 8489.000
735.2860, 8440.000
736.4370, 8514.000
737.5880, 8561.000
738.7380, 8586.000
739.8880, 8509.000
741.0390, 8447.000
742.1890, 8559.000
743.3380, 8509.000
744.4880, 8609.000
745.6380, 8440.000
746.7870, 8476.000
747.9360, 8468.000
749.0850, 8536.000
750.2340, 8470.000
751.3830, 8484.000
752.5310, 8524.000
753.6800, 8486.000
754.8280, 8516.000
755.9760, 8484.000
757.1240, 8534.000
758.2720, 8544.000
759.4190, 8524.000
760.5670, 8576.000
761.7140, 8504.000
762.8610, 8509.000
764.0080, 8615.000
765.1550, 8587.000
766.3020, 8488.000
767.4480, 8490.000
768.5950, 8538.000
769.7410, 8730.000
770.8870, 8593.000
772.0330, 8510.000
773.1780, 8654.000
774.3240, 8574.000
775.4690, 8524.000
776.6140, 8565.000
777.7590, 8571.000
778.9040, 8716.000
780.0490, 8720.000
781.1940, 8672.000
782.3380, 8628.000
783.4820, 8642.000
784.6260, 8696.000
785.7700, 8679.000
786.9140, 8645.000
788.0580, 8756.000
789.2010, 8723.000
790.3450, 8879.000
791.4880, 8889.000
792.6310, 8810.000
793.7730, 8811.000
794.9160, 8945.000
796.0590, 8864.000
797.2010, 8953.000
798.3430, 8989.000
799.4850, 9012.000
800.6270, 9046.000
801.7690, 9090.707
802.9100, 9202.000
804.0520, 9137.000
805.1930, 9218.000
806.3340, 9141.000
807.4750, 9177.000
808.6160, 9386.000
809.7560, 9306.000
810.8970, 9398.000
812.0370, 9508.000
813.1770, 9665.000
814.3170, 9629.000
815.4570, 9653.000
816.5960, 9700.000
817.7360, 9728.000
818.8750, 9822.000
820.0140, 10022.00
821.1530, 9966.000
822.2920, 9948.000
823.4310, 10106.00
824.5690, 10322.00
825.7070, 10287.00
826.8460, 10332.00
827.9840, 10318.00
829.1220, 10357.00
830.2590, 10353.00
831.3970, 10633.00
832.5340, 10579.00
833.6710, 10711.00
834.8080, 10736.00
835.9450, 10769.00
837.0820, 10870.00
838.2190, 11166.00
839.3550, 11217.00
840.4910, 11565.00
841.6270, 11562.00
842.7630, 11734.00
843.8990, 12019.00
845.0350, 12245.00
846.1700, 12578.00
847.3060, 12822.00
848.4410, 12988.00
849.5760, 13517.00
850.7100, 13917.00
851.8450, 14547.00
852.9800, 14811.00
854.1140, 15597.00
855.2480, 16125.00
856.3820, 16907.00
857.5160, 17838.00
858.6500, 18593.00
859.7830, 19558.00
860.9170, 20945.00
862.0500, 21873.00
863.1830, 23473.00
864.3160, 24846.00
865.4480, 26189.00
866.5810, 27615.00
867.7130, 28929.00
868.8460, 30074.00
869.9780, 30684.00
871.1100, 31112.00
872.2410, 31146.00
873.3730, 30548.00
874.5050, 29903.00
875.6360, 28507.00
876.7670, 26940.00
877.8980, 25309.00
879.0290, 23595.00
880.1590, 21826.00
881.2900, 20143.00
882.4200, 18730.27
883.5500, 17092.00
884.6800, 16132.00
885.8100, 15105.00
886.9400, 14069.00
888.0690, 13552.00
889.1990, 12766.00
890.3280, 12231.00
891.4570, 11670.00
892.5860, 11403.00
893.7140, 11203.00
894.8430, 10820.00
895.9710, 10503.00
897.1000, 10289.00
898.2280, 10158.00
899.3560, 9958.000
900.4830, 9791.000
901.6110, 9649.000
902.7380, 9590.000
903.8660, 9473.000
904.9930, 9362.000
906.1200, 9345.000
907.2460, 9192.000
908.3730, 9219.000
909.5000, 9130.422
910.6260, 9009.000
911.7520, 8979.000
912.8780, 8904.000
914.0040, 8756.000
915.1290, 8860.000
916.2550, 8817.000
917.3800, 8851.000
918.5050, 8769.000
919.6300, 8952.250
920.7550, 8846.827
921.8800, 8824.074
923.0040, 8697.000
924.1290, 8747.000
925.2530, 8569.000
926.3770, 8644.000
927.5010, 8756.000
928.6250, 8661.000
929.7480, 8625.000
930.8720, 8662.000
931.9950, 8651.000
933.1180, 8618.000
934.2410, 8529.000
935.3640, 8556.000
936.4860, 8596.000
937.6090, 8670.000
938.7310, 8532.000
939.8530, 8506.000
940.9750, 8485.000
942.0970, 8427.000
943.2180, 8439.433
944.3400, 8487.000
945.4610, 8468.000
946.5820, 8454.000
947.7030, 8508.000
948.8240, 8468.000
949.9450, 8478.000
951.0650, 8441.000
952.1860, 8502.000
953.3060, 8472.000
954.4260, 8491.000
955.5460, 8437.000
956.6650, 8535.000
957.7850, 8805.000
958.9040, 8637.486
960.0230, 8954.000
961.1420, 8464.000
962.2610, 8549.000
963.3800, 8477.000
964.4990, 8467.000
965.6170, 8496.000
966.7350, 8479.000
967.8530, 8421.000
968.9710, 8520.000
970.0890, 8451.000
971.2070, 8603.000
972.3240, 8583.000
973.4410, 8416.000
974.5580, 8504.000
975.6750, 8607.000
976.7920, 8626.000
977.9090, 8598.000
979.0250, 8720.000
980.1410, 8633.000
981.2580, 8568.000
982.3740, 8691.000
983.4890, 8739.000
984.6050, 8617.000
985.7200, 8758.000
986.8360, 8643.000
987.9510, 8669.000
989.0660, 8780.000
990.1810, 8783.000
991.2950, 8787.000
992.4100, 8773.000
993.5240, 8749.000
994.6390, 8778.121
995.7530, 8737.000
996.8660, 8797.000
997.9800, 8842.000
999.0940, 8787.000
1000.207, 8833.000
1001.320, 8799.000
1002.433, 8917.000
1003.546, 8819.000
1004.659, 8864.000
1005.772, 8798.000
1006.884, 8718.000
1007.996, 8772.000
1009.108, 8769.000
1010.220, 8693.000
1011.332, 8873.000
1012.444, 8753.000
1013.555, 8758.000
1014.666, 8879.000
1015.777, 8796.000
1016.888, 8821.000
1017.999, 8794.000
1019.110, 8800.000
1020.220, 8802.000
1021.331, 8876.000
1022.441, 8976.000
1023.551, 8788.000
1024.661, 8884.000
1025.770, 8824.000
1026.880, 8919.000
1027.989, 8939.000
1029.098, 8819.000
1030.207, 8829.000
1031.316, 8836.069
1032.425, 8913.000
1033.533, 8882.000
1034.642, 8895.000
1035.750, 8910.000
1036.858, 8935.000
1037.966, 8936.319
1039.073, 8953.497
1040.181, 8967.000
1041.288, 8970.000
1042.396, 8969.105
1043.503, 9036.000
1044.610, 8950.000
1045.716, 8949.000
1046.823, 8932.628
1047.929, 9061.000
1049.036, 8951.000
1050.142, 9019.000
1051.248, 9097.000
1052.353, 9043.000
1053.459, 9234.000
1054.564, 9137.000
1055.670, 9053.000
1056.775, 9021.000
1057.880, 9095.000
1058.985, 9105.000
1060.089, 9001.000
1061.194, 9254.000
1062.298, 9133.000
1063.402, 9051.000
1064.506, 9271.000
1065.610, 9149.000
1066.713, 9208.000
1067.817, 9180.000
1068.920, 9322.000
1070.023, 9192.000
1071.126, 9220.000
1072.229, 9222.000
1073.332, 9242.000
1074.435, 9243.000
1075.537, 9262.000
1076.639, 9253.000
1077.741, 9296.000
1078.843, 9203.000
1079.945, 9301.000
1081.046, 9210.000
1082.148, 9399.000
1083.249, 9476.000
1084.350, 9378.000
1085.451, 9350.000
1086.551, 9314.000
1087.652, 9264.000
1088.752, 9333.000
1089.853, 9236.000
1090.953, 9314.000
1092.053, 9310.000
1093.152, 9440.000
1094.252, 9401.110
1095.351, 9321.000
1096.451, 9350.000
1097.550, 9351.000
1098.649, 9308.000
1099.748, 9338.000
1100.846, 9355.000
1101.945, 9319.000
1103.043, 9363.000
1104.141, 9323.000
1105.239, 9301.000
1106.337, 9311.000
1107.434, 9407.000
1108.532, 9257.000
1109.629, 9314.000
1110.726, 9325.000
1111.823, 9494.000
1112.920, 9388.000
1114.017, 9383.000
1115.113, 9484.621
1116.210, 9495.379
1117.306, 9652.000
1118.402, 9680.000
1119.498, 9803.000
1120.593, 9926.000
1121.689, 9857.000
1122.784, 10137.00
1123.879, 10037.00
1124.974, 9946.000
1126.069, 9987.000
1127.164, 9778.000
1128.259, 9734.000
1129.353, 9728.000
1130.447, 9574.000
1131.541, 9445.000
1132.635, 9439.000
1133.729, 9362.000
1134.822, 9347.000
1135.916, 9476.000
1137.009, 9450.000
1138.102, 9456.000
1139.195, 9411.000
1140.288, 9430.000
1141.380, 9375.000
1142.473, 9430.000
1143.565, 9463.000
1144.657, 9464.000
1145.749, 9509.000
1146.841, 9455.000
1147.932, 9516.000
1149.024, 9507.501
1150.115, 9455.000
1151.206, 9509.000
1152.297, 9560.000
1153.388, 9538.464
1154.479, 9537.059
1155.569, 9479.000
1156.659, 9499.000
1157.750, 9509.000
1158.839, 9566.000
1159.929, 9447.000
1161.019, 9557.000
1162.108, 9523.000
1163.198, 9543.000
1164.287, 9589.000
1165.376, 9476.000
1166.465, 9519.000
1167.553, 9498.000
1168.642, 9485.000
1169.730, 9502.000
1170.818, 9672.000
1171.906, 9560.000
1172.994, 9663.000
1174.082, 9578.000
1175.170, 9601.000
1176.257, 9656.000
1177.344, 9561.000
1178.431, 9713.000
1179.518, 9520.000
1180.605, 9668.000
1181.691, 9573.000
1182.778, 9651.000
1183.864, 9639.000
1184.950, 9641.000
1186.036, 9508.000
1187.122, 9628.000
1188.207, 9541.000
1189.292, 9714.000
1190.378, 9853.000
1191.463, 9644.000
1192.548, 9580.000
1193.632, 9548.000
1194.717, 9652.000
1195.801, 9625.000
1196.886, 9680.000
1197.970, 9597.000
1199.054, 9640.000
1200.137, 9735.000
1201.221, 9765.000
1202.305, 9846.000
1203.388, 9838.134
1204.471, 9816.000
1205.554, 9812.000
1206.637, 9795.000
1207.719, 9792.000
1208.802, 9758.000
1209.884, 9765.047
1210.966, 9820.000
1212.048, 9779.000
1213.130, 9800.000
1214.212, 9832.000
1215.293, 9725.000
1216.374, 9702.000
1217.456, 9908.000
1218.536, 9852.000
1219.617, 9871.000
1220.698, 9854.000
1221.778, 9907.000
1222.859, 9947.000
1223.939, 10054.00
1225.019, 9936.000
1226.099, 9987.000
1227.178, 9930.000
1228.258, 9916.277
1229.337, 9941.000
1230.417, 9923.000
1231.496, 9959.000
1232.574, 10004.00
1233.653, 9965.000
1234.732, 10071.00
1235.810, 9998.000
1236.888, 9943.000
1237.966, 10032.00
1239.044, 10079.00
1240.122, 10018.00
1241.199, 10033.00
1242.277, 10025.00
1243.354, 10013.00
1244.431, 10033.00
1245.508, 9980.273
1246.585, 10069.00
1247.661, 9950.000
1248.738, 10046.00
1249.814, 10181.00
1250.890, 10158.00
1251.966, 10137.00
1253.042, 10182.00
1254.117, 10088.00
1255.193, 10125.00
1256.268, 10228.00
1257.343, 10297.00
1258.418, 10154.00
1259.493, 10073.00
1260.567, 10192.00
1261.642, 10219.00
1262.716, 10217.00
1263.790, 10270.00
1264.864, 10193.00
1265.938, 10328.00
1267.011, 10314.00
1268.085, 10292.00
1269.158, 10347.00
1270.231, 10353.00
1271.304, 10244.00
1272.377, 10352.00
1273.450, 10184.00
1274.522, 10345.00
1275.594, 10281.00
1276.666, 10321.00
1277.738, 10397.00
1278.810, 10255.00
1279.882, 10230.00
1280.953, 10254.00
1282.025, 10329.00
1283.096, 10332.84
1284.167, 10417.00
1285.238, 10412.00
1286.308, 10392.00
1287.379, 10440.00
1288.449, 10428.00
1289.519, 10487.00
1290.589, 10488.00
1291.659, 10494.00
1292.729, 10522.00
1293.798, 10505.00
1294.868, 10592.00
1295.937, 10488.00
1297.006, 10559.00
1298.075, 10557.00
1299.143, 10715.00
1300.212, 10606.00
1301.280, 10604.00
1302.348, 10494.00
1303.416, 10638.00
1304.484, 10697.00
1305.552, 10590.00
1306.620, 10635.00
1307.687, 10566.00
1308.754, 10695.00
1309.821, 10755.00
1310.888, 10632.00
1311.955, 10569.00
1313.021, 10648.00
1314.088, 10851.00
1315.154, 10901.00
1316.220, 10756.00
1317.286, 10801.00
1318.352, 10791.00
1319.417, 10736.00
1320.483, 10733.00
1321.548, 10770.80
1322.613, 10824.00
1323.678, 10869.00
1324.743, 10892.34
1325.807, 10918.82
1326.872, 10919.00
1327.936, 10933.00
1329.000, 10910.00
1330.064, 10887.00
1331.128, 11034.00
1332.191, 10858.00
1333.255, 10918.00
1334.318, 11068.00
1335.381, 10918.00
1336.444, 10820.00
1337.507, 10921.79
1338.569, 10998.00
1339.632, 10975.00
1340.694, 10922.00
1341.756, 10827.00
1342.818, 10959.00
1343.880, 10914.00
1344.941, 10989.00
1346.003, 11017.00
1347.064, 10949.00
1348.125, 11099.00
1349.186, 10998.00
1350.247, 11187.00
1351.308, 11033.00
1352.368, 11116.00
1353.428, 11034.00
1354.489, 11023.00
1355.549, 10966.00
1356.608, 10974.74
1357.668, 11004.04
1358.727, 11013.00
1359.787, 11120.00
1360.846, 11152.00
1361.905, 11246.00
1362.964, 11055.00
1364.022, 11151.00
1365.081, 11123.00
1366.139, 11146.00
1367.197, 11151.00
1368.255, 11139.73
1369.313, 11141.00
1370.371, 11109.00
1371.428, 11170.00
1372.486, 11117.00
1373.543, 11190.00
1374.600, 11106.00
1375.657, 11072.00
1376.713, 11080.00
1377.770, 11107.00
1378.826, 11052.00
1379.882, 11210.00
1380.938, 11180.00
1381.994, 11101.00
1383.050, 11239.00
1384.106, 11235.00
1385.161, 11157.00
1386.216, 11149.00
1387.271, 11128.00
1388.326, 11158.00
1389.381, 11153.00
1390.435, 11092.00
1391.490, 11233.00
1392.544, 11227.00
1393.598, 11230.00
1394.652, 11130.00
1395.705, 11089.00
1396.759, 11096.00
1397.812, 11183.00
1398.866, 11173.00
1399.919, 11182.00
1400.972, 11217.00
1402.024, 11152.00
1403.077, 11268.00
1404.129, 11197.00
1405.181, 11210.00
1406.233, 11210.00
1407.285, 11286.00
1408.337, 11291.00
1409.389, 11190.00
1410.440, 11133.00
1411.491, 11237.00
1412.542, 11157.00
1413.593, 11200.00
1414.644, 11625.00
1415.695, 11386.74
1416.745, 11471.94
1417.795, 11216.00
1418.845, 11316.00
1419.895, 11273.00
1420.945, 11189.00
1421.995, 11416.00
1423.044, 11223.00
1424.093, 11240.00
1425.142, 11218.00
1426.191, 11315.00
1427.240, 11382.00
1428.289, 11250.00
1429.337, 11321.00
1430.385, 11248.00
1431.433, 11355.00
1432.481, 11301.00
1433.529, 11317.00
1434.577, 11353.00
1435.624, 11386.00
1436.672, 11376.00
1437.719, 11440.00
1438.766, 11386.00
1439.812, 11432.00
1440.859, 11235.00
1441.905, 11485.00
1442.952, 11286.00
1443.998, 11298.00
1445.044, 11303.00
1446.090, 11296.00
1447.135, 11355.00
1448.181, 11351.00
1449.226, 11255.00
1450.271, 11365.00
1451.316, 11445.00
1452.361, 11366.00
1453.405, 11389.00
1454.450, 11489.00
1455.494, 11341.00
1456.538, 11458.00
1457.582, 11438.00
1458.626, 11528.00
1459.670, 11514.71
1460.713, 11493.00
1461.757, 11502.00
1462.800, 11391.00
1463.843, 11424.00
1464.886, 11689.00
1465.928, 11554.71
1466.971, 11590.75
1468.013, 11507.00
1469.055, 11515.00
1470.097, 11484.00
1471.139, 11558.00
1472.181, 11438.00
1473.222, 11441.00
1474.263, 11532.00
1475.305, 11572.00
1476.346, 11639.00
1477.386, 11515.00
1478.427, 11539.00
1479.468, 11602.00
1480.508, 11407.00
1481.548, 11538.00
1482.588, 11553.00
1483.628, 11501.00
1484.668, 11537.00
1485.707, 11499.00
1486.747, 11567.00
1487.786, 11594.00
1488.825, 11584.00
1489.864, 11732.00
1490.902, 11608.00
1491.941, 11599.00
1492.979, 11729.00
1494.017, 11686.00
1495.055, 11600.00
1496.093, 11617.00
1497.131, 11728.00
1498.168, 11638.00
1499.206, 11564.00
1500.243, 11725.00
1501.280, 11693.00
1502.317, 11715.00
1503.354, 11725.00
1504.390, 11713.00
1505.426, 11767.00
1506.463, 11561.00
1507.499, 11848.00
1508.535, 11915.00
1509.570, 11739.00
1510.606, 11773.00
1511.641, 11862.00
1512.676, 11820.00
1513.711, 11883.00
1514.746, 11908.00
1515.781, 11894.00
1516.816, 11910.00
1517.850, 11917.45
1518.884, 12050.00
1519.918, 11914.00
1520.952, 11881.00
1521.986, 11833.00
1523.019, 12097.00
1524.053, 12072.00
1525.086, 11979.00
1526.119, 12065.00
1527.152, 11891.00
1528.185, 12035.00
1529.217, 12093.00
1530.250, 12095.00
1531.282, 12128.00
1532.314, 12134.00
1533.346, 12131.00
1534.377, 12113.00
1535.409, 12098.00
1536.440, 12135.00
1537.472, 12122.00
1538.503, 12150.00
1539.534, 12160.76
1540.564, 12130.00
1541.595, 12190.00
1542.625, 12163.88
1543.656, 12185.27
1544.686, 12156.00
1545.716, 12226.00
1546.745, 12220.89
1547.775, 12210.00
1548.804, 12267.00
1549.834, 12266.00
1550.863, 12310.00
1551.892, 12317.00
1552.920, 12397.00
1553.949, 12483.00
1554.977, 12554.00
1556.006, 12597.00
1557.034, 12481.00
1558.062, 12416.00
1559.089, 12272.00
1560.117, 12436.00
1561.144, 12261.00
1562.172, 12350.00
1563.199, 12432.00
1564.226, 12379.00
1565.252, 12474.00
1566.279, 12482.00
1567.305, 12412.00
1568.332, 12546.00
1569.358, 12396.00
1570.384, 12492.00
1571.409, 12523.00
##END=



