##NAMES=Columbite-(Fe)
##RRUFFID=R050348
##IDEAL CHEMISTRY=Fe^2+^Nb^5+^_2_O_6_
##LOCALITY=Lord Hill mine, Stoneham, Oxford County, Maine, USA
##OWNER=RRUFF
##SOURCE=California Institute of Technology
##DESCRIPTION=Black fragment
##STATUS=The identification of this mineral has been confirmed by X-ray diffraction and chemical analysis
##URL=rruff.info/R050348
##MEASURED CHEMISTRY=(Fe^2+^_0.69_Mn^2+^_0.30_Ti_0.01_)(Nb_0.89_Ta_0.10_Ti_0.01_)_2_O_6_
##PIN_ID=L01882
##ORIENTATION=Laser parallel to -a* (-1 0 0). Fiducial mark perpendicular to laser is parallel to b [0 1 0]
221.0220, 14482.00
222.2400, 14558.00
223.4590, 14634.00
224.6770, 14514.00
225.8950, 14690.00
227.1120, 14671.00
228.3300, 14784.00
229.5480, 14848.00
230.7650, 15009.00
231.9820, 14931.00
233.1990, 15138.00
234.4160, 15504.00
235.6330, 15453.00
236.8490, 15498.00
238.0660, 15544.00
239.2820, 15974.00
240.4980, 16099.00
241.7140, 16149.00
242.9300, 16114.00
244.1460, 16267.00
245.3610, 16277.00
246.5770, 16327.92
247.7920, 16430.00
249.0070, 16351.00
250.2220, 16405.00
251.4370, 16262.00
252.6510, 16464.35
253.8660, 16531.58
255.0800, 16564.11
256.2940, 16563.79
257.5080, 16432.25
258.7220, 16470.16
259.9360, 16440.16
261.1490, 16407.39
262.3630, 16469.14
263.5760, 16356.70
264.7890, 16585.00
266.0020, 16551.00
267.2150, 16397.00
268.4270, 16327.00
269.6400, 16246.00
270.8520, 16256.00
272.0640, 16127.00
273.2760, 16106.00
274.4880, 16013.90
275.7000, 15915.00
276.9120, 15741.00
278.1230, 15673.00
279.3340, 15519.79
280.5450, 15317.00
281.7560, 15205.00
282.9670, 15097.00
284.1780, 14852.00
285.3880, 14835.00
286.5980, 14831.00
287.8090, 14679.00
289.0190, 14626.00
290.2290, 14480.00
291.4380, 14582.00
292.6480, 14459.00
293.8570, 14434.15
295.0670, 14221.00
296.2760, 14304.00
297.4850, 14192.00
298.6930, 14020.00
299.9020, 14004.00
301.1110, 14025.00
302.3190, 13934.00
303.5270, 13847.00
304.7350, 13988.00
305.9430, 13814.00
307.1510, 13993.00
308.3580, 13906.00
309.5660, 14006.00
310.7730, 13980.00
311.9800, 13975.00
313.1870, 13757.00
314.3940, 14017.00
315.6010, 13788.00
316.8070, 13967.00
318.0130, 13933.00
319.2200, 14004.00
320.4260, 13776.00
321.6310, 13939.00
322.8370, 13652.00
324.0430, 13906.00
325.2480, 13619.00
326.4540, 13601.00
327.6590, 13479.00
328.8640, 13435.00
330.0680, 13486.00
331.2730, 13445.00
332.4780, 13361.00
333.6820, 13145.00
334.8860, 13099.00
336.0900, 13049.00
337.2940, 13104.00
338.4980, 12921.00
339.7010, 13001.00
340.9050, 12946.00
342.1080, 12921.00
343.3110, 12890.00
344.5140, 12841.45
345.7170, 12798.51
346.9200, 12765.00
348.1220, 12716.00
349.3240, 12701.00
350.5270, 12713.00
351.7290, 12842.00
352.9310, 12699.00
354.1320, 12734.87
355.3340, 12547.00
356.5350, 12658.00
357.7370, 12646.00
358.9380, 12606.00
360.1390, 12495.00
361.3400, 12636.00
362.5400, 12551.00
363.7410, 12631.00
364.9410, 12575.00
366.1410, 12539.11
367.3410, 12448.00
368.5410, 12417.00
369.7410, 12389.49
370.9400, 12387.00
372.1400, 12374.00
373.3390, 12454.00
374.5380, 12488.00
375.7370, 12511.00
376.9360, 12494.79
378.1350, 12486.00
379.3330, 12437.00
380.5310, 12406.00
381.7300, 12434.00
382.9280, 12418.00
384.1260, 12462.00
385.3230, 12427.00
386.5210, 12332.00
387.7180, 12373.00
388.9160, 12357.43
390.1130, 12541.00
391.3100, 12402.00
392.5060, 12374.00
393.7030, 12381.00
394.9000, 12294.00
396.0960, 12244.00
397.2920, 12317.00
398.4880, 12399.00
399.6840, 12357.00
400.8800, 12258.00
402.0750, 12283.00
403.2710, 12202.00
404.4660, 12203.00
405.6610, 12201.00
406.8560, 12063.00
408.0510, 12005.00
409.2450, 12264.00
410.4400, 12109.00
411.6340, 12129.00
412.8280, 12020.00
414.0220, 12291.00
415.2160, 12274.12
416.4100, 12218.00
417.6030, 12057.00
418.7970, 12050.92
419.9900, 12083.00
421.1830, 12024.00
422.3760, 12079.00
423.5690, 12078.68
424.7610, 12188.00
425.9540, 12144.00
427.1460, 12122.00
428.3380, 12210.00
429.5300, 12140.00
430.7220, 12124.00
431.9140, 12114.00
433.1050, 12124.11
434.2970, 12146.00
435.4880, 12178.00
436.6790, 12268.00
437.8700, 12271.00
439.0610, 12255.00
440.2510, 12282.72
441.4420, 12251.00
442.6320, 12319.00
443.8220, 12207.00
445.0120, 12316.00
446.2020, 12450.00
447.3910, 12402.00
448.5810, 12375.00
449.7700, 12329.00
450.9600, 12390.00
452.1490, 12404.00
453.3370, 12435.00
454.5260, 12474.00
455.7150, 12612.00
456.9030, 12574.33
458.0910, 12315.00
459.2800, 12537.00
460.4670, 12408.24
461.6550, 12334.00
462.8430, 12419.00
464.0300, 12471.00
465.2180, 12390.00
466.4050, 12572.00
467.5920, 12503.00
468.7790, 12609.00
469.9650, 12487.00
471.1520, 12515.00
472.3380, 12509.00
473.5250, 12699.00
474.7110, 12746.00
475.8970, 12639.00
477.0820, 12657.00
478.2680, 12621.00
479.4540, 12560.00
480.6390, 12687.00
481.8240, 12598.00
483.0090, 12607.00
484.1940, 12710.00
485.3780, 12745.00
486.5630, 12632.00
487.7470, 12589.00
488.9320, 12585.00
490.1160, 12630.00
491.3000, 12718.00
492.4830, 12581.00
493.6670, 12587.00
494.8500, 12850.00
496.0340, 12712.58
497.2170, 12682.00
498.4000, 12727.00
499.5820, 12597.00
500.7650, 12680.00
501.9480, 12588.00
503.1300, 12506.00
504.3120, 12473.00
505.4940, 12593.00
506.6760, 12738.00
507.8580, 12701.00
509.0390, 12641.00
510.2210, 12660.00
511.4020, 12578.00
512.5830, 12715.00
513.7640, 12843.00
514.9450, 12903.00
516.1250, 12902.00
517.3060, 12998.00
518.4860, 13148.00
519.6660, 13090.86
520.8460, 13131.00
522.0260, 13073.00
523.2060, 13162.00
524.3850, 13228.00
525.5650, 13222.00
526.7440, 13264.89
527.9230, 13352.00
529.1020, 13190.00
530.2810, 13493.00
531.4590, 13296.00
532.6380, 13260.00
533.8160, 13269.00
534.9940, 13281.00
536.1720, 13265.00
537.3500, 13270.00
538.5270, 13274.00
539.7050, 13181.00
540.8820, 13251.00
542.0590, 13216.21
543.2360, 13105.67
544.4130, 13192.00
545.5900, 13007.00
546.7660, 12925.00
547.9430, 13172.00
549.1190, 12944.00
550.2950, 12916.00
551.4710, 13033.00
552.6470, 13088.00
553.8220, 12774.00
554.9980, 12973.00
556.1730, 12858.00
557.3480, 12876.00
558.5230, 12864.00
559.6980, 12909.00
560.8730, 12700.00
562.0470, 12849.00
563.2220, 12847.00
564.3960, 12723.00
565.5700, 12832.00
566.7440, 12892.00
567.9170, 12846.00
569.0910, 12879.81
570.2640, 12805.00
571.4380, 12780.00
572.6110, 12830.00
573.7840, 12680.00
574.9570, 12645.00
576.1290, 12867.00
577.3020, 12632.00
578.4740, 12785.00
579.6460, 12773.00
580.8180, 12735.00
581.9900, 12579.00
583.1620, 12758.00
584.3330, 12595.00
585.5040, 12647.00
586.6760, 12671.00
587.8470, 12718.00
589.0180, 12726.56
590.1880, 12734.45
591.3590, 12706.00
592.5290, 12737.00
593.7000, 12660.00
594.8700, 12676.00
596.0400, 12660.00
597.2090, 12734.00
598.3790, 12684.00
599.5490, 12788.00
600.7180, 12739.72
601.8870, 12762.00
603.0560, 12702.00
604.2250, 12692.00
605.3940, 12733.00
606.5620, 12830.00
607.7300, 12797.59
608.8990, 12830.00
610.0670, 12782.00
611.2350, 12780.00
612.4020, 12756.00
613.5700, 12697.00
614.7370, 12807.00
615.9050, 12738.00
617.0720, 12831.00
618.2390, 12882.00
619.4060, 12917.64
620.5720, 13024.00
621.7390, 13000.00
622.9050, 12993.00
624.0710, 12918.00
625.2370, 13015.94
626.4030, 13054.25
627.5690, 13138.00
628.7340, 13164.00
629.9000, 13088.00
631.0650, 12961.00
632.2300, 13000.82
633.3950, 13170.00
634.5600, 13070.00
635.7240, 13097.00
636.8890, 13275.00
638.0530, 13248.00
639.2170, 13276.00
640.3810, 13297.00
641.5450, 13197.00
642.7080, 13460.00
643.8720, 13332.00
645.0350, 13481.40
646.1980, 13337.00
647.3610, 13375.00
648.5240, 13372.22
649.6870, 13369.00
650.8490, 13451.00
652.0120, 13346.00
653.1740, 13612.00
654.3360, 13448.00
655.4980, 13472.00
656.6600, 13373.00
657.8210, 13541.00
658.9830, 13572.00
660.1440, 13614.00
661.3050, 13450.00
662.4660, 13619.00
663.6270, 13632.00
664.7870, 13690.00
665.9480, 13736.00
667.1080, 13623.00
668.2680, 13663.00
669.4280, 13676.00
670.5880, 13664.00
671.7480, 13828.00
672.9070, 13669.00
674.0670, 13792.00
675.2260, 13899.00
676.3850, 13872.00
677.5440, 13918.00
678.7030, 14010.00
679.8610, 13891.00
681.0200, 14007.00
682.1780, 14046.00
683.3360, 14146.00
684.4940, 14025.00
685.6520, 14165.00
686.8090, 14152.27
687.9670, 14133.51
689.1240, 14193.00
690.2810, 14190.00
691.4380, 14193.00
692.5950, 14257.65
693.7520, 14275.00
694.9080, 14348.00
696.0650, 14346.00
697.2210, 14346.00
698.3770, 14432.53
699.5330, 14428.27
700.6880, 14566.00
701.8440, 14511.00
702.9990, 14538.00
704.1550, 14637.00
705.3100, 14761.00
706.4650, 14763.00
707.6190, 14770.00
708.7740, 14894.00
709.9290, 15006.00
711.0830, 14959.00
712.2370, 15014.00
713.3910, 15017.00
714.5450, 14945.00
715.6980, 15106.00
716.8520, 15095.00
718.0050, 15184.67
719.1580, 15342.00
720.3110, 15371.00
721.4640, 15469.88
722.6170, 15557.00
723.7700, 15564.00
724.9220, 15539.00
726.0740, 15654.00
727.2260, 15861.00
728.3780, 15839.00
729.5300, 15960.00
730.6810, 16052.00
731.8330, 16125.00
732.9840, 16059.00
734.1350, 16255.00
735.2860, 16198.00
736.4370, 16334.00
737.5880, 16553.00
738.7380, 16467.00
739.8880, 16604.17
741.0390, 16758.00
742.1890, 16722.00
743.3380, 16823.00
744.4880, 16961.00
745.6380, 17082.00
746.7870, 17177.00
747.9360, 17247.34
749.0850, 17350.00
750.2340, 17344.00
751.3830, 17452.00
752.5310, 17504.00
753.6800, 17503.00
754.8280, 17672.00
755.9760, 17752.00
757.1240, 17989.00
758.2720, 17993.00
759.4190, 18154.00
760.5670, 18116.00
761.7140, 18109.00
762.8610, 18424.00
764.0080, 18372.00
765.1550, 18469.00
766.3020, 18480.00
767.4480, 18639.00
768.5950, 18517.00
769.7410, 18707.00
770.8870, 18694.00
772.0330, 18760.00
773.1780, 18731.00
774.3240, 18774.40
775.4690, 18823.17
776.6140, 18836.00
777.7590, 18905.00
778.9040, 18935.00
780.0490, 18919.00
781.1940, 19047.00
782.3380, 19127.00
783.4820, 19033.00
784.6260, 19271.00
785.7700, 19247.00
786.9140, 19132.00
788.0580, 19161.00
789.2010, 19182.00
790.3450, 19257.00
791.4880, 19056.00
792.6310, 19175.00
793.7730, 19124.00
794.9160, 19228.00
796.0590, 19262.00
797.2010, 19263.00
798.3430, 19267.00
799.4850, 19288.00
800.6270, 19233.00
801.7690, 19214.00
802.9100, 19289.00
804.0520, 19348.00
805.1930, 19209.00
806.3340, 19284.00
807.4750, 19410.00
808.6160, 19489.00
809.7560, 19405.00
810.8970, 19555.00
812.0370, 19476.00
813.1770, 19549.00
814.3170, 19365.00
815.4570, 19608.00
816.5960, 19474.00
817.7360, 19586.00
818.8750, 19697.00
820.0140, 19622.00
821.1530, 19747.00
822.2920, 19832.00
823.4310, 20001.00
824.5690, 19886.00
825.7070, 20046.00
826.8460, 19923.00
827.9840, 20099.00
829.1220, 20193.00
830.2590, 20311.00
831.3970, 20302.00
832.5340, 20488.00
833.6710, 20454.00
834.8080, 20696.00
835.9450, 20885.00
837.0820, 20823.00
838.2190, 21025.00
839.3550, 21247.00
840.4910, 21449.00
841.6270, 21635.00
842.7630, 21759.00
843.8990, 21982.00
845.0350, 22267.00
846.1700, 22549.00
847.3060, 22877.00
848.4410, 23207.00
849.5760, 23543.73
850.7100, 23874.54
851.8450, 24222.00
852.9800, 24673.00
854.1140, 25099.86
855.2480, 25631.00
856.3820, 26119.00
857.5160, 26625.00
858.6500, 27260.00
859.7830, 27844.00
860.9170, 28415.00
862.0500, 29150.00
863.1830, 29741.00
864.3160, 30319.00
865.4480, 31034.00
866.5810, 31501.00
867.7130, 31930.00
868.8460, 31988.00
869.9780, 32046.00
871.1100, 31550.00
872.2410, 31124.00
873.3730, 30540.00
874.5050, 29759.00
875.6360, 28456.00
876.7670, 27116.00
877.8980, 25535.00
879.0290, 24408.00
880.1590, 22820.00
881.2900, 21419.00
882.4200, 20235.00
883.5500, 19037.00
884.6800, 18164.00
885.8100, 17098.00
886.9400, 16554.00
888.0690, 15933.00
889.1990, 15233.00
890.3280, 14867.00
891.4570, 14176.00
892.5860, 14065.00
893.7140, 13675.00
894.8430, 13412.00
895.9710, 13103.00
897.1000, 12851.00
898.2280, 12723.00
899.3560, 12608.00
900.4830, 12426.00
901.6110, 12303.15
902.7380, 12158.37
903.8660, 12006.75
904.9930, 11873.00
906.1200, 11709.00
907.2460, 11555.00
908.3730, 11440.00
909.5000, 11405.00
910.6260, 11405.00
911.7520, 11218.00
912.8780, 11254.00
914.0040, 11195.00
915.1290, 11091.00
916.2550, 11065.00
917.3800, 11077.00
918.5050, 10959.00
919.6300, 10913.00
920.7550, 10919.00
921.8800, 10766.00
923.0040, 10824.00
924.1290, 10928.00
925.2530, 11045.00
926.3770, 10733.00
927.5010, 10686.00
928.6250, 10751.00
929.7480, 10603.00
930.8720, 10572.00
931.9950, 10546.00
933.1180, 10599.00
934.2410, 10446.00
935.3640, 10412.00
936.4860, 10484.00
937.6090, 10484.00
938.7310, 10407.00
939.8530, 10404.00
940.9750, 10368.00
942.0970, 10311.00
943.2180, 10238.00
944.3400, 10298.00
945.4610, 10274.00
946.5820, 10213.00
947.7030, 10310.00
948.8240, 10146.00
949.9450, 10207.00
951.0650, 10124.00
952.1860, 10206.00
953.3060, 10140.00
954.4260, 10179.00
955.5460, 10121.00
956.6650, 10198.00
957.7850, 10128.00
958.9040, 10136.56
960.0230, 10098.00
961.1420, 10138.00
962.2610, 10040.00
963.3800, 10077.00
964.4990, 10058.00
965.6170, 10041.18
966.7350, 9999.000
967.8530, 10020.00
968.9710, 10112.00
970.0890, 10061.00
971.2070, 10152.00
972.3240, 10093.00
973.4410, 10009.00
974.5580, 10139.00
975.6750, 10007.00
976.7920, 10092.00
977.9090, 9912.000
979.0250, 10024.00
980.1410, 10022.00
981.2580, 10009.00
982.3740, 10106.00
983.4890, 10069.00
984.6050, 10161.00
985.7200, 10008.00
986.8360, 10108.00
987.9510, 10038.00
989.0660, 10121.00
990.1810, 10027.00
991.2950, 10034.00
992.4100, 10079.00
993.5240, 10067.00
994.6390, 9932.000
995.7530, 10080.00
996.8660, 9983.000
997.9800, 10097.00
999.0940, 9998.000
1000.207, 10108.00
1001.320, 10045.00
1002.433, 10004.66
1003.546, 10081.91
1004.659, 10124.44
1005.772, 10134.13
1006.884, 10012.61
1007.996, 10060.52
1009.108, 10040.54
1010.220, 10017.76
1011.332, 10089.53
1012.444, 9987.090
1013.555, 10057.36
1014.666, 10058.69
1015.777, 9841.000
1016.888, 9855.000
1017.999, 9861.000
1019.110, 9786.000
1020.220, 9899.000
1021.331, 9951.000
1022.441, 9903.000
1023.551, 9921.000
1024.661, 9849.000
1025.770, 9831.000
1026.880, 9829.932
1027.989, 9828.000
1029.098, 9841.000
1030.207, 9836.000
1031.316, 9874.000
1032.425, 9904.000
1033.533, 9915.806
1034.642, 9952.565
1035.750, 9963.000
1036.858, 9997.000
1037.966, 10037.77
1039.073, 10035.33
1040.181, 10015.00
1041.288, 9969.000
1042.396, 9881.000
1043.503, 9874.000
1044.610, 9868.000
1045.716, 9864.000
1046.823, 9916.000
1047.929, 9832.000
1049.036, 9778.000
1050.142, 9891.000
1051.248, 9774.000
1052.353, 9791.000
1053.459, 9925.000
1054.564, 9905.000
1055.670, 9884.000
1056.775, 9884.000
1057.880, 9887.000
1058.985, 10001.00
1060.089, 9872.000
1061.194, 9929.000
1062.298, 9966.000
1063.402, 9906.000
1064.506, 9879.000
1065.610, 9850.000
1066.713, 9866.000
1067.817, 9864.000
1068.920, 9895.000
1070.023, 9831.000
1071.126, 10020.00
1072.229, 9889.000
1073.332, 9826.000
1074.435, 9836.000
1075.537, 9643.000
1076.639, 9890.000
1077.741, 9710.000
1078.843, 9879.000
1079.945, 9839.000
1081.046, 9796.000
1082.148, 9904.000
1083.249, 9780.000
1084.350, 9717.000
1085.451, 9827.000
1086.551, 9834.000
1087.652, 9751.000
1088.752, 9804.000
1089.853, 9838.000
1090.953, 9792.000
1092.053, 9693.000
1093.152, 9712.000
1094.252, 9711.000
1095.351, 9862.000
1096.451, 9677.000
1097.550, 9802.000
1098.649, 9707.000
1099.748, 9712.000
1100.846, 9678.000
1101.945, 9638.000
1103.043, 9675.000
1104.141, 9692.000
1105.239, 9783.000
1106.337, 9592.000
1107.434, 9751.000
1108.532, 9670.000
1109.629, 9741.000
1110.726, 9829.000
1111.823, 9628.000
1112.920, 9567.000
1114.017, 9589.243
1115.113, 9628.000
1116.210, 9573.000
1117.306, 9739.000
1118.402, 9684.000
1119.498, 9674.000
1120.593, 9920.000
1121.689, 9650.000
1122.784, 9683.000
1123.879, 9707.000
1124.974, 9714.000
1126.069, 9568.000
1127.164, 9536.000
1128.259, 9597.000
1129.353, 9656.000
1130.447, 9434.000
1131.541, 9518.000
1132.635, 9503.000
1133.729, 9478.000
1134.822, 9450.000
1135.916, 9426.907
1137.009, 9371.539
1138.102, 9377.000
1139.195, 9278.000
1140.288, 9257.000
1141.380, 9261.494
1142.473, 9355.000
1143.565, 9326.000
1144.657, 9383.000
1145.749, 9332.000
1146.841, 9205.000
1147.932, 9363.000
1149.024, 9387.000
1150.115, 9273.000
1151.206, 9180.000
1152.297, 9260.000
1153.388, 9307.000
1154.479, 9293.000
1155.569, 9374.000
1156.659, 9323.000
1157.750, 9248.000
1158.839, 9298.000
1159.929, 9290.000
1161.019, 9299.000
1162.108, 9198.000
1163.198, 9144.000
1164.287, 9225.000
1165.376, 9149.000
1166.465, 9279.000
1167.553, 9256.000
1168.642, 9280.000
1169.730, 9185.000
1170.818, 9155.000
1171.906, 9121.000
1172.994, 9060.000
1174.082, 9242.000
1175.170, 9133.979
1176.257, 9219.000
1177.344, 9067.000
1178.431, 9086.000
1179.518, 9055.000
1180.605, 9170.000
1181.691, 9118.466
1182.778, 9136.702
1183.864, 9047.000
1184.950, 9160.000
1186.036, 9054.000
1187.122, 9137.000
1188.207, 9190.000
1189.292, 8894.000
1190.378, 9177.000
1191.463, 9024.000
1192.548, 9113.000
1193.632, 9100.000
1194.717, 9040.000
1195.801, 9047.000
1196.886, 9124.000
1197.970, 9091.000
1199.054, 8994.000
1200.137, 9070.000
1201.221, 9000.000
1202.305, 9042.000
1203.388, 9119.000
1204.471, 9030.000
1205.554, 9107.233
1206.637, 9051.000
1207.719, 9129.000
1208.802, 9089.000
1209.884, 9023.000
1210.966, 9028.000
1212.048, 9059.000
1213.130, 9106.000
1214.212, 9019.000
1215.293, 9045.000
1216.374, 9044.000
1217.456, 9092.000
1218.536, 9038.053
1219.617, 9005.000
1220.698, 8943.000
1221.778, 8968.000
1222.859, 8944.000
1223.939, 8970.000
1225.019, 8914.000
1226.099, 8941.000
1227.178, 8932.000
1228.258, 9018.000
1229.337, 8899.000
1230.417, 9098.000
1231.496, 9067.000
1232.574, 9041.000
1233.653, 8877.000
1234.732, 8984.000
1235.810, 8957.308
1236.888, 8983.000
1237.966, 8961.000
1239.044, 9028.000
1240.122, 9038.818
1241.199, 8953.000
1242.277, 9088.000
1243.354, 8992.000
1244.431, 8974.000
1245.508, 8966.000
1246.585, 8982.000
1247.661, 8932.000
1248.738, 8977.000
1249.814, 8845.000
1250.890, 9009.000
1251.966, 8931.000
1253.042, 8955.000
1254.117, 8858.000
1255.193, 8976.000
1256.268, 8951.000
1257.343, 8909.000
1258.418, 8958.000
1259.493, 8918.567
1260.567, 8903.000
1261.642, 8903.000
1262.716, 8899.000
1263.790, 8906.000
1264.864, 8874.000
1265.938, 8883.260
1267.011, 8949.000
1268.085, 8876.000
1269.158, 8910.000
1270.231, 8899.000
1271.304, 8789.000
1272.377, 8887.000
1273.450, 8923.000
1274.522, 8917.000
1275.594, 8851.000
1276.666, 8857.090
1277.738, 8833.706
1278.810, 8845.000
1279.882, 8811.000
1280.953, 8830.838
1282.025, 8833.952
1283.096, 8912.718
1284.167, 8956.772
1285.238, 8967.982
1286.308, 8847.974
1287.379, 8897.406
1288.449, 8878.935
1289.519, 8857.679
1290.589, 8930.961
1291.659, 8830.037
1292.729, 8901.820
1293.798, 8904.662
1294.868, 8939.057
1295.937, 8905.127
1297.006, 8892.301
1298.075, 8947.820
1299.143, 8965.497
1300.212, 8923.702
1301.280, 8960.103
1302.348, 8856.793
1303.416, 8876.082
1304.484, 8948.266
1305.552, 8909.906
1306.620, 8947.557
1307.687, 8956.259
1308.754, 8833.402
1309.821, 8939.340
1310.888, 8946.331
1311.955, 8851.727
1313.021, 8949.825
1314.088, 8869.227
1315.154, 8852.412
1316.220, 8883.600
1317.286, 8864.747
1318.352, 8913.000
1319.417, 8956.000
1320.483, 8880.000
1321.548, 8882.544
1322.613, 8963.214
1323.678, 9009.174
1324.743, 9022.289
1325.807, 8904.184
1326.872, 8955.521
1327.936, 8938.953
1329.000, 8919.601
1330.064, 8994.786
1331.128, 8895.766
1332.191, 8969.451
1333.255, 8974.196
1334.318, 9010.492
1335.381, 8978.464
1336.444, 8967.539
1337.507, 9024.961
1338.569, 9044.537
1339.632, 9004.644
1340.694, 9042.944
1341.756, 8941.534
1342.818, 8962.723
1343.880, 9036.807
1344.941, 9000.346
1346.003, 9039.896
1347.064, 9050.496
1348.125, 8929.537
1349.186, 9037.372
1350.247, 9046.262
1351.308, 8953.555
1352.368, 9053.550
1353.428, 8974.848
1354.489, 8959.932
1355.549, 8993.015
1356.608, 8976.057
1357.668, 9037.994
1358.727, 9023.926
1359.787, 9003.068
1360.846, 9011.844
1361.905, 8936.646
1362.964, 9017.236
1364.022, 8991.408
1365.081, 9018.479
1366.139, 8995.000
1367.197, 8914.000
1368.255, 8897.000
1369.313, 8955.000
1370.371, 8925.000
1371.428, 8886.000
1372.486, 8860.000
1373.543, 8997.000
1374.600, 8991.000
1375.657, 8907.000
1376.713, 8984.000
1377.770, 8938.000
1378.826, 8907.000
1379.882, 9039.000
1380.938, 8974.851
1381.994, 8993.000
1383.050, 8928.000
1384.106, 8970.000
1385.161, 8863.000
1386.216, 8926.205
1387.271, 8938.000
1388.326, 8995.000
1389.381, 9001.952
1390.435, 8910.000
1391.490, 9011.000
1392.544, 8964.000
1393.598, 8958.000
1394.652, 9018.000
1395.705, 8964.000
1396.759, 8944.000
1397.812, 8970.000
1398.866, 9131.000
1399.919, 8990.000
1400.972, 9050.344
1402.024, 9017.000
1403.077, 8952.000
1404.129, 9013.000
1405.181, 8842.000
1406.233, 8941.000
1407.285, 8966.000
1408.337, 8878.000
1409.389, 8917.000
1410.440, 8921.000
1411.491, 8984.000
1412.542, 8927.000
1413.593, 8937.261
1414.644, 9016.900
1415.695, 9061.830
1416.745, 9073.914
1417.795, 8954.778
1418.845, 9005.086
1419.895, 8987.488
1420.945, 8967.106
1421.995, 9041.263
1423.044, 8941.212
1424.093, 9013.869
1425.142, 9017.584
1426.191, 9052.852
1427.240, 9019.795
1428.289, 9007.842
1429.337, 9064.235
1430.385, 9082.784
1431.433, 9041.862
1432.481, 9079.136
1433.529, 8976.698
1434.577, 8996.859
1435.624, 9069.915
1436.672, 8901.000
1437.719, 9013.037
1438.766, 8947.501
1439.812, 9162.000
1440.859, 8959.000
1441.905, 8919.000
1442.952, 9048.000
1443.998, 8850.000
1445.044, 9026.000
1446.090, 9095.000
1447.135, 8977.000
1448.181, 8930.000
1449.226, 8948.000
1450.271, 9015.000
1451.316, 8909.000
1452.361, 9022.000
1453.405, 8985.000
1454.450, 8972.000
1455.494, 8949.000
1456.538, 9053.000
1457.582, 8993.000
1458.626, 9007.000
1459.670, 9053.000
1460.713, 8908.000
1461.757, 9037.000
1462.800, 8966.000
1463.843, 8943.000
1464.886, 8930.000
1465.928, 8964.000
1466.971, 8977.000
1468.013, 8966.000
1469.055, 8949.000
1470.097, 9167.000
1471.139, 9044.000
1472.181, 9012.000
1473.222, 9091.000
1474.263, 8965.000
1475.305, 8958.000
1476.346, 9036.000
1477.386, 9056.000
1478.427, 9039.000
1479.468, 8961.000
1480.508, 9026.000
1481.548, 9062.000
1482.588, 8937.000
1483.628, 9084.000
1484.668, 8957.000
1485.707, 9064.000
1486.747, 9098.000
1487.786, 8922.000
1488.825, 9007.000
1489.864, 9005.000
1490.902, 8951.000
1491.941, 9021.000
1492.979, 9161.000
1494.017, 9170.000
1495.055, 9088.000
1496.093, 9089.000
1497.131, 8950.000
1498.168, 9015.000
1499.206, 9022.244
1500.243, 9154.000
1501.280, 9102.000
1502.317, 9051.000
1503.354, 9019.000
1504.390, 9032.603
1505.426, 9079.000
1506.463, 9098.000
1507.499, 9152.000
1508.535, 9202.000
1509.570, 9162.000
1510.606, 9109.000
1511.641, 9015.000
1512.676, 9049.000
1513.711, 9087.000
1514.746, 9165.000
1515.781, 9137.000
1516.816, 9105.000
1517.850, 9082.000
1518.884, 9133.000
1519.918, 9144.000
1520.952, 9135.000
1521.986, 9088.000
1523.019, 9025.000
1524.053, 9080.000
1525.086, 8997.000
1526.119, 9109.000
1527.152, 9137.000
1528.185, 9261.000
1529.217, 9187.000
1530.250, 9123.000
1531.282, 9042.000
1532.314, 9181.000
1533.346, 9062.000
1534.377, 9208.000
1535.409, 9116.133
1536.440, 9197.377
1537.472, 9243.913
1538.503, 9257.603
1539.534, 9140.071
1540.564, 9191.982
1541.595, 9175.989
1542.625, 9157.211
1543.656, 9232.972
1544.686, 9134.524
1545.716, 9208.784
1546.745, 9214.102
1547.775, 9250.973
1548.804, 9219.517
1549.834, 9209.167
1550.863, 9267.161
1551.892, 9287.312
1552.920, 9247.990
1553.949, 9286.864
1554.977, 9186.027
1556.006, 9207.790
1557.034, 9282.445
1558.062, 9246.559
1559.089, 9286.679
1560.117, 9297.853
1561.144, 9177.466
1562.172, 9285.875
1563.199, 9295.336
1564.226, 9203.201
1565.252, 9303.767
1566.279, 9225.639
1567.305, 9347.000
1568.332, 9219.000
1569.358, 9292.000
1570.384, 9355.000
1571.409, 9267.000
##END=



