##NAMES=Columbite-(Fe)
##RRUFFID=R050348
##IDEAL CHEMISTRY=Fe^2+^Nb^5+^_2_O_6_
##LOCALITY=Lord Hill mine, Stoneham, Oxford County, Maine, USA
##OWNER=RRUFF
##SOURCE=California Institute of Technology
##DESCRIPTION=Black fragment
##STATUS=The identification of this mineral has been confirmed by X-ray diffraction and chemical analysis
##URL=rruff.info/R050348
##MEASURED CHEMISTRY=(Fe^2+^_0.69_Mn^2+^_0.30_Ti_0.01_)(Nb_0.89_Ta_0.10_Ti_0.01_)_2_O_6_
##PIN_ID=L01882
##ORIENTATION=Laser parallel to -a* (-1 0 0). Fiducial mark perpendicular to laser is parallel to b [0 1 0]
221.0220, 18055.00
222.2400, 18056.00
223.4590, 17976.00
224.6770, 17954.00
225.8950, 18115.00
227.1120, 18285.00
228.3300, 18309.00
229.5480, 18553.00
230.7650, 18492.00
231.9820, 18636.00
233.1990, 18678.00
234.4160, 18535.00
235.6330, 18728.00
236.8490, 18751.00
238.0660, 18896.00
239.2820, 19004.92
240.4980, 19181.00
241.7140, 19312.00
242.9300, 19143.00
244.1460, 19467.00
245.3610, 19300.00
246.5770, 19595.00
247.7920, 19532.00
249.0070, 19580.00
250.2220, 19621.00
251.4370, 19572.00
252.6510, 19800.00
253.8660, 19998.00
255.0800, 19998.00
256.2940, 19917.00
257.5080, 20191.00
258.7220, 20267.79
259.9360, 20193.20
261.1490, 20571.00
262.3630, 20044.00
263.5760, 19922.00
264.7890, 19838.00
266.0020, 19803.00
267.2150, 19816.00
268.4270, 19757.00
269.6400, 19758.00
270.8520, 19680.00
272.0640, 19733.00
273.2760, 19462.00
274.4880, 19585.00
275.7000, 19546.00
276.9120, 19680.00
278.1230, 19641.00
279.3340, 19621.00
280.5450, 19408.00
281.7560, 19491.00
282.9670, 19422.00
284.1780, 19273.00
285.3880, 19245.00
286.5980, 19016.00
287.8090, 19068.00
289.0190, 18864.00
290.2290, 18953.00
291.4380, 18965.00
292.6480, 18723.00
293.8570, 18811.00
295.0670, 18847.00
296.2760, 18590.00
297.4850, 18678.00
298.6930, 18603.00
299.9020, 18369.00
301.1110, 18301.00
302.3190, 18116.00
303.5270, 18208.00
304.7350, 18331.00
305.9430, 18060.00
307.1510, 18197.00
308.3580, 18043.00
309.5660, 18096.00
310.7730, 17917.00
311.9800, 17916.00
313.1870, 17743.00
314.3940, 17763.00
315.6010, 17554.00
316.8070, 17662.00
318.0130, 17624.00
319.2200, 17535.00
320.4260, 17660.00
321.6310, 17444.00
322.8370, 17339.00
324.0430, 17472.00
325.2480, 17167.00
326.4540, 17316.00
327.6590, 17102.23
328.8640, 17163.43
330.0680, 17189.94
331.2730, 17183.58
332.4780, 17046.01
333.6820, 17077.90
334.8860, 17041.88
336.0900, 17003.08
337.2940, 17058.81
338.4980, 16940.34
339.7010, 16994.59
340.9050, 16979.89
342.1080, 16996.75
343.3110, 16945.29
344.5140, 16914.93
345.7170, 16952.92
346.9200, 16831.00
348.1220, 17000.00
349.3240, 16974.00
350.5270, 16833.00
351.7290, 16981.00
352.9310, 16834.00
354.1320, 17032.00
355.3340, 16911.00
356.5350, 16867.00
357.7370, 16936.00
358.9380, 16949.00
360.1390, 16920.00
361.3400, 17148.00
362.5400, 17073.00
363.7410, 16999.00
364.9410, 17196.00
366.1410, 17031.00
367.3410, 17059.00
368.5410, 17134.00
369.7410, 17161.00
370.9400, 17241.46
372.1400, 17348.00
373.3390, 17322.00
374.5380, 17471.00
375.7370, 17351.00
376.9360, 17505.00
378.1350, 17577.00
379.3330, 17598.00
380.5310, 17531.00
381.7300, 17750.00
382.9280, 17854.00
384.1260, 17676.00
385.3230, 17888.00
386.5210, 17935.00
387.7180, 18099.00
388.9160, 18074.00
390.1130, 18330.00
391.3100, 18179.00
392.5060, 18106.00
393.7030, 18255.00
394.9000, 18214.00
396.0960, 18202.00
397.2920, 18069.00
398.4880, 18101.00
399.6840, 18021.00
400.8800, 18077.00
402.0750, 17961.00
403.2710, 17921.39
404.4660, 17715.00
405.6610, 17757.00
406.8560, 17561.00
408.0510, 17416.00
409.2450, 17327.00
410.4400, 17956.00
411.6340, 17723.00
412.8280, 17465.00
414.0220, 18011.00
415.2160, 17397.00
416.4100, 17146.00
417.6030, 17069.00
418.7970, 16904.00
419.9900, 17019.00
421.1830, 16947.85
422.3760, 17089.00
423.5690, 16937.00
424.7610, 16940.00
425.9540, 16846.00
427.1460, 16893.00
428.3380, 16991.00
429.5300, 16834.00
430.7220, 16935.00
431.9140, 16809.00
433.1050, 16809.00
434.2970, 16786.00
435.4880, 16817.20
436.6790, 16898.00
437.8700, 16884.00
439.0610, 16900.00
440.2510, 16778.00
441.4420, 16863.00
442.6320, 16890.00
443.8220, 16755.00
445.0120, 17004.00
446.2020, 17019.00
447.3910, 16725.00
448.5810, 16805.00
449.7700, 16761.00
450.9600, 17006.00
452.1490, 17150.00
453.3370, 17011.00
454.5260, 16976.00
455.7150, 16925.00
456.9030, 16815.00
458.0910, 17062.00
459.2800, 16937.00
460.4670, 17065.00
461.6550, 16872.00
462.8430, 16906.00
464.0300, 16896.00
465.2180, 17048.00
466.4050, 17195.00
467.5920, 17150.00
468.7790, 17087.00
469.9650, 17028.00
471.1520, 17091.00
472.3380, 17093.00
473.5250, 17092.00
474.7110, 17062.00
475.8970, 16980.00
477.0820, 17078.00
478.2680, 17009.00
479.4540, 17001.00
480.6390, 17064.00
481.8240, 17109.00
483.0090, 17082.00
484.1940, 16884.49
485.3780, 16960.72
486.5630, 17002.25
487.7470, 17010.93
488.9320, 16888.38
490.1160, 16935.29
491.3000, 16914.29
492.4830, 16890.50
493.6670, 16961.25
494.8500, 16857.80
496.0340, 16927.06
497.2170, 16927.37
498.4000, 16959.24
499.5820, 16922.78
500.7650, 16846.00
501.9480, 16731.00
503.1300, 16957.00
504.3120, 16760.00
505.4940, 16915.00
506.6760, 16865.00
507.8580, 17002.00
509.0390, 16842.00
510.2210, 16992.00
511.4020, 16900.00
512.5830, 16926.00
513.7640, 16978.00
514.9450, 16974.35
516.1250, 16984.69
517.3060, 17021.00
518.4860, 17072.00
519.6660, 17091.85
520.8460, 17134.05
522.0260, 17144.00
523.2060, 17197.00
524.3850, 17200.00
525.5650, 17216.00
526.7440, 17173.00
527.9230, 17105.00
529.1020, 17237.00
530.2810, 17220.00
531.4590, 17304.00
532.6380, 17267.00
533.8160, 17309.00
534.9940, 17387.00
536.1720, 17389.00
537.3500, 17253.00
538.5270, 17269.00
539.7050, 17156.00
540.8820, 17040.00
542.0590, 17139.00
543.2360, 16902.00
544.4130, 17227.00
545.5900, 17093.00
546.7660, 17278.00
547.9430, 17234.00
549.1190, 17383.00
550.2950, 17119.00
551.4710, 17169.00
552.6470, 17196.00
553.8220, 17197.00
554.9980, 17027.00
556.1730, 17108.38
557.3480, 17125.53
558.5230, 17154.00
559.6980, 17215.00
560.8730, 17255.00
562.0470, 17159.00
563.2220, 17196.05
564.3960, 17242.00
565.5700, 17060.00
566.7440, 17406.00
567.9170, 17166.00
569.0910, 17304.00
570.2640, 17233.00
571.4380, 17531.00
572.6110, 17337.00
573.7840, 17397.00
574.9570, 17430.00
576.1290, 17415.00
577.3020, 17517.00
578.4740, 17486.00
579.6460, 17483.00
580.8180, 17440.00
581.9900, 17438.00
583.1620, 17391.00
584.3330, 17517.00
585.5040, 17590.00
586.6760, 17699.00
587.8470, 17565.00
589.0180, 17713.00
590.1880, 17624.00
591.3590, 17431.00
592.5290, 17590.00
593.7000, 17726.00
594.8700, 17560.00
596.0400, 17643.00
597.2090, 17503.00
598.3790, 17742.00
599.5490, 17726.00
600.7180, 17819.00
601.8870, 17765.00
603.0560, 17762.00
604.2250, 17859.00
605.3940, 18013.00
606.5620, 17679.00
607.7300, 17802.00
608.8990, 17936.00
610.0670, 17742.00
611.2350, 17930.00
612.4020, 17982.54
613.5700, 17967.24
614.7370, 18174.98
615.9050, 18058.00
617.0720, 18346.41
618.2390, 18324.32
619.4060, 18089.00
620.5720, 18223.00
621.7390, 18111.00
622.9050, 18225.00
624.0710, 18118.00
625.2370, 18059.00
626.4030, 18227.00
627.5690, 18230.00
628.7340, 18355.00
629.9000, 18383.00
631.0650, 18410.00
632.2300, 18249.00
633.3950, 18154.00
634.5600, 18220.00
635.7240, 18196.00
636.8890, 18239.00
638.0530, 18415.00
639.2170, 18459.00
640.3810, 18664.00
641.5450, 18314.00
642.7080, 18474.00
643.8720, 18276.00
645.0350, 18293.00
646.1980, 18331.00
647.3610, 18192.00
648.5240, 18043.00
649.6870, 18243.00
650.8490, 18086.00
652.0120, 18254.00
653.1740, 18578.00
654.3360, 18356.74
655.4980, 18580.00
656.6600, 18181.00
657.8210, 18300.00
658.9830, 18302.00
660.1440, 18261.00
661.3050, 18054.00
662.4660, 18081.00
663.6270, 18104.00
664.7870, 18213.00
665.9480, 18195.00
667.1080, 18025.00
668.2680, 18059.00
669.4280, 18077.00
670.5880, 17947.67
671.7480, 18096.00
672.9070, 17827.00
674.0670, 18038.00
675.2260, 18121.00
676.3850, 18064.00
677.5440, 18017.00
678.7030, 17943.00
679.8610, 17977.91
681.0200, 18028.00
682.1780, 18063.00
683.3360, 18015.00
684.4940, 18067.00
685.6520, 18020.93
686.8090, 17911.00
687.9670, 17925.00
689.1240, 17855.00
690.2810, 17755.00
691.4380, 17957.00
692.5950, 17900.00
693.7520, 17919.00
694.9080, 17919.00
696.0650, 17901.00
697.2210, 17835.00
698.3770, 17990.00
699.5330, 17767.00
700.6880, 17985.00
701.8440, 17737.00
702.9990, 18071.00
704.1550, 17869.00
705.3100, 17872.00
706.4650, 17950.00
707.6190, 17923.00
708.7740, 18000.00
709.9290, 17922.00
711.0830, 18047.00
712.2370, 17906.00
713.3910, 17872.00
714.5450, 17814.00
715.6980, 17761.10
716.8520, 17962.00
718.0050, 17768.00
719.1580, 17890.00
720.3110, 18043.00
721.4640, 18001.00
722.6170, 18068.00
723.7700, 18135.00
724.9220, 18040.00
726.0740, 18186.00
727.2260, 18206.00
728.3780, 18034.00
729.5300, 18152.00
730.6810, 18131.00
731.8330, 18092.00
732.9840, 18197.00
734.1350, 18112.00
735.2860, 18332.00
736.4370, 18420.00
737.5880, 18154.00
738.7380, 18208.00
739.8880, 18353.00
741.0390, 18230.00
742.1890, 18338.00
743.3380, 18412.00
744.4880, 18369.00
745.6380, 18583.00
746.7870, 18476.00
747.9360, 18457.00
749.0850, 18503.00
750.2340, 18422.00
751.3830, 18510.00
752.5310, 18661.00
753.6800, 18702.00
754.8280, 18457.00
755.9760, 18707.00
757.1240, 18618.00
758.2720, 18523.00
759.4190, 18658.00
760.5670, 18766.00
761.7140, 18949.00
762.8610, 18892.00
764.0080, 18769.00
765.1550, 18838.00
766.3020, 18863.00
767.4480, 18665.00
768.5950, 18808.00
769.7410, 18872.00
770.8870, 18897.00
772.0330, 19000.00
773.1780, 19116.00
774.3240, 19121.00
775.4690, 19106.00
776.6140, 19090.00
777.7590, 19083.00
778.9040, 19145.00
780.0490, 18889.00
781.1940, 18918.00
782.3380, 18933.00
783.4820, 19121.00
784.6260, 19032.00
785.7700, 19259.00
786.9140, 19272.00
788.0580, 19310.00
789.2010, 19223.00
790.3450, 19302.00
791.4880, 19284.00
792.6310, 19186.00
793.7730, 19026.00
794.9160, 19259.00
796.0590, 19316.00
797.2010, 19155.00
798.3430, 19294.00
799.4850, 19369.00
800.6270, 19396.00
801.7690, 19360.00
802.9100, 19549.00
804.0520, 19501.00
805.1930, 19543.52
806.3340, 19603.00
807.4750, 19553.00
808.6160, 19603.00
809.7560, 19583.00
810.8970, 19879.00
812.0370, 19872.00
813.1770, 19856.00
814.3170, 20011.00
815.4570, 19993.00
816.5960, 19967.00
817.7360, 20217.00
818.8750, 20322.00
820.0140, 20258.00
821.1530, 20163.00
822.2920, 20309.00
823.4310, 20344.00
824.5690, 20747.00
825.7070, 20795.00
826.8460, 20728.00
827.9840, 20991.00
829.1220, 21023.00
830.2590, 21298.00
831.3970, 21211.00
832.5340, 21398.00
833.6710, 21605.00
834.8080, 21477.00
835.9450, 21771.00
837.0820, 21876.00
838.2190, 22119.00
839.3550, 22381.00
840.4910, 22605.83
841.6270, 22879.00
842.7630, 23120.00
843.8990, 23498.00
845.0350, 23684.52
846.1700, 23843.00
847.3060, 24064.00
848.4410, 24530.00
849.5760, 24969.00
850.7100, 25335.00
851.8450, 25740.00
852.9800, 26232.00
854.1140, 26665.00
855.2480, 27090.00
856.3820, 27581.00
857.5160, 28018.00
858.6500, 28408.00
859.7830, 28856.00
860.9170, 29320.00
862.0500, 29705.67
863.1830, 30120.38
864.3160, 30497.00
865.4480, 30864.00
866.5810, 31225.00
867.7130, 31539.00
868.8460, 31434.00
869.9780, 31681.00
871.1100, 31171.00
872.2410, 30935.00
873.3730, 30166.00
874.5050, 29448.00
875.6360, 28400.00
876.7670, 27548.00
877.8980, 26351.00
879.0290, 25433.00
880.1590, 24494.00
881.2900, 23584.00
882.4200, 22626.69
883.5500, 21183.00
884.6800, 20839.00
885.8100, 19790.00
886.9400, 19154.00
888.0690, 18735.00
889.1990, 18206.00
890.3280, 17920.00
891.4570, 17741.00
892.5860, 17371.00
893.7140, 17099.00
894.8430, 16918.00
895.9710, 16743.00
897.1000, 16511.00
898.2280, 16211.00
899.3560, 16240.00
900.4830, 15954.00
901.6110, 15848.00
902.7380, 15839.00
903.8660, 15736.00
904.9930, 15678.48
906.1200, 15604.41
907.2460, 15565.00
908.3730, 15459.00
909.5000, 15439.00
910.6260, 15424.00
911.7520, 15258.00
912.8780, 15087.00
914.0040, 15030.00
915.1290, 14908.00
916.2550, 15063.00
917.3800, 14841.00
918.5050, 14910.00
919.6300, 14835.00
920.7550, 14713.00
921.8800, 14927.00
923.0040, 14970.00
924.1290, 14867.00
925.2530, 14937.00
926.3770, 14766.00
927.5010, 14695.00
928.6250, 14638.00
929.7480, 14772.00
930.8720, 14648.00
931.9950, 14737.00
933.1180, 14724.00
934.2410, 14821.00
935.3640, 14843.00
936.4860, 14713.00
937.6090, 14758.00
938.7310, 14638.00
939.8530, 14710.00
940.9750, 14500.00
942.0970, 14625.00
943.2180, 14763.00
944.3400, 14645.00
945.4610, 14804.93
946.5820, 14796.00
947.7030, 14952.00
948.8240, 14849.00
949.9450, 14913.00
951.0650, 14812.00
952.1860, 14880.00
953.3060, 14868.00
954.4260, 14883.00
955.5460, 15063.00
956.6650, 15067.00
957.7850, 15061.00
958.9040, 15188.00
960.0230, 15348.00
961.1420, 15260.00
962.2610, 15313.00
963.3800, 15334.00
964.4990, 15291.00
965.6170, 15310.00
966.7350, 15308.45
967.8530, 15399.00
968.9710, 15327.00
970.0890, 15424.00
971.2070, 15458.00
972.3240, 15416.00
973.4410, 15337.00
974.5580, 15384.58
975.6750, 15368.00
976.7920, 15401.00
977.9090, 15265.00
979.0250, 15210.00
980.1410, 15069.00
981.2580, 15023.00
982.3740, 15018.00
983.4890, 14922.00
984.6050, 14921.58
985.7200, 14947.00
986.8360, 14881.00
987.9510, 14769.00
989.0660, 14739.00
990.1810, 14705.39
991.2950, 14777.00
992.4100, 14666.00
993.5240, 14644.00
994.6390, 14576.00
995.7530, 14528.00
996.8660, 14476.38
997.9800, 14414.27
999.0940, 14348.00
1000.207, 14326.00
1001.320, 14236.00
1002.433, 14251.00
1003.546, 14203.18
1004.659, 14234.00
1005.772, 14160.00
1006.884, 14104.00
1007.996, 14100.00
1009.108, 14019.00
1010.220, 14082.00
1011.332, 14029.00
1012.444, 13974.00
1013.555, 14000.00
1014.666, 14034.00
1015.777, 14004.00
1016.888, 13992.00
1017.999, 14032.00
1019.110, 13974.00
1020.220, 13942.00
1021.331, 13914.00
1022.441, 13903.00
1023.551, 13921.00
1024.661, 13839.00
1025.770, 13948.00
1026.880, 13975.00
1027.989, 13886.00
1029.098, 14131.00
1030.207, 13902.00
1031.316, 13995.00
1032.425, 14027.00
1033.533, 13935.00
1034.642, 13857.00
1035.750, 14017.00
1036.858, 13924.00
1037.966, 13875.00
1039.073, 13899.00
1040.181, 13876.00
1041.288, 13906.00
1042.396, 14065.00
1043.503, 14106.00
1044.610, 13997.00
1045.716, 14129.59
1046.823, 13963.00
1047.929, 13971.00
1049.036, 13914.71
1050.142, 13971.00
1051.248, 13850.00
1052.353, 13835.00
1053.459, 14001.00
1054.564, 13838.00
1055.670, 14087.00
1056.775, 14016.00
1057.880, 14067.00
1058.985, 14005.00
1060.089, 13931.00
1061.194, 14069.00
1062.298, 14015.00
1063.402, 13943.00
1064.506, 13876.00
1065.610, 13982.00
1066.713, 13960.00
1067.817, 14095.00
1068.920, 14051.00
1070.023, 14039.00
1071.126, 14054.00
1072.229, 14056.00
1073.332, 13928.00
1074.435, 13908.00
1075.537, 13891.00
1076.639, 13967.00
1077.741, 13923.00
1078.843, 13943.00
1079.945, 13963.00
1081.046, 13799.00
1082.148, 14161.00
1083.249, 14104.00
1084.350, 14004.00
1085.451, 13861.00
1086.551, 13933.00
1087.652, 14000.00
1088.752, 13828.00
1089.853, 13866.00
1090.953, 13802.00
1092.053, 13792.90
1093.152, 13959.00
1094.252, 13845.00
1095.351, 13934.00
1096.451, 14004.00
1097.550, 14008.00
1098.649, 13996.00
1099.748, 14098.00
1100.846, 13946.00
1101.945, 13856.00
1103.043, 13913.00
1104.141, 13887.00
1105.239, 13920.00
1106.337, 13787.00
1107.434, 13922.00
1108.532, 14084.00
1109.629, 13790.00
1110.726, 13847.00
1111.823, 13910.00
1112.920, 13972.00
1114.017, 13935.00
1115.113, 14017.00
1116.210, 14026.00
1117.306, 13920.88
1118.402, 13995.64
1119.498, 14035.69
1120.593, 14042.90
1121.689, 13918.88
1122.784, 13964.31
1123.879, 13941.84
1124.974, 13916.58
1126.069, 13985.87
1127.164, 13880.94
1128.259, 13948.72
1129.353, 13947.57
1130.447, 13977.96
1131.541, 13940.04
1132.635, 13923.21
1133.729, 13974.74
1134.822, 13988.42
1135.916, 13942.63
1137.009, 13975.03
1138.102, 13867.73
1139.195, 13883.03
1140.288, 13951.22
1141.380, 13908.87
1142.473, 13942.52
1143.565, 13947.24
1144.657, 13820.39
1145.749, 13922.33
1146.841, 13925.34
1147.932, 13826.75
1149.024, 13920.85
1150.115, 13836.27
1151.206, 13735.00
1152.297, 13775.00
1153.388, 13766.00
1154.479, 13844.00
1155.569, 13794.00
1156.659, 13765.00
1157.750, 13941.00
1158.839, 13713.00
1159.929, 13789.00
1161.019, 13870.00
1162.108, 13939.00
1163.198, 13972.00
1164.287, 13911.00
1165.376, 14162.00
1166.465, 13967.37
1167.553, 13744.00
1168.642, 13847.00
1169.730, 13604.00
1170.818, 13822.00
1171.906, 13854.00
1172.994, 13901.00
1174.082, 13885.00
1175.170, 13807.00
1176.257, 13875.20
1177.344, 13844.47
1178.431, 13910.00
1179.518, 13893.00
1180.605, 13831.00
1181.691, 13916.00
1182.778, 13883.00
1183.864, 13911.00
1184.950, 13939.00
1186.036, 13959.00
1187.122, 13959.00
1188.207, 13949.10
1189.292, 13952.33
1190.378, 13924.00
1191.463, 13931.00
1192.548, 13969.00
1193.632, 13945.00
1194.717, 14013.00
1195.801, 14094.00
1196.886, 14267.00
1197.970, 13942.00
1199.054, 13879.00
1200.137, 14009.00
1201.221, 14105.00
1202.305, 13986.00
1203.388, 14130.00
1204.471, 14110.00
1205.554, 14044.00
1206.637, 14194.00
1207.719, 14120.55
1208.802, 14056.00
1209.884, 14118.00
1210.966, 14047.00
1212.048, 14077.00
1213.130, 14005.00
1214.212, 14053.00
1215.293, 14042.00
1216.374, 14059.00
1217.456, 14177.00
1218.536, 14067.00
1219.617, 14273.00
1220.698, 14144.00
1221.778, 14138.00
1222.859, 14028.00
1223.939, 14143.00
1225.019, 13985.00
1226.099, 14124.00
1227.178, 14098.00
1228.258, 14256.00
1229.337, 14234.00
1230.417, 14132.00
1231.496, 14218.00
1232.574, 14257.00
1233.653, 14165.00
1234.732, 14233.00
1235.810, 14222.01
1236.888, 14232.00
1237.966, 14265.00
1239.044, 14136.00
1240.122, 14174.00
1241.199, 14164.00
1242.277, 14201.00
1243.354, 14257.00
1244.431, 14131.00
1245.508, 14301.00
1246.585, 14211.00
1247.661, 14392.00
1248.738, 14553.99
1249.814, 14437.63
1250.890, 14858.00
1251.966, 14398.00
1253.042, 14256.00
1254.117, 14448.00
1255.193, 14418.00
1256.268, 14256.00
1257.343, 14243.00
1258.418, 14369.00
1259.493, 14263.00
1260.567, 14322.00
1261.642, 14375.00
1262.716, 14370.00
1263.790, 14316.00
1264.864, 14307.00
1265.938, 14271.00
1267.011, 14356.00
1268.085, 14275.00
1269.158, 14403.00
1270.231, 14287.00
1271.304, 14367.00
1272.377, 14368.00
1273.450, 14405.00
1274.522, 14323.00
1275.594, 14492.00
1276.666, 14272.00
1277.738, 14166.00
1278.810, 14250.00
1279.882, 14170.00
1280.953, 14375.00
1282.025, 14274.00
1283.096, 14466.00
1284.167, 14426.00
1285.238, 14429.00
1286.308, 14463.00
1287.379, 14450.64
1288.449, 14418.00
1289.519, 14480.00
1290.589, 14465.00
1291.659, 14491.00
1292.729, 14542.00
1293.798, 14540.00
1294.868, 14572.00
1295.937, 14618.00
1297.006, 14599.00
1298.075, 14788.00
1299.143, 14541.00
1300.212, 14676.00
1301.280, 14471.00
1302.348, 14596.00
1303.416, 14486.00
1304.484, 14591.00
1305.552, 14589.00
1306.620, 14571.00
1307.687, 14592.00
1308.754, 14649.00
1309.821, 14851.00
1310.888, 14671.00
1311.955, 14721.00
1313.021, 14525.00
1314.088, 14552.00
1315.154, 14689.00
1316.220, 14805.00
1317.286, 14743.00
1318.352, 14678.00
1319.417, 14685.00
1320.483, 14767.00
1321.548, 14768.00
1322.613, 14811.00
1323.678, 14989.00
1324.743, 14770.00
1325.807, 14837.00
1326.872, 14751.00
1327.936, 14951.00
1329.000, 14725.00
1330.064, 14902.00
1331.128, 14793.00
1332.191, 14729.00
1333.255, 14756.00
1334.318, 14790.00
1335.381, 14890.00
1336.444, 14957.00
1337.507, 15021.00
1338.569, 14966.00
1339.632, 14867.00
1340.694, 14816.00
1341.756, 14879.00
1342.818, 14867.00
1343.880, 14974.00
1344.941, 15035.00
1346.003, 15087.08
1347.064, 15090.00
1348.125, 15180.00
1349.186, 15213.74
1350.247, 15166.00
1351.308, 15283.00
1352.368, 15515.00
1353.428, 15296.00
1354.489, 14909.00
1355.549, 14983.00
1356.608, 14999.00
1357.668, 15047.00
1358.727, 15066.00
1359.787, 15020.00
1360.846, 15021.00
1361.905, 15060.00
1362.964, 15226.00
1364.022, 15209.00
1365.081, 15204.00
1366.139, 15200.00
1367.197, 15200.00
1368.255, 14992.00
1369.313, 15107.00
1370.371, 14986.00
1371.428, 15117.00
1372.486, 15112.00
1373.543, 15255.00
1374.600, 15181.00
1375.657, 15318.00
1376.713, 15195.00
1377.770, 15174.00
1378.826, 15263.00
1379.882, 15231.00
1380.938, 15338.00
1381.994, 15085.00
1383.050, 15205.00
1384.106, 15182.00
1385.161, 15334.00
1386.216, 15155.00
1387.271, 15257.00
1388.326, 15364.00
1389.381, 15441.00
1390.435, 15376.00
1391.490, 15403.00
1392.544, 15501.00
1393.598, 15387.00
1394.652, 15462.00
1395.705, 15302.00
1396.759, 15445.00
1397.812, 15339.00
1398.866, 15288.00
1399.919, 15322.00
1400.972, 15240.00
1402.024, 15394.00
1403.077, 15496.00
1404.129, 15538.00
1405.181, 15640.00
1406.233, 15491.00
1407.285, 15330.00
1408.337, 15417.00
1409.389, 15338.00
1410.440, 15443.00
1411.491, 15408.00
1412.542, 15456.00
1413.593, 15526.88
1414.644, 15620.00
1415.695, 15696.00
1416.745, 15456.00
1417.795, 15584.00
1418.845, 15485.00
1419.895, 15648.00
1420.945, 15721.00
1421.995, 15482.00
1423.044, 15612.00
1424.093, 15666.00
1425.142, 15558.52
1426.191, 15548.00
1427.240, 15505.00
1428.289, 15826.00
1429.337, 15898.00
1430.385, 15807.00
1431.433, 15786.00
1432.481, 15677.00
1433.529, 15713.00
1434.577, 15715.00
1435.624, 15758.00
1436.672, 15799.00
1437.719, 15818.71
1438.766, 15734.00
1439.812, 15893.00
1440.859, 15839.00
1441.905, 15901.00
1442.952, 15800.00
1443.998, 15925.00
1445.044, 15900.00
1446.090, 15930.00
1447.135, 15945.00
1448.181, 15888.43
1449.226, 15896.00
1450.271, 15881.00
1451.316, 15817.00
1452.361, 16031.00
1453.405, 15819.00
1454.450, 15827.00
1455.494, 16131.00
1456.538, 16050.00
1457.582, 16198.00
1458.626, 15909.00
1459.670, 16183.00
1460.713, 16056.00
1461.757, 16085.00
1462.800, 16177.00
1463.843, 16037.00
1464.886, 16101.77
1465.928, 16082.00
1466.971, 16106.00
1468.013, 16076.00
1469.055, 16100.00
1470.097, 16078.00
1471.139, 16204.00
1472.181, 16167.00
1473.222, 16183.88
1474.263, 16112.00
1475.305, 16165.00
1476.346, 16228.00
1477.386, 16218.00
1478.427, 16160.00
1479.468, 16208.73
1480.508, 16256.31
1481.548, 16196.00
1482.588, 16375.00
1483.628, 16295.00
1484.668, 16233.00
1485.707, 16434.00
1486.747, 16417.00
1487.786, 16225.00
1488.825, 16365.00
1489.864, 16471.00
1490.902, 16435.00
1491.941, 16351.00
1492.979, 16363.00
1494.017, 16448.00
1495.055, 16582.00
1496.093, 16442.00
1497.131, 16523.00
1498.168, 16537.74
1499.206, 16489.00
1500.243, 16544.00
1501.280, 16528.00
1502.317, 16435.00
1503.354, 16495.00
1504.390, 16396.00
1505.426, 16603.00
1506.463, 16708.00
1507.499, 16473.00
1508.535, 16648.00
1509.570, 16636.00
1510.606, 16661.00
1511.641, 16667.00
1512.676, 16613.00
1513.711, 16560.00
1514.746, 16485.00
1515.781, 16505.52
1516.816, 16528.89
1517.850, 16554.00
1518.884, 16674.00
1519.918, 16716.00
1520.952, 16824.00
1521.986, 16615.00
1523.019, 16862.00
1524.053, 16766.00
1525.086, 16878.00
1526.119, 16803.00
1527.152, 16779.00
1528.185, 16852.00
1529.217, 16779.00
1530.250, 16758.00
1531.282, 16782.00
1532.314, 16775.00
1533.346, 16797.00
1534.377, 16829.00
1535.409, 16826.03
1536.440, 16872.67
1537.472, 16967.57
1538.503, 17027.75
1539.534, 17055.08
1540.564, 16951.17
1541.595, 17016.73
1542.625, 17014.36
1543.656, 17009.22
1544.686, 17098.61
1545.716, 17013.79
1546.745, 17101.67
1547.775, 17120.61
1548.804, 17171.10
1549.834, 17153.27
1550.863, 17156.54
1551.892, 17228.14
1552.920, 17261.90
1553.949, 17236.19
1554.977, 17288.66
1556.006, 17201.44
1557.034, 17236.81
1558.062, 17325.06
1559.089, 17302.76
1560.117, 17356.48
1561.144, 17381.25
1562.172, 17274.46
1563.199, 17396.46
1564.226, 17330.00
1565.252, 17200.00
1566.279, 17409.00
1567.305, 17331.00
1568.332, 17119.00
1569.358, 17328.00
1570.384, 17259.00
1571.409, 17323.00
##END=



