##NAMES=Columbite-(Fe)
##RRUFFID=R050348
##IDEAL CHEMISTRY=Fe^2+^Nb^5+^_2_O_6_
##LOCALITY=Lord Hill mine, Stoneham, Oxford County, Maine, USA
##OWNER=RRUFF
##SOURCE=California Institute of Technology
##DESCRIPTION=Black fragment
##STATUS=The identification of this mineral has been confirmed by X-ray diffraction and chemical analysis
##URL=rruff.info/R050348
##MEASURED CHEMISTRY=(Fe^2+^_0.69_Mn^2+^_0.30_Ti_0.01_)(Nb_0.89_Ta_0.10_Ti_0.01_)_2_O_6_
##PIN_ID=L00573
##ORIENTATION=Laser parallel to -c* (0 0 -1). Fiducial mark perpendicular to laser is parallel to -a [-1 0 0]
221.0220, 8030.000
222.2400, 7979.000
223.4590, 8010.652
224.6770, 7970.938
225.8950, 8051.000
227.1120, 8050.000
228.3300, 8023.000
229.5480, 8170.000
230.7650, 8100.000
231.9820, 8047.000
233.1990, 8084.000
234.4160, 8151.000
235.6330, 8306.000
236.8490, 8266.000
238.0660, 8272.000
239.2820, 8377.000
240.4980, 8281.000
241.7140, 8322.000
242.9300, 8473.000
244.1460, 8314.000
245.3610, 8422.000
246.5770, 8467.000
247.7920, 8487.000
249.0070, 8551.000
250.2220, 8551.000
251.4370, 8487.000
252.6510, 8670.000
253.8660, 8633.000
255.0800, 8760.000
256.2940, 8901.000
257.5080, 9036.000
258.7220, 9254.909
259.9360, 9247.922
261.1490, 9341.210
262.3630, 9308.000
263.5760, 9405.000
264.7890, 9554.000
266.0020, 9640.000
267.2150, 9816.000
268.4270, 9802.000
269.6400, 9967.000
270.8520, 10054.00
272.0640, 10104.00
273.2760, 10105.00
274.4880, 10073.00
275.7000, 10129.00
276.9120, 9906.000
278.1230, 9870.000
279.3340, 9590.000
280.5450, 9488.000
281.7560, 9398.000
282.9670, 9265.000
284.1780, 9161.896
285.3880, 9104.000
286.5980, 8928.000
287.8090, 8813.000
289.0190, 8695.000
290.2290, 8799.000
291.4380, 8766.000
292.6480, 8752.000
293.8570, 8684.000
295.0670, 8675.390
296.2760, 8697.000
297.4850, 8665.000
298.6930, 8644.000
299.9020, 8709.000
301.1110, 8771.000
302.3190, 8747.752
303.5270, 8730.000
304.7350, 8749.000
305.9430, 8758.000
307.1510, 8792.000
308.3580, 8696.000
309.5660, 8704.000
310.7730, 8726.000
311.9800, 8837.000
313.1870, 9047.000
314.3940, 9032.869
315.6010, 9115.884
316.8070, 9128.000
318.0130, 9121.000
319.2200, 9213.000
320.4260, 9160.000
321.6310, 8908.000
322.8370, 8990.000
324.0430, 9053.000
325.2480, 8939.256
326.4540, 9175.000
327.6590, 8878.000
328.8640, 8930.000
330.0680, 8922.000
331.2730, 8765.000
332.4780, 8819.000
333.6820, 8651.000
334.8860, 8849.000
336.0900, 8770.000
337.2940, 8888.000
338.4980, 8874.000
339.7010, 8788.000
340.9050, 8835.000
342.1080, 8736.000
343.3110, 8782.000
344.5140, 8737.000
345.7170, 8728.000
346.9200, 8794.000
348.1220, 8706.000
349.3240, 8891.000
350.5270, 8741.000
351.7290, 8781.000
352.9310, 8827.000
354.1320, 8836.000
355.3340, 8800.000
356.5350, 8864.000
357.7370, 8844.000
358.9380, 8988.000
360.1390, 8743.000
361.3400, 8959.000
362.5400, 8954.000
363.7410, 8836.000
364.9410, 8891.000
366.1410, 8982.000
367.3410, 8874.000
368.5410, 8944.000
369.7410, 8981.000
370.9400, 8953.000
372.1400, 8926.000
373.3390, 8981.075
374.5380, 9020.000
375.7370, 9076.000
376.9360, 9049.000
378.1350, 9104.000
379.3330, 9060.000
380.5310, 9159.000
381.7300, 9108.000
382.9280, 9201.000
384.1260, 9062.000
385.3230, 9175.000
386.5210, 9257.000
387.7180, 9170.000
388.9160, 9206.000
390.1130, 9198.000
391.3100, 9191.000
392.5060, 9153.000
393.7030, 9249.000
394.9000, 9207.793
396.0960, 9309.000
397.2920, 9173.000
398.4880, 9204.000
399.6840, 9125.000
400.8800, 9096.439
402.0750, 9228.000
403.2710, 9096.000
404.4660, 9130.000
405.6610, 9224.000
406.8560, 9132.000
408.0510, 9108.000
409.2450, 9208.000
410.4400, 9084.000
411.6340, 9184.000
412.8280, 9230.000
414.0220, 9217.000
415.2160, 9179.000
416.4100, 9205.000
417.6030, 9151.000
418.7970, 9129.000
419.9900, 9269.000
421.1830, 9258.000
422.3760, 9243.000
423.5690, 9197.000
424.7610, 9248.000
425.9540, 9215.000
427.1460, 9169.000
428.3380, 9237.000
429.5300, 9318.000
430.7220, 9280.000
431.9140, 9319.000
433.1050, 9377.000
434.2970, 9273.000
435.4880, 9370.000
436.6790, 9389.000
437.8700, 9411.000
439.0610, 9457.000
440.2510, 9452.000
441.4420, 9495.000
442.6320, 9563.000
443.8220, 9568.869
445.0120, 9585.000
446.2020, 9620.000
447.3910, 9553.000
448.5810, 9567.000
449.7700, 9572.000
450.9600, 9532.000
452.1490, 9589.000
453.3370, 9535.000
454.5260, 9606.000
455.7150, 9766.000
456.9030, 9691.686
458.0910, 9731.000
459.2800, 9660.000
460.4670, 9715.000
461.6550, 9715.000
462.8430, 9739.202
464.0300, 9802.000
465.2180, 9847.000
466.4050, 9841.000
467.5920, 9942.000
468.7790, 9925.000
469.9650, 9982.000
471.1520, 9927.000
472.3380, 10016.00
473.5250, 9987.000
474.7110, 10065.00
475.8970, 9991.000
477.0820, 10035.28
478.2680, 10079.00
479.4540, 10065.00
480.6390, 10081.00
481.8240, 10076.00
483.0090, 10176.00
484.1940, 10135.06
485.3780, 10162.00
486.5630, 10134.00
487.7470, 10149.00
488.9320, 10207.00
490.1160, 10270.00
491.3000, 10200.00
492.4830, 10261.00
493.6670, 10287.00
494.8500, 10304.00
496.0340, 10178.00
497.2170, 10257.00
498.4000, 10181.00
499.5820, 10276.00
500.7650, 10147.00
501.9480, 10229.00
503.1300, 10263.00
504.3120, 10169.00
505.4940, 10138.00
506.6760, 10211.00
507.8580, 10249.00
509.0390, 10363.00
510.2210, 10442.00
511.4020, 10450.30
512.5830, 10456.00
513.7640, 10454.00
514.9450, 10491.00
516.1250, 10472.00
517.3060, 10498.29
518.4860, 10413.00
519.6660, 10536.00
520.8460, 10484.00
522.0260, 10504.00
523.2060, 10590.00
524.3850, 10641.00
525.5650, 10695.00
526.7440, 10720.25
527.9230, 10613.00
529.1020, 10699.00
530.2810, 10664.00
531.4590, 10555.00
532.6380, 10564.00
533.8160, 10577.74
534.9940, 10558.01
536.1720, 10603.00
537.3500, 10581.00
538.5270, 10435.00
539.7050, 10406.00
540.8820, 10445.00
542.0590, 10336.00
543.2360, 10390.00
544.4130, 10424.00
545.5900, 10418.00
546.7660, 10562.00
547.9430, 10379.00
549.1190, 10332.00
550.2950, 10419.00
551.4710, 10507.00
552.6470, 10375.00
553.8220, 10363.00
554.9980, 10440.00
556.1730, 10407.00
557.3480, 10419.00
558.5230, 10360.00
559.6980, 10484.00
560.8730, 10440.00
562.0470, 10494.00
563.2220, 10514.00
564.3960, 10533.00
565.5700, 10578.46
566.7440, 10465.00
567.9170, 10611.00
569.0910, 10582.00
570.2640, 10504.00
571.4380, 10607.00
572.6110, 10570.00
573.7840, 10657.00
574.9570, 10564.00
576.1290, 10436.00
577.3020, 10536.00
578.4740, 10499.00
579.6460, 10607.00
580.8180, 10557.00
581.9900, 10596.00
583.1620, 10624.00
584.3330, 10552.00
585.5040, 10625.00
586.6760, 10649.00
587.8470, 10678.00
589.0180, 10672.00
590.1880, 10692.00
591.3590, 10775.00
592.5290, 10695.00
593.7000, 10797.00
594.8700, 10730.00
596.0400, 10680.00
597.2090, 10772.00
598.3790, 10795.00
599.5490, 10825.00
600.7180, 10891.00
601.8870, 10916.00
603.0560, 10978.00
604.2250, 10977.00
605.3940, 11058.00
606.5620, 11136.00
607.7300, 10958.00
608.8990, 11180.00
610.0670, 11086.00
611.2350, 11121.00
612.4020, 11225.00
613.5700, 11204.00
614.7370, 11357.00
615.9050, 11602.97
617.0720, 11258.00
618.2390, 12000.00
619.4060, 11636.00
620.5720, 11333.00
621.7390, 11408.00
622.9050, 11520.00
624.0710, 11586.00
625.2370, 11623.00
626.4030, 11630.00
627.5690, 11835.00
628.7340, 11851.00
629.9000, 11892.00
631.0650, 11890.00
632.2300, 11997.00
633.3950, 11955.00
634.5600, 11987.01
635.7240, 11956.00
636.8890, 11949.00
638.0530, 11945.00
639.2170, 11828.00
640.3810, 11885.00
641.5450, 11867.00
642.7080, 11790.00
643.8720, 11838.00
645.0350, 11741.00
646.1980, 11751.00
647.3610, 11644.00
648.5240, 11576.00
649.6870, 11620.00
650.8490, 11667.00
652.0120, 11649.00
653.1740, 11517.00
654.3360, 11555.00
655.4980, 11635.00
656.6600, 11647.00
657.8210, 11468.00
658.9830, 11615.00
660.1440, 11506.00
661.3050, 11446.00
662.4660, 11623.00
663.6270, 11565.00
664.7870, 11537.00
665.9480, 11531.00
667.1080, 11533.00
668.2680, 11573.00
669.4280, 11582.00
670.5880, 11515.00
671.7480, 11605.00
672.9070, 11464.00
674.0670, 11631.00
675.2260, 11518.00
676.3850, 11517.00
677.5440, 11599.00
678.7030, 11512.00
679.8610, 11739.00
681.0200, 11647.00
682.1780, 11689.00
683.3360, 11594.00
684.4940, 11649.00
685.6520, 11663.00
686.8090, 11634.00
687.9670, 11674.91
689.1240, 11663.16
690.2810, 11698.00
691.4380, 11667.00
692.5950, 11661.00
693.7520, 11662.00
694.9080, 11686.00
696.0650, 11755.00
697.2210, 11850.00
698.3770, 11679.00
699.5330, 11784.00
700.6880, 11743.00
701.8440, 11692.00
702.9990, 11811.00
704.1550, 11752.00
705.3100, 11772.00
706.4650, 11740.00
707.6190, 11781.00
708.7740, 11808.11
709.9290, 11766.00
711.0830, 11904.00
712.2370, 11912.40
713.3910, 11973.00
714.5450, 11958.00
715.6980, 12005.00
716.8520, 11939.00
718.0050, 11980.00
719.1580, 11994.00
720.3110, 11902.00
721.4640, 11966.00
722.6170, 11927.00
723.7700, 11880.00
724.9220, 11873.00
726.0740, 11887.00
727.2260, 11997.00
728.3780, 11963.00
729.5300, 12002.00
730.6810, 11902.00
731.8330, 11887.00
732.9840, 12008.00
734.1350, 11926.00
735.2860, 11908.00
736.4370, 12001.00
737.5880, 11968.00
738.7380, 11902.00
739.8880, 12045.00
741.0390, 12050.00
742.1890, 11940.00
743.3380, 11979.00
744.4880, 11989.00
745.6380, 12005.00
746.7870, 12047.00
747.9360, 12054.00
749.0850, 12101.00
750.2340, 11974.00
751.3830, 11889.00
752.5310, 11915.82
753.6800, 12133.00
754.8280, 11939.00
755.9760, 12052.00
757.1240, 12106.00
758.2720, 11945.00
759.4190, 12385.00
760.5670, 12272.00
761.7140, 12241.00
762.8610, 12031.00
764.0080, 12035.00
765.1550, 12170.00
766.3020, 12134.00
767.4480, 12115.00
768.5950, 12090.00
769.7410, 12152.00
770.8870, 12236.00
772.0330, 12220.00
773.1780, 12021.00
774.3240, 12098.00
775.4690, 12174.00
776.6140, 12125.00
777.7590, 12262.00
778.9040, 12257.00
780.0490, 12200.00
781.1940, 12048.00
782.3380, 12261.00
783.4820, 12154.00
784.6260, 12233.00
785.7700, 12135.00
786.9140, 12212.00
788.0580, 12154.00
789.2010, 12325.00
790.3450, 12137.00
791.4880, 12299.00
792.6310, 12178.00
793.7730, 12143.00
794.9160, 12308.00
796.0590, 12224.00
797.2010, 12375.00
798.3430, 12328.00
799.4850, 12351.00
800.6270, 12430.00
801.7690, 12314.00
802.9100, 12473.00
804.0520, 12345.00
805.1930, 12377.00
806.3340, 12477.00
807.4750, 12438.00
808.6160, 12508.00
809.7560, 12525.00
810.8970, 12548.00
812.0370, 12564.00
813.1770, 12707.00
814.3170, 12775.00
815.4570, 12726.00
816.5960, 12776.00
817.7360, 12696.00
818.8750, 13008.00
820.0140, 12911.00
821.1530, 13069.00
822.2920, 13076.00
823.4310, 12970.00
824.5690, 13189.00
825.7070, 13204.00
826.8460, 13116.00
827.9840, 13418.00
829.1220, 13367.00
830.2590, 13323.00
831.3970, 13527.00
832.5340, 13450.00
833.6710, 13535.00
834.8080, 13556.00
835.9450, 13782.00
837.0820, 13784.00
838.2190, 14009.00
839.3550, 14181.00
840.4910, 14051.00
841.6270, 14220.00
842.7630, 14415.00
843.8990, 14558.00
845.0350, 14852.00
846.1700, 15089.00
847.3060, 15199.00
848.4410, 15412.00
849.5760, 15870.00
850.7100, 16081.00
851.8450, 16375.00
852.9800, 16650.00
854.1140, 17284.00
855.2480, 17840.00
856.3820, 18404.00
857.5160, 18715.00
858.6500, 19283.00
859.7830, 20197.00
860.9170, 21083.00
862.0500, 21834.00
863.1830, 22957.00
864.3160, 23990.00
865.4480, 25269.00
866.5810, 26396.00
867.7130, 27860.00
868.8460, 28858.00
869.9780, 30010.00
871.1100, 30642.00
872.2410, 30866.00
873.3730, 31050.00
874.5050, 30698.00
875.6360, 29677.00
876.7670, 28542.00
877.8980, 26980.00
879.0290, 25365.00
880.1590, 23866.00
881.2900, 22490.00
882.4200, 21123.00
883.5500, 19855.00
884.6800, 18686.00
885.8100, 18046.00
886.9400, 17153.00
888.0690, 16652.00
889.1990, 15910.00
890.3280, 15801.00
891.4570, 15337.00
892.5860, 14801.00
893.7140, 14822.00
894.8430, 14554.00
895.9710, 14290.00
897.1000, 14157.00
898.2280, 14177.00
899.3560, 13971.86
900.4830, 13816.17
901.6110, 13683.00
902.7380, 13555.00
903.8660, 13425.92
904.9930, 13345.41
906.1200, 13214.00
907.2460, 13220.00
908.3730, 13181.00
909.5000, 13166.00
910.6260, 13084.00
911.7520, 13093.45
912.8780, 13053.00
914.0040, 13072.00
915.1290, 12943.00
916.2550, 12894.00
917.3800, 13048.00
918.5050, 12915.00
919.6300, 12949.62
920.7550, 12976.00
921.8800, 12943.00
923.0040, 12924.00
924.1290, 12988.00
925.2530, 12852.00
926.3770, 12993.00
927.5010, 12904.00
928.6250, 12939.00
929.7480, 12895.00
930.8720, 12965.00
931.9950, 12997.00
933.1180, 13048.00
934.2410, 12797.00
935.3640, 12986.00
936.4860, 12758.00
937.6090, 12873.00
938.7310, 12848.00
939.8530, 12980.00
940.9750, 13003.07
942.0970, 13072.00
943.2180, 13036.00
944.3400, 12992.00
945.4610, 12898.00
946.5820, 12949.00
947.7030, 13023.00
948.8240, 12948.00
949.9450, 13023.60
951.0650, 12922.00
952.1860, 13049.00
953.3060, 12962.00
954.4260, 12898.00
955.5460, 12939.87
956.6650, 12860.66
957.7850, 12968.00
958.9040, 12855.00
960.0230, 12940.00
961.1420, 13082.00
962.2610, 12979.00
963.3800, 12899.00
964.4990, 12847.00
965.6170, 12912.00
966.7350, 13017.00
967.8530, 12983.53
968.9710, 13049.01
970.0890, 13010.00
971.2070, 13051.00
972.3240, 13090.00
973.4410, 13000.00
974.5580, 13115.00
975.6750, 13153.00
976.7920, 13129.00
977.9090, 13182.00
979.0250, 13202.00
980.1410, 13164.00
981.2580, 13199.00
982.3740, 13260.00
983.4890, 13271.00
984.6050, 13267.46
985.7200, 13240.00
986.8360, 13246.00
987.9510, 13230.00
989.0660, 13266.00
990.1810, 13245.74
991.2950, 13256.67
992.4100, 13271.00
993.5240, 13277.00
994.6390, 13383.00
995.7530, 13427.00
996.8660, 13385.91
997.9800, 13404.39
999.0940, 13378.00
1000.207, 13278.00
1001.320, 13464.00
1002.433, 13307.00
1003.546, 13311.00
1004.659, 13471.00
1005.772, 13315.00
1006.884, 13366.00
1007.996, 13465.00
1009.108, 13463.00
1010.220, 13366.00
1011.332, 13548.00
1012.444, 13414.00
1013.555, 13364.00
1014.666, 13471.00
1015.777, 13475.00
1016.888, 13442.00
1017.999, 13452.00
1019.110, 13337.00
1020.220, 13594.00
1021.331, 13377.00
1022.441, 13640.00
1023.551, 13650.00
1024.661, 13618.00
1025.770, 13627.00
1026.880, 13579.00
1027.989, 13494.00
1029.098, 13570.00
1030.207, 13525.00
1031.316, 13511.00
1032.425, 13599.00
1033.533, 13616.00
1034.642, 13571.00
1035.750, 13581.00
1036.858, 13674.00
1037.966, 13602.00
1039.073, 13666.00
1040.181, 13705.00
1041.288, 13646.00
1042.396, 13674.00
1043.503, 13676.00
1044.610, 13771.00
1045.716, 13752.00
1046.823, 13740.00
1047.929, 13780.00
1049.036, 13757.00
1050.142, 13767.00
1051.248, 13834.00
1052.353, 13881.00
1053.459, 13868.00
1054.564, 13791.00
1055.670, 13790.00
1056.775, 13861.00
1057.880, 13917.00
1058.985, 14018.00
1060.089, 13849.00
1061.194, 13986.00
1062.298, 13852.00
1063.402, 14018.00
1064.506, 13940.00
1065.610, 13926.00
1066.713, 13985.00
1067.817, 13915.00
1068.920, 14078.00
1070.023, 13992.00
1071.126, 13996.00
1072.229, 14101.00
1073.332, 14161.00
1074.435, 14083.00
1075.537, 13981.00
1076.639, 14131.00
1077.741, 14229.00
1078.843, 14149.00
1079.945, 14105.00
1081.046, 14138.00
1082.148, 14203.00
1083.249, 14438.00
1084.350, 14400.00
1085.451, 14222.00
1086.551, 14432.00
1087.652, 14257.00
1088.752, 14195.00
1089.853, 14272.00
1090.953, 14117.00
1092.053, 14142.00
1093.152, 14252.00
1094.252, 14164.00
1095.351, 14253.00
1096.451, 14311.00
1097.550, 14169.00
1098.649, 14178.00
1099.748, 14292.00
1100.846, 14242.00
1101.945, 14281.00
1103.043, 14173.00
1104.141, 14146.00
1105.239, 14155.00
1106.337, 14386.00
1107.434, 14313.00
1108.532, 14320.00
1109.629, 14316.00
1110.726, 14249.68
1111.823, 14259.00
1112.920, 14195.00
1114.017, 14243.88
1115.113, 14335.01
1116.210, 14479.00
1117.306, 14363.00
1118.402, 14550.00
1119.498, 14467.00
1120.593, 14542.00
1121.689, 14398.00
1122.784, 14526.00
1123.879, 14482.00
1124.974, 14615.00
1126.069, 14376.00
1127.164, 14286.00
1128.259, 14437.00
1129.353, 14378.00
1130.447, 14509.00
1131.541, 14502.00
1132.635, 14472.00
1133.729, 14387.00
1134.822, 14497.00
1135.916, 14600.00
1137.009, 14440.00
1138.102, 14475.00
1139.195, 14444.00
1140.288, 14309.00
1141.380, 14568.00
1142.473, 14435.00
1143.565, 14482.00
1144.657, 14608.00
1145.749, 14526.00
1146.841, 14626.00
1147.932, 14526.00
1149.024, 14537.00
1150.115, 14391.00
1151.206, 14539.00
1152.297, 14574.00
1153.388, 14442.00
1154.479, 14482.00
1155.569, 14585.00
1156.659, 14619.00
1157.750, 14602.00
1158.839, 14530.00
1159.929, 14617.00
1161.019, 14636.00
1162.108, 14572.00
1163.198, 14658.00
1164.287, 14595.00
1165.376, 14540.00
1166.465, 14730.00
1167.553, 14552.00
1168.642, 14718.00
1169.730, 14618.00
1170.818, 14634.00
1171.906, 14660.00
1172.994, 14692.00
1174.082, 14640.00
1175.170, 14616.00
1176.257, 14748.00
1177.344, 14677.00
1178.431, 14664.00
1179.518, 14754.00
1180.605, 14734.00
1181.691, 14679.00
1182.778, 14777.00
1183.864, 14785.00
1184.950, 14790.00
1186.036, 14843.00
1187.122, 14689.00
1188.207, 14700.00
1189.292, 14940.00
1190.378, 14790.00
1191.463, 14766.00
1192.548, 14928.00
1193.632, 14950.00
1194.717, 15035.00
1195.801, 14869.00
1196.886, 14868.00
1197.970, 14941.00
1199.054, 14900.00
1200.137, 14913.00
1201.221, 14975.00
1202.305, 15011.00
1203.388, 15034.00
1204.471, 14949.00
1205.554, 15096.00
1206.637, 15112.00
1207.719, 14988.00
1208.802, 14917.00
1209.884, 15040.00
1210.966, 15006.00
1212.048, 15024.00
1213.130, 15072.00
1214.212, 15086.00
1215.293, 14949.00
1216.374, 15248.00
1217.456, 14974.00
1218.536, 15045.00
1219.617, 15093.00
1220.698, 14997.00
1221.778, 14994.00
1222.859, 15264.00
1223.939, 15205.00
1225.019, 15161.00
1226.099, 15218.00
1227.178, 15171.00
1228.258, 15277.00
1229.337, 15130.00
1230.417, 15294.00
1231.496, 15187.00
1232.574, 15224.00
1233.653, 15176.00
1234.732, 15195.00
1235.810, 15276.00
1236.888, 15247.00
1237.966, 15381.00
1239.044, 15304.00
1240.122, 15317.34
1241.199, 15453.00
1242.277, 15292.00
1243.354, 15361.00
1244.431, 15412.00
1245.508, 15469.00
1246.585, 15237.00
1247.661, 15315.00
1248.738, 15719.00
1249.814, 16135.00
1250.890, 15532.00
1251.966, 15383.00
1253.042, 15541.00
1254.117, 15244.00
1255.193, 15496.00
1256.268, 15293.00
1257.343, 15374.00
1258.418, 15542.00
1259.493, 15477.00
1260.567, 15371.00
1261.642, 15366.00
1262.716, 15641.00
1263.790, 15492.00
1264.864, 15764.00
1265.938, 15587.00
1267.011, 15575.00
1268.085, 15658.00
1269.158, 15603.00
1270.231, 15645.98
1271.304, 15587.00
1272.377, 15647.00
1273.450, 15732.00
1274.522, 15661.00
1275.594, 15543.00
1276.666, 15640.00
1277.738, 15995.00
1278.810, 15703.00
1279.882, 15909.00
1280.953, 15761.00
1282.025, 15807.00
1283.096, 15802.00
1284.167, 15663.00
1285.238, 15683.00
1286.308, 15652.00
1287.379, 15743.00
1288.449, 15885.00
1289.519, 16001.00
1290.589, 15890.00
1291.659, 15820.00
1292.729, 15753.00
1293.798, 15776.50
1294.868, 15997.00
1295.937, 15899.00
1297.006, 15926.00
1298.075, 16033.00
1299.143, 15910.00
1300.212, 15966.00
1301.280, 15971.00
1302.348, 15985.00
1303.416, 16060.00
1304.484, 15987.00
1305.552, 16029.00
1306.620, 15996.00
1307.687, 16051.00
1308.754, 16082.00
1309.821, 16040.00
1310.888, 16011.00
1311.955, 16030.00
1313.021, 16113.00
1314.088, 16251.00
1315.154, 16261.00
1316.220, 16092.00
1317.286, 16223.00
1318.352, 16167.00
1319.417, 16165.00
1320.483, 16231.00
1321.548, 16260.00
1322.613, 16297.00
1323.678, 16113.00
1324.743, 16490.00
1325.807, 16029.00
1326.872, 16303.00
1327.936, 16552.00
1329.000, 16332.00
1330.064, 16277.00
1331.128, 16273.00
1332.191, 16192.00
1333.255, 16392.00
1334.318, 16307.00
1335.381, 16333.00
1336.444, 16598.54
1337.507, 16522.85
1338.569, 16549.96
1339.632, 16633.00
1340.694, 16432.00
1341.756, 16544.00
1342.818, 16458.00
1343.880, 16455.00
1344.941, 16550.00
1346.003, 16477.00
1347.064, 16373.00
1348.125, 16563.00
1349.186, 16484.00
1350.247, 16401.00
1351.308, 16447.00
1352.368, 16429.00
1353.428, 16451.00
1354.489, 16525.00
1355.549, 16533.00
1356.608, 16512.00
1357.668, 16585.00
1358.727, 16535.00
1359.787, 16568.44
1360.846, 16542.00
1361.905, 16576.00
1362.964, 16722.00
1364.022, 16692.00
1365.081, 16495.00
1366.139, 16755.00
1367.197, 16420.00
1368.255, 16483.00
1369.313, 16575.00
1370.371, 16657.00
1371.428, 16739.00
1372.486, 16846.00
1373.543, 16890.00
1374.600, 16708.00
1375.657, 16781.00
1376.713, 16875.00
1377.770, 16614.00
1378.826, 16753.00
1379.882, 16791.00
1380.938, 16527.00
1381.994, 16668.00
1383.050, 16804.00
1384.106, 16757.00
1385.161, 16863.90
1386.216, 16876.66
1387.271, 16910.00
1388.326, 16898.00
1389.381, 16871.00
1390.435, 16854.00
1391.490, 16785.00
1392.544, 16917.00
1393.598, 17038.00
1394.652, 17072.00
1395.705, 16847.00
1396.759, 16836.00
1397.812, 16921.00
1398.866, 17015.00
1399.919, 16863.00
1400.972, 17019.00
1402.024, 16896.00
1403.077, 16906.00
1404.129, 17053.00
1405.181, 17025.00
1406.233, 17052.69
1407.285, 16996.00
1408.337, 17023.00
1409.389, 16893.00
1410.440, 16832.00
1411.491, 16936.00
1412.542, 16918.00
1413.593, 16990.00
1414.644, 17149.00
1415.695, 17246.00
1416.745, 17258.00
1417.795, 17160.00
1418.845, 17180.00
1419.895, 17289.00
1420.945, 17046.00
1421.995, 17025.00
1423.044, 17539.00
1424.093, 17217.69
1425.142, 17370.00
1426.191, 17086.00
1427.240, 17115.00
1428.289, 17151.00
1429.337, 17357.00
1430.385, 17131.00
1431.433, 17179.00
1432.481, 17171.00
1433.529, 17295.00
1434.577, 17379.00
1435.624, 17279.00
1436.672, 17225.00
1437.719, 17351.00
1438.766, 17388.00
1439.812, 17245.00
1440.859, 17347.00
1441.905, 17210.00
1442.952, 17272.00
1443.998, 17363.00
1445.044, 17299.00
1446.090, 17305.00
1447.135, 17350.00
1448.181, 17401.00
1449.226, 17438.00
1450.271, 17440.00
1451.316, 17439.00
1452.361, 17481.00
1453.405, 17452.38
1454.450, 17473.51
1455.494, 17452.00
1456.538, 17498.00
1457.582, 17576.00
1458.626, 17618.00
1459.670, 17612.36
1460.713, 17553.00
1461.757, 17543.00
1462.800, 17505.00
1463.843, 17401.00
1464.886, 17541.00
1465.928, 17670.00
1466.971, 17610.00
1468.013, 17515.00
1469.055, 17654.00
1470.097, 17645.00
1471.139, 17603.00
1472.181, 17705.00
1473.222, 17733.00
1474.263, 17671.00
1475.305, 17693.00
1476.346, 17724.00
1477.386, 17757.00
1478.427, 17823.00
1479.468, 17802.64
1480.508, 17812.00
1481.548, 17759.00
1482.588, 17784.00
1483.628, 17733.00
1484.668, 17704.00
1485.707, 17726.27
1486.747, 17655.00
1487.786, 17786.00
1488.825, 17762.00
1489.864, 17855.00
1490.902, 17578.00
1491.941, 17872.00
1492.979, 17808.00
1494.017, 18064.00
1495.055, 17812.00
1496.093, 17868.00
1497.131, 17968.00
1498.168, 17858.00
1499.206, 17943.00
1500.243, 17730.00
1501.280, 17871.00
1502.317, 17874.00
1503.354, 17979.00
1504.390, 17877.00
1505.426, 17915.00
1506.463, 17874.00
1507.499, 18080.00
1508.535, 18020.00
1509.570, 17977.00
1510.606, 18037.00
1511.641, 17983.00
1512.676, 18013.14
1513.711, 18043.00
1514.746, 18048.00
1515.781, 18069.00
1516.816, 18082.00
1517.850, 18200.00
1518.884, 18138.00
1519.918, 18185.72
1520.952, 18075.00
1521.986, 18175.00
1523.019, 18133.38
1524.053, 18070.00
1525.086, 18175.00
1526.119, 18189.00
1527.152, 18129.00
1528.185, 18141.00
1529.217, 18218.00
1530.250, 18305.00
1531.282, 18416.00
1532.314, 18346.00
1533.346, 18341.00
1534.377, 18385.00
1535.409, 18375.00
1536.440, 18380.00
1537.472, 18339.00
1538.503, 18347.00
1539.534, 18353.92
1540.564, 18283.00
1541.595, 18396.00
1542.625, 18403.00
1543.656, 18373.00
1544.686, 18568.00
1545.716, 18381.00
1546.745, 18439.00
1547.775, 18459.33
1548.804, 18394.00
1549.834, 18485.00
1550.863, 18597.00
1551.892, 18631.00
1552.920, 18785.00
1553.949, 18955.00
1554.977, 19075.00
1556.006, 19004.61
1557.034, 18559.00
1558.062, 18730.00
1559.089, 18607.00
1560.117, 18369.00
1561.144, 18710.00
1562.172, 18549.50
1563.199, 18592.73
1564.226, 18555.00
1565.252, 18682.00
1566.279, 18597.00
1567.305, 18769.00
1568.332, 18701.00
1569.358, 18703.00
1570.384, 18720.00
1571.409, 18905.00
##END=



