##NAMES=Columbite-(Fe)
##RRUFFID=R050348
##IDEAL CHEMISTRY=Fe^2+^Nb^5+^_2_O_6_
##LOCALITY=Lord Hill mine, Stoneham, Oxford County, Maine, USA
##OWNER=RRUFF
##SOURCE=California Institute of Technology
##DESCRIPTION=Black fragment
##STATUS=The identification of this mineral has been confirmed by X-ray diffraction and chemical analysis
##URL=rruff.info/R050348
##MEASURED CHEMISTRY=(Fe^2+^_0.69_Mn^2+^_0.30_Ti_0.01_)(Nb_0.89_Ta_0.10_Ti_0.01_)_2_O_6_
##PIN_ID=L00509
##ORIENTATION=Laser parallel to -b* (0 -1 0). Fiducial mark perpendicular to laser is parallel to -c [0 0 -1]
221.0220, 6834.000
222.2400, 6803.000
223.4590, 6795.120
224.6770, 6878.000
225.8950, 6856.000
227.1120, 6859.000
228.3300, 6929.000
229.5480, 6932.000
230.7650, 6995.000
231.9820, 6838.000
233.1990, 6948.000
234.4160, 6979.000
235.6330, 7102.000
236.8490, 7167.000
238.0660, 7140.000
239.2820, 7107.000
240.4980, 7167.000
241.7140, 7310.000
242.9300, 7225.000
244.1460, 7270.000
245.3610, 7250.000
246.5770, 7283.000
247.7920, 7276.000
249.0070, 7328.000
250.2220, 7365.000
251.4370, 7265.000
252.6510, 7320.000
253.8660, 7221.155
255.0800, 7293.661
256.2940, 7331.457
257.5080, 7336.408
258.7220, 7210.140
259.9360, 7253.314
261.1490, 7228.589
262.3630, 7201.074
263.5760, 7268.103
264.7890, 7160.926
266.0020, 7225.000
267.2150, 7203.000
268.4270, 7229.000
269.6400, 7136.000
270.8520, 7056.000
272.0640, 6998.000
273.2760, 7022.000
274.4880, 7073.000
275.7000, 6964.000
276.9120, 7067.000
278.1230, 6911.000
279.3340, 6870.000
280.5450, 6811.000
281.7560, 6832.000
282.9670, 6766.000
284.1780, 6701.000
285.3880, 6667.000
286.5980, 6652.000
287.8090, 6553.000
289.0190, 6649.000
290.2290, 6535.000
291.4380, 6535.000
292.6480, 6594.000
293.8570, 6493.000
295.0670, 6392.000
296.2760, 6489.000
297.4850, 6528.000
298.6930, 6389.000
299.9020, 6456.000
301.1110, 6474.000
302.3190, 6392.000
303.5270, 6502.000
304.7350, 6407.000
305.9430, 6515.000
307.1510, 6470.000
308.3580, 6545.000
309.5660, 6418.000
310.7730, 6494.000
311.9800, 6565.000
313.1870, 6451.000
314.3940, 6525.000
315.6010, 6554.000
316.8070, 6470.000
318.0130, 6594.000
319.2200, 6575.000
320.4260, 6537.000
321.6310, 6471.000
322.8370, 6509.000
324.0430, 6495.000
325.2480, 6519.000
326.4540, 6435.000
327.6590, 6454.000
328.8640, 6467.000
330.0680, 6375.000
331.2730, 6345.000
332.4780, 6269.000
333.6820, 6261.000
334.8860, 6273.000
336.0900, 6248.000
337.2940, 6238.023
338.4980, 6195.000
339.7010, 6193.000
340.9050, 6152.000
342.1080, 6116.000
343.3110, 6197.000
344.5140, 6096.000
345.7170, 6073.000
346.9200, 6094.000
348.1220, 6018.000
349.3240, 6066.000
350.5270, 6113.000
351.7290, 6014.000
352.9310, 6081.000
354.1320, 6079.000
355.3340, 6001.000
356.5350, 5982.000
357.7370, 6040.000
358.9380, 5942.000
360.1390, 5966.000
361.3400, 6022.000
362.5400, 6029.000
363.7410, 5971.000
364.9410, 5873.000
366.1410, 5952.000
367.3410, 6048.000
368.5410, 5839.000
369.7410, 5911.000
370.9400, 5908.000
372.1400, 5898.000
373.3390, 5934.000
374.5380, 5812.000
375.7370, 5923.000
376.9360, 5846.000
378.1350, 5872.000
379.3330, 6007.000
380.5310, 5781.000
381.7300, 5863.000
382.9280, 5814.000
384.1260, 5914.000
385.3230, 5967.000
386.5210, 5934.000
387.7180, 5786.000
388.9160, 5805.000
390.1130, 5852.000
391.3100, 5857.000
392.5060, 5866.000
393.7030, 5911.000
394.9000, 5964.000
396.0960, 5929.953
397.2920, 5826.000
398.4880, 5871.000
399.6840, 5808.000
400.8800, 5774.000
402.0750, 5856.000
403.2710, 5821.000
404.4660, 5919.000
405.6610, 5887.000
406.8560, 5810.000
408.0510, 5794.000
409.2450, 5786.000
410.4400, 5782.000
411.6340, 5836.000
412.8280, 5826.000
414.0220, 5817.000
415.2160, 5895.000
416.4100, 5768.000
417.6030, 5853.000
418.7970, 5837.000
419.9900, 5846.000
421.1830, 5807.000
422.3760, 5847.000
423.5690, 5887.000
424.7610, 5775.000
425.9540, 6080.000
427.1460, 5932.857
428.3380, 5973.000
429.5300, 5846.000
430.7220, 5882.000
431.9140, 5865.000
433.1050, 5838.000
434.2970, 6026.000
435.4880, 5946.070
436.6790, 5960.000
437.8700, 5929.000
439.0610, 5854.000
440.2510, 5848.000
441.4420, 5980.000
442.6320, 5910.000
443.8220, 5850.000
445.0120, 5946.000
446.2020, 5856.000
447.3910, 5866.000
448.5810, 5855.000
449.7700, 5812.059
450.9600, 5829.000
452.1490, 5819.000
453.3370, 5837.000
454.5260, 5962.000
455.7150, 5926.000
456.9030, 5934.000
458.0910, 5855.000
459.2800, 5882.000
460.4670, 5860.610
461.6550, 5864.815
462.8430, 5881.000
464.0300, 5872.000
465.2180, 5803.658
466.4050, 5883.264
467.5920, 5928.159
468.7790, 5940.208
469.9650, 5821.039
471.1520, 5871.312
472.3380, 5853.680
473.5250, 5833.264
474.7110, 5907.386
475.8970, 5807.301
477.0820, 5879.923
478.2680, 5883.604
479.4540, 5918.838
480.6390, 5885.748
481.8240, 5913.000
483.0090, 5906.000
484.1940, 5847.000
485.3780, 5931.000
486.5630, 5866.000
487.7470, 5911.000
488.9320, 5960.000
490.1160, 5924.000
491.3000, 5880.000
492.4830, 5964.000
493.6670, 5923.000
494.8500, 5947.000
496.0340, 5873.000
497.2170, 5946.000
498.4000, 5920.000
499.5820, 6011.000
500.7650, 5970.000
501.9480, 5962.000
503.1300, 5983.000
504.3120, 5954.000
505.4940, 6004.000
506.6760, 5932.000
507.8580, 6032.000
509.0390, 5979.000
510.2210, 6024.000
511.4020, 6076.000
512.5830, 6060.000
513.7640, 6069.000
514.9450, 6172.000
516.1250, 6107.000
517.3060, 6144.000
518.4860, 6148.000
519.6660, 6138.000
520.8460, 6158.000
522.0260, 6186.780
523.2060, 6268.000
524.3850, 6242.000
525.5650, 6282.000
526.7440, 6256.000
527.9230, 6260.000
529.1020, 6393.000
530.2810, 6331.000
531.4590, 6387.000
532.6380, 6295.000
533.8160, 6405.000
534.9940, 6376.000
536.1720, 6312.000
537.3500, 6298.000
538.5270, 6264.000
539.7050, 6287.000
540.8820, 6352.000
542.0590, 6288.000
543.2360, 6341.000
544.4130, 6335.000
545.5900, 6440.000
546.7660, 6458.000
547.9430, 6270.000
549.1190, 6408.000
550.2950, 6302.293
551.4710, 6351.000
552.6470, 6244.000
553.8220, 6289.000
554.9980, 6328.000
556.1730, 6333.000
557.3480, 6276.000
558.5230, 6292.000
559.6980, 6332.000
560.8730, 6301.340
562.0470, 6331.062
563.2220, 6313.000
564.3960, 6308.000
565.5700, 6353.000
566.7440, 6327.792
567.9170, 6295.000
569.0910, 6316.000
570.2640, 6296.370
571.4380, 6285.000
572.6110, 6298.000
573.7840, 6300.000
574.9570, 6250.000
576.1290, 6231.000
577.3020, 6250.000
578.4740, 6286.000
579.6460, 6268.000
580.8180, 6210.000
581.9900, 6215.000
583.1620, 6191.000
584.3330, 6143.000
585.5040, 6140.183
586.6760, 6130.000
587.8470, 6132.000
589.0180, 6122.564
590.1880, 6141.000
591.3590, 6118.000
592.5290, 6097.000
593.7000, 6115.000
594.8700, 6153.000
596.0400, 6142.000
597.2090, 6186.000
598.3790, 6160.000
599.5490, 6163.000
600.7180, 6237.000
601.8870, 6193.000
603.0560, 6220.760
604.2250, 6241.000
605.3940, 6203.000
606.5620, 6194.939
607.7300, 6139.000
608.8990, 6167.000
610.0670, 6158.000
611.2350, 6166.000
612.4020, 6189.000
613.5700, 6251.000
614.7370, 6230.929
615.9050, 6194.000
617.0720, 6247.000
618.2390, 6211.000
619.4060, 6277.000
620.5720, 6263.000
621.7390, 6264.000
622.9050, 6249.000
624.0710, 6258.684
625.2370, 6230.000
626.4030, 6301.000
627.5690, 6281.000
628.7340, 6348.000
629.9000, 6291.000
631.0650, 6272.000
632.2300, 6308.000
633.3950, 6257.000
634.5600, 6288.000
635.7240, 6307.000
636.8890, 6332.000
638.0530, 6277.000
639.2170, 6333.000
640.3810, 6372.000
641.5450, 6318.000
642.7080, 6376.000
643.8720, 6352.000
645.0350, 6398.000
646.1980, 6414.000
647.3610, 6463.000
648.5240, 6361.000
649.6870, 6404.000
650.8490, 6403.000
652.0120, 6422.000
653.1740, 6478.000
654.3360, 6450.000
655.4980, 6398.000
656.6600, 6481.000
657.8210, 6429.000
658.9830, 6461.000
660.1440, 6415.000
661.3050, 6508.000
662.4660, 6580.000
663.6270, 6492.000
664.7870, 6504.000
665.9480, 6594.000
667.1080, 6574.000
668.2680, 6610.000
669.4280, 6604.336
670.5880, 6504.000
671.7480, 6567.000
672.9070, 6593.000
674.0670, 6583.000
675.2260, 6651.000
676.3850, 6638.000
677.5440, 6617.000
678.7030, 6730.000
679.8610, 6759.000
681.0200, 6640.000
682.1780, 6877.000
683.3360, 6753.000
684.4940, 6779.000
685.6520, 6724.000
686.8090, 6762.000
687.9670, 6770.000
689.1240, 6794.000
690.2810, 6878.000
691.4380, 6796.000
692.5950, 6831.000
693.7520, 6939.000
694.9080, 6803.000
696.0650, 6782.000
697.2210, 6856.000
698.3770, 7032.000
699.5330, 7008.000
700.6880, 7019.000
701.8440, 7028.000
702.9990, 6986.000
704.1550, 6990.000
705.3100, 6969.000
706.4650, 7029.000
707.6190, 7111.000
708.7740, 7114.000
709.9290, 7044.000
711.0830, 7130.000
712.2370, 7146.000
713.3910, 7191.000
714.5450, 7328.000
715.6980, 7294.085
716.8520, 7334.257
718.0050, 7274.000
719.1580, 7336.000
720.3110, 7289.000
721.4640, 7310.000
722.6170, 7311.000
723.7700, 7347.158
724.9220, 7455.000
726.0740, 7457.000
727.2260, 7538.000
728.3780, 7602.000
729.5300, 7611.923
730.6810, 7620.851
731.8330, 7657.000
732.9840, 7604.000
734.1350, 7627.000
735.2860, 7688.000
736.4370, 7679.000
737.5880, 7811.000
738.7380, 7903.000
739.8880, 7912.000
741.0390, 7909.000
742.1890, 7942.000
743.3380, 8011.000
744.4880, 7997.000
745.6380, 7957.000
746.7870, 8099.000
747.9360, 8264.000
749.0850, 8066.000
750.2340, 8211.000
751.3830, 8124.000
752.5310, 8181.000
753.6800, 8290.000
754.8280, 8275.000
755.9760, 8468.000
757.1240, 8462.784
758.2720, 8593.000
759.4190, 8481.000
760.5670, 8637.000
761.7140, 8560.000
762.8610, 8650.000
764.0080, 8649.000
765.1550, 8670.000
766.3020, 8760.000
767.4480, 8713.000
768.5950, 8745.000
769.7410, 8743.000
770.8870, 8711.000
772.0330, 8767.000
773.1780, 8855.000
774.3240, 8893.000
775.4690, 8932.000
776.6140, 8966.549
777.7590, 8930.000
778.9040, 8981.000
780.0490, 8965.000
781.1940, 8924.000
782.3380, 9031.000
783.4820, 8926.000
784.6260, 9091.000
785.7700, 8919.000
786.9140, 9102.000
788.0580, 8954.000
789.2010, 9047.000
790.3450, 9055.000
791.4880, 8964.000
792.6310, 8993.000
793.7730, 9029.000
794.9160, 9141.000
796.0590, 8997.000
797.2010, 9135.000
798.3430, 9058.000
799.4850, 9110.000
800.6270, 9062.000
801.7690, 9007.000
802.9100, 9122.000
804.0520, 9093.000
805.1930, 9093.000
806.3340, 9128.000
807.4750, 9064.000
808.6160, 9057.000
809.7560, 9175.000
810.8970, 9171.000
812.0370, 9177.000
813.1770, 9249.000
814.3170, 9153.000
815.4570, 9064.000
816.5960, 9197.000
817.7360, 9140.000
818.8750, 9191.000
820.0140, 9199.000
821.1530, 9215.000
822.2920, 9130.000
823.4310, 9268.000
824.5690, 9290.000
825.7070, 9215.000
826.8460, 9322.000
827.9840, 9250.000
829.1220, 9195.000
830.2590, 9238.000
831.3970, 9258.000
832.5340, 9325.000
833.6710, 9251.000
834.8080, 9302.000
835.9450, 9300.000
837.0820, 9349.000
838.2190, 9415.000
839.3550, 9315.000
840.4910, 9386.000
841.6270, 9504.000
842.7630, 9528.000
843.8990, 9646.000
845.0350, 9591.000
846.1700, 9687.000
847.3060, 9714.000
848.4410, 9817.000
849.5760, 9859.287
850.7100, 9936.000
851.8450, 9968.000
852.9800, 10079.00
854.1140, 10160.00
855.2480, 10315.00
856.3820, 10478.00
857.5160, 10651.00
858.6500, 10562.00
859.7830, 10771.00
860.9170, 10823.00
862.0500, 10949.00
863.1830, 11072.32
864.3160, 11176.00
865.4480, 11333.00
866.5810, 11339.00
867.7130, 11559.00
868.8460, 11531.00
869.9780, 11529.00
871.1100, 11271.00
872.2410, 11436.00
873.3730, 11041.00
874.5050, 10931.00
875.6360, 10497.00
876.7670, 10274.00
877.8980, 9784.000
879.0290, 9523.000
880.1590, 9045.000
881.2900, 8660.000
882.4200, 8417.000
883.5500, 8112.000
884.6800, 7919.000
885.8100, 7693.594
886.9400, 7551.000
888.0690, 7288.000
889.1990, 7166.000
890.3280, 6934.000
891.4570, 6812.547
892.5860, 6678.662
893.7140, 6630.000
894.8430, 6471.000
895.9710, 6478.000
897.1000, 6442.000
898.2280, 6348.000
899.3560, 6306.000
900.4830, 6320.000
901.6110, 6173.000
902.7380, 6254.000
903.8660, 6076.000
904.9930, 6161.000
906.1200, 6179.000
907.2460, 6121.000
908.3730, 6010.000
909.5000, 6058.000
910.6260, 6032.000
911.7520, 6002.000
912.8780, 6042.000
914.0040, 5959.000
915.1290, 5944.000
916.2550, 5905.000
917.3800, 5893.898
918.5050, 5893.215
919.6300, 5912.000
920.7550, 5901.000
921.8800, 5934.000
923.0040, 5929.000
924.1290, 5995.000
925.2530, 5911.000
926.3770, 5860.000
927.5010, 5938.000
928.6250, 5858.000
929.7480, 5872.000
930.8720, 5781.000
931.9950, 5782.000
933.1180, 5820.000
934.2410, 5876.000
935.3640, 5924.000
936.4860, 5823.000
937.6090, 5870.000
938.7310, 5817.000
939.8530, 5899.000
940.9750, 5819.000
942.0970, 5790.000
943.2180, 5871.000
944.3400, 5816.000
945.4610, 5819.000
946.5820, 5850.000
947.7030, 5817.000
948.8240, 5758.000
949.9450, 5820.000
951.0650, 5865.000
952.1860, 5796.137
953.3060, 5901.000
954.4260, 5862.074
955.5460, 5838.000
956.6650, 5838.000
957.7850, 5828.000
958.9040, 5802.000
960.0230, 5810.421
961.1420, 5793.536
962.2610, 5822.000
963.3800, 5798.000
964.4990, 5820.000
965.6170, 5870.000
966.7350, 5884.000
967.8530, 5795.000
968.9710, 5873.000
970.0890, 5896.000
971.2070, 5801.000
972.3240, 5896.000
973.4410, 5838.000
974.5580, 5866.000
975.6750, 5774.000
976.7920, 5936.000
977.9090, 5941.000
979.0250, 5969.000
980.1410, 5957.000
981.2580, 5897.000
982.3740, 5939.000
983.4890, 5971.000
984.6050, 5866.000
985.7200, 5947.000
986.8360, 6045.000
987.9510, 5937.000
989.0660, 5976.000
990.1810, 5957.000
991.2950, 5977.000
992.4100, 5944.000
993.5240, 6028.000
994.6390, 6036.000
995.7530, 6002.000
996.8660, 6020.000
997.9800, 5944.000
999.0940, 6050.000
1000.207, 6056.000
1001.320, 6037.000
1002.433, 5972.000
1003.546, 5891.000
1004.659, 6008.000
1005.772, 5925.000
1006.884, 6052.000
1007.996, 6039.657
1009.108, 6025.210
1010.220, 6030.000
1011.332, 6017.000
1012.444, 5957.000
1013.555, 5991.000
1014.666, 5887.000
1015.777, 5966.000
1016.888, 5890.000
1017.999, 5986.000
1019.110, 5914.000
1020.220, 5998.000
1021.331, 5961.000
1022.441, 6040.000
1023.551, 5919.000
1024.661, 5957.000
1025.770, 6017.000
1026.880, 5984.597
1027.989, 6012.707
1029.098, 6062.000
1030.207, 5969.000
1031.316, 6079.000
1032.425, 5985.000
1033.533, 6020.000
1034.642, 5891.000
1035.750, 6082.000
1036.858, 6110.000
1037.966, 5985.000
1039.073, 6053.000
1040.181, 6070.000
1041.288, 6111.000
1042.396, 6026.000
1043.503, 5947.000
1044.610, 5949.000
1045.716, 5941.000
1046.823, 6047.000
1047.929, 6016.000
1049.036, 6052.000
1050.142, 6009.000
1051.248, 6021.000
1052.353, 5957.000
1053.459, 6245.000
1054.564, 6120.822
1055.670, 6195.000
1056.775, 6025.000
1057.880, 6117.000
1058.985, 5989.000
1060.089, 6134.000
1061.194, 6093.000
1062.298, 6109.000
1063.402, 6154.000
1064.506, 6093.000
1065.610, 6063.000
1066.713, 6118.000
1067.817, 6070.000
1068.920, 6162.000
1070.023, 6135.000
1071.126, 6053.000
1072.229, 6081.000
1073.332, 6009.000
1074.435, 6100.000
1075.537, 6068.000
1076.639, 6079.159
1077.741, 6089.000
1078.843, 6089.000
1079.945, 6126.000
1081.046, 6112.000
1082.148, 6089.000
1083.249, 6057.000
1084.350, 5986.000
1085.451, 6107.000
1086.551, 6173.000
1087.652, 6061.000
1088.752, 6015.000
1089.853, 6106.000
1090.953, 6015.000
1092.053, 5998.000
1093.152, 6016.000
1094.252, 6085.000
1095.351, 5994.000
1096.451, 6112.000
1097.550, 5909.000
1098.649, 6044.000
1099.748, 6013.000
1100.846, 6038.000
1101.945, 6034.000
1103.043, 5983.000
1104.141, 6048.000
1105.239, 6118.000
1106.337, 6018.000
1107.434, 6018.000
1108.532, 6072.000
1109.629, 5881.327
1110.726, 5964.548
1111.823, 6013.059
1112.920, 6028.725
1114.017, 5913.170
1115.113, 5967.056
1116.210, 5953.040
1117.306, 5936.235
1118.402, 6013.969
1119.498, 5917.497
1120.593, 5993.728
1121.689, 6001.021
1122.784, 6039.864
1123.879, 6010.381
1124.974, 6002.002
1126.069, 6061.969
1127.164, 6084.093
1128.259, 6046.746
1129.353, 6087.590
1130.447, 5988.724
1131.541, 6012.456
1132.635, 6089.083
1133.729, 5983.000
1134.822, 5906.000
1135.916, 5985.000
1137.009, 5954.000
1138.102, 5941.075
1139.195, 5949.000
1140.288, 5934.000
1141.380, 5939.691
1142.473, 5906.000
1143.565, 5943.000
1144.657, 5898.000
1145.749, 5886.000
1146.841, 5918.146
1147.932, 5991.251
1149.024, 6029.640
1150.115, 6035.191
1151.206, 5909.521
1152.297, 5953.294
1153.388, 5929.163
1154.479, 5902.247
1155.569, 5969.875
1156.659, 5863.295
1157.750, 5929.418
1158.839, 5926.611
1159.929, 5955.352
1161.019, 5915.767
1162.108, 5897.291
1163.198, 5947.156
1164.287, 5918.000
1165.376, 5885.656
1166.465, 5878.000
1167.553, 5823.000
1168.642, 5952.000
1169.730, 5904.000
1170.818, 5870.000
1171.906, 5890.000
1172.994, 5819.000
1174.082, 5824.500
1175.170, 5840.000
1176.257, 5822.000
1177.344, 5824.000
1178.431, 5870.000
1179.518, 5931.000
1180.605, 5864.000
1181.691, 5905.000
1182.778, 5925.000
1183.864, 5888.000
1184.950, 5914.000
1186.036, 5927.000
1187.122, 5852.000
1188.207, 5808.000
1189.292, 5810.329
1190.378, 5967.000
1191.463, 5833.000
1192.548, 5869.000
1193.632, 5957.000
1194.717, 5901.000
1195.801, 5902.000
1196.886, 5879.000
1197.970, 5956.000
1199.054, 5923.000
1200.137, 5937.000
1201.221, 5906.000
1202.305, 5945.000
1203.388, 5953.405
1204.471, 5960.507
1205.554, 5966.000
1206.637, 5976.000
1207.719, 5904.000
1208.802, 5873.000
1209.884, 5917.000
1210.966, 5927.000
1212.048, 5835.000
1213.130, 5963.000
1214.212, 5842.000
1215.293, 5948.000
1216.374, 6001.000
1217.456, 5952.000
1218.536, 5876.000
1219.617, 5941.000
1220.698, 5910.000
1221.778, 5929.000
1222.859, 6015.000
1223.939, 6036.000
1225.019, 6041.000
1226.099, 5968.000
1227.178, 5907.000
1228.258, 5989.000
1229.337, 5944.000
1230.417, 5991.000
1231.496, 6050.000
1232.574, 6024.675
1233.653, 6056.788
1234.732, 6010.000
1235.810, 6028.000
1236.888, 5988.000
1237.966, 5902.000
1239.044, 5979.000
1240.122, 5954.000
1241.199, 6029.000
1242.277, 6015.000
1243.354, 5976.000
1244.431, 6116.000
1245.508, 5967.000
1246.585, 6052.000
1247.661, 6082.000
1248.738, 5933.000
1249.814, 5934.000
1250.890, 6002.000
1251.966, 5976.000
1253.042, 6049.000
1254.117, 6050.000
1255.193, 6075.000
1256.268, 5999.000
1257.343, 6060.000
1258.418, 6022.000
1259.493, 6095.000
1260.567, 6041.000
1261.642, 5985.000
1262.716, 5975.000
1263.790, 5962.339
1264.864, 6081.000
1265.938, 5989.000
1267.011, 6080.000
1268.085, 6118.000
1269.158, 6108.000
1270.231, 5995.000
1271.304, 6124.000
1272.377, 6106.000
1273.450, 6033.000
1274.522, 6086.000
1275.594, 6039.000
1276.666, 6109.000
1277.738, 6129.466
1278.810, 6225.000
1279.882, 6189.000
1280.953, 6129.000
1282.025, 6111.000
1283.096, 6114.000
1284.167, 6100.133
1285.238, 6106.384
1286.308, 6117.000
1287.379, 6132.000
1288.449, 6141.000
1289.519, 6177.000
1290.589, 6246.000
1291.659, 6117.000
1292.729, 6107.000
1293.798, 6214.000
1294.868, 6117.000
1295.937, 6321.000
1297.006, 6147.000
1298.075, 6189.000
1299.143, 6248.000
1300.212, 6129.000
1301.280, 6081.000
1302.348, 6222.000
1303.416, 6214.000
1304.484, 6197.000
1305.552, 6121.000
1306.620, 6236.000
1307.687, 6338.000
1308.754, 6161.000
1309.821, 6129.000
1310.888, 6173.000
1311.955, 6220.000
1313.021, 6308.000
1314.088, 6212.000
1315.154, 6180.000
1316.220, 6258.000
1317.286, 6244.000
1318.352, 6255.000
1319.417, 6314.000
1320.483, 6325.000
1321.548, 6275.000
1322.613, 6211.000
1323.678, 6362.000
1324.743, 6310.000
1325.807, 6321.000
1326.872, 6292.000
1327.936, 6284.000
1329.000, 6324.000
1330.064, 6316.000
1331.128, 6356.000
1332.191, 6359.034
1333.255, 6307.000
1334.318, 6337.000
1335.381, 6340.000
1336.444, 6351.853
1337.507, 6370.833
1338.569, 6395.000
1339.632, 6403.243
1340.694, 6400.372
1341.756, 6419.000
1342.818, 6397.338
1343.880, 6392.354
1344.941, 6362.000
1346.003, 6373.000
1347.064, 6367.000
1348.125, 6384.000
1349.186, 6379.000
1350.247, 6338.000
1351.308, 6354.042
1352.368, 6430.972
1353.428, 6473.191
1354.489, 6482.563
1355.549, 6360.718
1356.608, 6408.317
1357.668, 6388.010
1358.727, 6364.920
1359.787, 6436.367
1360.846, 6333.609
1361.905, 6403.558
1362.964, 6404.566
1364.022, 6437.128
1365.081, 6401.365
1366.139, 6386.706
1367.197, 6440.394
1368.255, 6492.000
1369.313, 6475.000
1370.371, 6359.000
1371.428, 6490.000
1372.486, 6416.000
1373.543, 6438.000
1374.600, 6468.000
1375.657, 6435.000
1376.713, 6455.000
1377.770, 6434.000
1378.826, 6500.000
1379.882, 6457.000
1380.938, 6493.097
1381.994, 6391.000
1383.050, 6535.000
1384.106, 6475.000
1385.161, 6489.000
1386.216, 6539.000
1387.271, 6428.000
1388.326, 6526.000
1389.381, 6419.000
1390.435, 6484.000
1391.490, 6467.369
1392.544, 6485.720
1393.598, 6447.000
1394.652, 6538.000
1395.705, 6535.000
1396.759, 6500.000
1397.812, 6501.000
1398.866, 6491.000
1399.919, 6555.000
1400.972, 6548.441
1402.024, 6554.856
1403.077, 6547.000
1404.129, 6614.000
1405.181, 6539.000
1406.233, 6699.000
1407.285, 6563.000
1408.337, 6515.000
1409.389, 6555.000
1410.440, 6369.000
1411.491, 6667.000
1412.542, 6529.000
1413.593, 6477.000
1414.644, 6559.000
1415.695, 6524.000
1416.745, 6594.000
1417.795, 6591.000
1418.845, 6482.000
1419.895, 6637.000
1420.945, 6507.000
1421.995, 6475.000
1423.044, 6615.000
1424.093, 6473.000
1425.142, 6589.000
1426.191, 6469.000
1427.240, 6500.285
1428.289, 6578.146
1429.337, 6621.297
1430.385, 6631.603
1431.433, 6510.689
1432.481, 6559.219
1433.529, 6539.843
1434.577, 6517.684
1435.624, 6590.063
1436.672, 6488.235
1437.719, 6559.115
1438.766, 6571.000
1439.812, 6587.000
1440.859, 6589.000
1441.905, 6613.014
1442.952, 6615.706
1443.998, 6645.000
1445.044, 6639.000
1446.090, 6613.000
1447.135, 6645.000
1448.181, 6577.000
1449.226, 6617.000
1450.271, 6678.000
1451.316, 6670.000
1452.361, 6661.000
1453.405, 6646.137
1454.450, 6674.677
1455.494, 6565.000
1456.538, 6702.000
1457.582, 6670.000
1458.626, 6605.000
1459.670, 6695.000
1460.713, 6630.000
1461.757, 6640.000
1462.800, 6727.000
1463.843, 6717.000
1464.886, 6613.000
1465.928, 6775.000
1466.971, 6575.000
1468.013, 6727.000
1469.055, 6689.000
1470.097, 6683.000
1471.139, 6707.000
1472.181, 6686.497
1473.222, 6641.000
1474.263, 6725.000
1475.305, 6711.000
1476.346, 6814.000
1477.386, 6633.000
1478.427, 6761.000
1479.468, 6646.000
1480.508, 6748.000
1481.548, 6697.000
1482.588, 6660.000
1483.628, 6810.000
1484.668, 6740.000
1485.707, 6775.000
1486.747, 6778.000
1487.786, 6686.000
1488.825, 6702.000
1489.864, 6730.000
1490.902, 6699.000
1491.941, 6737.000
1492.979, 6893.000
1494.017, 6816.000
1495.055, 6842.000
1496.093, 6859.000
1497.131, 6768.000
1498.168, 6749.000
1499.206, 6796.000
1500.243, 6774.134
1501.280, 6824.410
1502.317, 6847.000
1503.354, 6870.000
1504.390, 6950.000
1505.426, 6871.000
1506.463, 6790.000
1507.499, 6897.000
1508.535, 6870.000
1509.570, 6879.000
1510.606, 6917.000
1511.641, 6874.000
1512.676, 6902.000
1513.711, 6933.000
1514.746, 6790.000
1515.781, 6938.000
1516.816, 6860.000
1517.850, 7011.000
1518.884, 6957.000
1519.918, 6995.000
1520.952, 7007.000
1521.986, 7007.000
1523.019, 6985.000
1524.053, 7068.000
1525.086, 6995.000
1526.119, 6930.000
1527.152, 6966.000
1528.185, 7121.000
1529.217, 7048.000
1530.250, 7002.000
1531.282, 7063.827
1532.314, 7077.375
1533.346, 7026.000
1534.377, 7105.785
1535.409, 7188.060
1536.440, 7235.621
1537.472, 7250.340
1538.503, 7133.836
1539.534, 7186.776
1540.564, 7171.807
1541.595, 7154.057
1542.625, 7230.842
1543.656, 7133.424
1544.686, 7208.709
1545.716, 7215.053
1546.745, 7252.947
1547.775, 7222.520
1548.804, 7213.192
1549.834, 7272.215
1550.863, 7293.390
1551.892, 7255.094
1552.920, 7294.991
1553.949, 7195.180
1554.977, 7217.964
1556.006, 7293.646
1557.034, 7258.783
1558.062, 7299.929
1559.089, 7312.124
1560.117, 7192.762
1561.144, 7302.191
1562.172, 7312.678
1563.199, 7281.000
1564.226, 7334.000
1565.252, 7239.000
1566.279, 7345.000
1567.305, 7275.000
1568.332, 7289.000
1569.358, 7375.000
1570.384, 7375.000
1571.409, 7380.000
##END=



