##NAMES=Columbite-(Fe)
##RRUFFID=R050348
##IDEAL CHEMISTRY=Fe^2+^Nb^5+^_2_O_6_
##LOCALITY=Lord Hill mine, Stoneham, Oxford County, Maine, USA
##OWNER=RRUFF
##SOURCE=California Institute of Technology
##DESCRIPTION=Black fragment
##STATUS=The identification of this mineral has been confirmed by X-ray diffraction and chemical analysis
##URL=rruff.info/R050348
##MEASURED CHEMISTRY=(Fe^2+^_0.69_Mn^2+^_0.30_Ti_0.01_)(Nb_0.89_Ta_0.10_Ti_0.01_)_2_O_6_
##PIN_ID=L01882
##ORIENTATION=Laser parallel to -a* (-1 0 0). Fiducial mark perpendicular to laser is parallel to b [0 1 0]
221.0220, 12220.00
222.2400, 12259.00
223.4590, 12283.00
224.6770, 12193.00
225.8950, 12375.00
227.1120, 12384.00
228.3300, 12321.00
229.5480, 12470.00
230.7650, 12608.00
231.9820, 12638.00
233.1990, 12769.00
234.4160, 12779.00
235.6330, 12964.00
236.8490, 13029.00
238.0660, 12965.00
239.2820, 13253.00
240.4980, 13236.00
241.7140, 13463.00
242.9300, 13468.20
244.1460, 13541.00
245.3610, 13431.00
246.5770, 13580.00
247.7920, 13509.00
249.0070, 13582.00
250.2220, 13557.86
251.4370, 13666.87
252.6510, 13741.14
253.8660, 13782.59
255.0800, 13692.79
256.2940, 13772.44
257.5080, 13784.19
258.7220, 13793.15
259.9360, 13896.64
261.1490, 13825.91
262.3630, 13927.91
263.5760, 13960.94
264.7890, 13871.00
266.0020, 13861.00
267.2150, 13697.00
268.4270, 13679.75
269.6400, 13637.24
270.8520, 13556.00
272.0640, 13634.00
273.2760, 13540.00
274.4880, 13629.00
275.7000, 13802.00
276.9120, 13555.00
278.1230, 13616.00
279.3340, 13395.00
280.5450, 13183.00
281.7560, 13300.00
282.9670, 13161.42
284.1780, 13170.49
285.3880, 13144.90
286.5980, 13086.47
287.8090, 12896.76
289.0190, 12876.54
290.2290, 12788.43
291.4380, 12697.59
292.6480, 12701.23
293.8570, 12530.72
295.0670, 12532.86
296.2760, 12466.12
297.4850, 12430.93
298.6930, 12327.47
299.9020, 12302.00
301.1110, 12423.00
302.3190, 12122.00
303.5270, 12234.00
304.7350, 12099.00
305.9430, 12033.00
307.1510, 11961.00
308.3580, 11907.55
309.5660, 11916.00
310.7730, 11896.00
311.9800, 11846.00
313.1870, 11854.30
314.3940, 11885.00
315.6010, 11820.00
316.8070, 11815.69
318.0130, 11762.70
319.2200, 11693.00
320.4260, 11670.00
321.6310, 11573.00
322.8370, 11451.00
324.0430, 11412.00
325.2480, 11346.55
326.4540, 11332.22
327.6590, 11279.00
328.8640, 11357.00
330.0680, 11342.00
331.2730, 11377.00
332.4780, 11501.00
333.6820, 11721.00
334.8860, 11052.00
336.0900, 11359.00
337.2940, 10999.00
338.4980, 11148.00
339.7010, 11286.00
340.9050, 11206.00
342.1080, 11186.00
343.3110, 11169.00
344.5140, 11118.00
345.7170, 11199.00
346.9200, 11203.00
348.1220, 11193.00
349.3240, 11295.00
350.5270, 11218.00
351.7290, 11208.00
352.9310, 11315.00
354.1320, 11254.00
355.3340, 11296.00
356.5350, 11319.00
357.7370, 11377.00
358.9380, 11401.00
360.1390, 11314.00
361.3400, 11683.00
362.5400, 11361.00
363.7410, 11211.00
364.9410, 11429.00
366.1410, 11258.00
367.3410, 11371.00
368.5410, 11472.00
369.7410, 11496.00
370.9400, 11451.00
372.1400, 11586.00
373.3390, 11567.00
374.5380, 11492.00
375.7370, 11503.00
376.9360, 11607.00
378.1350, 11499.00
379.3330, 11727.00
380.5310, 11729.00
381.7300, 11732.08
382.9280, 12000.00
384.1260, 11718.00
385.3230, 11910.00
386.5210, 11876.00
387.7180, 11947.00
388.9160, 11876.00
390.1130, 11907.93
391.3100, 12073.00
392.5060, 11905.00
393.7030, 11988.00
394.9000, 11946.00
396.0960, 11872.00
397.2920, 11793.00
398.4880, 11938.00
399.6840, 11840.00
400.8800, 11840.00
402.0750, 11794.00
403.2710, 11729.00
404.4660, 11737.89
405.6610, 11514.00
406.8560, 11649.00
408.0510, 11522.00
409.2450, 11305.00
410.4400, 11194.00
411.6340, 11428.00
412.8280, 11126.00
414.0220, 11514.00
415.2160, 11520.00
416.4100, 11114.00
417.6030, 11028.00
418.7970, 11070.00
419.9900, 11118.00
421.1830, 11080.00
422.3760, 11047.00
423.5690, 11148.00
424.7610, 11096.00
425.9540, 11096.29
427.1460, 11004.00
428.3380, 11054.00
429.5300, 11044.00
430.7220, 11038.00
431.9140, 11456.00
433.1050, 11064.00
434.2970, 11278.00
435.4880, 11040.00
436.6790, 11253.00
437.8700, 11202.00
439.0610, 11184.00
440.2510, 11215.00
441.4420, 11159.00
442.6320, 11127.00
443.8220, 11194.00
445.0120, 11260.00
446.2020, 11347.00
447.3910, 11105.00
448.5810, 11375.00
449.7700, 11196.00
450.9600, 11319.00
452.1490, 11271.00
453.3370, 11388.00
454.5260, 11278.00
455.7150, 11308.00
456.9030, 11385.00
458.0910, 11457.00
459.2800, 11371.00
460.4670, 11337.00
461.6550, 11384.00
462.8430, 11322.00
464.0300, 11500.00
465.2180, 11357.00
466.4050, 11490.00
467.5920, 11438.00
468.7790, 11472.00
469.9650, 11617.00
471.1520, 11505.00
472.3380, 11616.00
473.5250, 11495.00
474.7110, 11424.00
475.8970, 11522.00
477.0820, 11469.03
478.2680, 11547.86
479.4540, 11591.99
480.6390, 11603.27
481.8240, 11483.33
483.0090, 11532.83
484.1940, 11514.42
485.3780, 11493.24
486.5630, 11566.59
487.7470, 11465.74
488.9320, 11537.59
490.1160, 11540.50
491.3000, 11574.96
492.4830, 11541.10
493.6670, 11528.34
494.8500, 11583.93
496.0340, 11601.68
497.2170, 11559.96
498.4000, 11596.42
499.5820, 11493.18
500.7650, 11512.54
501.9480, 11584.80
503.1300, 11546.51
504.3120, 11417.00
505.4940, 11477.00
506.6760, 11586.00
507.8580, 11578.00
509.0390, 11653.00
510.2210, 11486.00
511.4020, 11659.00
512.5830, 11629.00
513.7640, 11772.00
514.9450, 11703.00
516.1250, 11801.17
517.3060, 12065.00
518.4860, 11965.00
519.6660, 11935.00
520.8460, 12052.00
522.0260, 11985.00
523.2060, 12031.65
524.3850, 12085.00
525.5650, 12060.00
526.7440, 12103.00
527.9230, 12100.00
529.1020, 12106.38
530.2810, 12041.00
531.4590, 12095.00
532.6380, 12135.00
533.8160, 12076.00
534.9940, 11977.00
536.1720, 11984.00
537.3500, 11957.00
538.5270, 11989.00
539.7050, 12005.00
540.8820, 11987.00
542.0590, 11975.89
543.2360, 11921.00
544.4130, 11884.00
545.5900, 11860.00
546.7660, 11818.92
547.9430, 11777.00
549.1190, 11773.00
550.2950, 11769.00
551.4710, 11782.00
552.6470, 11770.00
553.8220, 11677.00
554.9980, 11727.00
556.1730, 11842.00
557.3480, 11723.00
558.5230, 11830.00
559.6980, 11802.00
560.8730, 11759.00
562.0470, 11689.00
563.2220, 11922.00
564.3960, 11925.00
565.5700, 11860.00
566.7440, 11789.00
567.9170, 11791.00
569.0910, 11767.00
570.2640, 11745.00
571.4380, 11779.59
572.6110, 11921.00
573.7840, 11789.00
574.9570, 11836.00
576.1290, 11716.00
577.3020, 11903.00
578.4740, 11821.96
579.6460, 11814.14
580.8180, 11842.00
581.9900, 11685.00
583.1620, 11804.00
584.3330, 11601.00
585.5040, 11835.00
586.6760, 11956.00
587.8470, 11813.00
589.0180, 11720.00
590.1880, 11896.00
591.3590, 11842.00
592.5290, 11818.00
593.7000, 11715.00
594.8700, 11740.00
596.0400, 11787.00
597.2090, 11926.00
598.3790, 11917.00
599.5490, 11814.00
600.7180, 11960.00
601.8870, 11950.00
603.0560, 12035.00
604.2250, 11966.00
605.3940, 12002.00
606.5620, 11969.00
607.7300, 12024.00
608.8990, 11972.00
610.0670, 11989.00
611.2350, 12003.00
612.4020, 11985.00
613.5700, 12059.00
614.7370, 11976.00
615.9050, 12050.00
617.0720, 12172.00
618.2390, 12210.00
619.4060, 12050.00
620.5720, 11950.00
621.7390, 12154.00
622.9050, 12054.00
624.0710, 12154.00
625.2370, 12176.00
626.4030, 12132.00
627.5690, 12098.00
628.7340, 12225.00
629.9000, 12213.00
631.0650, 12174.00
632.2300, 12107.00
633.3950, 12304.00
634.5600, 12211.00
635.7240, 12290.00
636.8890, 12178.00
638.0530, 12293.00
639.2170, 12164.00
640.3810, 12180.00
641.5450, 12233.00
642.7080, 12344.00
643.8720, 12196.00
645.0350, 12297.00
646.1980, 12276.00
647.3610, 12251.00
648.5240, 12093.00
649.6870, 12219.00
650.8490, 12150.00
652.0120, 12141.00
653.1740, 12230.00
654.3360, 12365.00
655.4980, 12241.00
656.6600, 12183.00
657.8210, 12087.00
658.9830, 12088.00
660.1440, 12213.00
661.3050, 12141.00
662.4660, 12153.93
663.6270, 12292.00
664.7870, 12048.00
665.9480, 12303.00
667.1080, 12188.00
668.2680, 12058.00
669.4280, 12102.00
670.5880, 12000.00
671.7480, 12076.00
672.9070, 12087.00
674.0670, 12147.00
675.2260, 12083.00
676.3850, 12151.00
677.5440, 12142.00
678.7030, 12203.00
679.8610, 12182.00
681.0200, 12222.00
682.1780, 12146.00
683.3360, 12136.00
684.4940, 12130.00
685.6520, 12142.00
686.8090, 12041.00
687.9670, 12052.00
689.1240, 12131.00
690.2810, 12127.00
691.4380, 12226.00
692.5950, 12237.00
693.7520, 12267.00
694.9080, 12176.00
696.0650, 12322.00
697.2210, 12221.00
698.3770, 12274.00
699.5330, 12236.00
700.6880, 12331.00
701.8440, 12300.00
702.9990, 12398.00
704.1550, 12406.00
705.3100, 12347.00
706.4650, 12374.00
707.6190, 12435.00
708.7740, 12402.00
709.9290, 12493.00
711.0830, 12420.00
712.2370, 12360.00
713.3910, 12444.55
714.5450, 12546.00
715.6980, 12530.00
716.8520, 12612.00
718.0050, 12606.00
719.1580, 12750.00
720.3110, 12775.00
721.4640, 12614.00
722.6170, 12808.00
723.7700, 12725.00
724.9220, 12835.00
726.0740, 12812.00
727.2260, 12954.00
728.3780, 12942.00
729.5300, 13055.00
730.6810, 13006.00
731.8330, 13068.00
732.9840, 13195.00
734.1350, 13067.00
735.2860, 13255.00
736.4370, 13519.00
737.5880, 13430.00
738.7380, 13237.00
739.8880, 13423.00
741.0390, 13405.00
742.1890, 13531.00
743.3380, 13570.00
744.4880, 13634.00
745.6380, 13637.00
746.7870, 13657.12
747.9360, 13780.00
749.0850, 13650.00
750.2340, 13843.00
751.3830, 13839.00
752.5310, 13863.00
753.6800, 13910.00
754.8280, 13920.00
755.9760, 13912.00
757.1240, 13985.61
758.2720, 14246.00
759.4190, 14133.00
760.5670, 14161.00
761.7140, 14279.00
762.8610, 14214.00
764.0080, 14354.00
765.1550, 14355.00
766.3020, 14452.00
767.4480, 14556.00
768.5950, 14478.00
769.7410, 14533.00
770.8870, 14584.00
772.0330, 14566.00
773.1780, 14576.00
774.3240, 14661.00
775.4690, 14714.00
776.6140, 14684.00
777.7590, 14610.00
778.9040, 14759.00
780.0490, 14750.00
781.1940, 14854.00
782.3380, 14634.00
783.4820, 15025.00
784.6260, 14860.00
785.7700, 15015.00
786.9140, 14877.00
788.0580, 15027.00
789.2010, 14914.00
790.3450, 14985.00
791.4880, 15040.05
792.6310, 15042.00
793.7730, 15137.00
794.9160, 15063.00
796.0590, 15065.00
797.2010, 15067.00
798.3430, 15161.00
799.4850, 15311.00
800.6270, 15213.00
801.7690, 15104.00
802.9100, 15220.00
804.0520, 15285.00
805.1930, 15354.00
806.3340, 15316.00
807.4750, 15470.00
808.6160, 15597.00
809.7560, 15448.00
810.8970, 15603.00
812.0370, 15656.00
813.1770, 15869.00
814.3170, 15770.00
815.4570, 15939.00
816.5960, 15988.00
817.7360, 15950.00
818.8750, 16125.00
820.0140, 16161.00
821.1530, 16307.00
822.2920, 16333.00
823.4310, 16340.00
824.5690, 16535.00
825.7070, 16634.00
826.8460, 16608.00
827.9840, 16764.00
829.1220, 16919.00
830.2590, 16842.00
831.3970, 16978.00
832.5340, 16890.00
833.6710, 17281.00
834.8080, 17229.00
835.9450, 17466.00
837.0820, 17474.00
838.2190, 17824.00
839.3550, 19070.00
840.4910, 18165.00
841.6270, 18098.00
842.7630, 19938.00
843.8990, 18741.00
845.0350, 18973.00
846.1700, 19038.00
847.3060, 19483.00
848.4410, 19794.00
849.5760, 20220.00
850.7100, 20645.00
851.8450, 21005.00
852.9800, 21539.00
854.1140, 21913.00
855.2480, 22524.00
856.3820, 23180.00
857.5160, 23737.00
858.6500, 24108.00
859.7830, 24954.00
860.9170, 25689.00
862.0500, 26201.00
863.1830, 27097.00
864.3160, 28196.00
865.4480, 28639.00
866.5810, 29310.00
867.7130, 29817.00
868.8460, 30081.00
869.9780, 30005.00
871.1100, 30213.00
872.2410, 30029.00
873.3730, 29127.00
874.5050, 28592.00
875.6360, 27582.00
876.7670, 26191.00
877.8980, 25098.00
879.0290, 23516.00
880.1590, 22141.00
881.2900, 20556.00
882.4200, 19296.00
883.5500, 17883.00
884.6800, 16870.00
885.8100, 15821.00
886.9400, 15083.00
888.0690, 14430.00
889.1990, 13690.00
890.3280, 13211.00
891.4570, 12791.00
892.5860, 12429.00
893.7140, 12084.00
894.8430, 11876.00
895.9710, 11462.00
897.1000, 11342.00
898.2280, 11162.00
899.3560, 10897.00
900.4830, 10865.00
901.6110, 10644.00
902.7380, 10439.00
903.8660, 10322.00
904.9930, 10332.00
906.1200, 10178.00
907.2460, 10070.00
908.3730, 10104.00
909.5000, 9979.000
910.6260, 9945.000
911.7520, 9861.000
912.8780, 9780.000
914.0040, 9648.000
915.1290, 9695.000
916.2550, 9637.000
917.3800, 9545.000
918.5050, 9555.000
919.6300, 9503.000
920.7550, 9437.000
921.8800, 9414.276
923.0040, 9292.000
924.1290, 9332.000
925.2530, 9325.000
926.3770, 9303.000
927.5010, 9392.000
928.6250, 9345.000
929.7480, 9319.000
930.8720, 9282.000
931.9950, 9243.000
933.1180, 9178.000
934.2410, 9296.000
935.3640, 9081.000
936.4860, 9126.000
937.6090, 9114.000
938.7310, 8949.000
939.8530, 8913.079
940.9750, 8978.200
942.0970, 9008.609
943.2180, 9006.186
944.3400, 8872.530
945.4610, 8908.331
946.5820, 8876.227
947.7030, 8841.337
948.8240, 8900.985
949.9450, 8786.429
951.0650, 8844.591
952.1860, 8833.799
953.3060, 8854.572
954.4260, 8807.021
955.5460, 8780.574
956.6650, 8822.486
957.7850, 8753.000
958.9040, 8725.000
960.0230, 8672.000
961.1420, 8753.000
962.2610, 8732.000
963.3800, 8619.000
964.4990, 8791.000
965.6170, 8687.000
966.7350, 8741.000
967.8530, 8632.661
968.9710, 8726.188
970.0890, 8785.004
971.2070, 8810.975
972.3240, 8705.713
973.4410, 8769.895
974.5580, 8766.172
975.6750, 8759.663
976.7920, 8847.693
977.9090, 8761.518
979.0250, 8848.035
980.1410, 8865.611
981.2580, 8831.000
982.3740, 8909.000
983.4890, 8916.000
984.6050, 8810.000
985.7200, 8946.000
986.8360, 8954.000
987.9510, 9046.000
989.0660, 9053.000
990.1810, 8989.000
991.2950, 8980.000
992.4100, 8903.000
993.5240, 8859.000
994.6390, 8977.000
995.7530, 9064.000
996.8660, 8975.000
997.9800, 8982.000
999.0940, 8904.000
1000.207, 8803.204
1001.320, 8865.220
1002.433, 8892.525
1003.546, 8886.985
1004.659, 8750.227
1005.772, 8782.911
1006.884, 8747.705
1007.996, 8709.716
1009.108, 8766.264
1010.220, 8648.606
1011.332, 8703.656
1012.444, 8689.764
1013.555, 8707.439
1014.666, 8737.000
1015.777, 8694.000
1016.888, 8746.000
1017.999, 8627.000
1019.110, 8644.000
1020.220, 8764.000
1021.331, 8640.000
1022.441, 8657.000
1023.551, 8736.000
1024.661, 8696.000
1025.770, 8647.000
1026.880, 8602.000
1027.989, 8737.000
1029.098, 8623.000
1030.207, 8666.000
1031.316, 8578.000
1032.425, 8569.548
1033.533, 8645.361
1034.642, 8686.462
1035.750, 8694.721
1036.858, 8571.759
1037.966, 8618.240
1039.073, 8596.820
1040.181, 8572.612
1041.288, 8642.945
1042.396, 8539.069
1043.503, 8607.903
1044.610, 8607.796
1045.716, 8639.244
1046.823, 8602.365
1047.929, 8586.593
1049.036, 8639.163
1050.142, 8653.893
1051.248, 8609.151
1052.353, 8749.000
1053.459, 8673.000
1054.564, 8515.000
1055.670, 8740.000
1056.775, 8622.613
1057.880, 8700.000
1058.985, 8625.000
1060.089, 8638.000
1061.194, 8636.000
1062.298, 8700.000
1063.402, 8642.000
1064.506, 8717.000
1065.610, 8653.000
1066.713, 8585.000
1067.817, 8671.000
1068.920, 8627.000
1070.023, 8653.000
1071.126, 8696.000
1072.229, 8611.000
1073.332, 8726.000
1074.435, 8612.000
1075.537, 8727.000
1076.639, 8552.000
1077.741, 8638.000
1078.843, 8661.000
1079.945, 8645.000
1081.046, 8525.000
1082.148, 8601.000
1083.249, 8512.000
1084.350, 8624.000
1085.451, 8553.830
1086.551, 8526.000
1087.652, 8468.000
1088.752, 8543.000
1089.853, 8534.000
1090.953, 8492.000
1092.053, 8481.000
1093.152, 8459.000
1094.252, 8498.000
1095.351, 8495.000
1096.451, 8524.000
1097.550, 8504.000
1098.649, 8461.000
1099.748, 8486.000
1100.846, 8615.000
1101.945, 8555.502
1103.043, 8551.000
1104.141, 8532.000
1105.239, 8480.000
1106.337, 8453.000
1107.434, 8387.856
1108.532, 8457.726
1109.629, 8492.893
1110.726, 8495.216
1111.823, 8366.318
1112.920, 8406.863
1114.017, 8379.505
1115.113, 8349.369
1116.210, 8413.764
1117.306, 8303.960
1118.402, 8366.863
1119.498, 8360.825
1120.593, 8386.349
1121.689, 8343.539
1122.784, 8321.841
1123.879, 8368.489
1124.974, 8377.294
1126.069, 8326.628
1127.164, 8354.157
1128.259, 8241.975
1129.353, 8252.399
1130.447, 8315.720
1131.541, 8268.497
1132.635, 8297.284
1133.729, 8297.122
1134.822, 8165.409
1135.916, 8262.482
1137.009, 8260.618
1138.102, 8157.158
1139.195, 8246.401
1140.288, 8178.000
1141.380, 8135.000
1142.473, 8107.000
1143.565, 8153.000
1144.657, 8231.000
1145.749, 8124.000
1146.841, 8245.000
1147.932, 8232.000
1149.024, 8143.000
1150.115, 8080.000
1151.206, 8219.000
1152.297, 8074.000
1153.388, 8123.000
1154.479, 8140.000
1155.569, 8031.000
1156.659, 8181.000
1157.750, 8179.000
1158.839, 8109.000
1159.929, 7996.000
1161.019, 8260.000
1162.108, 8159.000
1163.198, 8098.000
1164.287, 8081.000
1165.376, 7946.000
1166.465, 8117.000
1167.553, 8027.000
1168.642, 8163.000
1169.730, 8122.054
1170.818, 8126.000
1171.906, 8073.000
1172.994, 8075.000
1174.082, 8112.000
1175.170, 8102.000
1176.257, 8045.000
1177.344, 8173.000
1178.431, 8029.000
1179.518, 8070.000
1180.605, 8107.000
1181.691, 8013.000
1182.778, 8012.000
1183.864, 7890.000
1184.950, 8086.000
1186.036, 8003.000
1187.122, 7992.000
1188.207, 8075.000
1189.292, 8000.000
1190.378, 8119.000
1191.463, 8046.000
1192.548, 7996.000
1193.632, 7945.000
1194.717, 8054.000
1195.801, 8078.000
1196.886, 8133.000
1197.970, 8049.000
1199.054, 8021.000
1200.137, 7994.704
1201.221, 8135.623
1202.305, 8046.000
1203.388, 8197.000
1204.471, 8095.974
1205.554, 7938.000
1206.637, 7974.000
1207.719, 7926.000
1208.802, 7994.000
1209.884, 8013.000
1210.966, 7921.000
1212.048, 8077.000
1213.130, 8070.000
1214.212, 7919.000
1215.293, 8071.000
1216.374, 7990.254
1217.456, 8031.000
1218.536, 8002.000
1219.617, 7993.000
1220.698, 8057.000
1221.778, 7953.000
1222.859, 8002.000
1223.939, 7966.000
1225.019, 7991.000
1226.099, 8077.000
1227.178, 8017.000
1228.258, 8090.000
1229.337, 7954.000
1230.417, 8122.000
1231.496, 7915.000
1232.574, 7977.000
1233.653, 8181.000
1234.732, 8058.000
1235.810, 8048.000
1236.888, 7925.000
1237.966, 8109.000
1239.044, 8054.000
1240.122, 8066.000
1241.199, 7987.000
1242.277, 8044.000
1243.354, 8068.000
1244.431, 7994.000
1245.508, 7922.000
1246.585, 7980.000
1247.661, 7955.000
1248.738, 7963.000
1249.814, 7970.000
1250.890, 8038.000
1251.966, 8075.000
1253.042, 7974.000
1254.117, 8015.000
1255.193, 7967.000
1256.268, 8014.000
1257.343, 8056.000
1258.418, 7983.000
1259.493, 7979.000
1260.567, 8096.000
1261.642, 7992.000
1262.716, 8080.802
1263.790, 8050.000
1264.864, 8098.000
1265.938, 8072.000
1267.011, 7924.000
1268.085, 8046.000
1269.158, 7980.000
1270.231, 8070.000
1271.304, 8019.000
1272.377, 7956.000
1273.450, 8053.000
1274.522, 7922.000
1275.594, 8051.000
1276.666, 7926.000
1277.738, 8048.000
1278.810, 8074.000
1279.882, 8059.000
1280.953, 7953.000
1282.025, 8009.000
1283.096, 7932.000
1284.167, 7957.098
1285.238, 7953.000
1286.308, 7973.000
1287.379, 8061.000
1288.449, 7997.000
1289.519, 8186.000
1290.589, 8049.000
1291.659, 8001.000
1292.729, 8093.000
1293.798, 8065.000
1294.868, 8159.000
1295.937, 8046.000
1297.006, 8117.000
1298.075, 8028.000
1299.143, 8151.000
1300.212, 8156.000
1301.280, 8007.000
1302.348, 8128.000
1303.416, 8108.000
1304.484, 8113.000
1305.552, 8086.000
1306.620, 8101.000
1307.687, 8166.000
1308.754, 8017.000
1309.821, 8023.000
1310.888, 8190.000
1311.955, 8056.000
1313.021, 8128.000
1314.088, 8222.000
1315.154, 8193.000
1316.220, 8077.000
1317.286, 8094.000
1318.352, 8130.000
1319.417, 8030.000
1320.483, 8080.000
1321.548, 8115.000
1322.613, 8112.000
1323.678, 8126.000
1324.743, 8143.000
1325.807, 8103.000
1326.872, 8134.000
1327.936, 8070.000
1329.000, 8140.000
1330.064, 8152.000
1331.128, 8127.000
1332.191, 8158.506
1333.255, 8153.244
1334.318, 8168.000
1335.381, 8169.000
1336.444, 8190.000
1337.507, 8208.000
1338.569, 8219.000
1339.632, 8151.000
1340.694, 8161.000
1341.756, 8161.010
1342.818, 8161.000
1343.880, 8203.000
1344.941, 8163.351
1346.003, 8222.206
1347.064, 8159.000
1348.125, 8203.000
1349.186, 8237.000
1350.247, 8161.000
1351.308, 8206.000
1352.368, 8278.000
1353.428, 8191.000
1354.489, 8165.000
1355.549, 8239.000
1356.608, 8110.000
1357.668, 8233.000
1358.727, 8233.000
1359.787, 8206.000
1360.846, 8150.000
1361.905, 8122.000
1362.964, 8125.000
1364.022, 8177.000
1365.081, 8205.000
1366.139, 8194.000
1367.197, 8143.000
1368.255, 8257.000
1369.313, 8196.000
1370.371, 8090.525
1371.428, 8171.622
1372.486, 8218.011
1373.543, 8231.552
1374.600, 8113.873
1375.657, 8165.638
1376.713, 8149.496
1377.770, 8130.571
1378.826, 8206.182
1379.882, 8107.587
1380.938, 8181.699
1381.994, 8186.870
1383.050, 8223.594
1384.106, 8191.992
1385.161, 8181.493
1386.216, 8239.340
1387.271, 8259.343
1388.326, 8219.875
1389.381, 8258.603
1390.435, 8157.618
1391.490, 8179.232
1392.544, 8253.741
1393.598, 8217.707
1394.652, 8257.682
1395.705, 8268.706
1396.759, 8148.174
1397.812, 8256.434
1398.866, 8265.749
1399.919, 8277.000
1400.972, 8093.000
1402.024, 8028.000
1403.077, 8166.000
1404.129, 8293.000
1405.181, 8284.000
1406.233, 8269.972
1407.285, 8232.000
1408.337, 8211.575
1409.389, 8165.000
1410.440, 8163.000
1411.491, 8146.000
1412.542, 8155.000
1413.593, 8102.000
1414.644, 8222.000
1415.695, 8275.000
1416.745, 8171.000
1417.795, 8181.000
1418.845, 8154.000
1419.895, 8118.000
1420.945, 8203.000
1421.995, 8226.000
1423.044, 8353.000
1424.093, 8206.000
1425.142, 8177.000
1426.191, 8200.000
1427.240, 8331.000
1428.289, 8251.000
1429.337, 8220.000
1430.385, 8156.000
1431.433, 8152.000
1432.481, 8191.000
1433.529, 8209.000
1434.577, 8192.000
1435.624, 8161.000
1436.672, 8128.000
1437.719, 8173.000
1438.766, 8159.000
1439.812, 8122.000
1440.859, 8188.000
1441.905, 8156.313
1442.952, 8142.000
1443.998, 8151.000
1445.044, 8119.000
1446.090, 8104.712
1447.135, 8111.000
1448.181, 8132.000
1449.226, 8177.000
1450.271, 8144.000
1451.316, 8171.000
1452.361, 8235.000
1453.405, 8163.000
1454.450, 8156.000
1455.494, 8102.000
1456.538, 8277.000
1457.582, 8240.000
1458.626, 8338.000
1459.670, 8232.000
1460.713, 8125.000
1461.757, 8237.000
1462.800, 8251.000
1463.843, 8188.000
1464.886, 8250.000
1465.928, 8260.000
1466.971, 8055.000
1468.013, 8214.000
1469.055, 8351.000
1470.097, 8198.000
1471.139, 8307.000
1472.181, 8283.000
1473.222, 8154.814
1474.263, 8234.226
1475.305, 8278.926
1476.346, 8290.781
1477.386, 8171.417
1478.427, 8221.496
1479.468, 8203.670
1480.508, 8183.059
1481.548, 8256.986
1482.588, 8156.708
1483.628, 8229.136
1484.668, 8232.622
1485.707, 8267.661
1486.747, 8234.376
1487.786, 8222.194
1488.825, 8278.358
1489.864, 8296.679
1490.902, 8255.528
1491.941, 8292.573
1492.979, 8189.907
1494.017, 8209.839
1495.055, 8282.667
1496.093, 8244.951
1497.131, 8283.245
1498.168, 8292.591
1499.206, 8394.000
1500.243, 8302.274
1501.280, 8354.106
1502.317, 8249.000
1503.354, 8374.000
1504.390, 8278.000
1505.426, 8229.000
1506.463, 8308.000
1507.499, 8326.000
1508.535, 8342.000
1509.570, 8386.180
1510.606, 8360.495
1511.641, 8368.760
1512.676, 8303.000
1513.711, 8354.000
1514.746, 8299.000
1515.781, 8311.000
1516.816, 8333.010
1517.850, 8334.392
1518.884, 8346.000
1519.918, 8374.000
1520.952, 8318.000
1521.986, 8304.000
1523.019, 8394.000
1524.053, 8325.000
1525.086, 8371.000
1526.119, 8349.000
1527.152, 8435.000
1528.185, 8318.424
1529.217, 8406.070
1530.250, 8459.014
1531.282, 8479.104
1532.314, 8367.975
1533.346, 8426.288
1534.377, 8416.689
1535.409, 8404.314
1536.440, 8486.468
1537.472, 8394.425
1538.503, 8475.080
1539.534, 8486.794
1540.564, 8530.052
1541.595, 8504.994
1542.625, 8501.031
1543.656, 8565.423
1544.686, 8591.963
1545.716, 8559.031
1546.745, 8604.287
1547.775, 8509.842
1548.804, 8537.984
1549.834, 8619.031
1550.863, 8589.528
1551.892, 8636.033
1552.920, 8653.582
1553.949, 8539.580
1554.977, 8654.364
1556.006, 8670.210
1557.034, 8584.453
1558.062, 8691.396
1559.089, 8619.637
1560.117, 8611.669
1561.144, 8651.694
1562.172, 8641.688
1563.199, 8710.566
1564.226, 8703.441
1565.252, 8642.785
1566.279, 8651.000
1567.305, 8638.000
1568.332, 8580.000
1569.358, 8602.000
1570.384, 8653.000
1571.409, 8726.000
##END=



