##NAMES=Columbite-(Fe)
##RRUFFID=R060001
##IDEAL CHEMISTRY=Fe^2+^Nb^5+^_2_O_6_
##LOCALITY=Gypsy mine, Minas Gerais, Brazil
##OWNER=RRUFF
##SOURCE=Eric Van Valkenburg
##DESCRIPTION=Steel gray fragment with internal red hints
##STATUS=The identification of this mineral has been confirmed by X-ray diffraction and chemical analysis
##URL=rruff.info/R060001
##MEASURED CHEMISTRY=(Fe^2+^_0.52_Mn^2+^_0.48_)_Σ=1_(Nb_1.61_Ta_0.39_)_Σ=2_O_6_
##PIN_ID=L01167
##ORIENTATION=Laser parallel to c* (0 0 1). Fiducial mark perpendicular to laser is parallel to -a [-1 0 0]
124.0610, 11466.00
125.2950, 11442.00
126.5290, 11605.00
127.7630, 11995.00
128.9970, 12313.00
130.2300, 12435.00
131.4640, 12568.00
132.6970, 12510.00
133.9300, 12520.00
135.1630, 12705.00
136.3950, 12975.00
137.6280, 12736.00
138.8600, 12682.00
140.0920, 12248.00
141.3240, 11877.00
142.5560, 11122.00
143.7880, 10993.00
145.0190, 10703.00
146.2510, 10669.00
147.4820, 10571.00
148.7130, 10318.00
149.9440, 10626.00
151.1750, 10765.00
152.4050, 10689.00
153.6360, 10585.00
154.8660, 10406.00
156.0960, 10424.55
157.3260, 10543.00
158.5560, 10448.00
159.7850, 10529.00
161.0150, 10611.00
162.2440, 10740.00
163.4730, 10803.00
164.7020, 10801.00
165.9310, 10724.00
167.1590, 10693.35
168.3880, 10483.00
169.6160, 10543.00
170.8440, 10373.00
172.0720, 10327.00
173.3000, 10116.00
174.5280, 10180.00
175.7550, 10148.00
176.9820, 10183.00
178.2100, 10156.00
179.4370, 10268.00
180.6630, 10119.00
181.8900, 10128.00
183.1170, 10209.00
184.3430, 10302.00
185.5690, 10312.00
186.7950, 10395.61
188.0210, 10489.00
189.2470, 10539.00
190.4720, 10617.00
191.6970, 10759.00
192.9230, 10894.00
194.1480, 10865.00
195.3730, 11103.00
196.5970, 11181.00
197.8220, 11395.00
199.0460, 11515.00
200.2700, 11744.00
201.4940, 11788.00
202.7180, 12011.00
203.9420, 11645.00
205.1660, 11499.00
206.3890, 11342.00
207.6120, 11403.00
208.8350, 11093.00
210.0580, 10997.00
211.2810, 10965.00
212.5040, 10681.00
213.7260, 10790.00
214.9480, 10483.00
216.1700, 10294.00
217.3920, 10275.00
218.6140, 10183.00
219.8360, 10113.65
221.0570, 10124.22
222.2790, 10057.00
223.5000, 10110.00
224.7210, 10166.00
225.9410, 10100.00
227.1620, 10032.00
228.3820, 10095.00
229.6030, 10210.00
230.8230, 10259.00
232.0430, 10250.00
233.2630, 10359.65
234.4820, 10405.00
235.7020, 10501.00
236.9210, 10516.00
238.1400, 10568.00
239.3590, 10610.21
240.5780, 10669.00
241.7970, 10643.00
243.0150, 10651.00
244.2340, 10597.00
245.4520, 10824.00
246.6700, 10723.00
247.8880, 10732.00
249.1060, 10895.00
250.3230, 10803.00
251.5400, 10843.00
252.7580, 10869.00
253.9750, 10878.00
255.1920, 10981.00
256.4080, 10967.53
257.6250, 11033.99
258.8410, 11080.64
260.0580, 11108.59
261.2740, 11061.73
262.4900, 11111.45
263.7050, 11122.45
264.9210, 11288.00
266.1360, 11221.00
267.3520, 11167.00
268.5670, 11207.00
269.7820, 11209.00
270.9960, 11205.00
272.2110, 11138.00
273.4250, 11027.00
274.6400, 11145.00
275.8540, 11172.00
277.0680, 11127.00
278.2810, 11006.00
279.4950, 10802.00
280.7090, 10689.00
281.9220, 10758.00
283.1350, 10753.00
284.3480, 10644.00
285.5610, 10705.00
286.7730, 10634.00
287.9860, 10639.00
289.1980, 10667.00
290.4100, 10802.00
291.6220, 10697.00
292.8340, 10675.00
294.0460, 10869.00
295.2570, 10888.00
296.4690, 10804.00
297.6800, 10939.00
298.8910, 11004.00
300.1020, 10895.00
301.3120, 10972.00
302.5230, 11026.00
303.7330, 10920.00
304.9440, 10781.00
306.1540, 10781.00
307.3630, 10605.00
308.5730, 10683.00
309.7830, 10705.00
310.9920, 10570.00
312.2010, 10723.00
313.4100, 10659.00
314.6190, 10524.00
315.8280, 10658.00
317.0370, 10605.00
318.2450, 10633.00
319.4530, 10675.00
320.6610, 10576.00
321.8690, 10679.00
323.0770, 10605.00
324.2850, 10591.00
325.4920, 10419.00
326.6990, 10517.00
327.9060, 10459.00
329.1130, 10307.00
330.3200, 10268.00
331.5270, 10437.00
332.7330, 10387.00
333.9390, 10277.00
335.1450, 10248.00
336.3510, 10142.00
337.5570, 10111.00
338.7630, 10228.00
339.9680, 10229.00
341.1740, 10195.00
342.3790, 10239.81
343.5840, 10166.00
344.7890, 10215.00
345.9930, 10168.00
347.1980, 10104.00
348.4020, 10263.00
349.6060, 10183.00
350.8100, 10208.00
352.0140, 10194.00
353.2180, 10290.00
354.4210, 10291.67
355.6250, 10160.00
356.8280, 10327.00
358.0310, 10311.00
359.2340, 10266.00
360.4360, 10450.00
361.6390, 10286.00
362.8410, 10493.00
364.0430, 10556.00
365.2450, 10651.00
366.4470, 10621.00
367.6490, 10597.00
368.8510, 10700.00
370.0520, 10711.59
371.2530, 10798.00
372.4540, 10863.00
373.6550, 11033.00
374.8560, 11163.00
376.0560, 11305.00
377.2570, 11365.00
378.4570, 11493.00
379.6570, 11712.00
380.8570, 11808.00
382.0570, 12004.45
383.2560, 12051.00
384.4560, 12314.00
385.6550, 12380.00
386.8540, 12424.00
388.0530, 12622.00
389.2520, 12674.00
390.4510, 12836.00
391.6490, 12879.00
392.8470, 12959.00
394.0450, 12989.99
395.2430, 12965.61
396.4410, 12971.00
397.6390, 12929.00
398.8360, 12860.00
400.0340, 12947.00
401.2310, 12590.00
402.4280, 12463.00
403.6250, 12515.00
404.8210, 12256.00
406.0180, 12180.00
407.2140, 12153.00
408.4100, 11909.00
409.6060, 11700.00
410.8020, 11796.00
411.9980, 11669.00
413.1930, 11403.00
414.3890, 11472.00
415.5840, 11261.00
416.7790, 11358.00
417.9740, 11256.00
419.1680, 11197.00
420.3630, 11234.00
421.5570, 11097.00
422.7510, 11210.00
423.9450, 11152.00
425.1390, 11095.00
426.3330, 11106.00
427.5270, 11074.00
428.7200, 11188.00
429.9130, 11256.00
431.1060, 11217.00
432.2990, 11164.00
433.4920, 11068.00
434.6840, 11252.00
435.8770, 11152.00
437.0690, 11249.00
438.2610, 11212.00
439.4530, 11292.00
440.6450, 11324.00
441.8360, 11351.00
443.0280, 11357.63
444.2190, 11305.00
445.4100, 11304.00
446.6010, 11288.00
447.7920, 11208.00
448.9820, 11235.00
450.1730, 11378.00
451.3630, 11422.00
452.5530, 11289.00
453.7430, 11179.00
454.9330, 11396.00
456.1230, 11303.00
457.3120, 11388.00
458.5010, 11467.00
459.6910, 11310.00
460.8800, 11483.00
462.0680, 11525.00
463.2570, 11438.00
464.4460, 11457.00
465.6340, 11417.00
466.8220, 11422.00
468.0100, 11513.00
469.1980, 11523.00
470.3860, 11603.00
471.5730, 11614.00
472.7600, 11498.00
473.9480, 11670.00
475.1350, 11589.00
476.3210, 11718.00
477.5080, 11773.00
478.6950, 11680.00
479.8810, 11821.00
481.0670, 11738.35
482.2530, 11934.00
483.4390, 11679.00
484.6250, 11765.00
485.8100, 11808.00
486.9960, 11779.00
488.1810, 11858.00
489.3660, 11806.00
490.5510, 11848.00
491.7360, 11818.00
492.9200, 11881.00
494.1050, 11778.00
495.2890, 11745.00
496.4730, 11786.00
497.6570, 11759.64
498.8400, 11859.00
500.0240, 11808.00
501.2070, 11954.00
502.3910, 11984.00
503.5740, 11812.00
504.7570, 11945.00
505.9400, 11968.00
507.1220, 11910.00
508.3050, 11836.00
509.4870, 11881.00
510.6690, 11986.00
511.8510, 12129.00
513.0330, 12069.00
514.2140, 12220.00
515.3960, 12212.00
516.5770, 12250.00
517.7580, 12368.00
518.9390, 12378.47
520.1200, 12397.00
521.3010, 12475.00
522.4810, 12662.00
523.6610, 12706.00
524.8420, 12814.00
526.0220, 12926.00
527.2010, 13014.00
528.3810, 13059.00
529.5610, 13045.00
530.7400, 13168.00
531.9190, 13290.00
533.0980, 13110.00
534.2770, 13001.00
535.4560, 13056.00
536.6340, 12990.00
537.8120, 13019.00
538.9910, 12909.00
540.1690, 12791.00
541.3460, 12642.00
542.5240, 12636.00
543.7020, 12524.84
544.8790, 12484.00
546.0560, 12448.00
547.2330, 12358.00
548.4100, 12426.00
549.5870, 12399.00
550.7630, 12291.00
551.9400, 12227.00
553.1160, 12322.00
554.2920, 12264.00
555.4680, 12280.47
556.6440, 12176.00
557.8190, 12287.00
558.9950, 12257.00
560.1700, 12259.00
561.3450, 12251.00
562.5200, 12154.00
563.6950, 12138.00
564.8690, 12299.00
566.0440, 12103.00
567.2180, 12231.00
568.3920, 12171.00
569.5660, 12192.00
570.7400, 12334.00
571.9130, 12226.00
573.0870, 12350.00
574.2600, 12121.00
575.4330, 12222.00
576.6060, 11976.00
577.7790, 12046.00
578.9520, 12001.00
580.1240, 12027.00
581.2960, 11862.00
582.4690, 11943.00
583.6410, 11803.00
584.8120, 11915.00
585.9840, 11656.00
587.1560, 11713.00
588.3270, 11763.00
589.4980, 11604.00
590.6690, 11796.00
591.8400, 11599.00
593.0110, 11692.00
594.1810, 11634.00
595.3510, 11637.00
596.5220, 11558.00
597.6920, 11608.00
598.8610, 11663.00
600.0310, 11573.00
601.2010, 11632.00
602.3700, 11744.00
603.5390, 11714.00
604.7080, 11587.00
605.8770, 11650.00
607.0460, 11677.00
608.2140, 11751.00
609.3830, 11773.65
610.5510, 11833.00
611.7190, 11807.00
612.8870, 11819.00
614.0550, 11788.00
615.2220, 11894.00
616.3900, 11910.00
617.5570, 11941.00
618.7240, 11872.00
619.8910, 11952.30
621.0580, 11955.00
622.2240, 12056.00
623.3910, 12071.00
624.5570, 12108.00
625.7230, 12091.00
626.8890, 12282.00
628.0550, 12276.00
629.2200, 12358.00
630.3860, 12303.00
631.5510, 12397.00
632.7160, 12439.00
633.8810, 12445.00
635.0460, 12442.00
636.2100, 12474.18
637.3750, 12376.00
638.5390, 12483.00
639.7030, 12528.00
640.8670, 12467.00
642.0310, 12597.00
643.1950, 12524.00
644.3580, 12474.00
645.5210, 12396.00
646.6850, 12462.00
647.8480, 12333.00
649.0100, 12415.00
650.1730, 12170.00
651.3350, 12272.00
652.4980, 12320.00
653.6600, 12087.00
654.8220, 12173.00
655.9840, 12270.00
657.1450, 12173.00
658.3070, 11997.00
659.4680, 11932.00
660.6300, 12026.00
661.7910, 11914.00
662.9510, 12013.00
664.1120, 12052.00
665.2730, 12013.00
666.4330, 11953.00
667.5930, 11888.00
668.7530, 11999.00
669.9130, 11925.00
671.0730, 11890.00
672.2320, 11952.77
673.3920, 11925.00
674.5510, 12011.00
675.7100, 11983.00
676.8690, 11991.00
678.0280, 11988.00
679.1860, 11962.00
680.3450, 11851.00
681.5030, 12044.00
682.6610, 11964.00
683.8190, 12160.00
684.9770, 12036.00
686.1340, 11873.00
687.2920, 11851.00
688.4490, 12113.00
689.6060, 11903.00
690.7630, 12046.00
691.9200, 11981.00
693.0760, 12016.00
694.2330, 11988.00
695.3890, 12038.00
696.5450, 11922.00
697.7010, 12036.00
698.8570, 11918.00
700.0130, 12093.00
701.1680, 12110.00
702.3230, 12070.00
703.4780, 12111.00
704.6330, 12124.00
705.7880, 12180.00
706.9430, 12148.00
708.0970, 12138.00
709.2520, 12213.00
710.4060, 12221.00
711.5600, 12157.00
712.7140, 12308.00
713.8670, 12253.00
715.0210, 12256.00
716.1740, 12445.00
717.3270, 12214.00
718.4800, 12478.00
719.6330, 12418.00
720.7860, 12267.00
721.9380, 12419.00
723.0910, 12547.00
724.2430, 12469.00
725.3950, 12418.00
726.5470, 12562.00
727.6980, 12604.00
728.8500, 12613.00
730.0010, 12588.00
731.1530, 12558.00
732.3040, 12689.00
733.4550, 12774.00
734.6050, 12664.00
735.7560, 12751.00
736.9060, 12705.00
738.0560, 12840.00
739.2060, 12852.00
740.3560, 12785.00
741.5060, 12898.00
742.6560, 12790.00
743.8050, 12992.00
744.9540, 13049.00
746.1030, 12912.00
747.2520, 12981.00
748.4010, 12863.00
749.5500, 12983.00
750.6980, 13029.00
751.8460, 13042.00
752.9950, 13056.00
754.1420, 13112.54
755.2900, 13196.00
756.4380, 13189.00
757.5850, 13208.00
758.7330, 13187.00
759.8800, 13220.00
761.0270, 13307.00
762.1730, 13353.00
763.3200, 13275.00
764.4670, 13258.00
765.6130, 13244.00
766.7590, 13495.00
767.9050, 13346.00
769.0510, 13563.00
770.1960, 13529.00
771.3420, 13422.00
772.4870, 13415.00
773.6320, 13430.00
774.7770, 13440.13
775.9220, 13504.00
777.0670, 13553.00
778.2110, 13538.00
779.3560, 13600.00
780.5000, 13514.00
781.6440, 13631.00
782.7880, 13613.00
783.9320, 13707.00
785.0750, 13529.00
786.2180, 13586.00
787.3620, 13440.00
788.5050, 13608.00
789.6480, 13780.00
790.7900, 13689.67
791.9330, 13706.00
793.0750, 13741.00
794.2170, 13607.00
795.3590, 13805.00
796.5010, 13896.00
797.6430, 13908.00
798.7850, 13862.00
799.9260, 13819.00
801.0670, 13992.00
802.2080, 13965.00
803.3490, 13977.00
804.4900, 13970.00
805.6310, 14158.00
806.7710, 14210.00
807.9110, 14316.00
809.0510, 14166.00
810.1910, 14296.00
811.3310, 14323.00
812.4710, 14639.00
813.6100, 14769.00
814.7490, 14916.00
815.8880, 15131.00
817.0270, 15209.00
818.1660, 15353.00
819.3050, 15443.00
820.4430, 15731.00
821.5820, 15906.00
822.7200, 16207.00
823.8580, 16327.00
824.9950, 16335.00
826.1330, 16564.00
827.2710, 16718.00
828.4080, 16708.00
829.5450, 16742.00
830.6820, 16764.00
831.8190, 16845.00
832.9560, 16839.00
834.0920, 16772.00
835.2280, 16951.00
836.3650, 17041.00
837.5010, 16994.00
838.6360, 16964.00
839.7720, 16982.00
840.9080, 17078.00
842.0430, 17246.00
843.1780, 17237.00
844.3130, 17284.00
845.4480, 17681.00
846.5830, 17686.43
847.7170, 17818.00
848.8520, 18044.00
849.9860, 18476.00
851.1200, 18809.00
852.2540, 19280.00
853.3870, 19791.00
854.5210, 20264.00
855.6540, 20778.00
856.7880, 21318.00
857.9210, 22186.00
859.0540, 22916.00
860.1860, 23841.00
861.3190, 24951.00
862.4510, 26076.00
863.5840, 26986.00
864.7160, 28313.00
865.8480, 30416.00
866.9790, 31902.00
868.1110, 34141.00
869.2420, 36336.00
870.3740, 38225.00
871.5050, 40641.00
872.6360, 42745.00
873.7660, 44737.00
874.8970, 46119.00
876.0280, 46898.00
877.1580, 47023.68
878.2880, 46550.50
879.4180, 45444.00
880.5480, 43768.00
881.6770, 41462.00
882.8070, 38610.00
883.9360, 35978.00
885.0650, 32762.00
886.1940, 30342.00
887.3230, 27574.00
888.4520, 25230.00
889.5800, 23390.00
890.7090, 21540.00
891.8370, 20013.00
892.9650, 18734.00
894.0930, 17579.00
895.2200, 16922.00
896.3480, 16053.00
897.4750, 15389.00
898.6020, 15040.00
899.7290, 14529.00
900.8560, 14325.00
901.9830, 13879.00
903.1090, 13647.00
904.2360, 13371.00
905.3620, 13282.00
906.4880, 13101.00
907.6140, 13079.00
908.7400, 12813.00
909.8650, 12605.00
910.9900, 12523.00
912.1160, 12468.00
913.2410, 12475.00
914.3660, 12249.00
915.4900, 12255.00
916.6150, 12074.00
917.7390, 11910.00
918.8640, 11993.00
919.9880, 11884.00
921.1120, 11808.00
922.2350, 11821.00
923.3590, 11674.00
924.4820, 11777.00
925.6060, 11680.00
926.7290, 11679.00
927.8520, 11685.00
928.9740, 11716.00
930.0970, 11741.00
931.2190, 11685.00
932.3420, 11703.00
933.4640, 11673.28
934.5860, 11637.55
935.7080, 11622.00
936.8290, 11597.00
937.9510, 11573.00
939.0720, 11619.00
940.1930, 11745.00
941.3140, 11529.00
942.4350, 11597.00
943.5560, 11637.00
944.6760, 11535.00
945.7960, 11579.00
946.9170, 11434.00
948.0370, 11491.00
949.1560, 11451.00
950.2760, 11247.00
951.3960, 11472.00
952.5150, 11460.00
953.6340, 11384.00
954.7530, 11140.00
955.8720, 11425.00
956.9910, 11285.00
958.1090, 11332.00
959.2280, 11377.00
960.3460, 11156.00
961.4640, 11172.00
962.5820, 11329.00
963.6990, 11242.00
964.8170, 11236.00
965.9340, 11197.00
967.0510, 11120.00
968.1690, 11211.00
969.2850, 11313.00
970.4020, 11162.00
971.5190, 11103.00
972.6350, 11127.00
973.7510, 11318.00
974.8670, 11225.00
975.9830, 11189.00
977.0990, 11067.00
978.2150, 11189.00
979.3300, 11153.00
980.4450, 11240.00
981.5600, 11244.00
982.6750, 11271.00
983.7900, 11122.00
984.9050, 11210.00
986.0190, 11205.00
987.1340, 11239.00
988.2480, 11272.00
989.3620, 11243.27
990.4750, 11207.00
991.5890, 11200.00
992.7020, 11180.00
993.8160, 11169.00
994.9290, 11289.00
996.0420, 11194.00
997.1550, 11306.00
998.2670, 11347.00
999.3800, 11294.69
1000.492, 11288.00
1001.604, 11215.00
1002.716, 11284.00
1003.828, 11212.00
1004.940, 11234.00
1006.051, 11295.00
1007.163, 11221.00
1008.274, 11138.00
1009.385, 11285.00
1010.496, 11150.00
1011.606, 11249.00
1012.717, 11206.00
1013.827, 11244.00
1014.937, 11183.00
1016.047, 11179.00
1017.157, 11193.00
1018.267, 11212.00
1019.377, 11210.29
1020.486, 11256.00
1021.595, 11206.00
1022.704, 11180.00
1023.813, 11148.32
1024.922, 11266.00
1026.030, 11163.00
1027.139, 11176.00
1028.247, 11298.00
1029.355, 11183.00
1030.463, 11318.00
1031.571, 11164.34
1032.678, 11215.78
1033.786, 11247.44
1034.893, 11260.38
1036.000, 11198.51
1037.107, 11233.24
1038.214, 11229.25
1039.321, 11223.68
1040.427, 11271.99
1041.533, 11221.00
1042.639, 11268.45
1043.745, 11353.00
1044.851, 11409.00
1045.957, 11352.00
1047.062, 11350.00
1048.168, 11333.00
1049.273, 11407.00
1050.378, 11378.00
1051.482, 11372.00
1052.587, 11324.00
1053.692, 11490.00
1054.796, 11281.00
1055.900, 11545.00
1057.004, 11458.00
1058.108, 11520.00
1059.212, 11472.00
1060.315, 11448.00
1061.418, 11398.00
1062.522, 11383.20
1063.625, 11428.00
1064.728, 11368.00
1065.830, 11410.00
1066.933, 11440.00
1068.035, 11348.00
1069.137, 11490.00
1070.239, 11509.00
1071.341, 11491.00
1072.443, 11426.00
1073.545, 11510.00
1074.646, 11329.00
1075.747, 11301.00
1076.848, 11536.00
1077.949, 11365.00
1079.050, 11261.00
1080.150, 11485.00
1081.251, 11338.00
1082.351, 11379.00
1083.451, 11433.00
1084.551, 11409.00
1085.651, 11440.17
1086.750, 11436.00
1087.850, 11437.00
1088.949, 11434.30
1090.048, 11437.13
1091.147, 11412.00
1092.246, 11410.00
1093.345, 11405.00
1094.443, 11318.00
1095.541, 11420.00
1096.639, 11211.00
1097.737, 11405.00
1098.835, 11326.00
1099.933, 11443.00
1101.030, 11319.00
1102.128, 11353.00
1103.225, 11379.00
1104.322, 11332.00
1105.419, 11371.00
1106.515, 11308.00
1107.612, 11350.00
1108.708, 11413.00
1109.804, 11364.00
1110.900, 11402.00
1111.996, 11288.00
1113.092, 11313.22
1114.187, 11258.48
1115.283, 11361.00
1116.378, 11194.00
1117.473, 11322.00
1118.568, 11365.00
1119.662, 11312.00
1120.757, 11121.00
1121.851, 11294.00
1122.946, 11183.00
1124.040, 11332.00
1125.134, 11305.00
1126.227, 11401.00
1127.321, 11187.00
1128.414, 11233.00
1129.508, 11241.00
1130.601, 11154.00
1131.693, 11162.00
1132.786, 11211.00
1133.879, 11131.00
1134.971, 11228.00
1136.064, 11258.00
1137.156, 11230.00
1138.248, 11216.00
1139.339, 11184.00
1140.431, 11339.00
1141.522, 11314.00
1142.614, 11254.00
1143.705, 11247.00
1144.796, 11188.00
1145.887, 11203.00
1146.977, 11131.00
1148.068, 11190.00
1149.158, 11189.00
1150.248, 11177.00
1151.338, 11145.00
1152.428, 11184.00
1153.518, 11090.00
1154.607, 11158.00
1155.696, 11152.00
1156.785, 11161.00
1157.874, 11246.00
1158.963, 11123.00
1160.052, 11168.00
1161.141, 11090.00
1162.229, 11160.00
1163.317, 11045.00
1164.405, 11092.00
1165.493, 11184.00
1166.581, 11107.00
1167.668, 11152.00
1168.756, 11014.00
1169.843, 11111.00
1170.930, 11142.00
1172.017, 11064.00
1173.103, 11089.00
1174.190, 11005.00
1175.276, 11187.00
1176.363, 11232.00
1177.449, 11178.00
1178.535, 11290.00
1179.620, 11178.00
1180.706, 11132.00
1181.791, 11060.00
1182.877, 11056.00
1183.962, 11080.00
1185.047, 10987.00
1186.131, 11150.00
1187.216, 11025.00
1188.300, 11005.00
1189.385, 11009.00
1190.469, 11111.00
1191.553, 11166.00
1192.637, 11064.00
1193.720, 11045.00
1194.804, 11036.00
1195.887, 11016.16
1196.970, 11046.00
1198.053, 11026.00
1199.136, 11084.00
1200.219, 11065.00
1201.301, 11195.00
1202.383, 11147.00
1203.465, 11137.00
1204.547, 11024.00
1205.629, 10993.00
1206.711, 10997.00
1207.792, 11114.00
1208.874, 11049.00
1209.955, 11091.00
1211.036, 11117.00
1212.117, 11145.00
1213.198, 11020.00
1214.278, 11117.00
1215.359, 11071.00
1216.439, 10910.00
1217.519, 11039.00
1218.599, 10913.00
1219.678, 10969.00
1220.758, 11068.00
1221.837, 10908.00
1222.917, 11010.00
1223.996, 11186.00
1225.075, 11170.00
1226.153, 11110.00
1227.232, 11023.00
1228.310, 11035.00
1229.389, 10920.00
1230.467, 11112.00
1231.545, 11091.00
1232.622, 11067.00
1233.700, 11089.00
1234.777, 11148.00
1235.855, 11054.00
1236.932, 11108.00
1238.009, 11072.00
1239.086, 11089.00
1240.162, 11081.00
1241.239, 11043.00
1242.315, 11027.00
1243.391, 11043.54
1244.467, 11063.00
1245.543, 11083.00
1246.619, 11084.00
1247.694, 11094.00
1248.769, 11059.00
1249.844, 11084.00
1250.919, 11052.39
1251.994, 11066.00
1253.069, 11001.00
1254.144, 10973.00
1255.218, 10939.60
1256.292, 10936.50
1257.366, 10965.00
1258.440, 10971.00
1259.514, 10991.91
1260.587, 10982.89
1261.661, 11032.00
1262.734, 10987.00
1263.807, 10992.37
1264.880, 11060.00
1265.952, 10973.00
1267.025, 11020.00
1268.097, 11025.00
1269.170, 11228.00
1270.242, 10973.00
1271.314, 11118.00
1272.385, 10992.00
1273.457, 10968.00
1274.528, 11026.00
1275.600, 10922.00
1276.671, 10959.00
1277.742, 11000.00
1278.812, 11011.00
1279.883, 11020.22
1280.954, 11014.38
1282.024, 11010.00
1283.094, 10999.00
1284.164, 10991.00
1285.234, 11031.00
1286.303, 11008.00
1287.373, 11126.00
1288.442, 10998.00
1289.511, 11078.00
1290.580, 11031.00
1291.649, 11137.00
1292.718, 11220.00
1293.786, 11026.00
1294.855, 11104.00
1295.923, 11074.00
1296.991, 10945.00
1298.059, 11123.00
1299.126, 11138.00
1300.194, 11122.00
1301.261, 11030.00
1302.328, 11130.00
1303.395, 11049.00
1304.462, 11204.00
1305.529, 10999.00
1306.596, 11111.00
1307.662, 11075.00
1308.728, 11181.00
1309.794, 11006.00
1310.860, 11082.00
1311.926, 11286.00
1312.991, 11107.00
1314.057, 11130.00
1315.122, 11003.00
1316.187, 10968.95
1317.252, 11073.00
1318.317, 10978.00
1319.381, 11032.00
1320.446, 11189.00
1321.510, 11162.00
1322.574, 10941.00
1323.638, 11213.00
1324.702, 11148.00
1325.766, 10997.00
1326.829, 11156.00
1327.892, 11022.00
1328.956, 11024.00
1330.019, 11108.00
1331.081, 11155.00
1332.144, 11259.00
1333.206, 11093.00
1334.269, 11100.00
1335.331, 11139.00
1336.393, 11157.00
1337.455, 11151.00
1338.516, 11087.00
1339.578, 11090.00
1340.639, 11140.00
1341.701, 11169.00
1342.762, 11027.00
1343.822, 11129.00
1344.883, 11072.00
1345.944, 11136.00
1347.004, 11203.00
1348.064, 11239.00
1349.124, 11255.00
1350.184, 11266.94
1351.244, 11144.00
1352.304, 11205.00
1353.363, 11217.00
1354.422, 11093.00
1355.481, 11139.00
1356.540, 10938.00
1357.599, 11224.00
1358.657, 11046.00
1359.716, 11189.00
1360.774, 11189.00
1361.832, 11166.00
1362.890, 11164.00
1363.948, 11166.76
1365.006, 11184.00
1366.063, 11178.00
1367.120, 11167.00
1368.178, 11169.00
1369.234, 11174.00
1370.291, 11128.00
1371.348, 11152.00
1372.404, 11176.00
1373.461, 11238.00
1374.517, 11261.00
1375.573, 11267.15
1376.629, 11275.00
1377.684, 11266.00
1378.740, 11223.00
1379.795, 11228.00
1380.850, 11257.00
1381.905, 11184.00
1382.960, 11067.00
1384.015, 11151.00
1385.070, 11084.96
1386.124, 11246.00
1387.178, 11106.00
1388.232, 11248.00
1389.286, 11315.00
1390.340, 11184.00
1391.393, 11237.00
1392.447, 11136.00
1393.500, 11153.00
1394.553, 11257.00
1395.606, 11266.00
1396.659, 11272.00
1397.711, 11139.00
1398.764, 11094.00
1399.816, 11189.00
1400.868, 11155.00
1401.920, 11242.00
1402.972, 11194.00
1404.023, 11288.00
1405.075, 11181.00
1406.126, 11281.00
1407.177, 11156.00
1408.228, 11271.00
1409.279, 11207.00
1410.330, 11239.00
1411.380, 11294.00
1412.431, 11278.00
1413.481, 11333.00
1414.531, 11170.00
1415.580, 11206.00
1416.630, 11207.00
1417.680, 11235.00
1418.729, 11236.00
1419.778, 11351.00
1420.827, 11245.00
1421.876, 11301.00
1422.925, 11323.00
1423.973, 11227.00
1425.022, 11195.00
1426.070, 11302.00
1427.118, 11291.00
1428.166, 11308.00
1429.214, 11259.00
1430.261, 11317.00
1431.309, 11422.00
1432.356, 11368.47
1433.403, 11353.00
1434.450, 11265.00
1435.497, 11403.00
1436.543, 11205.00
1437.590, 11335.00
1438.636, 11321.00
1439.682, 11248.00
1440.728, 11324.00
1441.774, 11269.00
1442.819, 11315.00
1443.865, 11304.00
1444.910, 11241.00
1445.955, 11283.00
1447.000, 11348.00
1448.045, 11382.00
1449.090, 11236.00
1450.134, 11363.00
1451.178, 11237.00
1452.223, 11221.00
1453.267, 11305.00
1454.310, 11325.00
1455.354, 11249.00
1456.398, 11228.00
1457.441, 11267.00
1458.484, 11290.00
1459.527, 11341.00
1460.570, 11292.00
1461.613, 11292.00
1462.655, 11271.00
1463.698, 11245.00
1464.740, 11240.62
1465.782, 11288.28
1466.824, 11316.15
1467.866, 11325.30
1468.907, 11259.66
1469.948, 11290.60
1470.990, 11282.83
1472.031, 11273.48
1473.072, 11318.01
1474.112, 11263.24
1475.153, 11306.92
1476.194, 11311.30
1477.234, 11333.66
1478.274, 11317.08
1479.314, 11312.53
1480.354, 11346.93
1481.393, 11359.76
1482.433, 11338.70
1483.472, 11362.20
1484.511, 11306.07
1485.550, 11319.82
1486.589, 11363.72
1487.628, 11344.61
1488.666, 11368.83
1489.704, 11376.54
1490.743, 11309.27
1491.781, 11372.40
1492.819, 11379.14
1493.856, 11327.97
1494.894, 11386.64
1495.931, 11343.45
1496.968, 11336.61
1498.005, 11357.14
1499.042, 11349.14
1500.079, 11386.12
1501.115, 11379.77
1502.152, 11369.55
1503.188, 11376.22
1504.224, 11353.00
1505.260, 11338.00
1506.296, 11315.00
1507.331, 11354.00
1508.367, 11456.00
1509.402, 11453.00
1510.437, 11433.00
1511.472, 11393.00
1512.507, 11382.00
1513.541, 11417.00
1514.576, 11476.00
1515.610, 11519.00
1516.644, 11364.00
1517.678, 11412.00
1518.712, 11329.00
1519.746, 11406.00
1520.779, 11395.00
1521.813, 11495.00
1522.846, 11387.00
1523.879, 11521.00
1524.912, 11491.00
1525.944, 11298.00
1526.977, 11339.00
1528.009, 11438.00
1529.041, 11490.00
1530.073, 11443.00
1531.105, 11465.00
1532.137, 11519.00
1533.168, 11366.00
1534.200, 11423.00
1535.231, 11405.00
1536.262, 11430.00
1537.293, 11375.00
1538.324, 11427.00
1539.354, 11364.00
1540.385, 11514.00
1541.415, 11362.00
1542.445, 11466.00
1543.475, 11431.00
1544.505, 11388.00
1545.534, 11288.00
1546.564, 11412.00
1547.593, 11519.00
1548.622, 11518.00
1549.651, 11504.00
1550.680, 11653.00
1551.708, 11846.00
1552.737, 11997.00
1553.765, 12037.00
1554.793, 11791.00
1555.821, 11453.00
1556.849, 11451.00
1557.877, 11467.00
1558.904, 11551.00
1559.932, 11420.00
1560.959, 11394.00
1561.986, 11374.00
1563.013, 11486.00
##END=



