##NAMES=Columbite-(Fe)
##RRUFFID=R050348
##IDEAL CHEMISTRY=Fe^2+^Nb^5+^_2_O_6_
##LOCALITY=Lord Hill mine, Stoneham, Oxford County, Maine, USA
##OWNER=RRUFF
##SOURCE=California Institute of Technology
##DESCRIPTION=Black fragment
##STATUS=The identification of this mineral has been confirmed by X-ray diffraction and chemical analysis
##URL=rruff.info/R050348
##MEASURED CHEMISTRY=(Fe^2+^_0.69_Mn^2+^_0.30_Ti_0.01_)(Nb_0.89_Ta_0.10_Ti_0.01_)_2_O_6_
##PIN_ID=L00509
##ORIENTATION=Laser parallel to -b* (0 -1 0). Fiducial mark perpendicular to laser is parallel to -c [0 0 -1]
221.0220, 7000.000
222.2400, 6901.000
223.4590, 7166.000
224.6770, 7082.000
225.8950, 7104.000
227.1120, 7049.000
228.3300, 7042.183
229.5480, 7121.000
230.7650, 7077.000
231.9820, 7127.000
233.1990, 7239.000
234.4160, 7193.000
235.6330, 7228.000
236.8490, 7254.000
238.0660, 7248.782
239.2820, 7303.788
240.4980, 7297.000
241.7140, 7380.000
242.9300, 7456.000
244.1460, 7471.000
245.3610, 7513.000
246.5770, 7439.749
247.7920, 7529.785
249.0070, 7585.111
250.2220, 7607.591
251.4370, 7498.852
252.6510, 7559.547
253.8660, 7552.346
255.0800, 7542.351
256.2940, 7626.895
257.5080, 7537.232
258.7220, 7620.276
259.9360, 7634.379
261.1490, 7680.025
262.3630, 7657.356
263.5760, 7655.782
264.7890, 7722.554
266.0020, 7751.481
267.2150, 7649.000
268.4270, 7671.000
269.6400, 7568.000
270.8520, 7654.000
272.0640, 7536.000
273.2760, 7496.000
274.4880, 7549.000
275.7000, 7503.000
276.9120, 7431.000
278.1230, 7440.000
279.3340, 7255.000
280.5450, 7409.000
281.7560, 7180.000
282.9670, 7195.000
284.1780, 7354.000
285.3880, 7124.000
286.5980, 7235.000
287.8090, 7253.000
289.0190, 7143.000
290.2290, 7118.000
291.4380, 7142.000
292.6480, 7074.000
293.8570, 7069.000
295.0670, 6977.000
296.2760, 6985.000
297.4850, 6953.000
298.6930, 7011.000
299.9020, 6990.000
301.1110, 6894.000
302.3190, 6847.000
303.5270, 6912.000
304.7350, 6890.000
305.9430, 6893.000
307.1510, 6833.000
308.3580, 6793.000
309.5660, 6790.637
310.7730, 6830.000
311.9800, 6782.000
313.1870, 6758.000
314.3940, 6771.000
315.6010, 6688.000
316.8070, 6748.000
318.0130, 6692.000
319.2200, 6756.000
320.4260, 6745.000
321.6310, 6726.000
322.8370, 6688.000
324.0430, 6627.000
325.2480, 6668.000
326.4540, 6625.000
327.6590, 6557.000
328.8640, 6578.000
330.0680, 6514.000
331.2730, 6603.000
332.4780, 6629.000
333.6820, 6558.000
334.8860, 6535.000
336.0900, 6450.000
337.2940, 6507.000
338.4980, 6549.000
339.7010, 6433.000
340.9050, 6487.000
342.1080, 6499.000
343.3110, 6586.000
344.5140, 6440.000
345.7170, 6428.000
346.9200, 6439.000
348.1220, 6334.000
349.3240, 6480.000
350.5270, 6403.000
351.7290, 6563.000
352.9310, 6488.290
354.1320, 6416.000
355.3340, 6372.000
356.5350, 6426.000
357.7370, 6390.000
358.9380, 6405.000
360.1390, 6443.000
361.3400, 6435.000
362.5400, 6473.000
363.7410, 6493.000
364.9410, 6489.000
366.1410, 6497.000
367.3410, 6455.000
368.5410, 6416.000
369.7410, 6408.000
370.9400, 6398.000
372.1400, 6384.162
373.3390, 6357.000
374.5380, 6390.000
375.7370, 6388.000
376.9360, 6425.000
378.1350, 6428.000
379.3330, 6387.000
380.5310, 6365.000
381.7300, 6343.000
382.9280, 6319.253
384.1260, 6396.000
385.3230, 6272.000
386.5210, 6310.000
387.7180, 6265.384
388.9160, 6387.000
390.1130, 6280.000
391.3100, 6354.000
392.5060, 6403.000
393.7030, 6233.000
394.9000, 6315.000
396.0960, 6246.000
397.2920, 6216.000
398.4880, 6321.000
399.6840, 6341.000
400.8800, 6305.000
402.0750, 6395.000
403.2710, 6320.000
404.4660, 6237.000
405.6610, 6358.000
406.8560, 6365.000
408.0510, 6215.000
409.2450, 6225.000
410.4400, 6147.000
411.6340, 6141.769
412.8280, 6218.000
414.0220, 6200.000
415.2160, 6255.000
416.4100, 6354.000
417.6030, 6273.000
418.7970, 6216.000
419.9900, 6234.000
421.1830, 6297.000
422.3760, 6345.000
423.5690, 6363.000
424.7610, 6344.000
425.9540, 6287.000
427.1460, 6268.000
428.3380, 6286.000
429.5300, 6262.250
430.7220, 6276.000
431.9140, 6268.000
433.1050, 6275.000
434.2970, 6282.000
435.4880, 6365.000
436.6790, 6317.000
437.8700, 6379.000
439.0610, 6429.000
440.2510, 6587.000
441.4420, 6532.512
442.6320, 6517.241
443.8220, 6486.000
445.0120, 6446.247
446.2020, 6389.000
447.3910, 6381.000
448.5810, 6385.000
449.7700, 6368.840
450.9600, 6407.000
452.1490, 6350.000
453.3370, 6353.000
454.5260, 6381.000
455.7150, 6367.000
456.9030, 6332.000
458.0910, 6391.000
459.2800, 6336.000
460.4670, 6371.908
461.6550, 6342.000
462.8430, 6431.000
464.0300, 6438.000
465.2180, 6498.000
466.4050, 6442.000
467.5920, 6391.000
468.7790, 6549.000
469.9650, 6504.000
471.1520, 6361.000
472.3380, 6524.000
473.5250, 6383.000
474.7110, 6538.000
475.8970, 6410.000
477.0820, 6496.000
478.2680, 6421.000
479.4540, 6508.000
480.6390, 6460.000
481.8240, 6468.000
483.0090, 6479.000
484.1940, 6464.000
485.3780, 6560.000
486.5630, 6517.000
487.7470, 6553.000
488.9320, 6400.000
490.1160, 6458.000
491.3000, 6436.000
492.4830, 6460.000
493.6670, 6496.000
494.8500, 6395.000
496.0340, 6437.000
497.2170, 6350.000
498.4000, 6409.000
499.5820, 6408.000
500.7650, 6444.000
501.9480, 6438.000
503.1300, 6418.961
504.3120, 6391.852
505.4940, 6391.000
506.6760, 6347.000
507.8580, 6397.000
509.0390, 6495.000
510.2210, 6427.863
511.4020, 6419.000
512.5830, 6374.000
513.7640, 6454.000
514.9450, 6462.000
516.1250, 6487.000
517.3060, 6501.000
518.4860, 6491.000
519.6660, 6485.000
520.8460, 6513.000
522.0260, 6554.000
523.2060, 6530.000
524.3850, 6562.000
525.5650, 6563.000
526.7440, 6518.000
527.9230, 6586.000
529.1020, 6567.000
530.2810, 6584.000
531.4590, 6564.000
532.6380, 6532.000
533.8160, 6637.000
534.9940, 6492.000
536.1720, 6617.000
537.3500, 6474.000
538.5270, 6617.000
539.7050, 6561.000
540.8820, 6700.000
542.0590, 6487.000
543.2360, 6485.000
544.4130, 6657.000
545.5900, 6564.000
546.7660, 6619.000
547.9430, 6638.000
549.1190, 6609.000
550.2950, 6636.286
551.4710, 6624.000
552.6470, 6644.000
553.8220, 6554.000
554.9980, 6573.000
556.1730, 6588.000
557.3480, 6601.000
558.5230, 6512.000
559.6980, 6506.000
560.8730, 6584.000
562.0470, 6670.000
563.2220, 6542.372
564.3960, 6619.448
565.5700, 6661.814
566.7440, 6671.335
567.9170, 6549.638
569.0910, 6597.383
570.2640, 6577.224
571.4380, 6554.278
572.6110, 6625.873
573.7840, 6523.261
574.9570, 6593.357
576.1290, 6594.512
577.3020, 6627.219
578.4740, 6591.603
579.6460, 6577.090
580.8180, 6630.924
581.9900, 6646.914
583.1620, 6545.000
584.3330, 6520.000
585.5040, 6676.000
586.6760, 6548.000
587.8470, 6651.000
589.0180, 6664.000
590.1880, 6597.000
591.3590, 6666.000
592.5290, 6696.000
593.7000, 6653.000
594.8700, 6633.000
596.0400, 6658.333
597.2090, 6662.000
598.3790, 6693.000
599.5490, 6690.000
600.7180, 6702.000
601.8870, 6678.000
603.0560, 6803.000
604.2250, 6660.000
605.3940, 6733.000
606.5620, 6704.000
607.7300, 6638.000
608.8990, 6786.000
610.0670, 6750.000
611.2350, 6781.000
612.4020, 6784.000
613.5700, 6818.000
614.7370, 6849.000
615.9050, 6734.000
617.0720, 6813.000
618.2390, 6970.000
619.4060, 6881.000
620.5720, 6890.000
621.7390, 6885.000
622.9050, 6757.000
624.0710, 6930.000
625.2370, 6898.000
626.4030, 6874.000
627.5690, 7001.000
628.7340, 6943.000
629.9000, 7045.000
631.0650, 6957.000
632.2300, 7005.000
633.3950, 6903.000
634.5600, 7040.000
635.7240, 6905.000
636.8890, 6986.000
638.0530, 6982.000
639.2170, 7073.000
640.3810, 6951.000
641.5450, 7074.000
642.7080, 7038.000
643.8720, 7041.000
645.0350, 7060.864
646.1980, 7149.196
647.3610, 7202.817
648.5240, 7223.593
649.6870, 7113.149
650.8490, 7172.141
652.0120, 7163.235
653.1740, 7151.537
654.3360, 7234.377
655.4980, 7143.011
656.6600, 7224.352
657.8210, 7236.744
658.9830, 7280.696
660.1440, 7256.316
661.3050, 7253.039
662.4660, 7318.109
663.6270, 7345.334
664.7870, 7313.082
665.9480, 7359.032
667.1080, 7265.263
668.2680, 7294.093
669.4280, 7375.818
670.5880, 7347.001
671.7480, 7394.192
672.9070, 7412.428
674.0670, 7299.112
675.2260, 7343.000
676.3850, 7295.000
677.5440, 7373.000
678.7030, 7443.000
679.8610, 7424.000
681.0200, 7367.000
682.1780, 7433.000
683.3360, 7451.000
684.4940, 7355.000
685.6520, 7465.000
686.8090, 7429.000
687.9670, 7528.000
689.1240, 7525.002
690.2810, 7475.000
691.4380, 7560.000
692.5950, 7487.000
693.7520, 7562.479
694.9080, 7641.000
696.0650, 7571.000
697.2210, 7581.000
698.3770, 7611.000
699.5330, 7590.000
700.6880, 7630.688
701.8440, 7669.000
702.9990, 7692.125
704.1550, 7699.415
705.3100, 7732.000
706.4650, 7675.000
707.6190, 7776.000
708.7740, 7790.000
709.9290, 7889.000
711.0830, 7726.000
712.2370, 7807.000
713.3910, 7954.000
714.5450, 7825.000
715.6980, 7890.000
716.8520, 8052.000
718.0050, 7965.000
719.1580, 8067.000
720.3110, 8016.000
721.4640, 8130.000
722.6170, 8158.000
723.7700, 8104.000
724.9220, 8150.000
726.0740, 8173.000
727.2260, 8279.000
728.3780, 8257.000
729.5300, 8324.000
730.6810, 8369.000
731.8330, 8455.000
732.9840, 8465.000
734.1350, 8523.000
735.2860, 8558.349
736.4370, 8617.000
737.5880, 8661.000
738.7380, 8533.000
739.8880, 8658.000
741.0390, 8638.000
742.1890, 8884.000
743.3380, 8701.000
744.4880, 8862.000
745.6380, 8895.000
746.7870, 8944.000
747.9360, 9085.000
749.0850, 8915.000
750.2340, 9123.000
751.3830, 9102.000
752.5310, 9274.000
753.6800, 9248.000
754.8280, 9298.000
755.9760, 9525.000
757.1240, 9455.792
758.2720, 9503.253
759.4190, 9498.000
760.5670, 9487.000
761.7140, 9569.000
762.8610, 9646.000
764.0080, 9553.000
765.1550, 9644.000
766.3020, 9612.000
767.4480, 9653.000
768.5950, 9717.000
769.7410, 9729.000
770.8870, 9813.000
772.0330, 9737.000
773.1780, 9700.000
774.3240, 9775.000
775.4690, 9826.000
776.6140, 9808.000
777.7590, 9873.119
778.9040, 9866.172
780.0490, 9922.000
781.1940, 9906.000
782.3380, 9888.000
783.4820, 9982.000
784.6260, 9839.000
785.7700, 9961.000
786.9140, 9971.000
788.0580, 9882.000
789.2010, 9996.000
790.3450, 9965.000
791.4880, 10028.00
792.6310, 10004.00
793.7730, 10006.00
794.9160, 9915.000
796.0590, 10031.00
797.2010, 9900.000
798.3430, 10112.00
799.4850, 10011.00
800.6270, 9968.000
801.7690, 9956.000
802.9100, 10083.00
804.0520, 10154.00
805.1930, 9950.000
806.3340, 10162.00
807.4750, 9974.000
808.6160, 10108.00
809.7560, 10094.00
810.8970, 10000.00
812.0370, 10206.00
813.1770, 10225.00
814.3170, 10088.00
815.4570, 10139.00
816.5960, 10085.00
817.7360, 10205.00
818.8750, 10268.00
820.0140, 10312.00
821.1530, 10360.00
822.2920, 10380.00
823.4310, 10377.00
824.5690, 10612.00
825.7070, 10480.00
826.8460, 10470.00
827.9840, 10596.00
829.1220, 10423.00
830.2590, 10577.00
831.3970, 10671.00
832.5340, 10856.00
833.6710, 10874.00
834.8080, 10819.00
835.9450, 10912.00
837.0820, 10860.00
838.2190, 11009.00
839.3550, 11027.00
840.4910, 11087.00
841.6270, 11250.00
842.7630, 11374.00
843.8990, 11485.00
845.0350, 11467.00
846.1700, 11711.00
847.3060, 11887.00
848.4410, 11886.00
849.5760, 12157.00
850.7100, 12172.00
851.8450, 12475.00
852.9800, 12650.00
854.1140, 12865.00
855.2480, 12912.00
856.3820, 13161.00
857.5160, 13333.00
858.6500, 13532.00
859.7830, 13749.00
860.9170, 14066.00
862.0500, 14313.00
863.1830, 14466.00
864.3160, 14668.00
865.4480, 14775.00
866.5810, 14947.00
867.7130, 15133.00
868.8460, 15151.00
869.9780, 14956.00
871.1100, 14933.00
872.2410, 14668.00
873.3730, 14430.00
874.5050, 14104.00
875.6360, 13435.00
876.7670, 13002.00
877.8980, 12381.00
879.0290, 11709.00
880.1590, 11036.00
881.2900, 10549.00
882.4200, 9912.000
883.5500, 9494.000
884.6800, 9070.000
885.8100, 8750.000
886.9400, 8399.000
888.0690, 8098.000
889.1990, 7872.000
890.3280, 7739.000
891.4570, 7468.000
892.5860, 7208.000
893.7140, 7197.000
894.8430, 7024.000
895.9710, 6897.000
897.1000, 6733.000
898.2280, 6673.000
899.3560, 6601.000
900.4830, 6556.000
901.6110, 6537.000
902.7380, 6414.000
903.8660, 6427.000
904.9930, 6448.000
906.1200, 6222.000
907.2460, 6304.000
908.3730, 6169.000
909.5000, 6094.000
910.6260, 6186.000
911.7520, 6062.904
912.8780, 6128.994
914.0040, 6160.372
915.1290, 6158.917
916.2550, 6026.231
917.3800, 6063.000
918.5050, 6031.863
919.6300, 5997.942
920.7550, 6058.559
921.8800, 5944.970
923.0040, 6004.099
924.1290, 5994.275
925.2530, 6016.017
926.3770, 5969.433
927.5010, 5890.000
928.6250, 5887.000
929.7480, 5818.000
930.8720, 5847.000
931.9950, 5926.000
933.1180, 5811.000
934.2410, 5791.000
935.3640, 5813.000
936.4860, 5715.000
937.6090, 5760.000
938.7310, 5667.000
939.8530, 5688.000
940.9750, 5735.000
942.0970, 5755.000
943.2180, 5658.000
944.3400, 5664.000
945.4610, 5676.000
946.5820, 5745.000
947.7030, 5609.000
948.8240, 5724.000
949.9450, 5630.000
951.0650, 5677.000
952.1860, 5611.000
953.3060, 5613.000
954.4260, 5662.000
955.5460, 5746.000
956.6650, 5680.000
957.7850, 5635.000
958.9040, 5691.000
960.0230, 5587.000
961.1420, 5633.000
962.2610, 5713.000
963.3800, 5646.000
964.4990, 5764.000
965.6170, 5647.000
966.7350, 5619.000
967.8530, 5607.000
968.9710, 5606.170
970.0890, 5615.000
971.2070, 5687.000
972.3240, 5596.000
973.4410, 5635.000
974.5580, 5702.000
975.6750, 5684.309
976.7920, 5604.000
977.9090, 5698.000
979.0250, 5769.000
980.1410, 5685.250
981.2580, 5728.376
982.3740, 5832.000
983.4890, 5711.000
984.6050, 5655.000
985.7200, 5715.000
986.8360, 5722.000
987.9510, 5690.000
989.0660, 5698.390
990.1810, 5693.000
991.2950, 5666.000
992.4100, 5628.000
993.5240, 5642.000
994.6390, 5707.000
995.7530, 5689.000
996.8660, 5679.000
997.9800, 5719.000
999.0940, 5590.000
1000.207, 5828.000
1001.320, 5641.000
1002.433, 5668.000
1003.546, 5716.000
1004.659, 5682.000
1005.772, 5740.000
1006.884, 5655.000
1007.996, 5696.000
1009.108, 5711.000
1010.220, 5656.000
1011.332, 5763.000
1012.444, 5640.000
1013.555, 5665.000
1014.666, 5635.000
1015.777, 5735.000
1016.888, 5639.000
1017.999, 5651.000
1019.110, 5662.000
1020.220, 5698.000
1021.331, 5716.000
1022.441, 5607.000
1023.551, 5733.000
1024.661, 5613.000
1025.770, 5750.000
1026.880, 5686.000
1027.989, 5658.000
1029.098, 5686.000
1030.207, 5628.000
1031.316, 5578.000
1032.425, 5658.000
1033.533, 5628.000
1034.642, 5594.000
1035.750, 5557.000
1036.858, 5702.000
1037.966, 5596.000
1039.073, 5630.000
1040.181, 5638.000
1041.288, 5614.000
1042.396, 5666.000
1043.503, 5576.000
1044.610, 5666.000
1045.716, 5586.000
1046.823, 5609.000
1047.929, 5656.000
1049.036, 5632.000
1050.142, 5726.000
1051.248, 5569.000
1052.353, 5761.000
1053.459, 5613.000
1054.564, 5702.000
1055.670, 5661.000
1056.775, 5716.000
1057.880, 5734.000
1058.985, 5744.000
1060.089, 5667.000
1061.194, 5678.000
1062.298, 5633.000
1063.402, 5696.000
1064.506, 5681.000
1065.610, 5592.000
1066.713, 5693.000
1067.817, 5680.000
1068.920, 5715.000
1070.023, 5689.000
1071.126, 5644.000
1072.229, 5695.000
1073.332, 5669.000
1074.435, 5657.000
1075.537, 5667.000
1076.639, 5722.000
1077.741, 5572.000
1078.843, 5652.000
1079.945, 5762.000
1081.046, 5654.000
1082.148, 5866.000
1083.249, 5723.296
1084.350, 5715.000
1085.451, 5564.000
1086.551, 5649.000
1087.652, 5678.000
1088.752, 5703.000
1089.853, 5640.000
1090.953, 5615.000
1092.053, 5598.000
1093.152, 5648.000
1094.252, 5611.000
1095.351, 5639.000
1096.451, 5629.562
1097.550, 5645.000
1098.649, 5607.000
1099.748, 5631.000
1100.846, 5621.000
1101.945, 5647.000
1103.043, 5566.000
1104.141, 5611.000
1105.239, 5594.320
1106.337, 5528.000
1107.434, 5618.000
1108.532, 5571.000
1109.629, 5619.000
1110.726, 5555.000
1111.823, 5464.000
1112.920, 5508.000
1114.017, 5519.000
1115.113, 5657.000
1116.210, 5645.000
1117.306, 5573.000
1118.402, 5510.000
1119.498, 5671.000
1120.593, 5719.000
1121.689, 5769.000
1122.784, 5680.000
1123.879, 5701.000
1124.974, 5715.000
1126.069, 5612.000
1127.164, 5603.000
1128.259, 5547.000
1129.353, 5536.000
1130.447, 5469.000
1131.541, 5500.000
1132.635, 5468.000
1133.729, 5453.000
1134.822, 5364.000
1135.916, 5444.000
1137.009, 5386.000
1138.102, 5345.000
1139.195, 5413.000
1140.288, 5378.000
1141.380, 5416.000
1142.473, 5386.000
1143.565, 5362.000
1144.657, 5428.000
1145.749, 5436.000
1146.841, 5366.000
1147.932, 5502.000
1149.024, 5324.000
1150.115, 5397.000
1151.206, 5303.000
1152.297, 5347.000
1153.388, 5451.000
1154.479, 5407.000
1155.569, 5328.000
1156.659, 5298.000
1157.750, 5433.000
1158.839, 5354.000
1159.929, 5382.000
1161.019, 5304.000
1162.108, 5418.000
1163.198, 5416.000
1164.287, 5257.000
1165.376, 5463.000
1166.465, 5401.000
1167.553, 5368.000
1168.642, 5349.000
1169.730, 5351.000
1170.818, 5263.838
1171.906, 5340.894
1172.994, 5383.238
1174.082, 5392.738
1175.170, 5271.018
1176.257, 5318.744
1177.344, 5298.563
1178.431, 5275.599
1179.518, 5347.172
1180.605, 5244.540
1181.691, 5314.616
1182.778, 5315.749
1183.864, 5348.436
1184.950, 5312.799
1186.036, 5298.266
1187.122, 5352.078
1188.207, 5368.049
1189.292, 5269.000
1190.378, 5226.000
1191.463, 5251.000
1192.548, 5356.000
1193.632, 5311.000
1194.717, 5315.000
1195.801, 5274.000
1196.886, 5326.000
1197.970, 5321.000
1199.054, 5260.000
1200.137, 5256.000
1201.221, 5207.000
1202.305, 5283.000
1203.388, 5289.000
1204.471, 5304.000
1205.554, 5238.000
1206.637, 5241.000
1207.719, 5175.000
1208.802, 5207.525
1209.884, 5261.000
1210.966, 5292.000
1212.048, 5300.460
1213.130, 5377.000
1214.212, 5249.000
1215.293, 5277.000
1216.374, 5217.000
1217.456, 5298.000
1218.536, 5269.000
1219.617, 5269.000
1220.698, 5311.000
1221.778, 5229.000
1222.859, 5277.000
1223.939, 5306.000
1225.019, 5217.000
1226.099, 5211.000
1227.178, 5347.000
1228.258, 5278.000
1229.337, 5274.000
1230.417, 5358.000
1231.496, 5214.000
1232.574, 5299.000
1233.653, 5293.000
1234.732, 5308.000
1235.810, 5308.000
1236.888, 5206.000
1237.966, 5337.000
1239.044, 5282.300
1240.122, 5333.000
1241.199, 5227.000
1242.277, 5291.000
1243.354, 5135.000
1244.431, 5307.000
1245.508, 5281.000
1246.585, 5277.000
1247.661, 5360.000
1248.738, 5397.000
1249.814, 5233.000
1250.890, 5286.000
1251.966, 5275.000
1253.042, 5257.000
1254.117, 5226.000
1255.193, 5244.000
1256.268, 5291.000
1257.343, 5259.000
1258.418, 5340.000
1259.493, 5181.000
1260.567, 5312.000
1261.642, 5286.000
1262.716, 5215.000
1263.790, 5298.000
1264.864, 5190.000
1265.938, 5255.000
1267.011, 5343.000
1268.085, 5287.000
1269.158, 5233.000
1270.231, 5269.000
1271.304, 5293.000
1272.377, 5253.000
1273.450, 5241.000
1274.522, 5236.000
1275.594, 5229.000
1276.666, 5256.000
1277.738, 5234.681
1278.810, 5264.000
1279.882, 5270.000
1280.953, 5255.000
1282.025, 5396.000
1283.096, 5282.751
1284.167, 5323.000
1285.238, 5224.000
1286.308, 5163.000
1287.379, 5330.000
1288.449, 5149.000
1289.519, 5250.000
1290.589, 5271.000
1291.659, 5329.000
1292.729, 5255.000
1293.798, 5286.000
1294.868, 5317.000
1295.937, 5266.000
1297.006, 5273.000
1298.075, 5329.000
1299.143, 5296.000
1300.212, 5234.000
1301.280, 5229.000
1302.348, 5303.000
1303.416, 5288.000
1304.484, 5305.000
1305.552, 5314.000
1306.620, 5325.000
1307.687, 5317.673
1308.754, 5341.000
1309.821, 5302.000
1310.888, 5278.000
1311.955, 5284.000
1313.021, 5275.000
1314.088, 5289.000
1315.154, 5225.000
1316.220, 5447.000
1317.286, 5335.000
1318.352, 5383.000
1319.417, 5289.000
1320.483, 5336.000
1321.548, 5321.000
1322.613, 5354.000
1323.678, 5299.000
1324.743, 5380.000
1325.807, 5335.000
1326.872, 5418.000
1327.936, 5414.000
1329.000, 5388.188
1330.064, 5310.000
1331.128, 5319.000
1332.191, 5362.000
1333.255, 5310.000
1334.318, 5412.000
1335.381, 5339.000
1336.444, 5262.000
1337.507, 5392.000
1338.569, 5362.000
1339.632, 5381.000
1340.694, 5403.000
1341.756, 5322.000
1342.818, 5326.720
1343.880, 5341.984
1344.941, 5321.000
1346.003, 5334.000
1347.064, 5471.000
1348.125, 5353.000
1349.186, 5437.000
1350.247, 5362.000
1351.308, 5391.000
1352.368, 5378.000
1353.428, 5334.000
1354.489, 5398.000
1355.549, 5384.000
1356.608, 5317.000
1357.668, 5395.000
1358.727, 5421.000
1359.787, 5371.000
1360.846, 5352.000
1361.905, 5411.000
1362.964, 5304.000
1364.022, 5381.000
1365.081, 5322.000
1366.139, 5415.000
1367.197, 5501.000
1368.255, 5366.000
1369.313, 5433.000
1370.371, 5330.000
1371.428, 5422.000
1372.486, 5349.000
1373.543, 5337.000
1374.600, 5361.000
1375.657, 5431.000
1376.713, 5402.000
1377.770, 5390.000
1378.826, 5403.191
1379.882, 5397.590
1380.938, 5388.000
1381.994, 5393.000
1383.050, 5389.000
1384.106, 5388.449
1385.161, 5382.000
1386.216, 5396.836
1387.271, 5384.000
1388.326, 5403.834
1389.381, 5411.000
1390.435, 5399.000
1391.490, 5402.000
1392.544, 5396.000
1393.598, 5390.000
1394.652, 5401.289
1395.705, 5394.000
1396.759, 5409.000
1397.812, 5390.000
1398.866, 5363.000
1399.919, 5462.000
1400.972, 5418.000
1402.024, 5365.000
1403.077, 5513.000
1404.129, 5454.000
1405.181, 5481.000
1406.233, 5423.000
1407.285, 5415.000
1408.337, 5473.000
1409.389, 5463.000
1410.440, 5434.000
1411.491, 5458.000
1412.542, 5432.000
1413.593, 5381.000
1414.644, 5469.000
1415.695, 5477.000
1416.745, 5387.000
1417.795, 5397.000
1418.845, 5401.000
1419.895, 5424.000
1420.945, 5456.000
1421.995, 5431.000
1423.044, 5440.000
1424.093, 5398.000
1425.142, 5362.000
1426.191, 5428.000
1427.240, 5449.000
1428.289, 5462.000
1429.337, 5429.000
1430.385, 5518.000
1431.433, 5449.000
1432.481, 5353.000
1433.529, 5395.000
1434.577, 5488.000
1435.624, 5471.000
1436.672, 5401.000
1437.719, 5510.000
1438.766, 5523.000
1439.812, 5455.000
1440.859, 5494.000
1441.905, 5508.000
1442.952, 5389.000
1443.998, 5398.000
1445.044, 5462.000
1446.090, 5447.000
1447.135, 5488.000
1448.181, 5473.000
1449.226, 5436.000
1450.271, 5499.000
1451.316, 5415.000
1452.361, 5485.000
1453.405, 5519.000
1454.450, 5520.000
1455.494, 5499.000
1456.538, 5510.000
1457.582, 5444.000
1458.626, 5493.000
1459.670, 5574.000
1460.713, 5535.000
1461.757, 5560.000
1462.800, 5512.000
1463.843, 5608.000
1464.886, 5607.000
1465.928, 5515.000
1466.971, 5518.000
1468.013, 5464.000
1469.055, 5518.000
1470.097, 5461.000
1471.139, 5444.000
1472.181, 5513.000
1473.222, 5457.000
1474.263, 5559.000
1475.305, 5440.000
1476.346, 5480.000
1477.386, 5436.000
1478.427, 5546.000
1479.468, 5599.000
1480.508, 5617.000
1481.548, 5546.000
1482.588, 5568.000
1483.628, 5522.000
1484.668, 5578.000
1485.707, 5458.000
1486.747, 5607.000
1487.786, 5477.000
1488.825, 5436.000
1489.864, 5657.000
1490.902, 5476.000
1491.941, 5572.000
1492.979, 5615.000
1494.017, 5624.000
1495.055, 5568.000
1496.093, 5601.000
1497.131, 5558.000
1498.168, 5587.000
1499.206, 5591.000
1500.243, 5562.000
1501.280, 5588.830
1502.317, 5594.000
1503.354, 5620.000
1504.390, 5617.000
1505.426, 5659.000
1506.463, 5653.037
1507.499, 5676.421
1508.535, 5646.528
1509.570, 5624.000
1510.606, 5602.069
1511.641, 5557.000
1512.676, 5589.000
1513.711, 5589.000
1514.746, 5598.000
1515.781, 5562.000
1516.816, 5654.000
1517.850, 5526.000
1518.884, 5715.000
1519.918, 5715.000
1520.952, 5709.000
1521.986, 5651.000
1523.019, 5741.000
1524.053, 5670.000
1525.086, 5583.000
1526.119, 5582.000
1527.152, 5705.000
1528.185, 5618.000
1529.217, 5672.000
1530.250, 5638.000
1531.282, 5708.000
1532.314, 5637.000
1533.346, 5727.000
1534.377, 5620.000
1535.409, 5674.000
1536.440, 5625.823
1537.472, 5707.770
1538.503, 5755.003
1539.534, 5769.392
1540.564, 5652.557
1541.595, 5705.169
1542.625, 5689.873
1543.656, 5671.795
1544.686, 5748.252
1545.716, 5650.504
1546.745, 5725.460
1547.775, 5731.477
1548.804, 5769.044
1549.834, 5738.289
1550.863, 5728.635
1551.892, 5787.327
1552.920, 5808.173
1553.949, 5769.551
1554.977, 5809.121
1556.006, 5708.983
1557.034, 5731.441
1558.062, 5806.794
1559.089, 5771.602
1560.117, 5812.422
1561.144, 5732.000
1562.172, 5773.000
1563.199, 5780.000
1564.226, 5761.000
1565.252, 5768.000
1566.279, 5838.000
1567.305, 5756.000
1568.332, 5737.000
1569.358, 5839.000
1570.384, 5841.000
1571.409, 5804.000
##END=



