##NAMES=Corundum
##RRUFFID=R060020
##IDEAL CHEMISTRY=Al_2_O_3_
##LOCALITY=Yogo Gulch, Montana, USA
##OWNER=RRUFF
##SOURCE=American Museum of Natural History
##DESCRIPTION=Water rounded light blue fragment
##STATUS=The identification of this mineral has been confirmed by X-ray diffraction and chemical analysis
##URL=rruff.info/R060020
##MEASURED CHEMISTRY=(Al_1.99_Fe^3+^_0.01_)_Î£=2_O_3_ ; Fe^3+^ by charge balance
##PIN_ID=L01955
##ORIENTATION=Laser parallel to c* (0 0 1). Fiducial mark perpendicular to laser is parallel to b [0 1 0]
179.5050, 10463.00
180.7290, 10470.00
181.9520, 10397.00
183.1760, 10483.00
184.3990, 10468.00
185.6220, 10544.00
186.8450, 10572.88
188.0670, 10475.00
189.2900, 10622.00
190.5120, 10630.00
191.7340, 10610.00
192.9560, 10807.00
194.1780, 11195.00
195.4000, 11169.00
196.6220, 11101.00
197.8430, 11054.00
199.0640, 10973.00
200.2860, 10795.00
201.5070, 10967.00
202.7270, 10879.00
203.9480, 11045.00
205.1690, 10951.00
206.3890, 10823.00
207.6090, 10669.00
208.8290, 10693.00
210.0490, 10723.00
211.2690, 10675.00
212.4890, 10729.00
213.7080, 10646.00
214.9280, 10717.00
216.1470, 10792.00
217.3660, 10800.00
218.5850, 10792.00
219.8030, 10859.00
221.0220, 10738.00
222.2400, 10673.00
223.4590, 10782.00
224.6770, 10815.00
225.8950, 10771.00
227.1120, 10757.00
228.3300, 10807.00
229.5480, 10895.00
230.7650, 11015.00
231.9820, 10975.00
233.1990, 11061.00
234.4160, 11021.00
235.6330, 10978.00
236.8490, 11018.00
238.0660, 11115.00
239.2820, 11103.00
240.4980, 11087.00
241.7140, 11195.00
242.9300, 11211.00
244.1460, 11112.00
245.3610, 11196.00
246.5770, 11158.00
247.7920, 11093.00
249.0070, 11121.00
250.2220, 11155.00
251.4370, 11186.00
252.6510, 11204.00
253.8660, 11195.00
255.0800, 11247.00
256.2940, 11297.00
257.5080, 11453.00
258.7220, 11485.88
259.9360, 11427.00
261.1490, 11579.00
262.3630, 11527.00
263.5760, 11466.00
264.7890, 11408.00
266.0020, 11333.00
267.2150, 11491.00
268.4270, 11575.00
269.6400, 11492.00
270.8520, 11661.00
272.0640, 11570.00
273.2760, 11804.00
274.4880, 11744.00
275.7000, 11901.00
276.9120, 11892.00
278.1230, 11904.00
279.3340, 12109.00
280.5450, 12002.00
281.7560, 12085.00
282.9670, 12154.00
284.1780, 11956.00
285.3880, 11977.00
286.5980, 11975.00
287.8090, 11805.00
289.0190, 11793.00
290.2290, 11762.00
291.4380, 11882.00
292.6480, 11837.00
293.8570, 11857.00
295.0670, 11803.00
296.2760, 11858.00
297.4850, 11887.00
298.6930, 11872.00
299.9020, 11847.00
301.1110, 11796.00
302.3190, 11939.00
303.5270, 11797.00
304.7350, 12042.00
305.9430, 11907.00
307.1510, 11922.00
308.3580, 11971.00
309.5660, 11889.00
310.7730, 11938.00
311.9800, 12059.00
313.1870, 12103.00
314.3940, 12142.00
315.6010, 12169.00
316.8070, 12098.00
318.0130, 12195.00
319.2200, 12158.00
320.4260, 12135.00
321.6310, 12295.00
322.8370, 12230.10
324.0430, 12254.00
325.2480, 12278.00
326.4540, 12207.00
327.6590, 12318.00
328.8640, 12246.00
330.0680, 12204.00
331.2730, 12274.00
332.4780, 12321.00
333.6820, 12354.00
334.8860, 12419.00
336.0900, 12297.00
337.2940, 12455.00
338.4980, 12422.00
339.7010, 12360.00
340.9050, 12408.00
342.1080, 12498.00
343.3110, 12459.00
344.5140, 12602.00
345.7170, 12543.00
346.9200, 12514.00
348.1220, 12544.00
349.3240, 12601.00
350.5270, 12764.00
351.7290, 12728.00
352.9310, 12680.00
354.1320, 12841.00
355.3340, 12811.00
356.5350, 12878.00
357.7370, 12897.00
358.9380, 12912.00
360.1390, 12988.00
361.3400, 13124.00
362.5400, 13041.00
363.7410, 13150.00
364.9410, 13175.00
366.1410, 13164.00
367.3410, 13362.00
368.5410, 13182.00
369.7410, 13383.00
370.9400, 13401.00
372.1400, 13590.00
373.3390, 13681.00
374.5380, 13723.00
375.7370, 14055.00
376.9360, 14148.00
378.1350, 14356.00
379.3330, 14290.00
380.5310, 14369.00
381.7300, 14262.00
382.9280, 14269.00
384.1260, 14201.00
385.3230, 14301.00
386.5210, 14334.00
387.7180, 14499.00
388.9160, 14570.49
390.1130, 14637.00
391.3100, 14741.00
392.5060, 14787.00
393.7030, 14792.00
394.9000, 14994.00
396.0960, 14937.00
397.2920, 15014.00
398.4880, 15007.00
399.6840, 14888.00
400.8800, 14818.00
402.0750, 14889.00
403.2710, 14674.00
404.4660, 14691.00
405.6610, 14729.00
406.8560, 14658.00
408.0510, 14869.00
409.2450, 15207.00
410.4400, 15415.00
411.6340, 15680.00
412.8280, 16123.00
414.0220, 16798.00
415.2160, 17699.00
416.4100, 17843.00
417.6030, 17539.00
418.7970, 17084.00
419.9900, 16428.00
421.1830, 15710.00
422.3760, 15231.00
423.5690, 14888.00
424.7610, 14808.00
425.9540, 14616.00
427.1460, 14504.00
428.3380, 14673.00
429.5300, 14716.00
430.7220, 14558.00
431.9140, 14626.00
433.1050, 14588.00
434.2970, 14648.00
435.4880, 14555.00
436.6790, 14606.00
437.8700, 14457.00
439.0610, 14416.00
440.2510, 14535.00
441.4420, 14548.00
442.6320, 14565.90
443.8220, 14619.00
445.0120, 14632.00
446.2020, 14683.00
447.3910, 14778.00
448.5810, 14846.00
449.7700, 14867.00
450.9600, 14858.00
452.1490, 14900.00
453.3370, 14641.00
454.5260, 14816.00
455.7150, 14752.00
456.9030, 14811.00
458.0910, 14845.00
459.2800, 14882.00
460.4670, 14849.00
461.6550, 14730.00
462.8430, 14753.00
464.0300, 14817.00
465.2180, 14850.00
466.4050, 14904.00
467.5920, 14992.00
468.7790, 14964.00
469.9650, 14984.00
471.1520, 14906.00
472.3380, 14976.00
473.5250, 14917.00
474.7110, 15078.00
475.8970, 15118.00
477.0820, 15163.00
478.2680, 15075.00
479.4540, 15168.00
480.6390, 15199.00
481.8240, 15163.25
483.0090, 15373.00
484.1940, 15188.00
485.3780, 15255.00
486.5630, 15390.00
487.7470, 15590.00
488.9320, 15628.00
490.1160, 15476.00
491.3000, 15450.00
492.4830, 15575.00
493.6670, 15673.00
494.8500, 15667.00
496.0340, 15785.00
497.2170, 15779.37
498.4000, 15711.00
499.5820, 15813.00
500.7650, 15799.00
501.9480, 15862.00
503.1300, 15958.00
504.3120, 15920.00
505.4940, 16271.00
506.6760, 16162.00
507.8580, 16379.00
509.0390, 16460.00
510.2210, 16622.00
511.4020, 16743.00
512.5830, 16999.00
513.7640, 16986.00
514.9450, 17014.00
516.1250, 16828.00
517.3060, 16952.00
518.4860, 16852.00
519.6660, 16952.00
520.8460, 16818.00
522.0260, 16828.00
523.2060, 16675.00
524.3850, 16709.00
525.5650, 16708.00
526.7440, 16588.00
527.9230, 16563.00
529.1020, 16642.00
530.2810, 16549.00
531.4590, 16440.00
532.6380, 16594.00
533.8160, 16562.00
534.9940, 16543.00
536.1720, 16568.00
537.3500, 16610.00
538.5270, 16591.00
539.7050, 16544.00
540.8820, 16592.00
542.0590, 16521.00
543.2360, 16511.00
544.4130, 16408.00
545.5900, 16674.00
546.7660, 16579.00
547.9430, 16770.00
549.1190, 16642.00
550.2950, 16806.00
551.4710, 16739.00
552.6470, 16709.00
553.8220, 16648.00
554.9980, 16641.00
556.1730, 16680.24
557.3480, 16817.00
558.5230, 16788.00
559.6980, 16815.00
560.8730, 16833.00
562.0470, 17041.00
563.2220, 16951.00
564.3960, 16971.00
565.5700, 16891.00
566.7440, 16852.00
567.9170, 16972.00
569.0910, 16985.78
570.2640, 17225.00
571.4380, 17214.00
572.6110, 17299.00
573.7840, 17503.00
574.9570, 17586.00
576.1290, 17783.00
577.3020, 17545.00
578.4740, 17528.00
579.6460, 17712.00
580.8180, 17443.00
581.9900, 17513.00
583.1620, 17414.00
584.3330, 17376.00
585.5040, 17349.00
586.6760, 17298.00
587.8470, 17227.00
589.0180, 17444.00
590.1880, 17488.00
591.3590, 17558.00
592.5290, 17471.00
593.7000, 17653.00
594.8700, 17385.00
596.0400, 17649.00
597.2090, 17766.00
598.3790, 17540.00
599.5490, 17649.00
600.7180, 17802.00
601.8870, 17732.00
603.0560, 17833.00
604.2250, 17915.00
605.3940, 17956.00
606.5620, 17838.00
607.7300, 18136.00
608.8990, 18081.00
610.0670, 18175.00
611.2350, 18015.00
612.4020, 18082.00
613.5700, 18277.00
614.7370, 18339.00
615.9050, 18593.00
617.0720, 18401.00
618.2390, 18611.00
619.4060, 18522.00
620.5720, 18718.00
621.7390, 18863.00
622.9050, 19016.00
624.0710, 19163.08
625.2370, 19199.00
626.4030, 19417.00
627.5690, 19589.00
628.7340, 19692.00
629.9000, 20037.00
631.0650, 20133.00
632.2300, 20293.00
633.3950, 20473.00
634.5600, 20919.00
635.7240, 20814.00
636.8890, 20951.00
638.0530, 21012.00
639.2170, 20956.00
640.3810, 21025.00
641.5450, 21011.00
642.7080, 20658.00
643.8720, 20752.00
645.0350, 20421.00
646.1980, 20081.00
647.3610, 20272.00
648.5240, 19901.00
649.6870, 19803.00
650.8490, 19957.00
652.0120, 19695.00
653.1740, 19676.00
654.3360, 19639.00
655.4980, 19587.00
656.6600, 19681.00
657.8210, 19575.00
658.9830, 19381.00
660.1440, 19421.00
661.3050, 19534.00
662.4660, 19326.00
663.6270, 19392.00
664.7870, 19292.00
665.9480, 19342.00
667.1080, 19448.00
668.2680, 19348.00
669.4280, 19683.00
670.5880, 19449.00
671.7480, 19439.00
672.9070, 19636.00
674.0670, 19659.00
675.2260, 19532.00
676.3850, 19476.00
677.5440, 19493.00
678.7030, 19533.00
679.8610, 19653.00
681.0200, 19702.00
682.1780, 19601.00
683.3360, 19707.00
684.4940, 19642.00
685.6520, 19745.00
686.8090, 19715.00
687.9670, 19586.00
689.1240, 19641.00
690.2810, 19743.00
691.4380, 19425.00
692.5950, 19490.00
693.7520, 19670.00
694.9080, 19745.00
696.0650, 19654.00
697.2210, 19950.00
698.3770, 19706.00
699.5330, 19957.00
700.6880, 19701.00
701.8440, 19942.00
702.9990, 19914.00
704.1550, 19984.00
705.3100, 20001.00
706.4650, 19882.00
707.6190, 19904.00
708.7740, 20222.00
709.9290, 20145.00
711.0830, 20429.00
712.2370, 20344.00
713.3910, 20631.00
714.5450, 20442.00
715.6980, 20517.00
716.8520, 20562.00
718.0050, 20493.00
719.1580, 20465.00
720.3110, 20526.00
721.4640, 20740.00
722.6170, 20586.00
723.7700, 20359.00
724.9220, 20627.00
726.0740, 20603.00
727.2260, 20800.00
728.3780, 20738.00
729.5300, 20674.00
730.6810, 20719.00
731.8330, 20717.00
732.9840, 20783.37
734.1350, 20875.36
735.2860, 20974.00
736.4370, 21127.00
737.5880, 21259.00
738.7380, 21439.00
739.8880, 21566.02
741.0390, 21683.00
742.1890, 21862.00
743.3380, 21971.00
744.4880, 22163.00
745.6380, 22403.00
746.7870, 22502.00
747.9360, 22521.00
749.0850, 22591.19
750.2340, 22555.74
751.3830, 22567.00
752.5310, 22472.00
753.6800, 22444.00
754.8280, 22439.00
755.9760, 22318.00
757.1240, 22199.00
758.2720, 22147.00
759.4190, 22068.00
760.5670, 21988.00
761.7140, 21968.93
762.8610, 21933.25
764.0080, 21938.00
765.1550, 21934.00
766.3020, 21943.00
767.4480, 21980.00
768.5950, 21966.00
769.7410, 22046.00
770.8870, 21914.00
772.0330, 21950.00
773.1780, 22125.00
774.3240, 22092.00
775.4690, 22286.00
776.6140, 22037.00
777.7590, 22044.00
778.9040, 22180.00
780.0490, 22187.00
781.1940, 22186.00
782.3380, 22199.00
783.4820, 22174.00
784.6260, 22098.00
785.7700, 22282.00
786.9140, 22507.00
788.0580, 22352.00
789.2010, 22550.00
790.3450, 22573.00
791.4880, 22240.00
792.6310, 22588.00
793.7730, 22573.00
794.9160, 22604.00
796.0590, 22739.00
797.2010, 22897.00
798.3430, 22625.00
799.4850, 22858.00
800.6270, 22734.00
801.7690, 22847.00
802.9100, 22750.00
804.0520, 22863.00
805.1930, 23198.00
806.3340, 22818.00
807.4750, 22898.00
808.6160, 23112.00
809.7560, 22887.00
810.8970, 23247.00
812.0370, 23227.00
813.1770, 23304.00
814.3170, 23216.00
815.4570, 23353.00
816.5960, 23200.00
817.7360, 23180.00
818.8750, 23128.00
820.0140, 23455.00
821.1530, 23403.00
822.2920, 23208.00
823.4310, 23395.00
824.5690, 23282.00
825.7070, 23381.00
826.8460, 23456.00
827.9840, 23482.00
829.1220, 23584.00
830.2590, 23439.00
831.3970, 23564.00
832.5340, 23640.00
833.6710, 23383.00
834.8080, 23676.00
835.9450, 23573.00
837.0820, 23640.00
838.2190, 23588.00
839.3550, 23839.00
840.4910, 23801.00
841.6270, 23817.00
842.7630, 23806.00
843.8990, 23832.00
845.0350, 23853.10
846.1700, 23893.12
847.3060, 23914.00
848.4410, 23980.00
849.5760, 24016.00
850.7100, 24020.00
851.8450, 23984.00
852.9800, 24168.00
854.1140, 24018.00
855.2480, 24245.00
856.3820, 24235.00
857.5160, 24295.00
858.6500, 24344.00
859.7830, 24306.00
860.9170, 24315.00
862.0500, 24167.00
863.1830, 24389.00
864.3160, 24228.00
865.4480, 24283.00
866.5810, 24446.00
867.7130, 24466.00
868.8460, 24558.00
869.9780, 24572.92
871.1100, 24486.00
872.2410, 24566.00
873.3730, 24564.00
874.5050, 24575.00
875.6360, 24776.00
876.7670, 24400.00
877.8980, 24737.00
879.0290, 24605.00
880.1590, 24786.00
881.2900, 24828.00
882.4200, 24650.00
883.5500, 24832.00
884.6800, 24793.00
885.8100, 24843.00
886.9400, 24839.00
888.0690, 24831.00
889.1990, 25074.00
890.3280, 25071.00
891.4570, 25130.00
892.5860, 25164.00
893.7140, 25138.00
894.8430, 25178.00
895.9710, 25170.90
897.1000, 25209.00
898.2280, 25225.00
899.3560, 25307.00
900.4830, 25458.00
901.6110, 25265.00
902.7380, 25453.00
903.8660, 25555.00
904.9930, 25393.00
906.1200, 25525.00
907.2460, 25459.00
908.3730, 25582.00
909.5000, 25584.42
910.6260, 25691.00
911.7520, 25666.00
912.8780, 25597.00
914.0040, 25741.00
915.1290, 25809.00
916.2550, 25776.00
917.3800, 25774.00
918.5050, 25705.00
919.6300, 25835.00
920.7550, 25961.00
921.8800, 26137.00
923.0040, 26026.00
924.1290, 26136.00
925.2530, 26130.00
926.3770, 26230.00
927.5010, 26369.00
928.6250, 26351.55
929.7480, 26376.48
930.8720, 26381.00
931.9950, 26339.00
933.1180, 26337.00
934.2410, 26388.00
935.3640, 26514.00
936.4860, 26376.00
937.6090, 26427.00
938.7310, 26761.00
939.8530, 26544.00
940.9750, 26755.00
942.0970, 26617.00
943.2180, 26843.00
944.3400, 26802.00
945.4610, 26766.00
946.5820, 26725.00
947.7030, 26820.00
948.8240, 26940.00
949.9450, 26793.18
951.0650, 27227.01
952.1860, 27487.53
953.3060, 27583.99
954.4260, 27025.17
955.5460, 27312.51
956.6650, 27260.71
957.7850, 27195.04
958.9040, 27601.45
960.0230, 27137.90
961.1420, 27536.82
962.2610, 27591.46
963.3800, 27803.67
964.4990, 27674.67
965.6170, 27651.03
966.7350, 27968.70
967.8530, 28097.38
968.9710, 27929.08
970.0890, 28151.27
971.2070, 27675.76
972.3240, 27880.00
973.4410, 28003.00
974.5580, 28035.00
975.6750, 27934.00
976.7920, 28014.00
977.9090, 27865.00
979.0250, 28200.00
980.1410, 28264.00
981.2580, 28038.00
982.3740, 27798.00
983.4890, 28269.00
984.6050, 28303.00
985.7200, 28318.00
986.8360, 28756.00
987.9510, 28880.00
989.0660, 28876.00
990.1810, 28818.00
991.2950, 28459.00
992.4100, 28647.00
993.5240, 28793.00
994.6390, 28374.00
995.7530, 28750.00
996.8660, 28516.00
997.9800, 28605.00
999.0940, 28611.00
1000.207, 28713.00
1001.320, 28885.00
1002.433, 29092.00
1003.546, 28891.00
1004.659, 29006.00
1005.772, 28851.00
1006.884, 28978.00
1007.996, 29043.00
1009.108, 28839.00
1010.220, 28746.00
1011.332, 29162.00
1012.444, 29300.00
1013.555, 29047.00
1014.666, 29308.00
1015.777, 29487.00
1016.888, 29258.00
1017.999, 29383.00
1019.110, 29533.00
1020.220, 29493.00
1021.331, 29440.00
1022.441, 29351.00
1023.551, 29443.00
1024.661, 29412.00
1025.770, 29653.00
1026.880, 29850.00
1027.989, 29737.00
1029.098, 29557.00
1030.207, 29986.00
1031.316, 29821.00
1032.425, 29945.00
1033.533, 30002.00
1034.642, 29915.00
1035.750, 30149.00
1036.858, 30145.00
1037.966, 30343.00
1039.073, 30196.00
1040.181, 30431.00
1041.288, 30461.00
1042.396, 30530.00
1043.503, 30460.00
1044.610, 30461.00
1045.716, 30453.00
1046.823, 30636.00
1047.929, 30603.00
1049.036, 30734.00
1050.142, 30762.00
1051.248, 30717.00
1052.353, 31006.00
1053.459, 30596.00
1054.564, 30753.00
1055.670, 31059.00
1056.775, 30780.00
1057.880, 30997.00
1058.985, 30922.00
1060.089, 31097.00
1061.194, 31194.00
1062.298, 31099.00
1063.402, 31290.00
1064.506, 31495.00
1065.610, 31347.00
1066.713, 31562.00
1067.817, 31530.54
1068.920, 31294.00
1070.023, 31481.00
1071.126, 31560.00
1072.229, 31436.00
1073.332, 31372.38
1074.435, 31822.98
1075.537, 32100.19
1076.639, 32213.38
1077.741, 31671.28
1078.843, 31975.35
1079.945, 31940.31
1081.046, 31891.32
1082.148, 32314.49
1083.249, 31867.65
1084.350, 32283.28
1085.451, 32354.63
1086.551, 32583.50
1087.652, 32471.21
1088.752, 32464.26
1089.853, 32798.68
1090.953, 32944.05
1092.053, 32792.44
1093.152, 33031.28
1094.252, 32572.47
1095.351, 32725.85
1096.451, 32552.00
1097.550, 32406.00
1098.649, 32589.00
1099.748, 32786.00
1100.846, 32621.00
1101.945, 32483.00
1103.043, 32985.00
1104.141, 33029.00
1105.239, 32931.00
1106.337, 33016.00
1107.434, 32860.00
1108.532, 32832.00
1109.629, 33028.00
1110.726, 33207.00
1111.823, 33084.00
1112.920, 33009.00
1114.017, 33137.00
1115.113, 33287.00
1116.210, 33448.00
1117.306, 33710.00
1118.402, 33469.00
1119.498, 33706.00
1120.593, 33476.00
1121.689, 33487.00
1122.784, 33452.00
1123.879, 33623.00
1124.974, 33762.00
1126.069, 33785.00
1127.164, 33712.00
1128.259, 33671.00
1129.353, 33848.00
1130.447, 33908.00
1131.541, 34084.00
1132.635, 34069.77
1133.729, 33968.00
1134.822, 34088.00
1135.916, 34134.00
1137.009, 34272.00
1138.102, 34189.00
1139.195, 34439.00
1140.288, 34451.00
1141.380, 34244.00
1142.473, 34301.00
1143.565, 34713.00
1144.657, 34583.00
1145.749, 34776.00
1146.841, 34464.00
1147.932, 34623.00
1149.024, 34716.00
1150.115, 34812.00
1151.206, 34848.00
1152.297, 35109.00
1153.388, 34916.00
1154.479, 34988.00
1155.569, 34819.00
1156.659, 35155.00
1157.750, 35015.00
1158.839, 35247.00
1159.929, 35181.00
1161.019, 35060.00
1162.108, 35368.00
1163.198, 35406.00
1164.287, 35238.00
1165.376, 35615.00
1166.465, 35595.00
1167.553, 35417.00
1168.642, 35507.00
1169.730, 35840.00
1170.818, 35569.00
1171.906, 35594.00
1172.994, 35821.00
1174.082, 35760.00
1175.170, 35925.00
1176.257, 35964.00
1177.344, 35781.00
1178.431, 36096.00
1179.518, 36081.00
1180.605, 36228.00
1181.691, 36257.00
1182.778, 36247.00
1183.864, 36022.00
1184.950, 36178.00
1186.036, 36429.00
1187.122, 36214.00
1188.207, 36521.00
1189.292, 36471.00
1190.378, 36404.00
1191.463, 36730.00
1192.548, 36408.00
1193.632, 36772.00
1194.717, 36790.00
1195.801, 36950.00
1196.886, 36715.00
1197.970, 36864.00
1199.054, 36604.00
1200.137, 36827.66
1201.221, 36843.97
1202.305, 37239.00
1203.388, 37104.00
1204.471, 37263.00
1205.554, 37553.00
1206.637, 37417.00
1207.719, 37572.00
1208.802, 37614.00
1209.884, 37740.00
1210.966, 37536.00
1212.048, 37347.00
1213.130, 37640.00
1214.212, 37562.00
1215.293, 37649.00
1216.374, 37824.00
1217.456, 37837.00
1218.536, 37918.00
1219.617, 37903.00
1220.698, 38066.00
1221.778, 37868.00
1222.859, 38242.00
1223.939, 38202.00
1225.019, 38314.00
1226.099, 38198.00
1227.178, 38351.00
1228.258, 38276.00
1229.337, 38300.00
1230.417, 38458.00
1231.496, 38350.00
1232.574, 38637.00
1233.653, 38775.00
1234.732, 38518.00
1235.810, 38877.00
1236.888, 38721.00
1237.966, 38665.00
1239.044, 38689.00
1240.122, 38461.00
1241.199, 38850.00
1242.277, 38845.00
1243.354, 39246.00
1244.431, 39013.00
1245.508, 38956.00
1246.585, 39409.00
1247.661, 39360.00
1248.738, 39401.00
1249.814, 39246.00
1250.890, 39363.00
1251.966, 39354.96
1253.042, 39385.00
1254.117, 39518.00
1255.193, 39456.00
1256.268, 39681.00
1257.343, 39902.00
1258.418, 39912.05
1259.493, 39997.86
1260.567, 39986.00
1261.642, 39976.00
1262.716, 39834.00
1263.790, 39811.00
1264.864, 39804.00
1265.938, 39916.00
1267.011, 40204.00
1268.085, 40172.00
1269.158, 40116.00
1270.231, 40313.00
1271.304, 40210.00
1272.377, 40364.00
1273.450, 40501.00
1274.522, 40449.00
1275.594, 40550.00
1276.666, 40558.00
1277.738, 40558.00
1278.810, 40599.00
1279.882, 40907.00
1280.953, 40856.00
1282.025, 40766.00
1283.096, 41039.00
1284.167, 40995.00
1285.238, 40997.00
1286.308, 41267.00
1287.379, 40916.00
1288.449, 41091.00
1289.519, 41287.00
1290.589, 41259.00
1291.659, 41637.00
1292.729, 41513.00
1293.798, 41610.00
1294.868, 41916.00
1295.937, 42096.00
1297.006, 41972.00
1298.075, 42038.00
1299.143, 42008.00
1300.212, 41789.00
1301.280, 41973.00
1302.348, 42096.00
1303.416, 42304.00
1304.484, 42213.00
1305.552, 42277.00
1306.620, 42490.00
1307.687, 42148.00
1308.754, 42460.00
1309.821, 42456.00
1310.888, 42621.00
1311.955, 42647.00
1313.021, 42552.00
1314.088, 42581.00
1315.154, 42931.00
1316.220, 42655.00
1317.286, 42989.00
1318.352, 43088.00
1319.417, 42948.00
1320.483, 43037.00
1321.548, 43055.00
1322.613, 43315.00
1323.678, 43102.00
1324.743, 43474.00
1325.807, 43297.00
1326.872, 43500.00
1327.936, 43529.00
1329.000, 43421.00
1330.064, 43681.00
1331.128, 43818.00
1332.191, 43812.00
1333.255, 43668.00
1334.318, 43864.00
1335.381, 43721.00
1336.444, 43747.00
1337.507, 44050.00
1338.569, 43968.00
1339.632, 43908.00
1340.694, 44195.00
1341.756, 44202.00
1342.818, 44041.00
1343.880, 44527.00
1344.941, 44547.00
1346.003, 44412.00
1347.064, 44408.00
1348.125, 44512.00
1349.186, 44469.00
1350.247, 44546.82
1351.308, 44667.00
1352.368, 44715.00
1353.428, 44844.00
1354.489, 45054.00
1355.549, 44930.00
1356.608, 45074.00
1357.668, 44974.00
1358.727, 45129.00
1359.787, 45005.00
1360.846, 45445.00
1361.905, 45259.00
1362.964, 45355.00
1364.022, 45430.00
1365.081, 45360.00
1366.139, 45649.00
1367.197, 45589.00
1368.255, 45533.00
1369.313, 45566.00
1370.371, 45775.00
1371.428, 45880.00
1372.486, 45721.00
1373.543, 45938.00
1374.600, 45626.00
1375.657, 45914.00
1376.713, 45942.00
1377.770, 45846.00
1378.826, 45816.00
1379.882, 46199.00
1380.938, 46168.00
1381.994, 46272.00
1383.050, 46022.00
1384.106, 46331.00
1385.161, 46357.00
1386.216, 46482.00
1387.271, 46725.00
1388.326, 46725.00
1389.381, 46783.96
1390.435, 46615.00
1391.490, 46792.00
1392.544, 46871.00
1393.598, 46964.00
1394.652, 46951.00
1395.705, 46924.00
1396.759, 46969.00
1397.812, 46936.00
1398.866, 46915.00
1399.919, 47447.00
1400.972, 47583.00
1402.024, 47060.11
1403.077, 47521.86
1404.129, 47810.20
1405.181, 47934.52
1406.233, 47403.55
1407.285, 47718.76
1408.337, 47694.86
1409.389, 47657.04
1410.440, 48091.27
1411.491, 47655.55
1412.542, 48082.30
1413.593, 48164.77
1414.644, 48404.81
1415.695, 48303.64
1416.745, 48307.80
1417.795, 48653.27
1418.845, 48809.75
1419.895, 48669.25
1420.945, 48919.23
1421.995, 48471.53
1423.044, 48636.00
1424.093, 49064.62
1425.142, 48941.21
1426.191, 49197.38
1427.240, 49308.97
1428.289, 48763.59
1429.337, 49360.71
1430.385, 49463.70
1431.433, 49223.00
1432.481, 49339.49
1433.529, 49336.00
1434.577, 49449.00
1435.624, 49504.00
1436.672, 49519.00
1437.719, 49706.00
1438.766, 49886.00
1439.812, 50066.00
1440.859, 50161.85
1441.905, 50115.00
1442.952, 50321.00
1443.998, 50008.00
1445.044, 50040.00
1446.090, 50164.00
1447.135, 50018.00
1448.181, 50286.00
1449.226, 50277.00
1450.271, 50268.00
1451.316, 50399.00
1452.361, 50449.00
1453.405, 50760.00
1454.450, 50755.00
1455.494, 50781.00
1456.538, 50868.00
1457.582, 50704.00
1458.626, 50905.00
1459.670, 50783.00
1460.713, 51038.00
1461.757, 51026.00
1462.800, 51271.00
1463.843, 51070.00
1464.886, 50970.00
1465.928, 51276.00
1466.971, 51227.00
1468.013, 51325.00
1469.055, 51215.00
1470.097, 51439.00
1471.139, 51586.00
1472.181, 51469.00
1473.222, 51556.00
1474.263, 51508.00
1475.305, 51880.00
1476.346, 52051.00
1477.386, 52068.00
1478.427, 51945.00
1479.468, 51865.00
1480.508, 51915.00
1481.548, 52014.00
1482.588, 51854.00
1483.628, 52346.00
1484.668, 52397.00
1485.707, 52075.00
1486.747, 52391.00
1487.786, 52415.00
1488.825, 52538.00
1489.864, 52770.00
1490.902, 52679.00
1491.941, 52535.00
1492.979, 52692.00
1494.017, 52671.00
1495.055, 52756.00
1496.093, 52930.00
1497.131, 53058.00
1498.168, 53012.00
1499.206, 53012.00
1500.243, 53054.00
1501.280, 53079.68
1502.317, 53154.00
1503.354, 53221.00
1504.390, 53278.30
1505.426, 53333.00
1506.463, 53430.42
1507.499, 53549.00
1508.535, 53661.00
1509.570, 53730.00
1510.606, 53782.00
1511.641, 53864.00
1512.676, 53875.76
1513.711, 53867.00
1514.746, 53919.00
1515.781, 53958.00
1516.816, 54022.51
1517.850, 54096.00
1518.884, 54298.00
1519.918, 54363.00
1520.952, 54546.00
1521.986, 54456.00
1523.019, 54760.00
1524.053, 54619.00
1525.086, 54861.00
1526.119, 54944.00
1527.152, 54991.00
1528.185, 54970.00
1529.217, 55168.00
1530.250, 55264.00
1531.282, 55039.00
1532.314, 55131.00
1533.346, 55579.00
1534.377, 55359.00
1535.409, 55380.00
1536.440, 55604.00
1537.472, 55428.00
1538.503, 55648.00
1539.534, 55359.00
1540.564, 55596.00
1541.595, 55891.00
1542.625, 56004.00
1543.656, 56031.00
1544.686, 55943.00
1545.716, 56094.00
1546.745, 56081.00
1547.775, 56292.00
1548.804, 56337.61
1549.834, 56469.00
1550.863, 56500.00
1551.892, 56678.00
1552.920, 56767.00
1553.949, 56857.14
1554.977, 56928.43
1556.006, 57038.00
1557.034, 56986.00
1558.062, 57044.00
1559.089, 57027.00
1560.117, 56763.00
1561.144, 56902.00
1562.172, 57172.00
1563.199, 57362.00
1564.226, 56839.00
1565.252, 57355.00
1566.279, 57275.00
1567.305, 57364.00
1568.332, 57509.00
1569.358, 57500.00
1570.384, 57612.00
1571.409, 57787.00
1572.435, 58047.00
##END=



