##NAMES=Corundum
##RRUFFID=R060020
##IDEAL CHEMISTRY=Al_2_O_3_
##LOCALITY=Yogo Gulch, Montana, USA
##OWNER=RRUFF
##SOURCE=American Museum of Natural History
##DESCRIPTION=Water rounded light blue fragment
##STATUS=The identification of this mineral has been confirmed by X-ray diffraction and chemical analysis
##URL=rruff.info/R060020
##MEASURED CHEMISTRY=(Al_1.99_Fe^3+^_0.01_)_Î£=2_O_3_ ; Fe^3+^ by charge balance
##PIN_ID=L01955
##ORIENTATION=Laser parallel to c* (0 0 1). Fiducial mark perpendicular to laser is parallel to b [0 1 0]
179.5050, 11772.00
180.7290, 11864.00
181.9520, 11943.00
183.1760, 11847.00
184.3990, 11964.00
185.6220, 11850.00
186.8450, 11943.00
188.0670, 11955.00
189.2900, 11988.00
190.5120, 12206.00
191.7340, 12122.00
192.9560, 12546.00
194.1780, 12767.00
195.4000, 12933.00
196.6220, 12859.00
197.8430, 12652.00
199.0640, 12381.00
200.2860, 12378.00
201.5070, 12399.00
202.7270, 12414.00
203.9480, 12412.00
205.1690, 12312.00
206.3890, 12095.00
207.6090, 12180.00
208.8290, 12036.00
210.0490, 12087.00
211.2690, 12016.00
212.4890, 12125.00
213.7080, 11962.00
214.9280, 12148.00
216.1470, 12107.00
217.3660, 12066.00
218.5850, 12162.00
219.8030, 12129.00
221.0220, 12190.00
222.2400, 12172.00
223.4590, 12084.00
224.6770, 12162.00
225.8950, 12093.00
227.1120, 12058.00
228.3300, 12188.00
229.5480, 12323.00
230.7650, 12309.00
231.9820, 12372.00
233.1990, 12288.00
234.4160, 12267.00
235.6330, 12438.00
236.8490, 12263.00
238.0660, 12510.00
239.2820, 12502.00
240.4980, 12443.00
241.7140, 12403.00
242.9300, 12390.00
244.1460, 12397.00
245.3610, 12363.00
246.5770, 12484.00
247.7920, 12625.00
249.0070, 12642.00
250.2220, 12562.00
251.4370, 12557.00
252.6510, 12593.00
253.8660, 12655.00
255.0800, 12649.00
256.2940, 12616.00
257.5080, 12734.00
258.7220, 12750.00
259.9360, 12973.00
261.1490, 13222.00
262.3630, 12922.00
263.5760, 12810.00
264.7890, 12714.00
266.0020, 12823.00
267.2150, 12780.00
268.4270, 13019.00
269.6400, 12943.00
270.8520, 13028.00
272.0640, 13107.00
273.2760, 13102.00
274.4880, 13110.00
275.7000, 13106.00
276.9120, 13200.00
278.1230, 13151.00
279.3340, 13338.00
280.5450, 13346.00
281.7560, 13393.00
282.9670, 13260.00
284.1780, 13312.00
285.3880, 13226.00
286.5980, 13377.00
287.8090, 13375.00
289.0190, 13404.62
290.2290, 13414.92
291.4380, 13431.00
292.6480, 13376.00
293.8570, 13281.00
295.0670, 13290.00
296.2760, 13344.00
297.4850, 13337.00
298.6930, 13363.00
299.9020, 13388.00
301.1110, 13382.00
302.3190, 13396.00
303.5270, 13588.00
304.7350, 13346.00
305.9430, 13278.00
307.1510, 13447.00
308.3580, 13479.00
309.5660, 13501.00
310.7730, 13515.00
311.9800, 13583.00
313.1870, 13517.00
314.3940, 13586.52
315.6010, 13739.00
316.8070, 13672.00
318.0130, 13716.00
319.2200, 13779.00
320.4260, 13458.00
321.6310, 13824.00
322.8370, 13684.00
324.0430, 13674.00
325.2480, 13986.00
326.4540, 13713.00
327.6590, 13839.00
328.8640, 13760.00
330.0680, 14039.00
331.2730, 13828.00
332.4780, 13814.00
333.6820, 13924.00
334.8860, 13863.00
336.0900, 13890.00
337.2940, 13951.00
338.4980, 14023.00
339.7010, 13980.00
340.9050, 14015.00
342.1080, 14078.00
343.3110, 14001.00
344.5140, 14176.00
345.7170, 14091.00
346.9200, 14100.00
348.1220, 14046.00
349.3240, 14338.00
350.5270, 14277.00
351.7290, 14241.00
352.9310, 14546.00
354.1320, 14268.00
355.3340, 14361.00
356.5350, 14395.00
357.7370, 14587.00
358.9380, 14567.00
360.1390, 14732.00
361.3400, 14580.00
362.5400, 14538.00
363.7410, 14642.00
364.9410, 14868.00
366.1410, 14654.00
367.3410, 14963.00
368.5410, 14964.00
369.7410, 15076.00
370.9400, 15118.00
372.1400, 15279.00
373.3390, 15547.00
374.5380, 15648.00
375.7370, 15930.00
376.9360, 15917.00
378.1350, 16060.81
379.3330, 16083.00
380.5310, 16203.00
381.7300, 16213.00
382.9280, 16251.00
384.1260, 16399.00
385.3230, 16368.00
386.5210, 16515.00
387.7180, 16674.00
388.9160, 16781.00
390.1130, 16884.00
391.3100, 17056.00
392.5060, 17328.00
393.7030, 17416.00
394.9000, 17455.00
396.0960, 17544.00
397.2920, 17354.00
398.4880, 17278.00
399.6840, 17155.00
400.8800, 16971.00
402.0750, 16784.00
403.2710, 16741.00
404.4660, 16708.00
405.6610, 16599.00
406.8560, 16789.00
408.0510, 16812.00
409.2450, 17164.00
410.4400, 17205.00
411.6340, 17511.00
412.8280, 18003.00
414.0220, 18508.00
415.2160, 19191.00
416.4100, 19074.00
417.6030, 18925.00
418.7970, 18483.00
419.9900, 17831.00
421.1830, 17198.00
422.3760, 16873.00
423.5690, 16493.00
424.7610, 16395.00
425.9540, 16331.00
427.1460, 16381.00
428.3380, 16212.00
429.5300, 16264.00
430.7220, 16373.00
431.9140, 16327.00
433.1050, 16058.00
434.2970, 16205.00
435.4880, 16205.00
436.6790, 16103.00
437.8700, 16270.00
439.0610, 16182.00
440.2510, 16288.00
441.4420, 16196.00
442.6320, 16208.00
443.8220, 16258.00
445.0120, 16354.00
446.2020, 16542.00
447.3910, 16495.00
448.5810, 16622.00
449.7700, 16482.00
450.9600, 16456.00
452.1490, 16349.00
453.3370, 16294.00
454.5260, 16532.00
455.7150, 16401.00
456.9030, 16416.00
458.0910, 16305.00
459.2800, 16359.00
460.4670, 16463.00
461.6550, 16386.00
462.8430, 16542.00
464.0300, 16611.00
465.2180, 16592.00
466.4050, 16681.00
467.5920, 16667.56
468.7790, 16562.00
469.9650, 16687.00
471.1520, 16669.00
472.3380, 16728.00
473.5250, 16657.00
474.7110, 16829.00
475.8970, 16916.00
477.0820, 16834.00
478.2680, 16974.00
479.4540, 17022.00
480.6390, 16959.00
481.8240, 17051.00
483.0090, 17131.00
484.1940, 17089.00
485.3780, 17155.00
486.5630, 17289.00
487.7470, 17282.65
488.9320, 17220.00
490.1160, 17352.00
491.3000, 17414.00
492.4830, 17403.00
493.6670, 17560.00
494.8500, 17474.00
496.0340, 17536.00
497.2170, 17498.00
498.4000, 17529.43
499.5820, 17747.00
500.7650, 17665.00
501.9480, 17868.00
503.1300, 18069.00
504.3120, 18181.00
505.4940, 18206.00
506.6760, 18447.00
507.8580, 18590.00
509.0390, 18832.00
510.2210, 18966.00
511.4020, 19076.00
512.5830, 19267.00
513.7640, 19362.00
514.9450, 19287.00
516.1250, 19327.00
517.3060, 19295.51
518.4860, 19287.00
519.6660, 19167.00
520.8460, 19053.00
522.0260, 18879.00
523.2060, 18859.00
524.3850, 18858.00
525.5650, 18871.00
526.7440, 18806.00
527.9230, 18624.00
529.1020, 18685.00
530.2810, 18517.00
531.4590, 18580.00
532.6380, 18631.00
533.8160, 18637.00
534.9940, 18468.00
536.1720, 18610.00
537.3500, 18531.00
538.5270, 18499.00
539.7050, 18537.00
540.8820, 18475.00
542.0590, 18533.00
543.2360, 18465.00
544.4130, 18488.14
545.5900, 18497.00
546.7660, 18551.00
547.9430, 18502.00
549.1190, 18611.00
550.2950, 18601.00
551.4710, 18556.00
552.6470, 18493.00
553.8220, 18508.00
554.9980, 18455.00
556.1730, 18473.00
557.3480, 18488.00
558.5230, 18546.00
559.6980, 18534.55
560.8730, 18697.00
562.0470, 18549.00
563.2220, 18577.00
564.3960, 18617.00
565.5700, 18833.00
566.7440, 18785.00
567.9170, 19055.00
569.0910, 18963.00
570.2640, 18934.00
571.4380, 18971.00
572.6110, 19058.00
573.7840, 19216.00
574.9570, 19367.00
576.1290, 19262.00
577.3020, 19356.00
578.4740, 19284.00
579.6460, 19418.00
580.8180, 19431.00
581.9900, 19204.00
583.1620, 19051.00
584.3330, 19237.00
585.5040, 19117.00
586.6760, 19042.00
587.8470, 19142.00
589.0180, 19266.00
590.1880, 19334.00
591.3590, 19466.00
592.5290, 19396.00
593.7000, 19447.00
594.8700, 19326.00
596.0400, 19343.00
597.2090, 19557.00
598.3790, 19589.00
599.5490, 19541.00
600.7180, 19497.00
601.8870, 19575.80
603.0560, 19584.87
604.2250, 19705.00
605.3940, 19788.00
606.5620, 19832.00
607.7300, 20099.00
608.8990, 20001.00
610.0670, 20099.00
611.2350, 20397.00
612.4020, 20319.00
613.5700, 20460.00
614.7370, 20373.00
615.9050, 20446.00
617.0720, 20669.00
618.2390, 20778.00
619.4060, 20959.00
620.5720, 21268.00
621.7390, 21391.11
622.9050, 21565.82
624.0710, 21777.00
625.2370, 21837.00
626.4030, 22044.00
627.5690, 22203.00
628.7340, 22322.00
629.9000, 22624.00
631.0650, 23135.00
632.2300, 23531.00
633.3950, 23712.00
634.5600, 23940.00
635.7240, 24068.00
636.8890, 24150.56
638.0530, 24209.00
639.2170, 24121.00
640.3810, 24063.00
641.5450, 23793.00
642.7080, 23730.00
643.8720, 23429.00
645.0350, 23217.00
646.1980, 22988.00
647.3610, 22769.00
648.5240, 22565.00
649.6870, 22250.00
650.8490, 22189.00
652.0120, 21874.00
653.1740, 21985.00
654.3360, 21724.00
655.4980, 21887.00
656.6600, 21609.00
657.8210, 21561.00
658.9830, 21590.00
660.1440, 21566.00
661.3050, 21508.00
662.4660, 21468.00
663.6270, 21372.00
664.7870, 21406.00
665.9480, 21435.00
667.1080, 21288.00
668.2680, 21482.00
669.4280, 21269.00
670.5880, 21411.00
671.7480, 21553.00
672.9070, 21487.00
674.0670, 21585.00
675.2260, 21599.00
676.3850, 21448.00
677.5440, 21561.00
678.7030, 21417.00
679.8610, 21450.00
681.0200, 21511.00
682.1780, 21462.00
683.3360, 21431.00
684.4940, 21518.00
685.6520, 21386.00
686.8090, 21564.00
687.9670, 21530.00
689.1240, 21429.00
690.2810, 21672.00
691.4380, 21561.00
692.5950, 21520.00
693.7520, 21550.00
694.9080, 21632.00
696.0650, 21471.00
697.2210, 21629.00
698.3770, 21703.00
699.5330, 21591.00
700.6880, 21802.00
701.8440, 21773.00
702.9990, 21996.00
704.1550, 21741.00
705.3100, 21955.00
706.4650, 21959.00
707.6190, 21950.00
708.7740, 22076.00
709.9290, 22322.00
711.0830, 22346.00
712.2370, 22383.00
713.3910, 22386.00
714.5450, 22512.00
715.6980, 22348.00
716.8520, 22365.00
718.0050, 22470.00
719.1580, 22444.00
720.3110, 22343.00
721.4640, 22370.00
722.6170, 22361.00
723.7700, 22368.79
724.9220, 22516.00
726.0740, 22423.00
727.2260, 22487.00
728.3780, 22484.00
729.5300, 22628.00
730.6810, 22723.00
731.8330, 22641.00
732.9840, 22572.00
734.1350, 22848.00
735.2860, 22893.00
736.4370, 22797.00
737.5880, 23031.00
738.7380, 23190.00
739.8880, 23185.00
741.0390, 23681.00
742.1890, 23639.00
743.3380, 23580.00
744.4880, 23930.00
745.6380, 24074.00
746.7870, 24093.00
747.9360, 24501.00
749.0850, 24446.00
750.2340, 24299.00
751.3830, 24378.00
752.5310, 24282.00
753.6800, 24201.00
754.8280, 24318.00
755.9760, 23956.00
757.1240, 24068.00
758.2720, 23898.00
759.4190, 24081.00
760.5670, 23726.00
761.7140, 23926.00
762.8610, 23561.00
764.0080, 23793.00
765.1550, 23538.00
766.3020, 23898.00
767.4480, 23750.00
768.5950, 23670.00
769.7410, 23616.00
770.8870, 23918.00
772.0330, 23807.00
773.1780, 23975.00
774.3240, 23893.00
775.4690, 23747.00
776.6140, 23996.00
777.7590, 24070.00
778.9040, 23981.00
780.0490, 24073.00
781.1940, 24268.00
782.3380, 24070.00
783.4820, 24390.00
784.6260, 24383.00
785.7700, 24320.00
786.9140, 24364.00
788.0580, 24120.00
789.2010, 24307.00
790.3450, 24273.00
791.4880, 24459.00
792.6310, 24355.00
793.7730, 24359.00
794.9160, 24567.00
796.0590, 24349.00
797.2010, 24728.00
798.3430, 24491.00
799.4850, 24650.00
800.6270, 24704.00
801.7690, 24667.00
802.9100, 24805.00
804.0520, 24980.00
805.1930, 24885.00
806.3340, 25050.00
807.4750, 24783.00
808.6160, 24716.00
809.7560, 24962.00
810.8970, 25007.00
812.0370, 24752.00
813.1770, 24924.00
814.3170, 24873.00
815.4570, 24935.84
816.5960, 25004.24
817.7360, 25145.00
818.8750, 25120.00
820.0140, 25195.00
821.1530, 25283.00
822.2920, 25073.00
823.4310, 25402.00
824.5690, 25085.00
825.7070, 25492.00
826.8460, 25255.00
827.9840, 25386.00
829.1220, 25180.00
830.2590, 25496.00
831.3970, 25249.00
832.5340, 25465.00
833.6710, 25595.00
834.8080, 25328.00
835.9450, 25917.00
837.0820, 25626.00
838.2190, 25755.00
839.3550, 25488.00
840.4910, 25603.00
841.6270, 25556.00
842.7630, 25786.00
843.8990, 25662.00
845.0350, 25862.00
846.1700, 25692.00
847.3060, 25925.00
848.4410, 25987.00
849.5760, 25867.00
850.7100, 26071.00
851.8450, 26106.00
852.9800, 26093.00
854.1140, 26218.00
855.2480, 25902.00
856.3820, 26272.00
857.5160, 25945.00
858.6500, 26224.00
859.7830, 26051.00
860.9170, 26142.00
862.0500, 26294.00
863.1830, 26154.00
864.3160, 26197.00
865.4480, 26442.00
866.5810, 26350.00
867.7130, 26467.00
868.8460, 26302.00
869.9780, 26536.00
871.1100, 26372.00
872.2410, 26364.00
873.3730, 26466.00
874.5050, 26531.00
875.6360, 26478.00
876.7670, 26610.00
877.8980, 26674.00
879.0290, 26736.00
880.1590, 26603.00
881.2900, 26579.00
882.4200, 26619.00
883.5500, 26658.00
884.6800, 26678.00
885.8100, 26659.00
886.9400, 26652.00
888.0690, 26711.41
889.1990, 26826.00
890.3280, 26809.00
891.4570, 26983.00
892.5860, 26990.00
893.7140, 27052.00
894.8430, 27250.00
895.9710, 26974.00
897.1000, 27017.00
898.2280, 27122.00
899.3560, 27110.00
900.4830, 27151.00
901.6110, 27160.00
902.7380, 27010.00
903.8660, 27185.00
904.9930, 27234.00
906.1200, 27580.00
907.2460, 27435.00
908.3730, 27303.00
909.5000, 27599.00
910.6260, 27488.00
911.7520, 27599.00
912.8780, 27465.00
914.0040, 27635.00
915.1290, 27733.00
916.2550, 27778.00
917.3800, 27851.00
918.5050, 27852.00
919.6300, 27691.00
920.7550, 27879.00
921.8800, 27905.00
923.0040, 27774.00
924.1290, 28021.20
925.2530, 27966.66
926.3770, 28315.00
927.5010, 28058.00
928.6250, 28100.00
929.7480, 28158.00
930.8720, 28163.00
931.9950, 28059.00
933.1180, 28208.00
934.2410, 28196.00
935.3640, 28397.00
936.4860, 28399.00
937.6090, 28356.00
938.7310, 28379.00
939.8530, 28474.00
940.9750, 28461.92
942.0970, 28607.00
943.2180, 28476.00
944.3400, 28525.00
945.4610, 28426.00
946.5820, 28485.51
947.7030, 28534.00
948.8240, 28645.00
949.9450, 28696.00
951.0650, 28833.00
952.1860, 28783.00
953.3060, 28952.00
954.4260, 28791.00
955.5460, 28931.00
956.6650, 29058.00
957.7850, 28965.00
958.9040, 29164.00
960.0230, 29109.00
961.1420, 29090.31
962.2610, 29188.56
963.3800, 29189.06
964.4990, 29303.00
965.6170, 29285.00
966.7350, 29383.00
967.8530, 29390.00
968.9710, 29443.00
970.0890, 29388.00
971.2070, 29555.00
972.3240, 29452.00
973.4410, 29529.00
974.5580, 29728.00
975.6750, 29876.00
976.7920, 29764.00
977.9090, 29908.46
979.0250, 29842.00
980.1410, 30027.00
981.2580, 29950.00
982.3740, 30122.00
983.4890, 30053.00
984.6050, 29950.00
985.7200, 30276.00
986.8360, 30475.00
987.9510, 30547.00
989.0660, 30423.00
990.1810, 30321.00
991.2950, 30228.00
992.4100, 30324.00
993.5240, 30328.67
994.6390, 30316.00
995.7530, 30499.00
996.8660, 30595.00
997.9800, 30660.00
999.0940, 30756.21
1000.207, 30786.82
1001.320, 30814.00
1002.433, 30837.00
1003.546, 30748.00
1004.659, 30753.00
1005.772, 30765.30
1006.884, 30656.00
1007.996, 30800.00
1009.108, 30658.00
1010.220, 30639.00
1011.332, 30963.00
1012.444, 30949.00
1013.555, 30997.00
1014.666, 30964.00
1015.777, 30879.00
1016.888, 31161.00
1017.999, 31039.00
1019.110, 31226.00
1020.220, 31265.00
1021.331, 31203.00
1022.441, 31240.00
1023.551, 31039.00
1024.661, 31088.00
1025.770, 31492.00
1026.880, 31362.00
1027.989, 31498.00
1029.098, 31541.00
1030.207, 31689.00
1031.316, 31560.00
1032.425, 31692.00
1033.533, 31815.00
1034.642, 32002.00
1035.750, 31964.19
1036.858, 31868.00
1037.966, 31923.00
1039.073, 31854.00
1040.181, 31903.00
1041.288, 32009.00
1042.396, 32237.00
1043.503, 32195.83
1044.610, 32194.00
1045.716, 32249.00
1046.823, 32173.00
1047.929, 32288.00
1049.036, 32336.00
1050.142, 32387.00
1051.248, 32504.00
1052.353, 32383.00
1053.459, 32370.00
1054.564, 32555.00
1055.670, 32549.00
1056.775, 32641.00
1057.880, 32505.00
1058.985, 32812.00
1060.089, 32709.00
1061.194, 32662.00
1062.298, 32781.00
1063.402, 32734.65
1064.506, 32760.00
1065.610, 32877.00
1066.713, 32839.00
1067.817, 33064.00
1068.920, 33036.00
1070.023, 33108.00
1071.126, 33117.00
1072.229, 33158.00
1073.332, 33356.00
1074.435, 33170.00
1075.537, 32968.65
1076.639, 33478.83
1077.741, 33782.98
1078.843, 33892.20
1079.945, 33222.59
1081.046, 33558.64
1082.148, 33491.68
1083.249, 33408.17
1084.350, 33885.76
1085.451, 33329.40
1086.551, 33798.05
1087.652, 33857.56
1088.752, 34104.30
1089.853, 33945.57
1090.953, 33912.04
1092.053, 34284.17
1093.152, 34431.65
1094.252, 34226.20
1095.351, 34484.81
1096.451, 34114.00
1097.550, 34288.00
1098.649, 34141.00
1099.748, 34304.00
1100.846, 34388.00
1101.945, 34473.00
1103.043, 34288.00
1104.141, 34607.00
1105.239, 34302.00
1106.337, 34394.00
1107.434, 34566.00
1108.532, 34364.00
1109.629, 34519.00
1110.726, 34439.00
1111.823, 34735.00
1112.920, 34749.00
1114.017, 34697.00
1115.113, 34877.00
1116.210, 34866.00
1117.306, 34947.00
1118.402, 35076.00
1119.498, 34775.00
1120.593, 35121.00
1121.689, 34860.00
1122.784, 35413.00
1123.879, 35187.00
1124.974, 35377.00
1126.069, 35566.00
1127.164, 35402.00
1128.259, 35355.00
1129.353, 35653.00
1130.447, 35509.00
1131.541, 35465.00
1132.635, 35718.00
1133.729, 35729.00
1134.822, 35880.00
1135.916, 35805.00
1137.009, 35946.00
1138.102, 35681.00
1139.195, 36136.00
1140.288, 35842.00
1141.380, 36055.00
1142.473, 36257.00
1143.565, 36195.00
1144.657, 36020.00
1145.749, 36164.00
1146.841, 36226.00
1147.932, 36134.00
1149.024, 36227.00
1150.115, 36239.00
1151.206, 36325.00
1152.297, 36447.00
1153.388, 36354.00
1154.479, 36552.00
1155.569, 36491.00
1156.659, 36528.30
1157.750, 36501.00
1158.839, 36534.00
1159.929, 36571.00
1161.019, 36510.00
1162.108, 36642.02
1163.198, 36637.00
1164.287, 36854.00
1165.376, 36803.00
1166.465, 36882.00
1167.553, 37103.00
1168.642, 36867.00
1169.730, 37131.00
1170.818, 37283.00
1171.906, 37600.00
1172.994, 37238.00
1174.082, 37038.00
1175.170, 37330.00
1176.257, 37436.00
1177.344, 37271.00
1178.431, 37334.00
1179.518, 37482.00
1180.605, 37544.00
1181.691, 37556.00
1182.778, 37501.00
1183.864, 37609.00
1184.950, 37640.00
1186.036, 37810.00
1187.122, 38015.00
1188.207, 37844.00
1189.292, 37798.00
1190.378, 38208.00
1191.463, 37897.00
1192.548, 37908.00
1193.632, 38197.00
1194.717, 38297.00
1195.801, 38149.00
1196.886, 38273.00
1197.970, 38273.71
1199.054, 38192.00
1200.137, 38303.00
1201.221, 38487.00
1202.305, 38416.00
1203.388, 38286.00
1204.471, 38569.00
1205.554, 38695.00
1206.637, 38613.00
1207.719, 38814.00
1208.802, 38621.00
1209.884, 38647.00
1210.966, 38844.00
1212.048, 38803.00
1213.130, 38967.00
1214.212, 39038.00
1215.293, 39281.00
1216.374, 39111.00
1217.456, 39341.00
1218.536, 39105.00
1219.617, 39358.00
1220.698, 39494.00
1221.778, 39382.00
1222.859, 39549.29
1223.939, 39480.00
1225.019, 39581.00
1226.099, 39535.00
1227.178, 39438.00
1228.258, 39621.00
1229.337, 39799.00
1230.417, 40092.00
1231.496, 39789.00
1232.574, 39707.00
1233.653, 39851.00
1234.732, 39999.00
1235.810, 40192.00
1236.888, 40267.00
1237.966, 39963.00
1239.044, 40025.00
1240.122, 40006.00
1241.199, 40367.00
1242.277, 40288.04
1243.354, 40727.00
1244.431, 40228.00
1245.508, 40606.00
1246.585, 40361.00
1247.661, 40621.00
1248.738, 40563.00
1249.814, 40716.00
1250.890, 40798.00
1251.966, 40754.00
1253.042, 41036.00
1254.117, 40722.00
1255.193, 40669.00
1256.268, 40903.00
1257.343, 40967.00
1258.418, 40882.00
1259.493, 41059.00
1260.567, 40820.00
1261.642, 40942.00
1262.716, 41030.00
1263.790, 41161.00
1264.864, 41184.73
1265.938, 41236.52
1267.011, 41226.00
1268.085, 41264.00
1269.158, 41288.00
1270.231, 41291.00
1271.304, 41427.00
1272.377, 41366.00
1273.450, 41222.00
1274.522, 41281.00
1275.594, 41336.41
1276.666, 41500.00
1277.738, 41690.00
1278.810, 41780.00
1279.882, 42162.00
1280.953, 41862.00
1282.025, 41714.00
1283.096, 41997.00
1284.167, 42129.00
1285.238, 42162.00
1286.308, 42114.00
1287.379, 42454.00
1288.449, 42627.00
1289.519, 42444.00
1290.589, 42456.00
1291.659, 42424.00
1292.729, 42649.00
1293.798, 43093.00
1294.868, 43118.00
1295.937, 43053.00
1297.006, 43121.00
1298.075, 43014.00
1299.143, 43277.00
1300.212, 42870.00
1301.280, 43421.00
1302.348, 43176.00
1303.416, 43410.00
1304.484, 43237.00
1305.552, 43491.00
1306.620, 43294.00
1307.687, 43498.00
1308.754, 43652.00
1309.821, 43488.00
1310.888, 43558.00
1311.955, 43611.00
1313.021, 43496.00
1314.088, 43791.00
1315.154, 43722.00
1316.220, 43810.00
1317.286, 43889.00
1318.352, 43948.00
1319.417, 44142.00
1320.483, 44103.00
1321.548, 44064.00
1322.613, 44210.00
1323.678, 44297.00
1324.743, 44302.00
1325.807, 44463.00
1326.872, 44403.00
1327.936, 44334.00
1329.000, 44631.00
1330.064, 44551.00
1331.128, 44698.00
1332.191, 44478.00
1333.255, 44679.00
1334.318, 44974.00
1335.381, 44717.00
1336.444, 44818.00
1337.507, 45027.00
1338.569, 45074.00
1339.632, 45226.00
1340.694, 45309.75
1341.756, 45409.00
1342.818, 45450.00
1343.880, 45409.00
1344.941, 45456.00
1346.003, 45231.00
1347.064, 45520.00
1348.125, 45463.00
1349.186, 45695.00
1350.247, 45571.00
1351.308, 45747.00
1352.368, 45713.00
1353.428, 45675.00
1354.489, 46010.00
1355.549, 45870.00
1356.608, 45926.00
1357.668, 46102.00
1358.727, 45925.00
1359.787, 46018.00
1360.846, 46263.00
1361.905, 46028.00
1362.964, 46025.00
1364.022, 46493.00
1365.081, 46384.00
1366.139, 46161.00
1367.197, 46397.00
1368.255, 46404.00
1369.313, 46390.00
1370.371, 46320.00
1371.428, 46518.00
1372.486, 46689.00
1373.543, 46683.00
1374.600, 46672.00
1375.657, 46780.00
1376.713, 46759.00
1377.770, 46872.00
1378.826, 46974.00
1379.882, 47005.00
1380.938, 46936.00
1381.994, 47145.00
1383.050, 46890.00
1384.106, 46914.00
1385.161, 47104.00
1386.216, 47316.00
1387.271, 47159.00
1388.326, 47541.00
1389.381, 47373.00
1390.435, 47355.00
1391.490, 47231.00
1392.544, 47303.00
1393.598, 47445.00
1394.652, 47579.00
1395.705, 47761.00
1396.759, 47964.00
1397.812, 47904.00
1398.866, 47945.00
1399.919, 47844.00
1400.972, 47838.00
1402.024, 48111.00
1403.077, 47792.00
1404.129, 48124.00
1405.181, 48126.00
1406.233, 48248.00
1407.285, 48395.00
1408.337, 48194.00
1409.389, 48573.00
1410.440, 48471.00
1411.491, 48318.00
1412.542, 48329.00
1413.593, 48479.00
1414.644, 48391.00
1415.695, 48799.00
1416.745, 48771.00
1417.795, 48902.00
1418.845, 48953.00
1419.895, 48926.00
1420.945, 49111.00
1421.995, 49127.00
1423.044, 49104.00
1424.093, 49080.00
1425.142, 49290.00
1426.191, 49245.00
1427.240, 49494.00
1428.289, 49450.00
1429.337, 49450.00
1430.385, 49329.00
1431.433, 49711.00
1432.481, 49703.00
1433.529, 50237.00
1434.577, 50275.00
1435.624, 50479.00
1436.672, 50187.00
1437.719, 50368.00
1438.766, 50393.00
1439.812, 50526.00
1440.859, 50425.00
1441.905, 50455.00
1442.952, 50471.00
1443.998, 50612.00
1445.044, 50750.00
1446.090, 50827.00
1447.135, 50616.00
1448.181, 50848.00
1449.226, 50997.00
1450.271, 50862.00
1451.316, 51057.00
1452.361, 50904.00
1453.405, 51079.00
1454.450, 51224.00
1455.494, 51345.00
1456.538, 51175.00
1457.582, 51270.00
1458.626, 51219.00
1459.670, 51319.00
1460.713, 51548.00
1461.757, 51556.00
1462.800, 51660.69
1463.843, 51666.00
1464.886, 51679.00
1465.928, 51547.00
1466.971, 51365.00
1468.013, 51764.00
1469.055, 51516.00
1470.097, 51790.00
1471.139, 51708.00
1472.181, 51725.00
1473.222, 51751.00
1474.263, 51914.00
1475.305, 52004.00
1476.346, 52066.31
1477.386, 52164.00
1478.427, 52165.00
1479.468, 52193.00
1480.508, 52158.00
1481.548, 52429.00
1482.588, 52319.00
1483.628, 52463.94
1484.668, 52499.00
1485.707, 52575.00
1486.747, 52762.00
1487.786, 52678.00
1488.825, 52688.00
1489.864, 52897.00
1490.902, 52896.00
1491.941, 52734.00
1492.979, 52640.00
1494.017, 52529.00
1495.055, 52968.00
1496.093, 52902.00
1497.131, 53207.00
1498.168, 53081.00
1499.206, 52999.00
1500.243, 53246.00
1501.280, 53407.00
1502.317, 53219.00
1503.354, 53374.00
1504.390, 53513.00
1505.426, 53578.00
1506.463, 53529.00
1507.499, 53567.00
1508.535, 53813.00
1509.570, 53763.88
1510.606, 53929.00
1511.641, 53897.00
1512.676, 53869.00
1513.711, 54018.00
1514.746, 54028.62
1515.781, 53988.00
1516.816, 54141.00
1517.850, 54424.00
1518.884, 54385.00
1519.918, 54321.00
1520.952, 54585.00
1521.986, 54460.00
1523.019, 54499.00
1524.053, 54435.00
1525.086, 54687.00
1526.119, 54779.00
1527.152, 54878.00
1528.185, 54526.00
1529.217, 54938.00
1530.250, 55475.00
1531.282, 54949.00
1532.314, 55168.00
1533.346, 55147.00
1534.377, 55175.00
1535.409, 55253.35
1536.440, 55392.00
1537.472, 55350.00
1538.503, 55382.00
1539.534, 55513.00
1540.564, 55275.00
1541.595, 55704.00
1542.625, 55785.00
1543.656, 55389.00
1544.686, 56059.00
1545.716, 55836.00
1546.745, 56074.00
1547.775, 55969.00
1548.804, 55908.00
1549.834, 55920.00
1550.863, 55828.00
1551.892, 56029.91
1552.920, 56150.59
1553.949, 56472.00
1554.977, 56535.00
1556.006, 56783.00
1557.034, 56851.00
1558.062, 56621.00
1559.089, 56733.00
1560.117, 56551.00
1561.144, 56615.00
1562.172, 56802.00
1563.199, 56786.87
1564.226, 56881.00
1565.252, 57037.00
1566.279, 57197.00
1567.305, 57424.00
1568.332, 57182.00
1569.358, 57178.00
1570.384, 57415.00
1571.409, 57761.00
1572.435, 57854.00
##END=



