##NAMES=Corundum
##RRUFFID=R060020
##IDEAL CHEMISTRY=Al_2_O_3_
##LOCALITY=Yogo Gulch, Montana, USA
##OWNER=RRUFF
##SOURCE=American Museum of Natural History
##DESCRIPTION=Water rounded light blue fragment
##STATUS=The identification of this mineral has been confirmed by X-ray diffraction and chemical analysis
##URL=rruff.info/R060020
##MEASURED CHEMISTRY=(Al_1.99_Fe^3+^_0.01_)_Î£=2_O_3_ ; Fe^3+^ by charge balance
##PIN_ID=L01955
##ORIENTATION=Laser parallel to c* (0 0 1). Fiducial mark perpendicular to laser is parallel to b [0 1 0]
179.5050, 10179.00
180.7290, 10103.00
181.9520, 10118.00
183.1760, 10139.00
184.3990, 10145.12
185.6220, 10085.00
186.8450, 10235.00
188.0670, 10242.00
189.2900, 10316.00
190.5120, 10428.00
191.7340, 10671.00
192.9560, 10927.00
194.1780, 11060.00
195.4000, 11211.00
196.6220, 11010.00
197.8430, 10831.00
199.0640, 10739.00
200.2860, 10824.00
201.5070, 10710.00
202.7270, 10810.00
203.9480, 10755.00
205.1690, 10732.00
206.3890, 10670.00
207.6090, 10382.00
208.8290, 10491.00
210.0490, 10352.00
211.2690, 10394.00
212.4890, 10528.00
213.7080, 10387.00
214.9280, 10414.00
216.1470, 10544.00
217.3660, 10522.00
218.5850, 10405.00
219.8030, 10541.00
221.0220, 10605.00
222.2400, 10460.00
223.4590, 10511.00
224.6770, 10523.00
225.8950, 10569.00
227.1120, 10584.00
228.3300, 10656.00
229.5480, 10680.00
230.7650, 10587.00
231.9820, 10531.00
233.1990, 10588.00
234.4160, 10661.00
235.6330, 10678.00
236.8490, 10856.00
238.0660, 10677.00
239.2820, 10898.00
240.4980, 10773.00
241.7140, 11001.00
242.9300, 10834.00
244.1460, 10759.00
245.3610, 10896.00
246.5770, 10830.00
247.7920, 10860.00
249.0070, 10914.00
250.2220, 10956.00
251.4370, 10977.48
252.6510, 10975.00
253.8660, 11014.00
255.0800, 11025.00
256.2940, 11031.00
257.5080, 11213.00
258.7220, 10950.00
259.9360, 11403.00
261.1490, 11410.00
262.3630, 11252.00
263.5760, 11051.00
264.7890, 11184.00
266.0020, 11185.00
267.2150, 11203.00
268.4270, 11284.78
269.6400, 11287.00
270.8520, 11346.00
272.0640, 11446.00
273.2760, 11379.00
274.4880, 11371.00
275.7000, 11479.00
276.9120, 11533.00
278.1230, 11511.00
279.3340, 11748.00
280.5450, 11638.00
281.7560, 11873.00
282.9670, 11750.00
284.1780, 11699.00
285.3880, 11766.00
286.5980, 11623.00
287.8090, 11681.00
289.0190, 11639.00
290.2290, 11571.00
291.4380, 11665.00
292.6480, 11462.00
293.8570, 11660.00
295.0670, 11522.00
296.2760, 11390.00
297.4850, 11469.00
298.6930, 11664.00
299.9020, 11697.00
301.1110, 11651.00
302.3190, 11520.00
303.5270, 11591.00
304.7350, 11694.00
305.9430, 11651.00
307.1510, 11728.00
308.3580, 11751.00
309.5660, 11766.88
310.7730, 11815.99
311.9800, 11827.00
313.1870, 11861.00
314.3940, 11899.65
315.6010, 11883.00
316.8070, 11939.00
318.0130, 11921.00
319.2200, 11964.00
320.4260, 11832.00
321.6310, 11919.00
322.8370, 11898.00
324.0430, 11891.23
325.2480, 12110.00
326.4540, 11938.00
327.6590, 11978.00
328.8640, 12042.00
330.0680, 11910.00
331.2730, 12223.00
332.4780, 12124.00
333.6820, 12078.00
334.8860, 12204.00
336.0900, 12066.00
337.2940, 12166.00
338.4980, 12133.00
339.7010, 12097.00
340.9050, 12351.00
342.1080, 12144.00
343.3110, 12300.00
344.5140, 12243.00
345.7170, 12317.00
346.9200, 12421.00
348.1220, 12502.00
349.3240, 12379.00
350.5270, 12443.00
351.7290, 12554.00
352.9310, 12390.00
354.1320, 12600.00
355.3340, 12569.00
356.5350, 12691.00
357.7370, 12818.00
358.9380, 12771.00
360.1390, 12811.00
361.3400, 12839.00
362.5400, 12837.41
363.7410, 12955.00
364.9410, 12942.00
366.1410, 12990.00
367.3410, 13193.00
368.5410, 13051.00
369.7410, 13075.00
370.9400, 13282.00
372.1400, 13390.00
373.3390, 13325.00
374.5380, 13545.00
375.7370, 13622.00
376.9360, 13789.00
378.1350, 13842.00
379.3330, 13974.00
380.5310, 14042.00
381.7300, 13899.00
382.9280, 14035.00
384.1260, 13968.00
385.3230, 14106.00
386.5210, 14319.00
387.7180, 14260.00
388.9160, 14462.00
390.1130, 14516.00
391.3100, 14697.00
392.5060, 14705.00
393.7030, 14796.00
394.9000, 14910.00
396.0960, 14917.00
397.2920, 14932.00
398.4880, 14849.00
399.6840, 14849.00
400.8800, 14761.00
402.0750, 14663.00
403.2710, 14562.00
404.4660, 14363.00
405.6610, 14440.00
406.8560, 14633.00
408.0510, 14865.00
409.2450, 15084.00
410.4400, 15614.00
411.6340, 15553.00
412.8280, 16019.00
414.0220, 16541.00
415.2160, 17316.00
416.4100, 17489.00
417.6030, 17341.00
418.7970, 16781.00
419.9900, 15954.00
421.1830, 15424.00
422.3760, 14963.00
423.5690, 14740.00
424.7610, 14425.00
425.9540, 14461.00
427.1460, 14318.00
428.3380, 14318.00
429.5300, 14200.00
430.7220, 14390.00
431.9140, 14458.00
433.1050, 14463.00
434.2970, 14203.00
435.4880, 14192.00
436.6790, 14066.00
437.8700, 14159.00
439.0610, 14138.00
440.2510, 14197.00
441.4420, 14169.00
442.6320, 14339.00
443.8220, 14237.00
445.0120, 14407.00
446.2020, 14618.00
447.3910, 14581.00
448.5810, 14558.00
449.7700, 14406.00
450.9600, 14404.00
452.1490, 14454.00
453.3370, 14451.00
454.5260, 14398.00
455.7150, 14504.00
456.9030, 14351.00
458.0910, 14476.00
459.2800, 14559.00
460.4670, 14544.00
461.6550, 14551.00
462.8430, 14668.00
464.0300, 14554.00
465.2180, 14477.00
466.4050, 14637.00
467.5920, 14583.00
468.7790, 14662.00
469.9650, 14824.00
471.1520, 14705.00
472.3380, 14707.00
473.5250, 14621.00
474.7110, 14702.00
475.8970, 14837.00
477.0820, 14972.00
478.2680, 14902.00
479.4540, 14837.00
480.6390, 14912.00
481.8240, 14895.00
483.0090, 15116.00
484.1940, 15177.00
485.3780, 15190.33
486.5630, 15394.00
487.7470, 15198.00
488.9320, 15223.00
490.1160, 15214.00
491.3000, 15244.00
492.4830, 15278.00
493.6670, 15332.00
494.8500, 15339.21
496.0340, 15383.16
497.2170, 15349.00
498.4000, 15444.00
499.5820, 15423.00
500.7650, 15442.00
501.9480, 15478.00
503.1300, 15703.00
504.3120, 15755.16
505.4940, 16014.00
506.6760, 16052.00
507.8580, 16169.00
509.0390, 16396.00
510.2210, 16533.00
511.4020, 16714.00
512.5830, 16713.00
513.7640, 16873.00
514.9450, 16830.00
516.1250, 16935.00
517.3060, 17053.00
518.4860, 16889.00
519.6660, 16916.00
520.8460, 16812.41
522.0260, 16735.36
523.2060, 16577.00
524.3850, 16589.00
525.5650, 16489.00
526.7440, 16421.00
527.9230, 16488.00
529.1020, 16485.00
530.2810, 16415.00
531.4590, 16413.00
532.6380, 16488.00
533.8160, 16557.00
534.9940, 16413.00
536.1720, 16313.00
537.3500, 16291.00
538.5270, 16372.00
539.7050, 16288.00
540.8820, 16391.00
542.0590, 16344.00
543.2360, 16502.00
544.4130, 16470.78
545.5900, 16241.00
546.7660, 16443.00
547.9430, 16428.00
549.1190, 16368.00
550.2950, 16431.00
551.4710, 16403.00
552.6470, 16414.51
553.8220, 16511.00
554.9980, 16450.00
556.1730, 16498.00
557.3480, 16542.00
558.5230, 16472.00
559.6980, 16588.00
560.8730, 16628.00
562.0470, 16464.00
563.2220, 16701.00
564.3960, 16469.00
565.5700, 16683.00
566.7440, 16611.00
567.9170, 16743.00
569.0910, 16867.00
570.2640, 16949.00
571.4380, 17038.00
572.6110, 17180.00
573.7840, 17125.00
574.9570, 17437.00
576.1290, 17326.00
577.3020, 17216.00
578.4740, 17347.00
579.6460, 17149.00
580.8180, 16949.00
581.9900, 17128.00
583.1620, 16959.00
584.3330, 17132.00
585.5040, 17115.00
586.6760, 17171.00
587.8470, 17132.00
589.0180, 17125.00
590.1880, 17143.00
591.3590, 17131.00
592.5290, 17163.00
593.7000, 17194.00
594.8700, 17201.00
596.0400, 17271.00
597.2090, 17415.00
598.3790, 17377.00
599.5490, 17460.00
600.7180, 17411.00
601.8870, 17489.00
603.0560, 17420.00
604.2250, 17482.44
605.3940, 17513.98
606.5620, 17591.00
607.7300, 17611.00
608.8990, 17688.00
610.0670, 17759.00
611.2350, 17796.00
612.4020, 17777.00
613.5700, 17846.00
614.7370, 17914.68
615.9050, 18223.00
617.0720, 18126.00
618.2390, 18315.00
619.4060, 18480.00
620.5720, 18490.00
621.7390, 18690.00
622.9050, 18800.00
624.0710, 18730.00
625.2370, 19151.00
626.4030, 19209.00
627.5690, 19671.00
628.7340, 19618.00
629.9000, 19894.00
631.0650, 19976.00
632.2300, 20284.00
633.3950, 20497.00
634.5600, 20682.00
635.7240, 20915.00
636.8890, 21106.00
638.0530, 21046.00
639.2170, 20914.00
640.3810, 20898.00
641.5450, 20785.00
642.7080, 20648.00
643.8720, 20597.00
645.0350, 20589.00
646.1980, 20390.00
647.3610, 20159.00
648.5240, 19847.00
649.6870, 19771.00
650.8490, 19729.00
652.0120, 19672.00
653.1740, 19576.77
654.3360, 19437.00
655.4980, 19401.00
656.6600, 19191.00
657.8210, 19129.00
658.9830, 19300.00
660.1440, 19076.00
661.3050, 19104.00
662.4660, 19329.00
663.6270, 19133.00
664.7870, 19198.00
665.9480, 19065.00
667.1080, 19099.00
668.2680, 19112.00
669.4280, 19073.00
670.5880, 19157.00
671.7480, 19384.00
672.9070, 19482.00
674.0670, 19462.00
675.2260, 19343.00
676.3850, 19395.00
677.5440, 19591.00
678.7030, 19737.00
679.8610, 19393.00
681.0200, 19356.00
682.1780, 19196.00
683.3360, 19350.00
684.4940, 19391.00
685.6520, 19297.00
686.8090, 19331.00
687.9670, 19382.00
689.1240, 19233.00
690.2810, 19393.00
691.4380, 19392.00
692.5950, 19391.00
693.7520, 19289.00
694.9080, 19368.00
696.0650, 19494.00
697.2210, 19244.00
698.3770, 19397.00
699.5330, 19385.00
700.6880, 19432.00
701.8440, 19537.00
702.9990, 19546.00
704.1550, 19538.00
705.3100, 19597.00
706.4650, 19722.00
707.6190, 19856.00
708.7740, 19916.88
709.9290, 19862.00
711.0830, 20026.00
712.2370, 20048.00
713.3910, 19997.00
714.5450, 20130.61
715.6980, 20166.65
716.8520, 20198.00
718.0050, 20335.00
719.1580, 20204.00
720.3110, 20240.00
721.4640, 20185.00
722.6170, 20349.00
723.7700, 20319.00
724.9220, 20406.00
726.0740, 20146.00
727.2260, 20469.00
728.3780, 20351.00
729.5300, 20424.00
730.6810, 20576.00
731.8330, 20554.00
732.9840, 20695.00
734.1350, 20673.00
735.2860, 20801.00
736.4370, 20673.00
737.5880, 20872.00
738.7380, 20846.00
739.8880, 21222.00
741.0390, 21288.00
742.1890, 21577.00
743.3380, 21788.00
744.4880, 21996.00
745.6380, 22173.00
746.7870, 22298.00
747.9360, 22506.00
749.0850, 22581.00
750.2340, 22465.00
751.3830, 22528.00
752.5310, 22423.00
753.6800, 22282.00
754.8280, 22112.00
755.9760, 21918.00
757.1240, 22025.00
758.2720, 21819.00
759.4190, 21821.00
760.5670, 21707.00
761.7140, 21643.00
762.8610, 21481.00
764.0080, 21614.00
765.1550, 21492.00
766.3020, 21725.00
767.4480, 21571.00
768.5950, 21512.00
769.7410, 21756.00
770.8870, 21638.00
772.0330, 21496.00
773.1780, 21766.00
774.3240, 21724.00
775.4690, 21737.00
776.6140, 21926.00
777.7590, 21663.00
778.9040, 21924.00
780.0490, 21934.00
781.1940, 21715.00
782.3380, 21967.00
783.4820, 22191.00
784.6260, 22070.00
785.7700, 22015.00
786.9140, 22093.00
788.0580, 22240.00
789.2010, 22090.00
790.3450, 22196.00
791.4880, 22154.00
792.6310, 22128.00
793.7730, 22367.00
794.9160, 22308.00
796.0590, 22464.00
797.2010, 22551.00
798.3430, 22248.00
799.4850, 22548.00
800.6270, 22486.00
801.7690, 22606.00
802.9100, 22380.00
804.0520, 22657.00
805.1930, 22566.00
806.3340, 22753.00
807.4750, 22734.00
808.6160, 22747.00
809.7560, 22968.00
810.8970, 22657.00
812.0370, 22574.00
813.1770, 22868.00
814.3170, 22917.00
815.4570, 22826.00
816.5960, 22989.00
817.7360, 23000.00
818.8750, 22911.00
820.0140, 23028.00
821.1530, 23023.00
822.2920, 22956.00
823.4310, 23045.00
824.5690, 22927.00
825.7070, 23047.00
826.8460, 22993.00
827.9840, 22968.00
829.1220, 23168.00
830.2590, 23128.00
831.3970, 23050.00
832.5340, 23173.00
833.6710, 23148.70
834.8080, 23191.00
835.9450, 23260.00
837.0820, 23309.00
838.2190, 23414.00
839.3550, 23483.00
840.4910, 23441.00
841.6270, 23512.00
842.7630, 23399.00
843.8990, 23503.00
845.0350, 23516.00
846.1700, 23649.00
847.3060, 23598.00
848.4410, 23699.00
849.5760, 23478.00
850.7100, 23609.00
851.8450, 23629.00
852.9800, 23890.00
854.1140, 23840.00
855.2480, 24087.00
856.3820, 23824.00
857.5160, 23825.00
858.6500, 23958.00
859.7830, 23989.00
860.9170, 24020.00
862.0500, 24066.41
863.1830, 24188.00
864.3160, 24079.00
865.4480, 24073.00
866.5810, 24043.00
867.7130, 24153.00
868.8460, 24033.00
869.9780, 24163.00
871.1100, 23927.00
872.2410, 24162.00
873.3730, 24037.00
874.5050, 24243.00
875.6360, 24364.00
876.7670, 24277.00
877.8980, 24416.00
879.0290, 24346.00
880.1590, 24350.00
881.2900, 24348.00
882.4200, 24569.00
883.5500, 24566.00
884.6800, 24468.00
885.8100, 24710.00
886.9400, 24746.00
888.0690, 24710.00
889.1990, 24552.00
890.3280, 24579.00
891.4570, 24916.00
892.5860, 24787.00
893.7140, 24835.00
894.8430, 24687.00
895.9710, 24727.00
897.1000, 24724.00
898.2280, 24879.00
899.3560, 24874.00
900.4830, 25017.00
901.6110, 25066.00
902.7380, 25003.00
903.8660, 24879.00
904.9930, 24991.00
906.1200, 25063.00
907.2460, 25184.00
908.3730, 25132.00
909.5000, 25052.00
910.6260, 25373.00
911.7520, 24995.00
912.8780, 25379.00
914.0040, 25414.00
915.1290, 25447.00
916.2550, 25402.00
917.3800, 25519.00
918.5050, 25529.00
919.6300, 25474.00
920.7550, 25626.00
921.8800, 25636.00
923.0040, 25507.00
924.1290, 25650.00
925.2530, 25846.00
926.3770, 25681.00
927.5010, 25725.00
928.6250, 26026.00
929.7480, 25921.00
930.8720, 25977.00
931.9950, 25914.00
933.1180, 26121.00
934.2410, 25863.00
935.3640, 26107.00
936.4860, 25984.00
937.6090, 26137.00
938.7310, 26097.00
939.8530, 26154.00
940.9750, 26206.00
942.0970, 26359.00
943.2180, 26212.00
944.3400, 26304.00
945.4610, 26496.00
946.5820, 26430.00
947.7030, 26596.00
948.8240, 26453.00
949.9450, 26692.00
951.0650, 26664.00
952.1860, 26640.00
953.3060, 26944.00
954.4260, 26660.00
955.5460, 26851.00
956.6650, 26757.00
957.7850, 26906.00
958.9040, 26832.00
960.0230, 26930.00
961.1420, 26895.00
962.2610, 26927.00
963.3800, 27072.00
964.4990, 26991.00
965.6170, 27232.00
966.7350, 26997.00
967.8530, 27129.00
968.9710, 27087.00
970.0890, 27312.00
971.2070, 27425.00
972.3240, 27528.00
973.4410, 27612.67
974.5580, 27609.62
975.6750, 27638.00
976.7920, 27615.00
977.9090, 27505.00
979.0250, 27626.00
980.1410, 27574.42
981.2580, 27557.00
982.3740, 27628.00
983.4890, 27749.00
984.6050, 27847.00
985.7200, 27909.62
986.8360, 27936.00
987.9510, 28018.00
989.0660, 28063.39
990.1810, 28100.71
991.2950, 28164.00
992.4100, 28181.00
993.5240, 28202.29
994.6390, 28256.00
995.7530, 28285.00
996.8660, 28163.00
997.9800, 28268.00
999.0940, 28481.00
1000.207, 28394.00
1001.320, 28680.00
1002.433, 28783.00
1003.546, 28585.00
1004.659, 28434.00
1005.772, 28622.00
1006.884, 28454.00
1007.996, 28721.00
1009.108, 28625.00
1010.220, 28687.00
1011.332, 28740.00
1012.444, 28720.00
1013.555, 28798.97
1014.666, 28842.00
1015.777, 28867.00
1016.888, 29027.00
1017.999, 28992.00
1019.110, 29041.00
1020.220, 29130.02
1021.331, 29108.00
1022.441, 29243.00
1023.551, 29348.00
1024.661, 29346.00
1025.770, 29516.00
1026.880, 29132.00
1027.989, 29358.00
1029.098, 29299.00
1030.207, 29421.00
1031.316, 29451.00
1032.425, 29554.00
1033.533, 29567.00
1034.642, 29743.00
1035.750, 29760.00
1036.858, 29751.00
1037.966, 29818.00
1039.073, 29675.00
1040.181, 29700.00
1041.288, 29909.00
1042.396, 29884.00
1043.503, 30062.00
1044.610, 29880.00
1045.716, 29914.00
1046.823, 30034.00
1047.929, 30114.00
1049.036, 30243.00
1050.142, 30060.00
1051.248, 30320.00
1052.353, 30291.00
1053.459, 30456.00
1054.564, 30387.00
1055.670, 30575.00
1056.775, 30620.00
1057.880, 30477.00
1058.985, 30649.00
1060.089, 30557.00
1061.194, 30750.00
1062.298, 30660.00
1063.402, 30888.00
1064.506, 30810.00
1065.610, 30860.00
1066.713, 30944.00
1067.817, 31163.00
1068.920, 31020.00
1070.023, 31085.00
1071.126, 31115.00
1072.229, 31084.00
1073.332, 31124.00
1074.435, 31041.00
1075.537, 31062.34
1076.639, 31303.11
1077.741, 31455.52
1078.843, 31524.33
1079.945, 31259.13
1081.046, 31425.20
1082.148, 31418.45
1083.249, 31404.58
1084.350, 31631.35
1085.451, 31414.70
1086.551, 31637.62
1087.652, 31685.09
1088.752, 31812.83
1089.853, 31766.71
1090.953, 31774.26
1092.053, 31955.78
1093.152, 32040.94
1094.252, 31974.75
1095.351, 32107.57
1096.451, 31884.80
1097.550, 31974.06
1098.649, 32049.00
1099.748, 32117.00
1100.846, 32297.00
1101.945, 32302.00
1103.043, 32387.00
1104.141, 32253.00
1105.239, 32381.00
1106.337, 32322.00
1107.434, 32358.00
1108.532, 32523.00
1109.629, 32455.00
1110.726, 32438.00
1111.823, 32613.00
1112.920, 32737.00
1114.017, 32806.00
1115.113, 32815.00
1116.210, 32861.00
1117.306, 33073.00
1118.402, 32826.00
1119.498, 33270.00
1120.593, 33251.00
1121.689, 33140.00
1122.784, 33208.00
1123.879, 33264.00
1124.974, 33462.00
1126.069, 33309.00
1127.164, 33421.00
1128.259, 33521.00
1129.353, 33511.00
1130.447, 33621.00
1131.541, 33496.00
1132.635, 33624.00
1133.729, 33563.00
1134.822, 33607.00
1135.916, 33674.00
1137.009, 33743.00
1138.102, 33794.00
1139.195, 33695.00
1140.288, 33898.00
1141.380, 33603.00
1142.473, 33889.00
1143.565, 34169.00
1144.657, 33955.00
1145.749, 33976.00
1146.841, 33862.00
1147.932, 33930.00
1149.024, 34099.00
1150.115, 33994.00
1151.206, 34135.00
1152.297, 34331.00
1153.388, 34284.00
1154.479, 34369.00
1155.569, 34433.00
1156.659, 34495.02
1157.750, 34546.00
1158.839, 34620.00
1159.929, 34754.00
1161.019, 34679.00
1162.108, 34827.00
1163.198, 34658.00
1164.287, 34709.00
1165.376, 35013.00
1166.465, 34909.00
1167.553, 35006.00
1168.642, 35034.00
1169.730, 35140.00
1170.818, 35057.00
1171.906, 35235.00
1172.994, 35227.00
1174.082, 35201.00
1175.170, 35297.00
1176.257, 35321.00
1177.344, 35382.00
1178.431, 35513.00
1179.518, 35591.00
1180.605, 35588.00
1181.691, 35801.00
1182.778, 35676.00
1183.864, 35834.00
1184.950, 35772.00
1186.036, 35751.00
1187.122, 36061.00
1188.207, 35817.00
1189.292, 35899.00
1190.378, 35922.00
1191.463, 36143.00
1192.548, 36053.00
1193.632, 36143.00
1194.717, 36097.00
1195.801, 36238.00
1196.886, 36386.00
1197.970, 36238.00
1199.054, 36338.00
1200.137, 36249.00
1201.221, 36577.00
1202.305, 36297.00
1203.388, 36557.00
1204.471, 36507.00
1205.554, 36548.00
1206.637, 36840.00
1207.719, 36915.00
1208.802, 36873.00
1209.884, 36955.00
1210.966, 36860.00
1212.048, 36867.00
1213.130, 37020.00
1214.212, 37071.00
1215.293, 37171.00
1216.374, 37187.00
1217.456, 37323.00
1218.536, 37314.00
1219.617, 37504.00
1220.698, 37174.00
1221.778, 37654.00
1222.859, 37571.00
1223.939, 37334.00
1225.019, 37635.00
1226.099, 37762.00
1227.178, 37810.00
1228.258, 37648.00
1229.337, 37950.00
1230.417, 37807.00
1231.496, 37791.00
1232.574, 37826.00
1233.653, 38112.00
1234.732, 38158.00
1235.810, 38305.00
1236.888, 38270.00
1237.966, 38558.00
1239.044, 38449.00
1240.122, 38138.00
1241.199, 38352.00
1242.277, 38289.00
1243.354, 38540.00
1244.431, 38681.00
1245.508, 38556.00
1246.585, 38688.00
1247.661, 38778.00
1248.738, 38660.00
1249.814, 38678.00
1250.890, 38666.00
1251.966, 38982.00
1253.042, 38778.00
1254.117, 38850.00
1255.193, 38817.00
1256.268, 38743.00
1257.343, 39049.00
1258.418, 38781.00
1259.493, 38914.00
1260.567, 39201.00
1261.642, 39085.00
1262.716, 39136.00
1263.790, 39335.00
1264.864, 39455.00
1265.938, 39635.00
1267.011, 39696.59
1268.085, 39633.00
1269.158, 39811.00
1270.231, 39722.00
1271.304, 39798.00
1272.377, 39585.00
1273.450, 39665.00
1274.522, 39891.00
1275.594, 40000.00
1276.666, 40130.00
1277.738, 40158.04
1278.810, 39891.00
1279.882, 40091.00
1280.953, 40180.00
1282.025, 40069.00
1283.096, 40417.00
1284.167, 40287.00
1285.238, 40210.00
1286.308, 40288.00
1287.379, 40348.61
1288.449, 40368.00
1289.519, 40765.00
1290.589, 40808.00
1291.659, 41243.00
1292.729, 40915.00
1293.798, 40916.00
1294.868, 40995.00
1295.937, 41075.00
1297.006, 41294.00
1298.075, 41539.00
1299.143, 41778.00
1300.212, 41098.00
1301.280, 41282.00
1302.348, 41360.00
1303.416, 41654.00
1304.484, 41585.00
1305.552, 41672.00
1306.620, 41613.00
1307.687, 41827.00
1308.754, 41676.00
1309.821, 42080.00
1310.888, 41813.00
1311.955, 41993.00
1313.021, 41976.00
1314.088, 41978.00
1315.154, 41968.00
1316.220, 42026.00
1317.286, 42046.00
1318.352, 42120.15
1319.417, 42399.00
1320.483, 42375.00
1321.548, 42532.00
1322.613, 42848.00
1323.678, 42497.00
1324.743, 42435.00
1325.807, 42456.00
1326.872, 42677.00
1327.936, 42863.00
1329.000, 42734.00
1330.064, 42886.00
1331.128, 42849.00
1332.191, 42975.00
1333.255, 42923.00
1334.318, 42863.00
1335.381, 43001.00
1336.444, 42757.00
1337.507, 43190.00
1338.569, 43487.00
1339.632, 43294.00
1340.694, 43365.00
1341.756, 43547.00
1342.818, 43470.00
1343.880, 43581.00
1344.941, 43635.00
1346.003, 43739.00
1347.064, 43749.00
1348.125, 43837.00
1349.186, 43901.57
1350.247, 43928.96
1351.308, 44033.00
1352.368, 44001.00
1353.428, 44044.00
1354.489, 44076.00
1355.549, 44088.00
1356.608, 44178.98
1357.668, 44121.00
1358.727, 44395.00
1359.787, 44455.00
1360.846, 44649.00
1361.905, 44586.00
1362.964, 44631.00
1364.022, 44652.00
1365.081, 44659.00
1366.139, 44453.00
1367.197, 44595.00
1368.255, 44667.00
1369.313, 44780.00
1370.371, 44911.00
1371.428, 45178.00
1372.486, 44898.00
1373.543, 45257.00
1374.600, 45231.00
1375.657, 45179.00
1376.713, 44917.00
1377.770, 45367.00
1378.826, 45337.00
1379.882, 45229.00
1380.938, 45442.00
1381.994, 45332.00
1383.050, 45465.00
1384.106, 45547.00
1385.161, 45493.00
1386.216, 45745.00
1387.271, 45681.00
1388.326, 45647.00
1389.381, 45982.00
1390.435, 46079.00
1391.490, 45778.00
1392.544, 45879.00
1393.598, 46055.00
1394.652, 46041.00
1395.705, 46025.00
1396.759, 46201.00
1397.812, 46235.00
1398.866, 46146.00
1399.919, 46479.00
1400.972, 46422.00
1402.024, 46329.00
1403.077, 46418.00
1404.129, 46354.70
1405.181, 46413.00
1406.233, 46391.00
1407.285, 46568.00
1408.337, 46697.00
1409.389, 46888.00
1410.440, 46970.79
1411.491, 47169.00
1412.542, 47141.00
1413.593, 47115.00
1414.644, 47196.00
1415.695, 47344.00
1416.745, 47328.00
1417.795, 47466.41
1418.845, 47545.00
1419.895, 47603.00
1420.945, 47603.00
1421.995, 47532.00
1423.044, 47716.00
1424.093, 47854.00
1425.142, 47915.00
1426.191, 47813.00
1427.240, 47873.00
1428.289, 48325.00
1429.337, 48269.00
1430.385, 48033.00
1431.433, 48445.00
1432.481, 48368.00
1433.529, 48572.00
1434.577, 48556.00
1435.624, 48853.00
1436.672, 48864.00
1437.719, 49083.00
1438.766, 49046.00
1439.812, 49203.00
1440.859, 49134.00
1441.905, 49200.00
1442.952, 49402.00
1443.998, 49383.88
1445.044, 49454.00
1446.090, 49552.00
1447.135, 49430.00
1448.181, 49573.00
1449.226, 49554.00
1450.271, 49689.00
1451.316, 49429.00
1452.361, 49596.00
1453.405, 49672.00
1454.450, 49677.00
1455.494, 49917.00
1456.538, 49700.00
1457.582, 50023.00
1458.626, 49720.00
1459.670, 50079.00
1460.713, 50160.00
1461.757, 50284.00
1462.800, 50236.00
1463.843, 50288.00
1464.886, 50269.99
1465.928, 50363.00
1466.971, 50248.00
1468.013, 50062.00
1469.055, 50138.89
1470.097, 50700.00
1471.139, 50372.00
1472.181, 50458.00
1473.222, 50665.00
1474.263, 50469.00
1475.305, 50665.00
1476.346, 50798.00
1477.386, 50751.00
1478.427, 51238.00
1479.468, 50924.00
1480.508, 50957.00
1481.548, 51035.00
1482.588, 51448.00
1483.628, 51602.00
1484.668, 51494.00
1485.707, 51427.00
1486.747, 51372.00
1487.786, 51673.00
1488.825, 51148.00
1489.864, 51473.00
1490.902, 51952.00
1491.941, 51712.00
1492.979, 51728.00
1494.017, 51662.00
1495.055, 51774.00
1496.093, 51945.00
1497.131, 51741.00
1498.168, 52115.00
1499.206, 51651.00
1500.243, 51830.00
1501.280, 52156.00
1502.317, 52154.00
1503.354, 52121.00
1504.390, 52141.00
1505.426, 52214.78
1506.463, 52585.00
1507.499, 52346.00
1508.535, 52716.00
1509.570, 52672.00
1510.606, 52866.00
1511.641, 52645.00
1512.676, 52989.00
1513.711, 53140.00
1514.746, 53018.00
1515.781, 53110.00
1516.816, 53183.00
1517.850, 53111.00
1518.884, 53232.49
1519.918, 53275.38
1520.952, 53409.00
1521.986, 53400.00
1523.019, 53570.00
1524.053, 53561.00
1525.086, 53663.00
1526.119, 53705.00
1527.152, 53758.00
1528.185, 53953.00
1529.217, 53895.00
1530.250, 54023.00
1531.282, 54427.00
1532.314, 54257.00
1533.346, 54089.00
1534.377, 54267.00
1535.409, 54588.00
1536.440, 54451.00
1537.472, 54464.00
1538.503, 54430.00
1539.534, 54333.00
1540.564, 54706.00
1541.595, 54579.00
1542.625, 54671.00
1543.656, 54948.00
1544.686, 54945.00
1545.716, 54919.00
1546.745, 55046.00
1547.775, 55251.00
1548.804, 54833.00
1549.834, 55282.00
1550.863, 55182.00
1551.892, 55357.00
1552.920, 55373.00
1553.949, 55587.00
1554.977, 55411.00
1556.006, 55589.58
1557.034, 55969.00
1558.062, 55753.00
1559.089, 55951.00
1560.117, 55981.00
1561.144, 55993.00
1562.172, 55980.00
1563.199, 56226.00
1564.226, 56454.00
1565.252, 56515.00
1566.279, 56276.00
1567.305, 56319.00
1568.332, 56515.00
1569.358, 56662.00
1570.384, 56709.00
1571.409, 56816.00
1572.435, 57198.00
##END=



