##NAMES=Corundum
##RRUFFID=R060020
##IDEAL CHEMISTRY=Al_2_O_3_
##LOCALITY=Yogo Gulch, Montana, USA
##OWNER=RRUFF
##SOURCE=American Museum of Natural History
##DESCRIPTION=Water rounded light blue fragment
##STATUS=The identification of this mineral has been confirmed by X-ray diffraction and chemical analysis
##URL=rruff.info/R060020
##MEASURED CHEMISTRY=(Al_1.99_Fe^3+^_0.01_)_Î£=2_O_3_ ; Fe^3+^ by charge balance
##PIN_ID=L01262
##ORIENTATION=Laser parallel to -a* (-1 0 0). Fiducial mark perpendicular to laser is parallel to c [0 0 1]
114.4400, 7222.000
115.6710, 7319.000
116.9030, 7426.000
118.1340, 7401.000
119.3650, 7449.000
120.5960, 7301.000
121.8270, 7493.000
123.0580, 7361.000
124.2880, 7417.000
125.5190, 7497.000
126.7490, 7524.000
127.9790, 7479.000
129.2090, 7457.000
130.4390, 7554.000
131.6680, 7601.000
132.8980, 7504.000
134.1270, 7565.000
135.3560, 7673.000
136.5850, 7683.000
137.8140, 7568.000
139.0430, 7594.000
140.2710, 7589.000
141.5000, 7752.000
142.7280, 7710.000
143.9560, 7758.000
145.1840, 7719.000
146.4120, 7729.000
147.6390, 7789.000
148.8670, 7775.000
150.0940, 7823.005
151.3210, 7897.000
152.5490, 7878.000
153.7750, 7925.000
155.0020, 7918.000
156.2290, 7905.000
157.4550, 7908.000
158.6810, 7836.000
159.9080, 7977.000
161.1340, 7932.000
162.3590, 7871.000
163.5850, 7878.000
164.8110, 8132.000
166.0360, 8084.000
167.2610, 8120.000
168.4860, 8020.000
169.7110, 8126.000
170.9360, 8088.000
172.1610, 8176.000
173.3850, 8208.000
174.6100, 8214.000
175.8340, 8242.895
177.0580, 8296.000
178.2820, 8254.000
179.5050, 8285.000
180.7290, 8316.000
181.9520, 8306.000
183.1760, 8348.000
184.3990, 8317.000
185.6220, 8469.000
186.8450, 8503.000
188.0670, 8570.000
189.2900, 8438.000
190.5120, 8482.000
191.7340, 8548.000
192.9560, 8577.000
194.1780, 8575.000
195.4000, 8711.000
196.6220, 8654.000
197.8430, 8827.000
199.0640, 8750.000
200.2860, 8874.000
201.5070, 8967.000
202.7270, 8981.000
203.9480, 8907.000
205.1690, 8980.000
206.3890, 8903.000
207.6090, 8756.000
208.8290, 8743.000
210.0490, 8804.000
211.2690, 8920.000
212.4890, 8818.000
213.7080, 8891.000
214.9280, 8883.000
216.1470, 8874.000
217.3660, 8978.000
218.5850, 8971.000
219.8030, 8909.000
221.0220, 9077.000
222.2400, 8897.000
223.4590, 8937.000
224.6770, 8974.000
225.8950, 8957.000
227.1120, 8989.000
228.3300, 8953.000
229.5480, 8873.000
230.7650, 8931.000
231.9820, 8984.000
233.1990, 8975.000
234.4160, 8886.000
235.6330, 9128.000
236.8490, 8961.000
238.0660, 9020.000
239.2820, 9182.000
240.4980, 9142.000
241.7140, 9161.000
242.9300, 9298.000
244.1460, 9264.000
245.3610, 9117.000
246.5770, 9254.000
247.7920, 9353.000
249.0070, 9201.000
250.2220, 9311.000
251.4370, 9217.000
252.6510, 9267.000
253.8660, 9300.000
255.0800, 9329.000
256.2940, 9320.000
257.5080, 9362.000
258.7220, 9365.059
259.9360, 9349.992
261.1490, 9384.652
262.3630, 9413.000
263.5760, 9420.000
264.7890, 9468.000
266.0020, 9338.000
267.2150, 9359.000
268.4270, 9408.000
269.6400, 9513.000
270.8520, 9431.000
272.0640, 9439.000
273.2760, 9425.000
274.4880, 9346.000
275.7000, 9434.000
276.9120, 9472.000
278.1230, 9532.000
279.3340, 9489.000
280.5450, 9531.000
281.7560, 9564.000
282.9670, 9426.000
284.1780, 9465.000
285.3880, 9542.000
286.5980, 9478.000
287.8090, 9570.000
289.0190, 9353.000
290.2290, 9447.000
291.4380, 9502.000
292.6480, 9538.000
293.8570, 9597.000
295.0670, 9607.000
296.2760, 9556.000
297.4850, 9544.000
298.6930, 9504.000
299.9020, 9551.000
301.1110, 9657.000
302.3190, 9699.000
303.5270, 9711.368
304.7350, 9602.000
305.9430, 9726.000
307.1510, 9656.000
308.3580, 9704.000
309.5660, 9706.000
310.7730, 9705.186
311.9800, 9665.000
313.1870, 9751.000
314.3940, 9737.000
315.6010, 9789.915
316.8070, 9819.000
318.0130, 9811.000
319.2200, 9774.000
320.4260, 9787.000
321.6310, 9643.000
322.8370, 9739.000
324.0430, 9739.000
325.2480, 9963.000
326.4540, 9845.000
327.6590, 9782.000
328.8640, 9908.000
330.0680, 9835.000
331.2730, 9778.000
332.4780, 9918.000
333.6820, 9807.000
334.8860, 9881.000
336.0900, 9851.000
337.2940, 9950.000
338.4980, 9964.242
339.7010, 9934.000
340.9050, 10012.00
342.1080, 10031.00
343.3110, 10015.00
344.5140, 10072.00
345.7170, 10130.00
346.9200, 10200.00
348.1220, 10149.00
349.3240, 10206.00
350.5270, 10213.00
351.7290, 10281.00
352.9310, 10360.00
354.1320, 10364.00
355.3340, 10278.00
356.5350, 10367.00
357.7370, 10394.00
358.9380, 10403.00
360.1390, 10469.00
361.3400, 10410.00
362.5400, 10536.00
363.7410, 10659.00
364.9410, 10669.00
366.1410, 10655.00
367.3410, 10746.00
368.5410, 10694.00
369.7410, 10737.00
370.9400, 10971.00
372.1400, 11025.00
373.3390, 10871.00
374.5380, 11232.00
375.7370, 11140.00
376.9360, 11239.00
378.1350, 11100.00
379.3330, 11292.00
380.5310, 11238.00
381.7300, 11128.00
382.9280, 11071.00
384.1260, 11265.00
385.3230, 11231.00
386.5210, 11255.00
387.7180, 11049.00
388.9160, 11064.00
390.1130, 11080.00
391.3100, 11118.00
392.5060, 11254.00
393.7030, 11386.00
394.9000, 11321.00
396.0960, 11179.00
397.2920, 11362.00
398.4880, 11259.00
399.6840, 11368.00
400.8800, 11527.00
402.0750, 11359.00
403.2710, 11418.00
404.4660, 11581.00
405.6610, 11746.00
406.8560, 12035.00
408.0510, 12529.00
409.2450, 13189.00
410.4400, 13945.00
411.6340, 14618.00
412.8280, 15807.00
414.0220, 17529.00
415.2160, 19460.00
416.4100, 20011.00
417.6030, 18692.00
418.7970, 17478.00
419.9900, 16755.00
421.1830, 15544.00
422.3760, 14284.00
423.5690, 13387.00
424.7610, 12580.00
425.9540, 12223.00
427.1460, 12059.00
428.3380, 12052.00
429.5300, 11947.00
430.7220, 12067.00
431.9140, 11813.00
433.1050, 11892.00
434.2970, 11753.00
435.4880, 11833.00
436.6790, 11670.00
437.8700, 11500.00
439.0610, 11540.00
440.2510, 11606.00
441.4420, 11777.00
442.6320, 11776.00
443.8220, 11852.00
445.0120, 11867.00
446.2020, 12055.00
447.3910, 12097.00
448.5810, 12116.00
449.7700, 11953.00
450.9600, 11964.00
452.1490, 11883.00
453.3370, 11802.00
454.5260, 11939.00
455.7150, 11723.00
456.9030, 11771.00
458.0910, 11951.00
459.2800, 11864.00
460.4670, 11916.00
461.6550, 11738.00
462.8430, 11920.00
464.0300, 11904.00
465.2180, 11943.00
466.4050, 11858.00
467.5920, 11886.00
468.7790, 12008.00
469.9650, 11930.00
471.1520, 12071.00
472.3380, 11749.00
473.5250, 11968.00
474.7110, 11957.00
475.8970, 12028.00
477.0820, 12150.00
478.2680, 12237.00
479.4540, 12098.00
480.6390, 12219.00
481.8240, 12100.00
483.0090, 12247.00
484.1940, 12298.00
485.3780, 12457.00
486.5630, 12347.00
487.7470, 12482.00
488.9320, 12365.00
490.1160, 12368.00
491.3000, 12400.00
492.4830, 12356.00
493.6670, 12485.00
494.8500, 12434.11
496.0340, 12439.00
497.2170, 12446.00
498.4000, 12310.00
499.5820, 12387.00
500.7650, 12402.00
501.9480, 12314.00
503.1300, 12356.00
504.3120, 12423.00
505.4940, 12405.00
506.6760, 12521.00
507.8580, 12520.00
509.0390, 12563.00
510.2210, 12609.43
511.4020, 12578.00
512.5830, 12620.00
513.7640, 12678.00
514.9450, 12689.23
516.1250, 12784.00
517.3060, 12759.00
518.4860, 12848.00
519.6660, 12875.00
520.8460, 12864.00
522.0260, 12944.00
523.2060, 12884.00
524.3850, 12829.00
525.5650, 12864.00
526.7440, 12908.00
527.9230, 12990.00
529.1020, 12983.00
530.2810, 13032.52
531.4590, 13031.00
532.6380, 13081.00
533.8160, 13007.00
534.9940, 13019.00
536.1720, 13185.00
537.3500, 12905.00
538.5270, 13105.00
539.7050, 13242.00
540.8820, 13157.00
542.0590, 13158.00
543.2360, 13084.00
544.4130, 13144.00
545.5900, 13345.00
546.7660, 13164.00
547.9430, 13221.00
549.1190, 13462.00
550.2950, 13262.00
551.4710, 13321.00
552.6470, 13417.00
553.8220, 13210.00
554.9980, 13386.00
556.1730, 13443.00
557.3480, 13607.00
558.5230, 13538.00
559.6980, 13518.00
560.8730, 13476.00
562.0470, 13555.00
563.2220, 13590.00
564.3960, 13570.00
565.5700, 13675.00
566.7440, 13708.58
567.9170, 13822.00
569.0910, 13839.00
570.2640, 13966.00
571.4380, 14023.00
572.6110, 14253.00
573.7840, 14516.00
574.9570, 14725.00
576.1290, 14574.00
577.3020, 14561.00
578.4740, 14504.00
579.6460, 14359.00
580.8180, 14297.00
581.9900, 14245.09
583.1620, 14185.00
584.3330, 14193.00
585.5040, 14144.00
586.6760, 14171.44
587.8470, 14032.00
589.0180, 14147.00
590.1880, 14064.00
591.3590, 14101.00
592.5290, 14232.00
593.7000, 14110.00
594.8700, 14030.00
596.0400, 14349.00
597.2090, 14357.00
598.3790, 14280.00
599.5490, 14136.00
600.7180, 14280.00
601.8870, 14196.00
603.0560, 14285.00
604.2250, 14421.00
605.3940, 14355.00
606.5620, 14425.00
607.7300, 14499.00
608.8990, 14483.00
610.0670, 14564.00
611.2350, 14536.00
612.4020, 14491.00
613.5700, 14501.00
614.7370, 14545.00
615.9050, 14709.00
617.0720, 14715.00
618.2390, 14730.00
619.4060, 14589.00
620.5720, 14700.81
621.7390, 14913.00
622.9050, 14851.00
624.0710, 14971.00
625.2370, 15075.00
626.4030, 15196.00
627.5690, 15370.00
628.7340, 15291.00
629.9000, 15186.00
631.0650, 15077.00
632.2300, 15226.00
633.3950, 15057.00
634.5600, 15156.00
635.7240, 15035.00
636.8890, 15151.00
638.0530, 15109.00
639.2170, 14956.00
640.3810, 15039.00
641.5450, 15329.00
642.7080, 15319.00
643.8720, 15153.00
645.0350, 15391.00
646.1980, 15326.00
647.3610, 15375.00
648.5240, 15479.00
649.6870, 15554.00
650.8490, 15492.00
652.0120, 15603.00
653.1740, 15535.00
654.3360, 15683.00
655.4980, 15676.00
656.6600, 15722.00
657.8210, 15500.00
658.9830, 15680.00
660.1440, 15533.00
661.3050, 15494.00
662.4660, 15447.00
663.6270, 15506.00
664.7870, 15446.30
665.9480, 15393.00
667.1080, 15465.00
668.2680, 15448.00
669.4280, 15477.74
670.5880, 15545.00
671.7480, 15565.00
672.9070, 15561.00
674.0670, 15646.00
675.2260, 15651.00
676.3850, 15587.00
677.5440, 15674.00
678.7030, 15718.00
679.8610, 15717.00
681.0200, 15580.00
682.1780, 15705.00
683.3360, 15884.00
684.4940, 15624.00
685.6520, 15672.00
686.8090, 15730.00
687.9670, 15561.00
689.1240, 15682.00
690.2810, 15752.00
691.4380, 15636.00
692.5950, 15759.00
693.7520, 15732.82
694.9080, 15809.00
696.0650, 15741.00
697.2210, 15767.00
698.3770, 15740.00
699.5330, 16003.00
700.6880, 15932.00
701.8440, 15927.00
702.9990, 15795.00
704.1550, 15962.00
705.3100, 16015.00
706.4650, 15944.00
707.6190, 15918.00
708.7740, 15933.96
709.9290, 15998.00
711.0830, 15963.00
712.2370, 16038.00
713.3910, 16111.00
714.5450, 15979.00
715.6980, 16287.00
716.8520, 16288.00
718.0050, 16400.00
719.1580, 16272.00
720.3110, 16428.00
721.4640, 16380.00
722.6170, 16418.00
723.7700, 16481.00
724.9220, 16687.00
726.0740, 16743.00
727.2260, 16884.26
728.3780, 16825.00
729.5300, 17076.00
730.6810, 17058.00
731.8330, 17016.00
732.9840, 17282.00
734.1350, 17281.00
735.2860, 17415.00
736.4370, 17423.00
737.5880, 17602.00
738.7380, 17983.00
739.8880, 18040.00
741.0390, 18394.00
742.1890, 18457.00
743.3380, 18718.00
744.4880, 19192.00
745.6380, 19500.00
746.7870, 19753.00
747.9360, 20072.00
749.0850, 20195.00
750.2340, 20011.00
751.3830, 20286.00
752.5310, 19952.00
753.6800, 19828.00
754.8280, 19560.00
755.9760, 19374.00
757.1240, 19342.00
758.2720, 18903.00
759.4190, 18901.00
760.5670, 18685.00
761.7140, 18597.00
762.8610, 18607.00
764.0080, 18640.00
765.1550, 18460.00
766.3020, 18428.00
767.4480, 18620.00
768.5950, 18591.00
769.7410, 18346.00
770.8870, 18713.00
772.0330, 18514.00
773.1780, 18538.00
774.3240, 18571.00
775.4690, 18598.00
776.6140, 18613.49
777.7590, 18650.00
778.9040, 18636.00
780.0490, 18671.00
781.1940, 18672.00
782.3380, 18744.00
783.4820, 18817.00
784.6260, 18922.00
785.7700, 18864.00
786.9140, 18899.00
788.0580, 18918.00
789.2010, 18915.00
790.3450, 18876.00
791.4880, 19090.00
792.6310, 19099.00
793.7730, 19042.00
794.9160, 19221.00
796.0590, 19240.00
797.2010, 19233.00
798.3430, 19175.00
799.4850, 19374.00
800.6270, 19521.00
801.7690, 19195.00
802.9100, 19510.00
804.0520, 19567.00
805.1930, 19466.00
806.3340, 19646.00
807.4750, 19504.00
808.6160, 19585.00
809.7560, 19707.00
810.8970, 19605.00
812.0370, 19559.00
813.1770, 19822.00
814.3170, 19737.00
815.4570, 19723.00
816.5960, 19883.00
817.7360, 19814.13
818.8750, 19602.00
820.0140, 19860.00
821.1530, 19722.00
822.2920, 19778.00
823.4310, 19703.00
824.5690, 19624.00
825.7070, 19668.00
826.8460, 19625.00
827.9840, 19840.00
829.1220, 19745.00
830.2590, 19940.00
831.3970, 19747.00
832.5340, 19783.00
833.6710, 19661.00
834.8080, 19724.00
835.9450, 20017.00
837.0820, 19787.00
838.2190, 19877.00
839.3550, 20108.00
840.4910, 19811.00
841.6270, 19911.00
842.7630, 19932.00
843.8990, 19952.00
845.0350, 19905.00
846.1700, 19885.00
847.3060, 20147.00
848.4410, 20087.00
849.5760, 19973.00
850.7100, 20210.00
851.8450, 20165.00
852.9800, 20283.00
854.1140, 20169.00
855.2480, 20260.00
856.3820, 20285.00
857.5160, 20408.00
858.6500, 20398.00
859.7830, 20594.00
860.9170, 20613.00
862.0500, 20638.57
863.1830, 20728.00
864.3160, 20639.00
865.4480, 20701.00
866.5810, 20676.00
867.7130, 20648.00
868.8460, 20536.00
869.9780, 20639.00
871.1100, 20749.00
872.2410, 20556.00
873.3730, 20724.00
874.5050, 20782.00
875.6360, 20693.00
876.7670, 20639.00
877.8980, 20786.00
879.0290, 20697.00
880.1590, 20714.00
881.2900, 20586.00
882.4200, 20711.00
883.5500, 20662.00
884.6800, 20858.00
885.8100, 21018.00
886.9400, 20751.00
888.0690, 20851.00
889.1990, 20861.00
890.3280, 20740.00
891.4570, 20892.00
892.5860, 20887.00
893.7140, 21121.00
894.8430, 20952.00
895.9710, 21025.00
897.1000, 21055.00
898.2280, 21205.00
899.3560, 20994.00
900.4830, 21049.00
901.6110, 21185.00
902.7380, 21138.00
903.8660, 21183.31
904.9930, 21316.00
906.1200, 21205.00
907.2460, 21237.00
908.3730, 21327.00
909.5000, 21334.00
910.6260, 21548.00
911.7520, 21377.00
912.8780, 21512.00
914.0040, 21624.00
915.1290, 21587.00
916.2550, 21529.00
917.3800, 21500.00
918.5050, 21558.00
919.6300, 21702.00
920.7550, 21637.00
921.8800, 21725.00
923.0040, 21859.00
924.1290, 21791.00
925.2530, 21893.00
926.3770, 21947.00
927.5010, 21851.00
928.6250, 21987.00
929.7480, 22024.00
930.8720, 22009.72
931.9950, 22103.00
933.1180, 22019.00
934.2410, 21954.00
935.3640, 21940.64
936.4860, 21990.00
937.6090, 22075.00
938.7310, 22096.00
939.8530, 22300.00
940.9750, 22384.00
942.0970, 22284.00
943.2180, 22542.00
944.3400, 22323.00
945.4610, 22366.73
946.5820, 22508.00
947.7030, 22282.00
948.8240, 22348.00
949.9450, 22306.93
951.0650, 22647.00
952.1860, 22595.00
953.3060, 22851.00
954.4260, 23032.00
955.5460, 22963.00
956.6650, 22823.00
957.7850, 22960.00
958.9040, 23088.00
960.0230, 22829.00
961.1420, 23057.00
962.2610, 23049.00
963.3800, 23106.00
964.4990, 23006.00
965.6170, 23004.00
966.7350, 23328.00
967.8530, 23413.00
968.9710, 23330.00
970.0890, 23236.00
971.2070, 23299.00
972.3240, 23614.00
973.4410, 23450.00
974.5580, 23349.00
975.6750, 23736.00
976.7920, 23536.00
977.9090, 23666.00
979.0250, 23644.00
980.1410, 23684.00
981.2580, 23820.00
982.3740, 23969.00
983.4890, 23873.00
984.6050, 24017.00
985.7200, 24063.00
986.8360, 24024.00
987.9510, 24074.00
989.0660, 24068.49
990.1810, 24137.00
991.2950, 24080.00
992.4100, 24248.00
993.5240, 24278.00
994.6390, 24397.00
995.7530, 24267.00
996.8660, 24281.00
997.9800, 24435.00
999.0940, 24573.00
1000.207, 24414.00
1001.320, 24785.00
1002.433, 24748.00
1003.546, 24950.00
1004.659, 24941.00
1005.772, 24856.00
1006.884, 24863.00
1007.996, 24917.00
1009.108, 24818.00
1010.220, 24906.00
1011.332, 24909.00
1012.444, 24911.00
1013.555, 24836.00
1014.666, 25057.00
1015.777, 25035.00
1016.888, 25101.00
1017.999, 25351.00
1019.110, 25144.00
1020.220, 25044.00
1021.331, 25303.00
1022.441, 25226.00
1023.551, 25326.00
1024.661, 25533.00
1025.770, 25440.00
1026.880, 25479.00
1027.989, 25389.00
1029.098, 25616.00
1030.207, 25385.00
1031.316, 25710.00
1032.425, 25735.00
1033.533, 25469.00
1034.642, 25818.00
1035.750, 25701.00
1036.858, 25789.00
1037.966, 25713.00
1039.073, 25976.00
1040.181, 25869.00
1041.288, 26116.00
1042.396, 26299.00
1043.503, 26110.00
1044.610, 26047.00
1045.716, 26041.00
1046.823, 26314.00
1047.929, 26461.00
1049.036, 26222.00
1050.142, 26916.00
1051.248, 26667.82
1052.353, 26589.00
1053.459, 26594.00
1054.564, 26748.00
1055.670, 26709.00
1056.775, 26796.00
1057.880, 26798.00
1058.985, 26802.00
1060.089, 26563.00
1061.194, 27018.00
1062.298, 26750.00
1063.402, 27009.00
1064.506, 26942.00
1065.610, 26977.00
1066.713, 27387.00
1067.817, 27207.00
1068.920, 27136.00
1070.023, 27074.00
1071.126, 27355.00
1072.229, 27266.00
1073.332, 27373.00
1074.435, 27318.00
1075.537, 27304.00
1076.639, 27466.00
1077.741, 27613.00
1078.843, 27468.00
1079.945, 27648.00
1081.046, 27843.00
1082.148, 27690.00
1083.249, 27882.00
1084.350, 27829.00
1085.451, 27955.00
1086.551, 27902.00
1087.652, 27951.00
1088.752, 27969.00
1089.853, 28047.00
1090.953, 28120.00
1092.053, 28156.00
1093.152, 28264.00
1094.252, 28268.00
1095.351, 28269.00
1096.451, 28432.00
1097.550, 28160.00
1098.649, 28248.00
1099.748, 28400.00
1100.846, 28314.00
1101.945, 28507.00
1103.043, 28395.00
1104.141, 28430.00
1105.239, 28535.00
1106.337, 28582.00
1107.434, 28651.00
1108.532, 28513.00
1109.629, 28815.00
1110.726, 28756.00
1111.823, 29197.00
1112.920, 29114.00
1114.017, 29090.00
1115.113, 29063.00
1116.210, 29129.00
1117.306, 29093.00
1118.402, 29144.29
1119.498, 29129.96
1120.593, 29270.00
1121.689, 29306.79
1122.784, 29305.00
1123.879, 29475.00
1124.974, 29613.00
1126.069, 29726.00
1127.164, 29800.00
1128.259, 29545.00
1129.353, 29748.00
1130.447, 29688.00
1131.541, 29747.00
1132.635, 29984.00
1133.729, 29786.00
1134.822, 30106.00
1135.916, 30041.00
1137.009, 30014.00
1138.102, 29951.00
1139.195, 29955.00
1140.288, 30135.00
1141.380, 30301.00
1142.473, 30240.00
1143.565, 30116.00
1144.657, 30197.00
1145.749, 30403.00
1146.841, 30282.00
1147.932, 30441.00
1149.024, 30494.00
1150.115, 30632.00
1151.206, 30698.00
1152.297, 30733.00
1153.388, 30770.00
1154.479, 30872.00
1155.569, 30752.00
1156.659, 30868.00
1157.750, 30800.00
1158.839, 30874.00
1159.929, 30880.00
1161.019, 31179.00
1162.108, 31081.00
1163.198, 31027.00
1164.287, 31263.00
1165.376, 31190.00
1166.465, 31079.00
1167.553, 31254.00
1168.642, 31449.00
1169.730, 31523.00
1170.818, 31619.36
1171.906, 31618.00
1172.994, 31711.00
1174.082, 31777.00
1175.170, 31824.66
1176.257, 31738.00
1177.344, 31761.00
1178.431, 31841.00
1179.518, 31805.00
1180.605, 32046.00
1181.691, 31849.00
1182.778, 32014.00
1183.864, 32001.00
1184.950, 32022.00
1186.036, 32009.00
1187.122, 32150.00
1188.207, 32069.00
1189.292, 32049.00
1190.378, 32344.00
1191.463, 32492.00
1192.548, 32397.00
1193.632, 32692.00
1194.717, 32678.00
1195.801, 32652.00
1196.886, 32750.00
1197.970, 32637.00
1199.054, 32613.00
1200.137, 32766.00
1201.221, 33058.00
1202.305, 32769.00
1203.388, 32940.00
1204.471, 32935.00
1205.554, 32906.00
1206.637, 33115.00
1207.719, 33304.00
1208.802, 33418.00
1209.884, 33195.00
1210.966, 33436.00
1212.048, 33276.00
1213.130, 33250.00
1214.212, 33235.00
1215.293, 33418.00
1216.374, 33648.00
1217.456, 33600.00
1218.536, 33737.00
1219.617, 33837.00
1220.698, 33665.00
1221.778, 34128.00
1222.859, 34191.00
1223.939, 34111.00
1225.019, 34233.00
1226.099, 34090.00
1227.178, 34153.00
1228.258, 34092.00
1229.337, 34191.90
1230.417, 34358.00
1231.496, 34447.00
1232.574, 34381.00
1233.653, 34493.00
1234.732, 34579.00
1235.810, 34541.00
1236.888, 34718.00
1237.966, 34902.00
1239.044, 35040.00
1240.122, 34868.00
1241.199, 35175.00
1242.277, 35260.00
1243.354, 35189.00
1244.431, 35383.00
1245.508, 35351.00
1246.585, 35297.00
1247.661, 35650.00
1248.738, 35620.00
1249.814, 35427.00
1250.890, 35703.00
1251.966, 35475.00
1253.042, 35623.00
1254.117, 35661.00
1255.193, 35881.00
1256.268, 35956.00
1257.343, 35838.00
1258.418, 35774.00
1259.493, 35891.00
1260.567, 35860.00
1261.642, 36078.00
1262.716, 36303.00
1263.790, 36034.00
1264.864, 36378.00
1265.938, 36346.00
1267.011, 36658.00
1268.085, 36238.00
1269.158, 36698.00
1270.231, 36490.00
1271.304, 36454.00
1272.377, 36756.00
1273.450, 36781.00
1274.522, 36611.00
1275.594, 36921.00
1276.666, 36795.00
1277.738, 37128.00
1278.810, 37082.00
1279.882, 37107.00
1280.953, 37361.00
1282.025, 37383.00
1283.096, 37215.00
1284.167, 37343.00
1285.238, 37470.00
1286.308, 37241.00
1287.379, 37512.00
1288.449, 37457.00
1289.519, 37611.00
1290.589, 37451.00
1291.659, 37779.00
1292.729, 37753.00
1293.798, 37778.00
1294.868, 37903.00
1295.937, 37831.21
1297.006, 37801.00
1298.075, 37761.00
1299.143, 37772.33
1300.212, 37718.95
1301.280, 37754.00
1302.348, 37853.00
1303.416, 37850.00
1304.484, 38073.00
1305.552, 37791.00
1306.620, 37949.00
1307.687, 38133.00
1308.754, 38313.00
1309.821, 38469.00
1310.888, 38656.00
1311.955, 38886.00
1313.021, 39012.00
1314.088, 38842.00
1315.154, 39168.00
1316.220, 39273.00
1317.286, 39126.00
1318.352, 39442.00
1319.417, 39502.00
1320.483, 39467.00
1321.548, 39720.00
1322.613, 39776.00
1323.678, 39611.00
1324.743, 39811.00
1325.807, 39653.00
1326.872, 39883.00
1327.936, 39897.00
1329.000, 40012.00
1330.064, 40014.00
1331.128, 40256.00
1332.191, 40147.00
1333.255, 40100.00
1334.318, 40338.00
1335.381, 40185.00
1336.444, 40307.00
1337.507, 40184.00
1338.569, 40065.00
1339.632, 40432.00
1340.694, 40571.00
1341.756, 40425.00
1342.818, 40510.00
1343.880, 40678.00
1344.941, 40834.00
1346.003, 40714.00
1347.064, 41104.00
1348.125, 41018.00
1349.186, 40757.00
1350.247, 41267.00
1351.308, 41056.00
1352.368, 40892.00
1353.428, 41293.00
1354.489, 41474.00
1355.549, 41078.00
1356.608, 41462.00
1357.668, 41414.00
1358.727, 41457.00
1359.787, 41520.00
1360.846, 41573.21
1361.905, 41634.96
1362.964, 41727.00
1364.022, 41747.00
1365.081, 41752.00
1366.139, 41766.00
1367.197, 41915.00
1368.255, 41943.00
1369.313, 41873.00
1370.371, 42433.00
1371.428, 42248.00
1372.486, 42218.00
1373.543, 42503.00
1374.600, 42279.00
1375.657, 42248.00
1376.713, 42380.00
1377.770, 42489.00
1378.826, 42498.00
1379.882, 42573.00
1380.938, 43018.00
1381.994, 42953.00
1383.050, 42808.00
1384.106, 43231.00
1385.161, 43045.00
1386.216, 42978.00
1387.271, 43193.00
1388.326, 43203.00
1389.381, 43485.00
1390.435, 43211.00
1391.490, 43112.00
1392.544, 43469.00
1393.598, 43447.00
1394.652, 43472.00
1395.705, 43568.00
1396.759, 43699.00
1397.812, 43621.00
1398.866, 43697.00
1399.919, 43669.00
1400.972, 43579.00
1402.024, 44011.00
1403.077, 44057.00
1404.129, 43844.00
1405.181, 44105.00
1406.233, 43927.00
1407.285, 44096.00
1408.337, 44270.00
1409.389, 44514.00
1410.440, 44414.00
1411.491, 44406.00
1412.542, 44607.00
1413.593, 44790.00
1414.644, 44672.00
1415.695, 44829.41
1416.745, 44788.00
1417.795, 44888.00
1418.845, 44852.00
1419.895, 44843.00
1420.945, 45085.00
1421.995, 44900.00
1423.044, 45279.00
1424.093, 45321.00
1425.142, 45324.00
1426.191, 45508.00
1427.240, 45409.00
1428.289, 45453.00
1429.337, 45545.00
1430.385, 45617.24
1431.433, 45724.93
1432.481, 45913.00
1433.529, 45969.00
1434.577, 46138.00
1435.624, 46280.00
1436.672, 46314.61
1437.719, 46452.00
1438.766, 46522.00
1439.812, 46586.45
1440.859, 46718.00
1441.905, 46763.00
1442.952, 46781.00
1443.998, 46967.00
1445.044, 47109.00
1446.090, 47147.00
1447.135, 47111.00
1448.181, 47299.00
1449.226, 47305.00
1450.271, 47236.00
1451.316, 47654.00
1452.361, 47611.00
1453.405, 47777.00
1454.450, 48002.00
1455.494, 47927.00
1456.538, 47712.00
1457.582, 48165.00
1458.626, 48318.00
1459.670, 48027.00
1460.713, 48299.00
1461.757, 48260.00
1462.800, 48115.00
1463.843, 48460.00
1464.886, 48548.00
1465.928, 48563.00
1466.971, 48460.00
1468.013, 48657.00
1469.055, 48760.00
1470.097, 49072.00
1471.139, 48945.00
1472.181, 49175.00
1473.222, 49103.00
1474.263, 49210.00
1475.305, 49048.00
1476.346, 49135.00
1477.386, 49345.00
1478.427, 49423.00
1479.468, 49629.00
1480.508, 49573.00
1481.548, 49527.00
1482.588, 49734.00
1483.628, 49469.00
1484.668, 49912.00
1485.707, 49891.00
1486.747, 50298.00
1487.786, 50063.00
1488.825, 50184.00
1489.864, 50216.00
1490.902, 50437.00
1491.941, 50630.00
1492.979, 50418.00
1494.017, 50592.00
1495.055, 50736.00
1496.093, 50621.00
1497.131, 50625.00
1498.168, 50796.00
1499.206, 50763.00
1500.243, 50985.00
1501.280, 50910.00
1502.317, 51167.00
1503.354, 51449.00
1504.390, 51215.00
1505.426, 51758.00
1506.463, 51459.00
1507.499, 51413.00
1508.535, 51367.00
1509.570, 51689.00
1510.606, 51781.00
1511.641, 51939.00
1512.676, 51995.00
1513.711, 52088.59
1514.746, 52083.00
1515.781, 52176.00
1516.816, 52135.00
1517.850, 52058.00
1518.884, 52457.00
1519.918, 52539.00
1520.952, 52556.00
1521.986, 52677.00
1523.019, 52597.00
1524.053, 52704.00
1525.086, 52848.00
1526.119, 52823.00
1527.152, 52733.00
1528.185, 52754.00
1529.217, 53021.00
1530.250, 53259.00
1531.282, 53149.00
1532.314, 53324.00
1533.346, 53442.00
1534.377, 53202.00
1535.409, 53763.00
1536.440, 53488.00
1537.472, 53283.00
1538.503, 53726.00
1539.534, 53581.00
1540.564, 53677.00
1541.595, 53582.00
1542.625, 54116.00
1543.656, 53703.00
1544.686, 54147.00
1545.716, 54172.00
1546.745, 53946.00
1547.775, 54209.00
1548.804, 54261.00
1549.834, 54353.00
1550.863, 54536.00
1551.892, 54743.00
1552.920, 54725.00
1553.949, 54885.55
1554.977, 54571.00
1556.006, 55041.00
1557.034, 54985.00
1558.062, 55044.00
1559.089, 55560.00
1560.117, 55276.00
1561.144, 55233.00
1562.172, 55470.00
1563.199, 55471.00
1564.226, 55138.00
1565.252, 55706.00
1566.279, 55464.00
1567.305, 55804.00
1568.332, 55901.00
1569.358, 55648.00
1570.384, 55912.00
1571.409, 56149.00
1572.435, 56258.00
##END=



