##NAMES=Corundum
##RRUFFID=R060020
##IDEAL CHEMISTRY=Al_2_O_3_
##LOCALITY=Yogo Gulch, Montana, USA
##OWNER=RRUFF
##SOURCE=American Museum of Natural History
##DESCRIPTION=Water rounded light blue fragment
##STATUS=The identification of this mineral has been confirmed by X-ray diffraction and chemical analysis
##URL=rruff.info/R060020
##MEASURED CHEMISTRY=(Al_1.99_Fe^3+^_0.01_)_Î£=2_O_3_ ; Fe^3+^ by charge balance
##PIN_ID=L01262
##ORIENTATION=Laser parallel to -a* (-1 0 0). Fiducial mark perpendicular to laser is parallel to c [0 0 1]
114.4400, 6703.000
115.6710, 6812.000
116.9030, 6851.000
118.1340, 6908.000
119.3650, 6870.000
120.5960, 6802.000
121.8270, 6865.000
123.0580, 6797.000
124.2880, 6826.000
125.5190, 6950.000
126.7490, 6941.000
127.9790, 6904.000
129.2090, 6993.000
130.4390, 6930.000
131.6680, 6927.000
132.8980, 6958.000
134.1270, 6968.000
135.3560, 6989.302
136.5850, 6979.000
137.8140, 7044.000
139.0430, 7053.000
140.2710, 7095.000
141.5000, 7153.000
142.7280, 7164.030
143.9560, 7168.000
145.1840, 7215.000
146.4120, 7136.000
147.6390, 7159.000
148.8670, 7144.000
150.0940, 7174.000
151.3210, 7200.000
152.5490, 7247.000
153.7750, 7284.000
155.0020, 7150.000
156.2290, 7201.000
157.4550, 7210.000
158.6810, 7223.000
159.9080, 7270.000
161.1340, 7286.000
162.3590, 7313.000
163.5850, 7341.000
164.8110, 7344.347
166.0360, 7366.281
167.2610, 7354.000
168.4860, 7374.000
169.7110, 7382.000
170.9360, 7349.000
172.1610, 7442.000
173.3850, 7345.000
174.6100, 7386.000
175.8340, 7437.000
177.0580, 7460.000
178.2820, 7470.426
179.5050, 7440.000
180.7290, 7466.000
181.9520, 7420.000
183.1760, 7412.000
184.3990, 7534.000
185.6220, 7493.000
186.8450, 7568.000
188.0670, 7490.000
189.2900, 7671.000
190.5120, 7563.000
191.7340, 7609.000
192.9560, 7724.000
194.1780, 7684.000
195.4000, 7736.000
196.6220, 7692.000
197.8430, 7718.000
199.0640, 7705.000
200.2860, 7707.730
201.5070, 7807.000
202.7270, 7764.000
203.9480, 7756.000
205.1690, 7866.000
206.3890, 7750.000
207.6090, 7785.000
208.8290, 7787.000
210.0490, 7641.000
211.2690, 7903.000
212.4890, 7827.000
213.7080, 7976.000
214.9280, 7800.000
216.1470, 7926.000
217.3660, 7817.000
218.5850, 7844.000
219.8030, 7866.000
221.0220, 7930.000
222.2400, 7929.000
223.4590, 7872.000
224.6770, 7822.000
225.8950, 7929.000
227.1120, 7864.000
228.3300, 7926.000
229.5480, 7883.000
230.7650, 7923.000
231.9820, 7991.000
233.1990, 7917.000
234.4160, 7945.000
235.6330, 7989.000
236.8490, 8029.000
238.0660, 8006.000
239.2820, 7959.000
240.4980, 7971.000
241.7140, 7984.925
242.9300, 8015.000
244.1460, 8042.000
245.3610, 8032.000
246.5770, 8027.000
247.7920, 8089.000
249.0070, 8158.000
250.2220, 8055.000
251.4370, 8251.000
252.6510, 8142.000
253.8660, 8131.000
255.0800, 8180.000
256.2940, 8253.000
257.5080, 8178.000
258.7220, 8251.000
259.9360, 8296.000
261.1490, 8282.000
262.3630, 8333.000
263.5760, 8294.000
264.7890, 8251.000
266.0020, 8375.000
267.2150, 8222.000
268.4270, 8281.000
269.6400, 8268.000
270.8520, 8316.000
272.0640, 8338.000
273.2760, 8274.000
274.4880, 8378.000
275.7000, 8424.000
276.9120, 8428.000
278.1230, 8369.000
279.3340, 8385.000
280.5450, 8294.000
281.7560, 8320.899
282.9670, 8274.000
284.1780, 8360.000
285.3880, 8437.000
286.5980, 8487.000
287.8090, 8457.000
289.0190, 8489.157
290.2290, 8480.087
291.4380, 8457.000
292.6480, 8480.000
293.8570, 8435.000
295.0670, 8475.000
296.2760, 8475.000
297.4850, 8523.000
298.6930, 8576.000
299.9020, 8541.000
301.1110, 8563.000
302.3190, 8607.000
303.5270, 8577.000
304.7350, 8571.000
305.9430, 8632.000
307.1510, 8711.000
308.3580, 8678.000
309.5660, 8619.000
310.7730, 8648.000
311.9800, 8751.000
313.1870, 8691.000
314.3940, 8736.000
315.6010, 8738.000
316.8070, 8738.000
318.0130, 8809.000
319.2200, 8736.000
320.4260, 8673.000
321.6310, 8953.000
322.8370, 8811.000
324.0430, 8819.000
325.2480, 8837.000
326.4540, 8693.000
327.6590, 8853.000
328.8640, 8858.000
330.0680, 8852.000
331.2730, 9026.000
332.4780, 8933.000
333.6820, 8915.000
334.8860, 8966.000
336.0900, 8946.000
337.2940, 8890.000
338.4980, 8991.000
339.7010, 9000.000
340.9050, 8933.000
342.1080, 9021.000
343.3110, 9042.000
344.5140, 8976.000
345.7170, 9017.000
346.9200, 9077.000
348.1220, 8956.000
349.3240, 9192.000
350.5270, 9096.000
351.7290, 9186.000
352.9310, 9119.000
354.1320, 9131.000
355.3340, 9210.000
356.5350, 9227.000
357.7370, 9240.000
358.9380, 9268.276
360.1390, 9268.021
361.3400, 9294.000
362.5400, 9283.000
363.7410, 9317.000
364.9410, 9349.000
366.1410, 9432.446
367.3410, 9542.000
368.5410, 9647.000
369.7410, 9805.000
370.9400, 9931.000
372.1400, 10257.00
373.3390, 10460.00
374.5380, 10806.00
375.7370, 11686.00
376.9360, 12425.00
378.1350, 12809.00
379.3330, 12422.00
380.5310, 11647.00
381.7300, 11028.00
382.9280, 10577.00
384.1260, 10336.00
385.3230, 10061.00
386.5210, 10013.00
387.7180, 9927.000
388.9160, 9875.000
390.1130, 9842.000
391.3100, 9922.000
392.5060, 9798.000
393.7030, 9938.000
394.9000, 9925.000
396.0960, 9844.000
397.2920, 9938.000
398.4880, 10008.00
399.6840, 10114.00
400.8800, 10095.00
402.0750, 10122.00
403.2710, 10250.00
404.4660, 10305.00
405.6610, 10256.00
406.8560, 10558.00
408.0510, 10924.00
409.2450, 11510.00
410.4400, 12046.00
411.6340, 12630.00
412.8280, 13407.00
414.0220, 15012.00
415.2160, 15467.46
416.4100, 15522.33
417.6030, 16360.00
418.7970, 14723.00
419.9900, 13512.00
421.1830, 12568.00
422.3760, 11642.00
423.5690, 11164.00
424.7610, 11105.00
425.9540, 10919.00
427.1460, 11025.00
428.3380, 11171.00
429.5300, 11066.00
430.7220, 11061.00
431.9140, 10747.00
433.1050, 10790.00
434.2970, 10678.00
435.4880, 10600.00
436.6790, 10572.00
437.8700, 10658.00
439.0610, 10511.00
440.2510, 10607.00
441.4420, 10606.00
442.6320, 10531.00
443.8220, 10401.00
445.0120, 10591.00
446.2020, 10583.00
447.3910, 10631.00
448.5810, 10643.00
449.7700, 10716.00
450.9600, 10611.00
452.1490, 10606.00
453.3370, 10502.00
454.5260, 10522.77
455.7150, 10564.00
456.9030, 10585.00
458.0910, 10646.00
459.2800, 10725.00
460.4670, 10658.00
461.6550, 10678.00
462.8430, 10656.00
464.0300, 10740.00
465.2180, 10770.00
466.4050, 10606.00
467.5920, 10688.00
468.7790, 10744.00
469.9650, 10789.00
471.1520, 10851.00
472.3380, 10801.00
473.5250, 10883.00
474.7110, 10941.00
475.8970, 10889.00
477.0820, 11045.00
478.2680, 11121.00
479.4540, 11056.00
480.6390, 11153.00
481.8240, 11119.00
483.0090, 11189.00
484.1940, 11270.00
485.3780, 11269.00
486.5630, 11303.00
487.7470, 11333.82
488.9320, 11264.00
490.1160, 11310.00
491.3000, 11278.00
492.4830, 11123.00
493.6670, 11168.00
494.8500, 11353.00
496.0340, 11131.00
497.2170, 11323.00
498.4000, 11269.00
499.5820, 11265.00
500.7650, 11229.00
501.9480, 11282.00
503.1300, 11410.00
504.3120, 11361.00
505.4940, 11400.00
506.6760, 11409.00
507.8580, 11386.00
509.0390, 11432.39
510.2210, 11504.00
511.4020, 11471.00
512.5830, 11517.00
513.7640, 11495.00
514.9450, 11554.00
516.1250, 11615.00
517.3060, 11524.00
518.4860, 11759.00
519.6660, 11746.00
520.8460, 11902.00
522.0260, 11774.00
523.2060, 11776.00
524.3850, 11806.00
525.5650, 11969.00
526.7440, 11848.00
527.9230, 11868.00
529.1020, 12084.00
530.2810, 11815.00
531.4590, 11997.00
532.6380, 11993.00
533.8160, 12011.00
534.9940, 12057.00
536.1720, 12076.00
537.3500, 11996.00
538.5270, 12032.00
539.7050, 12034.00
540.8820, 12170.00
542.0590, 12191.00
543.2360, 12197.00
544.4130, 12138.00
545.5900, 12187.00
546.7660, 12341.00
547.9430, 12320.00
549.1190, 12356.58
550.2950, 12370.00
551.4710, 12353.00
552.6470, 12381.00
553.8220, 12409.00
554.9980, 12368.00
556.1730, 12343.00
557.3480, 12373.05
558.5230, 12391.00
559.6980, 12416.00
560.8730, 12469.00
562.0470, 12491.00
563.2220, 12542.40
564.3960, 12585.65
565.5700, 12622.00
566.7440, 12658.00
567.9170, 12657.00
569.0910, 12645.00
570.2640, 12804.00
571.4380, 12769.00
572.6110, 12862.31
573.7840, 12992.00
574.9570, 12996.00
576.1290, 13073.00
577.3020, 13126.00
578.4740, 13044.00
579.6460, 13114.00
580.8180, 13070.12
581.9900, 12953.00
583.1620, 13054.00
584.3330, 12949.00
585.5040, 13019.00
586.6760, 12972.00
587.8470, 13035.00
589.0180, 13080.00
590.1880, 13191.00
591.3590, 13089.00
592.5290, 13138.00
593.7000, 13134.00
594.8700, 13302.00
596.0400, 13201.00
597.2090, 13210.00
598.3790, 13338.00
599.5490, 13283.00
600.7180, 13499.00
601.8870, 13395.00
603.0560, 13361.00
604.2250, 13341.00
605.3940, 13447.00
606.5620, 13511.00
607.7300, 13633.00
608.8990, 13661.50
610.0670, 13510.00
611.2350, 13689.00
612.4020, 13722.00
613.5700, 13660.00
614.7370, 13823.00
615.9050, 13793.00
617.0720, 13713.00
618.2390, 13795.00
619.4060, 13773.95
620.5720, 13834.24
621.7390, 13865.00
622.9050, 14010.00
624.0710, 14133.00
625.2370, 14287.00
626.4030, 14286.00
627.5690, 14383.00
628.7340, 14465.07
629.9000, 14317.00
631.0650, 14579.00
632.2300, 14557.00
633.3950, 14519.00
634.5600, 14714.00
635.7240, 14857.00
636.8890, 15020.00
638.0530, 15268.00
639.2170, 15637.00
640.3810, 15782.00
641.5450, 16232.00
642.7080, 16308.00
643.8720, 16510.00
645.0350, 16448.00
646.1980, 16009.00
647.3610, 16140.00
648.5240, 15886.00
649.6870, 15570.00
650.8490, 15447.00
652.0120, 15179.00
653.1740, 15251.00
654.3360, 15134.00
655.4980, 15058.00
656.6600, 14981.00
657.8210, 14947.84
658.9830, 15116.00
660.1440, 14925.00
661.3050, 14988.00
662.4660, 14996.00
663.6270, 14928.00
664.7870, 14971.00
665.9480, 15022.00
667.1080, 15061.00
668.2680, 15079.00
669.4280, 14962.00
670.5880, 15029.00
671.7480, 14962.00
672.9070, 15251.00
674.0670, 15149.00
675.2260, 15209.00
676.3850, 15186.00
677.5440, 15187.00
678.7030, 15232.00
679.8610, 15273.00
681.0200, 15320.00
682.1780, 15122.00
683.3360, 15225.00
684.4940, 15408.00
685.6520, 15254.00
686.8090, 15488.00
687.9670, 15348.00
689.1240, 15471.00
690.2810, 15396.00
691.4380, 15422.00
692.5950, 15398.00
693.7520, 15454.00
694.9080, 15661.00
696.0650, 15563.00
697.2210, 15672.00
698.3770, 15660.00
699.5330, 15613.00
700.6880, 15509.00
701.8440, 15605.00
702.9990, 15737.00
704.1550, 15802.00
705.3100, 15785.00
706.4650, 15819.00
707.6190, 15809.00
708.7740, 15818.00
709.9290, 15831.00
711.0830, 15898.00
712.2370, 15981.00
713.3910, 15943.00
714.5450, 16028.00
715.6980, 16215.00
716.8520, 15950.00
718.0050, 16237.00
719.1580, 16236.00
720.3110, 16166.00
721.4640, 16245.00
722.6170, 16339.00
723.7700, 16509.00
724.9220, 16340.00
726.0740, 16559.00
727.2260, 16553.00
728.3780, 16654.00
729.5300, 16660.00
730.6810, 16634.00
731.8330, 16858.00
732.9840, 16797.00
734.1350, 16904.00
735.2860, 16970.00
736.4370, 17106.00
737.5880, 17180.00
738.7380, 17252.11
739.8880, 17339.00
741.0390, 17393.00
742.1890, 17490.00
743.3380, 17589.00
744.4880, 17697.00
745.6380, 17889.00
746.7870, 18026.00
747.9360, 18127.65
749.0850, 18169.00
750.2340, 18260.00
751.3830, 18270.59
752.5310, 18334.00
753.6800, 18277.00
754.8280, 18203.00
755.9760, 18192.00
757.1240, 18131.00
758.2720, 18047.00
759.4190, 18095.00
760.5670, 18054.00
761.7140, 18065.00
762.8610, 18044.00
764.0080, 18059.53
765.1550, 18060.46
766.3020, 18082.91
767.4480, 18092.00
768.5950, 18155.00
769.7410, 18215.00
770.8870, 18279.00
772.0330, 18168.00
773.1780, 18335.00
774.3240, 18242.00
775.4690, 18200.00
776.6140, 18485.00
777.7590, 18486.00
778.9040, 18582.00
780.0490, 18545.00
781.1940, 18602.00
782.3380, 18519.00
783.4820, 18670.00
784.6260, 18648.00
785.7700, 18725.00
786.9140, 18933.00
788.0580, 18752.00
789.2010, 18962.00
790.3450, 18722.00
791.4880, 19107.00
792.6310, 19020.00
793.7730, 18934.00
794.9160, 18930.00
796.0590, 19096.00
797.2010, 19068.80
798.3430, 19124.00
799.4850, 19225.00
800.6270, 19260.00
801.7690, 19413.00
802.9100, 19420.00
804.0520, 19606.00
805.1930, 19551.00
806.3340, 19461.00
807.4750, 19739.00
808.6160, 19563.00
809.7560, 19855.00
810.8970, 19582.00
812.0370, 19653.00
813.1770, 19687.00
814.3170, 19843.00
815.4570, 19953.00
816.5960, 19998.00
817.7360, 20036.83
818.8750, 19904.00
820.0140, 19998.00
821.1530, 19889.00
822.2920, 19819.00
823.4310, 20107.00
824.5690, 19867.00
825.7070, 20088.00
826.8460, 20253.00
827.9840, 20122.00
829.1220, 20202.00
830.2590, 20384.00
831.3970, 20497.00
832.5340, 20245.00
833.6710, 20165.00
834.8080, 20293.00
835.9450, 20553.00
837.0820, 20456.00
838.2190, 20519.00
839.3550, 20403.00
840.4910, 20519.00
841.6270, 20452.00
842.7630, 20658.00
843.8990, 20543.00
845.0350, 20816.00
846.1700, 20707.00
847.3060, 20690.00
848.4410, 20718.00
849.5760, 20907.00
850.7100, 20750.00
851.8450, 20933.00
852.9800, 20882.00
854.1140, 20982.00
855.2480, 20998.00
856.3820, 21083.00
857.5160, 20932.00
858.6500, 21164.00
859.7830, 21218.00
860.9170, 21393.00
862.0500, 21265.00
863.1830, 21386.00
864.3160, 21387.00
865.4480, 21540.00
866.5810, 21529.00
867.7130, 21630.93
868.8460, 21498.00
869.9780, 21722.00
871.1100, 21670.00
872.2410, 21533.00
873.3730, 21499.00
874.5050, 21844.00
875.6360, 21792.00
876.7670, 21966.00
877.8980, 21845.00
879.0290, 21827.00
880.1590, 21941.00
881.2900, 22054.00
882.4200, 21885.00
883.5500, 21908.00
884.6800, 22080.00
885.8100, 22045.00
886.9400, 22163.00
888.0690, 22033.00
889.1990, 22242.00
890.3280, 22177.00
891.4570, 22267.00
892.5860, 22248.00
893.7140, 22290.00
894.8430, 22496.00
895.9710, 22534.00
897.1000, 22576.00
898.2280, 22667.58
899.3560, 22502.00
900.4830, 22691.00
901.6110, 22734.00
902.7380, 22608.00
903.8660, 22733.00
904.9930, 22893.00
906.1200, 22715.00
907.2460, 22944.00
908.3730, 22834.00
909.5000, 22742.00
910.6260, 22971.00
911.7520, 22935.00
912.8780, 23076.00
914.0040, 23202.00
915.1290, 23069.00
916.2550, 23373.00
917.3800, 23379.00
918.5050, 23472.00
919.6300, 23604.00
920.7550, 23297.00
921.8800, 23338.00
923.0040, 23503.00
924.1290, 23459.00
925.2530, 23666.00
926.3770, 23691.00
927.5010, 23632.00
928.6250, 23737.00
929.7480, 23550.00
930.8720, 23936.00
931.9950, 23890.00
933.1180, 23833.00
934.2410, 24104.00
935.3640, 23982.00
936.4860, 24017.00
937.6090, 24230.00
938.7310, 24266.00
939.8530, 24113.00
940.9750, 24291.00
942.0970, 24286.00
943.2180, 24245.00
944.3400, 24432.00
945.4610, 24452.00
946.5820, 24441.00
947.7030, 24607.00
948.8240, 24790.00
949.9450, 24575.00
951.0650, 24769.00
952.1860, 25082.00
953.3060, 24762.00
954.4260, 24995.00
955.5460, 25102.00
956.6650, 25108.00
957.7850, 25026.00
958.9040, 25182.00
960.0230, 25107.00
961.1420, 25274.00
962.2610, 25075.00
963.3800, 25301.00
964.4990, 25115.00
965.6170, 25250.00
966.7350, 25467.00
967.8530, 25513.00
968.9710, 25540.00
970.0890, 25534.00
971.2070, 25826.00
972.3240, 25729.00
973.4410, 25944.00
974.5580, 25816.00
975.6750, 25975.00
976.7920, 25846.00
977.9090, 26155.00
979.0250, 26181.00
980.1410, 26135.00
981.2580, 26284.00
982.3740, 26105.00
983.4890, 26106.00
984.6050, 26278.00
985.7200, 26486.00
986.8360, 26220.00
987.9510, 26269.00
989.0660, 26550.00
990.1810, 26567.00
991.2950, 26499.00
992.4100, 26837.00
993.5240, 26603.00
994.6390, 26657.00
995.7530, 26864.00
996.8660, 26721.00
997.9800, 26916.00
999.0940, 27049.00
1000.207, 27197.00
1001.320, 27090.00
1002.433, 27120.00
1003.546, 27106.00
1004.659, 27434.00
1005.772, 27109.00
1006.884, 27298.00
1007.996, 27555.00
1009.108, 27404.00
1010.220, 27530.00
1011.332, 27352.00
1012.444, 27520.00
1013.555, 27528.00
1014.666, 27446.00
1015.777, 27631.00
1016.888, 27845.00
1017.999, 27962.00
1019.110, 27833.00
1020.220, 28038.00
1021.331, 28213.00
1022.441, 28046.00
1023.551, 28288.00
1024.661, 28200.00
1025.770, 28381.00
1026.880, 28282.00
1027.989, 28458.00
1029.098, 28435.00
1030.207, 28554.00
1031.316, 28376.00
1032.425, 28436.00
1033.533, 28575.00
1034.642, 28486.00
1035.750, 28536.00
1036.858, 28743.00
1037.966, 28787.00
1039.073, 28875.59
1040.181, 29000.00
1041.288, 28907.00
1042.396, 28986.00
1043.503, 28789.00
1044.610, 29269.00
1045.716, 28979.00
1046.823, 29269.00
1047.929, 29228.00
1049.036, 29476.00
1050.142, 29255.00
1051.248, 29587.00
1052.353, 29794.00
1053.459, 29579.00
1054.564, 29674.00
1055.670, 29595.00
1056.775, 29988.00
1057.880, 29674.00
1058.985, 29966.00
1060.089, 29929.00
1061.194, 30109.00
1062.298, 30003.00
1063.402, 30055.00
1064.506, 30075.00
1065.610, 30373.00
1066.713, 30369.00
1067.817, 30551.00
1068.920, 30220.00
1070.023, 30442.00
1071.126, 30434.00
1072.229, 30614.00
1073.332, 30689.00
1074.435, 30514.00
1075.537, 30593.00
1076.639, 30786.00
1077.741, 31001.00
1078.843, 31007.24
1079.945, 30961.00
1081.046, 31112.00
1082.148, 31182.00
1083.249, 31339.00
1084.350, 31353.00
1085.451, 31228.00
1086.551, 31627.00
1087.652, 31365.00
1088.752, 31506.00
1089.853, 31594.00
1090.953, 31387.00
1092.053, 31596.00
1093.152, 31822.00
1094.252, 31703.00
1095.351, 31811.00
1096.451, 31644.00
1097.550, 31895.00
1098.649, 31829.00
1099.748, 31947.00
1100.846, 31781.00
1101.945, 32106.00
1103.043, 32301.00
1104.141, 31957.00
1105.239, 32349.00
1106.337, 32366.00
1107.434, 32309.00
1108.532, 32355.00
1109.629, 32544.00
1110.726, 32713.00
1111.823, 32607.00
1112.920, 32848.00
1114.017, 32678.00
1115.113, 32780.00
1116.210, 32992.00
1117.306, 33025.00
1118.402, 33018.00
1119.498, 33026.00
1120.593, 33308.00
1121.689, 33297.00
1122.784, 33481.00
1123.879, 33419.00
1124.974, 33743.00
1126.069, 33775.00
1127.164, 33500.00
1128.259, 33783.00
1129.353, 33666.00
1130.447, 33577.00
1131.541, 33769.00
1132.635, 33635.00
1133.729, 33960.00
1134.822, 33870.00
1135.916, 34115.00
1137.009, 34094.00
1138.102, 34263.00
1139.195, 34237.00
1140.288, 34090.00
1141.380, 34256.00
1142.473, 34177.00
1143.565, 34180.00
1144.657, 34447.00
1145.749, 34500.00
1146.841, 34659.00
1147.932, 34577.00
1149.024, 34940.00
1150.115, 34779.00
1151.206, 34827.00
1152.297, 35037.00
1153.388, 34939.00
1154.479, 35141.00
1155.569, 34929.00
1156.659, 35179.00
1157.750, 35147.00
1158.839, 35181.00
1159.929, 35286.00
1161.019, 35412.00
1162.108, 35462.00
1163.198, 35478.00
1164.287, 35534.00
1165.376, 35603.33
1166.465, 35622.00
1167.553, 35789.00
1168.642, 35849.00
1169.730, 35997.00
1170.818, 36058.00
1171.906, 36090.00
1172.994, 36199.00
1174.082, 36072.00
1175.170, 36007.00
1176.257, 36306.00
1177.344, 36379.00
1178.431, 36242.00
1179.518, 36405.00
1180.605, 36550.00
1181.691, 36470.00
1182.778, 36833.00
1183.864, 36672.00
1184.950, 36719.00
1186.036, 36821.00
1187.122, 36963.00
1188.207, 36957.00
1189.292, 36973.00
1190.378, 37127.00
1191.463, 37032.00
1192.548, 36953.00
1193.632, 37309.00
1194.717, 37218.00
1195.801, 37364.00
1196.886, 37549.00
1197.970, 37336.00
1199.054, 37601.00
1200.137, 37715.00
1201.221, 37461.00
1202.305, 37612.00
1203.388, 37895.00
1204.471, 37969.00
1205.554, 38127.09
1206.637, 38092.00
1207.719, 38309.00
1208.802, 38313.00
1209.884, 38318.00
1210.966, 38253.00
1212.048, 38487.00
1213.130, 38476.00
1214.212, 38591.00
1215.293, 38952.00
1216.374, 38778.00
1217.456, 38996.00
1218.536, 38726.00
1219.617, 38871.00
1220.698, 38929.00
1221.778, 39008.00
1222.859, 39083.00
1223.939, 39131.67
1225.019, 39240.00
1226.099, 39249.00
1227.178, 39321.00
1228.258, 39417.00
1229.337, 39342.00
1230.417, 39636.00
1231.496, 39554.00
1232.574, 39677.00
1233.653, 39654.00
1234.732, 39606.00
1235.810, 39826.00
1236.888, 39885.00
1237.966, 40022.00
1239.044, 40183.00
1240.122, 40017.00
1241.199, 40357.00
1242.277, 40104.00
1243.354, 40588.00
1244.431, 40463.00
1245.508, 40721.00
1246.585, 40663.00
1247.661, 40540.00
1248.738, 40662.00
1249.814, 40759.00
1250.890, 40919.00
1251.966, 40964.00
1253.042, 40907.00
1254.117, 40994.00
1255.193, 41138.00
1256.268, 41183.00
1257.343, 41297.00
1258.418, 41249.00
1259.493, 41228.00
1260.567, 41384.00
1261.642, 41319.00
1262.716, 41784.00
1263.790, 41791.00
1264.864, 41984.00
1265.938, 42065.00
1267.011, 41778.00
1268.085, 41990.00
1269.158, 42203.00
1270.231, 42326.00
1271.304, 42031.00
1272.377, 42298.00
1273.450, 42261.00
1274.522, 42331.00
1275.594, 42620.00
1276.666, 42165.00
1277.738, 42453.00
1278.810, 42314.00
1279.882, 42629.00
1280.953, 42858.00
1282.025, 42475.00
1283.096, 43086.00
1284.167, 42701.00
1285.238, 42967.00
1286.308, 43152.00
1287.379, 43114.00
1288.449, 43129.00
1289.519, 43167.00
1290.589, 43272.00
1291.659, 43496.00
1292.729, 43332.00
1293.798, 43588.00
1294.868, 43892.00
1295.937, 44198.00
1297.006, 44111.00
1298.075, 43635.00
1299.143, 44135.00
1300.212, 44072.00
1301.280, 43898.00
1302.348, 44067.00
1303.416, 44124.00
1304.484, 44315.00
1305.552, 44501.00
1306.620, 44496.00
1307.687, 44566.00
1308.754, 44726.00
1309.821, 44742.36
1310.888, 44789.00
1311.955, 44924.00
1313.021, 44885.00
1314.088, 45065.00
1315.154, 45161.00
1316.220, 45020.00
1317.286, 45353.00
1318.352, 45314.00
1319.417, 45188.00
1320.483, 45617.00
1321.548, 45795.00
1322.613, 45744.00
1323.678, 45491.00
1324.743, 45514.00
1325.807, 45742.00
1326.872, 45649.00
1327.936, 46127.00
1329.000, 46127.00
1330.064, 46366.00
1331.128, 46418.00
1332.191, 46258.00
1333.255, 46456.00
1334.318, 46627.00
1335.381, 46499.00
1336.444, 46911.00
1337.507, 46964.00
1338.569, 47015.00
1339.632, 46870.00
1340.694, 46962.00
1341.756, 47068.00
1342.818, 46892.00
1343.880, 47345.00
1344.941, 47175.00
1346.003, 47332.00
1347.064, 47653.00
1348.125, 47182.00
1349.186, 47582.00
1350.247, 47498.00
1351.308, 47651.00
1352.368, 47515.00
1353.428, 47958.00
1354.489, 47998.00
1355.549, 48082.00
1356.608, 48217.00
1357.668, 48084.00
1358.727, 48261.00
1359.787, 48543.00
1360.846, 48342.00
1361.905, 48401.00
1362.964, 48515.00
1364.022, 48509.00
1365.081, 48527.00
1366.139, 48600.43
1367.197, 48641.53
1368.255, 48770.00
1369.313, 48804.00
1370.371, 49026.00
1371.428, 49157.00
1372.486, 49213.00
1373.543, 49048.00
1374.600, 49195.00
1375.657, 49355.00
1376.713, 49680.00
1377.770, 49780.00
1378.826, 49847.60
1379.882, 49812.39
1380.938, 49865.00
1381.994, 49719.00
1383.050, 49723.00
1384.106, 50085.00
1385.161, 50361.00
1386.216, 50159.00
1387.271, 50286.00
1388.326, 50430.00
1389.381, 50559.00
1390.435, 50624.00
1391.490, 50732.00
1392.544, 50590.00
1393.598, 50768.00
1394.652, 50788.00
1395.705, 51148.00
1396.759, 50711.00
1397.812, 51088.00
1398.866, 50896.00
1399.919, 51216.00
1400.972, 51197.00
1402.024, 51111.00
1403.077, 51594.00
1404.129, 51604.00
1405.181, 51531.00
1406.233, 51540.00
1407.285, 51858.00
1408.337, 51966.00
1409.389, 51925.00
1410.440, 52086.00
1411.491, 52065.00
1412.542, 52203.00
1413.593, 52105.00
1414.644, 52520.00
1415.695, 52414.00
1416.745, 52376.00
1417.795, 52582.00
1418.845, 52568.00
1419.895, 53014.00
1420.945, 52824.00
1421.995, 53063.00
1423.044, 53046.00
1424.093, 52932.00
1425.142, 53148.00
1426.191, 53204.00
1427.240, 53452.00
1428.289, 53489.00
1429.337, 53349.00
1430.385, 53784.00
1431.433, 53944.00
1432.481, 53924.00
1433.529, 53793.00
1434.577, 54026.00
1435.624, 54189.00
1436.672, 54231.00
1437.719, 54462.00
1438.766, 54474.00
1439.812, 54721.00
1440.859, 54567.00
1441.905, 54859.00
1442.952, 54561.00
1443.998, 54883.00
1445.044, 54924.00
1446.090, 55200.00
1447.135, 55492.00
1448.181, 55360.00
1449.226, 55420.00
1450.271, 55637.00
1451.316, 55739.00
1452.361, 55888.00
1453.405, 56008.00
1454.450, 55611.00
1455.494, 56195.00
1456.538, 56041.00
1457.582, 55792.00
1458.626, 56529.00
1459.670, 56388.00
1460.713, 56540.00
1461.757, 56637.00
1462.800, 56546.00
1463.843, 56676.76
1464.886, 56734.00
1465.928, 56768.00
1466.971, 56874.00
1468.013, 56918.00
1469.055, 57120.00
1470.097, 56944.00
1471.139, 57016.00
1472.181, 57426.00
1473.222, 57369.00
1474.263, 57771.00
1475.305, 57495.00
1476.346, 57765.00
1477.386, 57668.00
1478.427, 57840.00
1479.468, 58182.00
1480.508, 57856.00
1481.548, 58096.00
1482.588, 58421.00
1483.628, 58244.00
1484.668, 58572.00
1485.707, 58407.00
1486.747, 58826.00
1487.786, 58881.00
1488.825, 58792.00
1489.864, 58755.00
1490.902, 59130.00
1491.941, 58951.00
1492.979, 59085.00
1494.017, 59358.00
1495.055, 58996.00
1496.093, 59196.00
1497.131, 59388.00
1498.168, 59549.00
1499.206, 59625.00
1500.243, 59604.00
1501.280, 59675.00
1502.317, 59823.12
1503.354, 60220.00
1504.390, 60194.00
1505.426, 60423.00
1506.463, 60674.00
1507.499, 60286.00
1508.535, 60588.00
1509.570, 60519.00
1510.606, 60710.00
1511.641, 60636.00
1512.676, 60721.43
1513.711, 60838.00
1514.746, 60865.00
1515.781, 61100.00
1516.816, 61234.00
1517.850, 61183.00
1518.884, 61372.00
1519.918, 61345.00
1520.952, 61648.00
1521.986, 61647.00
1523.019, 61767.00
1524.053, 61818.00
1525.086, 61734.00
1526.119, 62215.00
1527.152, 62196.00
1528.185, 62337.00
1529.217, 62282.00
1530.250, 62505.00
1531.282, 62597.00
1532.314, 62544.00
1533.346, 62729.00
1534.377, 62894.00
1535.409, 62702.00
1536.440, 62753.00
1537.472, 63006.00
1538.503, 62843.00
1539.534, 63055.35
1540.564, 63116.00
1541.595, 63260.00
1542.625, 63393.00
1543.656, 63418.00
1544.686, 63692.00
1545.716, 63734.00
1546.745, 63718.00
1547.775, 64020.00
1548.804, 63775.00
1549.834, 64153.00
1550.863, 64276.00
1551.892, 64411.00
1552.920, 64408.00
1553.949, 64480.77
1554.977, 64225.00
1556.006, 64554.00
1557.034, 64442.00
1558.062, 64548.00
1559.089, 64613.00
1560.117, 64986.00
1561.144, 65095.00
1562.172, 65036.00
1563.199, 64976.00
1564.226, 65135.00
1565.252, 65151.00
1566.279, 65477.00
1567.305, 65426.00
1568.332, 65535.00
1569.358, 65535.00
1570.384, 65535.00
1571.409, 65535.00
1572.435, 65535.00
##END=



