##NAMES=Covellite
##RRUFFID=R060143
##IDEAL CHEMISTRY=Cu^1+^S
##LOCALITY=Butte, Montana, USA
##OWNER=RRUFF
##SOURCE=Marcus Origlieri
##DESCRIPTION=Irridescent blue to purple hexagonal plates
##STATUS=The identification of this mineral has been confirmed by X-ray diffraction and chemical analysis
##URL=rruff.info/R060143
##MEASURED CHEMISTRY=Cu_1.00_S_1.00_
##PIN_ID=L00879
##ORIENTATION=Laser parallel to c* (0 0 1). Fiducial mark perpendicular to laser is parallel to b [0 1 0]
164.8110, 12164.00
166.0360, 11966.00
167.2610, 11762.00
168.4860, 11687.00
169.7110, 11798.00
170.9360, 11850.00
172.1610, 11655.00
173.3850, 11496.00
174.6100, 11543.00
175.8340, 11521.00
177.0580, 11490.47
178.2820, 11507.26
179.5050, 11488.00
180.7290, 11485.00
181.9520, 11466.00
183.1760, 11425.00
184.3990, 11571.00
185.6220, 11666.00
186.8450, 11620.00
188.0670, 11739.00
189.2900, 11712.00
190.5120, 11748.00
191.7340, 12001.00
192.9560, 11920.00
194.1780, 12006.00
195.4000, 12108.00
196.6220, 12155.00
197.8430, 12034.00
199.0640, 11899.00
200.2860, 12025.00
201.5070, 12317.00
202.7270, 12128.00
203.9480, 11705.00
205.1690, 11265.00
206.3890, 10952.00
207.6090, 10858.00
208.8290, 10808.00
210.0490, 10782.00
211.2690, 10811.00
212.4890, 10841.00
213.7080, 10858.00
214.9280, 10837.93
216.1470, 10539.00
217.3660, 10732.00
218.5850, 10696.00
219.8030, 10548.00
221.0220, 10648.00
222.2400, 10592.00
223.4590, 10612.00
224.6770, 10640.00
225.8950, 10687.00
227.1120, 10730.00
228.3300, 10745.89
229.5480, 10765.00
230.7650, 10771.00
231.9820, 10748.00
233.1990, 10739.00
234.4160, 10876.00
235.6330, 10736.00
236.8490, 10831.00
238.0660, 10827.00
239.2820, 10714.00
240.4980, 10857.00
241.7140, 11054.00
242.9300, 11033.00
244.1460, 10976.00
245.3610, 11171.00
246.5770, 11104.00
247.7920, 11261.00
249.0070, 11149.00
250.2220, 11279.00
251.4370, 11600.00
252.6510, 11786.00
253.8660, 11885.00
255.0800, 12007.00
256.2940, 12376.00
257.5080, 13242.00
258.7220, 13113.92
259.9360, 13114.13
261.1490, 13239.00
262.3630, 12851.00
263.5760, 12820.00
264.7890, 12727.18
266.0020, 12729.00
267.2150, 12455.00
268.4270, 12587.00
269.6400, 12291.00
270.8520, 12276.00
272.0640, 11954.00
273.2760, 12037.00
274.4880, 11879.00
275.7000, 11955.00
276.9120, 11938.00
278.1230, 11754.00
279.3340, 11752.00
280.5450, 11669.00
281.7560, 11689.00
282.9670, 11752.00
284.1780, 11774.00
285.3880, 11744.00
286.5980, 11829.00
287.8090, 12014.00
289.0190, 11790.00
290.2290, 11965.00
291.4380, 11962.00
292.6480, 11839.00
293.8570, 11958.00
295.0670, 12052.00
296.2760, 12070.00
297.4850, 11952.00
298.6930, 11943.00
299.9020, 11970.00
301.1110, 12058.00
302.3190, 11989.00
303.5270, 12049.00
304.7350, 11977.00
305.9430, 12077.00
307.1510, 12032.00
308.3580, 11885.00
309.5660, 12160.00
310.7730, 11907.00
311.9800, 11882.00
313.1870, 11810.00
314.3940, 11901.00
315.6010, 11755.00
316.8070, 11782.00
318.0130, 11944.00
319.2200, 11925.00
320.4260, 11957.00
321.6310, 12110.00
322.8370, 12215.00
324.0430, 12325.00
325.2480, 12436.31
326.4540, 12501.00
327.6590, 12643.00
328.8640, 12772.00
330.0680, 12901.00
331.2730, 12922.00
332.4780, 13056.00
333.6820, 13191.00
334.8860, 13153.00
336.0900, 13487.00
337.2940, 13751.00
338.4980, 13775.00
339.7010, 13799.00
340.9050, 13735.00
342.1080, 13534.00
343.3110, 13413.00
344.5140, 13146.00
345.7170, 13041.00
346.9200, 12919.00
348.1220, 12765.00
349.3240, 12666.65
350.5270, 12493.00
351.7290, 12472.00
352.9310, 12392.00
354.1320, 12364.00
355.3340, 12177.00
356.5350, 12119.00
357.7370, 12115.00
358.9380, 11912.00
360.1390, 12016.00
361.3400, 11879.00
362.5400, 11853.00
363.7410, 11907.00
364.9410, 11704.00
366.1410, 11562.00
367.3410, 11820.00
368.5410, 11816.00
369.7410, 11803.00
370.9400, 11731.00
372.1400, 11674.00
373.3390, 11637.00
374.5380, 11653.00
375.7370, 11690.00
376.9360, 11609.00
378.1350, 11692.00
379.3330, 11642.00
380.5310, 11548.00
381.7300, 11592.00
382.9280, 11585.00
384.1260, 11711.00
385.3230, 11623.00
386.5210, 11581.00
387.7180, 11566.00
388.9160, 11449.00
390.1130, 11606.00
391.3100, 11652.00
392.5060, 11463.00
393.7030, 11559.00
394.9000, 11532.00
396.0960, 11603.00
397.2920, 11844.00
398.4880, 11910.00
399.6840, 12010.00
400.8800, 12023.00
402.0750, 12294.00
403.2710, 12668.00
404.4660, 12881.00
405.6610, 13439.00
406.8560, 14281.00
408.0510, 15350.00
409.2450, 16636.00
410.4400, 18770.00
411.6340, 20233.00
412.8280, 19054.00
414.0220, 16417.00
415.2160, 14448.00
416.4100, 13431.00
417.6030, 12714.00
418.7970, 12401.00
419.9900, 12201.00
421.1830, 12165.00
422.3760, 11963.00
423.5690, 11789.00
424.7610, 11998.00
425.9540, 11890.00
427.1460, 11983.00
428.3380, 11975.00
429.5300, 11917.00
430.7220, 11959.00
431.9140, 12121.00
433.1050, 12083.00
434.2970, 12191.00
435.4880, 12066.00
436.6790, 12065.00
437.8700, 12222.00
439.0610, 12036.00
440.2510, 12060.00
441.4420, 12125.00
442.6320, 12227.00
443.8220, 12242.00
445.0120, 12382.00
446.2020, 12496.00
447.3910, 12748.00
448.5810, 13060.00
449.7700, 13392.00
450.9600, 13647.00
452.1490, 14134.00
453.3370, 14554.00
454.5260, 15066.00
455.7150, 15690.00
456.9030, 16312.00
458.0910, 16865.00
459.2800, 17741.00
460.4670, 18605.00
461.6550, 19696.00
462.8430, 21293.00
464.0300, 23387.00
465.2180, 26208.00
466.4050, 30399.00
467.5920, 35792.00
468.7790, 42911.00
469.9650, 50897.00
471.1520, 56955.00
472.3380, 58233.00
473.5250, 54365.00
474.7110, 47117.00
475.8970, 39078.00
477.0820, 32938.00
478.2680, 27665.00
479.4540, 24240.00
480.6390, 21373.00
481.8240, 20789.00
483.0090, 20205.00
484.1940, 16966.00
485.3780, 15962.00
486.5630, 15206.00
487.7470, 14779.00
488.9320, 14416.00
490.1160, 13907.00
491.3000, 13862.00
492.4830, 13621.00
493.6670, 13384.00
494.8500, 13185.00
496.0340, 13051.00
497.2170, 12941.00
498.4000, 12837.00
499.5820, 12775.00
500.7650, 12700.00
501.9480, 12590.00
503.1300, 12588.00
504.3120, 12367.00
505.4940, 12464.00
506.6760, 12384.00
507.8580, 12298.00
509.0390, 12354.00
510.2210, 12311.00
511.4020, 12224.00
512.5830, 12376.00
513.7640, 12290.00
514.9450, 12335.00
516.1250, 12288.00
517.3060, 12287.00
518.4860, 12198.00
519.6660, 12454.00
520.8460, 12278.00
522.0260, 12255.00
523.2060, 12352.00
524.3850, 12247.00
525.5650, 12218.00
526.7440, 12315.00
527.9230, 12232.00
529.1020, 12239.00
530.2810, 12563.54
531.4590, 12331.77
532.6380, 12336.77
533.8160, 12181.00
534.9940, 12089.00
536.1720, 12183.00
537.3500, 12128.00
538.5270, 12232.00
539.7050, 12216.21
540.8820, 12244.00
542.0590, 12167.00
543.2360, 12200.00
544.4130, 12080.00
545.5900, 12144.00
546.7660, 12179.00
547.9430, 12075.00
549.1190, 12117.00
550.2950, 12151.00
551.4710, 12140.00
552.6470, 12180.00
553.8220, 12090.00
554.9980, 12038.00
556.1730, 12005.00
557.3480, 11992.00
558.5230, 12059.00
559.6980, 11992.00
560.8730, 11952.00
562.0470, 12101.00
563.2220, 12031.00
564.3960, 11887.00
565.5700, 11959.00
566.7440, 11885.00
567.9170, 11987.00
569.0910, 12048.00
570.2640, 11892.00
571.4380, 11773.00
572.6110, 11912.00
573.7840, 11875.00
574.9570, 11830.00
576.1290, 11859.00
577.3020, 11843.00
578.4740, 11844.00
579.6460, 11852.00
580.8180, 11748.00
581.9900, 11880.00
583.1620, 11909.00
584.3330, 11833.00
585.5040, 11778.00
586.6760, 11773.00
587.8470, 11854.00
589.0180, 11877.00
590.1880, 11968.00
591.3590, 11954.00
592.5290, 12004.00
593.7000, 12000.76
594.8700, 12083.00
596.0400, 11948.00
597.2090, 12040.00
598.3790, 11966.00
599.5490, 11982.53
600.7180, 11959.00
601.8870, 11999.00
603.0560, 11977.00
604.2250, 11926.00
605.3940, 11993.00
606.5620, 11819.00
607.7300, 11737.00
608.8990, 11790.00
610.0670, 11775.00
611.2350, 11668.00
612.4020, 11721.58
613.5700, 11840.00
614.7370, 11675.00
615.9050, 11809.00
617.0720, 11673.00
618.2390, 11581.00
619.4060, 11673.00
620.5720, 11665.00
621.7390, 11587.00
622.9050, 11666.00
624.0710, 11578.00
625.2370, 11575.00
626.4030, 11603.00
627.5690, 11557.00
628.7340, 11523.00
629.9000, 11581.00
631.0650, 11555.22
632.2300, 11651.00
633.3950, 11597.00
634.5600, 11571.00
635.7240, 11621.00
636.8890, 11567.00
638.0530, 11640.00
639.2170, 11540.00
640.3810, 11697.00
641.5450, 11757.00
642.7080, 11647.00
643.8720, 11667.00
645.0350, 11636.00
646.1980, 11654.00
647.3610, 11671.37
648.5240, 11684.00
649.6870, 11701.00
650.8490, 11716.00
652.0120, 11688.00
653.1740, 11652.00
654.3360, 11604.00
655.4980, 11633.00
656.6600, 11678.00
657.8210, 11681.00
658.9830, 11691.21
660.1440, 11647.00
661.3050, 11671.00
662.4660, 11590.00
663.6270, 11549.00
664.7870, 11558.00
665.9480, 11678.00
667.1080, 11560.00
668.2680, 11623.00
669.4280, 11699.00
670.5880, 11587.00
671.7480, 11609.00
672.9070, 11536.00
674.0670, 11419.00
675.2260, 11483.00
676.3850, 11457.00
677.5440, 11546.00
678.7030, 11578.00
679.8610, 11563.00
681.0200, 11563.00
682.1780, 11552.49
683.3360, 11431.00
684.4940, 11521.00
685.6520, 11445.00
686.8090, 11443.00
687.9670, 11469.00
689.1240, 11619.00
690.2810, 11562.00
691.4380, 11593.00
692.5950, 11565.00
693.7520, 11567.00
694.9080, 11504.00
696.0650, 11562.00
697.2210, 11444.00
698.3770, 11472.00
699.5330, 11460.00
700.6880, 11441.22
701.8440, 11503.24
702.9990, 11467.00
704.1550, 11561.00
705.3100, 11597.00
706.4650, 11510.00
707.6190, 11486.00
708.7740, 11483.21
709.9290, 11487.00
711.0830, 11469.00
712.2370, 11536.00
713.3910, 11547.00
714.5450, 11573.00
715.6980, 11550.00
716.8520, 11525.06
718.0050, 11567.00
719.1580, 11469.00
720.3110, 11536.00
721.4640, 11588.00
722.6170, 11639.00
723.7700, 11721.00
724.9220, 11714.00
726.0740, 11735.30
727.2260, 11682.00
728.3780, 11667.00
729.5300, 11681.00
730.6810, 11663.59
731.8330, 11675.58
732.9840, 11668.00
734.1350, 11711.00
735.2860, 11701.00
736.4370, 11751.00
737.5880, 11743.00
738.7380, 11790.00
739.8880, 11707.00
741.0390, 11646.00
742.1890, 11757.00
743.3380, 11693.00
744.4880, 11725.00
745.6380, 11721.00
746.7870, 11831.00
747.9360, 11892.00
749.0850, 11714.00
750.2340, 11707.00
751.3830, 11896.00
752.5310, 11760.00
753.6800, 11758.00
754.8280, 11820.00
755.9760, 11867.00
757.1240, 11935.00
758.2720, 12025.00
759.4190, 11978.01
760.5670, 11857.00
761.7140, 11920.00
762.8610, 11844.00
764.0080, 11887.00
765.1550, 11839.00
766.3020, 11644.00
767.4480, 11819.00
768.5950, 11849.00
769.7410, 11744.00
770.8870, 12036.00
772.0330, 12061.00
773.1780, 11729.00
774.3240, 11770.00
775.4690, 11838.00
776.6140, 11702.00
777.7590, 11755.00
778.9040, 11977.00
780.0490, 11799.00
781.1940, 12067.00
782.3380, 11809.00
783.4820, 11787.00
784.6260, 11896.00
785.7700, 11947.00
786.9140, 11888.00
788.0580, 11782.00
789.2010, 11916.00
790.3450, 12021.00
791.4880, 11929.00
792.6310, 11780.00
793.7730, 11899.00
794.9160, 11713.00
796.0590, 11940.00
797.2010, 11874.00
798.3430, 11892.00
799.4850, 11925.00
800.6270, 12081.00
801.7690, 12134.00
802.9100, 11997.00
804.0520, 12224.00
805.1930, 12146.00
806.3340, 12097.00
807.4750, 12315.00
808.6160, 12375.00
809.7560, 12415.00
810.8970, 12427.48
812.0370, 12296.00
813.1770, 12317.00
814.3170, 12314.00
815.4570, 12256.00
816.5960, 12481.00
817.7360, 12370.00
818.8750, 12173.00
820.0140, 12381.00
821.1530, 12453.00
822.2920, 12294.00
823.4310, 12380.00
824.5690, 12346.00
825.7070, 12371.00
826.8460, 12309.00
827.9840, 12293.43
829.1220, 12207.00
830.2590, 12251.00
831.3970, 12251.00
832.5340, 12284.00
833.6710, 12238.00
834.8080, 12239.06
835.9450, 12309.00
837.0820, 12170.00
838.2190, 12286.00
839.3550, 12206.00
840.4910, 12270.00
841.6270, 12323.00
842.7630, 12492.00
843.8990, 12342.00
845.0350, 12479.00
846.1700, 12310.00
847.3060, 12362.00
848.4410, 12377.00
849.5760, 12299.00
850.7100, 12207.00
851.8450, 12377.00
852.9800, 12333.00
854.1140, 12302.00
855.2480, 12323.52
856.3820, 12156.00
857.5160, 12214.00
858.6500, 12143.00
859.7830, 12008.00
860.9170, 12198.00
862.0500, 12089.00
863.1830, 12098.00
864.3160, 12158.00
865.4480, 12073.00
866.5810, 12228.00
867.7130, 12125.00
868.8460, 12106.00
869.9780, 12195.00
871.1100, 11927.00
872.2410, 12162.00
873.3730, 12235.00
874.5050, 12280.00
875.6360, 12177.00
876.7670, 12246.00
877.8980, 12236.00
879.0290, 12217.00
880.1590, 12418.00
881.2900, 12264.00
882.4200, 12454.00
883.5500, 12268.00
884.6800, 12317.00
885.8100, 12362.00
886.9400, 12366.00
888.0690, 12362.00
889.1990, 12323.00
890.3280, 12237.00
891.4570, 12378.00
892.5860, 12408.00
893.7140, 12422.00
894.8430, 12340.00
895.9710, 12468.00
897.1000, 12584.00
898.2280, 12475.00
899.3560, 12455.00
900.4830, 12533.00
901.6110, 12564.00
902.7380, 12620.00
903.8660, 12780.00
904.9930, 12722.00
906.1200, 12620.00
907.2460, 12882.00
908.3730, 12817.00
909.5000, 13024.00
910.6260, 13160.00
911.7520, 13031.00
912.8780, 13065.00
914.0040, 13128.00
915.1290, 13252.00
916.2550, 13267.11
917.3800, 13392.00
918.5050, 13319.00
919.6300, 13405.00
920.7550, 13369.00
921.8800, 13586.00
923.0040, 13521.00
924.1290, 13627.00
925.2530, 13570.00
926.3770, 13568.00
927.5010, 13574.00
928.6250, 13484.00
929.7480, 13369.00
930.8720, 13282.00
931.9950, 13290.00
933.1180, 13102.00
934.2410, 13116.00
935.3640, 13028.00
936.4860, 13088.00
937.6090, 12929.00
938.7310, 12973.00
939.8530, 12964.00
940.9750, 12812.00
942.0970, 12860.00
943.2180, 12940.00
944.3400, 12903.00
945.4610, 12793.00
946.5820, 12970.00
947.7030, 12976.00
948.8240, 12847.00
949.9450, 12903.00
951.0650, 12926.00
952.1860, 12903.00
953.3060, 12842.00
954.4260, 12966.00
955.5460, 12964.00
956.6650, 12875.00
957.7850, 12912.00
958.9040, 12894.00
960.0230, 12933.00
961.1420, 12959.00
962.2610, 12973.74
963.3800, 13109.00
964.4990, 13049.00
965.6170, 13098.00
966.7350, 13061.00
967.8530, 12961.00
968.9710, 13085.00
970.0890, 12920.00
971.2070, 13034.00
972.3240, 13029.00
973.4410, 12865.00
974.5580, 12918.00
975.6750, 12857.56
976.7920, 12975.00
977.9090, 12845.00
979.0250, 13031.00
980.1410, 13101.00
981.2580, 12950.00
982.3740, 13098.00
983.4890, 13029.00
984.6050, 13019.00
985.7200, 12989.00
986.8360, 12975.61
987.9510, 13009.00
989.0660, 12901.98
990.1810, 13009.64
991.2950, 13073.71
992.4100, 13096.55
993.5240, 12954.66
994.6390, 13025.49
995.7530, 13011.06
996.8660, 12993.13
997.9800, 13093.89
999.0940, 12975.96
1000.207, 13074.83
1001.320, 13087.15
1002.433, 13139.09
1003.546, 13105.25
1004.659, 13097.90
1005.772, 13176.36
1006.884, 13207.30
1007.996, 13163.58
1009.108, 12899.00
1010.220, 13021.00
1011.332, 12789.00
1012.444, 12962.00
1013.555, 12989.00
1014.666, 13155.00
1015.777, 13062.00
1016.888, 12968.00
1017.999, 12971.00
1019.110, 12991.00
1020.220, 12975.31
1021.331, 12985.68
1022.441, 12984.00
1023.551, 12995.00
1024.661, 12929.00
1025.770, 12941.00
1026.880, 12877.00
1027.989, 12973.00
1029.098, 12961.00
1030.207, 12994.00
1031.316, 12835.00
1032.425, 13025.00
1033.533, 12916.00
1034.642, 12965.00
1035.750, 12963.00
1036.858, 13069.00
1037.966, 13040.00
1039.073, 13009.00
1040.181, 12921.00
1041.288, 12959.12
1042.396, 13076.00
1043.503, 12993.00
1044.610, 13031.00
1045.716, 13014.00
1046.823, 12888.00
1047.929, 12871.00
1049.036, 13179.00
1050.142, 12951.00
1051.248, 13206.00
1052.353, 13153.00
1053.459, 13058.00
1054.564, 13112.00
1055.670, 13209.00
1056.775, 13158.00
1057.880, 13252.00
1058.985, 13131.00
1060.089, 13234.00
1061.194, 13165.00
1062.298, 13153.00
1063.402, 13316.00
1064.506, 13226.00
1065.610, 13193.00
1066.713, 13161.00
1067.817, 13202.00
1068.920, 13150.71
1070.023, 13207.00
1071.126, 13119.00
1072.229, 13137.00
1073.332, 13170.00
1074.435, 13153.00
1075.537, 13166.00
1076.639, 13127.00
1077.741, 13108.00
1078.843, 13113.00
1079.945, 13173.00
1081.046, 12990.00
1082.148, 13282.00
1083.249, 13177.00
1084.350, 13033.00
1085.451, 13121.00
1086.551, 13202.00
1087.652, 13164.00
1088.752, 13209.90
1089.853, 13137.00
1090.953, 13173.00
1092.053, 13102.00
1093.152, 13020.00
1094.252, 13188.00
1095.351, 13230.00
1096.451, 13219.00
1097.550, 13162.00
1098.649, 13063.00
1099.748, 13024.00
1100.846, 13166.00
1101.945, 13217.00
1103.043, 13183.00
1104.141, 13221.00
1105.239, 13174.00
1106.337, 13281.00
1107.434, 13055.00
1108.532, 13094.00
1109.629, 13355.00
1110.726, 13112.00
1111.823, 13188.00
1112.920, 13187.00
1114.017, 13222.00
1115.113, 13267.00
1116.210, 13206.00
1117.306, 13210.00
1118.402, 13290.00
1119.498, 13423.00
1120.593, 13301.00
1121.689, 13280.00
1122.784, 13443.00
1123.879, 13455.00
1124.974, 13382.61
1126.069, 13447.00
1127.164, 13262.00
1128.259, 13181.00
1129.353, 13278.00
1130.447, 13123.00
1131.541, 12981.00
1132.635, 13085.00
1133.729, 13232.00
1134.822, 13079.00
1135.916, 13039.00
1137.009, 13014.00
1138.102, 12854.00
1139.195, 12873.00
1140.288, 12950.00
1141.380, 13113.00
1142.473, 12937.00
1143.565, 13105.00
1144.657, 12938.00
1145.749, 12877.00
1146.841, 12918.00
1147.932, 12839.04
1149.024, 12991.00
1150.115, 12850.00
1151.206, 12974.00
1152.297, 13049.00
1153.388, 13039.00
1154.479, 13019.00
1155.569, 12862.00
1156.659, 13044.00
1157.750, 13075.00
1158.839, 12916.00
1159.929, 13034.00
1161.019, 12967.07
1162.108, 13051.00
1163.198, 12940.00
1164.287, 12942.00
1165.376, 12941.00
1166.465, 12988.00
1167.553, 12874.00
1168.642, 12933.00
1169.730, 12826.00
1170.818, 12910.00
1171.906, 12934.00
1172.994, 12992.00
1174.082, 12979.00
1175.170, 13090.00
1176.257, 12823.00
1177.344, 12922.00
1178.431, 12879.23
1179.518, 12980.39
1180.605, 13037.97
1181.691, 13054.32
1182.778, 12905.93
1183.864, 12970.26
1184.950, 12949.34
1186.036, 12924.93
1187.122, 13019.20
1188.207, 12894.77
1189.292, 12987.16
1190.378, 12974.00
1191.463, 12884.00
1192.548, 12955.00
1193.632, 12904.00
1194.717, 12949.00
1195.801, 12826.00
1196.886, 12986.00
1197.970, 13000.00
1199.054, 12995.00
1200.137, 12850.00
1201.221, 12915.00
1202.305, 12898.00
1203.388, 12952.00
1204.471, 12987.00
1205.554, 12906.00
1206.637, 12918.19
1207.719, 12967.08
1208.802, 12746.00
1209.884, 13094.00
1210.966, 12843.00
1212.048, 12890.00
1213.130, 12923.00
1214.212, 12951.00
1215.293, 12898.00
1216.374, 12851.00
1217.456, 13048.00
1218.536, 12969.00
1219.617, 12941.00
1220.698, 12965.00
1221.778, 12925.00
1222.859, 12913.00
1223.939, 12987.00
1225.019, 12952.00
1226.099, 12982.00
1227.178, 12925.00
1228.258, 12901.00
1229.337, 12962.00
1230.417, 13041.00
1231.496, 12988.00
1232.574, 13015.00
1233.653, 13078.00
1234.732, 13069.00
1235.810, 13015.00
1236.888, 12859.00
1237.966, 13039.00
1239.044, 12966.00
1240.122, 12847.00
1241.199, 13066.00
1242.277, 12898.00
1243.354, 12923.00
1244.431, 13003.00
1245.508, 12899.00
1246.585, 12985.00
1247.661, 12929.00
1248.738, 12898.00
1249.814, 12976.00
1250.890, 12995.00
1251.966, 12987.29
1253.042, 12920.00
1254.117, 12950.00
1255.193, 12995.00
1256.268, 12918.00
1257.343, 13028.00
1258.418, 12985.00
1259.493, 13072.00
1260.567, 12958.00
1261.642, 13067.00
1262.716, 12948.00
1263.790, 13146.00
1264.864, 12965.00
1265.938, 13010.00
1267.011, 13020.16
1268.085, 13025.00
1269.158, 12779.98
1270.231, 12891.58
1271.304, 12959.60
1272.377, 12986.39
1273.450, 12848.45
1274.522, 12923.21
1275.594, 12912.73
1276.666, 12898.75
1277.738, 13003.46
1278.810, 12889.46
1279.882, 12992.28
1280.953, 12991.00
1282.025, 12996.00
1283.096, 12841.00
1284.167, 12984.00
1285.238, 13024.00
1286.308, 12965.00
1287.379, 13065.00
1288.449, 12963.00
1289.519, 13037.56
1290.589, 13026.87
1291.659, 13127.00
1292.729, 13036.00
1293.798, 13048.00
1294.868, 13078.00
1295.937, 12994.00
1297.006, 13067.00
1298.075, 13119.00
1299.143, 13232.00
1300.212, 13191.10
1301.280, 12989.00
1302.348, 13116.00
1303.416, 13003.00
1304.484, 12957.00
1305.552, 13130.00
1306.620, 13035.00
1307.687, 13101.00
1308.754, 13187.00
1309.821, 12974.00
1310.888, 13037.00
1311.955, 12937.00
1313.021, 13142.00
1314.088, 12979.00
1315.154, 13134.00
1316.220, 13091.00
1317.286, 13098.00
1318.352, 13000.00
1319.417, 13030.34
1320.483, 13093.00
1321.548, 13051.00
1322.613, 13086.00
1323.678, 13095.00
1324.743, 13217.00
1325.807, 13041.00
1326.872, 13129.00
1327.936, 13167.00
1329.000, 13081.00
1330.064, 13043.00
1331.128, 13286.00
1332.191, 12960.00
1333.255, 13234.00
1334.318, 13204.00
1335.381, 13183.00
1336.444, 13110.00
1337.507, 13159.00
1338.569, 13161.00
1339.632, 13082.00
1340.694, 13048.00
1341.756, 13130.00
1342.818, 13137.00
1343.880, 13092.00
1344.941, 13213.00
1346.003, 13692.00
1347.064, 13381.68
1348.125, 13469.00
1349.186, 13088.00
1350.247, 13210.00
1351.308, 13218.00
1352.368, 13209.00
1353.428, 13229.00
1354.489, 13191.00
1355.549, 13174.61
1356.608, 13116.00
1357.668, 13156.00
1358.727, 13120.00
1359.787, 13211.00
1360.846, 13068.00
1361.905, 13218.00
1362.964, 13187.00
1364.022, 13100.00
1365.081, 13195.00
1366.139, 13148.00
1367.197, 13122.00
1368.255, 13233.00
1369.313, 13214.00
1370.371, 13301.00
1371.428, 13148.00
1372.486, 13220.00
1373.543, 13228.00
1374.600, 13076.00
1375.657, 13208.00
1376.713, 13172.00
1377.770, 13247.00
1378.826, 13288.00
1379.882, 13189.00
1380.938, 13158.00
1381.994, 13219.00
1383.050, 13406.00
1384.106, 13266.00
1385.161, 13295.00
1386.216, 13136.00
1387.271, 13336.00
1388.326, 13367.00
1389.381, 13264.00
1390.435, 13198.00
1391.490, 13276.00
1392.544, 13156.00
1393.598, 13248.00
1394.652, 13184.00
1395.705, 13309.00
1396.759, 13203.00
1397.812, 13190.00
1398.866, 13301.00
1399.919, 13208.00
1400.972, 13267.00
1402.024, 13197.00
1403.077, 13172.00
1404.129, 13324.00
1405.181, 13327.00
1406.233, 13046.00
1407.285, 13196.00
1408.337, 13172.00
1409.389, 13187.00
1410.440, 13288.00
1411.491, 13246.00
1412.542, 13212.00
1413.593, 13228.00
1414.644, 13230.00
1415.695, 13124.00
1416.745, 13301.00
1417.795, 13296.00
1418.845, 13373.00
1419.895, 13140.00
1420.945, 13379.00
1421.995, 13218.00
1423.044, 13580.00
1424.093, 13343.00
1425.142, 13390.00
1426.191, 13342.00
1427.240, 13190.00
1428.289, 13253.00
1429.337, 13440.00
1430.385, 13346.00
1431.433, 13502.00
1432.481, 13573.00
1433.529, 13491.00
1434.577, 13513.00
1435.624, 13536.00
1436.672, 13480.00
1437.719, 13712.00
1438.766, 13644.00
1439.812, 13843.00
1440.859, 13792.00
1441.905, 13851.00
1442.952, 13925.00
1443.998, 13918.87
1445.044, 13800.00
1446.090, 13927.00
1447.135, 13881.00
1448.181, 13777.00
1449.226, 14007.00
1450.271, 13754.00
1451.316, 13792.00
1452.361, 13871.00
1453.405, 13880.00
1454.450, 13809.00
1455.494, 13851.00
1456.538, 13719.00
1457.582, 13844.00
1458.626, 13775.00
1459.670, 13740.00
1460.713, 13640.00
1461.757, 13793.00
1462.800, 13788.00
1463.843, 13760.00
1464.886, 13671.00
1465.928, 13625.00
1466.971, 13589.00
1468.013, 13655.00
1469.055, 13577.00
1470.097, 13736.00
1471.139, 13579.00
1472.181, 13674.00
1473.222, 13615.00
1474.263, 13604.00
1475.305, 13615.00
1476.346, 13501.00
1477.386, 13454.00
1478.427, 13512.00
1479.468, 13435.00
1480.508, 13407.00
1481.548, 13473.00
1482.588, 13526.00
1483.628, 13520.00
1484.668, 13702.00
1485.707, 13419.92
1486.747, 13526.58
1487.786, 13589.67
1488.825, 13611.52
1489.864, 13468.63
1490.902, 13538.46
1491.941, 13523.05
1492.979, 13504.13
1494.017, 13603.90
1495.055, 13484.97
1496.093, 13582.85
1497.131, 13594.19
1498.168, 13520.00
1499.206, 13429.00
1500.243, 13503.00
1501.280, 13279.00
1502.317, 13519.00
1503.354, 13470.00
1504.390, 13359.00
1505.426, 13394.00
1506.463, 13467.00
1507.499, 13451.00
1508.535, 13447.00
1509.570, 13618.00
1510.606, 13499.27
1511.641, 13626.00
1512.676, 13432.00
1513.711, 13385.00
1514.746, 13485.00
1515.781, 13398.00
1516.816, 13481.00
1517.850, 13555.00
1518.884, 13443.00
1519.918, 13515.00
1520.952, 13595.00
1521.986, 13528.00
1523.019, 13549.00
1524.053, 13534.00
1525.086, 13460.83
1526.119, 13363.40
1527.152, 13427.00
1528.185, 13388.00
1529.217, 13597.00
1530.250, 13570.66
1531.282, 13570.00
1532.314, 13649.00
1533.346, 13465.00
1534.377, 13513.00
1535.409, 13381.00
1536.440, 13617.00
1537.472, 13380.00
1538.503, 13646.00
1539.534, 13537.00
1540.564, 13563.00
1541.595, 13609.00
1542.625, 13602.00
1543.656, 13316.60
1544.686, 13427.66
1545.716, 13495.13
1546.745, 13521.36
1547.775, 13382.86
1548.804, 13457.08
1549.834, 13446.06
1550.863, 13431.53
1551.892, 13535.68
1552.920, 13421.12
1553.949, 13523.40
1554.977, 13539.11
1556.006, 13594.44
1557.034, 13563.99
1558.062, 13560.03
1559.089, 13641.86
1560.117, 13676.19
1561.144, 13584.00
1562.172, 13677.00
1563.199, 13559.00
1564.226, 13550.00
1565.252, 13557.00
1566.279, 13630.00
1567.305, 13626.00
1568.332, 13664.00
1569.358, 13622.00
1570.384, 13593.00
1571.409, 13689.00
1572.435, 13763.00
##END=



