##NAMES=Covellite
##RRUFFID=R060129
##IDEAL CHEMISTRY=Cu^1+^S
##LOCALITY=Butte, Montana, USA
##OWNER=RRUFF
##SOURCE=University of Arizona Mineral Museum
##DESCRIPTION=Iridescent blue metallic hexagonal plates
##STATUS=The identification of this mineral has been confirmed by X-ray diffraction and chemical analysis
##URL=rruff.info/R060129
##MEASURED CHEMISTRY=Cu_1.00_S_1.00_
##PIN_ID=L00818
##ORIENTATION=Laser parallel to c* (0 0 1). Fiducial mark perpendicular to laser is parallel to a [1 0 0]
170.9360, 27390.00
172.1610, 27248.00
173.3850, 26985.00
174.6100, 27197.00
175.8340, 26857.00
177.0580, 27072.00
178.2820, 27096.00
179.5050, 26911.00
180.7290, 27003.00
181.9520, 27134.00
183.1760, 27224.00
184.3990, 27309.00
185.6220, 27224.00
186.8450, 27325.69
188.0670, 27376.44
189.2900, 27360.00
190.5120, 27570.00
191.7340, 27507.00
192.9560, 27662.00
194.1780, 27633.00
195.4000, 27540.00
196.6220, 27725.00
197.8430, 27720.00
199.0640, 27814.00
200.2860, 28049.00
201.5070, 28226.00
202.7270, 28133.00
203.9480, 27585.00
205.1690, 27097.00
206.3890, 27052.00
207.6090, 26878.00
208.8290, 26749.00
210.0490, 27046.00
211.2690, 26916.00
212.4890, 27106.00
213.7080, 27031.00
214.9280, 27060.00
216.1470, 27063.00
217.3660, 26878.00
218.5850, 26831.00
219.8030, 27014.00
221.0220, 26944.00
222.2400, 27029.00
223.4590, 26973.00
224.6770, 27040.00
225.8950, 27074.00
227.1120, 27245.00
228.3300, 27194.00
229.5480, 27174.00
230.7650, 27288.00
231.9820, 27244.00
233.1990, 27375.00
234.4160, 27373.00
235.6330, 27368.00
236.8490, 27346.00
238.0660, 27734.00
239.2820, 27850.00
240.4980, 27670.00
241.7140, 27932.00
242.9300, 27703.00
244.1460, 27826.00
245.3610, 27902.00
246.5770, 28109.00
247.7920, 28165.00
249.0070, 28259.00
250.2220, 28678.00
251.4370, 28824.00
252.6510, 29085.00
253.8660, 29243.00
255.0800, 29708.00
256.2940, 29708.00
257.5080, 30660.00
258.7220, 30714.51
259.9360, 30742.99
261.1490, 31028.00
262.3630, 30587.00
263.5760, 30248.00
264.7890, 30258.00
266.0020, 30351.00
267.2150, 30138.00
268.4270, 30090.00
269.6400, 29789.00
270.8520, 29928.00
272.0640, 29845.00
273.2760, 29871.00
274.4880, 29742.00
275.7000, 29773.00
276.9120, 29748.00
278.1230, 29668.00
279.3340, 29648.00
280.5450, 29394.00
281.7560, 29063.00
282.9670, 28979.00
284.1780, 28862.00
285.3880, 29067.00
286.5980, 28954.00
287.8090, 28975.00
289.0190, 28787.00
290.2290, 28675.00
291.4380, 28935.00
292.6480, 28895.00
293.8570, 29059.00
295.0670, 29026.00
296.2760, 28971.00
297.4850, 28807.00
298.6930, 28778.00
299.9020, 28744.00
301.1110, 28827.66
302.3190, 29038.00
303.5270, 29121.00
304.7350, 29326.00
305.9430, 29502.00
307.1510, 29511.00
308.3580, 29415.00
309.5660, 29477.00
310.7730, 29555.00
311.9800, 29736.00
313.1870, 29878.49
314.3940, 30022.42
315.6010, 30199.00
316.8070, 30485.00
318.0130, 30508.00
319.2200, 31036.00
320.4260, 31549.00
321.6310, 31772.00
322.8370, 32613.00
324.0430, 33369.00
325.2480, 34099.00
326.4540, 34678.00
327.6590, 35544.00
328.8640, 35706.00
330.0680, 36353.00
331.2730, 36453.00
332.4780, 36478.00
333.6820, 35833.00
334.8860, 35308.00
336.0900, 34643.00
337.2940, 34032.00
338.4980, 32976.00
339.7010, 32522.00
340.9050, 31806.00
342.1080, 31360.00
343.3110, 30860.00
344.5140, 30522.00
345.7170, 30353.20
346.9200, 30362.00
348.1220, 30170.00
349.3240, 29981.00
350.5270, 29852.00
351.7290, 29866.02
352.9310, 30158.00
354.1320, 30002.00
355.3340, 30128.00
356.5350, 30223.00
357.7370, 30285.00
358.9380, 30755.00
360.1390, 30913.00
361.3400, 30876.00
362.5400, 31191.00
363.7410, 31209.00
364.9410, 31325.08
366.1410, 31470.00
367.3410, 31505.00
368.5410, 31551.00
369.7410, 31600.57
370.9400, 31935.00
372.1400, 31869.00
373.3390, 32011.00
374.5380, 32149.00
375.7370, 32157.00
376.9360, 32193.00
378.1350, 32119.00
379.3330, 32193.00
380.5310, 32257.00
381.7300, 32294.00
382.9280, 32113.00
384.1260, 31670.00
385.3230, 31525.00
386.5210, 31220.00
387.7180, 31173.00
388.9160, 30924.00
390.1130, 30709.00
391.3100, 30549.00
392.5060, 30426.37
393.7030, 30238.00
394.9000, 30305.00
396.0960, 30193.00
397.2920, 30209.00
398.4880, 30092.00
399.6840, 29981.00
400.8800, 30013.00
402.0750, 30354.00
403.2710, 30049.00
404.4660, 30182.00
405.6610, 29872.00
406.8560, 29938.00
408.0510, 30126.00
409.2450, 30072.00
410.4400, 30092.00
411.6340, 30075.00
412.8280, 30117.00
414.0220, 30222.00
415.2160, 29988.00
416.4100, 30228.00
417.6030, 30209.00
418.7970, 29927.00
419.9900, 30044.00
421.1830, 30118.00
422.3760, 30261.00
423.5690, 30325.00
424.7610, 30357.00
425.9540, 30377.00
427.1460, 30374.00
428.3380, 30540.00
429.5300, 30608.00
430.7220, 30613.00
431.9140, 30587.00
433.1050, 30511.00
434.2970, 30690.00
435.4880, 30488.00
436.6790, 31038.00
437.8700, 30856.00
439.0610, 31344.00
440.2510, 31260.00
441.4420, 31388.00
442.6320, 31510.00
443.8220, 31733.00
445.0120, 31807.00
446.2020, 32115.00
447.3910, 32461.00
448.5810, 32696.00
449.7700, 33338.00
450.9600, 33494.00
452.1490, 34038.00
453.3370, 34673.00
454.5260, 35126.00
455.7150, 35559.00
456.9030, 36462.00
458.0910, 37232.00
459.2800, 38222.00
460.4670, 39802.00
461.6550, 41077.00
462.8430, 43749.00
464.0300, 46523.00
465.2180, 50326.00
466.4050, 54549.00
467.5920, 58553.00
468.7790, 62438.00
469.9650, 64268.00
471.1520, 63553.00
472.3380, 60556.00
473.5250, 56052.00
474.7110, 51327.00
475.8970, 47506.00
477.0820, 44203.00
478.2680, 41550.00
479.4540, 39537.00
480.6390, 37741.00
481.8240, 36432.00
483.0090, 35711.00
484.1940, 35064.00
485.3780, 34202.00
486.5630, 33893.00
487.7470, 33644.00
488.9320, 33389.00
490.1160, 33135.00
491.3000, 32794.00
492.4830, 32900.00
493.6670, 32624.00
494.8500, 32674.00
496.0340, 32429.00
497.2170, 32352.00
498.4000, 31979.00
499.5820, 32323.00
500.7650, 32049.00
501.9480, 32052.00
503.1300, 32371.00
504.3120, 32061.00
505.4940, 32142.00
506.6760, 32257.00
507.8580, 32469.00
509.0390, 32277.00
510.2210, 32060.00
511.4020, 32024.00
512.5830, 32235.00
513.7640, 32211.00
514.9450, 32232.00
516.1250, 32233.00
517.3060, 32000.00
518.4860, 32140.00
519.6660, 32227.00
520.8460, 32465.00
522.0260, 32305.00
523.2060, 32222.00
524.3850, 32250.00
525.5650, 32271.00
526.7440, 32393.00
527.9230, 32406.00
529.1020, 32306.00
530.2810, 32199.00
531.4590, 32546.00
532.6380, 32394.00
533.8160, 32460.00
534.9940, 32349.00
536.1720, 32386.00
537.3500, 32337.00
538.5270, 32341.08
539.7050, 32289.00
540.8820, 32415.00
542.0590, 32497.00
543.2360, 32623.00
544.4130, 32582.00
545.5900, 32554.00
546.7660, 32553.00
547.9430, 32672.00
549.1190, 32460.00
550.2950, 32646.00
551.4710, 32635.00
552.6470, 32379.00
553.8220, 32490.00
554.9980, 32624.00
556.1730, 32816.00
557.3480, 32933.00
558.5230, 32765.00
559.6980, 32795.00
560.8730, 32896.00
562.0470, 32516.00
563.2220, 32609.00
564.3960, 32662.00
565.5700, 32924.00
566.7440, 32662.00
567.9170, 32879.00
569.0910, 32925.00
570.2640, 32943.00
571.4380, 32847.00
572.6110, 32814.00
573.7840, 33175.00
574.9570, 32753.00
576.1290, 33109.00
577.3020, 32967.00
578.4740, 32717.00
579.6460, 32924.00
580.8180, 33025.00
581.9900, 32934.00
583.1620, 32950.00
584.3330, 32831.00
585.5040, 33024.00
586.6760, 33035.00
587.8470, 32969.00
589.0180, 32861.00
590.1880, 33128.00
591.3590, 32912.00
592.5290, 32895.00
593.7000, 33118.00
594.8700, 33002.00
596.0400, 33105.00
597.2090, 33134.00
598.3790, 33025.00
599.5490, 33275.00
600.7180, 33164.10
601.8870, 33297.00
603.0560, 33180.00
604.2250, 33132.00
605.3940, 33276.00
606.5620, 33363.00
607.7300, 33264.00
608.8990, 33265.00
610.0670, 33436.00
611.2350, 33391.00
612.4020, 33587.00
613.5700, 33678.00
614.7370, 33762.00
615.9050, 33517.00
617.0720, 33615.00
618.2390, 33484.00
619.4060, 33456.00
620.5720, 33699.00
621.7390, 33599.00
622.9050, 33941.00
624.0710, 33765.00
625.2370, 33610.00
626.4030, 33738.00
627.5690, 33834.00
628.7340, 33876.00
629.9000, 33671.00
631.0650, 33703.00
632.2300, 33474.00
633.3950, 33476.00
634.5600, 33740.00
635.7240, 33967.00
636.8890, 33852.00
638.0530, 33825.00
639.2170, 33944.00
640.3810, 33906.00
641.5450, 33996.00
642.7080, 33946.00
643.8720, 33948.00
645.0350, 34145.00
646.1980, 33835.00
647.3610, 33806.00
648.5240, 34109.00
649.6870, 34312.00
650.8490, 34119.00
652.0120, 34374.00
653.1740, 34353.00
654.3360, 34218.00
655.4980, 34284.00
656.6600, 34169.00
657.8210, 34230.00
658.9830, 34243.00
660.1440, 34147.00
661.3050, 34503.00
662.4660, 34384.00
663.6270, 33984.00
664.7870, 34628.00
665.9480, 34446.00
667.1080, 34268.00
668.2680, 34591.00
669.4280, 34306.00
670.5880, 34338.00
671.7480, 34597.00
672.9070, 33962.00
674.0670, 34345.00
675.2260, 34383.00
676.3850, 34421.00
677.5440, 34390.00
678.7030, 34562.00
679.8610, 34546.00
681.0200, 34774.00
682.1780, 34366.00
683.3360, 34409.00
684.4940, 34230.00
685.6520, 34361.00
686.8090, 34513.00
687.9670, 34558.00
689.1240, 34334.00
690.2810, 34475.00
691.4380, 34637.00
692.5950, 34342.00
693.7520, 34411.00
694.9080, 34179.00
696.0650, 34649.00
697.2210, 34610.00
698.3770, 34966.00
699.5330, 34646.00
700.6880, 34617.00
701.8440, 34658.00
702.9990, 34487.00
704.1550, 34725.00
705.3100, 34611.00
706.4650, 34993.00
707.6190, 35040.00
708.7740, 34681.00
709.9290, 34834.00
711.0830, 34768.00
712.2370, 34690.00
713.3910, 34958.00
714.5450, 34843.00
715.6980, 34859.00
716.8520, 35082.00
718.0050, 34881.00
719.1580, 35064.00
720.3110, 35117.00
721.4640, 35096.00
722.6170, 34938.00
723.7700, 34938.00
724.9220, 35240.00
726.0740, 35081.00
727.2260, 35151.00
728.3780, 35105.00
729.5300, 35216.00
730.6810, 35193.00
731.8330, 35276.00
732.9840, 35457.00
734.1350, 35362.00
735.2860, 35474.00
736.4370, 35354.00
737.5880, 35551.00
738.7380, 35361.00
739.8880, 35081.00
741.0390, 35532.00
742.1890, 35215.00
743.3380, 35611.00
744.4880, 35602.00
745.6380, 35553.00
746.7870, 35751.00
747.9360, 35685.00
749.0850, 35735.00
750.2340, 35569.00
751.3830, 35556.00
752.5310, 35664.00
753.6800, 35629.00
754.8280, 35583.00
755.9760, 35784.00
757.1240, 35719.75
758.2720, 35804.08
759.4190, 35818.00
760.5670, 35878.00
761.7140, 36050.00
762.8610, 36025.00
764.0080, 36057.56
765.1550, 35829.00
766.3020, 35961.00
767.4480, 35794.00
768.5950, 35615.00
769.7410, 35916.00
770.8870, 35822.00
772.0330, 36109.00
773.1780, 36310.00
774.3240, 35888.00
775.4690, 35998.00
776.6140, 36014.00
777.7590, 36019.00
778.9040, 35999.00
780.0490, 35881.00
781.1940, 36113.00
782.3380, 36438.00
783.4820, 35921.00
784.6260, 36341.00
785.7700, 36455.00
786.9140, 36428.00
788.0580, 36321.00
789.2010, 36240.00
790.3450, 36140.00
791.4880, 36232.00
792.6310, 36256.00
793.7730, 36199.00
794.9160, 36388.00
796.0590, 36201.00
797.2010, 36255.00
798.3430, 36325.00
799.4850, 36557.00
800.6270, 36589.00
801.7690, 36552.00
802.9100, 36687.00
804.0520, 36614.00
805.1930, 36793.00
806.3340, 36545.00
807.4750, 36404.00
808.6160, 36886.00
809.7560, 36787.00
810.8970, 36600.00
812.0370, 36932.00
813.1770, 36636.00
814.3170, 36778.00
815.4570, 36867.00
816.5960, 37078.00
817.7360, 36896.00
818.8750, 36844.00
820.0140, 36861.00
821.1530, 36766.00
822.2920, 37420.00
823.4310, 36980.00
824.5690, 36614.00
825.7070, 37188.00
826.8460, 37076.00
827.9840, 37113.00
829.1220, 37210.00
830.2590, 36950.00
831.3970, 37044.00
832.5340, 37029.00
833.6710, 37155.00
834.8080, 37103.00
835.9450, 37262.00
837.0820, 37402.00
838.2190, 37342.00
839.3550, 37694.00
840.4910, 37590.00
841.6270, 37694.00
842.7630, 37475.00
843.8990, 37351.00
845.0350, 37375.00
846.1700, 37409.00
847.3060, 37444.00
848.4410, 37271.00
849.5760, 37435.00
850.7100, 37719.00
851.8450, 37882.00
852.9800, 37752.00
854.1140, 37789.00
855.2480, 37823.00
856.3820, 37787.00
857.5160, 37983.00
858.6500, 37933.00
859.7830, 38042.00
860.9170, 37942.00
862.0500, 37954.00
863.1830, 37803.00
864.3160, 37867.68
865.4480, 37953.00
866.5810, 38018.00
867.7130, 38033.00
868.8460, 38067.21
869.9780, 38078.93
871.1100, 38076.00
872.2410, 38075.00
873.3730, 38076.00
874.5050, 38058.00
875.6360, 38256.00
876.7670, 38363.00
877.8980, 38328.00
879.0290, 38447.00
880.1590, 38294.00
881.2900, 38336.00
882.4200, 38364.00
883.5500, 38423.00
884.6800, 38658.00
885.8100, 38618.31
886.9400, 38678.68
888.0690, 38637.00
889.1990, 38677.00
890.3280, 38628.00
891.4570, 38640.00
892.5860, 38697.00
893.7140, 38889.00
894.8430, 38841.00
895.9710, 38976.00
897.1000, 38917.00
898.2280, 38731.00
899.3560, 39019.00
900.4830, 39238.00
901.6110, 38890.00
902.7380, 39159.00
903.8660, 39046.00
904.9930, 39188.00
906.1200, 39373.00
907.2460, 39463.00
908.3730, 39462.00
909.5000, 39687.00
910.6260, 39478.00
911.7520, 39246.00
912.8780, 39642.00
914.0040, 39522.00
915.1290, 39553.00
916.2550, 39819.00
917.3800, 39840.00
918.5050, 40291.00
919.6300, 40216.00
920.7550, 39933.00
921.8800, 40369.00
923.0040, 40312.00
924.1290, 40145.00
925.2530, 40252.00
926.3770, 40163.00
927.5010, 40103.00
928.6250, 40113.00
929.7480, 40386.00
930.8720, 40343.00
931.9950, 40207.00
933.1180, 40270.00
934.2410, 40163.38
935.3640, 40228.00
936.4860, 40024.00
937.6090, 40167.00
938.7310, 40074.00
939.8530, 40036.00
940.9750, 39991.00
942.0970, 40159.00
943.2180, 39972.00
944.3400, 39992.00
945.4610, 40120.55
946.5820, 40471.00
947.7030, 40363.00
948.8240, 40425.00
949.9450, 40517.00
951.0650, 40167.00
952.1860, 40469.00
953.3060, 40408.00
954.4260, 40189.00
955.5460, 40389.00
956.6650, 40097.00
957.7850, 40670.00
958.9040, 40570.00
960.0230, 40579.00
961.1420, 40758.00
962.2610, 40693.00
963.3800, 40701.60
964.4990, 40777.38
965.6170, 40600.00
966.7350, 40789.00
967.8530, 40740.00
968.9710, 40594.00
970.0890, 40839.00
971.2070, 40744.00
972.3240, 41069.00
973.4410, 41124.00
974.5580, 41160.00
975.6750, 41200.00
976.7920, 41245.00
977.9090, 41216.00
979.0250, 41265.74
980.1410, 40966.00
981.2580, 41266.00
982.3740, 41277.00
983.4890, 41171.00
984.6050, 41555.00
985.7200, 41424.00
986.8360, 41373.00
987.9510, 41574.00
989.0660, 41536.00
990.1810, 41375.00
991.2950, 41543.00
992.4100, 41299.00
993.5240, 41688.00
994.6390, 41661.00
995.7530, 41785.00
996.8660, 41985.00
997.9800, 41834.00
999.0940, 41929.00
1000.207, 42253.00
1001.320, 42213.00
1002.433, 41817.00
1003.546, 42003.00
1004.659, 41844.00
1005.772, 41829.00
1006.884, 41837.00
1007.996, 41828.11
1009.108, 41967.00
1010.220, 41980.00
1011.332, 42084.89
1012.444, 42019.00
1013.555, 42272.00
1014.666, 42222.00
1015.777, 42261.00
1016.888, 42376.00
1017.999, 41973.00
1019.110, 42291.00
1020.220, 42084.00
1021.331, 41989.00
1022.441, 42139.00
1023.551, 42247.00
1024.661, 42270.20
1025.770, 42495.00
1026.880, 42372.00
1027.989, 42493.00
1029.098, 42452.00
1030.207, 42457.47
1031.316, 42674.00
1032.425, 42507.00
1033.533, 42539.00
1034.642, 42619.00
1035.750, 42576.00
1036.858, 42787.00
1037.966, 42757.00
1039.073, 42771.00
1040.181, 42875.73
1041.288, 42835.00
1042.396, 42927.00
1043.503, 42913.00
1044.610, 42795.00
1045.716, 42798.00
1046.823, 42971.00
1047.929, 43165.00
1049.036, 42964.00
1050.142, 43156.00
1051.248, 43178.00
1052.353, 43252.03
1053.459, 43607.00
1054.564, 43422.00
1055.670, 43583.00
1056.775, 43490.00
1057.880, 43411.00
1058.985, 43471.00
1060.089, 43550.00
1061.194, 43398.00
1062.298, 43336.00
1063.402, 43496.00
1064.506, 43587.00
1065.610, 43718.00
1066.713, 43694.00
1067.817, 43984.00
1068.920, 44183.00
1070.023, 43971.00
1071.126, 44064.00
1072.229, 43860.00
1073.332, 44113.00
1074.435, 44003.00
1075.537, 43997.00
1076.639, 44257.00
1077.741, 44150.00
1078.843, 44443.00
1079.945, 44117.00
1081.046, 44413.00
1082.148, 44278.00
1083.249, 44456.00
1084.350, 44601.00
1085.451, 44274.00
1086.551, 44467.00
1087.652, 44381.00
1088.752, 44297.00
1089.853, 44627.00
1090.953, 44517.00
1092.053, 44672.00
1093.152, 44588.00
1094.252, 44604.00
1095.351, 44644.00
1096.451, 44665.00
1097.550, 44552.00
1098.649, 44772.00
1099.748, 44669.00
1100.846, 44808.00
1101.945, 44976.00
1103.043, 44716.00
1104.141, 45028.00
1105.239, 45335.00
1106.337, 45310.18
1107.434, 45874.00
1108.532, 45561.00
1109.629, 45438.00
1110.726, 45560.00
1111.823, 45220.00
1112.920, 45375.00
1114.017, 45092.00
1115.113, 45410.00
1116.210, 45091.00
1117.306, 45526.00
1118.402, 45930.00
1119.498, 45521.00
1120.593, 46005.00
1121.689, 46172.00
1122.784, 45820.00
1123.879, 45898.00
1124.974, 45734.00
1126.069, 45697.00
1127.164, 45767.00
1128.259, 45743.00
1129.353, 45913.00
1130.447, 45684.00
1131.541, 46053.00
1132.635, 46003.00
1133.729, 45935.00
1134.822, 46339.00
1135.916, 46223.00
1137.009, 46245.00
1138.102, 46233.00
1139.195, 45953.00
1140.288, 46132.00
1141.380, 46196.00
1142.473, 46170.00
1143.565, 46471.00
1144.657, 46197.00
1145.749, 46219.00
1146.841, 46627.00
1147.932, 46597.00
1149.024, 46589.00
1150.115, 46560.00
1151.206, 46441.00
1152.297, 46464.00
1153.388, 46748.00
1154.479, 46507.00
1155.569, 46621.00
1156.659, 46474.00
1157.750, 46802.00
1158.839, 46923.00
1159.929, 47085.00
1161.019, 47101.00
1162.108, 47206.00
1163.198, 47217.87
1164.287, 47202.43
1165.376, 47232.00
1166.465, 47180.00
1167.553, 47232.00
1168.642, 47332.00
1169.730, 47322.00
1170.818, 47638.00
1171.906, 47642.00
1172.994, 47447.00
1174.082, 47706.00
1175.170, 47646.00
1176.257, 47836.00
1177.344, 47577.00
1178.431, 47835.00
1179.518, 47598.00
1180.605, 47901.00
1181.691, 47433.00
1182.778, 47689.00
1183.864, 48284.00
1184.950, 48175.00
1186.036, 48188.00
1187.122, 48253.00
1188.207, 48134.00
1189.292, 48074.00
1190.378, 48498.00
1191.463, 48243.00
1192.548, 48495.00
1193.632, 48110.00
1194.717, 48253.00
1195.801, 48053.00
1196.886, 48456.00
1197.970, 48688.00
1199.054, 48538.00
1200.137, 48767.00
1201.221, 48986.00
1202.305, 48906.00
1203.388, 48960.00
1204.471, 48622.00
1205.554, 48918.00
1206.637, 48944.00
1207.719, 48787.00
1208.802, 49066.00
1209.884, 49025.00
1210.966, 49093.00
1212.048, 49516.00
1213.130, 49725.00
1214.212, 49591.00
1215.293, 49554.00
1216.374, 49937.00
1217.456, 49820.00
1218.536, 49558.00
1219.617, 49427.00
1220.698, 49555.00
1221.778, 49750.00
1222.859, 49784.00
1223.939, 49489.00
1225.019, 50043.00
1226.099, 49939.00
1227.178, 50156.00
1228.258, 50245.08
1229.337, 50420.00
1230.417, 50169.00
1231.496, 50388.00
1232.574, 50148.79
1233.653, 50218.70
1234.732, 50299.00
1235.810, 50273.00
1236.888, 50620.00
1237.966, 50626.00
1239.044, 50896.00
1240.122, 50929.00
1241.199, 50692.00
1242.277, 51072.00
1243.354, 50970.00
1244.431, 51168.00
1245.508, 51021.00
1246.585, 51039.00
1247.661, 50933.00
1248.738, 51085.00
1249.814, 51123.00
1250.890, 51331.00
1251.966, 51430.73
1253.042, 51639.00
1254.117, 51657.00
1255.193, 51679.00
1256.268, 51700.00
1257.343, 51788.11
1258.418, 52086.00
1259.493, 51969.00
1260.567, 51766.00
1261.642, 51801.00
1262.716, 52145.00
1263.790, 52232.00
1264.864, 52412.00
1265.938, 52325.00
1267.011, 52368.00
1268.085, 52472.00
1269.158, 52577.00
1270.231, 52167.00
1271.304, 52224.00
1272.377, 52209.00
1273.450, 52210.00
1274.522, 52249.00
1275.594, 52378.56
1276.666, 52443.86
1277.738, 52679.00
1278.810, 52775.00
1279.882, 52855.00
1280.953, 52933.09
1282.025, 53240.00
1283.096, 53052.00
1284.167, 53025.00
1285.238, 53234.00
1286.308, 53109.00
1287.379, 53567.00
1288.449, 53238.00
1289.519, 53442.00
1290.589, 53423.00
1291.659, 53945.00
1292.729, 53803.00
1293.798, 54103.00
1294.868, 54499.00
1295.937, 54128.00
1297.006, 54264.00
1298.075, 54328.00
1299.143, 54483.00
1300.212, 54575.00
1301.280, 54635.00
1302.348, 54678.35
1303.416, 54568.00
1304.484, 54627.00
1305.552, 54790.00
1306.620, 54649.00
1307.687, 55376.00
1308.754, 55072.00
1309.821, 55128.00
1310.888, 55204.00
1311.955, 55065.00
1313.021, 55124.00
1314.088, 55542.00
1315.154, 54916.00
1316.220, 55545.00
1317.286, 55335.00
1318.352, 55419.00
1319.417, 55720.00
1320.483, 56114.00
1321.548, 55643.00
1322.613, 56247.00
1323.678, 56258.00
1324.743, 55764.00
1325.807, 55916.00
1326.872, 56135.00
1327.936, 56001.00
1329.000, 56286.00
1330.064, 56217.00
1331.128, 56439.00
1332.191, 56454.00
1333.255, 56476.00
1334.318, 56685.00
1335.381, 56515.00
1336.444, 57088.00
1337.507, 56574.00
1338.569, 56560.00
1339.632, 56977.00
1340.694, 56658.00
1341.756, 56556.00
1342.818, 56846.00
1343.880, 57061.00
1344.941, 56725.00
1346.003, 56959.00
1347.064, 57315.00
##END=



