##NAMES=Covellite
##RRUFFID=R060129
##IDEAL CHEMISTRY=Cu^1+^S
##LOCALITY=Butte, Montana, USA
##OWNER=RRUFF
##SOURCE=University of Arizona Mineral Museum
##DESCRIPTION=Iridescent blue metallic hexagonal plates
##STATUS=The identification of this mineral has been confirmed by X-ray diffraction and chemical analysis
##URL=rruff.info/R060129
##MEASURED CHEMISTRY=Cu_1.00_S_1.00_
##PIN_ID=L00818
##ORIENTATION=Laser parallel to c* (0 0 1). Fiducial mark perpendicular to laser is parallel to a [1 0 0]
170.9360, 14485.00
172.1610, 14336.00
173.3850, 14164.00
174.6100, 14201.00
175.8340, 14236.00
177.0580, 14089.00
178.2820, 14085.00
179.5050, 14161.00
180.7290, 14197.00
181.9520, 14152.00
183.1760, 14079.00
184.3990, 14217.00
185.6220, 14482.00
186.8450, 14504.00
188.0670, 14444.00
189.2900, 14421.00
190.5120, 14400.00
191.7340, 14455.62
192.9560, 14588.73
194.1780, 14608.71
195.4000, 14575.00
196.6220, 14633.00
197.8430, 14477.00
199.0640, 14695.00
200.2860, 14714.00
201.5070, 14908.00
202.7270, 14794.00
203.9480, 14465.00
205.1690, 14049.00
206.3890, 13736.00
207.6090, 13517.00
208.8290, 13419.72
210.0490, 13747.00
211.2690, 13498.00
212.4890, 13587.00
213.7080, 13805.00
214.9280, 13707.00
216.1470, 13621.00
217.3660, 13432.00
218.5850, 13581.00
219.8030, 13565.00
221.0220, 13647.00
222.2400, 13580.00
223.4590, 13669.00
224.6770, 13551.00
225.8950, 13620.00
227.1120, 13564.00
228.3300, 13768.00
229.5480, 13674.00
230.7650, 13737.00
231.9820, 13750.00
233.1990, 13842.00
234.4160, 13862.00
235.6330, 13882.00
236.8490, 13964.00
238.0660, 13929.00
239.2820, 14080.00
240.4980, 14134.00
241.7140, 14239.00
242.9300, 14479.00
244.1460, 14478.00
245.3610, 14615.00
246.5770, 14775.00
247.7920, 14858.00
249.0070, 15132.00
250.2220, 15372.00
251.4370, 15613.00
252.6510, 15812.00
253.8660, 16149.00
255.0800, 16435.00
256.2940, 16813.00
257.5080, 17777.00
258.7220, 17800.63
259.9360, 17919.10
261.1490, 18166.00
262.3630, 17659.00
263.5760, 17593.00
264.7890, 17517.00
266.0020, 17458.00
267.2150, 17135.00
268.4270, 17153.00
269.6400, 16842.00
270.8520, 16745.00
272.0640, 16715.00
273.2760, 16445.00
274.4880, 16635.00
275.7000, 16559.00
276.9120, 16478.00
278.1230, 16455.00
279.3340, 16284.00
280.5450, 16179.00
281.7560, 15952.00
282.9670, 15966.00
284.1780, 15638.00
285.3880, 15352.00
286.5980, 15395.00
287.8090, 15137.00
289.0190, 14952.00
290.2290, 14905.00
291.4380, 15015.00
292.6480, 14710.00
293.8570, 14801.00
295.0670, 14605.00
296.2760, 14796.00
297.4850, 14888.00
298.6930, 14894.00
299.9020, 14913.00
301.1110, 14788.00
302.3190, 14872.00
303.5270, 14969.00
304.7350, 15125.00
305.9430, 14968.00
307.1510, 15060.00
308.3580, 15225.00
309.5660, 15425.00
310.7730, 15488.00
311.9800, 15513.00
313.1870, 15711.00
314.3940, 15752.00
315.6010, 16079.00
316.8070, 16526.00
318.0130, 16955.00
319.2200, 17276.00
320.4260, 17879.00
321.6310, 18639.00
322.8370, 19473.00
324.0430, 20502.00
325.2480, 21636.00
326.4540, 23146.00
327.6590, 24530.00
328.8640, 25314.00
330.0680, 25894.00
331.2730, 25638.00
332.4780, 25047.00
333.6820, 23801.00
334.8860, 23111.00
336.0900, 21614.00
337.2940, 20408.00
338.4980, 19361.00
339.7010, 18229.00
340.9050, 17559.00
342.1080, 17152.00
343.3110, 16431.00
344.5140, 16076.51
345.7170, 15630.00
346.9200, 15468.00
348.1220, 15227.00
349.3240, 15243.00
350.5270, 15061.00
351.7290, 14933.00
352.9310, 15104.00
354.1320, 15076.12
355.3340, 15207.87
356.5350, 15411.00
357.7370, 15493.00
358.9380, 15889.00
360.1390, 16008.00
361.3400, 16393.00
362.5400, 16622.00
363.7410, 16936.00
364.9410, 17048.00
366.1410, 17316.00
367.3410, 17370.00
368.5410, 17384.00
369.7410, 17706.00
370.9400, 17642.41
372.1400, 17768.00
373.3390, 17680.00
374.5380, 17581.00
375.7370, 17553.00
376.9360, 17483.00
378.1350, 17237.00
379.3330, 17352.00
380.5310, 17411.00
381.7300, 16860.00
382.9280, 16868.00
384.1260, 16617.00
385.3230, 16861.00
386.5210, 16394.00
387.7180, 15783.00
388.9160, 15827.00
390.1130, 15473.00
391.3100, 15319.00
392.5060, 15113.00
393.7030, 14940.00
394.9000, 14924.00
396.0960, 14760.00
397.2920, 14715.00
398.4880, 14662.00
399.6840, 14364.00
400.8800, 14486.00
402.0750, 14357.00
403.2710, 14605.00
404.4660, 14313.00
405.6610, 14490.00
406.8560, 14497.00
408.0510, 14817.00
409.2450, 14673.00
410.4400, 14369.00
411.6340, 14337.00
412.8280, 14204.00
414.0220, 14320.00
415.2160, 14203.00
416.4100, 14159.00
417.6030, 14281.00
418.7970, 14170.00
419.9900, 14112.00
421.1830, 14129.00
422.3760, 14287.00
423.5690, 14267.00
424.7610, 14361.00
425.9540, 14344.00
427.1460, 14440.00
428.3380, 14383.00
429.5300, 14437.00
430.7220, 14470.00
431.9140, 14496.00
433.1050, 14524.00
434.2970, 14709.00
435.4880, 14838.00
436.6790, 14877.34
437.8700, 15193.00
439.0610, 14993.00
440.2510, 15169.00
441.4420, 15260.00
442.6320, 15439.00
443.8220, 15612.00
445.0120, 15781.00
446.2020, 16250.00
447.3910, 16496.00
448.5810, 16825.00
449.7700, 17354.00
450.9600, 17754.00
452.1490, 18357.00
453.3370, 19017.00
454.5260, 19789.00
455.7150, 20419.00
456.9030, 21392.00
458.0910, 22383.00
459.2800, 24012.00
460.4670, 25780.00
461.6550, 28224.00
462.8430, 31963.00
464.0300, 35913.00
465.2180, 41076.00
466.4050, 47255.00
467.5920, 52185.00
468.7790, 57013.00
469.9650, 57338.00
471.1520, 55041.00
472.3380, 52043.00
473.5250, 45283.00
474.7110, 38316.00
475.8970, 33734.00
477.0820, 29714.00
478.2680, 26792.00
479.4540, 24425.00
480.6390, 22208.00
481.8240, 20799.00
483.0090, 19701.00
484.1940, 18918.00
485.3780, 18177.00
486.5630, 17437.00
487.7470, 17086.00
488.9320, 16652.00
490.1160, 16532.00
491.3000, 16232.00
492.4830, 16213.00
493.6670, 15877.00
494.8500, 15626.00
496.0340, 15579.00
497.2170, 15620.00
498.4000, 15266.00
499.5820, 15329.00
500.7650, 15288.00
501.9480, 15252.00
503.1300, 15246.31
504.3120, 15055.00
505.4940, 15153.00
506.6760, 15045.00
507.8580, 14938.00
509.0390, 15037.00
510.2210, 14950.00
511.4020, 15097.00
512.5830, 14885.00
513.7640, 15040.00
514.9450, 14970.00
516.1250, 15015.00
517.3060, 15126.00
518.4860, 15118.00
519.6660, 15285.00
520.8460, 14849.00
522.0260, 14892.00
523.2060, 14950.00
524.3850, 14919.00
525.5650, 14951.00
526.7440, 14938.28
527.9230, 14859.00
529.1020, 14880.00
530.2810, 14889.00
531.4590, 14809.00
532.6380, 14733.00
533.8160, 14876.00
534.9940, 15007.00
536.1720, 14919.00
537.3500, 15137.00
538.5270, 14994.00
539.7050, 15017.00
540.8820, 14876.00
542.0590, 14932.00
543.2360, 14877.00
544.4130, 14795.00
545.5900, 15081.00
546.7660, 14672.00
547.9430, 15193.00
549.1190, 14782.00
550.2950, 14845.00
551.4710, 14999.00
552.6470, 14733.00
553.8220, 14695.00
554.9980, 14744.00
556.1730, 14737.00
557.3480, 14901.00
558.5230, 14623.00
559.6980, 14854.00
560.8730, 14793.00
562.0470, 14563.00
563.2220, 14685.00
564.3960, 14752.00
565.5700, 14676.00
566.7440, 14792.00
567.9170, 14738.00
569.0910, 14701.00
570.2640, 14790.00
571.4380, 14600.00
572.6110, 14674.00
573.7840, 14616.00
574.9570, 14605.00
576.1290, 14506.00
577.3020, 14544.00
578.4740, 14534.00
579.6460, 14444.00
580.8180, 14510.00
581.9900, 14650.00
583.1620, 14747.00
584.3330, 14553.00
585.5040, 14516.00
586.6760, 14520.00
587.8470, 14481.00
589.0180, 14539.00
590.1880, 14557.00
591.3590, 14518.00
592.5290, 14582.57
593.7000, 14578.36
594.8700, 14623.00
596.0400, 14607.00
597.2090, 14555.00
598.3790, 14541.00
599.5490, 14495.00
600.7180, 14658.00
601.8870, 14636.00
603.0560, 14662.00
604.2250, 14584.00
605.3940, 14490.00
606.5620, 14620.00
607.7300, 14452.00
608.8990, 14596.00
610.0670, 14678.00
611.2350, 14470.00
612.4020, 14635.00
613.5700, 14612.00
614.7370, 14625.00
615.9050, 14691.00
617.0720, 14833.00
618.2390, 14618.00
619.4060, 14507.00
620.5720, 14577.00
621.7390, 14687.00
622.9050, 14363.00
624.0710, 14718.00
625.2370, 14580.00
626.4030, 14640.00
627.5690, 14347.00
628.7340, 14601.00
629.9000, 14965.00
631.0650, 14882.00
632.2300, 15122.00
633.3950, 14889.16
634.5600, 14832.41
635.7240, 14397.00
636.8890, 14618.00
638.0530, 14565.00
639.2170, 14700.00
640.3810, 14565.00
641.5450, 14527.00
642.7080, 14500.00
643.8720, 14480.00
645.0350, 14489.00
646.1980, 14683.00
647.3610, 14638.00
648.5240, 14732.00
649.6870, 14739.00
650.8490, 14680.00
652.0120, 14640.00
653.1740, 14992.00
654.3360, 14910.00
655.4980, 14907.00
656.6600, 14784.00
657.8210, 14805.00
658.9830, 14988.00
660.1440, 14922.00
661.3050, 14957.00
662.4660, 14816.00
663.6270, 14959.00
664.7870, 14900.00
665.9480, 14897.00
667.1080, 14846.00
668.2680, 14821.41
669.4280, 14760.00
670.5880, 14756.00
671.7480, 14654.00
672.9070, 14588.00
674.0670, 14661.00
675.2260, 14744.00
676.3850, 14726.00
677.5440, 14571.00
678.7030, 14830.00
679.8610, 14591.00
681.0200, 14483.00
682.1780, 14628.00
683.3360, 14383.00
684.4940, 14573.00
685.6520, 14424.00
686.8090, 14372.00
687.9670, 14253.00
689.1240, 14278.00
690.2810, 14403.00
691.4380, 14369.00
692.5950, 14514.00
693.7520, 14474.00
694.9080, 14328.00
696.0650, 14437.00
697.2210, 14376.00
698.3770, 14473.00
699.5330, 14316.00
700.6880, 14487.00
701.8440, 14393.00
702.9990, 14473.00
704.1550, 14456.00
705.3100, 14481.79
706.4650, 14840.00
707.6190, 14618.00
708.7740, 14576.00
709.9290, 14753.00
711.0830, 14475.00
712.2370, 14437.00
713.3910, 14623.00
714.5450, 14570.00
715.6980, 14522.00
716.8520, 14669.00
718.0050, 14659.00
719.1580, 14418.00
720.3110, 14685.00
721.4640, 14574.00
722.6170, 14493.00
723.7700, 14572.00
724.9220, 14665.00
726.0740, 14690.00
727.2260, 14574.00
728.3780, 14589.00
729.5300, 14533.01
730.6810, 14568.00
731.8330, 14468.00
732.9840, 14549.00
734.1350, 14589.00
735.2860, 14714.00
736.4370, 14684.82
737.5880, 14698.00
738.7380, 14624.00
739.8880, 14573.00
741.0390, 14496.00
742.1890, 14662.00
743.3380, 14641.00
744.4880, 14579.00
745.6380, 14696.00
746.7870, 14656.00
747.9360, 14547.00
749.0850, 14669.00
750.2340, 14530.00
751.3830, 14590.00
752.5310, 14726.00
753.6800, 14625.00
754.8280, 14734.00
755.9760, 14643.00
757.1240, 14721.00
758.2720, 14613.00
759.4190, 14777.00
760.5670, 14728.00
761.7140, 14557.00
762.8610, 14779.00
764.0080, 14687.00
765.1550, 14698.00
766.3020, 14478.00
767.4480, 14685.00
768.5950, 14730.00
769.7410, 14698.00
770.8870, 14554.00
772.0330, 14751.00
773.1780, 14576.00
774.3240, 14532.00
775.4690, 14569.00
776.6140, 14622.00
777.7590, 14535.00
778.9040, 14567.00
780.0490, 14661.00
781.1940, 14558.00
782.3380, 14604.00
783.4820, 14609.00
784.6260, 14398.00
785.7700, 14478.25
786.9140, 14602.00
788.0580, 14490.00
789.2010, 14553.00
790.3450, 14606.00
791.4880, 14974.00
792.6310, 15282.00
793.7730, 14963.00
794.9160, 15236.00
796.0590, 15026.50
797.2010, 14702.00
798.3430, 14769.00
799.4850, 14529.00
800.6270, 14639.00
801.7690, 14733.00
802.9100, 14682.00
804.0520, 14668.00
805.1930, 14613.00
806.3340, 14706.00
807.4750, 14656.00
808.6160, 14691.00
809.7560, 14581.00
810.8970, 14556.00
812.0370, 14705.00
813.1770, 14597.00
814.3170, 14686.00
815.4570, 14671.00
816.5960, 14759.00
817.7360, 14664.00
818.8750, 14648.00
820.0140, 14639.00
821.1530, 14814.00
822.2920, 14659.00
823.4310, 14806.00
824.5690, 14716.00
825.7070, 14889.00
826.8460, 14787.00
827.9840, 14839.00
829.1220, 14818.99
830.2590, 14766.12
831.3970, 14804.00
832.5340, 14699.00
833.6710, 14844.00
834.8080, 14860.00
835.9450, 14782.00
837.0820, 15079.00
838.2190, 14845.00
839.3550, 15008.00
840.4910, 14939.00
841.6270, 14820.00
842.7630, 14836.00
843.8990, 14804.95
845.0350, 14968.00
846.1700, 14848.00
847.3060, 14845.00
848.4410, 14900.00
849.5760, 14823.00
850.7100, 15003.00
851.8450, 15012.00
852.9800, 14875.00
854.1140, 15016.00
855.2480, 14948.00
856.3820, 14984.00
857.5160, 15016.00
858.6500, 15076.00
859.7830, 14940.00
860.9170, 15180.00
862.0500, 14906.00
863.1830, 14890.00
864.3160, 14944.00
865.4480, 14935.00
866.5810, 14887.00
867.7130, 14995.00
868.8460, 15057.00
869.9780, 15007.00
871.1100, 15030.00
872.2410, 15056.00
873.3730, 14977.00
874.5050, 14961.00
875.6360, 15073.00
876.7670, 15230.00
877.8980, 15202.00
879.0290, 15171.00
880.1590, 15030.00
881.2900, 15023.00
882.4200, 15144.00
883.5500, 15098.00
884.6800, 15067.00
885.8100, 15150.00
886.9400, 15046.00
888.0690, 15173.00
889.1990, 15257.00
890.3280, 15259.00
891.4570, 15270.00
892.5860, 15238.00
893.7140, 15240.43
894.8430, 15277.00
895.9710, 15279.00
897.1000, 15381.00
898.2280, 15399.69
899.3560, 15360.00
900.4830, 15486.00
901.6110, 15536.00
902.7380, 15566.00
903.8660, 15693.00
904.9930, 15882.00
906.1200, 15716.00
907.2460, 15983.00
908.3730, 15807.00
909.5000, 15924.00
910.6260, 16006.00
911.7520, 15979.00
912.8780, 16036.00
914.0040, 16267.00
915.1290, 16345.00
916.2550, 16380.00
917.3800, 16315.00
918.5050, 16216.00
919.6300, 16497.00
920.7550, 16683.00
921.8800, 16549.00
923.0040, 16564.00
924.1290, 16594.00
925.2530, 16692.00
926.3770, 16558.00
927.5010, 16582.00
928.6250, 16439.00
929.7480, 16347.00
930.8720, 16417.00
931.9950, 16178.00
933.1180, 16149.00
934.2410, 16006.00
935.3640, 16273.00
936.4860, 16145.37
937.6090, 16300.00
938.7310, 16040.00
939.8530, 15994.00
940.9750, 15764.00
942.0970, 15867.00
943.2180, 15865.00
944.3400, 15641.00
945.4610, 15974.00
946.5820, 15912.00
947.7030, 15698.00
948.8240, 15817.00
949.9450, 15785.00
951.0650, 15818.00
952.1860, 15696.00
953.3060, 15676.00
954.4260, 15858.00
955.5460, 15741.00
956.6650, 15765.00
957.7850, 15831.00
958.9040, 15730.00
960.0230, 15867.00
961.1420, 15831.00
962.2610, 15896.00
963.3800, 15835.00
964.4990, 15782.00
965.6170, 15916.00
966.7350, 15823.00
967.8530, 16015.00
968.9710, 16010.00
970.0890, 15926.00
971.2070, 15970.00
972.3240, 15931.00
973.4410, 15955.00
974.5580, 15940.00
975.6750, 16032.00
976.7920, 15913.00
977.9090, 16041.00
979.0250, 16198.00
980.1410, 16101.00
981.2580, 16040.00
982.3740, 16026.00
983.4890, 16270.00
984.6050, 16154.00
985.7200, 16242.00
986.8360, 16313.00
987.9510, 16292.00
989.0660, 16336.51
990.1810, 16380.00
991.2950, 16348.00
992.4100, 16277.00
993.5240, 16295.00
994.6390, 16262.02
995.7530, 16258.00
996.8660, 16292.00
997.9800, 16409.00
999.0940, 16534.00
1000.207, 16658.00
1001.320, 16636.00
1002.433, 16535.00
1003.546, 16415.00
1004.659, 16343.00
1005.772, 16170.00
1006.884, 16205.58
1007.996, 16417.00
1009.108, 16239.00
1010.220, 16325.00
1011.332, 16299.00
1012.444, 16188.00
1013.555, 16299.00
1014.666, 16453.00
1015.777, 16321.00
1016.888, 16266.00
1017.999, 16327.00
1019.110, 16233.00
1020.220, 16320.00
1021.331, 16364.00
1022.441, 16282.00
1023.551, 16336.12
1024.661, 16378.00
1025.770, 16313.00
1026.880, 16358.00
1027.989, 16325.00
1029.098, 16346.00
1030.207, 16347.00
1031.316, 16245.00
1032.425, 16336.00
1033.533, 16327.00
1034.642, 16300.25
1035.750, 16377.00
1036.858, 16336.00
1037.966, 16369.00
1039.073, 16421.00
1040.181, 16519.00
1041.288, 16575.00
1042.396, 16527.00
1043.503, 16598.00
1044.610, 16561.00
1045.716, 16514.00
1046.823, 16559.00
1047.929, 16473.00
1049.036, 16527.00
1050.142, 16532.87
1051.248, 16643.00
1052.353, 16612.00
1053.459, 16588.00
1054.564, 16683.00
1055.670, 16726.00
1056.775, 16656.00
1057.880, 16434.00
1058.985, 16693.00
1060.089, 16685.00
1061.194, 16438.00
1062.298, 16700.00
1063.402, 16653.00
1064.506, 16736.00
1065.610, 16790.00
1066.713, 16649.00
1067.817, 16713.00
1068.920, 17002.00
1070.023, 16826.00
1071.126, 16921.00
1072.229, 16866.00
1073.332, 17328.00
1074.435, 16838.00
1075.537, 17316.00
1076.639, 17084.00
1077.741, 16980.49
1078.843, 16921.00
1079.945, 16848.00
1081.046, 16709.00
1082.148, 16859.00
1083.249, 16908.00
1084.350, 16870.00
1085.451, 16777.00
1086.551, 16849.00
1087.652, 16726.00
1088.752, 16899.00
1089.853, 16893.00
1090.953, 16884.00
1092.053, 16789.00
1093.152, 16877.00
1094.252, 16881.00
1095.351, 16849.00
1096.451, 16769.00
1097.550, 16950.00
1098.649, 17021.00
1099.748, 16904.00
1100.846, 16788.00
1101.945, 16868.00
1103.043, 16976.00
1104.141, 16897.00
1105.239, 16956.00
1106.337, 16953.00
1107.434, 16936.00
1108.532, 16982.94
1109.629, 17061.00
1110.726, 17019.00
1111.823, 17025.00
1112.920, 17001.00
1114.017, 17210.00
1115.113, 17065.00
1116.210, 17098.00
1117.306, 17235.00
1118.402, 17008.00
1119.498, 17235.00
1120.593, 17327.00
1121.689, 17100.00
1122.784, 17265.00
1123.879, 17209.18
1124.974, 17166.26
1126.069, 17210.00
1127.164, 17149.00
1128.259, 17126.00
1129.353, 17167.00
1130.447, 17127.00
1131.541, 17164.00
1132.635, 17095.00
1133.729, 17127.00
1134.822, 17187.00
1135.916, 17076.00
1137.009, 17280.00
1138.102, 17116.00
1139.195, 17229.00
1140.288, 17258.00
1141.380, 17082.00
1142.473, 17148.00
1143.565, 17091.00
1144.657, 17243.00
1145.749, 17195.00
1146.841, 17131.00
1147.932, 17159.00
1149.024, 17039.00
1150.115, 17198.00
1151.206, 17088.00
1152.297, 17202.00
1153.388, 17198.00
1154.479, 17284.00
1155.569, 17147.00
1156.659, 17196.00
1157.750, 17107.00
1158.839, 17369.00
1159.929, 17304.00
1161.019, 17284.00
1162.108, 17226.00
1163.198, 17250.44
1164.287, 17309.00
1165.376, 17336.00
1166.465, 17373.29
1167.553, 17467.00
1168.642, 17428.00
1169.730, 17419.00
1170.818, 17501.00
1171.906, 17278.00
1172.994, 17592.00
1174.082, 17360.00
1175.170, 17440.00
1176.257, 17490.00
1177.344, 17330.00
1178.431, 17578.00
1179.518, 17579.00
1180.605, 17416.00
1181.691, 17333.00
1182.778, 17340.00
1183.864, 17622.00
1184.950, 17553.00
1186.036, 17557.00
1187.122, 17567.00
1188.207, 17517.40
1189.292, 17524.00
1190.378, 17487.00
1191.463, 17533.00
1192.548, 17586.80
1193.632, 17608.52
1194.717, 17660.00
1195.801, 17673.00
1196.886, 17716.00
1197.970, 17675.00
1199.054, 17645.00
1200.137, 17667.00
1201.221, 17679.00
1202.305, 17716.00
1203.388, 17703.00
1204.471, 17904.00
1205.554, 17844.00
1206.637, 17965.00
1207.719, 17863.00
1208.802, 17848.00
1209.884, 18123.00
1210.966, 18006.00
1212.048, 17978.00
1213.130, 18102.00
1214.212, 18134.00
1215.293, 18162.00
1216.374, 18010.00
1217.456, 18127.00
1218.536, 18095.00
1219.617, 18051.00
1220.698, 18121.00
1221.778, 17955.00
1222.859, 18193.00
1223.939, 18220.00
1225.019, 18164.00
1226.099, 18184.00
1227.178, 18477.00
1228.258, 18313.00
1229.337, 18263.00
1230.417, 18436.00
1231.496, 18267.00
1232.574, 18251.00
1233.653, 18268.00
1234.732, 18303.00
1235.810, 18264.00
1236.888, 18495.00
1237.966, 18493.00
1239.044, 18402.00
1240.122, 18374.00
1241.199, 18604.00
1242.277, 18500.00
1243.354, 18574.00
1244.431, 18440.00
1245.508, 18564.00
1246.585, 18386.00
1247.661, 18680.00
1248.738, 18647.00
1249.814, 18649.00
1250.890, 18839.00
1251.966, 18752.00
1253.042, 18821.00
1254.117, 18707.00
1255.193, 18860.00
1256.268, 18831.00
1257.343, 18860.00
1258.418, 19071.00
1259.493, 19039.00
1260.567, 18814.00
1261.642, 18806.00
1262.716, 18968.00
1263.790, 18901.00
1264.864, 18887.00
1265.938, 18944.00
1267.011, 19145.00
1268.085, 19026.00
1269.158, 19060.35
1270.231, 19210.00
1271.304, 18967.00
1272.377, 18976.00
1273.450, 19233.00
1274.522, 18937.00
1275.594, 19146.00
1276.666, 19143.00
1277.738, 19334.00
1278.810, 19248.00
1279.882, 19389.00
1280.953, 19248.00
1282.025, 19400.00
1283.096, 19388.00
1284.167, 19352.00
1285.238, 19419.00
1286.308, 19518.00
1287.379, 19428.00
1288.449, 19584.00
1289.519, 19432.00
1290.589, 19665.00
1291.659, 19474.00
1292.729, 19933.00
1293.798, 19864.00
1294.868, 19795.00
1295.937, 19764.00
1297.006, 19890.00
1298.075, 19835.00
1299.143, 19822.00
1300.212, 19829.00
1301.280, 19824.19
1302.348, 19809.00
1303.416, 19940.00
1304.484, 19894.00
1305.552, 20119.00
1306.620, 20185.00
1307.687, 20169.00
1308.754, 20305.00
1309.821, 20355.00
1310.888, 20430.00
1311.955, 20287.00
1313.021, 20232.00
1314.088, 20642.00
1315.154, 20447.00
1316.220, 20478.00
1317.286, 20670.00
1318.352, 20565.00
1319.417, 20650.00
1320.483, 20732.00
1321.548, 20395.00
1322.613, 20611.00
1323.678, 20594.00
1324.743, 20623.00
1325.807, 20431.00
1326.872, 20684.00
1327.936, 20674.00
1329.000, 20705.00
1330.064, 20879.00
1331.128, 20804.00
1332.191, 20729.00
1333.255, 20588.00
1334.318, 20647.25
1335.381, 20725.00
1336.444, 20805.00
1337.507, 20789.00
1338.569, 20978.00
1339.632, 21028.00
1340.694, 20958.00
1341.756, 20909.00
1342.818, 20840.00
1343.880, 20979.00
1344.941, 20924.00
1346.003, 20852.00
1347.064, 21069.00
1348.125, 20970.00
1349.186, 20932.00
##END=



