##NAMES=Covellite
##RRUFFID=R060306
##IDEAL CHEMISTRY=Cu^1+^S
##LOCALITY=3800' level, Leonard mine, Butte, Silver Bow County, Montana, USA
##OWNER=RRUFF
##SOURCE=Michael Scott
##DESCRIPTION=Blue iridescent metallic hexagonal plates
##STATUS=The identification of this mineral has been confirmed by X-ray diffraction and chemical analysis
##URL=rruff.info/R060306
##MEASURED CHEMISTRY=Cu_1.00_S_1.00_
##PIN_ID=M00422
##ORIENTATION=Laser parallel to -c* (0 0 -1). Fiducial mark perpendicular to laser is parallel to a [1 0 0]
92.24600, 10653.00
93.48000, 10530.00
94.71400, 10686.00
95.94800, 10950.00
97.18200, 10780.00
98.41600, 10838.00
99.64900, 11328.00
100.8830, 11558.00
102.1160, 11497.00
103.3490, 11733.00
104.5820, 12229.00
105.8150, 13274.00
107.0470, 15050.00
108.2800, 14887.55
109.5120, 15042.48
110.7440, 15270.00
111.9760, 14292.00
113.2080, 14616.00
114.4400, 14949.00
115.6710, 15586.00
116.9030, 14687.00
118.1340, 14293.00
119.3650, 13515.00
120.5960, 12930.00
121.8270, 12614.00
123.0580, 12705.00
124.2880, 12793.00
125.5190, 12524.00
126.7490, 12439.00
127.9790, 12513.00
129.2090, 12993.00
130.4390, 13377.00
131.6680, 13837.00
132.8980, 14065.00
134.1270, 14517.00
135.3560, 15206.00
136.5850, 16148.00
137.8140, 17375.00
139.0430, 18166.00
140.2710, 18011.00
141.5000, 16752.00
142.7280, 15506.00
143.9560, 14207.00
145.1840, 13340.00
146.4120, 12833.00
147.6390, 12317.00
148.8670, 11970.00
150.0940, 11867.00
151.3210, 11633.45
152.5490, 11543.35
153.7750, 11463.00
155.0020, 11408.00
156.2290, 11270.00
157.4550, 11143.00
158.6810, 10899.00
159.9080, 10764.00
161.1340, 10799.00
162.3590, 10858.00
163.5850, 10888.00
164.8110, 10893.83
166.0360, 11047.00
167.2610, 10899.00
168.4860, 10834.00
169.7110, 10858.00
170.9360, 10948.00
172.1610, 10824.00
173.3850, 10768.30
174.6100, 10698.00
175.8340, 10582.00
177.0580, 10660.00
178.2820, 10748.00
179.5050, 10858.00
180.7290, 10687.00
181.9520, 10695.00
183.1760, 10641.00
184.3990, 10835.00
185.6220, 10868.00
186.8450, 11031.00
188.0670, 11015.00
189.2900, 10933.00
190.5120, 11141.00
191.7340, 11140.66
192.9560, 11269.60
194.1780, 11342.00
195.4000, 11513.00
196.6220, 11643.00
197.8430, 11692.00
199.0640, 11503.00
200.2860, 11776.00
201.5070, 11942.00
202.7270, 11964.00
203.9480, 11334.00
205.1690, 10655.00
206.3890, 10277.00
207.6090, 10243.00
208.8290, 10054.00
210.0490, 10018.00
211.2690, 10135.00
212.4890, 10196.00
213.7080, 10308.00
214.9280, 10136.00
216.1470, 9992.000
217.3660, 10062.00
218.5850, 9903.000
219.8030, 9960.000
221.0220, 9953.000
222.2400, 9959.000
223.4590, 10007.00
224.6770, 9913.000
225.8950, 9962.000
227.1120, 9896.000
228.3300, 9823.000
229.5480, 9946.000
230.7650, 10001.00
231.9820, 9935.000
233.1990, 9954.000
234.4160, 9901.000
235.6330, 9989.000
236.8490, 9944.000
238.0660, 9933.000
239.2820, 9987.000
240.4980, 9860.000
241.7140, 9972.000
242.9300, 9975.000
244.1460, 9957.000
245.3610, 10056.00
246.5770, 10115.00
247.7920, 10069.00
249.0070, 10248.00
250.2220, 10276.00
251.4370, 10492.00
252.6510, 10483.00
253.8660, 10524.00
255.0800, 10859.00
256.2940, 10923.00
257.5080, 11466.00
258.7220, 11587.50
259.9360, 11618.04
261.1490, 11918.00
262.3630, 11563.00
263.5760, 11464.00
264.7890, 11444.00
266.0020, 11521.00
267.2150, 11344.00
268.4270, 11215.00
269.6400, 11070.00
270.8520, 10969.00
272.0640, 10986.00
273.2760, 10912.00
274.4880, 10872.40
275.7000, 10875.00
276.9120, 10738.00
278.1230, 10649.00
279.3340, 10466.00
280.5450, 10520.00
281.7560, 10381.00
282.9670, 10367.00
284.1780, 10458.00
285.3880, 10479.00
286.5980, 10319.00
287.8090, 10329.00
289.0190, 10312.00
290.2290, 10338.00
291.4380, 10318.73
292.6480, 10337.00
293.8570, 10327.00
295.0670, 10279.00
296.2760, 10300.02
297.4850, 10362.25
298.6930, 10396.06
299.9020, 10402.97
301.1110, 10302.43
302.3190, 10340.64
303.5270, 10323.25
304.7350, 10303.58
305.9430, 10361.32
307.1510, 10276.41
308.3580, 10332.92
309.5660, 10332.98
310.7730, 10358.88
311.9800, 10328.83
313.1870, 10288.00
314.3940, 10331.00
315.6010, 10457.00
316.8070, 10397.00
318.0130, 10451.00
319.2200, 10330.00
320.4260, 10312.00
321.6310, 10461.00
322.8370, 10409.00
324.0430, 10400.00
325.2480, 10385.00
326.4540, 10434.00
327.6590, 10500.00
328.8640, 10523.00
330.0680, 10529.35
331.2730, 10522.00
332.4780, 10511.00
333.6820, 10498.58
334.8860, 10483.55
336.0900, 10472.00
337.2940, 10452.00
338.4980, 10463.00
339.7010, 10404.12
340.9050, 10480.39
342.1080, 10528.23
343.3110, 10549.17
344.5140, 10462.66
345.7170, 10514.90
346.9200, 10511.54
348.1220, 10505.88
349.3240, 10577.64
350.5270, 10506.76
351.7290, 10577.29
352.9310, 10591.37
354.1320, 10631.28
355.3340, 10615.25
356.5350, 10616.49
357.7370, 10673.70
358.9380, 10699.92
360.1390, 10677.44
361.3400, 10718.99
362.5400, 10646.12
363.7410, 10673.66
364.9410, 10744.50
366.1410, 10664.00
367.3410, 10681.00
368.5410, 10579.00
369.7410, 10694.00
370.9400, 10839.00
372.1400, 10767.00
373.3390, 10632.00
374.5380, 10693.00
375.7370, 10908.00
376.9360, 10678.00
378.1350, 10810.00
379.3330, 10745.00
380.5310, 10789.00
381.7300, 10932.00
382.9280, 10914.00
384.1260, 10823.00
385.3230, 10880.00
386.5210, 10946.00
387.7180, 10877.00
388.9160, 11023.00
390.1130, 10984.00
391.3100, 10839.00
392.5060, 11002.00
393.7030, 10869.00
394.9000, 10832.00
396.0960, 10963.00
397.2920, 10901.00
398.4880, 10896.00
399.6840, 10934.00
400.8800, 10864.00
402.0750, 11017.00
403.2710, 10974.00
404.4660, 10949.00
405.6610, 11068.00
406.8560, 10938.00
408.0510, 10897.00
409.2450, 10873.00
410.4400, 10883.14
411.6340, 10890.49
412.8280, 10895.61
414.0220, 10904.96
415.2160, 10915.00
416.4100, 10922.00
417.6030, 10909.00
418.7970, 10918.62
419.9900, 10965.00
421.1830, 10960.00
422.3760, 11029.00
423.5690, 11082.00
424.7610, 11035.00
425.9540, 10977.00
427.1460, 10997.00
428.3380, 10935.00
429.5300, 11093.00
430.7220, 11087.00
431.9140, 11145.00
433.1050, 11191.70
434.2970, 11228.04
435.4880, 11256.00
436.6790, 11291.00
437.8700, 11366.00
439.0610, 11433.91
440.2510, 11485.00
441.4420, 11643.00
442.6320, 11695.00
443.8220, 11862.00
445.0120, 11975.00
446.2020, 12238.00
447.3910, 12452.00
448.5810, 12773.00
449.7700, 13080.76
450.9600, 13287.00
452.1490, 13841.00
453.3370, 14284.00
454.5260, 14832.00
455.7150, 15507.00
456.9030, 15994.00
458.0910, 16787.00
459.2800, 17532.00
460.4670, 18322.00
461.6550, 19817.00
462.8430, 20978.00
464.0300, 23266.00
465.2180, 26012.00
466.4050, 30162.00
467.5920, 35377.00
468.7790, 42651.00
469.9650, 51489.00
471.1520, 59962.00
472.3380, 64691.00
473.5250, 62982.00
474.7110, 56212.00
475.8970, 47238.00
477.0820, 38794.00
478.2680, 32360.00
479.4540, 27233.00
480.6390, 23870.00
481.8240, 20937.00
483.0090, 19292.00
484.1940, 17774.00
485.3780, 16738.00
486.5630, 15789.00
487.7470, 15071.00
488.9320, 14657.00
490.1160, 14368.00
491.3000, 13868.00
492.4830, 13696.00
493.6670, 13345.00
494.8500, 13154.00
496.0340, 13064.00
497.2170, 12857.00
498.4000, 12619.00
499.5820, 12694.00
500.7650, 12704.00
501.9480, 12408.00
503.1300, 12306.00
504.3120, 12272.00
505.4940, 12296.00
506.6760, 12192.00
507.8580, 12252.00
509.0390, 12211.00
510.2210, 12327.00
511.4020, 12220.00
512.5830, 12311.00
513.7640, 12064.00
514.9450, 12109.00
516.1250, 12201.00
517.3060, 12294.00
518.4860, 12285.00
519.6660, 12095.00
520.8460, 12208.00
522.0260, 12113.00
523.2060, 12170.00
524.3850, 12076.00
525.5650, 12070.00
526.7440, 11955.00
527.9230, 11953.00
529.1020, 12069.00
530.2810, 12083.00
531.4590, 12001.00
532.6380, 11943.00
533.8160, 12027.00
534.9940, 11901.00
536.1720, 11952.93
537.3500, 11979.02
538.5270, 11988.00
539.7050, 12057.00
540.8820, 12079.00
542.0590, 12107.00
543.2360, 12078.00
544.4130, 12076.95
545.5900, 12085.00
546.7660, 12025.00
547.9430, 12024.00
549.1190, 11990.70
550.2950, 11948.32
551.4710, 11950.39
552.6470, 11915.83
553.8220, 11932.00
554.9980, 11879.00
556.1730, 11859.00
557.3480, 11848.00
558.5230, 11837.00
559.6980, 11794.00
560.8730, 11809.00
562.0470, 11789.98
563.2220, 11763.00
564.3960, 11797.00
565.5700, 11789.00
566.7440, 11829.47
567.9170, 11803.00
569.0910, 11812.00
570.2640, 11670.00
571.4380, 11578.00
572.6110, 11654.00
573.7840, 11724.00
574.9570, 11580.00
576.1290, 11553.00
577.3020, 11531.00
578.4740, 11584.00
579.6460, 11577.00
580.8180, 11536.00
581.9900, 11512.00
583.1620, 11493.16
584.3330, 11457.00
585.5040, 11477.00
586.6760, 11449.00
587.8470, 11496.00
589.0180, 11544.00
590.1880, 11278.00
591.3590, 11292.00
592.5290, 11339.00
593.7000, 11423.00
594.8700, 11457.00
596.0400, 11411.00
597.2090, 11390.00
598.3790, 11365.00
599.5490, 11267.00
600.7180, 11391.00
601.8870, 11382.00
603.0560, 11327.00
604.2250, 11404.00
605.3940, 11457.00
606.5620, 11339.00
607.7300, 11281.00
608.8990, 11242.00
610.0670, 11360.00
611.2350, 11331.00
612.4020, 11334.00
613.5700, 11320.00
614.7370, 11264.00
615.9050, 11315.00
617.0720, 11314.00
618.2390, 11418.00
619.4060, 11311.00
620.5720, 11301.00
621.7390, 11395.00
622.9050, 11377.00
624.0710, 11265.00
625.2370, 11292.00
626.4030, 11254.00
627.5690, 11317.00
628.7340, 11243.00
629.9000, 11342.00
631.0650, 11182.00
632.2300, 11225.00
633.3950, 11383.00
634.5600, 11242.00
635.7240, 11537.00
636.8890, 11250.00
638.0530, 11390.00
639.2170, 11232.00
640.3810, 11357.00
641.5450, 11430.00
642.7080, 11339.00
643.8720, 11295.00
645.0350, 11382.00
646.1980, 11300.00
647.3610, 11307.00
648.5240, 11241.00
649.6870, 11343.00
650.8490, 11383.00
652.0120, 11405.00
653.1740, 11384.00
654.3360, 11401.43
655.4980, 11310.00
656.6600, 11399.00
657.8210, 11298.17
658.9830, 11305.31
660.1440, 11269.00
661.3050, 11205.00
662.4660, 11350.00
663.6270, 11322.00
664.7870, 11270.00
665.9480, 11352.79
667.1080, 11292.82
668.2680, 11379.00
669.4280, 11307.00
670.5880, 11238.00
671.7480, 11353.00
672.9070, 11297.00
674.0670, 11238.00
675.2260, 11463.00
676.3850, 11328.00
677.5440, 11293.00
678.7030, 11185.00
679.8610, 11372.00
681.0200, 11254.00
682.1780, 11253.00
683.3360, 11273.00
684.4940, 11165.00
685.6520, 11243.00
686.8090, 11295.00
687.9670, 11219.00
689.1240, 11286.00
690.2810, 11174.00
691.4380, 11397.00
692.5950, 11380.00
693.7520, 11224.00
694.9080, 11330.00
696.0650, 11238.00
697.2210, 11364.00
698.3770, 11345.00
699.5330, 11352.00
700.6880, 11400.00
701.8440, 11236.00
702.9990, 11340.00
704.1550, 11380.00
705.3100, 11176.00
706.4650, 11317.00
707.6190, 11364.00
708.7740, 11303.00
709.9290, 11427.00
711.0830, 11390.00
712.2370, 11455.00
713.3910, 11391.00
714.5450, 11370.00
715.6980, 11393.00
716.8520, 11340.00
718.0050, 11337.00
719.1580, 11434.00
720.3110, 11432.00
721.4640, 11419.00
722.6170, 11505.00
723.7700, 11594.00
724.9220, 11485.00
726.0740, 11456.00
727.2260, 11496.00
728.3780, 11522.00
729.5300, 11532.00
730.6810, 11416.00
731.8330, 11463.00
732.9840, 11433.36
734.1350, 11453.00
735.2860, 11461.00
736.4370, 11465.00
737.5880, 11540.00
738.7380, 11527.00
739.8880, 11626.00
741.0390, 11633.00
742.1890, 11481.00
743.3380, 11703.00
744.4880, 11640.00
745.6380, 11644.70
746.7870, 11894.00
747.9360, 11705.00
749.0850, 11563.00
750.2340, 11726.00
751.3830, 11444.00
752.5310, 11740.00
753.6800, 11604.00
754.8280, 11755.00
755.9760, 11630.00
757.1240, 11520.00
758.2720, 11679.00
759.4190, 11567.00
760.5670, 11575.00
761.7140, 11678.00
762.8610, 11482.00
764.0080, 11616.54
765.1550, 11878.00
766.3020, 11698.00
767.4480, 11602.00
768.5950, 11549.00
769.7410, 11724.00
770.8870, 11594.00
772.0330, 11681.00
773.1780, 11620.00
774.3240, 11508.00
775.4690, 11540.00
776.6140, 11506.61
777.7590, 11461.00
778.9040, 11523.00
780.0490, 11592.00
781.1940, 11585.00
782.3380, 11407.00
783.4820, 11677.00
784.6260, 11526.00
785.7700, 11675.00
786.9140, 11583.00
788.0580, 11640.00
789.2010, 11670.00
790.3450, 11632.00
791.4880, 11559.00
792.6310, 11697.00
793.7730, 11510.00
794.9160, 11616.00
796.0590, 11622.00
797.2010, 11612.00
798.3430, 11648.00
799.4850, 11656.00
800.6270, 11552.00
801.7690, 11714.00
802.9100, 11619.00
804.0520, 11663.55
805.1930, 11975.00
806.3340, 11648.00
807.4750, 11762.00
808.6160, 11629.00
809.7560, 11801.00
810.8970, 11689.00
812.0370, 11618.00
813.1770, 11559.00
814.3170, 11726.00
815.4570, 11682.00
816.5960, 11699.00
817.7360, 11683.00
818.8750, 11642.00
820.0140, 11641.00
821.1530, 11708.00
822.2920, 11749.00
823.4310, 11704.00
824.5690, 11823.00
825.7070, 11727.00
826.8460, 11799.00
827.9840, 11887.00
829.1220, 11742.00
830.2590, 11773.00
831.3970, 11667.00
832.5340, 11718.00
833.6710, 11811.00
834.8080, 11726.00
835.9450, 11725.00
837.0820, 11751.00
838.2190, 11811.00
839.3550, 11760.00
840.4910, 11810.00
841.6270, 11778.00
842.7630, 11771.00
843.8990, 11877.00
845.0350, 11860.00
846.1700, 11798.00
847.3060, 11772.00
848.4410, 11873.00
849.5760, 11872.00
850.7100, 11876.00
851.8450, 11751.00
852.9800, 11863.00
854.1140, 11803.00
855.2480, 11898.00
856.3820, 11889.00
857.5160, 11891.00
858.6500, 11950.00
859.7830, 11865.00
860.9170, 11953.00
862.0500, 11821.00
863.1830, 11906.00
864.3160, 11862.00
865.4480, 11954.00
866.5810, 11905.00
867.7130, 11821.00
868.8460, 11893.00
869.9780, 11910.00
871.1100, 11942.00
872.2410, 12043.00
873.3730, 11908.00
874.5050, 11979.00
875.6360, 12033.00
876.7670, 11788.00
877.8980, 12030.00
879.0290, 12023.00
880.1590, 11916.00
881.2900, 11900.00
882.4200, 12004.00
883.5500, 11964.00
884.6800, 11982.00
885.8100, 12048.00
886.9400, 12029.00
888.0690, 12007.00
889.1990, 11988.00
890.3280, 12069.00
891.4570, 12093.00
892.5860, 12201.00
893.7140, 12096.00
894.8430, 12153.00
895.9710, 12180.73
897.1000, 12175.86
898.2280, 12305.00
899.3560, 12198.00
900.4830, 12371.00
901.6110, 12311.00
902.7380, 12386.00
903.8660, 12359.00
904.9930, 12492.00
906.1200, 12560.00
907.2460, 12562.00
908.3730, 12573.00
909.5000, 12724.00
910.6260, 12761.00
911.7520, 12902.00
912.8780, 12873.00
914.0040, 13022.00
915.1290, 12958.00
916.2550, 13052.00
917.3800, 13069.00
918.5050, 13237.00
919.6300, 13143.00
920.7550, 13230.00
921.8800, 13225.00
923.0040, 13428.00
924.1290, 13503.00
925.2530, 13509.00
926.3770, 13558.21
927.5010, 13426.00
928.6250, 13444.00
929.7480, 13308.00
930.8720, 13092.00
931.9950, 13154.00
933.1180, 12977.00
934.2410, 12907.00
935.3640, 12747.00
936.4860, 12745.00
937.6090, 12671.81
938.7310, 12705.00
939.8530, 12625.00
940.9750, 12582.00
942.0970, 12602.00
943.2180, 12564.00
944.3400, 12594.00
945.4610, 12576.96
946.5820, 12568.34
947.7030, 12562.00
948.8240, 12528.00
949.9450, 12523.00
951.0650, 12452.00
952.1860, 12325.00
953.3060, 12467.00
954.4260, 12309.00
955.5460, 12428.00
956.6650, 12393.00
957.7850, 12422.00
958.9040, 12365.00
960.0230, 12533.00
961.1420, 12326.00
962.2610, 12306.00
963.3800, 12498.00
964.4990, 12335.00
965.6170, 12330.00
966.7350, 12547.00
967.8530, 12441.00
968.9710, 12527.00
970.0890, 12389.00
971.2070, 12346.00
972.3240, 12455.00
973.4410, 12379.36
974.5580, 12457.42
975.6750, 12507.05
976.7920, 12529.79
977.9090, 12445.08
979.0250, 12499.11
980.1410, 12497.54
981.2580, 12493.69
982.3740, 12567.25
983.4890, 12498.14
984.6050, 12570.47
985.7200, 12586.34
986.8360, 12637.00
987.9510, 12642.00
989.0660, 12626.00
990.1810, 12680.00
991.2950, 12535.00
992.4100, 12681.00
993.5240, 12585.00
994.6390, 12687.00
995.7530, 12601.00
996.8660, 12523.00
997.9800, 12660.00
999.0940, 12745.00
1000.207, 12641.00
1001.320, 12654.00
1002.433, 12657.00
1003.546, 12581.00
1004.659, 12624.36
1005.772, 12608.28
1006.884, 12646.00
1007.996, 12614.00
1009.108, 12599.00
1010.220, 12572.00
1011.332, 12543.00
1012.444, 12536.00
1013.555, 12558.74
1014.666, 12763.00
1015.777, 12662.00
1016.888, 12672.00
1017.999, 12785.00
1019.110, 12685.00
1020.220, 12652.00
1021.331, 12745.00
1022.441, 12711.00
1023.551, 12696.00
1024.661, 12798.00
1025.770, 12645.00
1026.880, 12730.00
1027.989, 12687.61
1029.098, 12710.00
1030.207, 12620.00
1031.316, 12656.00
1032.425, 12591.00
1033.533, 12678.00
1034.642, 12679.59
1035.750, 12792.00
1036.858, 12740.00
1037.966, 12785.00
1039.073, 12806.00
1040.181, 12817.00
1041.288, 12695.00
1042.396, 12808.00
1043.503, 12750.00
1044.610, 12757.00
1045.716, 12798.00
1046.823, 12744.00
1047.929, 12905.00
1049.036, 12688.00
1050.142, 12737.00
1051.248, 12721.00
1052.353, 12852.00
1053.459, 12804.00
1054.564, 12775.00
1055.670, 12756.00
1056.775, 12906.00
1057.880, 12666.00
1058.985, 13008.00
1060.089, 12865.00
1061.194, 12996.00
1062.298, 12967.00
1063.402, 12801.00
1064.506, 12856.00
1065.610, 12906.00
1066.713, 12879.00
1067.817, 12823.00
1068.920, 12955.00
1070.023, 12849.95
1071.126, 12945.00
1072.229, 12760.00
1073.332, 12859.00
1074.435, 12854.00
1075.537, 12944.00
1076.639, 12920.00
1077.741, 12830.00
1078.843, 12964.00
1079.945, 12962.00
1081.046, 12879.00
1082.148, 12891.00
1083.249, 12870.00
1084.350, 12853.00
1085.451, 12808.00
1086.551, 12848.00
1087.652, 12800.00
1088.752, 12908.00
1089.853, 12865.00
1090.953, 12849.00
1092.053, 12740.00
1093.152, 12908.00
1094.252, 12964.00
1095.351, 13109.00
1096.451, 12802.00
1097.550, 12854.00
1098.649, 12868.00
1099.748, 12899.00
1100.846, 12932.00
1101.945, 12839.00
1103.043, 12922.00
1104.141, 12888.00
1105.239, 12984.00
1106.337, 13008.00
1107.434, 12780.00
1108.532, 12928.00
1109.629, 12972.00
1110.726, 12859.00
1111.823, 12977.00
1112.920, 12783.00
1114.017, 12922.00
1115.113, 12827.00
1116.210, 12973.00
1117.306, 12962.00
1118.402, 12936.00
1119.498, 12919.00
1120.593, 13007.00
1121.689, 12951.00
1122.784, 12867.00
1123.879, 12971.00
1124.974, 12928.00
1126.069, 12885.00
1127.164, 12970.00
1128.259, 12911.00
1129.353, 12901.00
1130.447, 12862.00
1131.541, 12737.00
1132.635, 12786.00
1133.729, 13070.00
1134.822, 13009.89
1135.916, 13031.43
1137.009, 13086.00
1138.102, 12935.00
1139.195, 12813.00
1140.288, 12813.00
1141.380, 12878.00
1142.473, 12807.00
1143.565, 12849.00
1144.657, 12822.00
1145.749, 12786.00
1146.841, 12782.00
1147.932, 12759.00
1149.024, 12767.00
1150.115, 12883.00
1151.206, 12919.00
1152.297, 12816.00
1153.388, 12747.00
1154.479, 12896.00
1155.569, 12837.00
1156.659, 12838.00
1157.750, 12832.00
1158.839, 12632.00
1159.929, 12634.00
1161.019, 12684.00
1162.108, 12816.00
1163.198, 12824.00
1164.287, 12857.00
1165.376, 12888.54
1166.465, 12864.35
1167.553, 12898.00
1168.642, 12788.00
1169.730, 12793.00
1170.818, 12695.00
1171.906, 12970.00
1172.994, 12880.00
1174.082, 12804.00
1175.170, 12852.00
1176.257, 12715.00
1177.344, 12846.00
1178.431, 12852.00
1179.518, 12812.00
1180.605, 12728.00
1181.691, 12803.00
1182.778, 12798.00
1183.864, 12796.00
1184.950, 12693.00
1186.036, 12701.00
1187.122, 12751.00
1188.207, 12771.00
1189.292, 12857.00
1190.378, 12821.00
1191.463, 12874.00
1192.548, 12751.00
1193.632, 12943.00
1194.717, 12881.00
1195.801, 12778.00
1196.886, 12948.00
1197.970, 12729.00
1199.054, 12700.00
1200.137, 12685.00
1201.221, 12873.00
1202.305, 12721.00
1203.388, 12955.00
1204.471, 12727.00
1205.554, 12867.00
1206.637, 12948.00
1207.719, 12727.00
1208.802, 13023.00
1209.884, 12879.00
1210.966, 12774.00
1212.048, 13040.00
1213.130, 12888.00
1214.212, 12854.00
1215.293, 12743.00
1216.374, 12890.00
1217.456, 12942.00
1218.536, 13101.00
1219.617, 12769.00
1220.698, 12816.00
1221.778, 12942.00
1222.859, 12947.00
1223.939, 12962.00
1225.019, 12989.00
1226.099, 12981.09
1227.178, 12990.00
1228.258, 12952.00
1229.337, 12959.00
1230.417, 12896.00
1231.496, 13010.00
1232.574, 12868.00
1233.653, 12893.00
1234.732, 12982.00
1235.810, 13003.00
1236.888, 12965.00
1237.966, 12848.00
1239.044, 12998.00
1240.122, 13009.00
1241.199, 12798.00
1242.277, 12951.00
1243.354, 12796.00
1244.431, 12972.00
1245.508, 12857.00
1246.585, 12945.00
1247.661, 13023.00
1248.738, 12962.00
1249.814, 13050.00
1250.890, 13094.00
1251.966, 12975.00
1253.042, 13162.00
1254.117, 13110.00
1255.193, 12949.00
1256.268, 12986.00
1257.343, 13036.00
1258.418, 12931.00
1259.493, 13083.00
1260.567, 13007.00
1261.642, 13101.00
1262.716, 13146.69
1263.790, 13041.00
1264.864, 13193.00
1265.938, 13126.00
1267.011, 13033.00
1268.085, 12992.00
1269.158, 12978.66
1270.231, 12964.53
1271.304, 13006.00
1272.377, 13027.00
1273.450, 13069.00
1274.522, 13164.00
1275.594, 13087.00
1276.666, 12963.00
1277.738, 13129.00
1278.810, 13105.00
1279.882, 13308.00
1280.953, 13029.00
1282.025, 13232.00
1283.096, 13109.00
1284.167, 13218.00
1285.238, 13104.00
1286.308, 12997.00
1287.379, 13066.00
1288.449, 13028.00
1289.519, 13065.00
1290.589, 13111.00
1291.659, 13194.00
1292.729, 13142.00
1293.798, 13189.00
1294.868, 13123.00
1295.937, 13258.00
1297.006, 13052.00
1298.075, 13161.00
1299.143, 13119.00
1300.212, 13087.00
1301.280, 13291.00
1302.348, 13123.00
1303.416, 13099.00
1304.484, 13260.00
1305.552, 13162.00
1306.620, 13252.00
1307.687, 13274.00
1308.754, 13160.00
1309.821, 13232.00
1310.888, 13318.00
1311.955, 13222.00
1313.021, 13267.00
1314.088, 13332.00
1315.154, 13296.00
1316.220, 13276.64
1317.286, 13286.79
1318.352, 13186.00
1319.417, 13235.00
1320.483, 13265.00
1321.548, 13181.00
1322.613, 13417.00
1323.678, 13298.00
1324.743, 13316.00
1325.807, 13334.00
1326.872, 13199.00
1327.936, 13201.00
1329.000, 13293.00
1330.064, 13283.00
1331.128, 13500.00
1332.191, 13409.00
1333.255, 13370.92
1334.318, 13283.00
1335.381, 13194.00
1336.444, 13286.00
1337.507, 13301.00
1338.569, 13264.00
1339.632, 13426.00
1340.694, 13424.00
1341.756, 13343.00
1342.818, 13366.00
1343.880, 13368.00
1344.941, 13331.86
1346.003, 13310.00
1347.064, 13335.00
1348.125, 13319.00
1349.186, 13316.19
1350.247, 13325.86
1351.308, 13311.00
1352.368, 13347.00
1353.428, 13362.00
1354.489, 13401.00
1355.549, 13454.00
1356.608, 13376.00
1357.668, 13365.00
1358.727, 13236.00
1359.787, 13355.00
1360.846, 13403.00
1361.905, 13452.00
1362.964, 13351.00
1364.022, 13450.00
1365.081, 13395.00
1366.139, 13530.00
1367.197, 13420.00
1368.255, 13468.00
1369.313, 13468.00
1370.371, 13368.00
1371.428, 13385.00
1372.486, 13513.00
1373.543, 13370.00
1374.600, 13507.00
1375.657, 13392.00
1376.713, 13562.00
1377.770, 13451.00
1378.826, 13403.00
1379.882, 13527.00
1380.938, 13419.00
1381.994, 13463.00
1383.050, 13496.00
1384.106, 13453.00
1385.161, 13431.00
1386.216, 13549.00
1387.271, 13365.00
1388.326, 13549.00
1389.381, 13496.00
1390.435, 13512.00
1391.490, 13317.00
1392.544, 13335.00
1393.598, 13370.00
1394.652, 13350.00
1395.705, 13483.00
1396.759, 13439.43
1397.812, 13565.00
1398.866, 13405.00
1399.919, 13392.00
1400.972, 13336.07
1402.024, 13379.20
1403.077, 13480.00
1404.129, 13457.00
1405.181, 13451.00
1406.233, 13501.54
1407.285, 13421.00
1408.337, 13519.00
1409.389, 13407.00
1410.440, 13335.00
1411.491, 13431.00
1412.542, 13366.00
1413.593, 13516.00
1414.644, 13451.00
1415.695, 13428.00
1416.745, 13487.00
1417.795, 13439.00
1418.845, 13379.00
1419.895, 13459.00
1420.945, 13403.00
1421.995, 13553.00
1423.044, 13476.00
1424.093, 13563.00
1425.142, 13394.00
1426.191, 13541.00
1427.240, 13352.00
1428.289, 13446.00
1429.337, 13560.00
1430.385, 13459.00
1431.433, 13306.00
1432.481, 13393.00
1433.529, 13401.00
1434.577, 13531.00
1435.624, 13457.00
1436.672, 13456.00
1437.719, 13552.00
1438.766, 13660.00
1439.812, 13627.00
1440.859, 13531.00
1441.905, 13503.00
1442.952, 13418.00
1443.998, 13510.00
1445.044, 13407.44
1446.090, 13465.98
1447.135, 13364.00
1448.181, 13509.00
1449.226, 13661.00
1450.271, 13607.00
1451.316, 13480.00
1452.361, 13545.00
1453.405, 13558.00
1454.450, 13469.00
1455.494, 13469.00
1456.538, 13419.00
1457.582, 13463.00
1458.626, 13580.00
1459.670, 13502.00
1460.713, 13574.15
1461.757, 13522.00
1462.800, 13609.00
1463.843, 13531.00
1464.886, 13535.00
1465.928, 13575.00
1466.971, 13532.63
1468.013, 13605.00
1469.055, 13549.00
1470.097, 13569.00
1471.139, 13647.00
1472.181, 13469.00
1473.222, 13571.00
1474.263, 13573.00
1475.305, 13596.00
1476.346, 13522.00
1477.386, 13558.85
1478.427, 13501.00
1479.468, 13584.00
1480.508, 13525.00
1481.548, 13544.00
1482.588, 13516.82
1483.628, 13557.56
1484.668, 13444.00
1485.707, 13570.00
1486.747, 13570.00
1487.786, 13374.00
1488.825, 13543.00
1489.864, 13635.00
1490.902, 13707.00
1491.941, 13568.00
1492.979, 13589.00
1494.017, 13629.00
1495.055, 13513.00
1496.093, 13637.00
1497.131, 13551.00
1498.168, 13633.00
1499.206, 13678.00
1500.243, 13630.00
1501.280, 13617.00
1502.317, 13513.00
1503.354, 13583.00
1504.390, 13677.00
1505.426, 13584.00
1506.463, 13494.00
1507.499, 13670.00
1508.535, 13660.00
1509.570, 13587.00
1510.606, 13501.00
1511.641, 13569.00
1512.676, 13643.00
1513.711, 13832.00
1514.746, 13773.00
1515.781, 13863.00
1516.816, 13759.84
1517.850, 13745.80
1518.884, 13536.00
1519.918, 13656.00
1520.952, 13670.00
1521.986, 13648.00
1523.019, 13714.01
1524.053, 13804.00
1525.086, 13774.00
1526.119, 13669.00
1527.152, 13714.00
1528.185, 13648.00
1529.217, 13688.00
1530.250, 13807.00
1531.282, 13760.00
1532.314, 13724.00
1533.346, 13858.00
1534.377, 13796.00
1535.409, 13689.00
1536.440, 13724.00
1537.472, 13684.00
1538.503, 13829.00
1539.534, 13626.00
1540.564, 13717.00
1541.595, 13965.00
1542.625, 13961.00
1543.656, 13780.00
1544.686, 13708.00
1545.716, 13768.00
1546.745, 13859.00
1547.775, 13864.00
1548.804, 13921.93
1549.834, 13801.00
1550.863, 13950.00
1551.892, 14054.00
1552.920, 13996.00
1553.949, 14235.00
1554.977, 14220.00
1556.006, 14146.00
1557.034, 13858.00
1558.062, 13969.00
1559.089, 13815.00
1560.117, 13728.00
1561.144, 13920.00
1562.172, 13974.00
1563.199, 14003.00
1564.226, 13924.00
1565.252, 13952.00
1566.279, 13837.00
1567.305, 13957.00
1568.332, 13875.00
1569.358, 13777.00
1570.384, 13815.00
1571.409, 13901.00
##END=



