##NAMES=Covellite
##RRUFFID=R060143
##IDEAL CHEMISTRY=Cu^1+^S
##LOCALITY=Butte, Montana, USA
##OWNER=RRUFF
##SOURCE=Marcus Origlieri
##DESCRIPTION=Irridescent blue to purple hexagonal plates
##STATUS=The identification of this mineral has been confirmed by X-ray diffraction and chemical analysis
##URL=rruff.info/R060143
##MEASURED CHEMISTRY=Cu_1.00_S_1.00_
##PIN_ID=L00879
##ORIENTATION=Laser parallel to c* (0 0 1). Fiducial mark perpendicular to laser is parallel to b [0 1 0]
164.8110, 13089.00
166.0360, 12937.00
167.2610, 12708.00
168.4860, 12728.00
169.7110, 12797.00
170.9360, 12903.00
172.1610, 12656.00
173.3850, 12447.00
174.6100, 12585.00
175.8340, 13571.00
177.0580, 12946.00
178.2820, 14418.00
179.5050, 13537.90
180.7290, 12381.00
181.9520, 12426.00
183.1760, 12416.00
184.3990, 12419.00
185.6220, 12433.13
186.8450, 12484.94
188.0670, 12537.00
189.2900, 12580.00
190.5120, 12681.70
191.7340, 12825.00
192.9560, 12895.00
194.1780, 12942.00
195.4000, 13052.00
196.6220, 13062.00
197.8430, 13111.00
199.0640, 13078.00
200.2860, 13142.00
201.5070, 13447.00
202.7270, 13185.00
203.9480, 12792.00
205.1690, 12190.00
206.3890, 11943.00
207.6090, 11668.00
208.8290, 11528.00
210.0490, 11739.00
211.2690, 11695.00
212.4890, 11861.00
213.7080, 11900.00
214.9280, 11749.00
216.1470, 11648.00
217.3660, 11570.00
218.5850, 11574.00
219.8030, 11510.46
221.0220, 11554.00
222.2400, 11483.00
223.4590, 11507.00
224.6770, 11540.00
225.8950, 11657.00
227.1120, 11600.00
228.3300, 11758.00
229.5480, 11757.00
230.7650, 11695.00
231.9820, 11723.00
233.1990, 11642.00
234.4160, 11836.00
235.6330, 11744.00
236.8490, 11698.00
238.0660, 11896.00
239.2820, 11944.00
240.4980, 11844.00
241.7140, 11953.00
242.9300, 12043.00
244.1460, 12030.00
245.3610, 12137.00
246.5770, 12168.00
247.7920, 12195.00
249.0070, 12404.00
250.2220, 12520.00
251.4370, 12673.00
252.6510, 12848.00
253.8660, 13129.00
255.0800, 14011.00
256.2940, 13490.00
257.5080, 14676.00
258.7220, 14517.43
259.9360, 14376.27
261.1490, 14621.00
262.3630, 13940.00
263.5760, 13932.00
264.7890, 13817.00
266.0020, 13778.00
267.2150, 13829.00
268.4270, 13594.00
269.6400, 13601.00
270.8520, 13428.00
272.0640, 13181.00
273.2760, 13097.00
274.4880, 13140.00
275.7000, 13235.00
276.9120, 13153.00
278.1230, 13071.00
279.3340, 12981.00
280.5450, 12991.00
281.7560, 12915.00
282.9670, 13055.00
284.1780, 12982.00
285.3880, 13015.00
286.5980, 12967.00
287.8090, 13045.00
289.0190, 13110.23
290.2290, 13321.00
291.4380, 13301.00
292.6480, 13435.00
293.8570, 13517.00
295.0670, 13229.00
296.2760, 13294.00
297.4850, 13342.00
298.6930, 13391.00
299.9020, 13337.00
301.1110, 13422.00
302.3190, 13446.00
303.5270, 13367.00
304.7350, 13496.00
305.9430, 13499.00
307.1510, 13396.00
308.3580, 13374.00
309.5660, 13386.00
310.7730, 13205.00
311.9800, 13255.00
313.1870, 13097.00
314.3940, 13031.00
315.6010, 13167.00
316.8070, 13222.00
318.0130, 13090.00
319.2200, 13129.00
320.4260, 13313.00
321.6310, 13334.00
322.8370, 13524.00
324.0430, 13579.00
325.2480, 13834.00
326.4540, 14042.00
327.6590, 14186.00
328.8640, 14302.00
330.0680, 14408.00
331.2730, 14450.00
332.4780, 14708.00
333.6820, 14705.00
334.8860, 14914.00
336.0900, 15153.00
337.2940, 15291.00
338.4980, 15326.77
339.7010, 15385.00
340.9050, 15244.00
342.1080, 15102.00
343.3110, 14947.00
344.5140, 14538.00
345.7170, 14425.00
346.9200, 14288.00
348.1220, 14131.00
349.3240, 14040.00
350.5270, 13928.00
351.7290, 13957.00
352.9310, 13882.00
354.1320, 13774.00
355.3340, 13590.00
356.5350, 13502.00
357.7370, 13417.00
358.9380, 13494.00
360.1390, 13384.00
361.3400, 13316.00
362.5400, 13099.00
363.7410, 13094.00
364.9410, 13033.00
366.1410, 12963.02
367.3410, 12997.91
368.5410, 12864.00
369.7410, 13044.00
370.9400, 12921.00
372.1400, 12923.00
373.3390, 13027.00
374.5380, 12962.00
375.7370, 12947.00
376.9360, 12902.00
378.1350, 12883.00
379.3330, 12848.48
380.5310, 12752.00
381.7300, 12781.00
382.9280, 12753.00
384.1260, 12719.00
385.3230, 12752.00
386.5210, 12732.53
387.7180, 12728.96
388.9160, 12747.00
390.1130, 12727.00
391.3100, 12741.00
392.5060, 12760.00
393.7030, 12771.00
394.9000, 12825.73
396.0960, 12870.00
397.2920, 12973.00
398.4880, 13022.00
399.6840, 13162.00
400.8800, 13492.00
402.0750, 13618.00
403.2710, 14185.00
404.4660, 14419.00
405.6610, 15283.00
406.8560, 16261.00
408.0510, 17603.00
409.2450, 19171.00
410.4400, 21851.00
411.6340, 24149.00
412.8280, 22910.00
414.0220, 19384.00
415.2160, 16735.00
416.4100, 15335.00
417.6030, 14316.00
418.7970, 13903.00
419.9900, 13695.00
421.1830, 13482.00
422.3760, 13415.00
423.5690, 13261.00
424.7610, 13256.00
425.9540, 13255.00
427.1460, 13361.00
428.3380, 13372.51
429.5300, 13388.70
430.7220, 13482.00
431.9140, 13396.00
433.1050, 13442.00
434.2970, 13441.00
435.4880, 13446.44
436.6790, 13383.00
437.8700, 13471.00
439.0610, 13420.00
440.2510, 13363.00
441.4420, 13408.00
442.6320, 13561.00
443.8220, 13566.00
445.0120, 13667.00
446.2020, 13942.00
447.3910, 14094.00
448.5810, 14323.00
449.7700, 14741.00
450.9600, 14950.00
452.1490, 15242.00
453.3370, 15834.00
454.5260, 16376.00
455.7150, 16866.00
456.9030, 17475.00
458.0910, 18281.00
459.2800, 18930.00
460.4670, 19903.00
461.6550, 20944.00
462.8430, 22858.00
464.0300, 24813.00
465.2180, 27613.00
466.4050, 32039.00
467.5920, 37623.00
468.7790, 46148.00
469.9650, 52715.00
471.1520, 58803.00
472.3380, 60126.00
473.5250, 56291.00
474.7110, 48796.00
475.8970, 40757.00
477.0820, 34280.00
478.2680, 29377.00
479.4540, 25636.00
480.6390, 22792.00
481.8240, 20657.00
483.0090, 19223.00
484.1940, 18056.00
485.3780, 17261.00
486.5630, 16783.00
487.7470, 16273.00
488.9320, 15734.00
490.1160, 15454.00
491.3000, 15184.00
492.4830, 14909.00
493.6670, 14640.00
494.8500, 14498.62
496.0340, 14293.00
497.2170, 14269.00
498.4000, 14060.00
499.5820, 13977.00
500.7650, 13862.00
501.9480, 13728.00
503.1300, 13897.00
504.3120, 13615.00
505.4940, 13741.00
506.6760, 13622.00
507.8580, 13600.00
509.0390, 13612.00
510.2210, 13531.00
511.4020, 13527.00
512.5830, 13682.00
513.7640, 13557.00
514.9450, 13655.00
516.1250, 13656.00
517.3060, 13570.00
518.4860, 13628.00
519.6660, 13566.00
520.8460, 13562.00
522.0260, 13579.00
523.2060, 13496.00
524.3850, 13543.00
525.5650, 13439.00
526.7440, 13439.97
527.9230, 13455.00
529.1020, 13459.00
530.2810, 13480.00
531.4590, 13608.00
532.6380, 13571.00
533.8160, 13489.00
534.9940, 13660.00
536.1720, 13547.00
537.3500, 13612.00
538.5270, 13519.00
539.7050, 13534.00
540.8820, 13566.00
542.0590, 13450.00
543.2360, 13412.00
544.4130, 13673.00
545.5900, 13458.00
546.7660, 13396.00
547.9430, 13594.00
549.1190, 13476.00
550.2950, 13544.00
551.4710, 13865.00
552.6470, 14320.00
553.8220, 13554.00
554.9980, 13723.00
556.1730, 13775.31
557.3480, 13490.61
558.5230, 13991.00
559.6980, 13335.00
560.8730, 13435.00
562.0470, 13354.00
563.2220, 13435.00
564.3960, 13301.00
565.5700, 13268.00
566.7440, 13268.00
567.9170, 13448.00
569.0910, 13332.00
570.2640, 13374.00
571.4380, 13414.00
572.6110, 13231.00
573.7840, 13318.00
574.9570, 13053.00
576.1290, 13222.15
577.3020, 13077.27
578.4740, 13089.96
579.6460, 12986.00
580.8180, 13081.00
581.9900, 13225.00
583.1620, 13120.00
584.3330, 13039.00
585.5040, 12943.00
586.6760, 12947.00
587.8470, 12966.00
589.0180, 13074.00
590.1880, 12952.00
591.3590, 12950.00
592.5290, 13100.00
593.7000, 13154.00
594.8700, 13142.00
596.0400, 13235.00
597.2090, 13231.00
598.3790, 13310.00
599.5490, 13170.00
600.7180, 13125.00
601.8870, 13271.00
603.0560, 13030.00
604.2250, 13034.00
605.3940, 13105.00
606.5620, 13099.00
607.7300, 13009.00
608.8990, 13058.00
610.0670, 12997.00
611.2350, 12847.00
612.4020, 12886.00
613.5700, 12821.00
614.7370, 12889.00
615.9050, 12923.00
617.0720, 12883.00
618.2390, 12883.00
619.4060, 12725.00
620.5720, 12710.00
621.7390, 12776.00
622.9050, 12765.00
624.0710, 12793.00
625.2370, 12735.75
626.4030, 12734.19
627.5690, 12660.00
628.7340, 12713.00
629.9000, 12707.91
631.0650, 12710.09
632.2300, 12740.00
633.3950, 12776.00
634.5600, 12748.00
635.7240, 12847.00
636.8890, 12699.00
638.0530, 12783.00
639.2170, 12725.00
640.3810, 12740.00
641.5450, 12771.00
642.7080, 12752.00
643.8720, 12787.00
645.0350, 12900.00
646.1980, 12705.00
647.3610, 12834.00
648.5240, 12836.00
649.6870, 12784.00
650.8490, 12790.00
652.0120, 12918.00
653.1740, 12848.00
654.3360, 12882.00
655.4980, 12836.00
656.6600, 12901.00
657.8210, 12871.00
658.9830, 13059.00
660.1440, 12892.00
661.3050, 12697.00
662.4660, 12767.00
663.6270, 12867.00
664.7870, 12764.00
665.9480, 12885.00
667.1080, 12714.00
668.2680, 12736.00
669.4280, 12835.00
670.5880, 12752.00
671.7480, 12621.00
672.9070, 12585.00
674.0670, 12569.00
675.2260, 12739.00
676.3850, 12637.00
677.5440, 12814.00
678.7030, 12795.00
679.8610, 12790.00
681.0200, 12701.00
682.1780, 12747.00
683.3360, 12782.00
684.4940, 12668.85
685.6520, 12712.00
686.8090, 12555.00
687.9670, 12548.00
689.1240, 12650.00
690.2810, 12537.00
691.4380, 12713.00
692.5950, 12698.00
693.7520, 12624.00
694.9080, 12669.00
696.0650, 12655.00
697.2210, 12615.00
698.3770, 12639.00
699.5330, 12624.42
700.6880, 12679.00
701.8440, 12638.00
702.9990, 12710.00
704.1550, 12736.00
705.3100, 12597.00
706.4650, 12652.00
707.6190, 12767.00
708.7740, 12611.00
709.9290, 12721.00
711.0830, 12709.00
712.2370, 12673.00
713.3910, 12785.00
714.5450, 12740.00
715.6980, 12846.00
716.8520, 12722.00
718.0050, 12596.00
719.1580, 12686.00
720.3110, 12621.00
721.4640, 12614.00
722.6170, 12914.00
723.7700, 12716.00
724.9220, 12761.00
726.0740, 12754.00
727.2260, 13010.00
728.3780, 12767.00
729.5300, 12913.00
730.6810, 12927.00
731.8330, 12918.00
732.9840, 12855.00
734.1350, 12757.00
735.2860, 12923.00
736.4370, 12903.00
737.5880, 12972.00
738.7380, 12860.00
739.8880, 12762.00
741.0390, 12942.00
742.1890, 12821.00
743.3380, 12980.00
744.4880, 12902.00
745.6380, 12835.00
746.7870, 12893.00
747.9360, 12950.00
749.0850, 12866.00
750.2340, 13013.00
751.3830, 13021.72
752.5310, 12929.00
753.6800, 13106.00
754.8280, 12985.00
755.9760, 12940.00
757.1240, 12882.00
758.2720, 12807.00
759.4190, 12851.54
760.5670, 12925.00
761.7140, 12934.00
762.8610, 12887.00
764.0080, 12896.00
765.1550, 12995.00
766.3020, 12913.00
767.4480, 13016.00
768.5950, 13017.00
769.7410, 12925.00
770.8870, 12944.00
772.0330, 12962.00
773.1780, 12909.00
774.3240, 12843.00
775.4690, 12855.75
776.6140, 13006.00
777.7590, 12862.00
778.9040, 12923.00
780.0490, 12977.00
781.1940, 12941.00
782.3380, 13062.00
783.4820, 13026.00
784.6260, 13091.00
785.7700, 13031.00
786.9140, 12979.00
788.0580, 12980.00
789.2010, 13031.00
790.3450, 12986.00
791.4880, 12915.00
792.6310, 13033.00
793.7730, 13147.00
794.9160, 13073.00
796.0590, 13132.00
797.2010, 13108.00
798.3430, 13058.00
799.4850, 13191.00
800.6270, 13227.00
801.7690, 13332.00
802.9100, 13241.00
804.0520, 13279.00
805.1930, 13278.00
806.3340, 13321.00
807.4750, 13308.00
808.6160, 13346.25
809.7560, 13473.00
810.8970, 13434.00
812.0370, 13401.00
813.1770, 13492.00
814.3170, 13463.00
815.4570, 13408.00
816.5960, 13565.00
817.7360, 13320.00
818.8750, 13565.00
820.0140, 13516.00
821.1530, 13549.00
822.2920, 13524.00
823.4310, 13492.00
824.5690, 13563.00
825.7070, 13573.00
826.8460, 13549.00
827.9840, 13482.00
829.1220, 13406.00
830.2590, 13429.00
831.3970, 13362.00
832.5340, 13456.00
833.6710, 13441.00
834.8080, 13342.00
835.9450, 13330.00
837.0820, 13420.00
838.2190, 13498.00
839.3550, 13393.00
840.4910, 13419.00
841.6270, 13541.00
842.7630, 13497.00
843.8990, 13424.00
845.0350, 13469.00
846.1700, 13571.00
847.3060, 13438.00
848.4410, 13509.00
849.5760, 13465.00
850.7100, 13593.00
851.8450, 13412.00
852.9800, 13326.00
854.1140, 13338.00
855.2480, 13208.00
856.3820, 13275.00
857.5160, 13362.00
858.6500, 13354.00
859.7830, 13331.00
860.9170, 13366.00
862.0500, 13319.00
863.1830, 13327.00
864.3160, 13333.00
865.4480, 13314.00
866.5810, 13352.00
867.7130, 13403.00
868.8460, 13361.00
869.9780, 13402.00
871.1100, 13390.01
872.2410, 13310.00
873.3730, 13380.00
874.5050, 13338.00
875.6360, 13345.00
876.7670, 13327.00
877.8980, 13299.00
879.0290, 13387.00
880.1590, 13317.00
881.2900, 13412.00
882.4200, 13433.00
883.5500, 13478.00
884.6800, 13449.00
885.8100, 13432.00
886.9400, 13479.00
888.0690, 13375.00
889.1990, 13531.00
890.3280, 13329.00
891.4570, 13542.00
892.5860, 13397.00
893.7140, 13605.00
894.8430, 13640.00
895.9710, 13394.00
897.1000, 13663.00
898.2280, 13761.00
899.3560, 13837.00
900.4830, 13652.00
901.6110, 13735.00
902.7380, 13781.00
903.8660, 13946.00
904.9930, 13785.00
906.1200, 13799.00
907.2460, 13721.00
908.3730, 13933.00
909.5000, 14085.00
910.6260, 14118.00
911.7520, 14052.00
912.8780, 14241.00
914.0040, 14321.00
915.1290, 14370.00
916.2550, 14557.00
917.3800, 14560.20
918.5050, 14482.00
919.6300, 14635.00
920.7550, 14659.00
921.8800, 14692.00
923.0040, 14602.00
924.1290, 14714.00
925.2530, 14772.00
926.3770, 14707.00
927.5010, 14485.00
928.6250, 14705.00
929.7480, 14587.00
930.8720, 14495.00
931.9950, 14509.00
933.1180, 14356.00
934.2410, 14282.00
935.3640, 14251.00
936.4860, 14164.00
937.6090, 14170.00
938.7310, 14136.00
939.8530, 14119.00
940.9750, 14256.00
942.0970, 14180.50
943.2180, 13943.00
944.3400, 14087.00
945.4610, 14129.00
946.5820, 13974.00
947.7030, 14114.00
948.8240, 14020.00
949.9450, 14027.00
951.0650, 14003.00
952.1860, 14100.00
953.3060, 14071.00
954.4260, 14000.00
955.5460, 14170.00
956.6650, 13916.00
957.7850, 13959.00
958.9040, 14067.00
960.0230, 14148.00
961.1420, 14120.00
962.2610, 14199.00
963.3800, 14240.00
964.4990, 14103.00
965.6170, 14139.00
966.7350, 14072.00
967.8530, 14128.00
968.9710, 14058.00
970.0890, 14058.00
971.2070, 14115.00
972.3240, 14193.00
973.4410, 14090.00
974.5580, 14100.00
975.6750, 14188.00
976.7920, 13916.00
977.9090, 14185.00
979.0250, 14301.00
980.1410, 14030.00
981.2580, 14204.00
982.3740, 14181.00
983.4890, 14144.00
984.6050, 14254.00
985.7200, 14279.00
986.8360, 14305.00
987.9510, 14196.00
989.0660, 14176.00
990.1810, 14173.00
991.2950, 14145.00
992.4100, 14233.00
993.5240, 14233.00
994.6390, 14225.00
995.7530, 14138.00
996.8660, 14178.54
997.9800, 14138.00
999.0940, 14224.00
1000.207, 14289.00
1001.320, 14350.00
1002.433, 14400.00
1003.546, 14328.88
1004.659, 14284.85
1005.772, 14156.00
1006.884, 14126.00
1007.996, 14074.00
1009.108, 14106.00
1010.220, 14204.00
1011.332, 14161.00
1012.444, 14068.00
1013.555, 14190.00
1014.666, 14068.00
1015.777, 14133.00
1016.888, 14059.00
1017.999, 14191.00
1019.110, 14175.00
1020.220, 14041.00
1021.331, 14082.00
1022.441, 14048.00
1023.551, 14036.00
1024.661, 14167.00
1025.770, 14116.62
1026.880, 14337.00
1027.989, 14131.00
1029.098, 14095.00
1030.207, 14108.00
1031.316, 14262.00
1032.425, 14166.00
1033.533, 14149.00
1034.642, 14101.00
1035.750, 14097.00
1036.858, 14044.00
1037.966, 14324.00
1039.073, 14025.00
1040.181, 14264.00
1041.288, 14070.00
1042.396, 14107.00
1043.503, 14199.00
1044.610, 14217.00
1045.716, 14294.00
1046.823, 14203.00
1047.929, 14110.00
1049.036, 14086.00
1050.142, 14203.00
1051.248, 14268.00
1052.353, 14344.00
1053.459, 14296.00
1054.564, 14360.00
1055.670, 14328.00
1056.775, 14253.00
1057.880, 14321.88
1058.985, 14306.35
1060.089, 14353.00
1061.194, 14355.00
1062.298, 14290.00
1063.402, 14278.00
1064.506, 14185.00
1065.610, 14297.00
1066.713, 14296.00
1067.817, 14393.00
1068.920, 14444.00
1070.023, 14378.00
1071.126, 14346.00
1072.229, 14329.00
1073.332, 14219.00
1074.435, 14352.00
1075.537, 14233.00
1076.639, 14393.00
1077.741, 14282.00
1078.843, 14268.00
1079.945, 14264.00
1081.046, 14220.00
1082.148, 14379.00
1083.249, 14425.00
1084.350, 14377.65
1085.451, 14379.00
1086.551, 14301.00
1087.652, 14201.00
1088.752, 14198.00
1089.853, 14201.00
1090.953, 14162.15
1092.053, 14240.00
1093.152, 14211.00
1094.252, 14240.00
1095.351, 14410.00
1096.451, 14190.00
1097.550, 14377.00
1098.649, 14312.00
1099.748, 14551.00
1100.846, 14565.00
1101.945, 14294.00
1103.043, 14289.00
1104.141, 14294.00
1105.239, 14384.00
1106.337, 14396.95
1107.434, 14372.09
1108.532, 14474.00
1109.629, 14301.00
1110.726, 14277.00
1111.823, 14260.00
1112.920, 14293.00
1114.017, 14279.00
1115.113, 14372.00
1116.210, 14330.00
1117.306, 14489.00
1118.402, 14370.00
1119.498, 14439.00
1120.593, 14432.00
1121.689, 14579.00
1122.784, 14570.00
1123.879, 14572.00
1124.974, 14311.00
1126.069, 14376.00
1127.164, 14221.00
1128.259, 14285.00
1129.353, 14115.00
1130.447, 14180.00
1131.541, 14178.61
1132.635, 14149.46
1133.729, 14247.00
1134.822, 14124.00
1135.916, 14168.00
1137.009, 14049.00
1138.102, 14103.00
1139.195, 14284.00
1140.288, 14051.00
1141.380, 14219.00
1142.473, 14116.00
1143.565, 14158.00
1144.657, 14163.00
1145.749, 14128.00
1146.841, 14078.00
1147.932, 14170.00
1149.024, 14168.00
1150.115, 14093.00
1151.206, 14079.00
1152.297, 14138.00
1153.388, 13946.00
1154.479, 13967.00
1155.569, 14032.00
1156.659, 13951.00
1157.750, 13946.00
1158.839, 13954.00
1159.929, 14048.00
1161.019, 14058.89
1162.108, 14098.74
1163.198, 14141.29
1164.287, 14144.21
1165.376, 14155.00
1166.465, 14141.00
1167.553, 14099.00
1168.642, 13949.00
1169.730, 13983.00
1170.818, 13986.00
1171.906, 14093.00
1172.994, 13931.00
1174.082, 14029.00
1175.170, 14057.00
1176.257, 13993.00
1177.344, 14091.00
1178.431, 14107.00
1179.518, 13978.00
1180.605, 13980.00
1181.691, 14018.00
1182.778, 14026.00
1183.864, 13939.00
1184.950, 14061.00
1186.036, 14041.00
1187.122, 14158.00
1188.207, 13846.00
1189.292, 14032.00
1190.378, 13984.00
1191.463, 14104.00
1192.548, 13973.00
1193.632, 13937.00
1194.717, 13943.00
1195.801, 14038.00
1196.886, 13823.00
1197.970, 13974.00
1199.054, 13989.00
1200.137, 13897.00
1201.221, 14014.00
1202.305, 13986.00
1203.388, 13943.00
1204.471, 13990.00
1205.554, 13982.64
1206.637, 14120.00
1207.719, 14059.00
1208.802, 13923.00
1209.884, 14002.00
1210.966, 13869.00
1212.048, 13878.00
1213.130, 14014.00
1214.212, 14095.00
1215.293, 13984.00
1216.374, 14077.00
1217.456, 13834.00
1218.536, 13965.00
1219.617, 14021.00
1220.698, 13873.00
1221.778, 14003.00
1222.859, 14169.00
1223.939, 14068.00
1225.019, 14020.00
1226.099, 14034.00
1227.178, 13929.00
1228.258, 13986.00
1229.337, 13941.00
1230.417, 14148.00
1231.496, 14209.00
1232.574, 14053.00
1233.653, 13904.00
1234.732, 13965.00
1235.810, 13952.00
1236.888, 14165.00
1237.966, 14154.00
1239.044, 14057.00
1240.122, 13987.00
1241.199, 14091.00
1242.277, 14050.00
1243.354, 13957.00
1244.431, 14037.60
1245.508, 13970.19
1246.585, 14161.00
1247.661, 13926.00
1248.738, 14108.00
1249.814, 14082.00
1250.890, 14086.00
1251.966, 13996.00
1253.042, 13973.00
1254.117, 14071.00
1255.193, 14034.00
1256.268, 14103.00
1257.343, 14065.00
1258.418, 14084.00
1259.493, 14084.97
1260.567, 14053.13
1261.642, 14046.00
1262.716, 14023.00
1263.790, 13956.00
1264.864, 13984.00
1265.938, 13887.00
1267.011, 13904.00
1268.085, 14027.00
1269.158, 14108.00
1270.231, 14013.00
1271.304, 13957.00
1272.377, 13935.00
1273.450, 14025.00
1274.522, 14114.00
1275.594, 14075.00
1276.666, 14010.00
1277.738, 14013.00
1278.810, 13935.00
1279.882, 13966.81
1280.953, 14048.00
1282.025, 14008.00
1283.096, 14117.00
1284.167, 14112.00
1285.238, 14057.00
1286.308, 14194.00
1287.379, 14038.00
1288.449, 14062.00
1289.519, 14162.00
1290.589, 14162.00
1291.659, 14059.00
1292.729, 14174.00
1293.798, 14120.00
1294.868, 14195.00
1295.937, 14121.00
1297.006, 14169.00
1298.075, 14213.00
1299.143, 14087.00
1300.212, 14285.00
1301.280, 14113.00
1302.348, 14247.00
1303.416, 14269.00
1304.484, 14054.00
1305.552, 14273.00
1306.620, 14232.00
1307.687, 14226.00
1308.754, 14078.00
1309.821, 14163.00
1310.888, 14210.00
1311.955, 14139.00
1313.021, 14190.00
1314.088, 14173.00
1315.154, 14143.80
1316.220, 14187.76
1317.286, 14130.00
1318.352, 14193.00
1319.417, 14266.00
1320.483, 14179.00
1321.548, 14263.00
1322.613, 14261.00
1323.678, 14188.00
1324.743, 14017.00
1325.807, 14135.00
1326.872, 14091.96
1327.936, 14218.00
1329.000, 14151.00
1330.064, 14260.00
1331.128, 14218.00
1332.191, 14082.00
1333.255, 14137.00
1334.318, 14188.00
1335.381, 14177.00
1336.444, 14161.00
1337.507, 14209.00
1338.569, 14230.00
1339.632, 14150.00
1340.694, 14184.30
1341.756, 14123.00
1342.818, 14155.00
1343.880, 14167.00
1344.941, 14136.00
1346.003, 14151.00
1347.064, 14129.02
1348.125, 14117.87
1349.186, 14069.00
1350.247, 14132.00
1351.308, 14058.00
1352.368, 14145.00
1353.428, 14178.00
1354.489, 14211.00
1355.549, 14266.13
1356.608, 14226.30
1357.668, 14379.00
1358.727, 14169.00
1359.787, 14275.00
1360.846, 14311.00
1361.905, 14153.00
1362.964, 14133.00
1364.022, 14163.00
1365.081, 14315.00
1366.139, 14251.00
1367.197, 14191.00
1368.255, 14216.00
1369.313, 14072.00
1370.371, 14437.00
1371.428, 14234.00
1372.486, 14446.00
1373.543, 14463.00
1374.600, 14306.00
1375.657, 14381.00
1376.713, 14057.00
1377.770, 14215.00
1378.826, 14309.00
1379.882, 14261.00
1380.938, 14407.00
1381.994, 14208.00
1383.050, 14372.00
1384.106, 14417.00
1385.161, 14319.00
1386.216, 14320.00
1387.271, 14335.00
1388.326, 14282.00
1389.381, 14243.00
1390.435, 14416.00
1391.490, 14358.00
1392.544, 14406.00
1393.598, 14264.00
1394.652, 14364.00
1395.705, 14419.00
1396.759, 14196.00
1397.812, 14291.00
1398.866, 14235.00
1399.919, 14431.00
1400.972, 14323.00
1402.024, 14412.00
1403.077, 14209.00
1404.129, 14479.00
1405.181, 14336.00
1406.233, 14342.00
1407.285, 14316.00
1408.337, 14230.00
1409.389, 14242.00
1410.440, 14258.00
1411.491, 14274.00
1412.542, 14290.00
1413.593, 14319.00
1414.644, 14346.00
1415.695, 14166.00
1416.745, 14221.00
1417.795, 14328.00
1418.845, 14320.00
1419.895, 14449.00
1420.945, 14500.00
1421.995, 14495.58
1423.044, 14443.00
1424.093, 14462.00
1425.142, 14427.00
1426.191, 14355.00
1427.240, 14385.00
1428.289, 14457.00
1429.337, 14342.00
1430.385, 14585.00
1431.433, 14640.00
1432.481, 14401.00
1433.529, 14556.00
1434.577, 14637.00
1435.624, 14840.00
1436.672, 14649.00
1437.719, 14603.00
1438.766, 14741.00
1439.812, 14785.00
1440.859, 14664.00
1441.905, 14625.00
1442.952, 14894.00
1443.998, 14738.00
1445.044, 14885.00
1446.090, 14822.00
1447.135, 14832.00
1448.181, 14870.00
1449.226, 14927.00
1450.271, 14944.00
1451.316, 14930.47
1452.361, 14795.00
1453.405, 14853.00
1454.450, 14836.00
1455.494, 14765.00
1456.538, 14806.00
1457.582, 14801.00
1458.626, 14759.00
1459.670, 14751.00
1460.713, 14862.00
1461.757, 14812.00
1462.800, 14813.00
1463.843, 14741.00
1464.886, 14739.11
1465.928, 14723.00
1466.971, 14686.00
1468.013, 14683.00
1469.055, 14596.00
1470.097, 14619.00
1471.139, 14593.00
1472.181, 14658.00
1473.222, 14527.00
1474.263, 14527.00
1475.305, 14811.00
1476.346, 14812.00
1477.386, 14403.00
1478.427, 14686.00
1479.468, 14539.00
1480.508, 14730.00
1481.548, 14802.00
1482.588, 14558.00
1483.628, 14746.00
1484.668, 14449.00
1485.707, 14534.00
1486.747, 14592.00
1487.786, 14617.00
1488.825, 14650.00
1489.864, 14585.00
1490.902, 14743.00
1491.941, 14622.40
1492.979, 14618.96
1494.017, 14397.00
1495.055, 14619.00
1496.093, 14382.00
1497.131, 14592.00
1498.168, 14408.00
1499.206, 14459.00
1500.243, 14525.00
1501.280, 14364.00
1502.317, 14472.00
1503.354, 14559.00
1504.390, 14499.00
1505.426, 14464.00
1506.463, 14507.00
1507.499, 14361.00
1508.535, 14491.00
1509.570, 14591.00
1510.606, 14439.00
1511.641, 14556.00
1512.676, 14486.00
1513.711, 14453.00
1514.746, 14370.00
1515.781, 14531.00
1516.816, 14576.00
1517.850, 14644.00
1518.884, 14558.00
1519.918, 14511.00
1520.952, 14489.00
1521.986, 14449.30
1523.019, 14450.00
1524.053, 14384.00
1525.086, 14483.00
1526.119, 14391.00
1527.152, 14583.00
1528.185, 14558.00
1529.217, 14677.00
1530.250, 14445.00
1531.282, 14553.00
1532.314, 14643.00
1533.346, 14524.00
1534.377, 14573.00
1535.409, 14621.00
1536.440, 14576.17
1537.472, 14562.00
1538.503, 14549.00
1539.534, 14657.00
1540.564, 14599.00
1541.595, 14531.00
1542.625, 14594.15
1543.656, 14507.20
1544.686, 14618.00
1545.716, 14523.00
1546.745, 14493.00
1547.775, 14725.00
1548.804, 14605.00
1549.834, 14679.00
1550.863, 14857.00
1551.892, 14873.00
1552.920, 14914.00
1553.949, 15295.00
1554.977, 15279.00
1556.006, 15003.00
1557.034, 14613.00
1558.062, 14494.00
1559.089, 14616.00
1560.117, 14573.00
1561.144, 14742.00
1562.172, 14574.00
1563.199, 14714.00
1564.226, 14711.00
1565.252, 14467.00
1566.279, 14819.00
1567.305, 14595.00
1568.332, 14765.00
1569.358, 14473.00
1570.384, 14628.00
1571.409, 14703.00
1572.435, 14704.00
##END=



