##NAMES=Covellite
##RRUFFID=R060143
##IDEAL CHEMISTRY=Cu^1+^S
##LOCALITY=Butte, Montana, USA
##OWNER=RRUFF
##SOURCE=Marcus Origlieri
##DESCRIPTION=Irridescent blue to purple hexagonal plates
##STATUS=The identification of this mineral has been confirmed by X-ray diffraction and chemical analysis
##URL=rruff.info/R060143
##MEASURED CHEMISTRY=Cu_1.00_S_1.00_
##PIN_ID=L00879
##ORIENTATION=Laser parallel to c* (0 0 1). Fiducial mark perpendicular to laser is parallel to b [0 1 0]
164.8110, 16465.00
166.0360, 16290.00
167.2610, 15862.00
168.4860, 15732.00
169.7110, 16022.00
170.9360, 16160.00
172.1610, 16100.00
173.3850, 15680.00
174.6100, 15745.00
175.8340, 15641.00
177.0580, 15612.00
178.2820, 15723.00
179.5050, 15623.00
180.7290, 15828.00
181.9520, 15406.00
183.1760, 15570.00
184.3990, 15660.00
185.6220, 15855.00
186.8450, 15785.00
188.0670, 15968.00
189.2900, 15888.00
190.5120, 15880.00
191.7340, 16105.00
192.9560, 16270.00
194.1780, 16198.00
195.4000, 16217.00
196.6220, 16262.00
197.8430, 16276.00
199.0640, 16203.00
200.2860, 16471.00
201.5070, 16804.00
202.7270, 16476.00
203.9480, 16030.00
205.1690, 15635.00
206.3890, 15112.00
207.6090, 14909.00
208.8290, 14999.00
210.0490, 14942.00
211.2690, 15029.00
212.4890, 15093.00
213.7080, 15037.22
214.9280, 15104.00
216.1470, 14959.00
217.3660, 14918.00
218.5850, 14858.00
219.8030, 14917.00
221.0220, 14880.00
222.2400, 15043.00
223.4590, 15075.00
224.6770, 14817.00
225.8950, 14885.00
227.1120, 14983.00
228.3300, 14976.00
229.5480, 15117.00
230.7650, 15094.00
231.9820, 14839.00
233.1990, 15082.00
234.4160, 15021.00
235.6330, 15147.00
236.8490, 15187.00
238.0660, 15111.00
239.2820, 15345.00
240.4980, 15366.00
241.7140, 15340.00
242.9300, 15356.00
244.1460, 15539.00
245.3610, 15585.00
246.5770, 15557.00
247.7920, 15595.00
249.0070, 15594.00
250.2220, 15997.00
251.4370, 16112.00
252.6510, 16042.00
253.8660, 16415.00
255.0800, 16491.00
256.2940, 16836.00
257.5080, 17920.00
258.7220, 17766.45
259.9360, 17815.58
261.1490, 18031.00
262.3630, 17367.00
263.5760, 17370.00
264.7890, 17467.00
266.0020, 17320.00
267.2150, 17148.00
268.4270, 16993.00
269.6400, 16942.00
270.8520, 16906.00
272.0640, 16794.00
273.2760, 16771.08
274.4880, 16704.59
275.7000, 16684.00
276.9120, 16580.00
278.1230, 16535.00
279.3340, 16434.00
280.5450, 16517.00
281.7560, 16508.00
282.9670, 16658.00
284.1780, 16574.00
285.3880, 16633.00
286.5980, 16646.00
287.8090, 16698.00
289.0190, 16899.00
290.2290, 16722.00
291.4380, 17086.00
292.6480, 16685.00
293.8570, 16940.00
295.0670, 16987.00
296.2760, 17014.00
297.4850, 17067.00
298.6930, 16975.00
299.9020, 16938.00
301.1110, 16880.00
302.3190, 16888.76
303.5270, 16907.14
304.7350, 16944.00
305.9430, 16977.00
307.1510, 17016.00
308.3580, 17004.00
309.5660, 16976.00
310.7730, 16923.27
311.9800, 16762.00
313.1870, 16755.00
314.3940, 16774.00
315.6010, 16684.00
316.8070, 16782.00
318.0130, 16712.00
319.2200, 16848.00
320.4260, 16993.00
321.6310, 17063.00
322.8370, 17144.00
324.0430, 17408.00
325.2480, 17536.00
326.4540, 17807.00
327.6590, 18045.00
328.8640, 17994.00
330.0680, 18235.00
331.2730, 18288.00
332.4780, 18286.00
333.6820, 18433.00
334.8860, 18712.00
336.0900, 19032.00
337.2940, 18989.00
338.4980, 19294.00
339.7010, 19237.00
340.9050, 19281.00
342.1080, 19010.00
343.3110, 18580.00
344.5140, 18423.00
345.7170, 18230.00
346.9200, 18092.00
348.1220, 17957.00
349.3240, 17853.00
350.5270, 17716.00
351.7290, 17764.00
352.9310, 17737.00
354.1320, 17618.00
355.3340, 17445.00
356.5350, 17363.00
357.7370, 17099.00
358.9380, 17104.00
360.1390, 17019.00
361.3400, 16977.00
362.5400, 17010.00
363.7410, 16910.57
364.9410, 16900.81
366.1410, 16771.00
367.3410, 16765.00
368.5410, 16678.00
369.7410, 16483.00
370.9400, 16720.00
372.1400, 16682.00
373.3390, 16972.00
374.5380, 17189.00
375.7370, 17117.00
376.9360, 16799.00
378.1350, 16627.00
379.3330, 16734.00
380.5310, 16651.00
381.7300, 16586.00
382.9280, 16476.00
384.1260, 16432.00
385.3230, 16595.00
386.5210, 16317.00
387.7180, 16503.00
388.9160, 16609.00
390.1130, 16537.75
391.3100, 16681.00
392.5060, 16615.00
393.7030, 16494.00
394.9000, 16595.00
396.0960, 16627.00
397.2920, 16821.00
398.4880, 16868.00
399.6840, 17016.00
400.8800, 17296.00
402.0750, 17594.00
403.2710, 17802.00
404.4660, 18256.00
405.6610, 19069.00
406.8560, 20127.00
408.0510, 21581.00
409.2450, 23229.00
410.4400, 26022.00
411.6340, 28715.00
412.8280, 27759.00
414.0220, 24248.00
415.2160, 20871.00
416.4100, 19478.00
417.6030, 18474.00
418.7970, 17938.00
419.9900, 17599.00
421.1830, 17384.00
422.3760, 17284.00
423.5690, 17058.00
424.7610, 17100.00
425.9540, 17111.00
427.1460, 17053.68
428.3380, 17129.00
429.5300, 17114.00
430.7220, 17096.00
431.9140, 17219.00
433.1050, 17308.00
434.2970, 17212.00
435.4880, 17305.00
436.6790, 17287.00
437.8700, 17248.00
439.0610, 17231.00
440.2510, 17135.00
441.4420, 17236.00
442.6320, 17237.00
443.8220, 17432.00
445.0120, 17572.00
446.2020, 17620.00
447.3910, 17929.00
448.5810, 18029.00
449.7700, 18357.00
450.9600, 18461.00
452.1490, 18986.00
453.3370, 19366.00
454.5260, 19963.00
455.7150, 20374.00
456.9030, 21024.00
458.0910, 21683.00
459.2800, 22245.00
460.4670, 23220.00
461.6550, 24038.00
462.8430, 25454.00
464.0300, 27490.00
465.2180, 30161.00
466.4050, 33864.00
467.5920, 38646.00
468.7790, 45351.00
469.9650, 52423.00
471.1520, 58670.00
472.3380, 60276.00
473.5250, 57312.00
474.7110, 50695.00
475.8970, 43320.00
477.0820, 36948.00
478.2680, 32147.00
479.4540, 28624.00
480.6390, 26071.00
481.8240, 24040.00
483.0090, 22788.00
484.1940, 21690.00
485.3780, 20869.00
486.5630, 20427.00
487.7470, 19694.00
488.9320, 19523.00
490.1160, 19022.00
491.3000, 18813.00
492.4830, 18645.00
493.6670, 18584.00
494.8500, 18394.00
496.0340, 18182.00
497.2170, 17995.00
498.4000, 17860.62
499.5820, 17707.00
500.7650, 17671.00
501.9480, 17593.62
503.1300, 17761.00
504.3120, 17592.00
505.4940, 17611.00
506.6760, 17742.00
507.8580, 17566.00
509.0390, 17557.00
510.2210, 17488.00
511.4020, 17540.00
512.5830, 17579.97
513.7640, 17622.40
514.9450, 17700.00
516.1250, 17700.00
517.3060, 17674.00
518.4860, 17540.00
519.6660, 17583.00
520.8460, 17554.00
522.0260, 17438.00
523.2060, 17597.00
524.3850, 17587.00
525.5650, 17525.00
526.7440, 17510.00
527.9230, 17537.00
529.1020, 17510.00
530.2810, 17502.79
531.4590, 17533.00
532.6380, 17506.00
533.8160, 17447.00
534.9940, 17527.00
536.1720, 17622.00
537.3500, 17704.00
538.5270, 17376.00
539.7050, 17627.00
540.8820, 17379.00
542.0590, 17579.00
543.2360, 17494.00
544.4130, 17617.00
545.5900, 17754.00
546.7660, 17519.00
547.9430, 17576.00
549.1190, 17666.00
550.2950, 17715.00
551.4710, 17706.96
552.6470, 17695.17
553.8220, 17628.00
554.9980, 17605.00
556.1730, 17502.00
557.3480, 17492.00
558.5230, 17542.00
559.6980, 17504.00
560.8730, 17604.00
562.0470, 17528.00
563.2220, 17498.00
564.3960, 17535.00
565.5700, 17489.00
566.7440, 17434.00
567.9170, 17583.00
569.0910, 17438.00
570.2640, 17317.00
571.4380, 17552.00
572.6110, 17415.00
573.7840, 17395.00
574.9570, 17392.00
576.1290, 17483.00
577.3020, 17351.00
578.4740, 17304.00
579.6460, 17094.00
580.8180, 17052.00
581.9900, 17050.00
583.1620, 17113.00
584.3330, 16887.00
585.5040, 17071.00
586.6760, 17225.00
587.8470, 16898.00
589.0180, 17153.00
590.1880, 17130.00
591.3590, 17105.00
592.5290, 17108.00
593.7000, 17053.00
594.8700, 17065.00
596.0400, 17054.72
597.2090, 17166.00
598.3790, 17092.00
599.5490, 17130.00
600.7180, 17228.00
601.8870, 17124.60
603.0560, 17110.66
604.2250, 17102.00
605.3940, 16936.00
606.5620, 17132.00
607.7300, 17048.00
608.8990, 17024.00
610.0670, 16919.00
611.2350, 17016.00
612.4020, 16831.00
613.5700, 16766.00
614.7370, 16902.00
615.9050, 16819.00
617.0720, 16900.00
618.2390, 16807.00
619.4060, 16812.00
620.5720, 16968.00
621.7390, 16840.00
622.9050, 16780.00
624.0710, 16982.00
625.2370, 16906.00
626.4030, 16936.00
627.5690, 16801.00
628.7340, 16770.57
629.9000, 16821.00
631.0650, 16674.00
632.2300, 16751.00
633.3950, 16781.00
634.5600, 16775.00
635.7240, 16720.00
636.8890, 16900.00
638.0530, 16939.00
639.2170, 16854.00
640.3810, 16991.00
641.5450, 16931.00
642.7080, 16931.00
643.8720, 16807.00
645.0350, 16892.00
646.1980, 16839.00
647.3610, 16853.74
648.5240, 16956.00
649.6870, 16887.00
650.8490, 16910.00
652.0120, 16893.00
653.1740, 16911.00
654.3360, 16909.00
655.4980, 16894.31
656.6600, 16870.67
657.8210, 16847.00
658.9830, 16887.00
660.1440, 16829.00
661.3050, 17032.00
662.4660, 16883.00
663.6270, 17015.00
664.7870, 16741.00
665.9480, 16948.00
667.1080, 16679.00
668.2680, 16976.00
669.4280, 16827.00
670.5880, 16904.00
671.7480, 16980.00
672.9070, 16787.00
674.0670, 16693.00
675.2260, 16750.00
676.3850, 16871.00
677.5440, 16698.00
678.7030, 16922.00
679.8610, 16957.00
681.0200, 16857.00
682.1780, 16787.00
683.3360, 16951.00
684.4940, 16910.00
685.6520, 16725.00
686.8090, 16829.00
687.9670, 16674.00
689.1240, 16747.51
690.2810, 16555.00
691.4380, 16836.00
692.5950, 16796.00
693.7520, 16720.00
694.9080, 16897.00
696.0650, 16586.00
697.2210, 16800.00
698.3770, 16902.00
699.5330, 16748.00
700.6880, 16887.00
701.8440, 16723.00
702.9990, 16969.00
704.1550, 16801.00
705.3100, 16803.00
706.4650, 16831.00
707.6190, 16721.00
708.7740, 16754.00
709.9290, 16849.00
711.0830, 16723.00
712.2370, 16874.00
713.3910, 16772.00
714.5450, 16761.00
715.6980, 16806.00
716.8520, 16704.00
718.0050, 16791.00
719.1580, 16800.00
720.3110, 16899.00
721.4640, 16909.23
722.6170, 16884.00
723.7700, 16937.00
724.9220, 16889.00
726.0740, 16881.00
727.2260, 17025.00
728.3780, 16851.00
729.5300, 16921.00
730.6810, 16852.00
731.8330, 16916.00
732.9840, 16837.00
734.1350, 16987.00
735.2860, 16896.00
736.4370, 16813.00
737.5880, 17087.00
738.7380, 16913.00
739.8880, 16878.00
741.0390, 17006.00
742.1890, 17031.00
743.3380, 17117.00
744.4880, 17048.00
745.6380, 16851.00
746.7870, 16988.00
747.9360, 17046.00
749.0850, 16865.00
750.2340, 16969.00
751.3830, 16992.00
752.5310, 16967.00
753.6800, 17019.00
754.8280, 17016.00
755.9760, 16921.00
757.1240, 16954.00
758.2720, 16953.00
759.4190, 16981.00
760.5670, 17052.00
761.7140, 17169.00
762.8610, 16943.00
764.0080, 17055.00
765.1550, 16912.00
766.3020, 16925.00
767.4480, 17117.00
768.5950, 16984.00
769.7410, 16971.00
770.8870, 16843.00
772.0330, 17135.00
773.1780, 17109.00
774.3240, 17006.00
775.4690, 16846.00
776.6140, 17096.00
777.7590, 16998.00
778.9040, 17026.00
780.0490, 17026.00
781.1940, 17085.00
782.3380, 16995.00
783.4820, 17034.00
784.6260, 17084.00
785.7700, 17137.00
786.9140, 17024.00
788.0580, 17206.00
789.2010, 17093.00
790.3450, 17061.00
791.4880, 17093.00
792.6310, 17076.00
793.7730, 17238.00
794.9160, 17493.00
796.0590, 17236.00
797.2010, 17008.00
798.3430, 17157.00
799.4850, 17375.00
800.6270, 17297.00
801.7690, 17377.00
802.9100, 17340.00
804.0520, 17353.00
805.1930, 17438.00
806.3340, 17288.00
807.4750, 17350.00
808.6160, 17389.00
809.7560, 17526.00
810.8970, 17427.00
812.0370, 17485.00
813.1770, 17453.00
814.3170, 17328.00
815.4570, 17455.00
816.5960, 17486.00
817.7360, 17469.00
818.8750, 17315.00
820.0140, 17462.00
821.1530, 17504.00
822.2920, 17399.00
823.4310, 17625.00
824.5690, 17601.00
825.7070, 17696.00
826.8460, 17583.00
827.9840, 17462.00
829.1220, 17521.00
830.2590, 17503.00
831.3970, 17446.13
832.5340, 17471.00
833.6710, 17379.00
834.8080, 17348.00
835.9450, 17342.86
837.0820, 17650.00
838.2190, 17436.00
839.3550, 17577.00
840.4910, 17555.00
841.6270, 17470.00
842.7630, 17526.00
843.8990, 17576.00
845.0350, 17634.00
846.1700, 17733.00
847.3060, 17463.00
848.4410, 17469.00
849.5760, 17490.00
850.7100, 17500.00
851.8450, 17390.00
852.9800, 17516.00
854.1140, 17340.00
855.2480, 17370.00
856.3820, 17530.00
857.5160, 17268.00
858.6500, 17260.00
859.7830, 17360.00
860.9170, 17488.00
862.0500, 17404.00
863.1830, 17374.00
864.3160, 17318.00
865.4480, 17352.64
866.5810, 17492.00
867.7130, 17474.00
868.8460, 17522.00
869.9780, 17623.00
871.1100, 17469.00
872.2410, 17446.00
873.3730, 17512.00
874.5050, 17415.00
875.6360, 17494.00
876.7670, 17448.00
877.8980, 17424.00
879.0290, 17469.00
880.1590, 17453.00
881.2900, 17452.00
882.4200, 17607.00
883.5500, 17571.35
884.6800, 17573.00
885.8100, 17538.00
886.9400, 17635.00
888.0690, 17595.00
889.1990, 17416.00
890.3280, 17591.00
891.4570, 17569.00
892.5860, 17574.00
893.7140, 17704.00
894.8430, 17675.00
895.9710, 17625.00
897.1000, 17741.00
898.2280, 17748.00
899.3560, 17600.00
900.4830, 17829.00
901.6110, 17826.00
902.7380, 17969.00
903.8660, 18035.00
904.9930, 17937.00
906.1200, 17967.00
907.2460, 18125.00
908.3730, 18184.00
909.5000, 18004.00
910.6260, 18124.00
911.7520, 18322.00
912.8780, 18195.00
914.0040, 18487.00
915.1290, 18284.00
916.2550, 18212.00
917.3800, 18408.00
918.5050, 18325.00
919.6300, 18532.00
920.7550, 18600.00
921.8800, 18776.00
923.0040, 18738.00
924.1290, 18800.00
925.2530, 18909.00
926.3770, 18726.00
927.5010, 18789.00
928.6250, 18735.00
929.7480, 18685.00
930.8720, 18576.00
931.9950, 18563.00
933.1180, 18269.00
934.2410, 18424.00
935.3640, 18256.00
936.4860, 18348.00
937.6090, 18347.00
938.7310, 18368.00
939.8530, 18348.00
940.9750, 18118.00
942.0970, 18281.00
943.2180, 18160.00
944.3400, 18081.00
945.4610, 18163.00
946.5820, 18016.00
947.7030, 18095.00
948.8240, 18118.00
949.9450, 18160.00
951.0650, 18149.00
952.1860, 18158.00
953.3060, 18050.00
954.4260, 18128.00
955.5460, 18113.00
956.6650, 18315.00
957.7850, 18363.00
958.9040, 18116.00
960.0230, 18350.00
961.1420, 18181.96
962.2610, 18299.00
963.3800, 18157.00
964.4990, 18212.00
965.6170, 18493.00
966.7350, 18384.00
967.8530, 18324.00
968.9710, 18284.00
970.0890, 18270.00
971.2070, 18261.00
972.3240, 18360.00
973.4410, 18191.00
974.5580, 18258.00
975.6750, 18338.00
976.7920, 18256.00
977.9090, 18331.37
979.0250, 18267.44
980.1410, 18448.00
981.2580, 18148.00
982.3740, 18347.00
983.4890, 18299.00
984.6050, 18188.00
985.7200, 18403.00
986.8360, 18360.00
987.9510, 18462.00
989.0660, 18494.00
990.1810, 18520.00
991.2950, 18354.00
992.4100, 18390.00
993.5240, 18377.54
994.6390, 18288.00
995.7530, 18362.00
996.8660, 18451.00
997.9800, 18340.00
999.0940, 18431.00
1000.207, 18434.00
1001.320, 18378.00
1002.433, 18401.00
1003.546, 18498.00
1004.659, 18260.00
1005.772, 18290.00
1006.884, 18384.00
1007.996, 18246.00
1009.108, 18257.00
1010.220, 18330.00
1011.332, 18140.00
1012.444, 18130.00
1013.555, 18245.00
1014.666, 18316.00
1015.777, 18307.00
1016.888, 18354.06
1017.999, 18434.00
1019.110, 18305.00
1020.220, 18312.00
1021.331, 18184.00
1022.441, 18107.00
1023.551, 18377.00
1024.661, 18297.00
1025.770, 18402.00
1026.880, 18336.00
1027.989, 18381.00
1029.098, 18346.00
1030.207, 18345.00
1031.316, 18366.99
1032.425, 18347.71
1033.533, 18400.00
1034.642, 18346.00
1035.750, 18362.55
1036.858, 18367.00
1037.966, 18311.00
1039.073, 18364.00
1040.181, 18360.00
1041.288, 18332.00
1042.396, 18445.00
1043.503, 18321.00
1044.610, 18340.00
1045.716, 18348.00
1046.823, 18196.00
1047.929, 18348.00
1049.036, 18345.00
1050.142, 18249.00
1051.248, 18520.00
1052.353, 18462.00
1053.459, 18462.00
1054.564, 18496.00
1055.670, 18413.00
1056.775, 18489.00
1057.880, 18570.00
1058.985, 18448.00
1060.089, 18485.00
1061.194, 18383.00
1062.298, 18426.00
1063.402, 18636.00
1064.506, 18462.00
1065.610, 18663.00
1066.713, 18535.00
1067.817, 18369.00
1068.920, 18584.00
1070.023, 18638.00
1071.126, 18594.00
1072.229, 18596.00
1073.332, 18550.00
1074.435, 18515.55
1075.537, 18621.00
1076.639, 18437.00
1077.741, 18405.00
1078.843, 18376.00
1079.945, 18595.00
1081.046, 18359.00
1082.148, 18449.00
1083.249, 18530.00
1084.350, 18491.00
1085.451, 18499.00
1086.551, 18477.00
1087.652, 18423.00
1088.752, 18477.00
1089.853, 18387.00
1090.953, 18657.00
1092.053, 18559.00
1093.152, 18672.00
1094.252, 18426.00
1095.351, 18409.00
1096.451, 18575.00
1097.550, 18383.00
1098.649, 18635.00
1099.748, 18510.00
1100.846, 18374.00
1101.945, 18516.00
1103.043, 18556.00
1104.141, 18405.00
1105.239, 18590.00
1106.337, 18538.00
1107.434, 18448.00
1108.532, 18389.00
1109.629, 18416.93
1110.726, 18656.00
1111.823, 18513.00
1112.920, 18539.00
1114.017, 18613.00
1115.113, 18493.00
1116.210, 18653.00
1117.306, 18660.00
1118.402, 18588.00
1119.498, 18641.00
1120.593, 18662.00
1121.689, 18618.00
1122.784, 18580.00
1123.879, 18594.04
1124.974, 18489.00
1126.069, 18533.00
1127.164, 18554.00
1128.259, 18386.00
1129.353, 18551.00
1130.447, 18518.00
1131.541, 18199.00
1132.635, 18146.00
1133.729, 18292.00
1134.822, 18268.00
1135.916, 18305.00
1137.009, 18334.30
1138.102, 18385.00
1139.195, 18298.00
1140.288, 18244.00
1141.380, 18135.00
1142.473, 18240.00
1143.565, 18181.00
1144.657, 18052.00
1145.749, 18205.00
1146.841, 18222.00
1147.932, 18148.00
1149.024, 18246.00
1150.115, 18241.00
1151.206, 18421.00
1152.297, 18159.00
1153.388, 18078.00
1154.479, 18302.00
1155.569, 18109.00
1156.659, 18329.00
1157.750, 18243.00
1158.839, 18160.00
1159.929, 18143.00
1161.019, 18148.00
1162.108, 18143.00
1163.198, 18045.00
1164.287, 17946.00
1165.376, 18261.00
1166.465, 18322.00
1167.553, 18158.00
1168.642, 18214.00
1169.730, 18173.00
1170.818, 18125.00
1171.906, 18058.00
1172.994, 18064.00
1174.082, 18192.00
1175.170, 18232.00
1176.257, 18079.00
1177.344, 18080.00
1178.431, 18322.00
1179.518, 18146.00
1180.605, 18074.00
1181.691, 18185.00
1182.778, 18093.00
1183.864, 18165.00
1184.950, 18059.00
1186.036, 18240.00
1187.122, 18141.00
1188.207, 18129.00
1189.292, 18155.00
1190.378, 18126.00
1191.463, 18003.00
1192.548, 18202.00
1193.632, 18313.00
1194.717, 18125.00
1195.801, 18072.00
1196.886, 18126.00
1197.970, 18266.00
1199.054, 18135.00
1200.137, 18075.00
1201.221, 18134.00
1202.305, 18103.00
1203.388, 18120.00
1204.471, 18043.00
1205.554, 18133.00
1206.637, 18194.00
1207.719, 18103.00
1208.802, 18202.00
1209.884, 18106.00
1210.966, 18029.00
1212.048, 18216.00
1213.130, 18123.00
1214.212, 18179.00
1215.293, 18078.00
1216.374, 18080.00
1217.456, 18078.09
1218.536, 18213.00
1219.617, 18050.00
1220.698, 18116.00
1221.778, 18063.00
1222.859, 18057.00
1223.939, 18090.00
1225.019, 18077.00
1226.099, 18289.00
1227.178, 18103.00
1228.258, 18352.00
1229.337, 18102.00
1230.417, 18257.00
1231.496, 18065.00
1232.574, 18206.00
1233.653, 18110.00
1234.732, 18096.00
1235.810, 18179.00
1236.888, 18281.00
1237.966, 18218.00
1239.044, 18220.00
1240.122, 18122.00
1241.199, 18067.00
1242.277, 18218.00
1243.354, 18068.00
1244.431, 18200.00
1245.508, 18160.00
1246.585, 18179.00
1247.661, 18100.00
1248.738, 18177.00
1249.814, 18078.00
1250.890, 18181.00
1251.966, 18183.00
1253.042, 18181.00
1254.117, 18147.00
1255.193, 18157.72
1256.268, 18179.00
1257.343, 18186.00
1258.418, 18194.00
1259.493, 18165.25
1260.567, 18180.00
1261.642, 18085.00
1262.716, 18115.00
1263.790, 18070.00
1264.864, 18068.00
1265.938, 18155.00
1267.011, 18406.00
1268.085, 18299.00
1269.158, 18115.00
1270.231, 18202.00
1271.304, 17934.00
1272.377, 18296.00
1273.450, 18220.00
1274.522, 18192.00
1275.594, 18296.00
1276.666, 18171.00
1277.738, 18161.00
1278.810, 18178.00
1279.882, 18193.00
1280.953, 18133.00
1282.025, 18116.00
1283.096, 18217.00
1284.167, 18300.00
1285.238, 18155.00
1286.308, 18236.00
1287.379, 18132.00
1288.449, 18225.00
1289.519, 18076.00
1290.589, 18315.00
1291.659, 18349.00
1292.729, 18314.00
1293.798, 18152.00
1294.868, 18313.00
1295.937, 18337.00
1297.006, 18373.00
1298.075, 18081.00
1299.143, 18075.00
1300.212, 18214.00
1301.280, 18232.00
1302.348, 18236.00
1303.416, 18334.00
1304.484, 18214.00
1305.552, 18267.00
1306.620, 18380.00
1307.687, 18253.00
1308.754, 18259.00
1309.821, 18463.00
1310.888, 18408.00
1311.955, 18370.00
1313.021, 18207.00
1314.088, 18253.00
1315.154, 18313.00
1316.220, 18443.00
1317.286, 18400.07
1318.352, 18257.00
1319.417, 18328.00
1320.483, 18370.00
1321.548, 18294.00
1322.613, 18347.00
1323.678, 18320.00
1324.743, 18400.00
1325.807, 18404.00
1326.872, 18387.00
1327.936, 18288.00
1329.000, 18210.00
1330.064, 18158.00
1331.128, 18470.00
1332.191, 18311.00
1333.255, 18404.00
1334.318, 18102.00
1335.381, 18193.00
1336.444, 18225.00
1337.507, 18340.00
1338.569, 18425.00
1339.632, 18397.00
1340.694, 18372.00
1341.756, 18296.00
1342.818, 18245.00
1343.880, 18284.41
1344.941, 18380.00
1346.003, 18348.00
1347.064, 18385.00
1348.125, 18354.00
1349.186, 18308.00
1350.247, 18232.00
1351.308, 18228.00
1352.368, 18278.00
1353.428, 18338.00
1354.489, 18241.00
1355.549, 18329.00
1356.608, 18173.00
1357.668, 18303.00
1358.727, 18373.00
1359.787, 18068.00
1360.846, 18334.00
1361.905, 18102.00
1362.964, 18273.00
1364.022, 18400.00
1365.081, 18309.00
1366.139, 18301.00
1367.197, 18374.00
1368.255, 18287.00
1369.313, 18336.00
1370.371, 18275.00
1371.428, 18344.00
1372.486, 18227.00
1373.543, 18229.00
1374.600, 18558.00
1375.657, 18440.00
1376.713, 18488.00
1377.770, 18515.00
1378.826, 18405.00
1379.882, 18553.00
1380.938, 18217.00
1381.994, 18483.00
1383.050, 18267.00
1384.106, 18355.00
1385.161, 18299.00
1386.216, 18330.10
1387.271, 18474.00
1388.326, 18388.00
1389.381, 18474.00
1390.435, 18320.00
1391.490, 18461.00
1392.544, 18606.00
1393.598, 18385.00
1394.652, 18395.00
1395.705, 18265.00
1396.759, 18338.00
1397.812, 18377.00
1398.866, 18477.00
1399.919, 18360.00
1400.972, 18402.00
1402.024, 18365.00
1403.077, 18382.00
1404.129, 18465.00
1405.181, 18376.65
1406.233, 18527.00
1407.285, 18298.00
1408.337, 18274.00
1409.389, 18323.00
1410.440, 18447.00
1411.491, 18541.00
1412.542, 18384.00
1413.593, 18449.00
1414.644, 18473.00
1415.695, 18256.00
1416.745, 18384.00
1417.795, 18293.00
1418.845, 18393.00
1419.895, 18334.00
1420.945, 18432.00
1421.995, 18334.00
1423.044, 18410.00
1424.093, 18429.00
1425.142, 18486.00
1426.191, 18433.00
1427.240, 18532.00
1428.289, 18346.00
1429.337, 18467.00
1430.385, 18549.00
1431.433, 18521.00
1432.481, 18654.00
1433.529, 18639.00
1434.577, 18655.00
1435.624, 18626.00
1436.672, 18584.00
1437.719, 18763.00
1438.766, 18705.00
1439.812, 18674.00
1440.859, 18762.00
1441.905, 18717.00
1442.952, 18771.00
1443.998, 18698.00
1445.044, 18716.00
1446.090, 18739.68
1447.135, 18637.00
1448.181, 18783.00
1449.226, 18779.00
1450.271, 18774.00
1451.316, 18791.00
1452.361, 18791.00
1453.405, 18568.00
1454.450, 18831.00
1455.494, 18759.00
1456.538, 18998.00
1457.582, 18769.00
1458.626, 18840.00
1459.670, 18740.00
1460.713, 18815.00
1461.757, 18704.00
1462.800, 18776.00
1463.843, 18811.00
1464.886, 18674.00
1465.928, 18599.00
1466.971, 18768.00
1468.013, 18374.00
1469.055, 18536.00
1470.097, 18577.00
1471.139, 18777.00
1472.181, 18572.00
1473.222, 18724.00
1474.263, 18593.00
1475.305, 18608.00
1476.346, 18567.00
1477.386, 18566.00
1478.427, 18556.96
1479.468, 18591.00
1480.508, 18573.00
1481.548, 18608.00
1482.588, 18692.00
1483.628, 18484.00
1484.668, 18487.00
1485.707, 18603.00
1486.747, 18487.00
1487.786, 18485.00
1488.825, 18421.00
1489.864, 18592.00
1490.902, 18474.00
1491.941, 18565.00
1492.979, 18715.00
1494.017, 18594.00
1495.055, 18453.00
1496.093, 18511.00
1497.131, 18490.00
1498.168, 18563.00
1499.206, 18469.00
1500.243, 18497.54
1501.280, 18537.00
1502.317, 18501.00
1503.354, 18453.00
1504.390, 18491.00
1505.426, 18570.00
1506.463, 18742.00
1507.499, 18388.00
1508.535, 18688.00
1509.570, 18477.00
1510.606, 18488.00
1511.641, 18439.00
1512.676, 18488.00
1513.711, 18368.00
1514.746, 18245.00
1515.781, 18606.00
1516.816, 18757.00
1517.850, 18541.00
1518.884, 18499.00
1519.918, 18524.00
1520.952, 18593.00
1521.986, 18445.00
1523.019, 18516.00
1524.053, 18667.00
1525.086, 18460.00
1526.119, 18513.00
1527.152, 18694.00
1528.185, 18724.00
1529.217, 18703.00
1530.250, 18615.00
1531.282, 18616.00
1532.314, 18603.00
1533.346, 18501.00
1534.377, 18546.75
1535.409, 18642.00
1536.440, 18583.00
1537.472, 18682.00
1538.503, 18718.00
1539.534, 18664.00
1540.564, 18721.00
1541.595, 18698.00
1542.625, 18496.00
1543.656, 18553.00
1544.686, 18659.00
1545.716, 18796.00
1546.745, 18556.00
1547.775, 18629.00
1548.804, 18819.00
1549.834, 18712.00
1550.863, 18866.00
1551.892, 18930.00
1552.920, 19041.00
1553.949, 19015.98
1554.977, 18978.90
1556.006, 18948.00
1557.034, 18747.00
1558.062, 18764.00
1559.089, 18548.00
1560.117, 18606.00
1561.144, 18688.00
1562.172, 18717.00
1563.199, 18475.00
1564.226, 18705.00
1565.252, 18670.00
1566.279, 18584.00
1567.305, 18771.00
1568.332, 18577.00
1569.358, 18662.00
1570.384, 18753.00
1571.409, 18765.00
1572.435, 18540.00
##END=



