##NAMES=Covellite
##RRUFFID=R060129
##IDEAL CHEMISTRY=Cu^1+^S
##LOCALITY=Butte, Montana, USA
##OWNER=RRUFF
##SOURCE=University of Arizona Mineral Museum
##DESCRIPTION=Iridescent blue metallic hexagonal plates
##STATUS=The identification of this mineral has been confirmed by X-ray diffraction and chemical analysis
##URL=rruff.info/R060129
##MEASURED CHEMISTRY=Cu_1.00_S_1.00_
##PIN_ID=L00818
##ORIENTATION=Laser parallel to c* (0 0 1). Fiducial mark perpendicular to laser is parallel to a [1 0 0]
172.1610, 17915.00
173.3850, 17684.00
174.6100, 17850.00
175.8340, 17669.00
177.0580, 17635.00
178.2820, 17566.00
179.5050, 17606.00
180.7290, 17559.00
181.9520, 17680.00
183.1760, 17592.00
184.3990, 17772.00
185.6220, 17893.00
186.8450, 18191.00
188.0670, 18012.00
189.2900, 17949.00
190.5120, 18099.00
191.7340, 18061.00
192.9560, 18144.00
194.1780, 18174.00
195.4000, 18150.00
196.6220, 18226.00
197.8430, 18269.00
199.0640, 18152.00
200.2860, 18557.00
201.5070, 18497.00
202.7270, 18482.00
203.9480, 18005.00
205.1690, 17471.00
206.3890, 17263.00
207.6090, 17100.00
208.8290, 17105.00
210.0490, 17341.00
211.2690, 17284.00
212.4890, 17417.00
213.7080, 17404.00
214.9280, 17347.00
216.1470, 17336.00
217.3660, 17024.00
218.5850, 17125.00
219.8030, 17118.00
221.0220, 17009.00
222.2400, 17151.00
223.4590, 17166.00
224.6770, 17063.00
225.8950, 17224.00
227.1120, 17279.00
228.3300, 17292.00
229.5480, 17243.00
230.7650, 17056.00
231.9820, 17121.00
233.1990, 17250.00
234.4160, 17235.00
235.6330, 17396.00
236.8490, 17342.00
238.0660, 17422.00
239.2820, 17607.00
240.4980, 17658.00
241.7140, 17411.00
242.9300, 17573.00
244.1460, 17593.00
245.3610, 17599.00
246.5770, 17794.00
247.7920, 17971.00
249.0070, 17952.00
250.2220, 18153.00
251.4370, 18586.00
252.6510, 18499.00
253.8660, 18779.00
255.0800, 19313.00
256.2940, 19486.00
257.5080, 20297.00
258.7220, 20465.03
259.9360, 20418.15
261.1490, 20893.00
262.3630, 20149.00
263.5760, 19980.00
264.7890, 20044.00
266.0020, 20036.00
267.2150, 19758.00
268.4270, 19602.00
269.6400, 19644.00
270.8520, 19450.00
272.0640, 19110.00
273.2760, 19113.00
274.4880, 19105.00
275.7000, 19148.00
276.9120, 18876.00
278.1230, 19005.00
279.3340, 18770.00
280.5450, 18731.00
281.7560, 18612.00
282.9670, 18430.00
284.1780, 18365.00
285.3880, 18256.00
286.5980, 18345.00
287.8090, 18387.00
289.0190, 18212.00
290.2290, 18131.00
291.4380, 18343.00
292.6480, 18056.00
293.8570, 18112.00
295.0670, 17923.00
296.2760, 18126.00
297.4850, 18159.00
298.6930, 17963.00
299.9020, 17832.00
301.1110, 18090.00
302.3190, 18014.00
303.5270, 18165.00
304.7350, 18396.00
305.9430, 18151.00
307.1510, 18186.00
308.3580, 18174.00
309.5660, 18448.00
310.7730, 18427.00
311.9800, 18434.00
313.1870, 18393.00
314.3940, 18540.00
315.6010, 18693.00
316.8070, 18974.00
318.0130, 19049.00
319.2200, 19301.00
320.4260, 19561.00
321.6310, 19723.00
322.8370, 20054.00
324.0430, 20534.00
325.2480, 21095.00
326.4540, 21750.00
327.6590, 22565.00
328.8640, 22968.00
330.0680, 23560.00
331.2730, 23621.00
332.4780, 23809.00
333.6820, 23437.00
334.8860, 23257.00
336.0900, 22481.00
337.2940, 21795.00
338.4980, 21240.00
339.7010, 20618.00
340.9050, 20159.00
342.1080, 19687.00
343.3110, 19571.00
344.5140, 19078.00
345.7170, 19011.00
346.9200, 18915.00
348.1220, 18817.00
349.3240, 18756.86
350.5270, 18495.00
351.7290, 18633.00
352.9310, 18514.00
354.1320, 18465.00
355.3340, 18561.00
356.5350, 18692.00
357.7370, 18904.00
358.9380, 18886.00
360.1390, 19029.00
361.3400, 19143.00
362.5400, 19333.00
363.7410, 19322.00
364.9410, 19446.00
366.1410, 19460.00
367.3410, 19621.00
368.5410, 19743.00
369.7410, 19847.00
370.9400, 19786.00
372.1400, 19971.00
373.3390, 20095.00
374.5380, 20011.00
375.7370, 19878.00
376.9360, 19908.00
378.1350, 19900.00
379.3330, 19981.00
380.5310, 19843.00
381.7300, 20041.00
382.9280, 19933.00
384.1260, 19816.00
385.3230, 19740.00
386.5210, 19543.00
387.7180, 19476.98
388.9160, 19165.00
390.1130, 19213.00
391.3100, 19150.00
392.5060, 18866.00
393.7030, 18732.00
394.9000, 18921.00
396.0960, 18863.00
397.2920, 19038.00
398.4880, 18934.00
399.6840, 18678.00
400.8800, 18851.00
402.0750, 18830.00
403.2710, 18605.00
404.4660, 18599.00
405.6610, 18709.00
406.8560, 18661.00
408.0510, 18741.00
409.2450, 18681.00
410.4400, 18958.00
411.6340, 18807.00
412.8280, 18818.00
414.0220, 18748.00
415.2160, 18679.00
416.4100, 18763.00
417.6030, 18638.00
418.7970, 18616.00
419.9900, 18743.00
421.1830, 18594.00
422.3760, 18637.00
423.5690, 18999.00
424.7610, 18980.00
425.9540, 18860.00
427.1460, 18936.00
428.3380, 18833.00
429.5300, 18947.00
430.7220, 19080.00
431.9140, 18864.00
433.1050, 18884.00
434.2970, 19344.00
435.4880, 19216.00
436.6790, 19272.00
437.8700, 19443.00
439.0610, 19416.00
440.2510, 19829.00
441.4420, 19854.78
442.6320, 20198.00
443.8220, 20196.00
445.0120, 20212.00
446.2020, 20550.00
447.3910, 21164.00
448.5810, 21153.00
449.7700, 21745.00
450.9600, 22110.00
452.1490, 22690.00
453.3370, 23438.00
454.5260, 24251.00
455.7150, 24571.00
456.9030, 25543.00
458.0910, 26585.00
459.2800, 28021.00
460.4670, 29520.00
461.6550, 31882.00
462.8430, 35270.00
464.0300, 39435.00
465.2180, 44844.00
466.4050, 51416.00
467.5920, 57724.00
468.7790, 63603.00
469.9650, 65535.00
471.1520, 64998.00
472.3380, 60076.00
473.5250, 53426.00
474.7110, 46560.00
475.8970, 40966.00
477.0820, 36271.00
478.2680, 32942.00
479.4540, 30132.00
480.6390, 27838.00
481.8240, 26431.00
483.0090, 25136.00
484.1940, 24003.00
485.3780, 23207.00
486.5630, 22645.00
487.7470, 22072.00
488.9320, 21783.00
490.1160, 21552.00
491.3000, 21311.00
492.4830, 21324.00
493.6670, 20934.00
494.8500, 20896.00
496.0340, 20666.00
497.2170, 20519.00
498.4000, 20372.00
499.5820, 20399.00
500.7650, 20307.00
501.9480, 20444.00
503.1300, 20181.00
504.3120, 20109.00
505.4940, 20244.00
506.6760, 20173.00
507.8580, 20060.00
509.0390, 20060.00
510.2210, 20087.00
511.4020, 19895.00
512.5830, 19943.00
513.7640, 19922.00
514.9450, 20162.00
516.1250, 20022.00
517.3060, 20158.00
518.4860, 20107.00
519.6660, 19887.00
520.8460, 20111.00
522.0260, 20087.00
523.2060, 19870.00
524.3850, 19989.00
525.5650, 19988.00
526.7440, 19922.00
527.9230, 20199.00
529.1020, 20153.00
530.2810, 20095.00
531.4590, 20214.00
532.6380, 20234.00
533.8160, 20079.00
534.9940, 19903.00
536.1720, 20317.00
537.3500, 20079.00
538.5270, 20127.00
539.7050, 20059.00
540.8820, 20179.00
542.0590, 20069.00
543.2360, 19948.00
544.4130, 20259.00
545.5900, 20227.00
546.7660, 20088.00
547.9430, 20147.00
549.1190, 20138.00
550.2950, 20030.00
551.4710, 20016.00
552.6470, 19958.00
553.8220, 20145.00
554.9980, 19957.00
556.1730, 20053.00
557.3480, 20120.00
558.5230, 20089.00
559.6980, 20180.00
560.8730, 20101.00
562.0470, 20025.00
563.2220, 19968.00
564.3960, 19927.00
565.5700, 19957.00
566.7440, 20101.00
567.9170, 19948.00
569.0910, 20051.00
570.2640, 20096.61
571.4380, 20007.00
572.6110, 20173.00
573.7840, 20026.00
574.9570, 19925.00
576.1290, 19987.00
577.3020, 19917.00
578.4740, 19877.28
579.6460, 19910.00
580.8180, 19858.00
581.9900, 19849.00
583.1620, 20003.00
584.3330, 20125.00
585.5040, 19737.00
586.6760, 20175.00
587.8470, 19859.00
589.0180, 19870.00
590.1880, 19917.00
591.3590, 19710.00
592.5290, 19898.00
593.7000, 19962.66
594.8700, 20236.00
596.0400, 20073.00
597.2090, 20247.00
598.3790, 19852.00
599.5490, 20265.00
600.7180, 20082.00
601.8870, 19874.00
603.0560, 20070.00
604.2250, 19823.00
605.3940, 19933.00
606.5620, 19918.00
607.7300, 19965.00
608.8990, 20206.00
610.0670, 20215.00
611.2350, 20217.00
612.4020, 20077.00
613.5700, 20090.00
614.7370, 20191.00
615.9050, 20202.00
617.0720, 20026.00
618.2390, 19893.00
619.4060, 20057.00
620.5720, 20066.00
621.7390, 20141.00
622.9050, 20136.00
624.0710, 20017.00
625.2370, 20044.31
626.4030, 20041.36
627.5690, 20011.00
628.7340, 20052.00
629.9000, 20131.00
631.0650, 20044.00
632.2300, 19932.00
633.3950, 20042.00
634.5600, 20155.00
635.7240, 20045.00
636.8890, 20203.00
638.0530, 20333.00
639.2170, 20167.00
640.3810, 20151.00
641.5450, 20238.00
642.7080, 20266.00
643.8720, 20242.44
645.0350, 20278.90
646.1980, 20189.00
647.3610, 20269.00
648.5240, 20244.00
649.6870, 20221.00
650.8490, 20384.00
652.0120, 20326.00
653.1740, 20562.00
654.3360, 20409.00
655.4980, 20381.00
656.6600, 20221.00
657.8210, 20384.00
658.9830, 20241.00
660.1440, 20212.00
661.3050, 20402.00
662.4660, 20306.00
663.6270, 20479.00
664.7870, 20540.00
665.9480, 20446.00
667.1080, 20335.00
668.2680, 20306.00
669.4280, 20300.00
670.5880, 20138.00
671.7480, 20310.00
672.9070, 20139.00
674.0670, 20224.00
675.2260, 20333.00
676.3850, 20255.00
677.5440, 20406.00
678.7030, 20341.00
679.8610, 20192.00
681.0200, 20168.00
682.1780, 20202.00
683.3360, 20229.00
684.4940, 20105.00
685.6520, 20162.35
686.8090, 20056.00
687.9670, 20175.00
689.1240, 20123.00
690.2810, 20139.00
691.4380, 20347.00
692.5950, 20271.00
693.7520, 20413.00
694.9080, 20369.77
696.0650, 20176.00
697.2210, 20246.00
698.3770, 20141.00
699.5330, 20037.00
700.6880, 20276.00
701.8440, 20220.00
702.9990, 20192.00
704.1550, 20508.00
705.3100, 20384.00
706.4650, 20595.00
707.6190, 20491.00
708.7740, 20280.00
709.9290, 20312.00
711.0830, 20491.00
712.2370, 20534.00
713.3910, 20559.00
714.5450, 20593.96
715.6980, 20407.00
716.8520, 20560.00
718.0050, 20500.00
719.1580, 20484.00
720.3110, 20769.00
721.4640, 20561.00
722.6170, 20464.00
723.7700, 20613.00
724.9220, 20387.00
726.0740, 20490.00
727.2260, 20537.00
728.3780, 20581.00
729.5300, 20658.00
730.6810, 20765.00
731.8330, 20919.00
732.9840, 20743.00
734.1350, 20668.00
735.2860, 20847.00
736.4370, 20866.00
737.5880, 20731.00
738.7380, 20561.00
739.8880, 20748.00
741.0390, 20861.00
742.1890, 20725.00
743.3380, 21109.00
744.4880, 20861.00
745.6380, 21007.00
746.7870, 20776.00
747.9360, 20981.00
749.0850, 20853.00
750.2340, 20747.00
751.3830, 20549.00
752.5310, 20869.00
753.6800, 21016.00
754.8280, 20946.00
755.9760, 21085.00
757.1240, 21103.00
758.2720, 21060.00
759.4190, 21145.00
760.5670, 21085.94
761.7140, 20973.00
762.8610, 21011.00
764.0080, 20940.00
765.1550, 20884.75
766.3020, 20863.83
767.4480, 20791.00
768.5950, 20777.00
769.7410, 20984.00
770.8870, 20969.00
772.0330, 21080.00
773.1780, 21160.00
774.3240, 21098.00
775.4690, 20782.00
776.6140, 21038.00
777.7590, 20809.00
778.9040, 20768.00
780.0490, 20917.00
781.1940, 21072.00
782.3380, 21058.00
783.4820, 21097.00
784.6260, 21126.00
785.7700, 21115.97
786.9140, 21114.25
788.0580, 21093.00
789.2010, 21055.00
790.3450, 21001.00
791.4880, 20942.00
792.6310, 20888.00
793.7730, 21075.00
794.9160, 20956.00
796.0590, 21157.00
797.2010, 21211.00
798.3430, 21375.00
799.4850, 21242.00
800.6270, 21203.00
801.7690, 21158.00
802.9100, 21134.00
804.0520, 21100.00
805.1930, 21097.91
806.3340, 21124.49
807.4750, 21130.00
808.6160, 21197.00
809.7560, 21270.00
810.8970, 21281.00
812.0370, 21473.00
813.1770, 21340.00
814.3170, 21358.00
815.4570, 21481.00
816.5960, 21093.00
817.7360, 21156.00
818.8750, 21215.00
820.0140, 21159.00
821.1530, 21445.00
822.2920, 21246.00
823.4310, 21237.00
824.5690, 21669.00
825.7070, 21560.00
826.8460, 21622.00
827.9840, 21395.00
829.1220, 21413.00
830.2590, 21432.00
831.3970, 21254.00
832.5340, 21447.00
833.6710, 21297.00
834.8080, 21437.00
835.9450, 21556.00
837.0820, 21661.00
838.2190, 21750.00
839.3550, 21570.00
840.4910, 21824.00
841.6270, 21826.00
842.7630, 21749.00
843.8990, 22027.00
845.0350, 21719.00
846.1700, 21709.00
847.3060, 21533.00
848.4410, 21656.00
849.5760, 21706.00
850.7100, 21901.00
851.8450, 22093.00
852.9800, 21862.00
854.1140, 21856.00
855.2480, 21789.00
856.3820, 21869.00
857.5160, 21888.00
858.6500, 21756.00
859.7830, 21878.00
860.9170, 21937.00
862.0500, 21990.00
863.1830, 21756.00
864.3160, 21891.00
865.4480, 21904.00
866.5810, 22042.00
867.7130, 21907.00
868.8460, 21725.00
869.9780, 21754.00
871.1100, 21698.00
872.2410, 21873.00
873.3730, 21736.00
874.5050, 21956.00
875.6360, 21933.00
876.7670, 21943.00
877.8980, 22164.00
879.0290, 22080.00
880.1590, 22223.00
881.2900, 21924.00
882.4200, 21957.00
883.5500, 21796.00
884.6800, 22077.00
885.8100, 21860.00
886.9400, 22071.00
888.0690, 22050.00
889.1990, 22127.00
890.3280, 22312.00
891.4570, 22162.00
892.5860, 22154.00
893.7140, 22380.00
894.8430, 22281.00
895.9710, 22301.00
897.1000, 22114.00
898.2280, 22240.00
899.3560, 22386.00
900.4830, 22185.00
901.6110, 22353.00
902.7380, 22576.00
903.8660, 22747.00
904.9930, 22692.00
906.1200, 22836.00
907.2460, 22733.00
908.3730, 22971.00
909.5000, 22845.00
910.6260, 22943.00
911.7520, 23052.00
912.8780, 23066.00
914.0040, 23162.00
915.1290, 23259.00
916.2550, 23393.00
917.3800, 23423.00
918.5050, 23679.00
919.6300, 23641.00
920.7550, 23639.00
921.8800, 23771.00
923.0040, 23709.00
924.1290, 23560.00
925.2530, 23919.00
926.3770, 23573.00
927.5010, 23668.00
928.6250, 23496.00
929.7480, 23558.00
930.8720, 23370.00
931.9950, 23322.00
933.1180, 23509.00
934.2410, 23235.00
935.3640, 23160.00
936.4860, 23250.00
937.6090, 22920.00
938.7310, 22908.00
939.8530, 23052.00
940.9750, 22732.00
942.0970, 22841.00
943.2180, 23162.00
944.3400, 22873.00
945.4610, 23158.00
946.5820, 23265.00
947.7030, 22966.00
948.8240, 22949.00
949.9450, 22967.00
951.0650, 22859.00
952.1860, 22875.00
953.3060, 22896.00
954.4260, 22783.00
955.5460, 23118.00
956.6650, 23069.00
957.7850, 22990.00
958.9040, 23152.00
960.0230, 23001.00
961.1420, 23119.00
962.2610, 23192.00
963.3800, 23014.00
964.4990, 23079.00
965.6170, 22954.00
966.7350, 23084.00
967.8530, 23068.00
968.9710, 23261.00
970.0890, 23163.00
971.2070, 23259.00
972.3240, 23317.00
973.4410, 23435.00
974.5580, 23424.48
975.6750, 23215.00
976.7920, 23379.00
977.9090, 23308.00
979.0250, 23224.00
980.1410, 23238.00
981.2580, 23376.00
982.3740, 23431.00
983.4890, 23434.00
984.6050, 23498.00
985.7200, 23544.00
986.8360, 23564.00
987.9510, 23543.00
989.0660, 23555.00
990.1810, 23430.00
991.2950, 23425.00
992.4100, 23548.00
993.5240, 23558.00
994.6390, 23684.96
995.7530, 23963.00
996.8660, 23940.00
997.9800, 24198.00
999.0940, 24333.00
1000.207, 24299.13
1001.320, 24164.00
1002.433, 24129.00
1003.546, 24158.00
1004.659, 23810.00
1005.772, 23725.00
1006.884, 23608.00
1007.996, 23976.00
1009.108, 23757.00
1010.220, 23982.00
1011.332, 23900.00
1012.444, 23909.00
1013.555, 23969.00
1014.666, 24039.00
1015.777, 24209.00
1016.888, 23793.00
1017.999, 23805.00
1019.110, 23759.00
1020.220, 23817.00
1021.331, 23832.00
1022.441, 23764.00
1023.551, 24095.00
1024.661, 24092.00
1025.770, 24043.00
1026.880, 24339.00
1027.989, 24030.00
1029.098, 24101.00
1030.207, 23875.00
1031.316, 23893.00
1032.425, 24020.00
1033.533, 24003.00
1034.642, 23917.00
1035.750, 24121.00
1036.858, 24110.00
1037.966, 24322.00
1039.073, 24273.00
1040.181, 24297.00
1041.288, 24275.00
1042.396, 24318.00
1043.503, 24570.00
1044.610, 24197.00
1045.716, 24210.00
1046.823, 24406.00
1047.929, 24253.00
1049.036, 24150.00
1050.142, 24534.00
1051.248, 24542.00
1052.353, 24690.00
1053.459, 24644.00
1054.564, 24658.00
1055.670, 24491.00
1056.775, 24424.00
1057.880, 24447.00
1058.985, 24327.00
1060.089, 24438.00
1061.194, 24424.00
1062.298, 24923.00
1063.402, 24819.50
1064.506, 25035.00
1065.610, 24903.00
1066.713, 24833.00
1067.817, 24902.00
1068.920, 24743.00
1070.023, 24910.00
1071.126, 24827.00
1072.229, 24761.00
1073.332, 25731.00
1074.435, 25645.00
1075.537, 25667.00
1076.639, 25770.31
1077.741, 25499.09
1078.843, 25410.00
1079.945, 25172.00
1081.046, 25007.00
1082.148, 25187.00
1083.249, 24982.00
1084.350, 24898.00
1085.451, 25168.00
1086.551, 25241.00
1087.652, 24847.00
1088.752, 24979.00
1089.853, 24976.00
1090.953, 25137.00
1092.053, 25195.00
1093.152, 25322.00
1094.252, 25247.00
1095.351, 25132.00
1096.451, 25154.00
1097.550, 25024.00
1098.649, 25213.00
1099.748, 25126.00
1100.846, 25052.00
1101.945, 25154.00
1103.043, 25390.00
1104.141, 25401.00
1105.239, 25322.00
1106.337, 25411.00
1107.434, 25421.00
1108.532, 25468.00
1109.629, 25438.00
1110.726, 25452.00
1111.823, 25372.00
1112.920, 25336.00
1114.017, 25546.00
1115.113, 25521.00
1116.210, 25634.00
1117.306, 25796.00
1118.402, 25775.00
1119.498, 25796.00
1120.593, 25566.00
1121.689, 25915.00
1122.784, 25559.00
1123.879, 25758.00
1124.974, 25662.00
1126.069, 25550.00
1127.164, 25418.00
1128.259, 25565.00
1129.353, 25954.00
1130.447, 25979.00
1131.541, 26141.00
1132.635, 25790.00
1133.729, 25943.00
1134.822, 26003.00
1135.916, 25742.00
1137.009, 25813.00
1138.102, 25768.00
1139.195, 25684.00
1140.288, 25668.00
1141.380, 25958.00
1142.473, 25724.00
1143.565, 25893.00
1144.657, 26165.00
1145.749, 26079.00
1146.841, 25954.00
1147.932, 26091.00
1149.024, 26145.00
1150.115, 26053.00
1151.206, 26078.00
1152.297, 25929.00
1153.388, 26058.00
1154.479, 26162.00
1155.569, 25950.00
1156.659, 26156.00
1157.750, 26358.00
1158.839, 26623.00
1159.929, 26296.00
1161.019, 26510.00
1162.108, 26397.00
1163.198, 26207.00
1164.287, 26348.00
1165.376, 26321.00
1166.465, 26223.00
1167.553, 26476.00
1168.642, 26522.00
1169.730, 26375.00
1170.818, 26721.00
1171.906, 26659.00
1172.994, 26573.00
1174.082, 26826.00
1175.170, 26679.00
1176.257, 26783.00
1177.344, 26578.00
1178.431, 26629.00
1179.518, 26597.00
1180.605, 26730.00
1181.691, 26746.00
1182.778, 26719.00
1183.864, 26846.00
1184.950, 26955.00
1186.036, 27057.00
1187.122, 26962.00
1188.207, 26816.00
1189.292, 26973.00
1190.378, 27063.00
1191.463, 26801.00
1192.548, 27055.00
1193.632, 27094.00
1194.717, 26899.00
1195.801, 26984.00
1196.886, 27334.00
1197.970, 27157.00
1199.054, 27376.00
1200.137, 27367.00
1201.221, 27553.00
1202.305, 27471.00
1203.388, 27493.00
1204.471, 27289.00
1205.554, 27354.00
1206.637, 27427.00
1207.719, 27797.00
1208.802, 27463.00
1209.884, 27804.00
1210.966, 27881.00
1212.048, 27685.00
1213.130, 27879.00
1214.212, 28138.00
1215.293, 28150.00
1216.374, 27926.00
1217.456, 27866.00
1218.536, 27837.00
1219.617, 27837.00
1220.698, 27915.00
1221.778, 27875.00
1222.859, 27904.00
1223.939, 27799.00
1225.019, 28029.00
1226.099, 28043.51
1227.178, 28336.00
1228.258, 28211.00
1229.337, 28275.00
1230.417, 28247.00
1231.496, 28149.00
1232.574, 28480.00
1233.653, 28408.00
1234.732, 28040.00
1235.810, 28593.00
1236.888, 28365.00
1237.966, 28598.00
1239.044, 28620.00
1240.122, 28571.00
1241.199, 29002.00
1242.277, 28996.00
1243.354, 28878.00
1244.431, 28686.00
1245.508, 28970.00
1246.585, 28870.00
1247.661, 28856.00
1248.738, 28778.00
1249.814, 29263.00
1250.890, 29077.00
1251.966, 29158.00
1253.042, 29291.00
1254.117, 29274.00
1255.193, 29527.00
1256.268, 29479.00
1257.343, 29402.00
1258.418, 29347.00
1259.493, 29212.00
1260.567, 29258.00
1261.642, 29325.00
1262.716, 29551.00
1263.790, 29577.00
1264.864, 29592.00
1265.938, 29731.00
1267.011, 29718.00
1268.085, 29691.00
1269.158, 29670.00
1270.231, 29596.50
1271.304, 29566.00
1272.377, 29493.00
1273.450, 29435.00
1274.522, 29514.00
1275.594, 29685.00
1276.666, 29747.00
1277.738, 29694.00
1278.810, 30000.00
1279.882, 29895.00
1280.953, 30294.00
1282.025, 30208.00
1283.096, 30166.00
1284.167, 30074.00
1285.238, 30308.00
1286.308, 30143.00
1287.379, 30255.00
1288.449, 30415.00
1289.519, 30355.00
1290.589, 30584.00
1291.659, 30750.00
1292.729, 30772.45
1293.798, 31132.00
1294.868, 30820.00
1295.937, 31083.00
1297.006, 30928.00
1298.075, 30945.00
1299.143, 30951.00
1300.212, 30828.00
1301.280, 31064.00
1302.348, 31096.00
1303.416, 30984.00
1304.484, 31271.00
1305.552, 31390.00
1306.620, 31473.00
1307.687, 31563.97
1308.754, 31622.21
1309.821, 31568.00
1310.888, 31633.00
1311.955, 31570.00
1313.021, 31392.00
1314.088, 31794.00
1315.154, 31941.00
1316.220, 31718.00
1317.286, 31764.00
1318.352, 32032.00
1319.417, 32310.00
1320.483, 32131.00
1321.548, 32485.00
##END=



