##NAMES=Covellite
##RRUFFID=R060306
##IDEAL CHEMISTRY=Cu^1+^S
##LOCALITY=3800' level, Leonard mine, Butte, Silver Bow County, Montana, USA
##OWNER=RRUFF
##SOURCE=Michael Scott
##DESCRIPTION=Blue iridescent metallic hexagonal plates
##STATUS=The identification of this mineral has been confirmed by X-ray diffraction and chemical analysis
##URL=rruff.info/R060306
##MEASURED CHEMISTRY=Cu_1.00_S_1.00_
##PIN_ID=M00422
##ORIENTATION=Laser parallel to -c* (0 0 -1). Fiducial mark perpendicular to laser is parallel to a [1 0 0]
92.24600, 9205.000
93.48000, 9305.000
94.71400, 9420.000
95.94800, 9613.000
97.18200, 9588.000
98.41600, 9597.000
99.64900, 10186.00
100.8830, 10298.00
102.1160, 10398.00
103.3490, 10457.00
104.5820, 11100.00
105.8150, 11972.00
107.0470, 13394.00
108.2800, 16638.00
109.5120, 18267.00
110.7440, 15321.00
111.9760, 13401.00
113.2080, 13463.00
114.4400, 13711.00
115.6710, 14141.00
116.9030, 13727.00
118.1340, 13212.00
119.3650, 12344.00
120.5960, 11776.00
121.8270, 11536.00
123.0580, 11394.00
124.2880, 11228.46
125.5190, 11424.00
126.7490, 11388.00
127.9790, 11515.00
129.2090, 11993.00
130.4390, 12212.00
131.6680, 12599.00
132.8980, 13137.00
134.1270, 13639.00
135.3560, 14482.00
136.5850, 15567.00
137.8140, 16890.00
139.0430, 17826.00
140.2710, 18312.00
141.5000, 17344.00
142.7280, 16019.00
143.9560, 15008.00
145.1840, 13901.00
146.4120, 13070.00
147.6390, 12474.00
148.8670, 11800.00
150.0940, 11343.00
151.3210, 10984.60
152.5490, 11234.00
153.7750, 10537.00
155.0020, 10368.00
156.2290, 10325.00
157.4550, 9970.000
158.6810, 9859.000
159.9080, 9768.000
161.1340, 9555.000
162.3590, 9653.000
163.5850, 9743.000
164.8110, 9879.000
166.0360, 9870.000
167.2610, 9705.000
168.4860, 9593.000
169.7110, 9537.000
170.9360, 9470.426
172.1610, 9441.940
173.3850, 9443.000
174.6100, 9425.000
175.8340, 9449.000
177.0580, 9451.000
178.2820, 9513.000
179.5050, 9390.000
180.7290, 9494.000
181.9520, 9464.000
183.1760, 9411.000
184.3990, 9516.000
185.6220, 9550.000
186.8450, 9763.000
188.0670, 9781.000
189.2900, 9856.075
190.5120, 9885.000
191.7340, 9996.000
192.9560, 10073.00
194.1780, 10252.00
195.4000, 10288.00
196.6220, 10292.00
197.8430, 10237.00
199.0640, 10226.00
200.2860, 10347.00
201.5070, 10628.00
202.7270, 10606.00
203.9480, 10229.00
205.1690, 9566.000
206.3890, 9108.000
207.6090, 8924.000
208.8290, 8878.000
210.0490, 8838.000
211.2690, 8839.000
212.4890, 8759.000
213.7080, 8763.159
214.9280, 8722.376
216.1470, 8717.000
217.3660, 8689.000
218.5850, 8616.000
219.8030, 8660.000
221.0220, 8689.000
222.2400, 8609.000
223.4590, 8671.000
224.6770, 8730.000
225.8950, 8720.000
227.1120, 8503.000
228.3300, 8538.000
229.5480, 8564.000
230.7650, 8642.000
231.9820, 8659.000
233.1990, 8580.000
234.4160, 8722.000
235.6330, 8632.000
236.8490, 8614.000
238.0660, 8797.000
239.2820, 8683.000
240.4980, 8728.000
241.7140, 8663.000
242.9300, 8699.000
244.1460, 8752.000
245.3610, 8687.000
246.5770, 8747.000
247.7920, 8783.000
249.0070, 8801.873
250.2220, 8940.000
251.4370, 8956.000
252.6510, 9143.000
253.8660, 9363.000
255.0800, 9545.000
256.2940, 9611.353
257.5080, 9757.757
258.7220, 9878.245
259.9360, 9974.213
261.1490, 9972.132
262.3630, 10096.64
263.5760, 10170.37
264.7890, 10166.00
266.0020, 10171.00
267.2150, 10108.00
268.4270, 9975.000
269.6400, 9916.000
270.8520, 9799.000
272.0640, 9722.000
273.2760, 9588.000
274.4880, 9538.152
275.7000, 9409.000
276.9120, 9432.000
278.1230, 9359.000
279.3340, 9309.000
280.5450, 9197.000
281.7560, 9231.000
282.9670, 9068.000
284.1780, 9056.000
285.3880, 9150.000
286.5980, 9077.000
287.8090, 9003.000
289.0190, 9113.000
290.2290, 9181.000
291.4380, 8926.000
292.6480, 9135.000
293.8570, 8991.000
295.0670, 9106.000
296.2760, 9038.000
297.4850, 8978.000
298.6930, 9054.000
299.9020, 8989.000
301.1110, 9023.000
302.3190, 8969.000
303.5270, 9033.000
304.7350, 8934.000
305.9430, 9078.000
307.1510, 9019.000
308.3580, 9092.000
309.5660, 8973.000
310.7730, 9037.000
311.9800, 8922.000
313.1870, 8942.000
314.3940, 8927.000
315.6010, 8977.000
316.8070, 8964.000
318.0130, 9078.000
319.2200, 9087.000
320.4260, 9045.000
321.6310, 9044.000
322.8370, 8928.000
324.0430, 9119.000
325.2480, 9083.000
326.4540, 9096.000
327.6590, 9013.000
328.8640, 9043.000
330.0680, 9101.000
331.2730, 9136.000
332.4780, 9081.000
333.6820, 9237.000
334.8860, 9099.000
336.0900, 9018.000
337.2940, 9219.000
338.4980, 9162.000
339.7010, 9222.000
340.9050, 9224.000
342.1080, 9195.597
343.3110, 9185.000
344.5140, 9217.000
345.7170, 9136.000
346.9200, 9282.000
348.1220, 9238.000
349.3240, 9280.000
350.5270, 9211.000
351.7290, 9223.000
352.9310, 9311.000
354.1320, 9140.000
355.3340, 9353.000
356.5350, 9372.000
357.7370, 9196.000
358.9380, 9338.000
360.1390, 9317.000
361.3400, 9489.000
362.5400, 9450.921
363.7410, 9418.000
364.9410, 9390.000
366.1410, 9380.466
367.3410, 9392.000
368.5410, 9362.000
369.7410, 9392.000
370.9400, 9359.000
372.1400, 9459.000
373.3390, 9404.000
374.5380, 9473.000
375.7370, 9540.000
376.9360, 9448.000
378.1350, 9446.000
379.3330, 9526.000
380.5310, 9491.000
381.7300, 9478.000
382.9280, 9610.000
384.1260, 9453.000
385.3230, 9611.000
386.5210, 9508.000
387.7180, 9618.000
388.9160, 9571.000
390.1130, 9615.000
391.3100, 9710.000
392.5060, 9626.000
393.7030, 9649.000
394.9000, 9636.000
396.0960, 9687.000
397.2920, 9601.000
398.4880, 9701.000
399.6840, 9671.000
400.8800, 9752.000
402.0750, 9702.000
403.2710, 9701.000
404.4660, 9812.000
405.6610, 9711.000
406.8560, 9650.000
408.0510, 9578.000
409.2450, 9696.000
410.4400, 9739.000
411.6340, 9602.000
412.8280, 9489.000
414.0220, 9507.000
415.2160, 9615.000
416.4100, 9521.000
417.6030, 9626.000
418.7970, 9623.000
419.9900, 9569.000
421.1830, 9542.000
422.3760, 9610.000
423.5690, 9595.000
424.7610, 9609.593
425.9540, 9620.000
427.1460, 9633.000
428.3380, 9687.000
429.5300, 9715.000
430.7220, 9714.000
431.9140, 9825.000
433.1050, 9766.000
434.2970, 9621.000
435.4880, 10009.00
436.6790, 9972.000
437.8700, 9801.000
439.0610, 10080.00
440.2510, 10117.00
441.4420, 10174.00
442.6320, 10287.00
443.8220, 10458.00
445.0120, 10576.00
446.2020, 10853.00
447.3910, 11131.00
448.5810, 11257.00
449.7700, 11732.00
450.9600, 11966.00
452.1490, 12481.00
453.3370, 12733.00
454.5260, 13365.00
455.7150, 14000.00
456.9030, 14651.00
458.0910, 15344.00
459.2800, 16315.00
460.4670, 17215.00
461.6550, 18290.00
462.8430, 19886.00
464.0300, 21704.00
465.2180, 24314.00
466.4050, 28284.00
467.5920, 33610.00
468.7790, 40816.00
469.9650, 49488.00
471.1520, 58483.00
472.3380, 64472.00
473.5250, 64687.00
474.7110, 58384.00
475.8970, 49388.00
477.0820, 40428.00
478.2680, 32936.00
479.4540, 27585.00
480.6390, 23626.00
481.8240, 20778.00
483.0090, 18489.00
484.1940, 17067.00
485.3780, 15585.00
486.5630, 14867.00
487.7470, 14081.00
488.9320, 13606.00
490.1160, 13138.00
491.3000, 12657.00
492.4830, 12400.00
493.6670, 12085.00
494.8500, 11835.00
496.0340, 11642.00
497.2170, 11563.00
498.4000, 11267.00
499.5820, 11407.00
500.7650, 11183.00
501.9480, 11066.00
503.1300, 11184.00
504.3120, 10935.00
505.4940, 10878.00
506.6760, 10816.00
507.8580, 10888.00
509.0390, 10963.00
510.2210, 10867.84
511.4020, 10721.00
512.5830, 10768.00
513.7640, 10788.00
514.9450, 10834.00
516.1250, 10786.00
517.3060, 10867.00
518.4860, 10879.00
519.6660, 10950.00
520.8460, 10720.00
522.0260, 10795.00
523.2060, 10692.00
524.3850, 10538.00
525.5650, 10750.00
526.7440, 10636.00
527.9230, 10483.00
529.1020, 10577.00
530.2810, 10739.00
531.4590, 10659.00
532.6380, 10631.00
533.8160, 10486.00
534.9940, 10513.69
536.1720, 10697.00
537.3500, 10569.00
538.5270, 10619.00
539.7050, 10731.00
540.8820, 10618.00
542.0590, 10677.00
543.2360, 10578.00
544.4130, 10559.00
545.5900, 10551.00
546.7660, 10509.10
547.9430, 10538.00
549.1190, 10462.00
550.2950, 10557.00
551.4710, 10502.00
552.6470, 10478.40
553.8220, 10567.00
554.9980, 10428.00
556.1730, 10393.00
557.3480, 10419.00
558.5230, 10361.00
559.6980, 10444.00
560.8730, 10401.00
562.0470, 10376.00
563.2220, 10386.00
564.3960, 10349.00
565.5700, 10216.00
566.7440, 10288.00
567.9170, 10240.11
569.0910, 10232.21
570.2640, 10282.00
571.4380, 10209.00
572.6110, 10284.00
573.7840, 10203.00
574.9570, 10130.00
576.1290, 10138.00
577.3020, 10092.66
578.4740, 10170.00
579.6460, 10025.00
580.8180, 10032.00
581.9900, 9894.000
583.1620, 9849.000
584.3330, 10076.00
585.5040, 9839.000
586.6760, 9928.000
587.8470, 9966.000
589.0180, 9923.000
590.1880, 9932.000
591.3590, 9865.000
592.5290, 9879.000
593.7000, 9883.000
594.8700, 9899.000
596.0400, 9967.000
597.2090, 9940.000
598.3790, 10066.00
599.5490, 9914.000
600.7180, 9916.000
601.8870, 9944.000
603.0560, 9852.000
604.2250, 9927.000
605.3940, 10027.00
606.5620, 9948.000
607.7300, 9947.000
608.8990, 9962.000
610.0670, 9898.000
611.2350, 9995.000
612.4020, 9882.000
613.5700, 9771.000
614.7370, 9802.000
615.9050, 9966.000
617.0720, 9869.000
618.2390, 9875.000
619.4060, 9954.000
620.5720, 9887.000
621.7390, 9870.000
622.9050, 9925.000
624.0710, 9918.000
625.2370, 9925.000
626.4030, 9792.000
627.5690, 9990.000
628.7340, 9903.000
629.9000, 9992.000
631.0650, 10030.00
632.2300, 9882.000
633.3950, 9928.000
634.5600, 9891.000
635.7240, 9934.000
636.8890, 9862.000
638.0530, 9931.000
639.2170, 9861.000
640.3810, 9893.211
641.5450, 9896.000
642.7080, 9954.000
643.8720, 9947.000
645.0350, 10006.00
646.1980, 9994.000
647.3610, 9902.000
648.5240, 9914.000
649.6870, 9857.000
650.8490, 9854.000
652.0120, 9845.000
653.1740, 9891.000
654.3360, 9862.982
655.4980, 9872.775
656.6600, 9876.000
657.8210, 9875.000
658.9830, 9962.000
660.1440, 9992.000
661.3050, 9939.000
662.4660, 9858.000
663.6270, 9875.000
664.7870, 9880.000
665.9480, 9845.000
667.1080, 9916.000
668.2680, 9864.842
669.4280, 9941.000
670.5880, 9805.000
671.7480, 9862.000
672.9070, 9828.000
674.0670, 9751.000
675.2260, 9821.189
676.3850, 9841.000
677.5440, 9851.000
678.7030, 9868.000
679.8610, 9786.000
681.0200, 9826.000
682.1780, 9909.000
683.3360, 9784.000
684.4940, 9760.000
685.6520, 9845.000
686.8090, 9891.000
687.9670, 9721.000
689.1240, 9733.000
690.2810, 9771.000
691.4380, 9768.000
692.5950, 9848.000
693.7520, 9914.000
694.9080, 9778.000
696.0650, 9826.000
697.2210, 9770.000
698.3770, 9827.000
699.5330, 9947.000
700.6880, 9772.000
701.8440, 9754.000
702.9990, 9810.000
704.1550, 9887.000
705.3100, 9777.000
706.4650, 9850.000
707.6190, 9868.000
708.7740, 9751.000
709.9290, 9727.000
711.0830, 9747.813
712.2370, 9915.000
713.3910, 9772.000
714.5450, 9831.000
715.6980, 9779.000
716.8520, 9797.645
718.0050, 9937.000
719.1580, 9844.000
720.3110, 9955.000
721.4640, 9913.000
722.6170, 10125.00
723.7700, 9973.000
724.9220, 9974.000
726.0740, 9874.000
727.2260, 9940.000
728.3780, 9969.000
729.5300, 10101.00
730.6810, 10069.00
731.8330, 9999.000
732.9840, 10152.00
734.1350, 10098.00
735.2860, 10132.68
736.4370, 10162.00
737.5880, 10196.00
738.7380, 10124.00
739.8880, 10209.00
741.0390, 10132.00
742.1890, 10142.88
743.3380, 10098.00
744.4880, 10155.00
745.6380, 10147.00
746.7870, 10205.00
747.9360, 10118.00
749.0850, 10167.00
750.2340, 10249.00
751.3830, 10175.00
752.5310, 10152.00
753.6800, 10250.00
754.8280, 10097.00
755.9760, 10143.00
757.1240, 10156.00
758.2720, 10079.00
759.4190, 10170.00
760.5670, 10296.00
761.7140, 10205.00
762.8610, 10122.00
764.0080, 10293.00
765.1550, 10148.00
766.3020, 10057.00
767.4480, 10040.00
768.5950, 10022.00
769.7410, 10101.00
770.8870, 10152.00
772.0330, 10083.00
773.1780, 10231.00
774.3240, 10110.00
775.4690, 10116.00
776.6140, 10055.00
777.7590, 10218.00
778.9040, 10190.00
780.0490, 10209.00
781.1940, 10074.00
782.3380, 10176.00
783.4820, 10144.00
784.6260, 10096.00
785.7700, 10175.00
786.9140, 10175.00
788.0580, 10073.00
789.2010, 10147.00
790.3450, 10250.00
791.4880, 10181.00
792.6310, 10171.00
793.7730, 10031.00
794.9160, 9986.000
796.0590, 10174.00
797.2010, 10110.00
798.3430, 10331.00
799.4850, 10187.00
800.6270, 10230.00
801.7690, 10124.00
802.9100, 10085.00
804.0520, 10240.00
805.1930, 10179.00
806.3340, 10194.00
807.4750, 10295.00
808.6160, 10182.00
809.7560, 10271.00
810.8970, 10214.00
812.0370, 10166.00
813.1770, 10228.00
814.3170, 10200.00
815.4570, 10286.00
816.5960, 10232.00
817.7360, 10222.00
818.8750, 10375.00
820.0140, 10224.00
821.1530, 10170.00
822.2920, 10240.00
823.4310, 10279.00
824.5690, 10350.00
825.7070, 10259.00
826.8460, 10168.00
827.9840, 10429.00
829.1220, 10216.00
830.2590, 10374.00
831.3970, 10215.00
832.5340, 10371.00
833.6710, 10342.00
834.8080, 10285.00
835.9450, 10296.00
837.0820, 10200.00
838.2190, 10418.00
839.3550, 10300.00
840.4910, 10179.00
841.6270, 10430.00
842.7630, 10404.00
843.8990, 10253.00
845.0350, 10457.00
846.1700, 10548.00
847.3060, 10388.00
848.4410, 10314.00
849.5760, 10407.00
850.7100, 10473.00
851.8450, 10396.00
852.9800, 10403.00
854.1140, 10457.00
855.2480, 10437.00
856.3820, 10441.00
857.5160, 10499.00
858.6500, 10417.00
859.7830, 10507.00
860.9170, 10450.00
862.0500, 10493.00
863.1830, 10385.00
864.3160, 10398.36
865.4480, 10497.00
866.5810, 10413.00
867.7130, 10447.00
868.8460, 10545.00
869.9780, 10410.00
871.1100, 10425.00
872.2410, 10471.00
873.3730, 10548.00
874.5050, 10603.00
875.6360, 10591.00
876.7670, 10631.67
877.8980, 10509.00
879.0290, 10582.00
880.1590, 10542.00
881.2900, 10378.00
882.4200, 10643.00
883.5500, 10658.00
884.6800, 10647.00
885.8100, 10608.00
886.9400, 10694.00
888.0690, 10547.00
889.1990, 10768.00
890.3280, 10624.00
891.4570, 10664.00
892.5860, 10675.00
893.7140, 10590.00
894.8430, 10624.00
895.9710, 10778.00
897.1000, 10765.00
898.2280, 10889.00
899.3560, 10884.00
900.4830, 10923.00
901.6110, 10971.00
902.7380, 10875.00
903.8660, 11063.00
904.9930, 10987.00
906.1200, 11123.00
907.2460, 11265.00
908.3730, 11227.00
909.5000, 11246.00
910.6260, 11379.00
911.7520, 11329.00
912.8780, 11329.00
914.0040, 11492.00
915.1290, 11613.00
916.2550, 11595.00
917.3800, 11787.00
918.5050, 11675.00
919.6300, 11851.00
920.7550, 11996.00
921.8800, 12045.00
923.0040, 12003.00
924.1290, 12060.00
925.2530, 12033.00
926.3770, 12054.00
927.5010, 12033.00
928.6250, 12047.00
929.7480, 12054.00
930.8720, 11742.00
931.9950, 11627.00
933.1180, 11620.00
934.2410, 11542.00
935.3640, 11404.00
936.4860, 11243.00
937.6090, 11249.00
938.7310, 11244.00
939.8530, 11305.00
940.9750, 11187.00
942.0970, 11172.00
943.2180, 11279.00
944.3400, 11136.00
945.4610, 11144.00
946.5820, 11071.00
947.7030, 11076.00
948.8240, 11090.00
949.9450, 11065.00
951.0650, 11119.00
952.1860, 11147.00
953.3060, 11118.00
954.4260, 10947.00
955.5460, 11105.00
956.6650, 11025.00
957.7850, 11069.00
958.9040, 11104.00
960.0230, 10970.00
961.1420, 11016.00
962.2610, 11000.00
963.3800, 11018.00
964.4990, 11171.00
965.6170, 10915.00
966.7350, 11217.00
967.8530, 11108.00
968.9710, 11213.00
970.0890, 11047.00
971.2070, 11386.00
972.3240, 11241.90
973.4410, 11190.00
974.5580, 11185.00
975.6750, 11099.00
976.7920, 11137.00
977.9090, 11138.00
979.0250, 11276.00
980.1410, 11158.00
981.2580, 11316.00
982.3740, 11233.00
983.4890, 11279.00
984.6050, 11245.00
985.7200, 11221.00
986.8360, 11258.00
987.9510, 11324.00
989.0660, 11287.00
990.1810, 11243.00
991.2950, 11208.00
992.4100, 11438.00
993.5240, 11193.00
994.6390, 11376.00
995.7530, 11461.00
996.8660, 11340.00
997.9800, 11386.00
999.0940, 11316.00
1000.207, 11417.00
1001.320, 11417.00
1002.433, 11384.00
1003.546, 11502.00
1004.659, 11402.00
1005.772, 11347.00
1006.884, 11332.00
1007.996, 11414.00
1009.108, 11384.00
1010.220, 11399.00
1011.332, 11368.00
1012.444, 11408.00
1013.555, 11356.00
1014.666, 11380.00
1015.777, 11465.00
1016.888, 11363.00
1017.999, 11345.00
1019.110, 11323.00
1020.220, 11476.00
1021.331, 11330.00
1022.441, 11453.00
1023.551, 11452.00
1024.661, 11461.00
1025.770, 11460.00
1026.880, 11440.00
1027.989, 11401.00
1029.098, 11381.00
1030.207, 11385.00
1031.316, 11373.17
1032.425, 11419.00
1033.533, 11378.00
1034.642, 11394.00
1035.750, 11388.78
1036.858, 11508.00
1037.966, 11435.00
1039.073, 11436.00
1040.181, 11520.00
1041.288, 11473.10
1042.396, 11443.00
1043.503, 11469.00
1044.610, 11391.00
1045.716, 11363.00
1046.823, 11586.00
1047.929, 11583.00
1049.036, 11690.00
1050.142, 11704.60
1051.248, 11592.00
1052.353, 11667.00
1053.459, 11532.00
1054.564, 11499.00
1055.670, 11499.00
1056.775, 11460.09
1057.880, 11454.50
1058.985, 11492.00
1060.089, 11461.00
1061.194, 11514.00
1062.298, 11578.00
1063.402, 11562.00
1064.506, 11544.00
1065.610, 11402.00
1066.713, 11512.00
1067.817, 11560.00
1068.920, 11487.00
1070.023, 11630.00
1071.126, 11607.00
1072.229, 11567.00
1073.332, 11636.00
1074.435, 11482.00
1075.537, 11488.00
1076.639, 11640.00
1077.741, 11603.00
1078.843, 11542.00
1079.945, 11592.00
1081.046, 11548.22
1082.148, 11601.00
1083.249, 11538.00
1084.350, 11666.00
1085.451, 11687.00
1086.551, 11614.00
1087.652, 11691.00
1088.752, 11552.00
1089.853, 11582.00
1090.953, 11512.00
1092.053, 11564.00
1093.152, 11614.00
1094.252, 11603.00
1095.351, 11526.00
1096.451, 11522.49
1097.550, 11723.00
1098.649, 11483.00
1099.748, 11515.00
1100.846, 11620.00
1101.945, 11442.00
1103.043, 11468.00
1104.141, 11565.00
1105.239, 11495.00
1106.337, 11635.00
1107.434, 11537.00
1108.532, 11439.00
1109.629, 11587.00
1110.726, 11590.00
1111.823, 11556.39
1112.920, 11850.00
1114.017, 11591.00
1115.113, 11688.00
1116.210, 11911.00
1117.306, 11862.00
1118.402, 12097.00
1119.498, 12262.00
1120.593, 12556.00
1121.689, 12517.08
1122.784, 12315.00
1123.879, 12400.00
1124.974, 12295.00
1126.069, 12153.00
1127.164, 12067.00
1128.259, 11979.00
1129.353, 11819.00
1130.447, 11720.04
1131.541, 11784.00
1132.635, 11527.00
1133.729, 11544.00
1134.822, 11593.00
1135.916, 11472.00
1137.009, 11603.00
1138.102, 11422.00
1139.195, 11410.00
1140.288, 11426.00
1141.380, 11501.00
1142.473, 11567.00
1143.565, 11506.00
1144.657, 11454.00
1145.749, 11461.00
1146.841, 11338.00
1147.932, 11402.00
1149.024, 11370.00
1150.115, 11472.00
1151.206, 11457.00
1152.297, 11420.00
1153.388, 11342.00
1154.479, 11343.00
1155.569, 11382.00
1156.659, 11385.00
1157.750, 11385.00
1158.839, 11411.00
1159.929, 11407.00
1161.019, 11410.56
1162.108, 11537.00
1163.198, 11390.00
1164.287, 11459.00
1165.376, 11418.00
1166.465, 11346.38
1167.553, 11411.00
1168.642, 11265.00
1169.730, 11385.00
1170.818, 11434.00
1171.906, 11517.00
1172.994, 11460.00
1174.082, 11251.00
1175.170, 11372.00
1176.257, 11381.00
1177.344, 11421.00
1178.431, 11451.00
1179.518, 11436.00
1180.605, 11416.00
1181.691, 11553.00
1182.778, 11422.00
1183.864, 11493.00
1184.950, 11400.00
1186.036, 11352.00
1187.122, 11552.00
1188.207, 11434.00
1189.292, 11430.00
1190.378, 11411.00
1191.463, 11341.00
1192.548, 11515.00
1193.632, 11361.00
1194.717, 11421.00
1195.801, 11395.00
1196.886, 11283.00
1197.970, 11339.00
1199.054, 11327.70
1200.137, 11558.00
1201.221, 11447.00
1202.305, 11382.00
1203.388, 11539.00
1204.471, 11472.00
1205.554, 11508.00
1206.637, 11474.00
1207.719, 11520.00
1208.802, 11468.00
1209.884, 11494.00
1210.966, 11567.00
1212.048, 11470.00
1213.130, 11478.00
1214.212, 11486.00
1215.293, 11449.00
1216.374, 11575.00
1217.456, 11450.00
1218.536, 11640.00
1219.617, 11471.00
1220.698, 11554.00
1221.778, 11495.00
1222.859, 11596.00
1223.939, 11450.00
1225.019, 11657.00
1226.099, 11465.00
1227.178, 11484.00
1228.258, 11627.00
1229.337, 11631.00
1230.417, 11597.00
1231.496, 11576.00
1232.574, 11492.00
1233.653, 11551.00
1234.732, 11529.00
1235.810, 11576.00
1236.888, 11574.98
1237.966, 11640.00
1239.044, 11598.00
1240.122, 11574.00
1241.199, 11632.00
1242.277, 11675.00
1243.354, 11552.00
1244.431, 11520.00
1245.508, 11672.00
1246.585, 11526.00
1247.661, 11491.00
1248.738, 11703.00
1249.814, 11544.00
1250.890, 11696.00
1251.966, 11630.00
1253.042, 11542.00
1254.117, 11683.00
1255.193, 11766.00
1256.268, 11584.00
1257.343, 11685.00
1258.418, 11674.00
1259.493, 11660.00
1260.567, 11586.00
1261.642, 11575.00
1262.716, 11721.00
1263.790, 11637.00
1264.864, 11697.00
1265.938, 11736.00
1267.011, 11657.00
1268.085, 11668.00
1269.158, 11695.00
1270.231, 11618.00
1271.304, 11649.00
1272.377, 11512.00
1273.450, 11633.00
1274.522, 11672.00
1275.594, 11775.00
1276.666, 11655.00
1277.738, 11712.00
1278.810, 11543.00
1279.882, 11622.00
1280.953, 11751.00
1282.025, 11771.00
1283.096, 11619.00
1284.167, 11696.00
1285.238, 11582.00
1286.308, 11624.00
1287.379, 11662.00
1288.449, 11697.00
1289.519, 11718.95
1290.589, 11652.00
1291.659, 11785.00
1292.729, 11768.00
1293.798, 11864.68
1294.868, 11741.00
1295.937, 11911.00
1297.006, 11900.00
1298.075, 11751.00
1299.143, 11883.00
1300.212, 11683.00
1301.280, 11797.00
1302.348, 11858.00
1303.416, 11707.00
1304.484, 11966.00
1305.552, 11802.00
1306.620, 11853.00
1307.687, 11663.00
1308.754, 11845.00
1309.821, 11788.00
1310.888, 11880.00
1311.955, 11809.00
1313.021, 11795.00
1314.088, 11978.00
1315.154, 11917.00
1316.220, 11755.00
1317.286, 11895.00
1318.352, 11956.00
1319.417, 11832.00
1320.483, 11798.00
1321.548, 11850.00
1322.613, 11950.00
1323.678, 11968.00
1324.743, 12018.00
1325.807, 11829.00
1326.872, 11830.00
1327.936, 11980.00
1329.000, 11831.00
1330.064, 11975.00
1331.128, 11888.00
1332.191, 11927.00
1333.255, 11936.00
1334.318, 11831.00
1335.381, 11885.00
1336.444, 11990.00
1337.507, 11920.00
1338.569, 11915.00
1339.632, 12025.00
1340.694, 11930.00
1341.756, 12051.00
1342.818, 11936.00
1343.880, 11925.75
1344.941, 12087.00
1346.003, 11866.00
1347.064, 11944.00
1348.125, 11977.00
1349.186, 11973.00
1350.247, 11855.00
1351.308, 12013.00
1352.368, 11952.00
1353.428, 11931.00
1354.489, 12028.00
1355.549, 11988.00
1356.608, 12031.00
1357.668, 12014.00
1358.727, 12028.00
1359.787, 12000.00
1360.846, 12010.89
1361.905, 11990.00
1362.964, 12014.00
1364.022, 12096.00
1365.081, 12088.00
1366.139, 12041.00
1367.197, 11986.00
1368.255, 12066.00
1369.313, 12006.00
1370.371, 12020.00
1371.428, 11953.00
1372.486, 12000.00
1373.543, 12140.00
1374.600, 12086.00
1375.657, 12032.00
1376.713, 12109.00
1377.770, 12073.11
1378.826, 12125.00
1379.882, 12116.00
1380.938, 12113.00
1381.994, 12161.00
1383.050, 12138.00
1384.106, 11947.00
1385.161, 12065.47
1386.216, 12048.37
1387.271, 12119.00
1388.326, 12147.00
1389.381, 12070.00
1390.435, 12047.00
1391.490, 12066.00
1392.544, 12004.00
1393.598, 11992.00
1394.652, 11996.10
1395.705, 12020.01
1396.759, 12014.00
1397.812, 12098.00
1398.866, 12135.00
1399.919, 12121.00
1400.972, 12114.00
1402.024, 12087.00
1403.077, 12068.00
1404.129, 12133.00
1405.181, 12027.00
1406.233, 12083.00
1407.285, 12254.00
1408.337, 12197.00
1409.389, 12094.00
1410.440, 12194.00
1411.491, 12166.00
1412.542, 12007.00
1413.593, 12046.00
1414.644, 12070.00
1415.695, 12174.00
1416.745, 12106.00
1417.795, 12361.00
1418.845, 12154.00
1419.895, 12038.00
1420.945, 12052.00
1421.995, 12237.00
1423.044, 12208.00
1424.093, 12140.00
1425.142, 12040.00
1426.191, 12044.00
1427.240, 12165.00
1428.289, 12056.00
1429.337, 11974.00
1430.385, 12129.00
1431.433, 12097.00
1432.481, 12171.99
1433.529, 12196.00
1434.577, 12228.00
1435.624, 12242.00
1436.672, 12065.00
1437.719, 12254.00
1438.766, 12126.00
1439.812, 12398.00
1440.859, 12187.00
1441.905, 12037.00
1442.952, 12120.00
1443.998, 12088.00
1445.044, 12148.00
1446.090, 12133.00
1447.135, 12258.00
1448.181, 12142.00
1449.226, 12318.00
1450.271, 12251.00
1451.316, 12362.00
1452.361, 12157.00
1453.405, 12208.96
1454.450, 12180.00
1455.494, 12195.00
1456.538, 12191.00
1457.582, 12211.00
1458.626, 12332.00
1459.670, 12245.00
1460.713, 12292.00
1461.757, 12246.00
1462.800, 12240.38
1463.843, 12256.00
1464.886, 12224.00
1465.928, 12194.00
1466.971, 12157.00
1468.013, 12188.00
1469.055, 12290.00
1470.097, 12447.00
1471.139, 12203.00
1472.181, 12138.00
1473.222, 12290.00
1474.263, 12362.00
1475.305, 12311.00
1476.346, 12211.00
1477.386, 12207.00
1478.427, 12313.00
1479.468, 12322.00
1480.508, 12351.00
1481.548, 12412.00
1482.588, 12274.00
1483.628, 12335.00
1484.668, 12183.00
1485.707, 12292.00
1486.747, 12462.00
1487.786, 12283.00
1488.825, 12338.00
1489.864, 12344.00
1490.902, 12216.00
1491.941, 12256.00
1492.979, 12283.00
1494.017, 12291.00
1495.055, 12239.00
1496.093, 12439.00
1497.131, 12356.00
1498.168, 12433.00
1499.206, 12353.00
1500.243, 12338.00
1501.280, 12428.00
1502.317, 12357.00
1503.354, 12372.07
1504.390, 12401.00
1505.426, 12344.00
1506.463, 12252.00
1507.499, 12253.00
1508.535, 12314.00
1509.570, 12272.00
1510.606, 12424.00
1511.641, 12402.00
1512.676, 12506.00
1513.711, 12439.00
1514.746, 12508.00
1515.781, 12385.31
1516.816, 12443.70
1517.850, 12476.17
1518.884, 12484.12
1519.918, 12394.10
1520.952, 12430.59
1521.986, 12416.38
1523.019, 12400.10
1524.053, 12454.39
1525.086, 12378.62
1526.119, 12431.80
1527.152, 12433.50
1528.185, 12458.77
1529.217, 12433.02
1530.250, 12423.02
1531.282, 12552.00
1532.314, 12566.00
1533.346, 12491.00
1534.377, 12634.00
1535.409, 12435.00
1536.440, 12467.00
1537.472, 12548.00
1538.503, 12385.00
1539.534, 12532.00
1540.564, 12553.00
1541.595, 12508.00
1542.625, 12493.00
1543.656, 12614.00
1544.686, 12532.00
1545.716, 12452.00
1546.745, 12548.00
1547.775, 12683.00
1548.804, 12506.00
1549.834, 12584.00
1550.863, 12702.00
1551.892, 12709.00
1552.920, 12918.00
1553.949, 12916.00
1554.977, 12925.00
1556.006, 12862.00
1557.034, 12828.82
1558.062, 12770.33
1559.089, 12711.00
1560.117, 12612.00
1561.144, 12561.00
1562.172, 12448.00
1563.199, 12534.00
1564.226, 12685.00
1565.252, 12669.00
1566.279, 12656.00
1567.305, 12537.00
1568.332, 12752.00
1569.358, 12527.00
1570.384, 12626.00
1571.409, 12664.00
##END=



