##NAMES=Covellite
##RRUFFID=R060143
##IDEAL CHEMISTRY=Cu^1+^S
##LOCALITY=Butte, Montana, USA
##OWNER=RRUFF
##SOURCE=Marcus Origlieri
##DESCRIPTION=Irridescent blue to purple hexagonal plates
##STATUS=The identification of this mineral has been confirmed by X-ray diffraction and chemical analysis
##URL=rruff.info/R060143
##MEASURED CHEMISTRY=Cu_1.00_S_1.00_
##PIN_ID=L00879
##ORIENTATION=Laser parallel to c* (0 0 1). Fiducial mark perpendicular to laser is parallel to b [0 1 0]
164.8110, 15526.00
166.0360, 15241.00
167.2610, 15066.00
168.4860, 15020.00
169.7110, 15100.00
170.9360, 15115.00
172.1610, 14919.00
173.3850, 14687.00
174.6100, 14694.00
175.8340, 14773.00
177.0580, 14840.00
178.2820, 15013.00
179.5050, 14984.00
180.7290, 14830.00
181.9520, 14668.00
183.1760, 14647.00
184.3990, 14856.00
185.6220, 14839.00
186.8450, 14888.00
188.0670, 15021.00
189.2900, 15007.00
190.5120, 14995.00
191.7340, 15214.00
192.9560, 15216.00
194.1780, 15302.00
195.4000, 15209.00
196.6220, 15244.00
197.8430, 15334.00
199.0640, 15369.00
200.2860, 15615.00
201.5070, 15690.00
202.7270, 15471.00
203.9480, 15053.00
205.1690, 14555.00
206.3890, 14225.00
207.6090, 13972.00
208.8290, 13905.00
210.0490, 14065.00
211.2690, 14087.00
212.4890, 14150.00
213.7080, 14298.00
214.9280, 13993.00
216.1470, 13904.00
217.3660, 13983.00
218.5850, 14005.00
219.8030, 13967.00
221.0220, 13971.00
222.2400, 13969.00
223.4590, 13972.00
224.6770, 14024.43
225.8950, 13791.00
227.1120, 14084.00
228.3300, 14061.00
229.5480, 13958.00
230.7650, 14132.00
231.9820, 14170.00
233.1990, 14121.00
234.4160, 14219.00
235.6330, 14240.00
236.8490, 14241.00
238.0660, 14287.92
239.2820, 14143.00
240.4980, 14309.00
241.7140, 14252.00
242.9300, 14228.00
244.1460, 14507.00
245.3610, 14467.00
246.5770, 14533.00
247.7920, 14618.00
249.0070, 14903.00
250.2220, 14949.00
251.4370, 15146.00
252.6510, 15292.00
253.8660, 15461.00
255.0800, 15599.00
256.2940, 15908.00
257.5080, 17010.00
258.7220, 16847.41
259.9360, 16965.79
261.1490, 16989.00
262.3630, 16726.00
263.5760, 16518.00
264.7890, 16459.35
266.0020, 16285.00
267.2150, 16259.00
268.4270, 16168.00
269.6400, 16102.00
270.8520, 15887.00
272.0640, 15764.00
273.2760, 15774.00
274.4880, 15751.00
275.7000, 15836.00
276.9120, 15705.00
278.1230, 15716.00
279.3340, 15659.00
280.5450, 15590.00
281.7560, 15567.00
282.9670, 15626.00
284.1780, 15651.00
285.3880, 15773.00
286.5980, 15780.14
287.8090, 15799.00
289.0190, 15814.00
290.2290, 15804.00
291.4380, 15764.00
292.6480, 15827.00
293.8570, 16015.00
295.0670, 15923.00
296.2760, 16015.00
297.4850, 15853.00
298.6930, 16049.00
299.9020, 15944.00
301.1110, 16136.00
302.3190, 16112.00
303.5270, 16080.00
304.7350, 16022.00
305.9430, 16112.00
307.1510, 16119.00
308.3580, 15961.00
309.5660, 16062.00
310.7730, 15902.00
311.9800, 15750.00
313.1870, 15766.00
314.3940, 15804.00
315.6010, 15756.00
316.8070, 15651.00
318.0130, 15658.00
319.2200, 15686.00
320.4260, 15767.18
321.6310, 16115.00
322.8370, 16128.00
324.0430, 16430.00
325.2480, 16816.00
326.4540, 16955.00
327.6590, 17066.00
328.8640, 17175.00
330.0680, 17297.83
331.2730, 17420.30
332.4780, 17535.00
333.6820, 17660.00
334.8860, 17798.00
336.0900, 17881.00
337.2940, 17986.00
338.4980, 18165.00
339.7010, 18119.00
340.9050, 18123.00
342.1080, 17875.00
343.3110, 17649.00
344.5140, 17472.00
345.7170, 17267.00
346.9200, 17083.00
348.1220, 16953.00
349.3240, 16830.00
350.5270, 16738.00
351.7290, 16616.00
352.9310, 16557.01
354.1320, 16488.00
355.3340, 16478.00
356.5350, 16336.00
357.7370, 16358.00
358.9380, 16105.00
360.1390, 15925.00
361.3400, 15955.00
362.5400, 15775.00
363.7410, 15885.00
364.9410, 15651.00
366.1410, 15667.00
367.3410, 15711.00
368.5410, 15643.00
369.7410, 15595.00
370.9400, 15526.00
372.1400, 15558.00
373.3390, 15495.33
374.5380, 15573.00
375.7370, 15434.00
376.9360, 15404.00
378.1350, 15377.00
379.3330, 15437.00
380.5310, 15264.00
381.7300, 15303.00
382.9280, 15295.00
384.1260, 15417.00
385.3230, 15366.00
386.5210, 15235.00
387.7180, 15284.00
388.9160, 15253.00
390.1130, 15512.00
391.3100, 15370.00
392.5060, 15453.00
393.7030, 15336.00
394.9000, 15539.00
396.0960, 15474.00
397.2920, 15676.00
398.4880, 16000.00
399.6840, 15963.00
400.8800, 16178.00
402.0750, 16585.00
403.2710, 16782.00
404.4660, 17280.00
405.6610, 18307.00
406.8560, 19342.00
408.0510, 20964.00
409.2450, 22754.00
410.4400, 25775.00
411.6340, 28330.00
412.8280, 27035.00
414.0220, 22922.00
415.2160, 20059.00
416.4100, 18128.00
417.6030, 17094.00
418.7970, 16820.00
419.9900, 16324.00
421.1830, 16175.00
422.3760, 16086.00
423.5690, 15896.00
424.7610, 16022.00
425.9540, 16074.00
427.1460, 16072.00
428.3380, 16109.74
429.5300, 16105.00
430.7220, 16091.00
431.9140, 16073.00
433.1050, 16060.00
434.2970, 16069.38
435.4880, 16173.00
436.6790, 16082.00
437.8700, 16130.00
439.0610, 16109.00
440.2510, 15986.00
441.4420, 15966.00
442.6320, 15979.00
443.8220, 16178.00
445.0120, 16364.00
446.2020, 16550.00
447.3910, 16633.00
448.5810, 16922.00
449.7700, 17156.00
450.9600, 17518.00
452.1490, 17863.00
453.3370, 18202.00
454.5260, 18787.00
455.7150, 19341.00
456.9030, 19827.00
458.0910, 20584.00
459.2800, 21341.00
460.4670, 21907.00
461.6550, 23246.00
462.8430, 24794.00
464.0300, 26591.00
465.2180, 29631.00
466.4050, 33246.00
467.5920, 38451.00
468.7790, 45115.00
469.9650, 52699.00
471.1520, 58558.00
472.3380, 60039.00
473.5250, 56529.00
474.7110, 49815.00
475.8970, 42105.00
477.0820, 36074.00
478.2680, 31108.00
479.4540, 27632.00
480.6390, 24818.00
481.8240, 23028.00
483.0090, 21556.00
484.1940, 20503.00
485.3780, 19684.00
486.5630, 19125.00
487.7470, 18724.00
488.9320, 18193.00
490.1160, 17992.00
491.3000, 17623.00
492.4830, 17360.00
493.6670, 17153.00
494.8500, 17080.00
496.0340, 16829.00
497.2170, 16903.00
498.4000, 16539.00
499.5820, 16612.00
500.7650, 16543.00
501.9480, 16358.00
503.1300, 16335.00
504.3120, 16495.00
505.4940, 16335.00
506.6760, 16319.00
507.8580, 16389.00
509.0390, 16216.00
510.2210, 16316.00
511.4020, 16159.00
512.5830, 16173.00
513.7640, 16241.00
514.9450, 16402.00
516.1250, 16199.00
517.3060, 16426.00
518.4860, 16319.00
519.6660, 16356.00
520.8460, 16243.00
522.0260, 16182.00
523.2060, 16110.00
524.3850, 16246.00
525.5650, 16085.00
526.7440, 16265.00
527.9230, 16113.00
529.1020, 16122.00
530.2810, 16135.00
531.4590, 16118.00
532.6380, 16218.00
533.8160, 16336.00
534.9940, 16231.00
536.1720, 16242.00
537.3500, 16186.00
538.5270, 16208.00
539.7050, 16226.00
540.8820, 16260.00
542.0590, 16265.00
543.2360, 16240.00
544.4130, 16206.00
545.5900, 16167.00
546.7660, 16239.00
547.9430, 16233.00
549.1190, 15995.00
550.2950, 16029.00
551.4710, 16194.00
552.6470, 16123.00
553.8220, 16269.00
554.9980, 16133.00
556.1730, 16142.00
557.3480, 16059.00
558.5230, 16099.00
559.6980, 15925.00
560.8730, 15996.00
562.0470, 16157.00
563.2220, 16029.00
564.3960, 16042.00
565.5700, 16240.00
566.7440, 16024.00
567.9170, 16067.00
569.0910, 16194.00
570.2640, 16097.00
571.4380, 16029.00
572.6110, 15944.00
573.7840, 15897.00
574.9570, 15947.00
576.1290, 15766.00
577.3020, 15895.00
578.4740, 16003.00
579.6460, 15907.00
580.8180, 15933.00
581.9900, 15916.00
583.1620, 15915.00
584.3330, 15798.00
585.5040, 15988.00
586.6760, 15862.00
587.8470, 15975.00
589.0180, 15945.00
590.1880, 15660.00
591.3590, 15978.00
592.5290, 15903.00
593.7000, 16108.00
594.8700, 15937.00
596.0400, 15973.00
597.2090, 16191.00
598.3790, 16101.00
599.5490, 15989.00
600.7180, 16171.00
601.8870, 15983.00
603.0560, 16032.00
604.2250, 16234.00
605.3940, 16147.00
606.5620, 15955.00
607.7300, 15895.00
608.8990, 15941.00
610.0670, 15959.00
611.2350, 15842.00
612.4020, 15669.00
613.5700, 15789.00
614.7370, 15880.00
615.9050, 15741.00
617.0720, 15782.00
618.2390, 15737.00
619.4060, 15834.00
620.5720, 15804.00
621.7390, 15800.00
622.9050, 15749.00
624.0710, 15761.00
625.2370, 15728.00
626.4030, 15694.00
627.5690, 15753.00
628.7340, 15714.83
629.9000, 15698.00
631.0650, 15718.00
632.2300, 15712.00
633.3950, 15740.00
634.5600, 15723.00
635.7240, 15800.00
636.8890, 15681.00
638.0530, 15640.00
639.2170, 15895.00
640.3810, 15702.00
641.5450, 15564.00
642.7080, 15610.00
643.8720, 15789.00
645.0350, 15652.00
646.1980, 15898.00
647.3610, 16103.00
648.5240, 15888.00
649.6870, 15842.00
650.8490, 15814.00
652.0120, 15811.00
653.1740, 16278.00
654.3360, 15951.00
655.4980, 15984.00
656.6600, 16078.00
657.8210, 15791.00
658.9830, 15828.00
660.1440, 15627.00
661.3050, 15745.00
662.4660, 15747.00
663.6270, 15786.00
664.7870, 15808.00
665.9480, 15824.86
667.1080, 15818.97
668.2680, 15853.00
669.4280, 15776.00
670.5880, 15756.00
671.7480, 15715.00
672.9070, 15902.00
674.0670, 15577.00
675.2260, 15801.00
676.3850, 15612.00
677.5440, 15669.00
678.7030, 15545.00
679.8610, 15680.00
681.0200, 15598.00
682.1780, 15660.00
683.3360, 15562.00
684.4940, 15527.00
685.6520, 15753.00
686.8090, 15607.00
687.9670, 15715.00
689.1240, 15628.00
690.2810, 15674.00
691.4380, 15682.00
692.5950, 15621.00
693.7520, 15555.00
694.9080, 15619.00
696.0650, 15528.00
697.2210, 15689.00
698.3770, 15710.00
699.5330, 15633.98
700.6880, 15778.00
701.8440, 15497.00
702.9990, 15585.00
704.1550, 15553.00
705.3100, 15731.00
706.4650, 15826.00
707.6190, 15721.00
708.7740, 15550.00
709.9290, 15670.00
711.0830, 15723.00
712.2370, 15805.00
713.3910, 15623.00
714.5450, 15817.00
715.6980, 15704.00
716.8520, 15693.00
718.0050, 15689.00
719.1580, 15702.49
720.3110, 15546.00
721.4640, 15826.00
722.6170, 15874.00
723.7700, 15972.00
724.9220, 15631.00
726.0740, 15720.00
727.2260, 15718.00
728.3780, 15764.00
729.5300, 15769.00
730.6810, 15856.00
731.8330, 15804.00
732.9840, 15706.00
734.1350, 15850.00
735.2860, 15939.00
736.4370, 15827.00
737.5880, 15805.00
738.7380, 15858.00
739.8880, 15846.00
741.0390, 15942.00
742.1890, 15896.00
743.3380, 15884.00
744.4880, 15800.00
745.6380, 15830.00
746.7870, 15944.00
747.9360, 15794.00
749.0850, 15875.00
750.2340, 16009.00
751.3830, 15954.00
752.5310, 15859.00
753.6800, 15905.00
754.8280, 15931.00
755.9760, 15948.00
757.1240, 16041.00
758.2720, 15962.00
759.4190, 15905.00
760.5670, 16002.00
761.7140, 16043.00
762.8610, 15938.00
764.0080, 15879.00
765.1550, 16097.00
766.3020, 15949.00
767.4480, 16026.00
768.5950, 15918.00
769.7410, 15947.00
770.8870, 15939.00
772.0330, 16031.00
773.1780, 16004.00
774.3240, 15999.00
775.4690, 16009.00
776.6140, 16094.00
777.7590, 16071.00
778.9040, 16091.94
780.0490, 16132.00
781.1940, 16095.00
782.3380, 16091.00
783.4820, 16108.00
784.6260, 16117.00
785.7700, 16055.00
786.9140, 16198.00
788.0580, 16009.00
789.2010, 16039.00
790.3450, 15935.00
791.4880, 16077.00
792.6310, 16202.00
793.7730, 16077.00
794.9160, 16127.00
796.0590, 16023.00
797.2010, 15952.00
798.3430, 16076.00
799.4850, 16129.00
800.6270, 16196.00
801.7690, 16282.00
802.9100, 16317.00
804.0520, 16267.00
805.1930, 16314.00
806.3340, 16364.00
807.4750, 16414.00
808.6160, 16482.00
809.7560, 16486.00
810.8970, 16495.00
812.0370, 16561.00
813.1770, 16495.00
814.3170, 16590.00
815.4570, 16651.00
816.5960, 16674.00
817.7360, 16561.00
818.8750, 16709.00
820.0140, 16732.00
821.1530, 16554.00
822.2920, 16683.00
823.4310, 16657.00
824.5690, 16817.00
825.7070, 16606.00
826.8460, 16612.00
827.9840, 16720.00
829.1220, 16668.00
830.2590, 16470.00
831.3970, 16414.00
832.5340, 16405.00
833.6710, 16377.00
834.8080, 16376.00
835.9450, 16383.00
837.0820, 16507.00
838.2190, 16470.00
839.3550, 16412.00
840.4910, 16571.00
841.6270, 16497.00
842.7630, 16534.00
843.8990, 16538.00
845.0350, 16532.00
846.1700, 16751.00
847.3060, 16752.00
848.4410, 16622.00
849.5760, 16343.00
850.7100, 16576.00
851.8450, 16333.00
852.9800, 16252.00
854.1140, 16401.00
855.2480, 16456.00
856.3820, 16515.00
857.5160, 16519.66
858.6500, 16468.00
859.7830, 16394.00
860.9170, 16443.00
862.0500, 16387.04
863.1830, 16418.00
864.3160, 16395.00
865.4480, 16405.00
866.5810, 16495.00
867.7130, 16446.00
868.8460, 16539.00
869.9780, 16437.00
871.1100, 16451.00
872.2410, 16431.00
873.3730, 16311.00
874.5050, 16505.00
875.6360, 16527.00
876.7670, 16484.00
877.8980, 16505.00
879.0290, 16526.00
880.1590, 16491.00
881.2900, 16395.00
882.4200, 16492.00
883.5500, 16434.00
884.6800, 16571.00
885.8100, 16629.00
886.9400, 16514.00
888.0690, 16567.00
889.1990, 16617.00
890.3280, 16658.00
891.4570, 16772.00
892.5860, 16684.00
893.7140, 16581.00
894.8430, 16692.00
895.9710, 16623.00
897.1000, 16714.00
898.2280, 16626.00
899.3560, 16896.00
900.4830, 16797.00
901.6110, 16863.00
902.7380, 16946.00
903.8660, 16931.00
904.9930, 16891.00
906.1200, 16918.00
907.2460, 16975.00
908.3730, 17092.00
909.5000, 17143.00
910.6260, 17251.16
911.7520, 17326.60
912.8780, 17395.50
914.0040, 17487.22
915.1290, 17428.00
916.2550, 17508.00
917.3800, 17599.00
918.5050, 17701.00
919.6300, 17593.00
920.7550, 17937.00
921.8800, 17778.00
923.0040, 17869.00
924.1290, 17749.00
925.2530, 17829.00
926.3770, 17928.00
927.5010, 17988.00
928.6250, 17893.26
929.7480, 17565.00
930.8720, 17626.00
931.9950, 17564.00
933.1180, 17409.00
934.2410, 17509.00
935.3640, 17210.00
936.4860, 17302.00
937.6090, 17328.00
938.7310, 17320.00
939.8530, 17348.00
940.9750, 17352.21
942.0970, 17174.00
943.2180, 17333.00
944.3400, 17257.00
945.4610, 17166.00
946.5820, 17207.00
947.7030, 17330.00
948.8240, 17092.00
949.9450, 17209.00
951.0650, 17251.00
952.1860, 17047.00
953.3060, 17306.00
954.4260, 17205.00
955.5460, 17111.00
956.6650, 17273.00
957.7850, 17179.00
958.9040, 17223.00
960.0230, 17299.00
961.1420, 17318.00
962.2610, 17333.00
963.3800, 17191.00
964.4990, 17586.00
965.6170, 17223.00
966.7350, 17370.00
967.8530, 17378.00
968.9710, 17223.00
970.0890, 17369.00
971.2070, 17429.00
972.3240, 17390.18
973.4410, 17366.48
974.5580, 17429.00
975.6750, 17364.58
976.7920, 17273.00
977.9090, 17315.00
979.0250, 17357.00
980.1410, 17372.00
981.2580, 17346.00
982.3740, 17347.00
983.4890, 17406.00
984.6050, 17420.00
985.7200, 17507.00
986.8360, 17465.00
987.9510, 17285.00
989.0660, 17232.00
990.1810, 17356.00
991.2950, 17370.00
992.4100, 17480.00
993.5240, 17517.00
994.6390, 17465.00
995.7530, 17348.00
996.8660, 17187.00
997.9800, 17271.00
999.0940, 17563.00
1000.207, 17507.00
1001.320, 17668.00
1002.433, 17514.00
1003.546, 17555.00
1004.659, 17367.00
1005.772, 17411.00
1006.884, 17388.00
1007.996, 17438.00
1009.108, 17457.76
1010.220, 17362.00
1011.332, 17472.00
1012.444, 17398.00
1013.555, 17299.00
1014.666, 17369.00
1015.777, 17365.00
1016.888, 17339.00
1017.999, 17291.00
1019.110, 17262.00
1020.220, 17220.00
1021.331, 17399.00
1022.441, 17443.00
1023.551, 17122.00
1024.661, 17322.00
1025.770, 17491.00
1026.880, 17357.56
1027.989, 17503.00
1029.098, 17240.00
1030.207, 17546.00
1031.316, 17320.00
1032.425, 17444.00
1033.533, 17329.00
1034.642, 17502.00
1035.750, 17351.00
1036.858, 17451.00
1037.966, 17395.00
1039.073, 17229.00
1040.181, 17491.00
1041.288, 17527.00
1042.396, 17827.00
1043.503, 18000.00
1044.610, 17480.00
1045.716, 17418.00
1046.823, 17622.00
1047.929, 17354.00
1049.036, 17420.00
1050.142, 17425.00
1051.248, 17554.00
1052.353, 17582.00
1053.459, 17581.00
1054.564, 17601.00
1055.670, 17431.00
1056.775, 17564.00
1057.880, 17709.00
1058.985, 17548.00
1060.089, 17639.00
1061.194, 17793.00
1062.298, 17601.00
1063.402, 17745.00
1064.506, 17756.00
1065.610, 17478.00
1066.713, 17695.00
1067.817, 17709.00
1068.920, 17602.00
1070.023, 17659.00
1071.126, 17682.00
1072.229, 17669.00
1073.332, 17681.00
1074.435, 17662.00
1075.537, 17646.00
1076.639, 17594.00
1077.741, 17593.00
1078.843, 17750.00
1079.945, 17593.00
1081.046, 17617.00
1082.148, 17795.00
1083.249, 17705.00
1084.350, 17621.00
1085.451, 17548.00
1086.551, 17706.00
1087.652, 17438.00
1088.752, 18026.00
1089.853, 18351.00
1090.953, 18233.00
1092.053, 17425.00
1093.152, 17654.00
1094.252, 17523.00
1095.351, 17672.00
1096.451, 17555.00
1097.550, 17595.00
1098.649, 17566.00
1099.748, 17500.00
1100.846, 17516.00
1101.945, 17609.00
1103.043, 17637.00
1104.141, 17632.00
1105.239, 17626.00
1106.337, 17654.00
1107.434, 17618.00
1108.532, 17718.00
1109.629, 17624.00
1110.726, 17598.00
1111.823, 17533.00
1112.920, 17728.00
1114.017, 17666.00
1115.113, 17788.00
1116.210, 17680.00
1117.306, 17888.00
1118.402, 17868.41
1119.498, 17874.00
1120.593, 17895.00
1121.689, 18013.00
1122.784, 17954.00
1123.879, 17981.00
1124.974, 17825.00
1126.069, 17857.00
1127.164, 17729.00
1128.259, 17775.00
1129.353, 17667.00
1130.447, 17591.00
1131.541, 17409.00
1132.635, 17761.00
1133.729, 17691.00
1134.822, 17613.00
1135.916, 17391.00
1137.009, 17353.00
1138.102, 17445.00
1139.195, 17499.00
1140.288, 17577.00
1141.380, 17439.00
1142.473, 17511.00
1143.565, 17437.00
1144.657, 17438.00
1145.749, 17406.00
1146.841, 17587.00
1147.932, 17524.00
1149.024, 17455.00
1150.115, 17475.00
1151.206, 17350.00
1152.297, 17463.00
1153.388, 17332.00
1154.479, 17413.00
1155.569, 17425.00
1156.659, 17501.00
1157.750, 17262.00
1158.839, 17317.00
1159.929, 17315.00
1161.019, 17418.00
1162.108, 17381.03
1163.198, 17397.85
1164.287, 17343.00
1165.376, 17383.00
1166.465, 17380.00
1167.553, 17388.00
1168.642, 17441.00
1169.730, 17216.00
1170.818, 17329.00
1171.906, 17202.00
1172.994, 17432.00
1174.082, 17370.00
1175.170, 17495.00
1176.257, 17237.00
1177.344, 17351.00
1178.431, 17394.00
1179.518, 17342.00
1180.605, 17353.00
1181.691, 17345.00
1182.778, 17430.00
1183.864, 17334.00
1184.950, 17393.00
1186.036, 17528.00
1187.122, 17562.00
1188.207, 17244.00
1189.292, 17305.00
1190.378, 17216.00
1191.463, 17401.00
1192.548, 17330.00
1193.632, 17302.00
1194.717, 17400.00
1195.801, 17295.00
1196.886, 17451.00
1197.970, 17297.00
1199.054, 17395.00
1200.137, 17398.00
1201.221, 17464.00
1202.305, 17373.00
1203.388, 17333.00
1204.471, 17282.00
1205.554, 17361.00
1206.637, 17371.00
1207.719, 17439.00
1208.802, 17356.00
1209.884, 17294.00
1210.966, 17255.00
1212.048, 17286.00
1213.130, 17515.00
1214.212, 17316.00
1215.293, 17439.00
1216.374, 17363.00
1217.456, 17180.00
1218.536, 17402.00
1219.617, 17404.00
1220.698, 17457.00
1221.778, 17483.00
1222.859, 17394.00
1223.939, 17549.00
1225.019, 17325.00
1226.099, 17368.00
1227.178, 17255.00
1228.258, 17327.00
1229.337, 17332.03
1230.417, 17466.00
1231.496, 17402.00
1232.574, 17429.00
1233.653, 17457.00
1234.732, 17449.00
1235.810, 17340.00
1236.888, 17450.00
1237.966, 17327.00
1239.044, 17647.00
1240.122, 17485.00
1241.199, 17491.00
1242.277, 17478.00
1243.354, 17413.00
1244.431, 17590.00
1245.508, 17382.00
1246.585, 17408.00
1247.661, 17447.00
1248.738, 17325.00
1249.814, 17354.00
1250.890, 17428.00
1251.966, 17540.00
1253.042, 17389.00
1254.117, 17560.00
1255.193, 17529.00
1256.268, 17451.00
1257.343, 17558.00
1258.418, 17302.00
1259.493, 17686.00
1260.567, 17610.00
1261.642, 17402.00
1262.716, 17509.00
1263.790, 17405.00
1264.864, 17394.00
1265.938, 17436.00
1267.011, 17353.00
1268.085, 17506.00
1269.158, 17391.00
1270.231, 17446.00
1271.304, 17395.00
1272.377, 17290.00
1273.450, 17482.00
1274.522, 17302.00
1275.594, 17493.00
1276.666, 17451.00
1277.738, 17517.00
1278.810, 17555.00
1279.882, 17505.00
1280.953, 17453.00
1282.025, 17504.00
1283.096, 17454.74
1284.167, 17565.00
1285.238, 17370.00
1286.308, 17628.00
1287.379, 17476.00
1288.449, 17510.00
1289.519, 17447.00
1290.589, 17327.00
1291.659, 17439.00
1292.729, 17586.00
1293.798, 17620.00
1294.868, 17623.00
1295.937, 17570.00
1297.006, 17583.00
1298.075, 17554.00
1299.143, 17435.00
1300.212, 17453.70
1301.280, 17547.00
1302.348, 17438.00
1303.416, 17520.00
1304.484, 17584.00
1305.552, 17531.00
1306.620, 17707.00
1307.687, 17465.00
1308.754, 17532.00
1309.821, 17642.00
1310.888, 17488.00
1311.955, 17420.00
1313.021, 17632.00
1314.088, 17353.00
1315.154, 17624.00
1316.220, 17659.00
1317.286, 17717.00
1318.352, 17617.00
1319.417, 17479.00
1320.483, 17537.00
1321.548, 17452.46
1322.613, 17686.00
1323.678, 17406.00
1324.743, 17638.00
1325.807, 17613.00
1326.872, 17593.00
1327.936, 17702.00
1329.000, 17604.00
1330.064, 17639.00
1331.128, 17608.00
1332.191, 17660.00
1333.255, 17614.00
1334.318, 17749.00
1335.381, 17683.00
1336.444, 17600.00
1337.507, 17588.00
1338.569, 17700.00
1339.632, 17495.00
1340.694, 17519.00
1341.756, 17769.00
1342.818, 17601.00
1343.880, 17699.00
1344.941, 17546.00
1346.003, 17639.00
1347.064, 17688.00
1348.125, 17668.00
1349.186, 17613.00
1350.247, 17704.00
1351.308, 17617.00
1352.368, 17714.00
1353.428, 17579.00
1354.489, 17835.00
1355.549, 17767.00
1356.608, 17566.00
1357.668, 17760.00
1358.727, 17728.00
1359.787, 17665.00
1360.846, 17681.00
1361.905, 17732.00
1362.964, 17578.00
1364.022, 17798.00
1365.081, 17661.00
1366.139, 17651.00
1367.197, 17592.00
1368.255, 17828.00
1369.313, 17744.00
1370.371, 17772.00
1371.428, 17702.00
1372.486, 17830.00
1373.543, 17582.00
1374.600, 17572.00
1375.657, 17697.00
1376.713, 17622.00
1377.770, 17708.00
1378.826, 17649.00
1379.882, 17693.00
1380.938, 17637.00
1381.994, 17625.00
1383.050, 17738.00
1384.106, 17659.00
1385.161, 17714.00
1386.216, 17863.00
1387.271, 17707.00
1388.326, 17983.00
1389.381, 17864.46
1390.435, 17923.00
1391.490, 17696.00
1392.544, 17745.00
1393.598, 17547.00
1394.652, 17839.00
1395.705, 17689.00
1396.759, 17710.00
1397.812, 17724.00
1398.866, 17705.49
1399.919, 17705.00
1400.972, 17738.00
1402.024, 17870.00
1403.077, 17832.00
1404.129, 17880.00
1405.181, 17776.00
1406.233, 17782.25
1407.285, 17664.00
1408.337, 17744.00
1409.389, 17695.00
1410.440, 17706.00
1411.491, 17661.00
1412.542, 17836.00
1413.593, 17699.00
1414.644, 17785.00
1415.695, 17791.00
1416.745, 17788.00
1417.795, 17798.00
1418.845, 17832.00
1419.895, 17761.00
1420.945, 17940.00
1421.995, 17715.00
1423.044, 17811.00
1424.093, 17904.00
1425.142, 17883.00
1426.191, 17811.00
1427.240, 17967.00
1428.289, 18062.00
1429.337, 17846.00
1430.385, 18020.00
1431.433, 17918.00
1432.481, 18042.00
1433.529, 17912.00
1434.577, 18102.00
1435.624, 18122.00
1436.672, 18025.00
1437.719, 18261.00
1438.766, 18123.00
1439.812, 18212.00
1440.859, 18153.00
1441.905, 18235.00
1442.952, 18260.00
1443.998, 18139.00
1445.044, 18288.00
1446.090, 18320.00
1447.135, 18133.00
1448.181, 18259.00
1449.226, 18268.00
1450.271, 18272.00
1451.316, 18244.00
1452.361, 18285.07
1453.405, 18187.00
1454.450, 18294.00
1455.494, 18333.00
1456.538, 18219.00
1457.582, 18323.00
1458.626, 18254.00
1459.670, 18097.00
1460.713, 18290.00
1461.757, 18170.00
1462.800, 18210.00
1463.843, 18378.00
1464.886, 18122.00
1465.928, 17911.00
1466.971, 18241.00
1468.013, 18101.00
1469.055, 18198.00
1470.097, 18370.00
1471.139, 18003.00
1472.181, 18216.00
1473.222, 18157.00
1474.263, 18054.00
1475.305, 18105.00
1476.346, 18070.00
1477.386, 18211.00
1478.427, 18106.00
1479.468, 18007.00
1480.508, 18098.00
1481.548, 17969.00
1482.588, 18167.00
1483.628, 18035.00
1484.668, 18092.00
1485.707, 17994.00
1486.747, 18140.00
1487.786, 18149.00
1488.825, 18028.00
1489.864, 18151.00
1490.902, 17951.00
1491.941, 17856.00
1492.979, 18024.00
1494.017, 18077.00
1495.055, 18229.00
1496.093, 18055.00
1497.131, 17832.00
1498.168, 17988.00
1499.206, 17989.00
1500.243, 18000.00
1501.280, 18000.00
1502.317, 18017.00
1503.354, 18054.00
1504.390, 17989.00
1505.426, 18092.00
1506.463, 18017.00
1507.499, 17981.00
1508.535, 18025.00
1509.570, 17986.00
1510.606, 18004.07
1511.641, 17994.86
1512.676, 18017.00
1513.711, 17953.00
1514.746, 17934.78
1515.781, 17875.00
1516.816, 17890.00
1517.850, 17959.00
1518.884, 17996.00
1519.918, 18086.00
1520.952, 18164.00
1521.986, 18066.00
1523.019, 17911.00
1524.053, 17991.00
1525.086, 18053.00
1526.119, 18226.00
1527.152, 18201.00
1528.185, 18195.00
1529.217, 18229.00
1530.250, 18131.00
1531.282, 17943.00
1532.314, 17995.09
1533.346, 18168.00
1534.377, 17991.00
1535.409, 18343.00
1536.440, 18389.00
1537.472, 18056.00
1538.503, 18098.00
1539.534, 18136.00
1540.564, 18103.00
1541.595, 18137.00
1542.625, 18144.87
1543.656, 18127.00
1544.686, 18153.00
1545.716, 18111.00
1546.745, 18067.00
1547.775, 18156.00
1548.804, 18288.00
1549.834, 18529.00
1550.863, 18559.23
1551.892, 18437.00
1552.920, 18720.00
1553.949, 18778.00
1554.977, 18893.00
1556.006, 18353.00
1557.034, 18490.00
1558.062, 18379.00
1559.089, 18130.00
1560.117, 18097.00
1561.144, 18131.00
1562.172, 18180.00
1563.199, 18208.00
1564.226, 18131.00
1565.252, 18142.00
1566.279, 18273.00
1567.305, 18447.00
1568.332, 18212.00
1569.358, 18154.00
1570.384, 18245.00
1571.409, 18287.00
1572.435, 18213.00
##END=



