##NAMES=Covellite
##RRUFFID=R060306
##IDEAL CHEMISTRY=Cu^1+^S
##LOCALITY=3800' level, Leonard mine, Butte, Silver Bow County, Montana, USA
##OWNER=RRUFF
##SOURCE=Michael Scott
##DESCRIPTION=Blue iridescent metallic hexagonal plates
##STATUS=The identification of this mineral has been confirmed by X-ray diffraction and chemical analysis
##URL=rruff.info/R060306
##MEASURED CHEMISTRY=Cu_1.00_S_1.00_
##PIN_ID=M00422
##ORIENTATION=Laser parallel to -c* (0 0 -1). Fiducial mark perpendicular to laser is parallel to a [1 0 0]
92.24600, 7898.914
93.48000, 8218.781
94.71400, 8463.889
95.94800, 8643.000
97.18200, 8851.000
98.41600, 9023.653
99.64900, 9173.000
100.8830, 9349.000
102.1160, 9356.000
103.3490, 9613.000
104.5820, 10142.00
105.8150, 11001.00
107.0470, 12820.00
108.2800, 12852.64
109.5120, 12948.99
110.7440, 13536.00
111.9760, 12417.00
113.2080, 12410.00
114.4400, 13025.00
115.6710, 13266.00
116.9030, 12768.00
118.1340, 12179.00
119.3650, 11479.00
120.5960, 10722.00
121.8270, 10480.00
123.0580, 10603.00
124.2880, 10708.00
125.5190, 10438.00
126.7490, 10436.00
127.9790, 10613.00
129.2090, 11068.00
130.4390, 11530.00
131.6680, 11949.00
132.8980, 12342.00
134.1270, 12989.00
135.3560, 13844.00
136.5850, 15075.00
137.8140, 16454.00
139.0430, 17738.00
140.2710, 18095.00
141.5000, 17664.00
142.7280, 16647.00
143.9560, 15993.00
145.1840, 14734.00
146.4120, 13829.00
147.6390, 12896.00
148.8670, 12173.35
150.0940, 11480.98
151.3210, 10984.00
152.5490, 10457.00
153.7750, 9856.000
155.0020, 9692.000
156.2290, 9254.000
157.4550, 9074.000
158.6810, 8802.000
159.9080, 8718.000
161.1340, 8592.000
162.3590, 8564.000
163.5850, 8675.000
164.8110, 8775.000
166.0360, 8798.000
167.2610, 8537.000
168.4860, 8471.000
169.7110, 8422.000
170.9360, 8462.000
172.1610, 8404.000
173.3850, 8286.000
174.6100, 8321.000
175.8340, 8272.000
177.0580, 8324.000
178.2820, 8348.000
179.5050, 8368.000
180.7290, 8222.000
181.9520, 8183.000
183.1760, 8259.000
184.3990, 8164.000
185.6220, 8290.000
186.8450, 8363.000
188.0670, 8548.000
189.2900, 8479.000
190.5120, 8607.000
191.7340, 8675.000
192.9560, 8712.000
194.1780, 8844.000
195.4000, 9006.000
196.6220, 9064.000
197.8430, 8986.000
199.0640, 8935.000
200.2860, 9096.000
201.5070, 9271.000
202.7270, 9328.000
203.9480, 8832.000
205.1690, 8296.000
206.3890, 7832.000
207.6090, 7559.000
208.8290, 7602.000
210.0490, 7752.000
211.2690, 7730.000
212.4890, 7706.663
213.7080, 7666.697
214.9280, 7561.000
216.1470, 7488.000
217.3660, 7417.000
218.5850, 7376.000
219.8030, 7418.000
221.0220, 7359.000
222.2400, 7322.086
223.4590, 7360.000
224.6770, 7238.000
225.8950, 7296.000
227.1120, 7326.000
228.3300, 7182.000
229.5480, 7305.000
230.7650, 7376.000
231.9820, 7157.000
233.1990, 7232.000
234.4160, 7247.000
235.6330, 7311.000
236.8490, 7279.000
238.0660, 7339.000
239.2820, 7347.000
240.4980, 7366.000
241.7140, 7392.000
242.9300, 7258.000
244.1460, 7441.000
245.3610, 7441.000
246.5770, 7551.000
247.7920, 7445.000
249.0070, 7613.000
250.2220, 7598.000
251.4370, 7824.000
252.6510, 7844.000
253.8660, 7961.000
255.0800, 8056.000
256.2940, 8322.000
257.5080, 8862.000
258.7220, 9057.355
259.9360, 9066.468
261.1490, 9595.000
262.3630, 8928.000
263.5760, 8786.000
264.7890, 8820.000
266.0020, 8896.000
267.2150, 8907.000
268.4270, 8748.869
269.6400, 8979.000
270.8520, 8403.000
272.0640, 8186.000
273.2760, 8118.000
274.4880, 8105.000
275.7000, 8010.000
276.9120, 8033.000
278.1230, 7914.000
279.3340, 7858.000
280.5450, 7870.000
281.7560, 7704.000
282.9670, 7740.000
284.1780, 7674.000
285.3880, 7531.000
286.5980, 7529.000
287.8090, 7602.000
289.0190, 7634.000
290.2290, 7634.000
291.4380, 7748.000
292.6480, 7619.000
293.8570, 7625.000
295.0670, 7620.000
296.2760, 7671.000
297.4850, 7596.000
298.6930, 7641.000
299.9020, 7554.000
301.1110, 7556.733
302.3190, 7619.000
303.5270, 7516.000
304.7350, 7558.000
305.9430, 7504.000
307.1510, 7419.000
308.3580, 7502.000
309.5660, 7572.000
310.7730, 7503.000
311.9800, 7449.000
313.1870, 7441.000
314.3940, 7520.000
315.6010, 7481.000
316.8070, 7640.000
318.0130, 7562.000
319.2200, 7455.000
320.4260, 7410.000
321.6310, 7533.000
322.8370, 7684.000
324.0430, 7516.000
325.2480, 7531.000
326.4540, 7450.000
327.6590, 7652.000
328.8640, 7621.000
330.0680, 7586.000
331.2730, 7652.000
332.4780, 7692.000
333.6820, 7651.000
334.8860, 7644.000
336.0900, 7716.000
337.2940, 7598.000
338.4980, 7665.000
339.7010, 7607.000
340.9050, 7629.000
342.1080, 7602.000
343.3110, 7636.000
344.5140, 7642.350
345.7170, 7581.000
346.9200, 7673.000
348.1220, 7643.000
349.3240, 7648.000
350.5270, 7597.000
351.7290, 7681.000
352.9310, 7748.000
354.1320, 7659.000
355.3340, 7746.000
356.5350, 7636.000
357.7370, 7806.000
358.9380, 7824.000
360.1390, 7782.000
361.3400, 7787.000
362.5400, 7797.000
363.7410, 7820.000
364.9410, 7761.000
366.1410, 7750.000
367.3410, 7667.000
368.5410, 7870.000
369.7410, 7945.000
370.9400, 7846.000
372.1400, 7731.000
373.3390, 7870.000
374.5380, 7858.000
375.7370, 8013.000
376.9360, 7924.000
378.1350, 7924.000
379.3330, 7914.000
380.5310, 8011.000
381.7300, 7923.000
382.9280, 8005.000
384.1260, 8020.000
385.3230, 8048.000
386.5210, 8082.000
387.7180, 8057.000
388.9160, 8121.000
390.1130, 8182.000
391.3100, 8119.000
392.5060, 8108.000
393.7030, 8258.000
394.9000, 8132.000
396.0960, 8238.000
397.2920, 8206.000
398.4880, 8132.000
399.6840, 8075.000
400.8800, 8115.000
402.0750, 8196.000
403.2710, 8105.000
404.4660, 8073.000
405.6610, 7995.000
406.8560, 7995.276
408.0510, 8038.000
409.2450, 8026.000
410.4400, 8043.033
411.6340, 8095.000
412.8280, 7999.000
414.0220, 7998.000
415.2160, 7908.000
416.4100, 7890.492
417.6030, 7914.000
418.7970, 7887.000
419.9900, 7924.000
421.1830, 7919.851
422.3760, 7934.000
423.5690, 7930.000
424.7610, 7890.000
425.9540, 7889.000
427.1460, 7961.000
428.3380, 8057.000
429.5300, 8025.000
430.7220, 8034.000
431.9140, 8022.000
433.1050, 8056.437
434.2970, 8063.000
435.4880, 8162.000
436.6790, 8131.000
437.8700, 8217.000
439.0610, 8392.000
440.2510, 8445.000
441.4420, 8503.000
442.6320, 8639.000
443.8220, 8786.000
445.0120, 8837.000
446.2020, 9100.000
447.3910, 9279.000
448.5810, 9670.000
449.7700, 10120.00
450.9600, 10223.00
452.1490, 10647.00
453.3370, 11205.00
454.5260, 11719.00
455.7150, 12413.25
456.9030, 13431.00
458.0910, 13909.00
459.2800, 14719.00
460.4670, 15507.00
461.6550, 16784.00
462.8430, 18226.00
464.0300, 20461.00
465.2180, 23260.00
466.4050, 27384.00
467.5920, 32644.00
468.7790, 40336.00
469.9650, 49811.00
471.1520, 58363.00
472.3380, 63560.00
473.5250, 62335.00
474.7110, 55531.00
475.8970, 45920.00
477.0820, 37524.00
478.2680, 30336.00
479.4540, 24985.00
480.6390, 21226.00
481.8240, 18541.00
483.0090, 16428.00
484.1940, 14992.00
485.3780, 13784.00
486.5630, 13532.00
487.7470, 12256.00
488.9320, 11693.00
490.1160, 11176.00
491.3000, 10787.00
492.4830, 10453.00
493.6670, 10312.00
494.8500, 9971.000
496.0340, 9919.000
497.2170, 9692.000
498.4000, 9733.000
499.5820, 9517.000
500.7650, 9500.000
501.9480, 9251.000
503.1300, 9262.000
504.3120, 9335.000
505.4940, 9124.836
506.6760, 9229.215
507.8580, 9281.761
509.0390, 9285.271
510.2210, 9092.822
511.4020, 9153.410
512.5830, 9112.597
513.7640, 9095.000
514.9450, 9139.000
516.1250, 9186.000
517.3060, 9135.000
518.4860, 9122.000
519.6660, 9141.000
520.8460, 9018.000
522.0260, 9022.000
523.2060, 8978.000
524.3850, 8919.812
525.5650, 8946.000
526.7440, 8839.000
527.9230, 8878.000
529.1020, 8849.000
530.2810, 8769.000
531.4590, 8761.000
532.6380, 8743.000
533.8160, 8770.000
534.9940, 8765.000
536.1720, 8776.000
537.3500, 8839.000
538.5270, 8887.000
539.7050, 8777.000
540.8820, 8968.000
542.0590, 8812.000
543.2360, 8623.000
544.4130, 8726.000
545.5900, 8706.000
546.7660, 8705.000
547.9430, 8683.000
549.1190, 8704.000
550.2950, 8649.000
551.4710, 8625.145
552.6470, 8460.000
553.8220, 8623.000
554.9980, 8534.000
556.1730, 8710.000
557.3480, 8534.000
558.5230, 8485.000
559.6980, 8414.000
560.8730, 8382.562
562.0470, 8489.000
563.2220, 8414.000
564.3960, 8458.000
565.5700, 8523.000
566.7440, 8487.000
567.9170, 8379.000
569.0910, 8313.000
570.2640, 8297.000
571.4380, 8332.000
572.6110, 8233.000
573.7840, 8269.000
574.9570, 8259.000
576.1290, 8293.000
577.3020, 8240.000
578.4740, 8114.000
579.6460, 8146.000
580.8180, 8117.000
581.9900, 8137.000
583.1620, 8094.000
584.3330, 8095.000
585.5040, 8085.000
586.6760, 7975.000
587.8470, 8110.000
589.0180, 8102.000
590.1880, 7996.000
591.3590, 8175.000
592.5290, 8078.000
593.7000, 8031.000
594.8700, 8101.000
596.0400, 8073.000
597.2090, 8091.000
598.3790, 8157.000
599.5490, 8043.000
600.7180, 8056.000
601.8870, 8034.000
603.0560, 8080.000
604.2250, 8024.000
605.3940, 8059.000
606.5620, 7952.000
607.7300, 8045.000
608.8990, 8015.000
610.0670, 8097.000
611.2350, 8065.000
612.4020, 8054.000
613.5700, 8022.000
614.7370, 8048.000
615.9050, 8094.000
617.0720, 8108.000
618.2390, 8122.885
619.4060, 8050.000
620.5720, 8139.000
621.7390, 8052.000
622.9050, 8062.000
624.0710, 8155.000
625.2370, 8115.000
626.4030, 8157.000
627.5690, 8194.000
628.7340, 8205.000
629.9000, 8252.000
631.0650, 8261.000
632.2300, 8264.000
633.3950, 8255.000
634.5600, 8221.000
635.7240, 8257.000
636.8890, 8240.000
638.0530, 8257.000
639.2170, 8338.000
640.3810, 8261.000
641.5450, 8283.000
642.7080, 8325.000
643.8720, 8204.000
645.0350, 8190.000
646.1980, 8081.000
647.3610, 8178.000
648.5240, 8027.000
649.6870, 8171.000
650.8490, 8109.000
652.0120, 8140.000
653.1740, 8025.000
654.3360, 8108.000
655.4980, 7928.000
656.6600, 8078.000
657.8210, 7941.000
658.9830, 8032.000
660.1440, 7860.000
661.3050, 7909.000
662.4660, 7872.000
663.6270, 7985.000
664.7870, 8093.000
665.9480, 8061.000
667.1080, 8095.429
668.2680, 7989.000
669.4280, 8038.000
670.5880, 7918.000
671.7480, 7880.000
672.9070, 7988.000
674.0670, 7986.000
675.2260, 7990.000
676.3850, 8018.000
677.5440, 7834.000
678.7030, 8013.000
679.8610, 8004.000
681.0200, 7811.000
682.1780, 7857.000
683.3360, 7974.000
684.4940, 7984.000
685.6520, 7972.866
686.8090, 7905.000
687.9670, 7887.000
689.1240, 7861.000
690.2810, 7821.000
691.4380, 7919.000
692.5950, 7896.000
693.7520, 7815.000
694.9080, 7959.000
696.0650, 7939.000
697.2210, 7854.000
698.3770, 7942.000
699.5330, 7981.000
700.6880, 8021.000
701.8440, 7947.000
702.9990, 7964.000
704.1550, 7891.000
705.3100, 7980.000
706.4650, 7946.559
707.6190, 7843.000
708.7740, 7943.000
709.9290, 7967.000
711.0830, 7953.000
712.2370, 7914.000
713.3910, 7968.000
714.5450, 7931.000
715.6980, 8045.000
716.8520, 7922.000
718.0050, 7971.000
719.1580, 8055.000
720.3110, 8013.000
721.4640, 8025.000
722.6170, 8024.000
723.7700, 7971.000
724.9220, 8079.000
726.0740, 8038.000
727.2260, 8039.000
728.3780, 8085.961
729.5300, 8026.000
730.6810, 8153.000
731.8330, 8113.000
732.9840, 8182.000
734.1350, 8034.000
735.2860, 8099.096
736.4370, 8103.000
737.5880, 8172.000
738.7380, 8072.000
739.8880, 8166.000
741.0390, 8127.000
742.1890, 8120.000
743.3380, 8120.000
744.4880, 8218.000
745.6380, 8145.000
746.7870, 8147.000
747.9360, 8067.000
749.0850, 8063.000
750.2340, 8108.000
751.3830, 8192.000
752.5310, 8157.000
753.6800, 8177.000
754.8280, 8296.000
755.9760, 8182.000
757.1240, 8241.225
758.2720, 8084.000
759.4190, 8241.000
760.5670, 8120.000
761.7140, 8116.000
762.8610, 8250.000
764.0080, 8260.000
765.1550, 8191.000
766.3020, 8259.000
767.4480, 8152.000
768.5950, 8083.000
769.7410, 8229.000
770.8870, 8183.000
772.0330, 8141.000
773.1780, 8303.000
774.3240, 8143.000
775.4690, 8201.000
776.6140, 8103.000
777.7590, 8159.000
778.9040, 8225.000
780.0490, 8249.000
781.1940, 8113.000
782.3380, 8030.000
783.4820, 8195.000
784.6260, 8008.000
785.7700, 8110.000
786.9140, 8163.000
788.0580, 8130.000
789.2010, 8221.000
790.3450, 8203.616
791.4880, 8192.640
792.6310, 8144.000
793.7730, 8208.000
794.9160, 8048.000
796.0590, 8174.000
797.2010, 8303.000
798.3430, 8122.000
799.4850, 8204.000
800.6270, 8249.000
801.7690, 8172.000
802.9100, 8270.000
804.0520, 8240.000
805.1930, 8218.000
806.3340, 8244.000
807.4750, 8268.997
808.6160, 8291.051
809.7560, 8336.000
810.8970, 8317.000
812.0370, 8268.000
813.1770, 8170.000
814.3170, 8179.000
815.4570, 8207.000
816.5960, 8247.000
817.7360, 8245.000
818.8750, 8297.000
820.0140, 8334.000
821.1530, 8314.000
822.2920, 8350.038
823.4310, 8208.000
824.5690, 8337.000
825.7070, 8282.000
826.8460, 8200.000
827.9840, 8270.000
829.1220, 8248.000
830.2590, 8293.000
831.3970, 8234.000
832.5340, 8197.000
833.6710, 8289.000
834.8080, 8380.000
835.9450, 8323.000
837.0820, 8275.000
838.2190, 8322.000
839.3550, 8379.000
840.4910, 8232.000
841.6270, 8358.000
842.7630, 8228.000
843.8990, 8295.000
845.0350, 8382.000
846.1700, 8418.000
847.3060, 8353.000
848.4410, 8375.000
849.5760, 8279.000
850.7100, 8415.000
851.8450, 8332.000
852.9800, 8368.000
854.1140, 8427.000
855.2480, 8442.000
856.3820, 8474.639
857.5160, 8468.923
858.6500, 8490.000
859.7830, 8440.000
860.9170, 8386.000
862.0500, 8377.000
863.1830, 8367.000
864.3160, 8282.000
865.4480, 8330.000
866.5810, 8390.000
867.7130, 8469.000
868.8460, 8456.000
869.9780, 8464.000
871.1100, 8510.000
872.2410, 8452.000
873.3730, 8497.000
874.5050, 8515.000
875.6360, 8512.000
876.7670, 8553.147
877.8980, 8470.000
879.0290, 8565.000
880.1590, 8529.000
881.2900, 8438.000
882.4200, 8507.000
883.5500, 8472.000
884.6800, 8447.000
885.8100, 8528.000
886.9400, 8587.000
888.0690, 8569.000
889.1990, 8607.000
890.3280, 8636.000
891.4570, 8733.000
892.5860, 8517.000
893.7140, 8569.000
894.8430, 8578.000
895.9710, 8695.000
897.1000, 8804.000
898.2280, 8845.000
899.3560, 8924.601
900.4830, 8838.000
901.6110, 8961.000
902.7380, 9005.000
903.8660, 8895.000
904.9930, 8977.000
906.1200, 9093.000
907.2460, 9123.000
908.3730, 9076.000
909.5000, 9081.000
910.6260, 9236.000
911.7520, 9246.656
912.8780, 9461.000
914.0040, 9465.000
915.1290, 9442.000
916.2550, 9649.000
917.3800, 9566.000
918.5050, 9801.000
919.6300, 9586.000
920.7550, 9825.000
921.8800, 9967.000
923.0040, 9896.000
924.1290, 9966.000
925.2530, 9881.000
926.3770, 10043.00
927.5010, 9878.000
928.6250, 9739.000
929.7480, 9850.000
930.8720, 9704.000
931.9950, 9830.000
933.1180, 9545.000
934.2410, 9463.000
935.3640, 9354.000
936.4860, 9191.000
937.6090, 9170.000
938.7310, 9176.000
939.8530, 9044.000
940.9750, 9057.000
942.0970, 9035.000
943.2180, 9062.000
944.3400, 8937.000
945.4610, 8924.000
946.5820, 8874.000
947.7030, 8944.000
948.8240, 8958.000
949.9450, 8979.000
951.0650, 8855.000
952.1860, 8781.000
953.3060, 8859.000
954.4260, 8936.000
955.5460, 8900.000
956.6650, 8795.000
957.7850, 8721.000
958.9040, 8715.000
960.0230, 9070.000
961.1420, 8919.951
962.2610, 8913.000
963.3800, 8921.000
964.4990, 8740.000
965.6170, 8780.000
966.7350, 8792.000
967.8530, 8821.000
968.9710, 8833.000
970.0890, 8872.000
971.2070, 8979.000
972.3240, 8878.000
973.4410, 8967.000
974.5580, 8884.000
975.6750, 8945.000
976.7920, 8813.000
977.9090, 8922.000
979.0250, 8869.000
980.1410, 8862.000
981.2580, 8881.000
982.3740, 8937.000
983.4890, 8924.000
984.6050, 9003.000
985.7200, 8993.000
986.8360, 8943.000
987.9510, 8993.000
989.0660, 9033.000
990.1810, 8910.000
991.2950, 8936.000
992.4100, 8820.492
993.5240, 8942.435
994.6390, 9012.548
995.7530, 9033.611
996.8660, 8858.723
997.9800, 8936.864
999.0940, 8913.604
1000.207, 8886.183
1001.320, 8999.933
1002.433, 8853.545
1003.546, 8965.057
1004.659, 8973.619
1005.772, 9029.299
1006.884, 8982.948
1007.996, 8968.110
1009.108, 9055.333
1010.220, 9086.044
1011.332, 9027.948
1012.444, 9086.620
1013.555, 9094.000
1014.666, 9061.000
1015.777, 9082.000
1016.888, 9153.000
1017.999, 8955.000
1019.110, 8970.000
1020.220, 8991.000
1021.331, 9073.000
1022.441, 9101.000
1023.551, 9088.000
1024.661, 9113.605
1025.770, 9103.000
1026.880, 9096.000
1027.989, 9086.000
1029.098, 9073.000
1030.207, 9062.000
1031.316, 9058.444
1032.425, 9046.000
1033.533, 9051.000
1034.642, 9042.000
1035.750, 9033.000
1036.858, 9009.000
1037.966, 9046.458
1039.073, 9008.000
1040.181, 9114.000
1041.288, 9086.000
1042.396, 9097.000
1043.503, 9131.000
1044.610, 9097.000
1045.716, 9188.000
1046.823, 9179.000
1047.929, 9192.000
1049.036, 9164.000
1050.142, 9204.310
1051.248, 9199.000
1052.353, 9257.000
1053.459, 9254.000
1054.564, 9236.000
1055.670, 9265.000
1056.775, 9141.000
1057.880, 9170.000
1058.985, 9194.000
1060.089, 9265.000
1061.194, 9252.914
1062.298, 9185.000
1063.402, 9219.000
1064.506, 9261.000
1065.610, 9179.000
1066.713, 9292.000
1067.817, 9258.000
1068.920, 9282.000
1070.023, 9180.000
1071.126, 9142.000
1072.229, 9181.000
1073.332, 9356.000
1074.435, 9332.000
1075.537, 9174.000
1076.639, 9317.000
1077.741, 9264.000
1078.843, 9170.000
1079.945, 9299.000
1081.046, 9230.000
1082.148, 9280.652
1083.249, 9293.000
1084.350, 9311.000
1085.451, 9341.427
1086.551, 9368.000
1087.652, 9359.000
1088.752, 9311.000
1089.853, 9257.103
1090.953, 9298.000
1092.053, 9221.000
1093.152, 9210.000
1094.252, 9319.000
1095.351, 9337.000
1096.451, 9351.000
1097.550, 9164.000
1098.649, 9195.000
1099.748, 9287.000
1100.846, 9223.000
1101.945, 9312.000
1103.043, 9267.722
1104.141, 9265.000
1105.239, 9164.000
1106.337, 9255.000
1107.434, 9151.000
1108.532, 9326.000
1109.629, 9295.362
1110.726, 9310.492
1111.823, 9300.000
1112.920, 9330.000
1114.017, 9271.000
1115.113, 9266.000
1116.210, 9357.000
1117.306, 9162.000
1118.402, 9275.000
1119.498, 9381.000
1120.593, 9271.000
1121.689, 9343.000
1122.784, 9400.000
1123.879, 9430.000
1124.974, 9521.000
1126.069, 9324.000
1127.164, 9314.000
1128.259, 9211.000
1129.353, 9203.045
1130.447, 9141.470
1131.541, 9291.000
1132.635, 9066.000
1133.729, 9191.000
1134.822, 9230.000
1135.916, 9120.000
1137.009, 9344.000
1138.102, 9231.758
1139.195, 9197.000
1140.288, 9188.000
1141.380, 9153.000
1142.473, 9203.000
1143.565, 9200.000
1144.657, 9200.000
1145.749, 9142.000
1146.841, 9136.329
1147.932, 9204.000
1149.024, 9094.000
1150.115, 9077.000
1151.206, 9081.000
1152.297, 9209.000
1153.388, 9104.000
1154.479, 9214.000
1155.569, 9011.000
1156.659, 9182.000
1157.750, 9154.000
1158.839, 9065.000
1159.929, 8984.000
1161.019, 9047.000
1162.108, 9026.420
1163.198, 9107.000
1164.287, 9122.000
1165.376, 9139.000
1166.465, 9205.000
1167.553, 9050.000
1168.642, 9157.000
1169.730, 9246.000
1170.818, 9196.000
1171.906, 9301.000
1172.994, 9081.000
1174.082, 9206.000
1175.170, 9145.000
1176.257, 9235.000
1177.344, 9180.000
1178.431, 9268.000
1179.518, 9127.000
1180.605, 9238.000
1181.691, 9097.000
1182.778, 9024.000
1183.864, 9181.000
1184.950, 9178.000
1186.036, 9113.000
1187.122, 9229.000
1188.207, 9191.000
1189.292, 9252.000
1190.378, 9281.000
1191.463, 9164.000
1192.548, 9140.000
1193.632, 9155.000
1194.717, 9226.000
1195.801, 9166.000
1196.886, 9215.000
1197.970, 9275.000
1199.054, 9097.000
1200.137, 9157.000
1201.221, 9392.000
1202.305, 9265.021
1203.388, 9328.000
1204.471, 9387.000
1205.554, 9405.645
1206.637, 9387.884
1207.719, 9383.845
1208.802, 9283.000
1209.884, 9343.000
1210.966, 9262.000
1212.048, 9295.000
1213.130, 9261.000
1214.212, 9192.000
1215.293, 9363.000
1216.374, 9231.000
1217.456, 9288.000
1218.536, 9293.000
1219.617, 9406.000
1220.698, 9233.000
1221.778, 9241.000
1222.859, 9395.000
1223.939, 9157.000
1225.019, 9294.000
1226.099, 9250.000
1227.178, 9240.000
1228.258, 9418.000
1229.337, 9245.000
1230.417, 9252.000
1231.496, 9251.000
1232.574, 9304.000
1233.653, 9274.000
1234.732, 9301.000
1235.810, 9265.000
1236.888, 9154.000
1237.966, 9328.000
1239.044, 9342.000
1240.122, 9225.000
1241.199, 9345.000
1242.277, 9672.000
1243.354, 9485.517
1244.431, 9890.000
1245.508, 9351.000
1246.585, 9399.000
1247.661, 9352.000
1248.738, 9337.000
1249.814, 9369.000
1250.890, 9372.000
1251.966, 9431.000
1253.042, 9356.000
1254.117, 9365.000
1255.193, 9309.000
1256.268, 9426.000
1257.343, 9368.000
1258.418, 9371.000
1259.493, 9393.000
1260.567, 9371.000
1261.642, 9385.765
1262.716, 9349.000
1263.790, 9397.000
1264.864, 9354.000
1265.938, 9363.000
1267.011, 9406.000
1268.085, 9370.000
1269.158, 9393.000
1270.231, 9388.238
1271.304, 9368.000
1272.377, 9394.000
1273.450, 9425.000
1274.522, 9466.000
1275.594, 9407.000
1276.666, 9509.000
1277.738, 9401.000
1278.810, 9553.000
1279.882, 9382.000
1280.953, 9481.000
1282.025, 9368.000
1283.096, 9419.000
1284.167, 9389.000
1285.238, 9474.000
1286.308, 9460.000
1287.379, 9484.216
1288.449, 9428.000
1289.519, 9495.000
1290.589, 9520.000
1291.659, 9471.000
1292.729, 9575.000
1293.798, 9534.000
1294.868, 9447.000
1295.937, 9533.000
1297.006, 9413.000
1298.075, 9573.000
1299.143, 9566.000
1300.212, 9406.000
1301.280, 9460.000
1302.348, 9417.000
1303.416, 9518.000
1304.484, 9599.000
1305.552, 9466.000
1306.620, 9451.000
1307.687, 9634.000
1308.754, 9637.000
1309.821, 9547.000
1310.888, 9692.000
1311.955, 9639.000
1313.021, 9565.000
1314.088, 9571.000
1315.154, 9487.000
1316.220, 9713.000
1317.286, 9688.000
1318.352, 9731.000
1319.417, 9637.000
1320.483, 9651.000
1321.548, 9636.000
1322.613, 9726.000
1323.678, 9597.000
1324.743, 9518.000
1325.807, 9736.000
1326.872, 9616.000
1327.936, 9556.000
1329.000, 9702.000
1330.064, 9689.000
1331.128, 9717.000
1332.191, 9605.000
1333.255, 9752.000
1334.318, 9692.000
1335.381, 9677.000
1336.444, 9721.000
1337.507, 9658.000
1338.569, 9616.000
1339.632, 9797.000
1340.694, 9631.000
1341.756, 9679.000
1342.818, 9667.000
1343.880, 9847.000
1344.941, 9655.000
1346.003, 9803.000
1347.064, 9620.000
1348.125, 9775.000
1349.186, 9766.000
1350.247, 9734.000
1351.308, 9724.000
1352.368, 9843.000
1353.428, 9815.000
1354.489, 9738.000
1355.549, 9844.000
1356.608, 9816.000
1357.668, 9682.000
1358.727, 9810.000
1359.787, 9788.000
1360.846, 9817.000
1361.905, 9866.000
1362.964, 9885.000
1364.022, 9870.133
1365.081, 9828.000
1366.139, 9823.000
1367.197, 9822.000
1368.255, 9817.000
1369.313, 9891.000
1370.371, 9722.000
1371.428, 9661.000
1372.486, 9899.000
1373.543, 9798.000
1374.600, 9701.000
1375.657, 9809.000
1376.713, 9827.000
1377.770, 9651.000
1378.826, 9746.706
1379.882, 9766.000
1380.938, 9792.000
1381.994, 9730.000
1383.050, 9828.000
1384.106, 9814.000
1385.161, 9858.000
1386.216, 9791.000
1387.271, 9789.000
1388.326, 9909.000
1389.381, 9692.000
1390.435, 9870.000
1391.490, 9789.000
1392.544, 9766.000
1393.598, 9696.000
1394.652, 9681.688
1395.705, 9672.673
1396.759, 9672.000
1397.812, 9724.000
1398.866, 9752.000
1399.919, 9671.716
1400.972, 9789.052
1402.024, 9854.557
1403.077, 9871.014
1404.129, 9691.524
1405.181, 9765.061
1406.233, 9737.195
1407.285, 9705.172
1408.337, 9814.321
1409.389, 9663.331
1410.440, 9770.242
1411.491, 9774.205
1412.542, 9825.284
1413.593, 9774.336
1414.644, 9754.900
1415.695, 9837.526
1416.745, 9829.000
1417.795, 9837.000
1418.845, 9729.000
1419.895, 9917.000
1420.945, 9713.000
1421.995, 9791.000
1423.044, 9880.000
1424.093, 9760.000
1425.142, 9771.000
1426.191, 9745.000
1427.240, 9887.000
1428.289, 9861.000
1429.337, 9813.000
1430.385, 9725.000
1431.433, 9837.000
1432.481, 9717.000
1433.529, 9740.000
1434.577, 9807.000
1435.624, 9745.000
1436.672, 9838.000
1437.719, 9772.000
1438.766, 9745.000
1439.812, 9901.000
1440.859, 9796.000
1441.905, 9871.000
1442.952, 9740.000
1443.998, 9787.000
1445.044, 9762.000
1446.090, 9877.000
1447.135, 9910.000
1448.181, 9724.000
1449.226, 9877.000
1450.271, 9863.000
1451.316, 9841.000
1452.361, 9885.140
1453.405, 9787.000
1454.450, 9897.000
1455.494, 9797.000
1456.538, 9851.000
1457.582, 9857.000
1458.626, 9823.000
1459.670, 9909.000
1460.713, 9848.280
1461.757, 9947.000
1462.800, 9814.000
1463.843, 9806.000
1464.886, 9859.000
1465.928, 9866.000
1466.971, 9861.000
1468.013, 9874.843
1469.055, 9872.961
1470.097, 9859.000
1471.139, 9856.000
1472.181, 9836.000
1473.222, 9783.000
1474.263, 9883.000
1475.305, 9893.000
1476.346, 9744.000
1477.386, 9966.000
1478.427, 9828.000
1479.468, 9761.000
1480.508, 9842.000
1481.548, 9876.000
1482.588, 9828.000
1483.628, 9823.000
1484.668, 9902.000
1485.707, 9815.000
1486.747, 9904.000
1487.786, 9806.000
1488.825, 9878.000
1489.864, 9975.000
1490.902, 9842.000
1491.941, 9924.000
1492.979, 9989.000
1494.017, 9818.000
1495.055, 9908.000
1496.093, 9861.000
1497.131, 9887.000
1498.168, 9939.000
1499.206, 9923.000
1500.243, 10001.00
1501.280, 9846.000
1502.317, 9898.000
1503.354, 9924.000
1504.390, 9828.000
1505.426, 9922.000
1506.463, 10048.00
1507.499, 9892.000
1508.535, 10030.00
1509.570, 9906.000
1510.606, 9891.000
1511.641, 9930.000
1512.676, 9993.000
1513.711, 9952.530
1514.746, 9976.000
1515.781, 10028.00
1516.816, 10106.77
1517.850, 10044.49
1518.884, 10017.00
1519.918, 9994.000
1520.952, 9970.000
1521.986, 10085.00
1523.019, 9954.000
1524.053, 9966.000
1525.086, 10080.00
1526.119, 9972.000
1527.152, 10092.00
1528.185, 9979.000
1529.217, 10003.00
1530.250, 10062.00
1531.282, 10080.00
1532.314, 10106.00
1533.346, 10008.00
1534.377, 10003.00
1535.409, 10051.14
1536.440, 10067.00
1537.472, 10159.00
1538.503, 10099.00
1539.534, 10118.00
1540.564, 10127.86
1541.595, 10071.00
1542.625, 10081.00
1543.656, 10127.00
1544.686, 10019.00
1545.716, 10121.00
1546.745, 10061.00
1547.775, 10035.00
1548.804, 10079.00
1549.834, 10124.00
1550.863, 10204.00
1551.892, 10222.00
1552.920, 10319.00
1553.949, 10320.10
1554.977, 10305.77
1556.006, 10292.00
1557.034, 10234.00
1558.062, 10122.00
1559.089, 10087.00
1560.117, 10053.85
1561.144, 10051.00
1562.172, 10081.00
1563.199, 10104.00
1564.226, 10110.43
1565.252, 10141.41
1566.279, 10146.00
1567.305, 10177.00
1568.332, 10222.00
1569.358, 10217.00
1570.384, 10229.00
1571.409, 10233.00
##END=



