##NAMES=Covellite
##RRUFFID=R060143
##IDEAL CHEMISTRY=Cu^1+^S
##LOCALITY=Butte, Montana, USA
##OWNER=RRUFF
##SOURCE=Marcus Origlieri
##DESCRIPTION=Irridescent blue to purple hexagonal plates
##STATUS=The identification of this mineral has been confirmed by X-ray diffraction and chemical analysis
##URL=rruff.info/R060143
##MEASURED CHEMISTRY=Cu_1.00_S_1.00_
##PIN_ID=L00760
##ORIENTATION=Laser parallel to -a* (-1 0 0). Fiducial mark perpendicular to laser is parallel to -c [0 0 -1]
164.8110, 7321.000
166.0360, 7111.000
167.2610, 6903.000
168.4860, 6992.000
169.7110, 7151.000
170.9360, 7172.000
172.1610, 6872.000
173.3850, 6765.000
174.6100, 6706.000
175.8340, 6725.000
177.0580, 6785.000
178.2820, 6757.000
179.5050, 6779.000
180.7290, 6803.425
181.9520, 6828.345
183.1760, 6862.000
184.3990, 6917.000
185.6220, 6988.000
186.8450, 7041.000
188.0670, 7121.991
189.2900, 7210.696
190.5120, 7294.000
191.7340, 7390.000
192.9560, 7499.000
194.1780, 7555.648
195.4000, 7605.000
196.6220, 7638.000
197.8430, 7629.000
199.0640, 7816.000
200.2860, 7850.000
201.5070, 7685.165
202.7270, 7595.193
203.9480, 7235.657
205.1690, 6395.000
206.3890, 6013.000
207.6090, 5854.000
208.8290, 5894.000
210.0490, 6005.000
211.2690, 5997.000
212.4890, 5951.167
213.7080, 6071.000
214.9280, 5823.000
216.1470, 5737.000
217.3660, 5767.000
218.5850, 5810.000
219.8030, 5714.000
221.0220, 5833.000
222.2400, 5621.000
223.4590, 5696.000
224.6770, 5716.000
225.8950, 5683.000
227.1120, 5684.000
228.3300, 5731.000
229.5480, 5662.000
230.7650, 5689.000
231.9820, 5649.000
233.1990, 5639.300
234.4160, 5704.000
235.6330, 5631.000
236.8490, 5723.000
238.0660, 5740.000
239.2820, 5714.000
240.4980, 5776.000
241.7140, 5714.000
242.9300, 5833.000
244.1460, 5810.000
245.3610, 5852.260
246.5770, 5934.000
247.7920, 5950.000
249.0070, 6175.000
250.2220, 6276.000
251.4370, 6466.000
252.6510, 6421.000
253.8660, 6643.695
255.0800, 7050.000
256.2940, 7439.026
257.5080, 7787.890
258.7220, 8093.178
259.9360, 8357.237
261.1490, 8456.349
262.3630, 9281.000
263.5760, 8305.000
264.7890, 8065.652
266.0020, 7506.000
267.2150, 7201.000
268.4270, 7186.000
269.6400, 6942.000
270.8520, 6842.000
272.0640, 6630.000
273.2760, 6513.000
274.4880, 6557.000
275.7000, 6615.000
276.9120, 6444.000
278.1230, 6305.000
279.3340, 6243.000
280.5450, 6214.000
281.7560, 6132.946
282.9670, 6000.000
284.1780, 6071.000
285.3880, 6042.000
286.5980, 6075.000
287.8090, 5942.000
289.0190, 6016.000
290.2290, 6002.000
291.4380, 6063.000
292.6480, 5993.000
293.8570, 6009.000
295.0670, 5946.000
296.2760, 6018.000
297.4850, 5941.000
298.6930, 5901.000
299.9020, 5850.000
301.1110, 5844.000
302.3190, 5877.000
303.5270, 5874.000
304.7350, 5874.000
305.9430, 5894.000
307.1510, 5799.000
308.3580, 5932.000
309.5660, 5952.000
310.7730, 5846.000
311.9800, 5884.000
313.1870, 5798.000
314.3940, 5866.000
315.6010, 5888.000
316.8070, 5831.000
318.0130, 5897.000
319.2200, 5893.000
320.4260, 5812.000
321.6310, 5893.000
322.8370, 5895.000
324.0430, 5924.000
325.2480, 5942.000
326.4540, 5984.000
327.6590, 6033.000
328.8640, 6039.000
330.0680, 6044.000
331.2730, 5987.000
332.4780, 5975.000
333.6820, 6002.016
334.8860, 6005.501
336.0900, 6064.000
337.2940, 6078.000
338.4980, 6096.000
339.7010, 6136.661
340.9050, 6123.000
342.1080, 6112.000
343.3110, 6148.000
344.5140, 6088.000
345.7170, 6124.000
346.9200, 6080.000
348.1220, 6148.000
349.3240, 6106.000
350.5270, 6040.000
351.7290, 6066.000
352.9310, 6064.000
354.1320, 6086.000
355.3340, 6058.000
356.5350, 6121.000
357.7370, 6058.000
358.9380, 5997.000
360.1390, 6023.000
361.3400, 6228.000
362.5400, 6145.000
363.7410, 6158.000
364.9410, 6066.000
366.1410, 6080.000
367.3410, 6173.000
368.5410, 6152.000
369.7410, 6035.000
370.9400, 6109.000
372.1400, 5978.000
373.3390, 6035.000
374.5380, 6101.000
375.7370, 6094.000
376.9360, 6190.000
378.1350, 6158.000
379.3330, 6180.000
380.5310, 6187.000
381.7300, 6127.000
382.9280, 6134.000
384.1260, 6118.165
385.3230, 6164.000
386.5210, 6119.000
387.7180, 6176.000
388.9160, 6217.000
390.1130, 6165.000
391.3100, 6154.000
392.5060, 6264.000
393.7030, 6159.000
394.9000, 6171.000
396.0960, 6220.000
397.2920, 6134.000
398.4880, 6098.000
399.6840, 6161.000
400.8800, 6143.118
402.0750, 6231.000
403.2710, 6273.000
404.4660, 6328.000
405.6610, 6345.625
406.8560, 6383.000
408.0510, 6370.000
409.2450, 6457.000
410.4400, 6511.000
411.6340, 6599.000
412.8280, 6581.000
414.0220, 6362.000
415.2160, 6237.000
416.4100, 6224.000
417.6030, 6173.000
418.7970, 6208.000
419.9900, 6129.000
421.1830, 6102.000
422.3760, 6121.000
423.5690, 6083.098
424.7610, 6257.000
425.9540, 6102.000
427.1460, 6168.000
428.3380, 6245.000
429.5300, 6191.000
430.7220, 6226.000
431.9140, 6226.000
433.1050, 6307.000
434.2970, 6332.000
435.4880, 6356.000
436.6790, 6373.000
437.8700, 6395.000
439.0610, 6515.000
440.2510, 6650.000
441.4420, 6687.000
442.6320, 6874.000
443.8220, 6875.000
445.0120, 7019.000
446.2020, 7256.000
447.3910, 7446.000
448.5810, 7735.000
449.7700, 8073.000
450.9600, 8493.000
452.1490, 8938.000
453.3370, 9336.000
454.5260, 10025.00
455.7150, 10554.00
456.9030, 11384.00
458.0910, 12086.00
459.2800, 12989.00
460.4670, 14034.00
461.6550, 15211.00
462.8430, 17012.00
464.0300, 19465.00
465.2180, 22720.00
466.4050, 27439.00
467.5920, 33979.00
468.7790, 42801.00
469.9650, 52830.00
471.1520, 61769.00
472.3380, 64865.00
473.5250, 60835.00
474.7110, 51926.00
475.8970, 41451.00
477.0820, 32895.00
478.2680, 26337.00
479.4540, 21660.00
480.6390, 18053.00
481.8240, 15813.00
483.0090, 13820.00
484.1940, 12545.00
485.3780, 11475.00
486.5630, 10491.00
487.7470, 10067.00
488.9320, 9500.000
490.1160, 9123.000
491.3000, 8709.000
492.4830, 8496.000
493.6670, 8205.000
494.8500, 8153.000
496.0340, 7986.000
497.2170, 7698.000
498.4000, 7614.000
499.5820, 7509.000
500.7650, 7298.000
501.9480, 7338.000
503.1300, 7249.000
504.3120, 7111.000
505.4940, 7083.000
506.6760, 7026.000
507.8580, 6944.000
509.0390, 6935.653
510.2210, 6915.000
511.4020, 6930.000
512.5830, 6951.000
513.7640, 7030.000
514.9450, 6985.000
516.1250, 7006.000
517.3060, 6930.000
518.4860, 6980.000
519.6660, 7005.000
520.8460, 6782.000
522.0260, 6868.000
523.2060, 6833.000
524.3850, 6850.000
525.5650, 6779.000
526.7440, 6714.000
527.9230, 6758.000
529.1020, 6820.000
530.2810, 6724.000
531.4590, 6789.000
532.6380, 6720.000
533.8160, 6675.000
534.9940, 6879.000
536.1720, 6810.000
537.3500, 6693.000
538.5270, 6793.000
539.7050, 6785.000
540.8820, 6794.000
542.0590, 6849.000
543.2360, 6777.000
544.4130, 6728.000
545.5900, 6738.000
546.7660, 6714.000
547.9430, 6665.000
549.1190, 6704.000
550.2950, 6709.000
551.4710, 6674.951
552.6470, 6696.000
553.8220, 6623.000
554.9980, 6532.000
556.1730, 6503.000
557.3480, 6598.000
558.5230, 6556.000
559.6980, 6410.000
560.8730, 6471.000
562.0470, 6386.000
563.2220, 6461.000
564.3960, 6462.000
565.5700, 6371.000
566.7440, 6444.000
567.9170, 6435.000
569.0910, 6366.000
570.2640, 6416.000
571.4380, 6327.000
572.6110, 6217.000
573.7840, 6311.000
574.9570, 6299.000
576.1290, 6254.000
577.3020, 6171.000
578.4740, 6249.000
579.6460, 6256.000
580.8180, 6258.000
581.9900, 6108.000
583.1620, 6178.000
584.3330, 6194.000
585.5040, 6089.000
586.6760, 6232.000
587.8470, 6200.000
589.0180, 6136.000
590.1880, 6138.000
591.3590, 6198.000
592.5290, 6133.000
593.7000, 6204.000
594.8700, 6131.000
596.0400, 6129.000
597.2090, 6062.000
598.3790, 6162.000
599.5490, 6188.000
600.7180, 6139.000
601.8870, 6197.000
603.0560, 6035.000
604.2250, 6162.000
605.3940, 6124.000
606.5620, 6035.000
607.7300, 6063.000
608.8990, 6097.000
610.0670, 6159.000
611.2350, 6118.000
612.4020, 6051.000
613.5700, 6062.000
614.7370, 5979.000
615.9050, 6088.000
617.0720, 6050.000
618.2390, 5952.000
619.4060, 6034.000
620.5720, 6024.000
621.7390, 5908.000
622.9050, 6036.000
624.0710, 5977.000
625.2370, 5974.000
626.4030, 5988.000
627.5690, 6014.000
628.7340, 5965.000
629.9000, 6029.000
631.0650, 5969.000
632.2300, 6029.000
633.3950, 5992.000
634.5600, 5999.912
635.7240, 5944.000
636.8890, 5977.000
638.0530, 6027.000
639.2170, 5947.000
640.3810, 5876.000
641.5450, 6015.000
642.7080, 5986.000
643.8720, 6015.000
645.0350, 6015.278
646.1980, 6027.211
647.3610, 5990.000
648.5240, 6006.000
649.6870, 6074.000
650.8490, 5943.000
652.0120, 6004.000
653.1740, 5929.000
654.3360, 5949.000
655.4980, 5931.000
656.6600, 5909.000
657.8210, 5894.852
658.9830, 5889.849
660.1440, 5853.000
661.3050, 5890.000
662.4660, 5904.000
663.6270, 5911.149
664.7870, 5897.000
665.9480, 5907.000
667.1080, 5895.750
668.2680, 5896.000
669.4280, 5873.000
670.5880, 5892.000
671.7480, 5873.000
672.9070, 5788.000
674.0670, 5964.000
675.2260, 5909.000
676.3850, 5840.000
677.5440, 5818.000
678.7030, 5923.000
679.8610, 5894.000
681.0200, 5928.000
682.1780, 5873.000
683.3360, 5800.000
684.4940, 5921.000
685.6520, 5748.000
686.8090, 5883.000
687.9670, 5910.000
689.1240, 5970.000
690.2810, 5971.000
691.4380, 5998.622
692.5950, 5933.000
693.7520, 6028.000
694.9080, 5987.357
696.0650, 6006.087
697.2210, 5933.000
698.3770, 5977.000
699.5330, 5936.164
700.6880, 5825.000
701.8440, 5919.000
702.9990, 5900.000
704.1550, 5958.000
705.3100, 5908.000
706.4650, 5893.000
707.6190, 5934.000
708.7740, 5971.000
709.9290, 5909.000
711.0830, 5949.000
712.2370, 5910.000
713.3910, 5831.000
714.5450, 6004.000
715.6980, 5988.000
716.8520, 5969.000
718.0050, 5967.000
719.1580, 5994.000
720.3110, 6017.000
721.4640, 6093.000
722.6170, 6077.000
723.7700, 6047.000
724.9220, 6103.000
726.0740, 6185.000
727.2260, 6135.000
728.3780, 6095.000
729.5300, 6186.000
730.6810, 6171.000
731.8330, 6148.000
732.9840, 6198.000
734.1350, 6157.000
735.2860, 6171.000
736.4370, 6178.000
737.5880, 6139.000
738.7380, 6157.000
739.8880, 6248.000
741.0390, 6234.000
742.1890, 6213.000
743.3380, 6226.000
744.4880, 6190.000
745.6380, 6324.000
746.7870, 6257.770
747.9360, 6312.354
749.0850, 6180.000
750.2340, 6309.000
751.3830, 6217.000
752.5310, 6082.000
753.6800, 6145.000
754.8280, 6214.000
755.9760, 6090.000
757.1240, 6199.000
758.2720, 6178.000
759.4190, 6171.000
760.5670, 6063.000
761.7140, 6241.000
762.8610, 6187.000
764.0080, 6231.000
765.1550, 6214.000
766.3020, 6174.000
767.4480, 6181.000
768.5950, 6160.000
769.7410, 6222.000
770.8870, 6247.000
772.0330, 6199.000
773.1780, 6137.000
774.3240, 6161.000
775.4690, 6127.000
776.6140, 6156.000
777.7590, 6131.000
778.9040, 6087.000
780.0490, 6154.000
781.1940, 6106.000
782.3380, 6172.000
783.4820, 6078.000
784.6260, 6160.000
785.7700, 6120.000
786.9140, 6155.000
788.0580, 6173.090
789.2010, 6051.000
790.3450, 6178.000
791.4880, 6187.000
792.6310, 6146.000
793.7730, 6051.000
794.9160, 6042.000
796.0590, 6129.000
797.2010, 6191.000
798.3430, 6139.000
799.4850, 6149.000
800.6270, 6212.000
801.7690, 6066.000
802.9100, 6164.000
804.0520, 6186.000
805.1930, 6162.000
806.3340, 6147.000
807.4750, 6166.000
808.6160, 6171.000
809.7560, 6146.000
810.8970, 6108.000
812.0370, 6034.000
813.1770, 6137.000
814.3170, 6247.000
815.4570, 6112.000
816.5960, 6265.000
817.7360, 6100.000
818.8750, 6135.000
820.0140, 6107.000
821.1530, 6059.000
822.2920, 6188.000
823.4310, 6201.000
824.5690, 6210.000
825.7070, 6181.000
826.8460, 6211.000
827.9840, 6117.000
829.1220, 6197.000
830.2590, 6220.000
831.3970, 6290.000
832.5340, 6108.000
833.6710, 6168.000
834.8080, 6144.000
835.9450, 6207.000
837.0820, 6268.000
838.2190, 6240.000
839.3550, 6283.000
840.4910, 6317.000
841.6270, 6229.000
842.7630, 6247.000
843.8990, 6246.000
845.0350, 6270.000
846.1700, 6266.653
847.3060, 6323.000
848.4410, 6271.000
849.5760, 6299.000
850.7100, 6316.000
851.8450, 6249.000
852.9800, 6335.000
854.1140, 6304.000
855.2480, 6382.000
856.3820, 6292.000
857.5160, 6302.000
858.6500, 6369.000
859.7830, 6308.000
860.9170, 6264.000
862.0500, 6330.000
863.1830, 6316.000
864.3160, 6238.000
865.4480, 6275.000
866.5810, 6352.000
867.7130, 6334.401
868.8460, 6448.000
869.9780, 6408.000
871.1100, 6368.000
872.2410, 6434.000
873.3730, 6485.000
874.5050, 6450.496
875.6360, 6399.000
876.7670, 6430.000
877.8980, 6406.000
879.0290, 6426.000
880.1590, 6488.000
881.2900, 6499.000
882.4200, 6436.000
883.5500, 6486.000
884.6800, 6430.000
885.8100, 6496.000
886.9400, 6632.000
888.0690, 6556.000
889.1990, 6540.000
890.3280, 6655.000
891.4570, 6465.498
892.5860, 6595.302
893.7140, 6681.502
894.8430, 6726.497
895.9710, 6606.726
897.1000, 6699.705
898.2280, 6707.410
899.3560, 6711.617
900.4830, 6834.482
901.6110, 6738.674
902.7380, 6859.657
903.8660, 6894.119
904.9930, 6968.163
906.1200, 6986.000
907.2460, 7024.000
908.3730, 7013.000
909.5000, 7103.000
910.6260, 7150.000
911.7520, 7245.000
912.8780, 7302.000
914.0040, 7447.000
915.1290, 7528.000
916.2550, 7575.000
917.3800, 7597.000
918.5050, 7709.000
919.6300, 7838.000
920.7550, 7753.000
921.8800, 7934.000
923.0040, 7994.000
924.1290, 8019.000
925.2530, 8024.000
926.3770, 8076.000
927.5010, 8124.000
928.6250, 8041.000
929.7480, 7950.000
930.8720, 7785.000
931.9950, 7750.000
933.1180, 7501.000
934.2410, 7648.000
935.3640, 7469.000
936.4860, 7315.000
937.6090, 7412.000
938.7310, 7191.000
939.8530, 7161.000
940.9750, 7180.000
942.0970, 7162.000
943.2180, 7157.000
944.3400, 7173.000
945.4610, 7123.000
946.5820, 7068.000
947.7030, 6995.000
948.8240, 7145.000
949.9450, 7046.379
951.0650, 7083.000
952.1860, 7049.000
953.3060, 7033.733
954.4260, 6992.000
955.5460, 7046.000
956.6650, 6975.000
957.7850, 7014.000
958.9040, 7055.000
960.0230, 6958.000
961.1420, 6947.000
962.2610, 7002.000
963.3800, 6906.000
964.4990, 6942.000
965.6170, 6900.000
966.7350, 6974.000
967.8530, 7046.000
968.9710, 6960.000
970.0890, 7025.000
971.2070, 6995.000
972.3240, 7084.000
973.4410, 6997.000
974.5580, 7081.000
975.6750, 7003.000
976.7920, 6974.000
977.9090, 6959.000
979.0250, 7076.000
980.1410, 7129.000
981.2580, 7059.000
982.3740, 7075.000
983.4890, 7097.000
984.6050, 7063.000
985.7200, 7112.000
986.8360, 7164.000
987.9510, 7123.895
989.0660, 7150.386
990.1810, 7129.000
991.2950, 7103.000
992.4100, 7213.000
993.5240, 7140.000
994.6390, 7106.000
995.7530, 7165.000
996.8660, 7234.000
997.9800, 7234.000
999.0940, 7212.000
1000.207, 7226.000
1001.320, 7187.000
1002.433, 7222.000
1003.546, 7248.000
1004.659, 7223.000
1005.772, 7224.000
1006.884, 7176.000
1007.996, 7147.000
1009.108, 7078.000
1010.220, 7185.000
1011.332, 7170.000
1012.444, 7219.000
1013.555, 7159.000
1014.666, 7154.000
1015.777, 7121.000
1016.888, 7174.000
1017.999, 7246.000
1019.110, 7213.000
1020.220, 7204.000
1021.331, 7207.512
1022.441, 7207.000
1023.551, 7174.000
1024.661, 7162.000
1025.770, 7151.000
1026.880, 7161.000
1027.989, 7188.000
1029.098, 7160.000
1030.207, 7172.000
1031.316, 7093.000
1032.425, 7106.107
1033.533, 7175.000
1034.642, 7102.000
1035.750, 7148.000
1036.858, 7172.000
1037.966, 7144.000
1039.073, 7185.000
1040.181, 7231.000
1041.288, 7244.000
1042.396, 7191.000
1043.503, 7271.000
1044.610, 7182.000
1045.716, 7169.000
1046.823, 7161.000
1047.929, 7208.000
1049.036, 7316.000
1050.142, 7177.000
1051.248, 7303.000
1052.353, 7336.000
1053.459, 7324.000
1054.564, 7207.000
1055.670, 7311.000
1056.775, 7342.000
1057.880, 7282.000
1058.985, 7320.000
1060.089, 7398.000
1061.194, 7315.000
1062.298, 7303.000
1063.402, 7424.000
1064.506, 7274.000
1065.610, 7218.570
1066.713, 7324.023
1067.817, 7385.906
1068.920, 7406.549
1070.023, 7262.456
1071.126, 7331.085
1072.229, 7314.465
1073.332, 7294.350
1074.435, 7392.919
1075.537, 7272.781
1076.639, 7369.463
1077.741, 7379.594
1078.843, 7349.000
1079.945, 7354.000
1081.046, 7355.000
1082.148, 7345.000
1083.249, 7342.252
1084.350, 7325.000
1085.451, 7310.000
1086.551, 7340.000
1087.652, 7295.000
1088.752, 7327.000
1089.853, 7421.000
1090.953, 7328.000
1092.053, 7359.000
1093.152, 7166.000
1094.252, 7331.000
1095.351, 7269.000
1096.451, 7316.000
1097.550, 7610.000
1098.649, 7245.000
1099.748, 7195.000
1100.846, 7372.000
1101.945, 7247.000
1103.043, 7126.000
1104.141, 7156.000
1105.239, 7090.025
1106.337, 7128.000
1107.434, 7109.000
1108.532, 7145.000
1109.629, 7206.000
1110.726, 7085.000
1111.823, 7128.000
1112.920, 7155.000
1114.017, 7089.000
1115.113, 7192.000
1116.210, 7121.000
1117.306, 7193.000
1118.402, 7219.000
1119.498, 7086.000
1120.593, 7157.000
1121.689, 7306.000
1122.784, 7111.000
1123.879, 7172.000
1124.974, 7136.000
1126.069, 7204.000
1127.164, 7079.000
1128.259, 7207.000
1129.353, 7029.000
1130.447, 7072.000
1131.541, 7063.000
1132.635, 7017.000
1133.729, 7101.000
1134.822, 6994.000
1135.916, 7075.000
1137.009, 7118.000
1138.102, 7109.000
1139.195, 7105.000
1140.288, 7058.000
1141.380, 6969.502
1142.473, 7063.190
1143.565, 7113.309
1144.657, 7122.192
1145.749, 6966.339
1146.841, 7023.209
1147.932, 6994.835
1149.024, 6962.959
1150.115, 7049.775
1151.206, 6917.888
1152.297, 7002.821
1153.388, 7001.204
1154.479, 7039.199
1155.569, 6991.423
1156.659, 6916.000
1157.750, 7034.000
1158.839, 6862.000
1159.929, 6997.000
1161.019, 6935.000
1162.108, 6928.000
1163.198, 6882.000
1164.287, 6834.000
1165.376, 7025.000
1166.465, 6914.000
1167.553, 6928.000
1168.642, 7105.000
1169.730, 6878.000
1170.818, 7008.000
1171.906, 6821.000
1172.994, 6888.000
1174.082, 6917.000
1175.170, 6947.000
1176.257, 6864.000
1177.344, 6859.000
1178.431, 6920.000
1179.518, 6874.000
1180.605, 6970.000
1181.691, 6948.000
1182.778, 6929.000
1183.864, 6971.000
1184.950, 6908.000
1186.036, 6888.000
1187.122, 6920.000
1188.207, 6900.801
1189.292, 6841.000
1190.378, 6910.000
1191.463, 6933.000
1192.548, 6896.000
1193.632, 6874.000
1194.717, 6994.000
1195.801, 6884.000
1196.886, 6901.000
1197.970, 6829.000
1199.054, 6897.000
1200.137, 6988.000
1201.221, 6949.000
1202.305, 6995.000
1203.388, 6872.000
1204.471, 6823.000
1205.554, 6843.000
1206.637, 6825.000
1207.719, 6916.000
1208.802, 6905.000
1209.884, 6856.000
1210.966, 6840.000
1212.048, 6941.000
1213.130, 6869.000
1214.212, 6922.000
1215.293, 6932.000
1216.374, 6859.000
1217.456, 6929.000
1218.536, 6843.000
1219.617, 6960.000
1220.698, 6833.000
1221.778, 6904.000
1222.859, 6898.000
1223.939, 6866.000
1225.019, 6940.000
1226.099, 6940.000
1227.178, 6864.000
1228.258, 6959.000
1229.337, 6859.000
1230.417, 6858.000
1231.496, 6885.000
1232.574, 6952.000
1233.653, 6916.000
1234.732, 6972.000
1235.810, 6933.517
1236.888, 6904.090
1237.966, 7000.193
1239.044, 7052.721
1240.122, 7064.013
1241.199, 6910.573
1242.277, 6969.852
1243.354, 6943.884
1244.431, 6914.421
1245.508, 7003.643
1246.585, 6874.163
1247.661, 6961.506
1248.738, 6962.295
1249.814, 7002.699
1250.890, 6957.327
1251.966, 6938.449
1253.042, 7005.374
1254.117, 7024.792
1255.193, 6969.546
1256.268, 7012.471
1257.343, 6860.000
1258.418, 6987.000
1259.493, 6847.000
1260.567, 6899.000
1261.642, 6860.000
1262.716, 6959.000
1263.790, 6973.000
1264.864, 7107.000
1265.938, 7055.939
1267.011, 7005.000
1268.085, 6988.000
1269.158, 6949.000
1270.231, 6955.000
1271.304, 6976.000
1272.377, 6874.000
1273.450, 6990.000
1274.522, 7061.000
1275.594, 7055.000
1276.666, 6957.000
1277.738, 7006.000
1278.810, 7003.000
1279.882, 6967.000
1280.953, 6971.000
1282.025, 6941.000
1283.096, 6986.000
1284.167, 6960.000
1285.238, 6988.000
1286.308, 6927.000
1287.379, 6916.000
1288.449, 6908.000
1289.519, 6872.000
1290.589, 7018.000
1291.659, 6955.000
1292.729, 6988.000
1293.798, 6900.000
1294.868, 6974.000
1295.937, 6936.000
1297.006, 7006.000
1298.075, 6957.000
1299.143, 6854.000
1300.212, 6996.000
1301.280, 7084.000
1302.348, 6841.000
1303.416, 7028.000
1304.484, 6985.000
1305.552, 6932.000
1306.620, 7048.000
1307.687, 7018.000
1308.754, 6997.000
1309.821, 7084.000
1310.888, 7031.000
1311.955, 7030.000
1313.021, 6996.000
1314.088, 7073.000
1315.154, 7027.000
1316.220, 7102.000
1317.286, 7031.000
1318.352, 7023.000
1319.417, 7122.000
1320.483, 6960.000
1321.548, 7013.000
1322.613, 7207.000
1323.678, 7349.000
1324.743, 6993.000
1325.807, 7137.000
1326.872, 7076.000
1327.936, 7085.000
1329.000, 7083.000
1330.064, 7102.000
1331.128, 6949.000
1332.191, 7129.000
1333.255, 7048.000
1334.318, 7153.000
1335.381, 7172.000
1336.444, 7118.000
1337.507, 6997.000
1338.569, 7183.000
1339.632, 7156.000
1340.694, 7075.000
1341.756, 7152.000
1342.818, 7109.000
1343.880, 7212.000
1344.941, 7201.000
1346.003, 7089.000
1347.064, 7081.000
1348.125, 7073.000
1349.186, 7144.000
1350.247, 7139.000
1351.308, 7186.000
1352.368, 7175.000
1353.428, 7101.000
1354.489, 7062.000
1355.549, 7112.032
1356.608, 7163.000
1357.668, 7141.000
1358.727, 7205.000
1359.787, 7194.622
1360.846, 7213.000
1361.905, 7204.000
1362.964, 7208.629
1364.022, 7205.548
1365.081, 7211.000
1366.139, 7199.000
1367.197, 7194.000
1368.255, 7204.280
1369.313, 7198.263
1370.371, 7212.000
1371.428, 7199.000
1372.486, 7224.000
1373.543, 7220.000
1374.600, 7221.837
1375.657, 7235.000
1376.713, 7219.000
1377.770, 7233.000
1378.826, 7223.000
1379.882, 7221.000
1380.938, 7185.000
1381.994, 7189.804
1383.050, 7265.000
1384.106, 7186.000
1385.161, 7192.000
1386.216, 7201.000
1387.271, 7304.000
1388.326, 7234.000
1389.381, 7318.000
1390.435, 7166.000
1391.490, 7145.000
1392.544, 7146.000
1393.598, 7308.000
1394.652, 7337.000
1395.705, 7114.000
1396.759, 7257.000
1397.812, 7098.883
1398.866, 7196.501
1399.919, 7250.544
1400.972, 7263.352
1402.024, 7111.426
1403.077, 7172.221
1404.129, 7147.768
1405.181, 7119.819
1406.233, 7210.556
1407.285, 7082.590
1408.337, 7171.444
1409.389, 7173.748
1410.440, 7215.666
1411.491, 7171.807
1412.542, 7154.442
1413.593, 7222.880
1414.644, 7250.000
1415.695, 7244.000
1416.745, 7261.000
1417.795, 7184.000
1418.845, 7349.000
1419.895, 7155.000
1420.945, 7276.000
1421.995, 7121.000
1423.044, 7236.000
1424.093, 7291.000
1425.142, 7256.000
1426.191, 7144.000
1427.240, 7252.000
1428.289, 7263.000
1429.337, 7235.000
1430.385, 7326.000
1431.433, 7267.000
1432.481, 7226.000
1433.529, 7256.000
1434.577, 7266.000
1435.624, 7264.000
1436.672, 7254.000
1437.719, 7329.000
1438.766, 7275.000
1439.812, 7297.000
1440.859, 7325.000
1441.905, 7253.000
1442.952, 7331.000
1443.998, 7223.000
1445.044, 7319.000
1446.090, 7383.000
1447.135, 7318.000
1448.181, 7340.000
1449.226, 7323.000
1450.271, 7315.595
1451.316, 7362.000
1452.361, 7296.000
1453.405, 7341.000
1454.450, 7278.000
1455.494, 7242.000
1456.538, 7227.000
1457.582, 7397.000
1458.626, 7329.000
1459.670, 7324.000
1460.713, 7368.000
1461.757, 7246.000
1462.800, 7317.000
1463.843, 7314.000
1464.886, 7347.000
1465.928, 7257.000
1466.971, 7320.000
1468.013, 7315.000
1469.055, 7413.000
1470.097, 7308.000
1471.139, 7402.000
1472.181, 7325.000
1473.222, 7292.000
1474.263, 7317.000
1475.305, 7393.000
1476.346, 7318.000
1477.386, 7414.000
1478.427, 7412.000
1479.468, 7338.000
1480.508, 7405.000
1481.548, 7370.946
1482.588, 7362.217
1483.628, 7371.000
1484.668, 7327.000
1485.707, 7327.000
1486.747, 7272.000
1487.786, 7290.991
1488.825, 7387.000
1489.864, 7338.000
1490.902, 7367.000
1491.941, 7425.000
1492.979, 7430.000
1494.017, 7446.526
1495.055, 7323.000
1496.093, 7408.000
1497.131, 7415.000
1498.168, 7308.000
1499.206, 7356.000
1500.243, 7256.000
1501.280, 7279.000
1502.317, 7374.000
1503.354, 7372.000
1504.390, 7362.000
1505.426, 7487.000
1506.463, 7361.000
1507.499, 7340.000
1508.535, 7442.000
1509.570, 7307.000
1510.606, 7461.000
1511.641, 7411.000
1512.676, 7391.000
1513.711, 7366.000
1514.746, 7380.000
1515.781, 7364.000
1516.816, 7373.000
1517.850, 7504.000
1518.884, 7374.000
1519.918, 7417.000
1520.952, 7518.000
1521.986, 7383.000
1523.019, 7424.000
1524.053, 7424.000
1525.086, 7433.452
1526.119, 7474.698
1527.152, 7463.000
1528.185, 7543.000
1529.217, 7414.000
1530.250, 7425.000
1531.282, 7476.000
1532.314, 7421.000
1533.346, 7423.000
1534.377, 7478.000
1535.409, 7547.000
1536.440, 7529.000
1537.472, 7469.618
1538.503, 7571.294
1539.534, 7629.394
1540.564, 7646.257
1541.595, 7498.386
1542.625, 7563.236
1543.656, 7542.838
1544.686, 7518.943
1545.716, 7613.732
1546.745, 7489.818
1547.775, 7582.726
1548.804, 7589.080
1549.834, 7635.049
1550.863, 7595.240
1551.892, 7581.924
1552.920, 7654.410
1553.949, 7679.387
1554.977, 7629.702
1556.006, 7678.187
1557.034, 7551.273
1558.062, 7578.272
1559.089, 7671.676
1560.117, 7626.303
1561.144, 7553.340
1562.172, 7562.910
1563.199, 7542.000
1564.226, 7547.000
1565.252, 7558.000
1566.279, 7576.000
1567.305, 7595.000
1568.332, 7580.000
1569.358, 7686.000
1570.384, 7593.000
1571.409, 7736.000
1572.435, 7711.000
##END=



