##NAMES=Covellite
##RRUFFID=R060129
##IDEAL CHEMISTRY=Cu^1+^S
##LOCALITY=Butte, Montana, USA
##OWNER=RRUFF
##SOURCE=University of Arizona Mineral Museum
##DESCRIPTION=Iridescent blue metallic hexagonal plates
##STATUS=The identification of this mineral has been confirmed by X-ray diffraction and chemical analysis
##URL=rruff.info/R060129
##MEASURED CHEMISTRY=Cu_1.00_S_1.00_
##PIN_ID=L00520
##ORIENTATION=Laser parallel to -a* (-1 0 0). Fiducial mark perpendicular to laser is parallel to c [0 0 1]
53.91000, 393.0000
55.14900, 386.0000
56.38700, 399.0000
57.62600, 414.0000
58.86400, 417.0000
60.10300, 435.0000
61.34100, 450.0000
62.57900, 452.0000
63.81700, 444.0000
65.05400, 434.0000
66.29200, 442.0000
67.52900, 468.0000
68.76700, 527.0000
70.00400, 530.2437
71.24100, 565.0000
72.47700, 570.0000
73.71400, 595.0000
74.95100, 621.0000
76.18700, 645.1069
77.42300, 733.0000
78.65900, 714.0000
79.89500, 756.0000
81.13100, 806.0000
82.36700, 926.0000
83.60200, 1017.000
84.83700, 1026.000
86.07200, 1032.000
87.30800, 1093.000
88.54200, 1241.000
89.77700, 1326.000
91.01200, 1495.000
92.24600, 1609.000
93.48000, 1611.000
94.71400, 1734.000
95.94800, 1763.000
97.18200, 1764.000
98.41600, 1935.000
99.64900, 2087.000
100.8830, 2142.000
102.1160, 2210.000
103.3490, 2351.000
104.5820, 2549.000
105.8150, 2745.000
107.0470, 3176.000
108.2800, 2967.440
109.5120, 3274.000
110.7440, 2629.000
111.9760, 2361.000
113.2080, 2202.000
114.4400, 2199.000
115.6710, 2320.000
116.9030, 2215.000
118.1340, 2088.000
119.3650, 1879.000
120.5960, 1690.000
121.8270, 1567.000
123.0580, 1425.000
124.2880, 1366.000
125.5190, 1351.000
126.7490, 1304.000
127.9790, 1346.000
129.2090, 1389.000
130.4390, 1468.000
131.6680, 1523.000
132.8980, 1569.000
134.1270, 1582.000
135.3560, 1647.000
136.5850, 1622.000
137.8140, 1660.000
139.0430, 1598.000
140.2710, 1383.000
141.5000, 1347.000
142.7280, 1190.000
143.9560, 1116.000
145.1840, 1079.000
146.4120, 1040.000
147.6390, 1032.000
148.8670, 989.0000
150.0940, 969.0000
151.3210, 956.7782
152.5490, 932.2427
153.7750, 926.0000
155.0020, 916.0000
156.2290, 884.0000
157.4550, 902.0000
158.6810, 901.0000
159.9080, 886.0000
161.1340, 897.0000
162.3590, 915.0000
163.5850, 961.0000
164.8110, 959.0000
166.0360, 941.0000
167.2610, 920.0000
168.4860, 913.0000
169.7110, 900.1387
170.9360, 892.4570
172.1610, 889.0000
173.3850, 901.0000
174.6100, 906.0000
175.8340, 952.0000
177.0580, 893.0000
178.2820, 903.0000
179.5050, 944.0000
180.7290, 913.0000
181.9520, 912.0000
183.1760, 959.0000
184.3990, 975.0000
185.6220, 1016.000
186.8450, 996.0000
188.0670, 1039.000
189.2900, 1006.000
190.5120, 1024.000
191.7340, 998.0000
192.9560, 1043.000
194.1780, 1025.000
195.4000, 1025.000
196.6220, 1008.000
197.8430, 1032.000
199.0640, 1024.000
200.2860, 1073.000
201.5070, 1097.000
202.7270, 1079.000
203.9480, 1010.000
205.1690, 971.0000
206.3890, 908.0000
207.6090, 904.0000
208.8290, 900.0000
210.0490, 919.0000
211.2690, 943.0000
212.4890, 937.0000
213.7080, 953.0000
214.9280, 907.0000
216.1470, 905.0000
217.3660, 908.0000
218.5850, 896.0000
219.8030, 916.0000
221.0220, 890.0000
222.2400, 902.0000
223.4590, 866.0000
224.6770, 872.0000
225.8950, 864.7046
227.1120, 893.0000
228.3300, 860.0000
229.5480, 877.0000
230.7650, 884.0000
231.9820, 900.0000
233.1990, 893.9222
234.4160, 852.0000
235.6330, 886.0000
236.8490, 864.0000
238.0660, 875.0000
239.2820, 858.0000
240.4980, 875.0000
241.7140, 868.0000
242.9300, 859.0000
244.1460, 878.0000
245.3610, 871.0000
246.5770, 905.0000
247.7920, 931.0000
249.0070, 939.0000
250.2220, 930.0000
251.4370, 1008.000
252.6510, 1002.000
253.8660, 1017.000
255.0800, 1059.000
256.2940, 1113.000
257.5080, 1199.000
258.7220, 1185.265
259.9360, 1180.389
261.1490, 1143.000
262.3630, 1124.000
263.5760, 1096.215
264.7890, 1069.000
266.0020, 1041.000
267.2150, 1010.836
268.4270, 980.0000
269.6400, 953.0000
270.8520, 929.0000
272.0640, 908.0000
273.2760, 862.0000
274.4880, 899.0000
275.7000, 902.0000
276.9120, 881.0000
278.1230, 851.0000
279.3340, 837.0000
280.5450, 815.0000
281.7560, 836.0000
282.9670, 826.0000
284.1780, 826.0000
285.3880, 821.0000
286.5980, 842.0000
287.8090, 829.0000
289.0190, 829.0000
290.2290, 817.0000
291.4380, 806.0000
292.6480, 818.8301
293.8570, 836.0000
295.0670, 844.0000
296.2760, 849.0000
297.4850, 862.0000
298.6930, 868.0000
299.9020, 853.0000
301.1110, 852.0000
302.3190, 850.5204
303.5270, 864.0000
304.7350, 867.1624
305.9430, 871.0000
307.1510, 886.0000
308.3580, 899.0000
309.5660, 910.0000
310.7730, 912.0000
311.9800, 893.0000
313.1870, 947.0000
314.3940, 965.0000
315.6010, 937.0000
316.8070, 926.0000
318.0130, 928.0000
319.2200, 965.0000
320.4260, 959.0000
321.6310, 961.0000
322.8370, 965.0000
324.0430, 961.1404
325.2480, 960.9490
326.4540, 961.0000
327.6590, 951.0000
328.8640, 955.0000
330.0680, 942.0000
331.2730, 925.0000
332.4780, 921.0000
333.6820, 901.0000
334.8860, 944.0000
336.0900, 914.0000
337.2940, 926.0000
338.4980, 919.0000
339.7010, 900.0000
340.9050, 893.0000
342.1080, 912.0000
343.3110, 871.0000
344.5140, 897.0000
345.7170, 888.0000
346.9200, 848.0000
348.1220, 916.0000
349.3240, 879.0000
350.5270, 864.0000
351.7290, 942.0000
352.9310, 900.0000
354.1320, 878.0000
355.3340, 922.0000
356.5350, 880.0000
357.7370, 918.0000
358.9380, 900.0000
360.1390, 890.0000
361.3400, 889.0000
362.5400, 887.6208
363.7410, 900.0000
364.9410, 903.0000
366.1410, 883.0000
367.3410, 897.0000
368.5410, 885.0000
369.7410, 913.0000
370.9400, 939.0000
372.1400, 922.0000
373.3390, 939.0000
374.5380, 925.0000
375.7370, 961.0000
376.9360, 938.0000
378.1350, 958.0000
379.3330, 981.0000
380.5310, 966.0000
381.7300, 978.0000
382.9280, 955.0000
384.1260, 976.0000
385.3230, 968.0000
386.5210, 970.0000
387.7180, 961.0000
388.9160, 985.0000
390.1130, 961.0000
391.3100, 968.0000
392.5060, 941.0000
393.7030, 947.6353
394.9000, 996.0000
396.0960, 959.0000
397.2920, 982.0000
398.4880, 995.0000
399.6840, 1002.000
400.8800, 1006.000
402.0750, 998.0000
403.2710, 1027.000
404.4660, 998.0000
405.6610, 1035.000
406.8560, 1000.000
408.0510, 998.0000
409.2450, 997.0000
410.4400, 1006.000
411.6340, 984.0000
412.8280, 992.0000
414.0220, 1018.000
415.2160, 1015.000
416.4100, 989.0000
417.6030, 1048.000
418.7970, 1024.000
419.9900, 1021.000
421.1830, 1061.000
422.3760, 1091.000
423.5690, 1072.000
424.7610, 1143.000
425.9540, 1168.000
427.1460, 1169.000
428.3380, 1226.000
429.5300, 1230.000
430.7220, 1250.000
431.9140, 1372.000
433.1050, 1401.000
434.2970, 1482.000
435.4880, 1521.000
436.6790, 1616.000
437.8700, 1725.350
439.0610, 1860.092
440.2510, 1986.000
441.4420, 2215.000
442.6320, 2377.000
443.8220, 2613.000
445.0120, 2939.000
446.2020, 3292.000
447.3910, 3632.000
448.5810, 4122.000
449.7700, 4663.786
450.9600, 5277.000
452.1490, 5975.000
453.3370, 6777.000
454.5260, 7607.000
455.7150, 8610.000
456.9030, 9805.000
458.0910, 11225.00
459.2800, 13193.00
460.4670, 15706.00
461.6550, 19578.00
462.8430, 24831.00
464.0300, 31718.00
465.2180, 39540.00
466.4050, 47746.00
467.5920, 54406.00
468.7790, 60090.00
469.9650, 62336.00
471.1520, 59883.00
472.3380, 53718.00
473.5250, 44284.00
474.7110, 36226.00
475.8970, 29126.00
477.0820, 23521.00
478.2680, 18722.00
479.4540, 15080.00
480.6390, 12135.00
481.8240, 9984.000
483.0090, 8056.000
484.1940, 6817.000
485.3780, 5958.000
486.5630, 5177.000
487.7470, 4585.000
488.9320, 4090.000
490.1160, 3669.000
491.3000, 3403.000
492.4830, 3113.000
493.6670, 2898.000
494.8500, 2667.000
496.0340, 2499.000
497.2170, 2364.000
498.4000, 2237.000
499.5820, 2163.000
500.7650, 2036.000
501.9480, 1947.000
503.1300, 1832.000
504.3120, 1827.000
505.4940, 1691.000
506.6760, 1684.000
507.8580, 1684.000
509.0390, 1638.000
510.2210, 1600.000
511.4020, 1594.000
512.5830, 1540.000
513.7640, 1536.000
514.9450, 1499.673
516.1250, 1482.000
517.3060, 1443.000
518.4860, 1440.000
519.6660, 1428.000
520.8460, 1415.588
522.0260, 1371.000
523.2060, 1405.000
524.3850, 1410.000
525.5650, 1404.000
526.7440, 1317.000
527.9230, 1415.000
529.1020, 1311.000
530.2810, 1319.000
531.4590, 1372.000
532.6380, 1346.000
533.8160, 1317.000
534.9940, 1287.000
536.1720, 1271.000
537.3500, 1304.000
538.5270, 1282.000
539.7050, 1254.000
540.8820, 1592.000
542.0590, 1938.000
543.2360, 1858.000
544.4130, 1416.000
545.5900, 1214.000
546.7660, 1202.000
547.9430, 1196.000
549.1190, 1167.000
550.2950, 1198.000
551.4710, 1166.000
552.6470, 1160.000
553.8220, 1155.000
554.9980, 1135.821
556.1730, 1131.868
557.3480, 1118.000
558.5230, 1112.000
559.6980, 1116.000
560.8730, 1102.000
562.0470, 1068.000
563.2220, 1105.000
564.3960, 1053.000
565.5700, 1043.000
566.7440, 1031.000
567.9170, 1030.000
569.0910, 1040.000
570.2640, 1042.000
571.4380, 1016.000
572.6110, 1061.000
573.7840, 1006.000
574.9570, 1029.000
576.1290, 1017.000
577.3020, 1015.000
578.4740, 994.0000
579.6460, 1012.000
580.8180, 993.0000
581.9900, 1009.000
583.1620, 1012.000
584.3330, 1002.000
585.5040, 1067.000
586.6760, 1037.000
587.8470, 1057.000
589.0180, 1078.000
590.1880, 1073.000
591.3590, 1096.000
592.5290, 1116.000
593.7000, 1121.000
594.8700, 1091.000
596.0400, 1107.721
597.2090, 1095.443
598.3790, 1112.000
599.5490, 1086.000
600.7180, 1094.000
601.8870, 1089.000
603.0560, 1104.000
604.2250, 1073.972
605.3940, 1021.000
606.5620, 1007.000
607.7300, 999.0000
608.8990, 953.0000
610.0670, 954.0000
611.2350, 938.0000
612.4020, 933.0000
613.5700, 914.0000
614.7370, 900.0000
615.9050, 884.0000
617.0720, 883.0000
618.2390, 869.0000
619.4060, 862.9105
620.5720, 839.0000
621.7390, 852.0000
622.9050, 843.0000
624.0710, 842.0000
625.2370, 811.0000
626.4030, 802.0000
627.5690, 787.0000
628.7340, 781.4122
629.9000, 809.0000
631.0650, 785.0000
632.2300, 789.0000
633.3950, 799.0000
634.5600, 777.0000
635.7240, 757.0000
636.8890, 790.0000
638.0530, 727.0000
639.2170, 779.0000
640.3810, 768.0000
641.5450, 767.0000
642.7080, 770.0000
643.8720, 757.0000
645.0350, 762.0000
646.1980, 747.0000
647.3610, 738.0000
648.5240, 742.3408
649.6870, 739.0087
650.8490, 750.0000
652.0120, 750.0000
653.1740, 760.0000
654.3360, 771.0000
655.4980, 741.0000
656.6600, 758.0000
657.8210, 756.0000
658.9830, 734.0000
660.1440, 727.0000
661.3050, 744.0000
662.4660, 768.0000
663.6270, 752.0000
664.7870, 733.0000
665.9480, 756.0000
667.1080, 754.0000
668.2680, 737.0000
669.4280, 741.0000
670.5880, 752.0000
671.7480, 762.0000
672.9070, 749.0000
674.0670, 747.0000
675.2260, 759.0000
676.3850, 752.0000
677.5440, 747.0000
678.7030, 733.0000
679.8610, 721.0000
681.0200, 719.4736
682.1780, 735.0000
683.3360, 718.0000
684.4940, 721.0000
685.6520, 727.0000
686.8090, 724.0000
687.9670, 730.0000
689.1240, 735.0000
690.2810, 732.9830
691.4380, 742.0000
692.5950, 732.0000
693.7520, 742.0000
694.9080, 742.0000
696.0650, 767.0000
697.2210, 746.0000
698.3770, 758.0000
699.5330, 741.0000
700.6880, 756.0000
701.8440, 731.0000
702.9990, 753.0000
704.1550, 733.0000
705.3100, 772.0000
706.4650, 747.0000
707.6190, 760.0000
708.7740, 753.0000
709.9290, 755.0000
711.0830, 759.0000
712.2370, 757.0000
713.3910, 758.0000
714.5450, 758.0000
715.6980, 758.3279
716.8520, 755.0000
718.0050, 764.0000
719.1580, 762.0000
720.3110, 773.0000
721.4640, 777.0000
722.6170, 770.0000
723.7700, 792.0000
724.9220, 788.0835
726.0740, 783.0000
727.2260, 788.0000
728.3780, 796.0000
729.5300, 781.0000
730.6810, 800.0000
731.8330, 779.0000
732.9840, 773.0000
734.1350, 808.0000
735.2860, 790.0000
736.4370, 790.0000
737.5880, 783.0000
738.7380, 812.0000
739.8880, 790.0000
741.0390, 838.0000
742.1890, 817.0000
743.3380, 821.0000
744.4880, 779.0000
745.6380, 781.0000
746.7870, 768.0000
747.9360, 807.0000
749.0850, 802.0000
750.2340, 797.0000
751.3830, 792.0000
752.5310, 768.0000
753.6800, 784.0000
754.8280, 762.0000
755.9760, 802.0000
757.1240, 772.0000
758.2720, 784.0000
759.4190, 774.0000
760.5670, 777.0000
761.7140, 752.0000
762.8610, 775.0000
764.0080, 797.0000
765.1550, 750.0000
766.3020, 753.0000
767.4480, 778.0000
768.5950, 760.0000
769.7410, 750.0000
770.8870, 755.0000
772.0330, 734.0000
773.1780, 751.0000
774.3240, 757.0000
775.4690, 761.0000
776.6140, 750.0000
777.7590, 756.0000
778.9040, 733.0000
780.0490, 757.0000
781.1940, 734.0000
782.3380, 742.0000
783.4820, 742.0000
784.6260, 758.0000
785.7700, 754.0000
786.9140, 720.0000
788.0580, 727.0000
789.2010, 749.0000
790.3450, 760.0000
791.4880, 778.0000
792.6310, 749.0000
793.7730, 748.0000
794.9160, 758.0000
796.0590, 750.0000
797.2010, 746.0000
798.3430, 724.0000
799.4850, 752.0000
800.6270, 740.0000
801.7690, 754.0000
802.9100, 739.0000
804.0520, 762.0000
805.1930, 743.0000
806.3340, 765.0000
807.4750, 780.0000
808.6160, 744.0000
809.7560, 770.0000
810.8970, 733.0000
812.0370, 760.0000
813.1770, 753.0000
814.3170, 743.0000
815.4570, 731.0000
816.5960, 737.0000
817.7360, 767.0000
818.8750, 769.0000
820.0140, 759.0000
821.1530, 747.0000
822.2920, 783.0000
823.4310, 757.0000
824.5690, 784.0000
825.7070, 753.0000
826.8460, 764.0000
827.9840, 780.0000
829.1220, 764.0000
830.2590, 768.0000
831.3970, 785.0000
832.5340, 757.0000
833.6710, 774.0000
834.8080, 762.0000
835.9450, 776.0000
837.0820, 740.0000
838.2190, 736.0000
839.3550, 781.0000
840.4910, 790.0000
841.6270, 752.0000
842.7630, 779.0000
843.8990, 791.0000
845.0350, 745.0000
846.1700, 774.0000
847.3060, 787.0000
848.4410, 783.0000
849.5760, 776.0000
850.7100, 748.0000
851.8450, 763.0000
852.9800, 761.0000
854.1140, 764.0000
855.2480, 787.0000
856.3820, 802.0000
857.5160, 778.0000
858.6500, 798.0000
859.7830, 756.0000
860.9170, 754.0000
862.0500, 770.0000
863.1830, 771.0000
864.3160, 797.0000
865.4480, 777.0000
866.5810, 809.0000
867.7130, 822.0000
868.8460, 817.0000
869.9780, 784.0000
871.1100, 784.0000
872.2410, 814.0000
873.3730, 786.0000
874.5050, 828.0000
875.6360, 802.0000
876.7670, 819.0000
877.8980, 781.0000
879.0290, 802.0000
880.1590, 836.0000
881.2900, 821.0000
882.4200, 807.0000
883.5500, 822.0000
884.6800, 848.0000
885.8100, 842.0000
886.9400, 860.0000
888.0690, 897.0000
889.1990, 876.0000
890.3280, 897.0000
891.4570, 884.0000
892.5860, 918.0000
893.7140, 937.0000
894.8430, 944.0000
895.9710, 961.0000
897.1000, 989.0000
898.2280, 1018.000
899.3560, 1021.000
900.4830, 1022.000
901.6110, 1040.000
902.7380, 1044.000
903.8660, 1203.000
904.9930, 1176.185
906.1200, 1224.000
907.2460, 1241.000
908.3730, 1262.000
909.5000, 1339.000
910.6260, 1403.000
911.7520, 1432.000
912.8780, 1481.000
914.0040, 1534.000
915.1290, 1565.000
916.2550, 1664.000
917.3800, 1647.000
918.5050, 1770.000
919.6300, 1827.000
920.7550, 1917.000
921.8800, 1935.000
923.0040, 2007.000
924.1290, 2013.000
925.2530, 2073.000
926.3770, 2010.000
927.5010, 2016.000
928.6250, 1897.000
929.7480, 1857.000
930.8720, 1728.000
931.9950, 1699.000
933.1180, 1623.000
934.2410, 1564.000
935.3640, 1539.000
936.4860, 1478.000
937.6090, 1423.000
938.7310, 1433.000
939.8530, 1435.000
940.9750, 1363.000
942.0970, 1296.000
943.2180, 1285.000
944.3400, 1251.000
945.4610, 1215.000
946.5820, 1169.000
947.7030, 1160.000
948.8240, 1100.000
949.9450, 1082.000
951.0650, 1069.000
952.1860, 1017.000
953.3060, 1010.000
954.4260, 1012.000
955.5460, 997.0000
956.6650, 999.0000
957.7850, 964.0000
958.9040, 964.0000
960.0230, 958.0000
961.1420, 952.0000
962.2610, 941.0000
963.3800, 930.0000
964.4990, 945.0000
965.6170, 896.0000
966.7350, 925.0000
967.8530, 904.0000
968.9710, 915.0000
970.0890, 894.0000
971.2070, 935.0000
972.3240, 907.0000
973.4410, 918.0000
974.5580, 935.0000
975.6750, 932.0000
976.7920, 947.0000
977.9090, 938.0000
979.0250, 949.0000
980.1410, 951.6320
981.2580, 961.0000
982.3740, 961.0000
983.4890, 944.0000
984.6050, 952.0000
985.7200, 939.0000
986.8360, 960.0000
987.9510, 942.0000
989.0660, 953.0000
990.1810, 944.0000
991.2950, 945.0000
992.4100, 921.0000
993.5240, 936.8351
994.6390, 937.0000
995.7530, 964.0000
996.8660, 973.0000
997.9800, 994.0000
999.0940, 965.0000
1000.207, 946.0000
1001.320, 981.0000
1002.433, 958.0000
1003.546, 999.0000
1004.659, 986.0000
1005.772, 963.0000
1006.884, 923.0000
1007.996, 963.0000
1009.108, 958.0000
1010.220, 933.0000
1011.332, 930.0000
1012.444, 938.0000
1013.555, 956.0000
1014.666, 952.0000
1015.777, 958.1448
1016.888, 938.0000
1017.999, 957.0000
1019.110, 937.0000
1020.220, 933.0000
1021.331, 930.0000
1022.441, 921.0000
1023.551, 934.0000
1024.661, 919.0000
1025.770, 953.0000
1026.880, 952.0000
1027.989, 934.0000
1029.098, 916.0000
1030.207, 956.0000
1031.316, 939.0000
1032.425, 982.0000
1033.533, 967.0000
1034.642, 963.0000
1035.750, 970.0000
1036.858, 914.0000
1037.966, 947.0000
1039.073, 925.0000
1040.181, 962.0000
1041.288, 963.0000
1042.396, 946.0000
1043.503, 925.0000
1044.610, 937.3798
1045.716, 921.0000
1046.823, 951.0000
1047.929, 947.0000
1049.036, 945.0000
1050.142, 958.0000
1051.248, 944.0000
1052.353, 980.0000
1053.459, 937.0000
1054.564, 955.0000
1055.670, 959.0000
1056.775, 947.0000
1057.880, 976.0000
1058.985, 958.0000
1060.089, 972.0000
1061.194, 966.7241
1062.298, 942.0000
1063.402, 948.0000
1064.506, 945.0000
1065.610, 928.0000
1066.713, 929.0000
1067.817, 961.0000
1068.920, 962.0000
1070.023, 951.0000
1071.126, 928.0000
1072.229, 950.0000
1073.332, 907.0000
1074.435, 931.0000
1075.537, 928.0000
1076.639, 935.0000
1077.741, 950.0000
1078.843, 901.0000
1079.945, 951.0000
1081.046, 925.0000
1082.148, 892.0000
1083.249, 940.0000
1084.350, 887.0000
1085.451, 901.0000
1086.551, 917.0000
1087.652, 909.0000
1088.752, 899.0000
1089.853, 902.0000
1090.953, 940.0000
1092.053, 923.0000
1093.152, 927.1672
1094.252, 923.0000
1095.351, 913.0000
1096.451, 901.0000
1097.550, 901.0000
1098.649, 898.0000
1099.748, 894.6760
1100.846, 886.0000
1101.945, 894.2961
1103.043, 898.8857
1104.141, 902.0000
1105.239, 926.0000
1106.337, 913.2545
1107.434, 884.0000
1108.532, 899.0000
1109.629, 897.0000
1110.726, 892.0000
1111.823, 891.0000
1112.920, 895.0000
1114.017, 960.0000
1115.113, 997.0000
1116.210, 977.0000
1117.306, 1062.000
1118.402, 1139.000
1119.498, 1163.000
1120.593, 1153.000
1121.689, 1155.000
1122.784, 1175.000
1123.879, 1201.000
1124.974, 1166.000
1126.069, 1067.000
1127.164, 1061.000
1128.259, 999.0000
1129.353, 952.0000
1130.447, 914.0000
1131.541, 896.0000
1132.635, 855.0000
1133.729, 881.0000
1134.822, 873.0000
1135.916, 837.0000
1137.009, 836.0000
1138.102, 821.0000
1139.195, 859.0000
1140.288, 844.0000
1141.380, 864.0000
1142.473, 811.0000
1143.565, 822.0000
1144.657, 847.0000
1145.749, 845.0000
1146.841, 864.0000
1147.932, 835.0000
1149.024, 839.0000
1150.115, 840.0000
1151.206, 814.0000
1152.297, 839.0000
1153.388, 812.0000
1154.479, 811.0000
1155.569, 854.0000
1156.659, 851.0000
1157.750, 820.0000
1158.839, 800.0000
1159.929, 829.0000
1161.019, 827.0000
1162.108, 840.0000
1163.198, 823.0000
1164.287, 834.0000
1165.376, 817.0000
1166.465, 832.0000
1167.553, 841.0000
1168.642, 816.0000
1169.730, 819.0000
1170.818, 821.0000
1171.906, 804.0000
1172.994, 816.0000
1174.082, 826.0000
1175.170, 807.0000
1176.257, 817.0000
1177.344, 785.0000
1178.431, 810.0000
1179.518, 819.0000
1180.605, 809.0000
1181.691, 837.0000
1182.778, 844.0000
1183.864, 825.0000
1184.950, 805.0000
1186.036, 841.0000
1187.122, 812.0000
1188.207, 810.0000
1189.292, 834.0000
1190.378, 803.0000
1191.463, 831.0000
1192.548, 812.0000
1193.632, 810.0000
1194.717, 832.0000
1195.801, 827.0000
1196.886, 833.0000
1197.970, 834.0000
1199.054, 801.0000
1200.137, 809.0000
1201.221, 821.0000
1202.305, 777.0000
1203.388, 806.0000
1204.471, 836.0000
1205.554, 813.0000
1206.637, 801.0000
1207.719, 786.0000
1208.802, 806.0000
1209.884, 822.0000
1210.966, 850.0000
1212.048, 820.0000
1213.130, 844.0000
1214.212, 811.0000
1215.293, 846.0000
1216.374, 813.0000
1217.456, 826.0000
1218.536, 820.0000
1219.617, 821.0000
1220.698, 810.0000
1221.778, 811.2035
1222.859, 812.7082
1223.939, 813.0000
1225.019, 818.0000
1226.099, 827.0000
1227.178, 826.0000
1228.258, 820.0000
1229.337, 836.0000
1230.417, 834.0000
1231.496, 801.0000
1232.574, 823.0000
1233.653, 779.0000
1234.732, 825.0000
1235.810, 835.0000
1236.888, 844.0000
1237.966, 836.0000
1239.044, 836.0000
1240.122, 801.0000
1241.199, 808.0000
1242.277, 810.0000
1243.354, 819.0000
1244.431, 781.0000
1245.508, 801.0000
1246.585, 821.0000
1247.661, 790.0000
1248.738, 825.0000
1249.814, 801.0000
1250.890, 815.0000
1251.966, 811.8201
1253.042, 837.0000
1254.117, 802.0000
1255.193, 803.0000
1256.268, 804.0000
1257.343, 797.0000
1258.418, 818.0000
1259.493, 808.0000
1260.567, 791.0000
1261.642, 816.0000
1262.716, 826.0000
1263.790, 803.0000
1264.864, 834.0000
1265.938, 801.0000
1267.011, 828.0000
1268.085, 842.0000
1269.158, 810.0000
1270.231, 806.0000
1271.304, 798.0000
1272.377, 818.0000
1273.450, 821.0000
1274.522, 809.0000
1275.594, 800.0000
1276.666, 823.0000
1277.738, 840.0000
1278.810, 821.0000
1279.882, 811.0000
1280.953, 794.0000
1282.025, 797.0000
1283.096, 793.1025
1284.167, 839.0000
1285.238, 796.0000
1286.308, 828.0000
1287.379, 826.0000
1288.449, 789.0000
1289.519, 812.0000
1290.589, 806.0000
1291.659, 807.0000
1292.729, 808.0000
1293.798, 803.4892
1294.868, 801.6282
1295.937, 800.0000
1297.006, 796.0000
1298.075, 799.0000
1299.143, 803.0000
1300.212, 813.0000
1301.280, 820.0000
1302.348, 826.0000
1303.416, 834.0000
1304.484, 824.0000
1305.552, 813.0000
1306.620, 827.0000
1307.687, 807.0000
1308.754, 831.0000
1309.821, 822.0000
1310.888, 817.0000
1311.955, 816.0000
1313.021, 818.0000
1314.088, 826.0000
1315.154, 833.0000
1316.220, 828.0000
1317.286, 820.0000
1318.352, 820.0000
1319.417, 822.0000
1320.483, 823.0000
1321.548, 826.0000
1322.613, 820.0000
1323.678, 833.0000
1324.743, 813.0000
1325.807, 808.0000
1326.872, 805.0000
1327.936, 809.0000
1329.000, 803.2783
1330.064, 806.0000
1331.128, 811.0000
1332.191, 815.0000
1333.255, 817.1912
1334.318, 816.2921
1335.381, 824.0000
1336.444, 809.0000
1337.507, 816.0000
1338.569, 808.3419
1339.632, 805.6340
1340.694, 822.0000
1341.756, 806.0000
1342.818, 820.0000
1343.880, 831.0000
1344.941, 828.0000
1346.003, 848.0000
1347.064, 844.0000
1348.125, 814.0000
1349.186, 836.0000
1350.247, 845.0000
1351.308, 818.0000
1352.368, 827.0000
1353.428, 828.0000
1354.489, 808.0000
1355.549, 823.0000
1356.608, 837.0000
1357.668, 829.0000
1358.727, 857.0000
1359.787, 839.0000
1360.846, 831.0000
1361.905, 836.0000
1362.964, 842.0000
1364.022, 840.7007
1365.081, 845.1697
1366.139, 847.0000
1367.197, 844.0000
1368.255, 849.0000
1369.313, 838.0000
1370.371, 825.0000
1371.428, 827.0000
1372.486, 816.0000
1373.543, 825.0000
1374.600, 834.0000
1375.657, 836.0000
1376.713, 825.0000
1377.770, 859.0000
1378.826, 855.0000
1379.882, 816.0000
1380.938, 859.0000
1381.994, 813.0000
1383.050, 833.0000
1384.106, 833.1147
1385.161, 817.0063
1386.216, 833.0000
1387.271, 814.0000
1388.326, 809.0000
1389.381, 827.0000
1390.435, 817.0000
1391.490, 842.0000
1392.544, 818.0000
1393.598, 814.0000
1394.652, 836.0000
1395.705, 809.0000
1396.759, 825.0000
1397.812, 870.0000
1398.866, 804.0000
1399.919, 814.0000
1400.972, 846.0000
1402.024, 826.0000
1403.077, 820.0000
1404.129, 789.0000
1405.181, 822.0000
1406.233, 843.0000
1407.285, 830.0000
1408.337, 816.0000
1409.389, 813.0000
1410.440, 841.0000
1411.491, 799.0000
1412.542, 842.0000
1413.593, 827.0000
1414.644, 844.0000
1415.695, 838.0000
1416.745, 836.0000
1417.795, 845.0000
1418.845, 807.0000
1419.895, 815.0000
1420.945, 827.0000
1421.995, 816.0000
1423.044, 847.0000
1424.093, 817.0000
1425.142, 827.0000
1426.191, 835.0000
1427.240, 835.0000
1428.289, 822.0000
1429.337, 825.4072
1430.385, 836.0000
1431.433, 818.0000
1432.481, 826.0000
1433.529, 823.0000
1434.577, 842.0000
1435.624, 827.0000
1436.672, 826.0000
1437.719, 795.0000
1438.766, 852.0000
1439.812, 811.0000
1440.859, 834.0000
1441.905, 802.0000
1442.952, 853.0000
1443.998, 823.0000
1445.044, 839.0000
1446.090, 822.0000
1447.135, 791.0000
1448.181, 810.0000
1449.226, 803.0000
1450.271, 822.0000
1451.316, 857.0000
1452.361, 828.0000
1453.405, 809.0000
1454.450, 811.0000
1455.494, 829.0000
1456.538, 824.1917
1457.582, 847.0000
1458.626, 834.0000
1459.670, 843.0000
1460.713, 838.0000
1461.757, 836.0000
1462.800, 836.0000
1463.843, 847.0000
1464.886, 850.0000
1465.928, 824.0000
1466.971, 835.0000
1468.013, 830.0000
1469.055, 859.0000
1470.097, 824.0000
1471.139, 841.0000
1472.181, 869.0000
1473.222, 812.0000
1474.263, 854.0000
1475.305, 797.0000
1476.346, 834.0000
1477.386, 827.0000
1478.427, 837.0000
1479.468, 843.0000
1480.508, 816.0000
1481.548, 805.0000
1482.588, 804.6270
1483.628, 820.0000
1484.668, 812.0000
1485.707, 829.0000
1486.747, 827.1078
1487.786, 841.0000
1488.825, 833.0000
1489.864, 844.0000
1490.902, 859.0000
1491.941, 856.0000
1492.979, 851.0000
1494.017, 835.0000
1495.055, 837.0000
1496.093, 832.0000
1497.131, 822.0000
1498.168, 845.0000
1499.206, 815.0000
1500.243, 828.0000
1501.280, 852.0000
1502.317, 837.0000
1503.354, 834.0000
1504.390, 844.0000
1505.426, 843.0000
1506.463, 828.0000
1507.499, 858.0000
1508.535, 863.0000
1509.570, 831.0000
1510.606, 843.0000
1511.641, 848.0000
1512.676, 840.0000
1513.711, 824.0000
1514.746, 825.0000
1515.781, 825.0000
1516.816, 825.0000
1517.850, 822.7364
1518.884, 827.9851
1519.918, 828.0000
1520.952, 834.0000
1521.986, 861.0000
1523.019, 857.0000
1524.053, 853.0000
1525.086, 838.0000
1526.119, 861.0000
1527.152, 847.0000
1528.185, 854.0000
1529.217, 845.0000
1530.250, 872.0000
1531.282, 822.0000
1532.314, 861.0000
1533.346, 865.0000
1534.377, 839.0000
1535.409, 855.0000
1536.440, 822.0000
1537.472, 860.0000
1538.503, 842.0000
1539.534, 875.0000
1540.564, 838.0000
1541.595, 865.0000
1542.625, 863.0000
1543.656, 826.0000
1544.686, 837.0000
1545.716, 838.0000
1546.745, 868.0000
1547.775, 876.0000
1548.804, 848.0000
1549.834, 909.0000
1550.863, 861.0000
1551.892, 914.0000
1552.920, 918.0000
1553.949, 977.0000
1554.977, 935.0000
1556.006, 895.0000
1557.034, 874.0000
1558.062, 839.0000
1559.089, 836.0000
1560.117, 851.0000
1561.144, 846.0000
1562.172, 844.0000
1563.199, 866.0000
1564.226, 846.0000
1565.252, 848.8089
1566.279, 852.0000
1567.305, 841.0000
1568.332, 857.0000
1569.358, 869.0000
1570.384, 856.0000
1571.409, 851.0000
1572.435, 924.0000
##END=



