##NAMES=Crocoite
##RRUFFID=R050044
##IDEAL CHEMISTRY=Pb^2+^Cr^6+^O_4_
##LOCALITY=Red Ledge mine, Dundas, Tasmania
##OWNER=RRUFF
##SOURCE=Eugene Schlepp
##DESCRIPTION=Red crystal fragment
##STATUS=The identification of this mineral has been confirmed by X-ray diffraction and chemical analysis
##URL=rruff.info/R050044
##MEASURED CHEMISTRY=Pb_1.02_Cr_0.99_O_4_
##PIN_ID=L00482
##ORIENTATION=Laser parallel to (-1 0 -1). Fiducial mark perpendicular to laser is parallel to b [0 1 0]
159.444, 1426.000
160.834, 1420.000
162.224, 1438.000
163.613, 1408.000
165.002, 1354.000
166.391, 1380.000
167.780, 1332.000
169.169, 1345.000
170.557, 1309.000
171.945, 1324.000
173.333, 1289.000
174.720, 1306.000
176.108, 1317.000
177.495, 1280.000
178.881, 1288.000
180.268, 1271.000
181.654, 1238.000
183.040, 1243.000
184.426, 1260.000
185.812, 1238.000
187.197, 1198.000
188.582, 1228.000
189.967, 1230.000
191.351, 1227.000
192.736, 1168.000
194.120, 1176.000
195.504, 1172.000
196.887, 1196.000
198.271, 1163.000
199.654, 1136.000
201.036, 1153.000
202.419, 1139.000
203.801, 1154.000
205.184, 1137.000
206.565, 1145.000
207.947, 1112.000
209.328, 1106.000
210.710, 1091.000
212.090, 1082.707
213.471, 1072.000
214.851, 1076.000
216.232, 1064.000
217.611, 1058.000
218.991, 1067.000
220.370, 1056.000
221.750, 1068.000
223.129, 1050.000
224.507, 1048.000
225.886, 1069.000
227.264, 1065.000
228.642, 1064.678
230.019, 1065.829
231.397, 1060.000
232.774, 1051.000
234.151, 1058.000
235.528, 1042.000
236.904, 1026.000
238.281, 1009.000
239.656, 1037.000
241.032, 1012.000
242.408, 1025.000
243.783, 1014.000
245.158, 992.000
246.533, 1028.000
247.907, 977.000
249.282, 1026.000
250.656, 1004.000
252.029, 976.000
253.403, 1008.000
254.776, 1016.000
256.149, 1008.000
257.522, 1020.000
258.895, 1019.000
260.267, 1005.000
261.639, 972.000
263.011, 982.000
264.382, 996.000
265.754, 978.000
267.125, 995.000
268.496, 1017.000
269.866, 973.000
271.237, 981.000
272.607, 1005.000
273.977, 1011.000
275.346, 982.000
276.716, 984.000
278.085, 997.000
279.454, 976.000
280.823, 988.000
282.191, 972.000
283.559, 980.000
284.927, 989.000
286.295, 980.000
287.662, 998.000
289.030, 987.000
290.397, 989.000
291.763, 992.000
293.130, 996.000
294.496, 978.000
295.862, 1005.000
297.228, 974.000
298.594, 969.000
299.959, 1009.000
301.324, 1442.000
302.689, 1192.539
304.053, 1226.589
305.418, 981.000
306.782, 1004.000
308.146, 996.000
309.509, 1010.000
310.873, 986.000
312.236, 1030.000
313.599, 1024.000
314.961, 1034.000
316.324, 1050.000
317.686, 1064.000
319.048, 1104.000
320.409, 1090.000
321.771, 1127.000
323.132, 1173.000
324.493, 1167.000
325.854, 1259.000
327.214, 1281.000
328.574, 1304.000
329.934, 1365.000
331.294, 1425.000
332.654, 1524.000
334.013, 1657.000
335.372, 1904.000
336.731, 2247.000
338.089, 2606.000
339.448, 2768.000
340.806, 2848.000
342.164, 2724.000
343.521, 2460.000
344.879, 2184.000
346.236, 2007.000
347.593, 1978.000
348.949, 2040.000
350.306, 2073.000
351.662, 1972.000
353.018, 1856.000
354.373, 1656.000
355.729, 1507.000
357.084, 1375.000
358.439, 1319.000
359.794, 1272.000
361.148, 1226.000
362.503, 1225.000
363.857, 1200.000
365.210, 1188.000
366.564, 1108.000
367.917, 1100.000
369.270, 1097.000
370.623, 1069.000
371.976, 1101.000
373.328, 1082.000
374.680, 1106.000
376.032, 1133.000
377.384, 1141.000
378.735, 1172.000
380.086, 1177.000
381.437, 1163.000
382.788, 1126.000
384.138, 1103.000
385.488, 1065.000
386.838, 1072.000
388.188, 1057.000
389.538, 1058.217
390.887, 1078.000
392.236, 1089.000
393.585, 1098.000
394.933, 1148.000
396.282, 1232.000
397.630, 1379.000
398.977, 1552.000
400.325, 1744.000
401.672, 1990.000
403.020, 2045.000
404.366, 1966.000
405.713, 1810.000
407.059, 1559.000
408.406, 1368.000
409.752, 1247.000
411.097, 1133.000
412.443, 1077.000
413.788, 1055.000
415.133, 1056.000
416.478, 1030.000
417.822, 1014.000
419.167, 1020.000
420.511, 988.000
421.854, 1003.000
423.198, 985.000
424.541, 1011.000
425.884, 996.000
427.227, 951.000
428.570, 987.000
429.912, 960.000
431.254, 991.000
432.596, 964.000
433.938, 957.000
435.280, 963.000
436.621, 984.000
437.962, 968.000
439.303, 1012.000
440.643, 985.000
441.983, 1012.000
443.323, 1024.000
444.663, 1031.000
446.003, 1002.000
447.342, 992.000
448.681, 1025.000
450.020, 1009.000
451.359, 1014.000
452.697, 1031.000
454.035, 997.000
455.373, 1008.000
456.711, 1018.000
458.048, 1014.000
459.386, 1016.000
460.723, 1009.000
462.059, 1016.000
463.396, 1006.000
464.732, 1011.000
466.068, 1025.000
467.404, 1004.000
468.740, 1016.000
470.075, 1016.000
471.410, 1033.000
472.745, 1004.000
474.080, 977.000
475.414, 1017.000
476.748, 1013.000
478.082, 1030.000
479.416, 1011.000
480.749, 1016.000
482.083, 1008.000
483.416, 1021.000
484.749, 1027.000
486.081, 1004.000
487.413, 1020.000
488.745, 997.000
490.077, 1006.000
491.409, 1007.000
492.740, 1010.000
494.072, 1006.000
495.402, 1004.000
496.733, 986.000
498.064, 994.000
499.394, 988.000
500.724, 1004.000
502.054, 1011.000
503.383, 1014.000
504.712, 1023.477
506.041, 1016.000
507.370, 1025.000
508.699, 1027.000
510.027, 1008.000
511.355, 1024.000
512.683, 1024.000
514.011, 1016.000
515.338, 982.000
516.666, 1024.000
517.993, 988.000
519.319, 1006.000
520.646, 996.000
521.972, 1016.000
523.298, 1006.000
524.624, 1003.000
525.950, 1011.000
527.275, 998.000
528.600, 1016.000
529.925, 1040.000
531.250, 988.000
532.574, 1036.000
533.898, 984.000
535.222, 1028.000
536.546, 1018.000
537.869, 1011.000
539.193, 1007.000
540.516, 999.552
541.839, 1000.000
543.161, 990.000
544.484, 995.000
545.806, 993.751
547.128, 1002.000
548.449, 1003.000
549.771, 1015.000
551.092, 1011.000
552.413, 1028.000
553.734, 1015.000
555.054, 1029.000
556.374, 1001.000
557.694, 1012.000
559.014, 1015.000
560.334, 1013.000
561.653, 1030.000
562.972, 1017.000
564.291, 1014.000
565.610, 994.000
566.928, 1001.000
568.247, 1006.000
569.565, 1024.000
570.882, 1019.000
572.200, 1024.696
573.517, 1043.000
574.834, 1021.000
576.151, 1028.000
577.468, 1019.000
578.784, 1038.000
580.100, 1024.000
581.416, 1014.000
582.732, 1038.000
584.047, 1009.000
585.362, 1008.000
586.677, 1002.000
587.992, 1042.000
589.307, 1008.000
590.621, 1030.000
591.935, 976.000
593.249, 1015.000
594.563, 986.000
595.876, 1004.000
597.189, 1004.000
598.502, 1017.000
599.815, 997.000
601.127, 984.000
602.440, 998.000
603.752, 1009.000
605.064, 1024.000
606.375, 1008.000
607.686, 1005.000
608.998, 1030.000
610.308, 1011.000
611.619, 1041.000
612.930, 1018.000
614.240, 1040.000
615.550, 1027.000
616.860, 1058.000
618.169, 1024.000
619.478, 1010.000
620.787, 1037.000
622.096, 1055.000
623.405, 1062.000
624.713, 1038.000
626.021, 1076.000
627.329, 1053.000
628.637, 1078.000
629.945, 1096.000
631.252, 1081.000
632.559, 1114.000
633.866, 1094.000
635.172, 1123.000
636.479, 1121.000
637.785, 1121.000
639.091, 1092.000
640.396, 1120.000
641.702, 1130.000
643.007, 1125.000
644.312, 1142.000
645.617, 1124.000
646.921, 1137.000
648.226, 1114.000
649.530, 1138.000
650.834, 1140.000
652.137, 1144.000
653.441, 1155.000
654.744, 1152.000
656.047, 1163.000
657.350, 1180.000
658.652, 1152.000
659.954, 1174.000
661.256, 1167.000
662.558, 1189.000
663.860, 1189.000
665.161, 1171.000
666.462, 1211.000
667.763, 1189.000
669.064, 1207.000
670.365, 1223.000
671.665, 1226.000
672.965, 1232.765
674.265, 1202.000
675.564, 1230.000
676.864, 1216.000
678.163, 1207.000
679.462, 1216.000
680.760, 1234.000
682.059, 1238.000
683.357, 1247.000
684.655, 1257.000
685.953, 1267.414
687.250, 1265.000
688.548, 1294.000
689.845, 1305.000
691.142, 1321.000
692.438, 1311.000
693.735, 1351.000
695.031, 1331.000
696.327, 1369.000
697.623, 1374.000
698.918, 1363.000
700.214, 1370.000
701.509, 1348.000
702.804, 1368.000
704.098, 1417.000
705.393, 1408.000
706.687, 1424.000
707.981, 1426.000
709.275, 1416.000
710.568, 1436.000
711.861, 1434.000
713.155, 1446.000
714.447, 1455.000
715.740, 1424.000
717.032, 1424.000
718.325, 1424.000
719.617, 1442.000
720.908, 1429.000
722.200, 1458.000
723.491, 1414.000
724.782, 1478.000
726.073, 1425.000
727.364, 1495.000
728.654, 1483.000
729.944, 1533.000
731.234, 1510.000
732.524, 1509.000
733.814, 1545.000
735.103, 1530.000
736.392, 1532.000
737.681, 1561.000
738.969, 1534.000
740.258, 1541.000
741.546, 1596.000
742.834, 1584.000
744.122, 1575.000
745.409, 1614.000
746.697, 1636.000
747.984, 1649.000
749.270, 1672.000
750.557, 1684.646
751.844, 1680.000
753.130, 1706.000
754.416, 1726.000
755.701, 1726.000
756.987, 1815.000
758.272, 1779.000
759.557, 1818.000
760.842, 1775.000
762.127, 1831.000
763.411, 1879.000
764.695, 1878.000
765.979, 1892.000
767.263, 1976.000
768.547, 1972.000
769.830, 1997.000
771.113, 2020.000
772.396, 2040.000
773.679, 2140.000
774.961, 2145.000
776.243, 2135.000
777.525, 2251.000
778.807, 2271.000
780.089, 2331.000
781.370, 2448.000
782.651, 2527.000
783.932, 2624.000
785.213, 2672.000
786.493, 2766.000
787.773, 2866.000
789.053, 2964.000
790.333, 3062.081
791.613, 3171.959
792.892, 3272.000
794.171, 3394.000
795.450, 3526.000
796.729, 3640.000
798.007, 3708.000
799.285, 3879.000
800.563, 3947.405
801.841, 4113.000
803.119, 4118.000
804.396, 4282.000
805.673, 4348.000
806.950, 4593.000
808.227, 4711.000
809.504, 4864.000
810.780, 4999.000
812.056, 5194.000
813.332, 5450.000
814.607, 5644.000
815.883, 5914.000
817.158, 6382.000
818.433, 6709.000
819.708, 7318.000
820.982, 7974.000
822.256, 8692.000
823.531, 9194.000
824.804, 10400.000
826.078, 11520.000
827.352, 12470.000
828.625, 14030.000
829.898, 15700.000
831.170, 17690.000
832.443, 20440.000
833.715, 23990.000
834.988, 28250.000
836.259, 34010.000
837.531, 40640.000
838.803, 47020.000
840.074, 51700.000
841.345, 54740.000
842.616, 52420.000
843.886, 49000.000
845.157, 42670.000
846.427, 36910.000
847.697, 32250.000
848.966, 28010.000
850.236, 24560.000
851.505, 22780.000
852.774, 20790.000
854.043, 19110.000
855.312, 18910.000
856.580, 17530.000
857.849, 16320.000
859.117, 15090.000
860.384, 13850.000
861.652, 12870.000
862.919, 11650.000
864.186, 10810.000
865.453, 9755.000
866.720, 9129.000
867.986, 8526.000
869.253, 7971.000
870.519, 7485.000
871.784, 7050.000
873.050, 6623.000
874.315, 6389.000
875.581, 5994.000
876.846, 5778.000
878.110, 5496.000
879.375, 5269.000
880.639, 5030.000
881.903, 4846.701
883.167, 4736.000
884.431, 4561.000
885.694, 4454.000
886.957, 4406.000
888.220, 4241.000
889.483, 4122.000
890.746, 4042.000
892.008, 3908.630
893.270, 3858.000
894.532, 3707.000
895.794, 3638.000
897.056, 3560.000
898.317, 3426.000
899.578, 3374.000
900.839, 3331.000
902.099, 3219.000
903.360, 3117.000
904.620, 3156.000
905.880, 3032.000
907.140, 3005.000
908.399, 2905.000
909.659, 2846.000
910.918, 2832.000
912.177, 2837.000
913.435, 2708.000
914.694, 2773.000
915.952, 2690.000
917.210, 2622.000
918.468, 2671.000
919.726, 2545.000
920.983, 2717.000
922.240, 2566.673
923.497, 2640.000
924.754, 2401.000
926.011, 2395.000
927.267, 2400.000
928.523, 2348.000
929.779, 2348.000
931.035, 2317.000
932.290, 2362.000
933.546, 2321.000
934.801, 2306.000
936.056, 2260.000
937.310, 2277.000
938.565, 2234.000
939.819, 2207.000
941.073, 2197.000
942.327, 2231.000
943.580, 2218.000
944.833, 2217.000
946.087, 2143.000
947.340, 2202.000
948.592, 2135.000
949.845, 2145.000
951.097, 2113.000
952.349, 2107.000
953.601, 2099.000
954.853, 2090.000
956.104, 2082.000
957.355, 2059.000
958.606, 2058.000
959.857, 2038.000
961.108, 2014.000
962.358, 2007.000
963.608, 2004.000
964.858, 2004.000
966.108, 2013.000
967.357, 2001.000
968.607, 1992.000
969.856, 2004.000
971.105, 1993.976
972.353, 1991.802
973.602, 1991.000
974.850, 1977.000
976.098, 1974.000
977.346, 1957.000
978.594, 1946.000
979.841, 1933.000
981.088, 1960.000
982.335, 1945.000
983.582, 1968.000
984.828, 1946.000
986.075, 1966.000
987.321, 1954.000
988.567, 1880.000
989.812, 1924.000
991.058, 1879.000
992.303, 1898.000
993.548, 1863.000
994.793, 1879.000
996.038, 1878.000
997.282, 1853.000
998.526, 1833.000
999.770, 1862.000
1001.014, 1880.000
1002.258, 1819.000
1003.501, 1835.000
1004.744, 1849.000
1005.987, 1839.000
1007.230, 1840.077
1008.473, 1807.000
1009.715, 1824.000
1010.957, 1816.000
1012.199, 1817.000
1013.441, 1851.000
1014.682, 1792.000
1015.923, 1811.000
1017.164, 1818.000
1018.405, 1779.000
1019.646, 1817.000
1020.886, 1792.000
1022.127, 1801.000
1023.367, 1786.000
1024.606, 1782.000
1025.846, 1830.000
1027.085, 1797.000
1028.325, 1759.000
1029.564, 1812.000
1030.802, 1746.000
1032.041, 1778.000
1033.279, 1763.000
1034.517, 1789.000
1035.755, 1781.000
1036.993, 1779.000
1038.230, 1770.000
1039.468, 1756.000
1040.705, 1774.000
1041.942, 1770.000
1043.178, 1745.000
1044.415, 1781.000
1045.651, 1741.000
1046.887, 1796.000
1048.123, 1763.000
1049.358, 1767.000
1050.594, 1734.000
1051.829, 1778.000
1053.064, 1786.000
1054.299, 1799.000
1055.533, 1772.000
1056.768, 1753.000
1058.002, 1755.000
1059.236, 1763.000
1060.469, 1776.000
1061.703, 1776.000
1062.936, 1781.109
1064.169, 1754.000
1065.402, 1776.000
1066.635, 1737.000
1067.867, 1716.000
1069.100, 1753.000
1070.332, 1762.000
1071.564, 1777.000
1072.795, 1772.000
1074.027, 1780.266
1075.258, 1764.000
1076.489, 1774.000
1077.720, 1778.000
1078.950, 1753.000
1080.181, 1750.000
1081.411, 1755.000
1082.641, 1740.000
1083.871, 1752.000
1085.100, 1756.000
1086.330, 1756.000
1087.559, 1733.000
1088.788, 1768.000
1090.016, 1736.000
1091.245, 1736.000
1092.473, 1758.000
1093.701, 1746.000
1094.929, 1751.000
1096.157, 1745.000
1097.384, 1748.875
1098.612, 1735.000
1099.839, 1763.000
1101.066, 1748.000
1102.292, 1760.776
1103.519, 1737.000
1104.745, 1740.000
1105.971, 1747.000
1107.197, 1709.000
1108.423, 1750.000
1109.648, 1738.000
1110.873, 1724.000
1112.098, 1708.000
1113.323, 1703.883
1114.548, 1735.000
1115.772, 1704.000
1116.996, 1728.000
1118.220, 1749.000
1119.444, 1733.000
1120.667, 1741.323
1121.891, 1722.000
1123.114, 1732.000
1124.337, 1706.000
1125.560, 1714.000
1126.782, 1740.000
1128.004, 1709.000
1129.227, 1762.000
1130.448, 1660.000
1131.670, 1743.000
1132.892, 1692.000
1134.113, 1726.000
1135.334, 1730.000
1136.555, 1696.000
1137.776, 1691.000
1138.996, 1739.000
1140.216, 1732.000
1141.436, 1757.000
1142.656, 1748.000
1143.876, 1756.000
1145.095, 1772.000
1146.315, 1740.000
1147.534, 1754.000
1148.753, 1765.000
1149.971, 1703.000
1151.190, 1757.000
1152.408, 1743.000
1153.626, 1761.000
1154.844, 1769.000
1156.061, 1759.000
1157.279, 1792.000
1158.496, 1796.000
1159.713, 1782.000
1160.930, 1795.000
1162.146, 1765.000
1163.363, 1774.000
1164.579, 1786.000
1165.795, 1809.000
1167.010, 1824.000
1168.226, 1827.894
1169.441, 1824.000
1170.657, 1812.000
1171.871, 1818.000
1173.086, 1808.982
1174.301, 1824.000
1175.515, 1803.000
1176.729, 1819.000
1177.943, 1825.000
1179.157, 1819.000
1180.370, 1827.125
1181.584, 1831.000
1182.797, 1826.000
1184.010, 1834.000
1185.222, 1829.000
1186.435, 1835.907
1187.647, 1850.000
1188.859, 1853.000
1190.071, 1845.000
1191.283, 1862.000
1192.494, 1874.000
1193.706, 1904.000
1194.917, 1856.000
1196.128, 1865.000
1197.338, 1871.000
1198.549, 1914.000
1199.759, 1834.000
1200.969, 1883.000
1202.179, 1819.000
1203.389, 1872.000
1204.598, 1863.000
1205.807, 1899.000
1207.016, 1899.000
1208.225, 1908.000
1209.434, 1908.000
1210.642, 1872.000
1211.850, 1847.000
1213.058, 1852.164
1214.266, 1876.000
1215.474, 1868.000
1216.681, 1878.000
1217.889, 1910.000
1219.096, 1887.000
1220.302, 1920.000
1221.509, 1890.000
1222.715, 1900.000
1223.922, 1865.000
1225.128, 1915.000
1226.334, 1883.000
1227.539, 1878.000
1228.745, 1882.000
1229.950, 1882.000
1231.155, 1876.000
1232.360, 1880.000
1233.564, 1905.000
1234.769, 1908.000
1235.973, 1890.000
1237.177, 1874.000
1238.381, 1928.000
1239.584, 1874.000
1240.787, 1849.000
1241.991, 1932.000
1243.194, 1871.000
1244.396, 1885.000
1245.599, 1874.000
1246.801, 1911.000
1248.004, 1878.000
1249.206, 1929.000
1250.407, 1902.000
1251.609, 1943.000
1252.810, 1910.000
1254.012, 1915.000
1255.212, 1910.000
1256.413, 1944.000
1257.614, 1920.000
1258.814, 1946.000
1260.014, 1884.000
1261.214, 1929.000
1262.414, 1900.000
1263.614, 1926.000
1264.813, 1946.000
1266.012, 1898.000
1267.211, 1900.000
1268.410, 1908.000
1269.609, 1891.000
1270.807, 1905.000
1272.005, 1873.000
1273.203, 1900.000
1274.401, 1910.000
1275.598, 1889.000
1276.796, 1907.000
1277.993, 1888.000
1279.190, 1899.000
1280.387, 1892.061
1281.583, 1900.000
1282.780, 1887.000
1283.976, 1903.000
1285.172, 1920.000
1286.368, 1906.000
1287.563, 1889.000
1288.759, 1868.000
1289.954, 1907.000
1291.149, 1898.000
1292.343, 1907.000
1293.538, 1912.000
1294.732, 1857.000
1295.927, 1916.000
1297.121, 1902.000
1298.314, 1871.000
1299.508, 1890.000
1300.701, 1897.000
1301.895, 1901.000
1303.087, 1935.000
1304.280, 1909.000
1305.473, 1884.000
1306.665, 1933.000
1307.857, 1888.000
1309.049, 1875.000
1310.241, 1906.000
1311.433, 1900.000
1312.624, 1882.000
1313.815, 1876.000
1315.006, 1913.000
1316.197, 1899.000
1317.388, 1925.000
1318.578, 1902.000
1319.768, 1906.000
1320.958, 1913.000
1322.148, 1927.000
1323.338, 1928.000
1324.527, 1933.759
1325.716, 1910.000
1326.906, 1944.000
1328.094, 1917.000
1329.283, 1932.000
1330.471, 1891.000
1331.660, 1923.000
1332.848, 1923.000
1334.035, 1915.000
1335.223, 1913.000
1336.411, 1940.000
1337.598, 1917.000
1338.785, 1929.207
1339.972, 1920.000
1341.158, 1923.000
1342.345, 1946.000
1343.531, 1925.000
1344.717, 1901.000
1345.903, 1982.000
1347.089, 1938.000
1348.274, 1948.000
1349.459, 1951.000
1350.644, 1931.000
1351.829, 1945.805
1353.014, 1954.000
1354.198, 1951.000
1355.383, 1964.000
1356.567, 1955.000
1357.751, 1962.000
1358.934, 1984.000
1360.118, 1970.000
1361.301, 1982.000
1362.484, 1984.000
1363.667, 1967.000
1364.850, 2006.000
1366.032, 1952.000
1367.215, 2007.000
1368.397, 1945.000
1369.579, 1941.000
1370.760, 1992.000
1371.942, 1964.000
1373.123, 1947.000
1374.304, 1986.000
1375.485, 1978.000
1376.666, 2029.000
1377.847, 2001.000
1379.027, 2017.527
1380.207, 2039.000
1381.387, 2014.000
1382.567, 1998.000
1383.747, 1976.000
1384.926, 2049.000
1386.105, 2011.000
1387.284, 2024.000
1388.463, 1985.000
1389.641, 2005.000
1390.820, 2020.000
1391.998, 2009.000
1393.176, 2056.000
1394.354, 2045.000
1395.532, 2000.000
1396.709, 2074.000
1397.886, 2024.000
1399.063, 2025.000
1400.240, 2048.000
1401.417, 2026.000
1402.593, 2043.000
1403.769, 2048.000
1404.945, 2036.000
1406.121, 2042.000
1407.297, 2048.000
1408.472, 2032.000
1409.648, 2030.000
1410.823, 2053.000
1411.998, 2036.000
1413.172, 2084.000
1414.347, 2053.000
1415.521, 2080.000
1416.695, 2036.000
1417.869, 2064.000
1419.043, 2060.000
1420.216, 2084.000
1421.390, 2042.000
1422.563, 2100.000
1423.736, 2142.000
1424.909, 2115.000
1426.081, 2083.000
1427.254, 2077.000
1428.426, 2123.000
1429.598, 2120.000
1430.770, 2109.000
1431.941, 2138.000
1433.113, 2144.000
1434.284, 2100.000
1435.455, 2105.000
1436.626, 2106.000
1437.796, 2115.000
1438.967, 2130.000
1440.137, 2092.000
1441.307, 2106.000
1442.477, 2160.000
1443.646, 2115.000
1444.816, 2154.000
1445.985, 2138.000
1447.154, 2150.000
1448.323, 2133.000
1449.492, 2167.000
1450.660, 2143.000
1451.829, 2168.000
1452.997, 2171.000
1454.165, 2191.000
1455.332, 2190.000
1456.500, 2151.000
1457.667, 2204.000
1458.834, 2218.000
1460.001, 2172.000
1461.168, 2207.000
1462.335, 2178.000
1463.501, 2202.000
1464.667, 2224.000
1465.833, 2207.000
1466.999, 2218.000
1468.165, 2215.000
1469.330, 2206.000
1470.495, 2211.000
1471.660, 2217.497
1472.825, 2253.000
1473.990, 2241.000
1475.154, 2238.000
1476.318, 2249.000
1477.482, 2240.000
1478.646, 2238.000
1479.810, 2215.000
1480.974, 2296.000
1482.137, 2258.000
1483.300, 2230.000
1484.463, 2300.000
1485.626, 2268.000
1486.788, 2242.000
1487.950, 2265.000
1489.113, 2242.000
1490.275, 2332.000
1491.436, 2300.000
1492.598, 2246.000
1493.759, 2306.000
1494.920, 2282.000
1496.081, 2283.000
1497.242, 2340.000
1498.403, 2309.000
1499.563, 2288.000
1500.724, 2380.000
1501.884, 2301.000
1503.043, 2353.000
1504.203, 2309.000
1505.363, 2281.000
1506.522, 2366.000
1507.681, 2351.000
1508.840, 2337.000
1509.999, 2321.000
1511.157, 2328.000
1512.315, 2333.000
1513.474, 2374.000
1514.632, 2345.000
1515.789, 2355.000
1516.947, 2369.000
##END=



