##NAMES=Cuprite
##RRUFFID=R050384
##IDEAL CHEMISTRY=Cu^1+^_2_O
##LOCALITY=Lavender Pit, Bisbee, Warren District, Cochise County, Arizona, USA
##OWNER=RRUFF
##SOURCE=University of Arizona Mineral Museum
##DESCRIPTION=Deep red to nearly black cubes
##STATUS=The identification of this mineral has been confirmed by X-ray diffraction and chemical analysis
##URL=rruff.info/R050384
##MEASURED CHEMISTRY=Cu_2.00_O
##PIN_ID=M00339
##ORIENTATION=Laser parallel to b* (0 1 0). Fiducial mark perpendicular to laser is parallel to c [0 0 1]
53.91000, 1795.000
55.14900, 1775.000
56.38700, 1716.000
57.62600, 1775.000
58.86400, 1737.000
60.10300, 1756.000
61.34100, 1705.000
62.57900, 1745.000
63.81700, 1746.000
65.05400, 1876.000
66.29200, 1957.000
67.52900, 2096.000
68.76700, 2333.000
70.00400, 2600.000
71.24100, 2559.000
72.47700, 2629.000
73.71400, 2796.000
74.95100, 3126.000
76.18700, 3324.000
77.42300, 3509.000
78.65900, 3680.000
79.89500, 4072.000
81.13100, 4333.199
82.36700, 4608.000
83.60200, 4954.000
84.83700, 5008.000
86.07200, 5125.000
87.30800, 5389.000
88.54200, 5550.000
89.77700, 5813.000
91.01200, 6122.000
92.24600, 6316.000
93.48000, 6458.000
94.71400, 6525.000
95.94800, 6621.000
97.18200, 6783.000
98.41600, 6957.282
99.64900, 7135.344
100.8830, 7468.000
102.1160, 7649.000
103.3490, 8060.000
104.5820, 8549.000
105.8150, 9092.000
107.0470, 10175.00
108.2800, 9915.651
109.5120, 10302.00
110.7440, 9412.000
111.9760, 9264.000
113.2080, 8546.000
114.4400, 8807.000
115.6710, 8906.000
116.9030, 8494.000
118.1340, 8291.000
119.3650, 7855.000
120.5960, 7930.000
121.8270, 7921.000
123.0580, 8117.000
124.2880, 8153.000
125.5190, 8067.000
126.7490, 8075.000
127.9790, 8364.000
129.2090, 8686.000
130.4390, 9154.000
131.6680, 9261.000
132.8980, 9613.000
134.1270, 9832.000
135.3560, 9982.000
136.5850, 10741.00
137.8140, 10699.00
139.0430, 11076.00
140.2710, 11164.00
141.5000, 11164.00
142.7280, 11296.00
143.9560, 11242.00
145.1840, 11175.00
146.4120, 11179.00
147.6390, 11223.00
148.8670, 10646.00
150.0940, 10365.00
151.3210, 10341.00
152.5490, 9852.000
153.7750, 9630.000
155.0020, 9775.000
156.2290, 9681.000
157.4550, 9425.000
158.6810, 9441.000
159.9080, 9113.000
161.1340, 8959.000
162.3590, 8669.000
163.5850, 8582.000
164.8110, 8436.000
166.0360, 8214.000
167.2610, 8201.000
168.4860, 8176.000
169.7110, 8239.227
170.9360, 8447.000
172.1610, 8597.000
173.3850, 8859.000
174.6100, 9223.000
175.8340, 9360.000
177.0580, 9445.000
178.2820, 9830.000
179.5050, 10054.00
180.7290, 10302.00
181.9520, 10800.00
183.1760, 11089.00
184.3990, 11733.00
185.6220, 12276.00
186.8450, 12641.00
188.0670, 12746.00
189.2900, 12771.00
190.5120, 12516.00
191.7340, 12373.00
192.9560, 12543.00
194.1780, 12674.00
195.4000, 13451.00
196.6220, 14045.00
197.8430, 14550.00
199.0640, 14589.00
200.2860, 14444.00
201.5070, 14572.00
202.7270, 14739.00
203.9480, 14962.00
205.1690, 15215.00
206.3890, 15967.00
207.6090, 16976.00
208.8290, 18315.00
210.0490, 19865.00
211.2690, 21054.00
212.4890, 22532.00
213.7080, 24188.00
214.9280, 25115.00
216.1470, 25926.00
217.3660, 25853.00
218.5850, 24401.00
219.8030, 22082.00
221.0220, 19079.00
222.2400, 16452.00
223.4590, 14444.00
224.6770, 12866.00
225.8950, 11822.00
227.1120, 11050.00
228.3300, 10341.00
229.5480, 9894.000
230.7650, 9344.000
231.9820, 9059.000
233.1990, 8466.000
234.4160, 8130.000
235.6330, 7935.000
236.8490, 7529.000
238.0660, 7120.000
239.2820, 6953.000
240.4980, 6716.000
241.7140, 6481.000
242.9300, 6250.000
244.1460, 6054.000
245.3610, 5844.000
246.5770, 5748.000
247.7920, 5669.000
249.0070, 5491.000
250.2220, 5435.000
251.4370, 5238.000
252.6510, 5181.000
253.8660, 5114.000
255.0800, 5058.000
256.2940, 5018.000
257.5080, 5419.000
258.7220, 5191.129
259.9360, 5577.000
261.1490, 5018.000
262.3630, 4820.000
263.5760, 4709.000
264.7890, 4703.000
266.0020, 4716.000
267.2150, 4678.000
268.4270, 4709.000
269.6400, 4721.000
270.8520, 4697.000
272.0640, 4684.000
273.2760, 4735.000
274.4880, 4705.000
275.7000, 4713.000
276.9120, 4769.000
278.1230, 4663.000
279.3340, 4694.000
280.5450, 4639.000
281.7560, 4623.000
282.9670, 4726.000
284.1780, 4760.000
285.3880, 4796.000
286.5980, 4789.000
287.8090, 4857.000
289.0190, 4843.000
290.2290, 4826.000
291.4380, 4914.000
292.6480, 4899.000
293.8570, 4920.000
295.0670, 4918.000
296.2760, 5007.000
297.4850, 5004.000
298.6930, 4937.000
299.9020, 4966.000
301.1110, 4916.000
302.3190, 4965.000
303.5270, 4949.691
304.7350, 4993.000
305.9430, 4953.000
307.1510, 4948.000
308.3580, 4959.000
309.5660, 4939.000
310.7730, 4946.000
311.9800, 4926.000
313.1870, 4920.000
314.3940, 4907.000
315.6010, 4828.000
316.8070, 4812.000
318.0130, 4831.000
319.2200, 4854.000
320.4260, 4838.000
321.6310, 4697.000
322.8370, 4850.000
324.0430, 4689.000
325.2480, 4632.000
326.4540, 4638.000
327.6590, 4674.000
328.8640, 4612.000
330.0680, 4621.000
331.2730, 4540.000
332.4780, 4566.000
333.6820, 4625.000
334.8860, 4558.000
336.0900, 4496.000
337.2940, 4497.000
338.4980, 4530.000
339.7010, 4516.000
340.9050, 4489.000
342.1080, 4518.000
343.3110, 4508.000
344.5140, 4481.000
345.7170, 4605.000
346.9200, 4529.000
348.1220, 4538.000
349.3240, 4531.000
350.5270, 4649.000
351.7290, 4579.000
352.9310, 4632.000
354.1320, 4653.000
355.3340, 4648.000
356.5350, 4667.000
357.7370, 4701.341
358.9380, 4710.463
360.1390, 4739.122
361.3400, 4751.000
362.5400, 4799.000
363.7410, 4816.000
364.9410, 4872.000
366.1410, 4895.049
367.3410, 4984.000
368.5410, 4940.000
369.7410, 4954.000
370.9400, 4952.000
372.1400, 5073.000
373.3390, 5004.000
374.5380, 5138.000
375.7370, 5205.000
376.9360, 5232.000
378.1350, 5298.000
379.3330, 5286.000
380.5310, 5355.000
381.7300, 5424.824
382.9280, 5557.000
384.1260, 5608.000
385.3230, 5711.000
386.5210, 5836.000
387.7180, 5817.000
388.9160, 5846.000
390.1130, 6027.000
391.3100, 6239.000
392.5060, 6190.000
393.7030, 6300.000
394.9000, 6429.000
396.0960, 6485.000
397.2920, 6544.000
398.4880, 6799.000
399.6840, 6786.000
400.8800, 6915.000
402.0750, 6935.000
403.2710, 7052.000
404.4660, 7238.000
405.6610, 7137.000
406.8560, 7302.000
408.0510, 7263.000
409.2450, 7288.000
410.4400, 7263.000
411.6340, 7304.000
412.8280, 7201.000
414.0220, 7236.000
415.2160, 7213.000
416.4100, 7053.000
417.6030, 7108.000
418.7970, 6997.000
419.9900, 6952.000
421.1830, 6938.000
422.3760, 6860.000
423.5690, 6767.958
424.7610, 6763.000
425.9540, 6572.000
427.1460, 6539.000
428.3380, 6522.000
429.5300, 6310.000
430.7220, 6327.000
431.9140, 6260.000
433.1050, 6117.000
434.2970, 6161.000
435.4880, 6033.000
436.6790, 5939.000
437.8700, 5980.000
439.0610, 5864.000
440.2510, 5866.000
441.4420, 5792.000
442.6320, 5815.000
443.8220, 5834.000
445.0120, 5846.000
446.2020, 5749.000
447.3910, 5806.000
448.5810, 5758.000
449.7700, 5736.000
450.9600, 5758.000
452.1490, 5788.000
453.3370, 5718.000
454.5260, 5910.000
455.7150, 5844.000
456.9030, 5898.000
458.0910, 5877.000
459.2800, 5826.000
460.4670, 5924.000
461.6550, 5896.000
462.8430, 5914.000
464.0300, 5959.000
465.2180, 6005.000
466.4050, 6032.915
467.5920, 6068.624
468.7790, 6099.000
469.9650, 6109.000
471.1520, 6131.000
472.3380, 6117.000
473.5250, 6149.502
474.7110, 6185.000
475.8970, 6222.000
477.0820, 6276.000
478.2680, 6365.000
479.4540, 6366.770
480.6390, 6228.000
481.8240, 6358.000
483.0090, 6291.000
484.1940, 6202.000
485.3780, 6293.000
486.5630, 6241.000
487.7470, 6123.000
488.9320, 6264.000
490.1160, 6192.000
491.3000, 6181.000
492.4830, 6234.000
493.6670, 6140.000
494.8500, 6214.000
496.0340, 6166.000
497.2170, 6167.000
498.4000, 6046.000
499.5820, 6217.000
500.7650, 6099.000
501.9480, 6104.000
503.1300, 6087.000
504.3120, 6143.000
505.4940, 6190.000
506.6760, 6021.000
507.8580, 6129.000
509.0390, 6087.000
510.2210, 6091.000
511.4020, 6101.000
512.5830, 6083.000
513.7640, 6068.000
514.9450, 6058.042
516.1250, 6053.000
517.3060, 6053.000
518.4860, 6010.000
519.6660, 6068.000
520.8460, 6100.000
522.0260, 6052.000
523.2060, 6089.000
524.3850, 6109.000
525.5650, 6020.000
526.7440, 6002.000
527.9230, 6050.000
529.1020, 6111.000
530.2810, 6065.000
531.4590, 6084.000
532.6380, 6102.125
533.8160, 6092.000
534.9940, 6102.000
536.1720, 6152.000
537.3500, 6092.000
538.5270, 6195.000
539.7050, 6116.000
540.8820, 6054.000
542.0590, 6166.000
543.2360, 6127.000
544.4130, 6197.000
545.5900, 6195.000
546.7660, 6214.000
547.9430, 6225.000
549.1190, 6217.000
550.2950, 6253.000
551.4710, 6234.000
552.6470, 6201.000
553.8220, 6343.000
554.9980, 6243.000
556.1730, 6300.000
557.3480, 6305.000
558.5230, 6319.000
559.6980, 6421.000
560.8730, 6372.000
562.0470, 6414.000
563.2220, 6468.000
564.3960, 6578.000
565.5700, 6563.029
566.7440, 6606.000
567.9170, 6559.000
569.0910, 6596.000
570.2640, 6584.000
571.4380, 6625.000
572.6110, 6608.000
573.7840, 6698.000
574.9570, 6623.000
576.1290, 6718.000
577.3020, 6595.000
578.4740, 6580.000
579.6460, 6610.000
580.8180, 6749.000
581.9900, 6751.432
583.1620, 6778.729
584.3330, 6868.000
585.5040, 6775.000
586.6760, 6838.000
587.8470, 6838.000
589.0180, 6926.000
590.1880, 6884.000
591.3590, 6904.000
592.5290, 7044.000
593.7000, 6912.000
594.8700, 7111.000
596.0400, 7107.000
597.2090, 7135.000
598.3790, 7193.000
599.5490, 7247.000
600.7180, 7288.000
601.8870, 7337.000
603.0560, 7508.000
604.2250, 7605.000
605.3940, 7679.000
606.5620, 7854.000
607.7300, 7966.000
608.8990, 7965.000
610.0670, 8215.000
611.2350, 8327.000
612.4020, 8598.000
613.5700, 8696.000
614.7370, 8796.000
615.9050, 9009.000
617.0720, 9149.000
618.2390, 9353.000
619.4060, 9619.000
620.5720, 9588.000
621.7390, 9668.000
622.9050, 9885.000
624.0710, 9877.000
625.2370, 9917.000
626.4030, 9867.000
627.5690, 9862.000
628.7340, 9774.000
629.9000, 9807.000
631.0650, 9799.000
632.2300, 9684.000
633.3950, 9617.000
634.5600, 9604.000
635.7240, 9478.000
636.8890, 9416.000
638.0530, 9405.000
639.2170, 9315.497
640.3810, 9324.000
641.5450, 9190.000
642.7080, 9202.000
643.8720, 9102.000
645.0350, 9068.000
646.1980, 8983.790
647.3610, 8897.000
648.5240, 8776.000
649.6870, 8580.000
650.8490, 8430.000
652.0120, 8294.006
653.1740, 8172.192
654.3360, 8052.000
655.4980, 7977.000
656.6600, 7927.000
657.8210, 7834.000
658.9830, 7767.000
660.1440, 7750.000
661.3050, 7665.000
662.4660, 7602.000
663.6270, 7635.000
664.7870, 7562.000
665.9480, 7501.000
667.1080, 7553.000
668.2680, 7531.000
669.4280, 7436.000
670.5880, 7387.000
671.7480, 7371.000
672.9070, 7368.000
674.0670, 7296.000
675.2260, 7289.000
676.3850, 7283.823
677.5440, 7194.000
678.7030, 7309.000
679.8610, 7255.000
681.0200, 7298.000
682.1780, 7209.000
683.3360, 7241.000
684.4940, 7269.000
685.6520, 7265.000
686.8090, 7309.000
687.9670, 7259.000
689.1240, 7216.000
690.2810, 7174.000
691.4380, 7191.000
692.5950, 7124.000
693.7520, 7186.000
694.9080, 7150.000
696.0650, 7174.000
697.2210, 7222.000
698.3770, 7250.000
699.5330, 7191.000
700.6880, 7111.000
701.8440, 7037.000
702.9990, 7114.000
704.1550, 7137.000
705.3100, 7117.000
706.4650, 7182.000
707.6190, 7149.755
708.7740, 7062.000
709.9290, 7114.000
711.0830, 7086.000
712.2370, 7062.000
713.3910, 7139.000
714.5450, 7026.000
715.6980, 7098.000
716.8520, 7113.000
718.0050, 7069.000
719.1580, 7128.000
720.3110, 7072.000
721.4640, 7127.000
722.6170, 7147.000
723.7700, 7095.000
724.9220, 7200.000
726.0740, 7003.000
727.2260, 7054.000
728.3780, 7088.000
729.5300, 7113.000
730.6810, 7080.000
731.8330, 7142.000
732.9840, 7166.000
734.1350, 7117.000
735.2860, 7054.000
736.4370, 7104.000
737.5880, 7007.000
738.7380, 7091.000
739.8880, 7085.000
741.0390, 7064.000
742.1890, 7113.000
743.3380, 7132.000
744.4880, 7075.000
745.6380, 7049.000
746.7870, 7175.000
747.9360, 7176.000
749.0850, 7075.000
750.2340, 7188.000
751.3830, 7062.000
752.5310, 7204.000
753.6800, 7192.000
754.8280, 7205.000
755.9760, 7133.000
757.1240, 7162.000
758.2720, 7135.000
759.4190, 7190.000
760.5670, 7096.000
761.7140, 7188.000
762.8610, 7225.000
764.0080, 7146.000
765.1550, 7275.000
766.3020, 7220.000
767.4480, 7432.000
768.5950, 7276.000
769.7410, 7260.000
770.8870, 7386.000
772.0330, 7285.000
773.1780, 7287.000
774.3240, 7355.000
775.4690, 7317.000
776.6140, 7331.000
777.7590, 7423.000
778.9040, 7413.000
780.0490, 7437.000
781.1940, 7510.000
782.3380, 7569.000
783.4820, 7471.000
784.6260, 7544.000
785.7700, 7497.000
786.9140, 7585.000
788.0580, 7543.000
789.2010, 7650.000
790.3450, 7644.000
791.4880, 7534.000
792.6310, 7517.000
793.7730, 7585.000
794.9160, 7566.000
796.0590, 7656.000
797.2010, 7703.000
798.3430, 7630.000
799.4850, 7591.000
800.6270, 7662.000
801.7690, 7607.000
802.9100, 7532.000
804.0520, 7694.000
805.1930, 7592.000
806.3340, 7647.000
807.4750, 7724.000
808.6160, 7675.000
809.7560, 7677.000
810.8970, 7693.000
812.0370, 7710.000
813.1770, 7692.719
814.3170, 7738.293
815.4570, 7654.000
816.5960, 7813.000
817.7360, 7796.000
818.8750, 7831.000
820.0140, 7779.000
821.1530, 7792.000
822.2920, 7744.000
823.4310, 7784.000
824.5690, 7842.000
825.7070, 7783.000
826.8460, 7773.000
827.9840, 7838.000
829.1220, 7861.000
830.2590, 7816.000
831.3970, 7850.000
832.5340, 7832.000
833.6710, 7886.000
834.8080, 7911.000
835.9450, 7831.000
837.0820, 7917.000
838.2190, 7931.000
839.3550, 7880.000
840.4910, 7931.000
841.6270, 7991.000
842.7630, 7833.000
843.8990, 7818.000
845.0350, 7999.000
846.1700, 7941.000
847.3060, 7924.000
848.4410, 8033.000
849.5760, 8044.243
850.7100, 8072.988
851.8450, 8160.000
852.9800, 8104.000
854.1140, 8077.000
855.2480, 8050.000
856.3820, 8066.819
857.5160, 8153.000
858.6500, 8137.000
859.7830, 8167.000
860.9170, 8215.000
862.0500, 8028.000
863.1830, 8154.000
864.3160, 8079.000
865.4480, 8230.000
866.5810, 8137.000
867.7130, 8195.000
868.8460, 8258.000
869.9780, 8200.000
871.1100, 8328.000
872.2410, 8365.000
873.3730, 8320.000
874.5050, 8222.000
875.6360, 8308.000
876.7670, 8342.000
877.8980, 8401.000
879.0290, 8505.000
880.1590, 8354.000
881.2900, 8438.000
882.4200, 8522.000
883.5500, 8364.000
884.6800, 8526.000
885.8100, 8554.000
886.9400, 8578.000
888.0690, 8632.780
889.1990, 8622.000
890.3280, 8639.000
891.4570, 8652.000
892.5860, 8617.000
893.7140, 8726.000
894.8430, 8595.000
895.9710, 8660.000
897.1000, 8662.000
898.2280, 8745.000
899.3560, 8749.000
900.4830, 8840.000
901.6110, 8923.000
902.7380, 8774.000
903.8660, 8867.000
904.9930, 8939.000
906.1200, 8880.000
907.2460, 9002.000
908.3730, 9010.000
909.5000, 8991.000
910.6260, 9035.000
911.7520, 9125.000
912.8780, 9028.000
914.0040, 9027.000
915.1290, 9155.000
916.2550, 9157.000
917.3800, 9201.000
918.5050, 9236.000
919.6300, 9150.000
920.7550, 9296.000
921.8800, 9200.000
923.0040, 9332.000
924.1290, 9382.000
925.2530, 9339.000
926.3770, 9237.000
927.5010, 9470.000
928.6250, 9426.000
929.7480, 9409.000
930.8720, 9539.000
931.9950, 9545.000
933.1180, 9553.000
934.2410, 9622.000
935.3640, 9615.884
936.4860, 9569.000
937.6090, 9614.000
938.7310, 9586.801
939.8530, 9683.000
940.9750, 9608.000
942.0970, 9718.000
943.2180, 9802.000
944.3400, 9829.000
945.4610, 9871.000
946.5820, 9869.000
947.7030, 9960.000
948.8240, 9908.000
949.9450, 9987.945
951.0650, 10015.51
952.1860, 10043.00
953.3060, 10113.00
954.4260, 10017.00
955.5460, 10097.00
956.6650, 10171.00
957.7850, 10180.00
958.9040, 10279.00
960.0230, 10281.00
961.1420, 10294.00
962.2610, 10352.00
963.3800, 10226.00
964.4990, 10288.00
965.6170, 10289.00
966.7350, 10378.00
967.8530, 10476.00
968.9710, 10486.00
970.0890, 10631.00
971.2070, 10666.00
972.3240, 10634.00
973.4410, 10513.00
974.5580, 10760.00
975.6750, 10682.00
976.7920, 10630.00
977.9090, 10736.00
979.0250, 10825.00
980.1410, 10932.00
981.2580, 10762.00
982.3740, 10950.00
983.4890, 10912.00
984.6050, 11021.00
985.7200, 11026.00
986.8360, 11165.00
987.9510, 11105.00
989.0660, 11156.00
990.1810, 11216.00
991.2950, 11134.00
992.4100, 11177.00
993.5240, 11200.00
994.6390, 11334.00
995.7530, 11470.00
996.8660, 11334.00
997.9800, 11570.00
999.0940, 11499.95
1000.207, 11538.79
1001.320, 11496.00
1002.433, 11581.00
1003.546, 11642.00
1004.659, 11651.00
1005.772, 11778.00
1006.884, 11810.00
1007.996, 11720.00
1009.108, 11864.00
1010.220, 11855.00
1011.332, 11984.00
1012.444, 11935.00
1013.555, 11957.00
1014.666, 12006.00
1015.777, 12036.48
1016.888, 12078.62
1017.999, 12171.00
1019.110, 12189.00
1020.220, 12261.00
1021.331, 12369.00
1022.441, 12408.00
1023.551, 12472.95
1024.661, 12513.17
1025.770, 12535.00
1026.880, 12557.00
1027.989, 12522.00
1029.098, 12517.00
1030.207, 12690.00
1031.316, 12775.00
1032.425, 12723.00
1033.533, 12767.00
1034.642, 12826.81
1035.750, 12871.00
1036.858, 12944.00
1037.966, 12946.00
1039.073, 12977.00
1040.181, 13086.00
1041.288, 13065.00
1042.396, 13044.00
1043.503, 13167.00
1044.610, 13254.00
1045.716, 13256.09
1046.823, 13337.00
1047.929, 13351.00
1049.036, 13376.00
1050.142, 13535.00
1051.248, 13477.00
1052.353, 13587.00
1053.459, 13701.00
1054.564, 13692.00
1055.670, 13719.00
1056.775, 13771.00
1057.880, 13728.00
1058.985, 13784.00
1060.089, 13790.00
1061.194, 13878.00
1062.298, 13765.00
1063.402, 13823.00
1064.506, 13974.00
1065.610, 14079.00
1066.713, 14005.00
1067.817, 14094.00
1068.920, 14062.00
1070.023, 14132.00
1071.126, 14132.00
1072.229, 14154.00
1073.332, 14157.00
1074.435, 14177.57
1075.537, 14298.00
1076.639, 14256.00
1077.741, 14318.00
1078.843, 14440.00
1079.945, 14463.00
1081.046, 14560.00
1082.148, 14595.00
1083.249, 14417.00
1084.350, 14470.00
1085.451, 14593.00
1086.551, 14588.00
1087.652, 14758.00
1088.752, 14706.00
1089.853, 14751.00
1090.953, 14799.00
1092.053, 14822.00
1093.152, 14815.00
1094.252, 15078.00
1095.351, 14948.00
1096.451, 14980.00
1097.550, 15082.00
1098.649, 14897.00
1099.748, 14983.00
1100.846, 15138.00
1101.945, 15143.00
1103.043, 15192.00
1104.141, 15384.00
1105.239, 15386.00
1106.337, 15289.00
1107.434, 15446.00
1108.532, 15401.00
1109.629, 15509.00
1110.726, 15438.00
1111.823, 15461.00
1112.920, 15548.00
1114.017, 15542.00
1115.113, 15675.00
1116.210, 15846.00
1117.306, 15999.00
1118.402, 16062.00
1119.498, 16191.00
1120.593, 16224.00
1121.689, 16177.00
1122.784, 16258.00
1123.879, 16301.00
1124.974, 16378.00
1126.069, 16120.00
1127.164, 16093.00
1128.259, 16341.00
1129.353, 16192.00
1130.447, 16355.00
1131.541, 16366.00
1132.635, 16402.00
1133.729, 16622.00
1134.822, 16636.00
1135.916, 16416.00
1137.009, 16573.00
1138.102, 16619.00
1139.195, 16802.00
1140.288, 16681.00
1141.380, 16606.00
1142.473, 16667.00
1143.565, 16713.00
1144.657, 16885.00
1145.749, 16943.00
1146.841, 16961.00
1147.932, 16925.00
1149.024, 17019.00
1150.115, 17075.00
1151.206, 17093.00
1152.297, 17113.00
1153.388, 17296.00
1154.479, 17366.00
1155.569, 17248.00
1156.659, 17424.54
1157.750, 17393.00
1158.839, 17553.00
1159.929, 17651.00
1161.019, 17637.00
1162.108, 17786.00
1163.198, 17770.00
1164.287, 17872.26
1165.376, 17870.00
1166.465, 18002.00
1167.553, 18046.00
1168.642, 18001.00
1169.730, 17977.00
1170.818, 17992.00
1171.906, 18381.00
1172.994, 18230.00
1174.082, 18314.00
1175.170, 18413.00
1176.257, 18236.00
1177.344, 18359.00
1178.431, 18506.00
1179.518, 18479.00
1180.605, 18565.00
1181.691, 18577.00
1182.778, 18765.00
1183.864, 18625.00
1184.950, 18763.00
1186.036, 18798.00
1187.122, 18784.00
1188.207, 18954.00
1189.292, 18906.00
1190.378, 19095.00
1191.463, 18924.00
1192.548, 19220.00
1193.632, 19012.00
1194.717, 19245.00
1195.801, 19323.00
1196.886, 19411.00
1197.970, 19293.00
1199.054, 19388.00
1200.137, 19443.00
1201.221, 19494.00
1202.305, 19595.08
1203.388, 19687.93
1204.471, 19754.00
1205.554, 19853.21
1206.637, 19945.00
1207.719, 20041.00
1208.802, 20142.00
1209.884, 20265.00
1210.966, 20220.00
1212.048, 20124.00
1213.130, 20648.00
1214.212, 20436.00
1215.293, 20418.00
1216.374, 20836.00
1217.456, 20472.00
1218.536, 20582.00
1219.617, 20493.00
1220.698, 20945.00
1221.778, 20974.00
1222.859, 21273.00
1223.939, 21043.00
1225.019, 21281.00
1226.099, 21282.00
1227.178, 21342.00
1228.258, 21248.00
1229.337, 21345.00
1230.417, 21357.00
1231.496, 21388.55
1232.574, 21402.00
1233.653, 21563.00
1234.732, 21522.00
1235.810, 21737.00
1236.888, 21859.00
1237.966, 21768.00
1239.044, 21829.00
1240.122, 21907.00
1241.199, 21921.00
1242.277, 22100.00
1243.354, 22153.38
1244.431, 22341.00
1245.508, 22363.00
1246.585, 22289.00
1247.661, 22408.00
1248.738, 22458.00
1249.814, 22617.00
1250.890, 22830.00
1251.966, 22733.00
1253.042, 22780.00
1254.117, 22992.00
1255.193, 23011.00
1256.268, 22913.00
1257.343, 23174.00
1258.418, 23196.00
1259.493, 23245.00
1260.567, 23354.00
1261.642, 23370.00
1262.716, 23530.00
1263.790, 23760.00
1264.864, 23547.00
1265.938, 23801.00
1267.011, 24010.00
1268.085, 23910.00
1269.158, 24000.00
1270.231, 24004.00
1271.304, 24035.00
1272.377, 24257.00
1273.450, 24413.00
1274.522, 24422.57
1275.594, 24442.00
1276.666, 24514.00
1277.738, 24577.00
1278.810, 24728.00
1279.882, 24743.93
1280.953, 24735.00
1282.025, 24839.00
1283.096, 24834.00
1284.167, 24912.00
1285.238, 25051.00
1286.308, 24933.00
1287.379, 24969.00
1288.449, 25054.00
1289.519, 25418.00
1290.589, 25394.00
1291.659, 25626.00
1292.729, 25773.00
1293.798, 25804.00
1294.868, 25842.00
1295.937, 25936.00
1297.006, 26170.00
1298.075, 26185.00
1299.143, 26351.00
1300.212, 26268.00
1301.280, 26320.00
1302.348, 26384.00
1303.416, 26423.00
1304.484, 26526.16
1305.552, 26609.00
1306.620, 26716.00
1307.687, 26771.00
1308.754, 26827.79
1309.821, 26926.66
1310.888, 26972.00
1311.955, 27097.00
1313.021, 27160.00
1314.088, 27232.00
1315.154, 27265.00
1316.220, 27367.00
1317.286, 27680.00
1318.352, 27799.00
1319.417, 27920.00
1320.483, 27930.00
1321.548, 28232.00
1322.613, 28013.00
1323.678, 28200.00
1324.743, 28048.00
1325.807, 28145.66
1326.872, 28424.00
1327.936, 28360.00
1329.000, 28599.00
1330.064, 28765.00
1331.128, 28864.00
1332.191, 28960.00
1333.255, 28841.00
1334.318, 29101.00
1335.381, 28968.00
1336.444, 29208.00
1337.507, 29476.00
1338.569, 29559.00
1339.632, 29731.00
1340.694, 29551.00
1341.756, 29752.00
1342.818, 29815.00
1343.880, 30048.00
1344.941, 30034.00
1346.003, 30168.82
1347.064, 30395.00
1348.125, 30286.00
1349.186, 30447.00
1350.247, 30387.22
1351.308, 30508.00
1352.368, 30515.00
1353.428, 30897.00
1354.489, 31137.00
1355.549, 31190.00
1356.608, 31434.35
1357.668, 31414.00
1358.727, 31609.00
1359.787, 31589.00
1360.846, 31488.00
1361.905, 31686.00
1362.964, 31999.00
1364.022, 31732.00
1365.081, 31929.00
1366.139, 32219.00
1367.197, 32077.00
1368.255, 32415.00
1369.313, 32386.00
1370.371, 32678.00
1371.428, 32580.00
1372.486, 32995.00
1373.543, 32731.00
1374.600, 32971.00
1375.657, 33028.00
1376.713, 33197.00
1377.770, 33173.00
1378.826, 33355.00
1379.882, 33512.00
1380.938, 33392.00
1381.994, 33708.00
1383.050, 33918.00
1384.106, 34200.00
1385.161, 34333.63
1386.216, 34395.00
1387.271, 34466.00
1388.326, 34559.00
1389.381, 34413.00
1390.435, 34483.00
1391.490, 34696.00
1392.544, 34923.00
1393.598, 34738.00
1394.652, 35162.00
1395.705, 34985.00
1396.759, 35146.00
1397.812, 35587.00
1398.866, 35591.00
1399.919, 35846.00
1400.972, 35816.00
1402.024, 35889.00
1403.077, 36140.00
1404.129, 36246.00
1405.181, 36338.00
1406.233, 36323.00
1407.285, 36788.00
1408.337, 36657.00
1409.389, 36730.00
1410.440, 37049.00
1411.491, 37058.00
1412.542, 37269.00
1413.593, 37378.00
1414.644, 37465.00
1415.695, 37583.00
1416.745, 37646.00
1417.795, 37752.26
1418.845, 37895.00
1419.895, 37944.00
1420.945, 38115.00
1421.995, 38222.00
1423.044, 38381.00
1424.093, 38855.00
1425.142, 38722.00
1426.191, 39041.00
1427.240, 39043.00
1428.289, 39169.00
1429.337, 39382.00
1430.385, 39438.00
1431.433, 39327.00
1432.481, 39742.00
1433.529, 39944.00
1434.577, 39821.00
1435.624, 40086.00
1436.672, 40029.00
1437.719, 40452.00
1438.766, 40583.00
1439.812, 40610.00
1440.859, 41072.00
1441.905, 40958.00
1442.952, 40957.00
1443.998, 41417.00
1445.044, 41440.00
1446.090, 41284.00
1447.135, 41744.00
1448.181, 41691.00
1449.226, 41907.00
1450.271, 42153.00
1451.316, 42054.00
1452.361, 42413.00
1453.405, 42606.00
1454.450, 42686.00
1455.494, 43016.00
1456.538, 42977.00
1457.582, 43209.35
1458.626, 43117.00
1459.670, 43522.00
1460.713, 43612.00
1461.757, 43717.00
1462.800, 43845.00
1463.843, 44371.00
1464.886, 44027.00
1465.928, 44745.00
1466.971, 44797.00
1468.013, 45680.00
1469.055, 44722.00
1470.097, 44895.00
1471.139, 45167.00
1472.181, 45502.00
1473.222, 45603.00
1474.263, 45346.00
1475.305, 45460.00
1476.346, 45865.00
1477.386, 45977.00
1478.427, 46420.00
1479.468, 46343.00
1480.508, 46273.00
1481.548, 46883.00
1482.588, 46731.00
1483.628, 46846.00
1484.668, 47135.00
1485.707, 47355.00
1486.747, 47326.00
1487.786, 47540.00
1488.825, 47730.00
1489.864, 48057.00
1490.902, 48085.00
1491.941, 48297.00
1492.979, 48538.00
1494.017, 48966.00
1495.055, 48787.00
1496.093, 48788.00
1497.131, 49301.00
1498.168, 49407.00
1499.206, 49385.00
1500.243, 49559.00
1501.280, 49689.41
1502.317, 49923.31
1503.354, 50133.00
1504.390, 50460.00
1505.426, 50689.54
1506.463, 51058.00
1507.499, 51176.00
1508.535, 51377.00
1509.570, 51511.00
1510.606, 51516.00
1511.641, 51725.00
1512.676, 51894.00
1513.711, 52141.95
1514.746, 52357.45
1515.781, 52725.00
1516.816, 52852.00
1517.850, 53066.00
1518.884, 53354.00
1519.918, 53490.00
1520.952, 53606.00
1521.986, 53760.00
##END=



