##NAMES=Cuprite
##RRUFFID=R050384
##IDEAL CHEMISTRY=Cu^1+^_2_O
##LOCALITY=Lavender Pit, Bisbee, Warren District, Cochise County, Arizona, USA
##OWNER=RRUFF
##SOURCE=University of Arizona Mineral Museum
##DESCRIPTION=Deep red to nearly black cubes
##STATUS=The identification of this mineral has been confirmed by X-ray diffraction and chemical analysis
##URL=rruff.info/R050384
##MEASURED CHEMISTRY=Cu_2.00_O
##PIN_ID=M00339
##ORIENTATION=Laser parallel to b* (0 1 0). Fiducial mark perpendicular to laser is parallel to c [0 0 1]
53.91000, 4605.000
55.14900, 4343.000
56.38700, 4329.000
57.62600, 4242.000
58.86400, 4357.000
60.10300, 4386.000
61.34100, 4339.000
62.57900, 4172.000
63.81700, 3984.000
65.05400, 3794.000
66.29200, 3856.000
67.52900, 3900.000
68.76700, 4237.000
70.00400, 4415.000
71.24100, 4316.000
72.47700, 4125.000
73.71400, 4217.000
74.95100, 4411.000
76.18700, 4552.000
77.42300, 4617.000
78.65900, 4672.000
79.89500, 4708.000
81.13100, 5008.000
82.36700, 5276.000
83.60200, 5445.000
84.83700, 5460.000
86.07200, 5446.000
87.30800, 5603.000
88.54200, 5662.000
89.77700, 5993.000
91.01200, 6368.000
92.24600, 6592.000
93.48000, 6628.000
94.71400, 6834.000
95.94800, 6892.000
97.18200, 7008.000
98.41600, 7259.000
99.64900, 7639.000
100.8830, 7819.000
102.1160, 7920.000
103.3490, 8362.000
104.5820, 9071.000
105.8150, 9694.000
107.0470, 10844.00
108.2800, 10430.31
109.5120, 11260.00
110.7440, 9802.000
111.9760, 9333.000
113.2080, 9287.000
114.4400, 9601.000
115.6710, 9509.000
116.9030, 9316.000
118.1340, 8760.000
119.3650, 8743.000
120.5960, 8570.000
121.8270, 8677.000
123.0580, 8786.000
124.2880, 8774.000
125.5190, 8584.000
126.7490, 8704.000
127.9790, 9036.000
129.2090, 9241.000
130.4390, 9622.000
131.6680, 9777.965
132.8980, 10248.00
134.1270, 10106.00
135.3560, 10297.00
136.5850, 10426.00
137.8140, 10846.00
139.0430, 11189.00
140.2710, 11294.00
141.5000, 11365.00
142.7280, 11487.00
143.9560, 11209.00
145.1840, 11166.00
146.4120, 11222.00
147.6390, 10841.00
148.8670, 10782.00
150.0940, 10628.00
151.3210, 10418.00
152.5490, 10083.00
153.7750, 10038.00
155.0020, 9965.000
156.2290, 9936.000
157.4550, 9993.000
158.6810, 9717.000
159.9080, 9704.000
161.1340, 9482.000
162.3590, 9380.000
163.5850, 9350.000
164.8110, 9343.000
166.0360, 9002.000
167.2610, 9040.000
168.4860, 9038.000
169.7110, 9232.000
170.9360, 9251.000
172.1610, 9440.000
173.3850, 9615.000
174.6100, 9798.000
175.8340, 10061.00
177.0580, 10098.00
178.2820, 10262.00
179.5050, 10536.00
180.7290, 10646.00
181.9520, 11115.00
183.1760, 11458.00
184.3990, 11887.00
185.6220, 12349.00
186.8450, 12776.00
188.0670, 13061.00
189.2900, 13040.00
190.5120, 13020.00
191.7340, 12967.00
192.9560, 12940.00
194.1780, 13252.00
195.4000, 13789.00
196.6220, 14387.00
197.8430, 14928.00
199.0640, 14884.00
200.2860, 14960.00
201.5070, 14857.00
202.7270, 14981.00
203.9480, 14835.00
205.1690, 14965.00
206.3890, 15398.00
207.6090, 16356.00
208.8290, 17591.00
210.0490, 18716.00
211.2690, 19756.00
212.4890, 21019.00
213.7080, 22100.00
214.9280, 23244.00
216.1470, 23611.00
217.3660, 23683.00
218.5850, 22900.00
219.8030, 21077.00
221.0220, 18799.00
222.2400, 16368.00
223.4590, 14645.00
224.6770, 13254.00
225.8950, 12269.00
227.1120, 11553.00
228.3300, 11027.00
229.5480, 10540.00
230.7650, 10097.00
231.9820, 9725.000
233.1990, 9372.000
234.4160, 9087.000
235.6330, 8869.000
236.8490, 8559.000
238.0660, 8279.000
239.2820, 8055.000
240.4980, 7791.000
241.7140, 7528.000
242.9300, 7399.000
244.1460, 7196.000
245.3610, 7220.000
246.5770, 6940.000
247.7920, 6712.000
249.0070, 6846.000
250.2220, 6734.000
251.4370, 6604.000
252.6510, 6514.000
253.8660, 6417.000
255.0800, 6378.000
256.2940, 6417.000
257.5080, 6759.000
258.7220, 6561.707
259.9360, 7033.000
261.1490, 6425.000
262.3630, 6201.000
263.5760, 6210.000
264.7890, 6062.000
266.0020, 6173.000
267.2150, 6066.000
268.4270, 6093.000
269.6400, 6041.000
270.8520, 6004.000
272.0640, 6067.000
273.2760, 5985.000
274.4880, 6113.000
275.7000, 6167.000
276.9120, 6143.000
278.1230, 6218.000
279.3340, 6069.000
280.5450, 6163.000
281.7560, 6117.000
282.9670, 6227.000
284.1780, 5992.000
285.3880, 6148.000
286.5980, 6146.000
287.8090, 6254.000
289.0190, 6231.000
290.2290, 6235.000
291.4380, 6291.000
292.6480, 6287.000
293.8570, 6340.000
295.0670, 6418.000
296.2760, 6403.743
297.4850, 6345.000
298.6930, 6408.000
299.9020, 6369.000
301.1110, 6353.000
302.3190, 6322.000
303.5270, 6330.000
304.7350, 6336.000
305.9430, 6299.000
307.1510, 6329.000
308.3580, 6375.000
309.5660, 6349.000
310.7730, 6353.000
311.9800, 6319.000
313.1870, 6336.000
314.3940, 6363.000
315.6010, 6340.000
316.8070, 6288.000
318.0130, 6311.000
319.2200, 6251.000
320.4260, 6293.000
321.6310, 6275.081
322.8370, 6257.952
324.0430, 6236.000
325.2480, 6239.000
326.4540, 6147.000
327.6590, 6145.000
328.8640, 6095.000
330.0680, 6116.000
331.2730, 6079.181
332.4780, 6100.000
333.6820, 6056.000
334.8860, 6075.000
336.0900, 6124.000
337.2940, 6077.000
338.4980, 6059.000
339.7010, 5975.000
340.9050, 6016.000
342.1080, 6085.000
343.3110, 6100.000
344.5140, 6062.000
345.7170, 6090.000
346.9200, 6097.000
348.1220, 6124.000
349.3240, 6115.000
350.5270, 6181.000
351.7290, 6186.000
352.9310, 6135.000
354.1320, 6174.000
355.3340, 6053.000
356.5350, 6118.000
357.7370, 6127.000
358.9380, 6272.000
360.1390, 6181.000
361.3400, 6218.000
362.5400, 6378.000
363.7410, 6367.000
364.9410, 6388.000
366.1410, 6276.000
367.3410, 6360.000
368.5410, 6352.326
369.7410, 6533.000
370.9400, 6425.000
372.1400, 6512.000
373.3390, 6564.000
374.5380, 6661.000
375.7370, 6515.000
376.9360, 6721.000
378.1350, 6665.000
379.3330, 6706.000
380.5310, 6892.000
381.7300, 6782.000
382.9280, 6830.000
384.1260, 6975.000
385.3230, 7051.000
386.5210, 7135.000
387.7180, 7221.000
388.9160, 7292.000
390.1130, 7334.000
391.3100, 7364.000
392.5060, 7506.000
393.7030, 7563.000
394.9000, 7727.000
396.0960, 7740.000
397.2920, 7834.000
398.4880, 7871.000
399.6840, 7965.745
400.8800, 8128.000
402.0750, 8178.000
403.2710, 8348.000
404.4660, 8483.000
405.6610, 8494.564
406.8560, 8694.000
408.0510, 8499.000
409.2450, 8598.000
410.4400, 8537.000
411.6340, 8627.000
412.8280, 8587.000
414.0220, 8510.000
415.2160, 8449.000
416.4100, 8461.000
417.6030, 8380.000
418.7970, 8298.000
419.9900, 8272.000
421.1830, 8157.000
422.3760, 8163.000
423.5690, 8038.000
424.7610, 8032.000
425.9540, 7991.000
427.1460, 8009.000
428.3380, 7835.000
429.5300, 7819.000
430.7220, 7712.000
431.9140, 7662.000
433.1050, 7633.000
434.2970, 7575.000
435.4880, 7519.000
436.6790, 7529.000
437.8700, 7558.000
439.0610, 7427.000
440.2510, 7376.000
441.4420, 7430.000
442.6320, 7344.000
443.8220, 7336.000
445.0120, 7353.000
446.2020, 7303.000
447.3910, 7353.000
448.5810, 7390.000
449.7700, 7343.000
450.9600, 7371.000
452.1490, 7377.000
453.3370, 7334.000
454.5260, 7297.000
455.7150, 7320.000
456.9030, 7297.000
458.0910, 7262.000
459.2800, 7299.170
460.4670, 7280.587
461.6550, 7384.000
462.8430, 7315.000
464.0300, 7424.000
465.2180, 7497.000
466.4050, 7501.000
467.5920, 7602.000
468.7790, 7580.000
469.9650, 7638.000
471.1520, 7580.000
472.3380, 7646.000
473.5250, 7663.000
474.7110, 7760.000
475.8970, 7759.000
477.0820, 7777.000
478.2680, 7695.000
479.4540, 7732.000
480.6390, 7955.000
481.8240, 7815.000
483.0090, 7869.000
484.1940, 7862.000
485.3780, 7792.000
486.5630, 7870.000
487.7470, 7769.000
488.9320, 7815.000
490.1160, 7671.000
491.3000, 7702.000
492.4830, 7708.000
493.6670, 7675.140
494.8500, 7754.000
496.0340, 7696.000
497.2170, 7737.000
498.4000, 7760.000
499.5820, 7752.000
500.7650, 7752.000
501.9480, 7753.000
503.1300, 7781.000
504.3120, 7763.000
505.4940, 7805.000
506.6760, 7788.000
507.8580, 7595.000
509.0390, 7660.000
510.2210, 7728.000
511.4020, 7553.000
512.5830, 7748.000
513.7640, 7813.000
514.9450, 7729.000
516.1250, 7673.000
517.3060, 7695.000
518.4860, 7691.000
519.6660, 7772.000
520.8460, 7683.000
522.0260, 7738.000
523.2060, 7611.000
524.3850, 7689.000
525.5650, 7806.000
526.7440, 7739.000
527.9230, 7874.000
529.1020, 7679.000
530.2810, 7609.000
531.4590, 7618.000
532.6380, 7654.000
533.8160, 7727.000
534.9940, 7788.000
536.1720, 7818.000
537.3500, 7781.000
538.5270, 7814.863
539.7050, 7839.000
540.8820, 7821.000
542.0590, 7826.000
543.2360, 7846.000
544.4130, 7845.000
545.5900, 7858.944
546.7660, 7847.178
547.9430, 7882.000
549.1190, 7865.000
550.2950, 7879.000
551.4710, 7991.000
552.6470, 7890.000
553.8220, 7895.000
554.9980, 7999.000
556.1730, 8042.000
557.3480, 8075.582
558.5230, 8074.000
559.6980, 8135.000
560.8730, 8139.000
562.0470, 8143.000
563.2220, 8123.000
564.3960, 8140.173
565.5700, 8140.000
566.7440, 8162.000
567.9170, 8184.000
569.0910, 8200.000
570.2640, 8212.479
571.4380, 8234.000
572.6110, 8262.000
573.7840, 8188.000
574.9570, 8273.000
576.1290, 8237.000
577.3020, 8260.000
578.4740, 8292.000
579.6460, 8317.000
580.8180, 8305.000
581.9900, 8244.000
583.1620, 8348.000
584.3330, 8213.000
585.5040, 8211.000
586.6760, 8319.000
587.8470, 8287.000
589.0180, 8372.000
590.1880, 8414.000
591.3590, 8418.873
592.5290, 8502.000
593.7000, 8436.000
594.8700, 8526.000
596.0400, 8501.000
597.2090, 8471.000
598.3790, 8581.000
599.5490, 8721.000
600.7180, 8797.000
601.8870, 8851.000
603.0560, 8949.009
604.2250, 8924.000
605.3940, 9079.000
606.5620, 9199.000
607.7300, 9241.000
608.8990, 9405.000
610.0670, 9481.000
611.2350, 9729.000
612.4020, 9876.000
613.5700, 9978.000
614.7370, 10005.00
615.9050, 10224.00
617.0720, 10410.00
618.2390, 10641.00
619.4060, 10739.00
620.5720, 10859.00
621.7390, 10904.00
622.9050, 11027.00
624.0710, 11033.50
625.2370, 11069.00
626.4030, 11018.00
627.5690, 11029.00
628.7340, 10965.00
629.9000, 10713.00
631.0650, 10893.00
632.2300, 10707.00
633.3950, 10680.00
634.5600, 10692.00
635.7240, 10646.00
636.8890, 10612.15
638.0530, 10590.00
639.2170, 10529.00
640.3810, 10559.00
641.5450, 10552.00
642.7080, 10491.63
643.8720, 10299.00
645.0350, 10378.00
646.1980, 10179.00
647.3610, 10103.00
648.5240, 9964.000
649.6870, 10040.00
650.8490, 9670.000
652.0120, 9787.000
653.1740, 9632.000
654.3360, 9526.000
655.4980, 9437.000
656.6600, 9395.000
657.8210, 9223.000
658.9830, 9272.000
660.1440, 9283.000
661.3050, 9110.000
662.4660, 9097.000
663.6270, 9081.543
664.7870, 8971.000
665.9480, 9056.000
667.1080, 9006.000
668.2680, 8924.000
669.4280, 8892.000
670.5880, 8906.000
671.7480, 8903.000
672.9070, 8929.265
674.0670, 9090.000
675.2260, 8919.000
676.3850, 8932.000
677.5440, 8745.000
678.7030, 8906.000
679.8610, 8855.000
681.0200, 8877.000
682.1780, 8887.000
683.3360, 8796.000
684.4940, 8905.000
685.6520, 8846.000
686.8090, 8802.000
687.9670, 8841.000
689.1240, 8773.000
690.2810, 8800.071
691.4380, 8921.000
692.5950, 8842.000
693.7520, 8816.000
694.9080, 8865.000
696.0650, 8700.000
697.2210, 8861.000
698.3770, 8854.000
699.5330, 8808.000
700.6880, 8747.000
701.8440, 8758.000
702.9990, 8696.000
704.1550, 8729.000
705.3100, 8682.000
706.4650, 8799.000
707.6190, 8772.000
708.7740, 8798.000
709.9290, 8776.000
711.0830, 8762.453
712.2370, 8734.000
713.3910, 8716.000
714.5450, 8826.000
715.6980, 8794.000
716.8520, 8657.000
718.0050, 8844.000
719.1580, 8771.000
720.3110, 8853.000
721.4640, 8788.000
722.6170, 8873.000
723.7700, 8808.000
724.9220, 8808.000
726.0740, 8819.000
727.2260, 8827.000
728.3780, 8805.000
729.5300, 8831.000
730.6810, 8833.000
731.8330, 8875.000
732.9840, 8861.000
734.1350, 8835.000
735.2860, 8745.000
736.4370, 8888.000
737.5880, 8709.000
738.7380, 8779.000
739.8880, 8890.000
741.0390, 8830.000
742.1890, 8999.000
743.3380, 8852.000
744.4880, 8876.000
745.6380, 8668.000
746.7870, 8758.000
747.9360, 8826.000
749.0850, 8758.000
750.2340, 8815.000
751.3830, 8774.000
752.5310, 8850.000
753.6800, 8883.000
754.8280, 8853.000
755.9760, 8854.000
757.1240, 8788.000
758.2720, 8776.341
759.4190, 8895.000
760.5670, 8753.000
761.7140, 8855.000
762.8610, 8923.000
764.0080, 8872.000
765.1550, 8831.000
766.3020, 8851.000
767.4480, 8947.000
768.5950, 8908.000
769.7410, 9011.000
770.8870, 8898.000
772.0330, 8824.000
773.1780, 9084.000
774.3240, 9107.000
775.4690, 9069.000
776.6140, 9199.000
777.7590, 9197.000
778.9040, 9066.000
780.0490, 9076.000
781.1940, 9158.000
782.3380, 9111.000
783.4820, 9216.000
784.6260, 9193.000
785.7700, 9142.000
786.9140, 9325.000
788.0580, 9248.000
789.2010, 9357.000
790.3450, 9317.000
791.4880, 9306.097
792.6310, 9324.000
793.7730, 9295.000
794.9160, 9288.000
796.0590, 9342.000
797.2010, 9319.682
798.3430, 9340.000
799.4850, 9335.000
800.6270, 9314.000
801.7690, 9328.000
802.9100, 9307.000
804.0520, 9264.000
805.1930, 9351.000
806.3340, 9433.000
807.4750, 9536.000
808.6160, 9489.000
809.7560, 9299.000
810.8970, 9331.000
812.0370, 9362.000
813.1770, 9447.000
814.3170, 9435.936
815.4570, 9445.000
816.5960, 9442.000
817.7360, 9433.000
818.8750, 9434.000
820.0140, 9453.000
821.1530, 9408.000
822.2920, 9411.170
823.4310, 9558.000
824.5690, 9423.000
825.7070, 9478.000
826.8460, 9586.000
827.9840, 9523.000
829.1220, 9493.000
830.2590, 9660.000
831.3970, 9607.000
832.5340, 9627.000
833.6710, 9540.000
834.8080, 9568.000
835.9450, 9668.000
837.0820, 9648.000
838.2190, 9574.000
839.3550, 9555.000
840.4910, 9560.000
841.6270, 9598.000
842.7630, 9654.000
843.8990, 9662.000
845.0350, 9742.000
846.1700, 9636.000
847.3060, 9666.000
848.4410, 9773.000
849.5760, 9673.000
850.7100, 9708.000
851.8450, 9764.000
852.9800, 9831.000
854.1140, 9739.000
855.2480, 9635.000
856.3820, 9855.000
857.5160, 9783.000
858.6500, 9920.000
859.7830, 9844.000
860.9170, 9841.000
862.0500, 9887.511
863.1830, 9820.000
864.3160, 9895.000
865.4480, 9954.000
866.5810, 9900.000
867.7130, 9858.000
868.8460, 9909.000
869.9780, 9986.000
871.1100, 9956.000
872.2410, 10003.61
873.3730, 10101.00
874.5050, 10041.00
875.6360, 9980.000
876.7670, 10017.00
877.8980, 10116.00
879.0290, 10097.00
880.1590, 10163.24
881.2900, 10188.00
882.4200, 10251.00
883.5500, 10227.00
884.6800, 10286.00
885.8100, 10307.00
886.9400, 10245.00
888.0690, 10320.00
889.1990, 10276.00
890.3280, 10381.00
891.4570, 10333.77
892.5860, 10365.00
893.7140, 10276.00
894.8430, 10384.00
895.9710, 10381.00
897.1000, 10516.00
898.2280, 10531.00
899.3560, 10394.00
900.4830, 10608.00
901.6110, 10503.00
902.7380, 10613.00
903.8660, 10581.00
904.9930, 10618.00
906.1200, 10707.00
907.2460, 10624.00
908.3730, 10720.23
909.5000, 10735.00
910.6260, 10789.00
911.7520, 10722.00
912.8780, 10676.00
914.0040, 10768.00
915.1290, 10808.00
916.2550, 10766.00
917.3800, 10828.00
918.5050, 10837.00
919.6300, 10909.00
920.7550, 10927.64
921.8800, 10916.00
923.0040, 10985.00
924.1290, 10948.00
925.2530, 10985.00
926.3770, 11050.00
927.5010, 10935.00
928.6250, 10999.00
929.7480, 10938.00
930.8720, 11179.00
931.9950, 11253.00
933.1180, 11265.00
934.2410, 11220.00
935.3640, 11271.00
936.4860, 11228.00
937.6090, 11367.00
938.7310, 11481.00
939.8530, 11371.00
940.9750, 11328.00
942.0970, 11419.00
943.2180, 11464.00
944.3400, 11469.00
945.4610, 11315.00
946.5820, 11556.00
947.7030, 11516.00
948.8240, 11802.00
949.9450, 11563.00
951.0650, 11827.00
952.1860, 11589.00
953.3060, 11743.00
954.4260, 11733.66
955.5460, 11689.00
956.6650, 11778.00
957.7850, 11757.00
958.9040, 11884.00
960.0230, 11759.00
961.1420, 11974.00
962.2610, 11847.00
963.3800, 11921.00
964.4990, 11922.00
965.6170, 12017.00
966.7350, 11974.00
967.8530, 12139.00
968.9710, 12107.00
970.0890, 12125.00
971.2070, 12085.00
972.3240, 12137.00
973.4410, 12133.00
974.5580, 12284.00
975.6750, 12179.00
976.7920, 12430.00
977.9090, 12281.00
979.0250, 12458.00
980.1410, 12377.00
981.2580, 12562.00
982.3740, 12472.00
983.4890, 12486.00
984.6050, 12600.00
985.7200, 12661.00
986.8360, 12555.00
987.9510, 12759.00
989.0660, 12661.00
990.1810, 12808.00
991.2950, 12825.00
992.4100, 12728.00
993.5240, 12903.00
994.6390, 12814.00
995.7530, 12862.00
996.8660, 12892.00
997.9800, 13034.00
999.0940, 13125.00
1000.207, 13106.00
1001.320, 13114.00
1002.433, 13136.00
1003.546, 13221.00
1004.659, 13274.00
1005.772, 13322.00
1006.884, 13197.00
1007.996, 13333.00
1009.108, 13384.00
1010.220, 13446.00
1011.332, 13615.00
1012.444, 13586.00
1013.555, 13721.00
1014.666, 13671.00
1015.777, 13690.00
1016.888, 13770.00
1017.999, 13760.00
1019.110, 13784.00
1020.220, 13753.00
1021.331, 13858.00
1022.441, 13849.00
1023.551, 13962.00
1024.661, 13988.00
1025.770, 14053.00
1026.880, 14073.00
1027.989, 14120.00
1029.098, 14210.00
1030.207, 14136.00
1031.316, 14195.00
1032.425, 14248.98
1033.533, 14502.00
1034.642, 14400.00
1035.750, 14481.00
1036.858, 14604.00
1037.966, 14496.00
1039.073, 14450.00
1040.181, 14385.00
1041.288, 14409.01
1042.396, 14747.00
1043.503, 14591.00
1044.610, 14821.00
1045.716, 15118.00
1046.823, 14828.00
1047.929, 14912.00
1049.036, 14940.00
1050.142, 14954.00
1051.248, 14896.00
1052.353, 14896.00
1053.459, 14982.84
1054.564, 15087.00
1055.670, 15203.00
1056.775, 15200.00
1057.880, 15333.00
1058.985, 15248.00
1060.089, 15365.00
1061.194, 15291.00
1062.298, 15274.00
1063.402, 15404.00
1064.506, 15389.00
1065.610, 15502.00
1066.713, 15425.00
1067.817, 15648.00
1068.920, 15639.00
1070.023, 15559.00
1071.126, 15638.00
1072.229, 15711.00
1073.332, 15799.00
1074.435, 15858.66
1075.537, 15780.00
1076.639, 15925.00
1077.741, 15883.00
1078.843, 15786.00
1079.945, 15831.00
1081.046, 15720.00
1082.148, 15719.00
1083.249, 15962.00
1084.350, 16061.00
1085.451, 16080.00
1086.551, 16017.00
1087.652, 16156.00
1088.752, 16161.00
1089.853, 16040.00
1090.953, 16248.00
1092.053, 16147.00
1093.152, 16286.00
1094.252, 16395.00
1095.351, 16331.00
1096.451, 16304.00
1097.550, 16530.00
1098.649, 16490.00
1099.748, 16420.00
1100.846, 16526.00
1101.945, 16689.00
1103.043, 16523.00
1104.141, 16804.00
1105.239, 16667.00
1106.337, 16687.00
1107.434, 16664.00
1108.532, 16715.00
1109.629, 16710.00
1110.726, 16877.00
1111.823, 16788.00
1112.920, 16972.00
1114.017, 16989.00
1115.113, 17146.00
1116.210, 17122.00
1117.306, 17251.00
1118.402, 17294.00
1119.498, 17363.00
1120.593, 17513.00
1121.689, 17519.00
1122.784, 17424.00
1123.879, 17647.00
1124.974, 17718.00
1126.069, 17603.00
1127.164, 17571.00
1128.259, 17592.00
1129.353, 17626.00
1130.447, 17828.00
1131.541, 17543.00
1132.635, 17581.00
1133.729, 17787.00
1134.822, 17886.00
1135.916, 17847.00
1137.009, 18044.00
1138.102, 17823.00
1139.195, 17991.00
1140.288, 18142.00
1141.380, 17955.00
1142.473, 18265.00
1143.565, 18085.00
1144.657, 18195.00
1145.749, 18124.00
1146.841, 18236.00
1147.932, 18245.00
1149.024, 18329.00
1150.115, 18371.00
1151.206, 18518.00
1152.297, 18494.00
1153.388, 18544.00
1154.479, 18482.00
1155.569, 18540.00
1156.659, 18607.00
1157.750, 18641.00
1158.839, 18734.00
1159.929, 18650.00
1161.019, 18906.00
1162.108, 18817.00
1163.198, 19003.00
1164.287, 18895.00
1165.376, 19045.00
1166.465, 19075.00
1167.553, 19223.00
1168.642, 19377.00
1169.730, 19364.00
1170.818, 19374.00
1171.906, 19482.00
1172.994, 19428.00
1174.082, 19496.00
1175.170, 19454.00
1176.257, 19460.00
1177.344, 19601.00
1178.431, 19521.00
1179.518, 19604.00
1180.605, 19798.00
1181.691, 19859.00
1182.778, 19811.00
1183.864, 19787.00
1184.950, 19994.00
1186.036, 20166.00
1187.122, 20093.00
1188.207, 20322.00
1189.292, 20105.00
1190.378, 20198.00
1191.463, 20237.00
1192.548, 20436.00
1193.632, 20317.00
1194.717, 20457.00
1195.801, 20366.00
1196.886, 20609.00
1197.970, 20716.00
1199.054, 20638.00
1200.137, 20949.00
1201.221, 20809.00
1202.305, 20946.00
1203.388, 20858.00
1204.471, 21002.00
1205.554, 21029.00
1206.637, 20871.00
1207.719, 21034.00
1208.802, 21213.00
1209.884, 21325.00
1210.966, 21489.00
1212.048, 21407.00
1213.130, 21423.00
1214.212, 21454.00
1215.293, 21624.00
1216.374, 21609.00
1217.456, 21600.00
1218.536, 21682.00
1219.617, 21685.00
1220.698, 21752.00
1221.778, 21806.00
1222.859, 21840.00
1223.939, 22193.00
1225.019, 22170.00
1226.099, 22204.00
1227.178, 22090.00
1228.258, 22272.00
1229.337, 22436.00
1230.417, 22284.00
1231.496, 22545.00
1232.574, 22556.00
1233.653, 22656.00
1234.732, 22829.00
1235.810, 22722.00
1236.888, 22893.00
1237.966, 22811.00
1239.044, 22739.00
1240.122, 22931.00
1241.199, 23058.00
1242.277, 23025.00
1243.354, 23184.00
1244.431, 23122.00
1245.508, 23439.00
1246.585, 23400.00
1247.661, 23441.00
1248.738, 23439.00
1249.814, 23510.00
1250.890, 23707.00
1251.966, 23684.00
1253.042, 23829.00
1254.117, 23834.00
1255.193, 24031.00
1256.268, 23993.00
1257.343, 24148.00
1258.418, 24208.00
1259.493, 24165.00
1260.567, 24262.00
1261.642, 24378.00
1262.716, 24398.00
1263.790, 24604.00
1264.864, 24433.00
1265.938, 24844.00
1267.011, 24832.00
1268.085, 24913.00
1269.158, 24836.00
1270.231, 24909.00
1271.304, 25251.00
1272.377, 25081.00
1273.450, 25053.00
1274.522, 25263.00
1275.594, 25138.00
1276.666, 25418.00
1277.738, 25531.00
1278.810, 25438.00
1279.882, 25663.00
1280.953, 25609.00
1282.025, 25708.00
1283.096, 25616.00
1284.167, 25872.00
1285.238, 25636.00
1286.308, 25812.00
1287.379, 26055.00
1288.449, 25764.00
1289.519, 26207.00
1290.589, 26114.00
1291.659, 26350.00
1292.729, 26435.00
1293.798, 26423.00
1294.868, 26771.00
1295.937, 26572.00
1297.006, 26666.00
1298.075, 27034.00
1299.143, 26678.00
1300.212, 27040.00
1301.280, 26977.00
1302.348, 27330.00
1303.416, 27140.00
1304.484, 27377.00
1305.552, 27564.00
1306.620, 27531.00
1307.687, 27564.00
1308.754, 27552.00
1309.821, 27791.00
1310.888, 27788.00
1311.955, 27962.00
1313.021, 27988.00
1314.088, 27993.00
1315.154, 27865.00
1316.220, 28138.00
1317.286, 28111.00
1318.352, 28465.00
1319.417, 28560.00
1320.483, 28503.00
1321.548, 28476.00
1322.613, 28702.00
1323.678, 28787.00
1324.743, 28886.00
1325.807, 28900.00
1326.872, 28894.00
1327.936, 29001.62
1329.000, 29189.00
1330.064, 29170.00
1331.128, 29383.00
1332.191, 29480.00
1333.255, 29663.00
1334.318, 29936.00
1335.381, 29810.00
1336.444, 29723.00
1337.507, 30011.00
1338.569, 30073.00
1339.632, 30236.00
1340.694, 30340.00
1341.756, 30379.00
1342.818, 30401.00
1343.880, 30489.00
1344.941, 30599.00
1346.003, 30702.00
1347.064, 30765.00
1348.125, 30839.00
1349.186, 30874.00
1350.247, 30748.00
1351.308, 31182.00
1352.368, 31395.00
1353.428, 31377.00
1354.489, 31398.00
1355.549, 31596.00
1356.608, 31830.00
1357.668, 31945.00
1358.727, 31917.00
1359.787, 32111.00
1360.846, 32057.00
1361.905, 32195.00
1362.964, 32402.00
1364.022, 32277.00
1365.081, 32393.00
1366.139, 32718.00
1367.197, 32654.00
1368.255, 32903.00
1369.313, 32754.00
1370.371, 32876.00
1371.428, 33172.00
1372.486, 33070.00
1373.543, 33259.00
1374.600, 33161.00
1375.657, 33495.00
1376.713, 33470.00
1377.770, 33616.00
1378.826, 33639.00
1379.882, 33739.00
1380.938, 34063.00
1381.994, 33989.00
1383.050, 34061.00
1384.106, 34452.00
1385.161, 34186.00
1386.216, 34458.00
1387.271, 34618.00
1388.326, 34787.00
1389.381, 34768.00
1390.435, 34916.00
1391.490, 34985.00
1392.544, 35142.00
1393.598, 35270.00
1394.652, 35375.45
1395.705, 35483.63
1396.759, 35590.00
1397.812, 35657.00
1398.866, 35716.00
1399.919, 35796.00
1400.972, 35940.00
1402.024, 36208.00
1403.077, 36224.00
1404.129, 36188.00
1405.181, 36630.00
1406.233, 36616.00
1407.285, 36932.00
1408.337, 36649.00
1409.389, 37064.00
1410.440, 37047.00
1411.491, 37085.00
1412.542, 37380.00
1413.593, 37168.00
1414.644, 37394.00
1415.695, 37682.00
1416.745, 37946.00
1417.795, 37895.00
1418.845, 37754.00
1419.895, 38066.00
1420.945, 38371.00
1421.995, 38245.00
1423.044, 38452.00
1424.093, 38468.00
1425.142, 38737.00
1426.191, 38724.00
1427.240, 38935.00
1428.289, 39250.00
1429.337, 39151.00
1430.385, 39309.00
1431.433, 39459.00
1432.481, 39399.00
1433.529, 39713.00
1434.577, 39690.00
1435.624, 39837.00
1436.672, 40342.00
1437.719, 40214.00
1438.766, 40492.00
1439.812, 40678.00
1440.859, 40650.00
1441.905, 41098.00
1442.952, 40906.00
1443.998, 40869.00
1445.044, 41370.00
1446.090, 41529.00
1447.135, 41633.00
1448.181, 41719.00
1449.226, 41582.00
1450.271, 41777.73
1451.316, 41913.00
1452.361, 42083.00
1453.405, 42386.00
1454.450, 42689.00
1455.494, 42669.00
1456.538, 42713.00
1457.582, 43016.00
1458.626, 42809.00
1459.670, 43156.00
1460.713, 43668.00
1461.757, 43208.00
1462.800, 43525.00
1463.843, 43641.00
1464.886, 44090.00
1465.928, 44273.00
1466.971, 44286.00
1468.013, 44465.00
1469.055, 44396.00
1470.097, 44482.00
1471.139, 44651.00
1472.181, 44775.00
1473.222, 45156.00
1474.263, 45195.00
1475.305, 45281.00
1476.346, 45151.00
1477.386, 45707.00
1478.427, 46286.00
1479.468, 45966.00
1480.508, 46192.00
1481.548, 46420.00
1482.588, 46269.00
1483.628, 46659.00
1484.668, 46618.00
1485.707, 46820.00
1486.747, 46996.00
1487.786, 47090.27
1488.825, 47354.00
1489.864, 47479.00
1490.902, 47623.00
1491.941, 47998.00
1492.979, 48078.00
1494.017, 48224.00
1495.055, 48361.00
1496.093, 48290.00
1497.131, 48506.16
1498.168, 48834.00
1499.206, 48817.00
1500.243, 49037.00
1501.280, 49238.00
1502.317, 49446.00
1503.354, 49583.00
1504.390, 50019.00
1505.426, 50238.00
1506.463, 50243.00
1507.499, 50114.00
1508.535, 50491.00
1509.570, 50724.00
1510.606, 50898.00
1511.641, 51049.00
1512.676, 51146.00
1513.711, 51506.00
1514.746, 51604.97
1515.781, 51965.00
1516.816, 52006.00
1517.850, 52131.00
1518.884, 52421.00
1519.918, 52876.00
1520.952, 52753.00
1521.986, 53013.00
##END=



