##NAMES=Cuprite
##RRUFFID=R050384
##IDEAL CHEMISTRY=Cu^1+^_2_O
##LOCALITY=Lavender Pit, Bisbee, Warren District, Cochise County, Arizona, USA
##OWNER=RRUFF
##SOURCE=University of Arizona Mineral Museum
##DESCRIPTION=Deep red to nearly black cubes
##STATUS=The identification of this mineral has been confirmed by X-ray diffraction and chemical analysis
##URL=rruff.info/R050384
##MEASURED CHEMISTRY=Cu_2.00_O
##PIN_ID=M00339
##ORIENTATION=Laser parallel to b* (0 1 0). Fiducial mark perpendicular to laser is parallel to c [0 0 1]
53.91000, 1518.000
55.14900, 1498.000
56.38700, 1495.000
57.62600, 1496.000
58.86400, 1565.000
60.10300, 1583.000
61.34100, 1583.000
62.57900, 1643.000
63.81700, 1673.000
65.05400, 1728.000
66.29200, 1831.000
67.52900, 2034.000
68.76700, 2367.000
70.00400, 2494.147
71.24100, 2769.000
72.47700, 2877.000
73.71400, 3111.000
74.95100, 3273.000
76.18700, 3517.728
77.42300, 3743.000
78.65900, 4101.000
79.89500, 4458.000
81.13100, 4887.000
82.36700, 5337.000
83.60200, 5708.000
84.83700, 5802.000
86.07200, 6025.000
87.30800, 6227.000
88.54200, 6526.000
89.77700, 6782.000
91.01200, 7266.000
92.24600, 7527.000
93.48000, 7599.000
94.71400, 7751.000
95.94800, 7907.000
97.18200, 8119.945
98.41600, 8345.000
99.64900, 8592.000
100.8830, 8873.000
102.1160, 9057.000
103.3490, 9464.000
104.5820, 10422.00
105.8150, 11382.00
107.0470, 13102.00
108.2800, 14492.00
109.5120, 12748.00
110.7440, 10965.00
111.9760, 10495.00
113.2080, 10448.00
114.4400, 10517.00
115.6710, 10383.00
116.9030, 9917.000
118.1340, 9440.000
119.3650, 9017.000
120.5960, 8963.000
121.8270, 9119.000
123.0580, 9272.000
124.2880, 9171.000
125.5190, 9027.000
126.7490, 9331.000
127.9790, 9752.000
129.2090, 10084.00
130.4390, 10526.00
131.6680, 10722.00
132.8980, 11102.00
134.1270, 11298.00
135.3560, 11574.00
136.5850, 11942.00
137.8140, 12544.00
139.0430, 13006.00
140.2710, 13268.00
141.5000, 13360.00
142.7280, 13506.00
143.9560, 13390.00
145.1840, 13405.00
146.4120, 13245.00
147.6390, 13057.00
148.8670, 12589.00
150.0940, 12320.00
151.3210, 12079.00
152.5490, 11693.00
153.7750, 11406.00
155.0020, 11395.00
156.2290, 11303.00
157.4550, 11096.57
158.6810, 10962.00
159.9080, 10691.00
161.1340, 10307.00
162.3590, 9942.000
163.5850, 9833.000
164.8110, 9688.000
166.0360, 9355.000
167.2610, 9227.000
168.4860, 9342.000
169.7110, 9494.000
170.9360, 9723.000
172.1610, 9802.000
173.3850, 10177.00
174.6100, 10429.00
175.8340, 10862.00
177.0580, 11015.00
178.2820, 11394.00
179.5050, 11692.00
180.7290, 12088.00
181.9520, 12685.00
183.1760, 13173.00
184.3990, 13922.00
185.6220, 15086.00
186.8450, 15217.00
188.0670, 15251.00
189.2900, 15204.00
190.5120, 14908.00
191.7340, 14733.00
192.9560, 14757.00
194.1780, 15065.00
195.4000, 15919.00
196.6220, 16808.00
197.8430, 17340.00
199.0640, 17625.00
200.2860, 17606.00
201.5070, 17640.00
202.7270, 17774.00
203.9480, 17700.00
205.1690, 18230.00
206.3890, 19250.00
207.6090, 20954.00
208.8290, 22476.00
210.0490, 24319.00
211.2690, 26186.00
212.4890, 29859.00
213.7080, 29956.00
214.9280, 31556.00
216.1470, 32598.00
217.3660, 32690.00
218.5850, 31065.00
219.8030, 28024.00
221.0220, 24207.00
222.2400, 20290.00
223.4590, 17484.00
224.6770, 15642.00
225.8950, 13961.00
227.1120, 12833.00
228.3300, 11891.00
229.5480, 11444.00
230.7650, 10668.00
231.9820, 10170.00
233.1990, 9788.000
234.4160, 9401.000
235.6330, 8850.000
236.8490, 8386.000
238.0660, 8034.000
239.2820, 7576.000
240.4980, 7265.000
241.7140, 6965.000
242.9300, 6591.000
244.1460, 6393.000
245.3610, 6238.000
246.5770, 6007.000
247.7920, 5807.000
249.0070, 5712.000
250.2220, 5540.000
251.4370, 5420.000
252.6510, 5253.000
253.8660, 5050.628
255.0800, 5151.035
256.2940, 5186.408
257.5080, 5160.243
258.7220, 4888.221
259.9360, 4933.671
261.1490, 4851.934
262.3630, 4764.938
263.5760, 4855.112
264.7890, 4760.000
266.0020, 4774.000
267.2150, 4652.000
268.4270, 4618.000
269.6400, 4559.000
270.8520, 4639.000
272.0640, 4607.000
273.2760, 4679.000
274.4880, 4610.000
275.7000, 4725.000
276.9120, 4681.000
278.1230, 4637.000
279.3340, 4611.000
280.5450, 4682.000
281.7560, 4657.000
282.9670, 4756.000
284.1780, 4709.000
285.3880, 4794.000
286.5980, 4754.000
287.8090, 4916.000
289.0190, 4825.000
290.2290, 4901.000
291.4380, 4910.000
292.6480, 4926.000
293.8570, 4860.000
295.0670, 4906.000
296.2760, 4933.000
297.4850, 4896.000
298.6930, 4948.000
299.9020, 5015.000
301.1110, 5069.000
302.3190, 5034.000
303.5270, 5001.000
304.7350, 4959.000
305.9430, 4934.000
307.1510, 4923.429
308.3580, 4909.355
309.5660, 4923.000
310.7730, 4896.000
311.9800, 4907.000
313.1870, 4880.000
314.3940, 4870.000
315.6010, 4871.000
316.8070, 4903.000
318.0130, 4835.000
319.2200, 4861.000
320.4260, 4805.000
321.6310, 4790.000
322.8370, 4718.000
324.0430, 4686.000
325.2480, 4660.000
326.4540, 4662.000
327.6590, 4706.000
328.8640, 4558.000
330.0680, 4487.000
331.2730, 4526.000
332.4780, 4414.000
333.6820, 4464.000
334.8860, 4495.000
336.0900, 4446.412
337.2940, 4460.850
338.4980, 4409.000
339.7010, 4424.000
340.9050, 4388.000
342.1080, 4390.000
343.3110, 4413.000
344.5140, 4340.000
345.7170, 4392.000
346.9200, 4416.000
348.1220, 4445.000
349.3240, 4422.000
350.5270, 4405.000
351.7290, 4496.000
352.9310, 4450.000
354.1320, 4486.000
355.3340, 4444.000
356.5350, 4523.000
357.7370, 4615.000
358.9380, 4528.000
360.1390, 4565.000
361.3400, 4579.000
362.5400, 4701.000
363.7410, 4644.000
364.9410, 4735.000
366.1410, 4792.000
367.3410, 4828.000
368.5410, 4825.000
369.7410, 4919.000
370.9400, 4952.000
372.1400, 5112.000
373.3390, 5123.000
374.5380, 5096.000
375.7370, 5260.000
376.9360, 5259.000
378.1350, 5361.000
379.3330, 5412.000
380.5310, 5442.000
381.7300, 5567.000
382.9280, 5681.000
384.1260, 5725.000
385.3230, 5806.000
386.5210, 5954.000
387.7180, 6020.000
388.9160, 6187.000
390.1130, 6283.000
391.3100, 6406.000
392.5060, 6444.000
393.7030, 6540.000
394.9000, 6757.000
396.0960, 6902.000
397.2920, 6927.000
398.4880, 7147.000
399.6840, 7206.000
400.8800, 7445.000
402.0750, 7336.000
403.2710, 7605.000
404.4660, 7708.000
405.6610, 7773.000
406.8560, 7909.000
408.0510, 7854.000
409.2450, 7972.000
410.4400, 7941.000
411.6340, 7839.000
412.8280, 7863.000
414.0220, 7787.000
415.2160, 7731.000
416.4100, 7726.000
417.6030, 7618.891
418.7970, 7585.000
419.9900, 7445.000
421.1830, 7301.000
422.3760, 7214.000
423.5690, 7229.000
424.7610, 7043.000
425.9540, 7010.000
427.1460, 6858.000
428.3380, 6793.000
429.5300, 6687.000
430.7220, 6575.000
431.9140, 6563.000
433.1050, 6403.000
434.2970, 6375.000
435.4880, 6246.000
436.6790, 6154.000
437.8700, 6144.000
439.0610, 6050.000
440.2510, 6107.000
441.4420, 6017.000
442.6320, 6010.000
443.8220, 5911.000
445.0120, 5853.000
446.2020, 5871.000
447.3910, 5927.000
448.5810, 5908.000
449.7700, 5866.000
450.9600, 5899.859
452.1490, 5914.000
453.3370, 5870.000
454.5260, 5901.000
455.7150, 5894.406
456.9030, 5860.000
458.0910, 5903.000
459.2800, 5912.000
460.4670, 5907.000
461.6550, 5886.000
462.8430, 5943.000
464.0300, 5998.000
465.2180, 5994.000
466.4050, 6049.000
467.5920, 6056.000
468.7790, 6183.000
469.9650, 6098.000
471.1520, 6162.000
472.3380, 6322.000
473.5250, 6326.000
474.7110, 6406.000
475.8970, 6382.000
477.0820, 6398.000
478.2680, 6389.000
479.4540, 6452.000
480.6390, 6517.000
481.8240, 6488.000
483.0090, 6431.000
484.1940, 6481.000
485.3780, 6409.000
486.5630, 6407.000
487.7470, 6268.000
488.9320, 6366.000
490.1160, 6373.000
491.3000, 6274.000
492.4830, 6313.000
493.6670, 6154.000
494.8500, 6242.000
496.0340, 6285.000
497.2170, 6204.000
498.4000, 6268.000
499.5820, 6164.000
500.7650, 6172.000
501.9480, 6202.000
503.1300, 6219.000
504.3120, 6191.000
505.4940, 6156.000
506.6760, 6158.000
507.8580, 6134.000
509.0390, 6155.000
510.2210, 6133.000
511.4020, 6090.000
512.5830, 6062.000
513.7640, 6197.000
514.9450, 6054.000
516.1250, 6166.000
517.3060, 6078.000
518.4860, 6032.000
519.6660, 6049.000
520.8460, 6005.000
522.0260, 6119.000
523.2060, 5982.000
524.3850, 6073.000
525.5650, 6042.000
526.7440, 6057.000
527.9230, 5981.000
529.1020, 6007.000
530.2810, 6098.000
531.4590, 5967.000
532.6380, 6056.000
533.8160, 6077.000
534.9940, 6037.000
536.1720, 6060.000
537.3500, 6097.000
538.5270, 6064.000
539.7050, 6063.000
540.8820, 6090.496
542.0590, 6087.443
543.2360, 6139.000
544.4130, 6131.000
545.5900, 6155.098
546.7660, 6194.000
547.9430, 6180.000
549.1190, 6224.000
550.2950, 6145.000
551.4710, 6142.000
552.6470, 6224.000
553.8220, 6185.000
554.9980, 6267.000
556.1730, 6343.000
557.3480, 6236.000
558.5230, 6383.000
559.6980, 6365.000
560.8730, 6324.000
562.0470, 6377.000
563.2220, 6420.000
564.3960, 6415.000
565.5700, 6483.000
566.7440, 6533.000
567.9170, 6673.000
569.0910, 6658.000
570.2640, 6678.000
571.4380, 6613.000
572.6110, 6744.000
573.7840, 6736.000
574.9570, 6649.000
576.1290, 6864.000
577.3020, 6797.000
578.4740, 6699.000
579.6460, 6865.000
580.8180, 6909.000
581.9900, 6986.000
583.1620, 6963.000
584.3330, 6975.000
585.5040, 7028.000
586.6760, 7098.000
587.8470, 7086.000
589.0180, 7142.000
590.1880, 7246.000
591.3590, 7221.000
592.5290, 7210.000
593.7000, 7323.000
594.8700, 7336.000
596.0400, 7387.000
597.2090, 7458.000
598.3790, 7502.000
599.5490, 7639.000
600.7180, 7708.522
601.8870, 7796.267
603.0560, 7949.000
604.2250, 7979.000
605.3940, 8188.000
606.5620, 8306.000
607.7300, 8497.000
608.8990, 8764.000
610.0670, 8839.000
611.2350, 9094.000
612.4020, 9194.000
613.5700, 9439.000
614.7370, 9760.000
615.9050, 9908.000
617.0720, 10178.00
618.2390, 10480.00
619.4060, 10787.00
620.5720, 10778.00
621.7390, 10930.00
622.9050, 10955.00
624.0710, 11149.00
625.2370, 11202.00
626.4030, 11181.65
627.5690, 11039.00
628.7340, 11063.00
629.9000, 10959.00
631.0650, 10826.00
632.2300, 10757.00
633.3950, 10781.00
634.5600, 10701.00
635.7240, 10548.00
636.8890, 10632.00
638.0530, 10537.00
639.2170, 10441.00
640.3810, 10422.00
641.5450, 10343.00
642.7080, 10328.00
643.8720, 10129.00
645.0350, 9975.000
646.1980, 9860.000
647.3610, 9882.000
648.5240, 9601.000
649.6870, 9680.000
650.8490, 9331.000
652.0120, 9128.000
653.1740, 8967.000
654.3360, 8787.000
655.4980, 8693.000
656.6600, 8506.000
657.8210, 8423.000
658.9830, 8346.000
660.1440, 8316.000
661.3050, 8228.906
662.4660, 8139.000
663.6270, 8084.000
664.7870, 8031.000
665.9480, 7976.551
667.1080, 7936.000
668.2680, 7904.000
669.4280, 7871.000
670.5880, 7860.000
671.7480, 7760.000
672.9070, 7764.000
674.0670, 7700.000
675.2260, 7680.000
676.3850, 7675.000
677.5440, 7550.000
678.7030, 7652.000
679.8610, 7681.000
681.0200, 7542.000
682.1780, 7561.000
683.3360, 7568.000
684.4940, 7552.000
685.6520, 7596.000
686.8090, 7589.000
687.9670, 7579.519
689.1240, 7518.000
690.2810, 7566.000
691.4380, 7503.000
692.5950, 7528.000
693.7520, 7806.000
694.9080, 7630.072
696.0650, 7901.000
697.2210, 7409.000
698.3770, 7534.000
699.5330, 7303.000
700.6880, 7339.000
701.8440, 7328.000
702.9990, 7361.000
704.1550, 7365.000
705.3100, 7334.000
706.4650, 7310.000
707.6190, 7287.259
708.7740, 7321.000
709.9290, 7276.000
711.0830, 7233.000
712.2370, 7334.000
713.3910, 7329.000
714.5450, 7333.000
715.6980, 7286.000
716.8520, 7266.000
718.0050, 7414.000
719.1580, 7314.000
720.3110, 7355.000
721.4640, 7283.000
722.6170, 7335.000
723.7700, 7362.000
724.9220, 7398.000
726.0740, 7305.000
727.2260, 7447.000
728.3780, 7340.000
729.5300, 7275.000
730.6810, 7282.000
731.8330, 7295.000
732.9840, 7352.000
734.1350, 7242.000
735.2860, 7315.000
736.4370, 7296.000
737.5880, 7361.000
738.7380, 7295.000
739.8880, 7354.000
741.0390, 7237.000
742.1890, 7320.000
743.3380, 7251.000
744.4880, 7263.000
745.6380, 7255.000
746.7870, 7287.000
747.9360, 7346.000
749.0850, 7330.000
750.2340, 7301.000
751.3830, 7265.000
752.5310, 7325.000
753.6800, 7291.000
754.8280, 7402.000
755.9760, 7226.000
757.1240, 7364.000
758.2720, 7320.000
759.4190, 7265.000
760.5670, 7370.000
761.7140, 7329.000
762.8610, 7259.000
764.0080, 7348.000
765.1550, 7375.000
766.3020, 7438.000
767.4480, 7473.979
768.5950, 7489.001
769.7410, 7505.000
770.8870, 7506.000
772.0330, 7545.597
773.1780, 7451.000
774.3240, 7601.000
775.4690, 7606.369
776.6140, 7590.000
777.7590, 7720.000
778.9040, 7620.000
780.0490, 7568.000
781.1940, 7718.000
782.3380, 7779.000
783.4820, 7752.000
784.6260, 7921.000
785.7700, 7728.000
786.9140, 7765.000
788.0580, 7685.000
789.2010, 7849.000
790.3450, 7863.000
791.4880, 7819.000
792.6310, 7901.000
793.7730, 7797.000
794.9160, 7778.000
796.0590, 7936.000
797.2010, 7812.000
798.3430, 7755.000
799.4850, 7907.000
800.6270, 7876.000
801.7690, 7889.000
802.9100, 7878.000
804.0520, 7883.000
805.1930, 7855.000
806.3340, 7894.000
807.4750, 7766.000
808.6160, 8013.000
809.7560, 8033.000
810.8970, 7954.000
812.0370, 7981.000
813.1770, 7943.837
814.3170, 7962.000
815.4570, 7932.000
816.5960, 7900.000
817.7360, 7978.000
818.8750, 8021.000
820.0140, 7962.000
821.1530, 8018.000
822.2920, 7967.000
823.4310, 7980.000
824.5690, 8029.000
825.7070, 8078.000
826.8460, 8120.000
827.9840, 8036.000
829.1220, 8052.000
830.2590, 8157.000
831.3970, 8058.000
832.5340, 8071.000
833.6710, 8129.000
834.8080, 8241.000
835.9450, 8205.907
837.0820, 8170.516
838.2190, 8199.000
839.3550, 8191.000
840.4910, 8224.000
841.6270, 8222.685
842.7630, 8194.494
843.8990, 8257.000
845.0350, 8156.000
846.1700, 8227.000
847.3060, 8284.000
848.4410, 8152.000
849.5760, 8210.000
850.7100, 8371.000
851.8450, 8197.000
852.9800, 8193.000
854.1140, 8418.000
855.2480, 8466.000
856.3820, 8201.000
857.5160, 8331.000
858.6500, 8336.000
859.7830, 8492.000
860.9170, 8493.000
862.0500, 8493.530
863.1830, 8571.000
864.3160, 8461.000
865.4480, 8445.000
866.5810, 8472.000
867.7130, 8495.000
868.8460, 8471.000
869.9780, 8577.000
871.1100, 8507.000
872.2410, 8410.966
873.3730, 8583.049
874.5050, 8690.100
875.6360, 8735.589
876.7670, 8535.225
877.8980, 8652.330
879.0290, 8642.207
880.1590, 8626.848
881.2900, 8788.636
882.4200, 8624.009
883.5500, 8782.968
884.6800, 8812.758
885.8100, 8901.665
886.9400, 8911.000
888.0690, 8754.000
889.1990, 8783.000
890.3280, 8817.000
891.4570, 8955.000
892.5860, 9006.000
893.7140, 9056.000
894.8430, 9070.000
895.9710, 9106.000
897.1000, 9033.000
898.2280, 9143.000
899.3560, 9149.000
900.4830, 9264.000
901.6110, 9265.000
902.7380, 9242.000
903.8660, 9194.000
904.9930, 9265.000
906.1200, 9337.000
907.2460, 9288.000
908.3730, 9482.000
909.5000, 9315.000
910.6260, 9466.000
911.7520, 9370.000
912.8780, 9469.000
914.0040, 9619.000
915.1290, 9610.000
916.2550, 9598.000
917.3800, 9666.000
918.5050, 9711.000
919.6300, 9673.000
920.7550, 9683.000
921.8800, 9712.000
923.0040, 9699.000
924.1290, 9725.000
925.2530, 9766.000
926.3770, 9960.000
927.5010, 9900.000
928.6250, 9935.000
929.7480, 10052.00
930.8720, 9991.000
931.9950, 10105.00
933.1180, 10046.00
934.2410, 10144.00
935.3640, 10093.00
936.4860, 10169.00
937.6090, 10195.79
938.7310, 10189.00
939.8530, 10261.00
940.9750, 10322.00
942.0970, 10351.00
943.2180, 10399.03
944.3400, 10386.00
945.4610, 10428.00
946.5820, 10515.00
947.7030, 10464.00
948.8240, 10370.00
949.9450, 10525.00
951.0650, 10524.00
952.1860, 10621.00
953.3060, 10682.00
954.4260, 10738.00
955.5460, 10790.25
956.6650, 10697.00
957.7850, 10885.00
958.9040, 10762.00
960.0230, 10839.00
961.1420, 10855.00
962.2610, 10898.00
963.3800, 11028.00
964.4990, 11095.00
965.6170, 11096.00
966.7350, 10972.00
967.8530, 11080.00
968.9710, 11092.00
970.0890, 11286.00
971.2070, 11277.00
972.3240, 11276.00
973.4410, 11299.00
974.5580, 11463.00
975.6750, 11497.00
976.7920, 11507.00
977.9090, 11599.00
979.0250, 11597.00
980.1410, 11665.38
981.2580, 11681.00
982.3740, 11790.00
983.4890, 11872.00
984.6050, 11955.00
985.7200, 11831.00
986.8360, 11868.00
987.9510, 11967.00
989.0660, 12041.00
990.1810, 12130.00
991.2950, 12154.00
992.4100, 12079.00
993.5240, 12137.00
994.6390, 12257.00
995.7530, 12177.00
996.8660, 12300.00
997.9800, 12425.00
999.0940, 12336.00
1000.207, 12561.00
1001.320, 12539.00
1002.433, 12499.00
1003.546, 12499.00
1004.659, 12553.00
1005.772, 12549.00
1006.884, 12725.00
1007.996, 12763.15
1009.108, 13076.00
1010.220, 12955.00
1011.332, 12856.00
1012.444, 12958.00
1013.555, 13256.00
1014.666, 13139.00
1015.777, 13213.00
1016.888, 13274.00
1017.999, 13341.00
1019.110, 13329.00
1020.220, 13421.00
1021.331, 13608.00
1022.441, 13466.00
1023.551, 13376.72
1024.661, 13589.29
1025.770, 13736.77
1026.880, 13822.77
1027.989, 13662.86
1029.098, 13820.42
1030.207, 13850.75
1031.316, 13875.86
1032.425, 14078.10
1033.533, 13953.89
1034.642, 14153.32
1035.750, 14223.53
1036.858, 14352.85
1037.966, 14354.16
1039.073, 14180.00
1040.181, 14465.00
1041.288, 14272.00
1042.396, 14570.00
1043.503, 14682.00
1044.610, 14609.00
1045.716, 14491.00
1046.823, 14755.00
1047.929, 14736.00
1049.036, 14716.00
1050.142, 14834.00
1051.248, 14692.00
1052.353, 15025.00
1053.459, 14992.00
1054.564, 15073.00
1055.670, 14983.00
1056.775, 15045.00
1057.880, 15170.00
1058.985, 15101.00
1060.089, 15257.00
1061.194, 15259.00
1062.298, 15186.00
1063.402, 15364.00
1064.506, 15513.00
1065.610, 15420.00
1066.713, 15610.00
1067.817, 15451.00
1068.920, 15548.00
1070.023, 15515.00
1071.126, 15515.00
1072.229, 15693.00
1073.332, 15672.00
1074.435, 15840.00
1075.537, 15796.00
1076.639, 15928.00
1077.741, 15790.00
1078.843, 15943.00
1079.945, 15852.00
1081.046, 16032.00
1082.148, 16240.00
1083.249, 16131.00
1084.350, 15918.00
1085.451, 16143.00
1086.551, 16066.00
1087.652, 16167.00
1088.752, 16371.00
1089.853, 16419.00
1090.953, 16443.00
1092.053, 16346.00
1093.152, 16588.00
1094.252, 16830.00
1095.351, 16573.00
1096.451, 16548.00
1097.550, 16493.00
1098.649, 16472.00
1099.748, 16650.00
1100.846, 16823.00
1101.945, 16732.00
1103.043, 16842.00
1104.141, 16941.00
1105.239, 16942.00
1106.337, 16946.00
1107.434, 17091.00
1108.532, 17097.00
1109.629, 17141.00
1110.726, 17125.00
1111.823, 17316.00
1112.920, 17175.00
1114.017, 17429.00
1115.113, 17578.00
1116.210, 17588.00
1117.306, 17666.00
1118.402, 18003.00
1119.498, 18028.00
1120.593, 18129.00
1121.689, 18395.00
1122.784, 18351.00
1123.879, 18179.00
1124.974, 18175.00
1126.069, 18246.00
1127.164, 18315.00
1128.259, 18252.00
1129.353, 18205.00
1130.447, 18093.00
1131.541, 18244.00
1132.635, 18146.00
1133.729, 18289.00
1134.822, 18426.00
1135.916, 18326.00
1137.009, 18576.00
1138.102, 18454.00
1139.195, 18457.00
1140.288, 18606.00
1141.380, 18496.00
1142.473, 18770.00
1143.565, 18702.00
1144.657, 18861.00
1145.749, 18709.00
1146.841, 19023.00
1147.932, 19061.00
1149.024, 19029.00
1150.115, 19150.04
1151.206, 19220.00
1152.297, 19264.00
1153.388, 19058.00
1154.479, 19282.00
1155.569, 19226.00
1156.659, 19386.00
1157.750, 19490.00
1158.839, 19600.00
1159.929, 19546.00
1161.019, 19477.00
1162.108, 19519.00
1163.198, 19885.00
1164.287, 19825.00
1165.376, 19929.00
1166.465, 19886.00
1167.553, 20068.00
1168.642, 20043.00
1169.730, 20040.00
1170.818, 20116.00
1171.906, 20190.22
1172.994, 20264.89
1174.082, 20450.00
1175.170, 20478.00
1176.257, 20640.00
1177.344, 20779.00
1178.431, 20857.00
1179.518, 20906.39
1180.605, 20935.34
1181.691, 20934.00
1182.778, 20901.00
1183.864, 20937.00
1184.950, 20885.00
1186.036, 21082.00
1187.122, 21149.00
1188.207, 21428.00
1189.292, 21305.00
1190.378, 21548.00
1191.463, 21538.00
1192.548, 21553.00
1193.632, 21654.00
1194.717, 21545.00
1195.801, 21538.00
1196.886, 21857.00
1197.970, 21928.00
1199.054, 21884.00
1200.137, 21948.00
1201.221, 21978.00
1202.305, 22080.00
1203.388, 22117.00
1204.471, 22182.00
1205.554, 22334.00
1206.637, 22383.06
1207.719, 22498.00
1208.802, 22586.00
1209.884, 22572.00
1210.966, 22720.00
1212.048, 22942.00
1213.130, 22972.00
1214.212, 22957.00
1215.293, 23102.00
1216.374, 23059.00
1217.456, 23157.00
1218.536, 23017.00
1219.617, 23319.00
1220.698, 23380.00
1221.778, 23660.00
1222.859, 23696.00
1223.939, 23634.00
1225.019, 23876.00
1226.099, 23896.00
1227.178, 23978.00
1228.258, 24056.00
1229.337, 24084.30
1230.417, 24167.00
1231.496, 24218.00
1232.574, 24296.00
1233.653, 24478.00
1234.732, 24382.00
1235.810, 24477.00
1236.888, 24436.00
1237.966, 24777.00
1239.044, 24842.00
1240.122, 24898.00
1241.199, 24986.47
1242.277, 25033.90
1243.354, 25083.00
1244.431, 25108.00
1245.508, 25382.00
1246.585, 25359.00
1247.661, 25487.00
1248.738, 25457.00
1249.814, 25537.00
1250.890, 25780.00
1251.966, 25695.00
1253.042, 26051.00
1254.117, 26079.00
1255.193, 25898.00
1256.268, 26234.00
1257.343, 26296.00
1258.418, 26183.00
1259.493, 26419.00
1260.567, 26495.00
1261.642, 26701.00
1262.716, 26490.00
1263.790, 26595.00
1264.864, 26563.00
1265.938, 27057.00
1267.011, 27083.00
1268.085, 27087.00
1269.158, 27363.00
1270.231, 27239.00
1271.304, 27650.00
1272.377, 27632.00
1273.450, 27505.00
1274.522, 27624.00
1275.594, 27776.00
1276.666, 28086.00
1277.738, 28201.00
1278.810, 28158.00
1279.882, 28240.00
1280.953, 28265.00
1282.025, 28365.80
1283.096, 28430.78
1284.167, 28574.00
1285.238, 28593.00
1286.308, 28604.00
1287.379, 28688.00
1288.449, 28853.00
1289.519, 29029.00
1290.589, 29135.00
1291.659, 29256.00
1292.729, 29359.00
1293.798, 29527.00
1294.868, 29749.00
1295.937, 29524.00
1297.006, 29811.00
1298.075, 29772.00
1299.143, 29989.00
1300.212, 30169.00
1301.280, 30129.00
1302.348, 30309.76
1303.416, 30220.00
1304.484, 30482.00
1305.552, 30583.00
1306.620, 30666.00
1307.687, 30648.00
1308.754, 30935.00
1309.821, 30981.00
1310.888, 31080.00
1311.955, 31167.00
1313.021, 31268.00
1314.088, 31159.00
1315.154, 31451.00
1316.220, 31532.00
1317.286, 31967.00
1318.352, 31982.52
1319.417, 32003.00
1320.483, 32096.00
1321.548, 31987.00
1322.613, 31981.00
1323.678, 32208.00
1324.743, 32189.00
1325.807, 32439.00
1326.872, 32557.00
1327.936, 32700.00
1329.000, 32961.00
1330.064, 32943.00
1331.128, 32986.00
1332.191, 32992.00
1333.255, 33115.00
1334.318, 33355.00
1335.381, 33474.00
1336.444, 33576.00
1337.507, 33655.00
1338.569, 33928.00
1339.632, 33966.00
1340.694, 33996.00
1341.756, 34141.00
1342.818, 34423.00
1343.880, 34600.00
1344.941, 34746.52
1346.003, 34575.00
1347.064, 34931.00
1348.125, 35056.00
1349.186, 34959.00
1350.247, 35226.00
1351.308, 35344.00
1352.368, 35378.68
1353.428, 35970.00
1354.489, 35625.00
1355.549, 35727.00
1356.608, 36074.00
1357.668, 36697.00
1358.727, 36658.00
1359.787, 36447.00
1360.846, 36279.00
1361.905, 36740.00
1362.964, 36797.00
1364.022, 36871.00
1365.081, 37074.00
1366.139, 37104.00
1367.197, 36909.00
1368.255, 37164.00
1369.313, 37053.00
1370.371, 37732.00
1371.428, 37547.00
1372.486, 37804.00
1373.543, 37812.00
1374.600, 38239.00
1375.657, 38275.00
1376.713, 38218.00
1377.770, 38291.00
1378.826, 38328.00
1379.882, 38513.00
1380.938, 38653.00
1381.994, 39027.00
1383.050, 38727.00
1384.106, 39314.00
1385.161, 39419.00
1386.216, 39283.00
1387.271, 39775.00
1388.326, 39655.00
1389.381, 39678.00
1390.435, 40074.00
1391.490, 40157.00
1392.544, 40268.00
1393.598, 40313.00
1394.652, 40570.00
1395.705, 40718.00
1396.759, 40959.00
1397.812, 41085.00
1398.866, 41299.00
1399.919, 41321.00
1400.972, 41278.00
1402.024, 41401.00
1403.077, 41760.00
1404.129, 41658.00
1405.181, 42042.00
1406.233, 41962.00
1407.285, 42291.00
1408.337, 42337.00
1409.389, 42545.00
1410.440, 42897.00
1411.491, 42834.00
1412.542, 43075.00
1413.593, 43227.00
1414.644, 43140.00
1415.695, 43546.00
1416.745, 43613.00
1417.795, 43789.00
1418.845, 43850.00
1419.895, 43954.00
1420.945, 44200.00
1421.995, 44529.00
1423.044, 44623.00
1424.093, 44693.00
1425.142, 44715.00
1426.191, 44872.13
1427.240, 45257.00
1428.289, 45224.00
1429.337, 45527.00
1430.385, 45860.00
1431.433, 45901.00
1432.481, 46260.00
1433.529, 46309.00
1434.577, 46702.00
1435.624, 46582.00
1436.672, 46741.00
1437.719, 46754.00
1438.766, 46919.68
1439.812, 47138.00
1440.859, 47306.00
1441.905, 47568.00
1442.952, 47713.00
1443.998, 47796.00
1445.044, 48238.00
1446.090, 48405.00
1447.135, 48688.00
1448.181, 48582.00
1449.226, 48548.00
1450.271, 49017.00
1451.316, 49115.00
1452.361, 49566.00
1453.405, 49641.00
1454.450, 49588.00
1455.494, 49889.00
1456.538, 49893.00
1457.582, 50313.00
1458.626, 50249.00
1459.670, 50615.00
1460.713, 50541.00
1461.757, 50751.00
1462.800, 51209.00
1463.843, 51342.00
1464.886, 51689.00
1465.928, 51714.00
1466.971, 51933.00
1468.013, 52122.00
1469.055, 52169.00
1470.097, 52403.00
1471.139, 52537.00
1472.181, 52863.00
1473.222, 52855.00
1474.263, 52855.00
1475.305, 53350.00
1476.346, 53032.00
1477.386, 53646.00
1478.427, 54109.00
1479.468, 53976.00
1480.508, 54151.00
1481.548, 54707.00
1482.588, 54667.00
1483.628, 54815.00
1484.668, 54956.00
1485.707, 55103.00
1486.747, 55665.00
1487.786, 55576.00
1488.825, 55772.00
1489.864, 56217.00
1490.902, 56197.00
1491.941, 56641.00
1492.979, 56814.00
1494.017, 56944.00
1495.055, 56989.00
1496.093, 56910.00
1497.131, 57588.00
1498.168, 57317.00
1499.206, 57873.00
1500.243, 57972.00
1501.280, 58286.00
1502.317, 58318.00
1503.354, 58384.00
1504.390, 59011.00
1505.426, 59258.00
1506.463, 59205.00
1507.499, 59586.00
1508.535, 59780.00
1509.570, 60064.00
1510.606, 60299.00
1511.641, 60443.00
1512.676, 60507.00
1513.711, 60729.00
1514.746, 60926.90
1515.781, 61518.00
1516.816, 61611.00
1517.850, 61461.00
1518.884, 62178.00
1519.918, 61885.00
1520.952, 62308.00
1521.986, 62692.00
##END=



