##NAMES=Cuprite
##RRUFFID=R050384
##IDEAL CHEMISTRY=Cu^1+^_2_O
##LOCALITY=Lavender Pit, Bisbee, Warren District, Cochise County, Arizona, USA
##OWNER=RRUFF
##SOURCE=University of Arizona Mineral Museum
##DESCRIPTION=Deep red to nearly black cubes
##STATUS=The identification of this mineral has been confirmed by X-ray diffraction and chemical analysis
##URL=rruff.info/R050384
##MEASURED CHEMISTRY=Cu_2.00_O
##PIN_ID=M00339
##ORIENTATION=Laser parallel to b* (0 1 0). Fiducial mark perpendicular to laser is parallel to c [0 0 1]
53.91000, 3515.000
55.14900, 3520.000
56.38700, 3355.000
57.62600, 3376.000
58.86400, 3345.000
60.10300, 3429.000
61.34100, 3424.000
62.57900, 3332.000
63.81700, 3324.000
65.05400, 3437.000
66.29200, 3504.000
67.52900, 3675.000
68.76700, 3907.000
70.00400, 4075.000
71.24100, 4128.000
72.47700, 4077.000
73.71400, 4428.000
74.95100, 4531.000
76.18700, 4805.000
77.42300, 4882.000
78.65900, 5096.000
79.89500, 5333.000
81.13100, 5641.000
82.36700, 5964.000
83.60200, 6126.000
84.83700, 6303.000
86.07200, 6335.000
87.30800, 6402.000
88.54200, 6787.000
89.77700, 7063.000
91.01200, 7445.000
92.24600, 7746.000
93.48000, 8022.000
94.71400, 8135.000
95.94800, 8214.000
97.18200, 8491.000
98.41600, 8837.000
99.64900, 9186.000
100.8830, 9560.000
102.1160, 9784.000
103.3490, 10191.00
104.5820, 10896.00
105.8150, 11500.69
107.0470, 11715.42
108.2800, 11863.70
109.5120, 11949.00
110.7440, 11782.88
111.9760, 11941.41
113.2080, 11969.84
114.4400, 12356.00
115.6710, 12189.00
116.9030, 12000.00
118.1340, 11679.00
119.3650, 11378.00
120.5960, 11178.00
121.8270, 11483.00
123.0580, 11469.00
124.2880, 11523.00
125.5190, 11322.00
126.7490, 11568.00
127.9790, 11742.00
129.2090, 11959.00
130.4390, 12077.00
131.6680, 12370.00
132.8980, 12549.00
134.1270, 12685.00
135.3560, 12978.00
136.5850, 13190.00
137.8140, 13391.00
139.0430, 13700.00
140.2710, 13819.00
141.5000, 13801.00
142.7280, 13426.00
143.9560, 13457.00
145.1840, 13267.00
146.4120, 13138.00
147.6390, 12855.00
148.8670, 12838.00
150.0940, 12921.00
151.3210, 12826.00
152.5490, 12620.00
153.7750, 12637.96
155.0020, 12604.00
156.2290, 12499.00
157.4550, 12492.00
158.6810, 12422.00
159.9080, 12286.00
161.1340, 12269.00
162.3590, 12149.00
163.5850, 12136.00
164.8110, 11922.00
166.0360, 11913.00
167.2610, 11925.00
168.4860, 12050.00
169.7110, 12228.00
170.9360, 12312.00
172.1610, 12114.00
173.3850, 12416.00
174.6100, 12434.00
175.8340, 12596.00
177.0580, 12830.00
178.2820, 13064.00
179.5050, 13316.00
180.7290, 13544.00
181.9520, 13835.00
183.1760, 14284.00
184.3990, 14879.00
185.6220, 15220.00
186.8450, 15695.00
188.0670, 15787.00
189.2900, 15848.00
190.5120, 15932.00
191.7340, 15984.00
192.9560, 16147.00
194.1780, 16357.00
195.4000, 16997.00
196.6220, 17743.00
197.8430, 17945.00
199.0640, 17853.00
200.2860, 17875.00
201.5070, 17788.00
202.7270, 17651.00
203.9480, 17687.00
205.1690, 17978.81
206.3890, 18014.00
207.6090, 18908.00
208.8290, 19855.00
210.0490, 20671.00
211.2690, 21499.00
212.4890, 22925.00
213.7080, 23634.00
214.9280, 24393.00
216.1470, 25078.00
217.3660, 25128.00
218.5850, 24089.00
219.8030, 22540.00
221.0220, 20662.00
222.2400, 18768.00
223.4590, 17193.00
224.6770, 16030.00
225.8950, 14980.00
227.1120, 14543.00
228.3300, 13913.00
229.5480, 13518.00
230.7650, 13119.00
231.9820, 12727.00
233.1990, 12443.00
234.4160, 12133.00
235.6330, 11921.00
236.8490, 11640.00
238.0660, 11536.00
239.2820, 11262.00
240.4980, 11164.00
241.7140, 10989.00
242.9300, 10671.00
244.1460, 10650.00
245.3610, 10514.00
246.5770, 10484.00
247.7920, 10280.00
249.0070, 10322.00
250.2220, 10127.00
251.4370, 10152.00
252.6510, 10034.00
253.8660, 9756.097
255.0800, 9889.108
256.2940, 9955.616
257.5080, 9959.193
258.7220, 9711.355
259.9360, 9788.168
261.1490, 9734.891
262.3630, 9676.263
263.5760, 9798.784
264.7890, 9587.530
266.0020, 9670.000
267.2150, 9611.000
268.4270, 9624.129
269.6400, 9576.298
270.8520, 9633.000
272.0640, 9566.000
273.2760, 9543.000
274.4880, 9632.000
275.7000, 9780.000
276.9120, 9691.000
278.1230, 9701.000
279.3340, 9743.000
280.5450, 9740.000
281.7560, 9719.000
282.9670, 9686.000
284.1780, 9704.000
285.3880, 9690.000
286.5980, 9749.000
287.8090, 9830.000
289.0190, 9789.000
290.2290, 9691.000
291.4380, 9805.000
292.6480, 9770.000
293.8570, 9885.000
295.0670, 9758.000
296.2760, 9898.000
297.4850, 9982.000
298.6930, 9846.000
299.9020, 10046.00
301.1110, 9930.000
302.3190, 9959.000
303.5270, 10076.00
304.7350, 10002.00
305.9430, 9917.000
307.1510, 9993.000
308.3580, 10013.00
309.5660, 10007.00
310.7730, 10043.00
311.9800, 9819.000
313.1870, 9944.000
314.3940, 9983.000
315.6010, 10131.00
316.8070, 9811.000
318.0130, 9880.000
319.2200, 9857.000
320.4260, 9956.000
321.6310, 9868.000
322.8370, 9854.000
324.0430, 9913.000
325.2480, 9873.000
326.4540, 9810.000
327.6590, 9835.000
328.8640, 9801.000
330.0680, 9822.000
331.2730, 9777.000
332.4780, 9791.000
333.6820, 9777.679
334.8860, 9684.000
336.0900, 9784.000
337.2940, 9795.000
338.4980, 9854.000
339.7010, 9698.000
340.9050, 9826.000
342.1080, 9721.000
343.3110, 9889.000
344.5140, 9761.000
345.7170, 9702.000
346.9200, 9693.000
348.1220, 9880.000
349.3240, 9863.000
350.5270, 9893.000
351.7290, 9830.000
352.9310, 9877.000
354.1320, 9943.000
355.3340, 9945.000
356.5350, 9949.000
357.7370, 9949.000
358.9380, 9989.000
360.1390, 10045.00
361.3400, 9998.000
362.5400, 10102.00
363.7410, 10004.00
364.9410, 10186.00
366.1410, 10203.00
367.3410, 10282.00
368.5410, 10185.00
369.7410, 10169.00
370.9400, 10254.00
372.1400, 10202.00
373.3390, 10350.00
374.5380, 10327.00
375.7370, 10277.00
376.9360, 10403.00
378.1350, 10563.00
379.3330, 10502.00
380.5310, 10765.00
381.7300, 10586.00
382.9280, 10604.00
384.1260, 10688.00
385.3230, 10889.00
386.5210, 11006.00
387.7180, 10974.00
388.9160, 11049.00
390.1130, 11134.00
391.3100, 11169.00
392.5060, 11340.00
393.7030, 11358.00
394.9000, 11348.00
396.0960, 11530.00
397.2920, 11645.00
398.4880, 11666.00
399.6840, 11805.00
400.8800, 11855.00
402.0750, 11977.00
403.2710, 11979.00
404.4660, 12045.00
405.6610, 12070.00
406.8560, 12107.00
408.0510, 12233.00
409.2450, 12210.00
410.4400, 12167.00
411.6340, 12135.00
412.8280, 12261.00
414.0220, 12129.00
415.2160, 12228.00
416.4100, 12043.00
417.6030, 12061.00
418.7970, 12200.00
419.9900, 11980.00
421.1830, 12037.00
422.3760, 12059.00
423.5690, 11892.00
424.7610, 11927.00
425.9540, 11931.00
427.1460, 11828.00
428.3380, 11764.00
429.5300, 11780.00
430.7220, 11669.00
431.9140, 11678.00
433.1050, 11527.00
434.2970, 11565.00
435.4880, 11383.00
436.6790, 11570.00
437.8700, 11334.00
439.0610, 11454.00
440.2510, 11438.00
441.4420, 11454.00
442.6320, 11403.00
443.8220, 11431.24
445.0120, 11426.22
446.2020, 11443.00
447.3910, 11456.00
448.5810, 11419.76
449.7700, 11461.30
450.9600, 11449.44
452.1490, 11426.00
453.3370, 11444.00
454.5260, 11421.00
455.7150, 11389.00
456.9030, 11367.00
458.0910, 11344.00
459.2800, 11399.00
460.4670, 11557.00
461.6550, 11492.11
462.8430, 11559.08
464.0300, 11516.00
465.2180, 11543.00
466.4050, 11678.00
467.5920, 11615.00
468.7790, 11544.00
469.9650, 11693.00
471.1520, 11840.00
472.3380, 11617.00
473.5250, 11778.00
474.7110, 11753.00
475.8970, 11786.00
477.0820, 11936.00
478.2680, 12048.00
479.4540, 12072.00
480.6390, 12092.00
481.8240, 12100.03
483.0090, 11896.00
484.1940, 12021.00
485.3780, 12050.00
486.5630, 11952.00
487.7470, 12044.00
488.9320, 11878.00
490.1160, 12093.00
491.3000, 12094.00
492.4830, 11918.00
493.6670, 12066.00
494.8500, 12079.00
496.0340, 12142.00
497.2170, 12013.00
498.4000, 12119.00
499.5820, 11998.00
500.7650, 12100.00
501.9480, 12096.00
503.1300, 12101.00
504.3120, 12066.00
505.4940, 12078.48
506.6760, 12053.00
507.8580, 12087.00
509.0390, 12106.00
510.2210, 12122.97
511.4020, 12126.17
512.5830, 12126.00
513.7640, 12101.00
514.9450, 12097.00
516.1250, 12050.00
517.3060, 12068.03
518.4860, 12059.36
519.6660, 12077.00
520.8460, 12081.00
522.0260, 12053.00
523.2060, 12082.00
524.3850, 12142.00
525.5650, 12089.00
526.7440, 12136.79
527.9230, 12140.00
529.1020, 12152.00
530.2810, 12191.00
531.4590, 12170.00
532.6380, 12248.00
533.8160, 12171.00
534.9940, 12192.00
536.1720, 12133.00
537.3500, 12220.00
538.5270, 12282.00
539.7050, 12241.00
540.8820, 12386.00
542.0590, 12412.00
543.2360, 12474.00
544.4130, 12417.00
545.5900, 12439.00
546.7660, 12472.00
547.9430, 12472.00
549.1190, 12451.00
550.2950, 12532.00
551.4710, 12512.00
552.6470, 12541.51
553.8220, 12511.00
554.9980, 12545.00
556.1730, 12563.00
557.3480, 12488.00
558.5230, 12758.00
559.6980, 12632.00
560.8730, 12802.00
562.0470, 12653.00
563.2220, 12738.00
564.3960, 12833.00
565.5700, 12740.00
566.7440, 12695.00
567.9170, 12772.00
569.0910, 12706.00
570.2640, 12753.67
571.4380, 12773.00
572.6110, 12793.00
573.7840, 12848.00
574.9570, 12818.00
576.1290, 12805.00
577.3020, 12714.00
578.4740, 12772.00
579.6460, 12729.00
580.8180, 12611.00
581.9900, 12631.00
583.1620, 12548.00
584.3330, 12570.00
585.5040, 12546.00
586.6760, 12501.00
587.8470, 12473.00
589.0180, 12477.00
590.1880, 12488.00
591.3590, 12630.00
592.5290, 12668.00
593.7000, 12799.00
594.8700, 12841.00
596.0400, 12792.00
597.2090, 12880.00
598.3790, 12946.00
599.5490, 12870.00
600.7180, 12926.00
601.8870, 13031.00
603.0560, 13218.00
604.2250, 13133.00
605.3940, 13242.00
606.5620, 13436.00
607.7300, 13553.00
608.8990, 13604.00
610.0670, 13690.00
611.2350, 13888.00
612.4020, 13903.00
613.5700, 14123.00
614.7370, 14178.00
615.9050, 14452.00
617.0720, 14472.00
618.2390, 14690.00
619.4060, 14654.00
620.5720, 14845.00
621.7390, 14817.00
622.9050, 15106.00
624.0710, 15203.00
625.2370, 15225.00
626.4030, 15001.00
627.5690, 14972.00
628.7340, 14966.00
629.9000, 15172.00
631.0650, 14882.00
632.2300, 14879.00
633.3950, 14693.00
634.5600, 14575.00
635.7240, 14693.00
636.8890, 14616.00
638.0530, 14634.00
639.2170, 14619.35
640.3810, 14573.72
641.5450, 14548.00
642.7080, 14484.00
643.8720, 14449.98
645.0350, 14359.00
646.1980, 14312.00
647.3610, 14170.00
648.5240, 14143.00
649.6870, 13994.00
650.8490, 13916.00
652.0120, 13928.00
653.1740, 13744.00
654.3360, 13755.00
655.4980, 13563.00
656.6600, 13578.00
657.8210, 13650.00
658.9830, 13355.00
660.1440, 13491.00
661.3050, 13573.00
662.4660, 13250.00
663.6270, 13272.00
664.7870, 13330.00
665.9480, 13316.00
667.1080, 13297.00
668.2680, 13322.01
669.4280, 13341.00
670.5880, 13322.00
671.7480, 13262.00
672.9070, 13239.00
674.0670, 13368.00
675.2260, 13222.00
676.3850, 13294.00
677.5440, 13394.00
678.7030, 13247.00
679.8610, 13358.00
681.0200, 13307.00
682.1780, 13261.00
683.3360, 13292.00
684.4940, 13270.57
685.6520, 13339.00
686.8090, 13324.00
687.9670, 13367.00
689.1240, 13460.00
690.2810, 13320.00
691.4380, 13218.00
692.5950, 13405.00
693.7520, 13449.00
694.9080, 13369.00
696.0650, 13338.00
697.2210, 13453.00
698.3770, 13313.00
699.5330, 13315.00
700.6880, 13245.00
701.8440, 13443.00
702.9990, 13322.00
704.1550, 13299.00
705.3100, 13413.00
706.4650, 13293.00
707.6190, 13293.00
708.7740, 13368.00
709.9290, 13344.00
711.0830, 13318.00
712.2370, 13311.00
713.3910, 13491.00
714.5450, 13450.00
715.6980, 13447.00
716.8520, 13327.00
718.0050, 13467.00
719.1580, 13331.00
720.3110, 13539.00
721.4640, 13437.00
722.6170, 13486.00
723.7700, 13522.00
724.9220, 13531.00
726.0740, 13447.00
727.2260, 13444.55
728.3780, 13377.00
729.5300, 13373.00
730.6810, 13567.00
731.8330, 13601.00
732.9840, 13541.00
734.1350, 13462.00
735.2860, 13467.00
736.4370, 13493.00
737.5880, 13533.00
738.7380, 13552.32
739.8880, 13566.39
741.0390, 13583.00
742.1890, 13581.00
743.3380, 13528.00
744.4880, 13528.00
745.6380, 13571.00
746.7870, 13437.00
747.9360, 13591.00
749.0850, 13561.00
750.2340, 13449.00
751.3830, 13477.40
752.5310, 13644.01
753.6800, 13744.12
754.8280, 13781.29
755.9760, 13567.05
757.1240, 13677.46
758.2720, 13657.76
759.4190, 13632.72
760.5670, 13788.82
761.7140, 13611.13
762.8610, 13764.35
764.0080, 13785.47
765.1550, 13867.05
766.3020, 13817.72
767.4480, 13808.81
768.5950, 13930.87
769.7410, 13980.40
770.8870, 13915.99
772.0330, 14001.40
773.1780, 13819.12
774.3240, 13871.74
775.4690, 14025.69
776.6140, 13967.85
777.7590, 14055.64
778.9040, 14087.97
780.0490, 13868.23
781.1940, 14086.86
782.3380, 14115.89
783.4820, 13950.27
784.6260, 14153.86
785.7700, 14015.08
786.9140, 13998.50
788.0580, 14073.89
789.2010, 14053.40
790.3450, 14184.07
791.4880, 14169.12
792.6310, 14141.15
793.7730, 14169.94
794.9160, 14037.86
796.0590, 14204.26
797.2010, 14166.76
798.3430, 14230.61
799.4850, 14317.44
800.6270, 14228.36
801.7690, 14154.00
802.9100, 14219.00
804.0520, 14286.00
805.1930, 14242.00
806.3340, 14304.95
807.4750, 14164.00
808.6160, 14330.00
809.7560, 14212.00
810.8970, 14172.00
812.0370, 14257.00
813.1770, 14361.00
814.3170, 14313.00
815.4570, 14398.00
816.5960, 14197.00
817.7360, 14198.00
818.8750, 14338.00
820.0140, 14488.00
821.1530, 14389.00
822.2920, 14334.00
823.4310, 14285.00
824.5690, 14453.00
825.7070, 14490.00
826.8460, 14360.15
827.9840, 14510.72
829.1220, 14594.78
830.2590, 14615.91
831.3970, 14385.63
832.5340, 14480.00
833.6710, 14444.26
834.8080, 14403.19
835.9450, 14543.26
837.0820, 14349.54
838.2190, 14486.73
839.3550, 14491.83
840.4910, 14557.39
841.6270, 14492.03
842.7630, 14467.11
843.8990, 14573.14
845.0350, 14606.67
846.1700, 14526.24
847.3060, 14595.64
848.4410, 14528.00
849.5760, 14620.00
850.7100, 14787.00
851.8450, 14780.41
852.9800, 14822.00
854.1140, 14801.00
855.2480, 14712.00
856.3820, 14702.00
857.5160, 14805.00
858.6500, 14967.00
859.7830, 14854.00
860.9170, 14931.00
862.0500, 14861.00
863.1830, 14852.00
864.3160, 14853.92
865.4480, 14919.00
866.5810, 14852.00
867.7130, 14933.00
868.8460, 15002.00
869.9780, 14945.00
871.1100, 15051.00
872.2410, 14940.00
873.3730, 15104.00
874.5050, 15203.00
875.6360, 15116.00
876.7670, 15058.00
877.8980, 15077.00
879.0290, 15030.00
880.1590, 15112.00
881.2900, 15174.00
882.4200, 15156.44
883.5500, 15180.00
884.6800, 15244.00
885.8100, 15297.00
886.9400, 15344.27
888.0690, 15380.00
889.1990, 15413.00
890.3280, 15446.56
891.4570, 15507.00
892.5860, 15479.00
893.7140, 15485.00
894.8430, 15447.00
895.9710, 15484.00
897.1000, 15567.00
898.2280, 15587.00
899.3560, 15666.00
900.4830, 15745.00
901.6110, 15679.00
902.7380, 15754.00
903.8660, 15744.00
904.9930, 15735.00
906.1200, 15835.98
907.2460, 15889.00
908.3730, 15962.00
909.5000, 15992.76
910.6260, 15868.00
911.7520, 15999.00
912.8780, 15976.00
914.0040, 15906.00
915.1290, 16086.00
916.2550, 16053.00
917.3800, 16012.00
918.5050, 16130.00
919.6300, 16149.00
920.7550, 16139.00
921.8800, 16262.00
923.0040, 16261.00
924.1290, 16281.00
925.2530, 16335.00
926.3770, 16297.91
927.5010, 16291.00
928.6250, 16276.90
929.7480, 16293.34
930.8720, 16413.00
931.9950, 16379.00
933.1180, 16412.00
934.2410, 16524.00
935.3640, 16464.00
936.4860, 16395.00
937.6090, 16532.00
938.7310, 16522.00
939.8530, 16762.00
940.9750, 16680.00
942.0970, 16616.00
943.2180, 16832.00
944.3400, 16836.00
945.4610, 16882.00
946.5820, 16825.00
947.7030, 16768.00
948.8240, 16877.00
949.9450, 16996.00
951.0650, 17063.00
952.1860, 17060.00
953.3060, 16938.00
954.4260, 17072.00
955.5460, 17093.00
956.6650, 17205.00
957.7850, 17149.00
958.9040, 17286.00
960.0230, 17159.00
961.1420, 17254.00
962.2610, 17404.00
963.3800, 17306.00
964.4990, 17269.00
965.6170, 17386.00
966.7350, 17405.00
967.8530, 17336.00
968.9710, 17589.00
970.0890, 17622.00
971.2070, 17622.00
972.3240, 17544.72
973.4410, 17747.08
974.5580, 17882.92
975.6750, 17955.84
976.7920, 17777.34
977.9090, 17923.49
979.0250, 17939.50
980.1410, 17950.16
981.2580, 18142.01
982.3740, 18000.04
983.4890, 17926.00
984.6050, 18067.00
985.7200, 18036.00
986.8360, 18149.00
987.9510, 18020.00
989.0660, 18329.00
990.1810, 18266.00
991.2950, 18360.00
992.4100, 18476.00
993.5240, 18300.00
994.6390, 18363.00
995.7530, 18486.00
996.8660, 18510.00
997.9800, 18545.00
999.0940, 18563.00
1000.207, 18487.00
1001.320, 18565.05
1002.433, 18619.00
1003.546, 18617.00
1004.659, 18809.00
1005.772, 18765.00
1006.884, 18830.00
1007.996, 18925.00
1009.108, 18954.00
1010.220, 19098.00
1011.332, 19101.00
1012.444, 19152.00
1013.555, 19293.00
1014.666, 19212.00
1015.777, 19243.00
1016.888, 19348.00
1017.999, 19418.00
1019.110, 19417.00
1020.220, 19505.00
1021.331, 19475.00
1022.441, 19445.00
1023.551, 19631.00
1024.661, 19519.00
1025.770, 19531.00
1026.880, 19632.00
1027.989, 19799.00
1029.098, 19908.00
1030.207, 19968.00
1031.316, 20016.00
1032.425, 20013.00
1033.533, 20050.00
1034.642, 20035.64
1035.750, 20180.00
1036.858, 20022.00
1037.966, 20075.00
1039.073, 20122.00
1040.181, 20350.00
1041.288, 20254.00
1042.396, 20298.00
1043.503, 20341.00
1044.610, 20438.00
1045.716, 20602.00
1046.823, 20582.00
1047.929, 20663.00
1049.036, 20642.00
1050.142, 20749.00
1051.248, 20807.00
1052.353, 20801.00
1053.459, 20833.00
1054.564, 20903.00
1055.670, 20860.00
1056.775, 20892.00
1057.880, 20915.00
1058.985, 21103.00
1060.089, 21134.00
1061.194, 21134.00
1062.298, 21126.00
1063.402, 21226.00
1064.506, 21119.00
1065.610, 21172.17
1066.713, 21428.00
1067.817, 21170.00
1068.920, 21440.00
1070.023, 21428.00
1071.126, 21521.00
1072.229, 21475.00
1073.332, 21614.00
1074.435, 21585.44
1075.537, 21490.00
1076.639, 21591.00
1077.741, 21602.00
1078.843, 21636.00
1079.945, 21757.00
1081.046, 21626.00
1082.148, 21708.00
1083.249, 21865.00
1084.350, 22074.00
1085.451, 21985.00
1086.551, 21759.00
1087.652, 22078.00
1088.752, 22080.00
1089.853, 22207.00
1090.953, 22370.00
1092.053, 22079.00
1093.152, 22153.00
1094.252, 22318.00
1095.351, 22212.00
1096.451, 22444.00
1097.550, 22593.00
1098.649, 22613.00
1099.748, 22393.00
1100.846, 22698.00
1101.945, 22621.00
1103.043, 22599.00
1104.141, 22844.00
1105.239, 22695.00
1106.337, 22794.00
1107.434, 22875.00
1108.532, 23000.00
1109.629, 22941.00
1110.726, 22846.00
1111.823, 23011.00
1112.920, 23130.00
1114.017, 23014.00
1115.113, 23151.00
1116.210, 23064.00
1117.306, 23425.00
1118.402, 23423.00
1119.498, 23482.00
1120.593, 23342.00
1121.689, 23741.00
1122.784, 23761.00
1123.879, 23646.00
1124.974, 23595.00
1126.069, 23638.00
1127.164, 23741.00
1128.259, 23804.00
1129.353, 23770.00
1130.447, 23602.00
1131.541, 23956.00
1132.635, 23840.00
1133.729, 23917.00
1134.822, 24123.00
1135.916, 23950.00
1137.009, 23947.00
1138.102, 23957.00
1139.195, 24028.00
1140.288, 24290.00
1141.380, 24106.00
1142.473, 24225.00
1143.565, 24139.00
1144.657, 24600.00
1145.749, 24338.00
1146.841, 24527.00
1147.932, 24627.00
1149.024, 24644.00
1150.115, 24560.00
1151.206, 24513.00
1152.297, 24735.00
1153.388, 24842.00
1154.479, 24776.00
1155.569, 24979.00
1156.659, 24957.00
1157.750, 24977.00
1158.839, 25139.00
1159.929, 25157.00
1161.019, 25227.00
1162.108, 25442.00
1163.198, 25085.00
1164.287, 25037.00
1165.376, 25303.00
1166.465, 25474.00
1167.553, 25555.00
1168.642, 25496.00
1169.730, 25675.00
1170.818, 25659.00
1171.906, 25869.00
1172.994, 25543.00
1174.082, 25936.00
1175.170, 25864.00
1176.257, 25905.00
1177.344, 26031.00
1178.431, 25929.00
1179.518, 26056.00
1180.605, 25972.00
1181.691, 26225.00
1182.778, 26332.00
1183.864, 26515.00
1184.950, 26558.57
1186.036, 26651.00
1187.122, 26571.00
1188.207, 26473.00
1189.292, 26432.00
1190.378, 26392.00
1191.463, 26731.00
1192.548, 26701.00
1193.632, 26803.00
1194.717, 26993.00
1195.801, 26934.00
1196.886, 27031.00
1197.970, 27102.00
1199.054, 27135.00
1200.137, 27300.00
1201.221, 27263.00
1202.305, 27506.00
1203.388, 27557.00
1204.471, 27625.00
1205.554, 27576.00
1206.637, 27647.00
1207.719, 27625.00
1208.802, 27667.00
1209.884, 27902.00
1210.966, 27914.00
1212.048, 27885.00
1213.130, 28136.00
1214.212, 27928.00
1215.293, 28117.00
1216.374, 28368.00
1217.456, 28181.00
1218.536, 28450.00
1219.617, 28220.00
1220.698, 28638.00
1221.778, 28528.00
1222.859, 28314.00
1223.939, 28652.00
1225.019, 28904.00
1226.099, 28906.00
1227.178, 28956.00
1228.258, 29167.00
1229.337, 29085.00
1230.417, 29005.00
1231.496, 29269.00
1232.574, 29370.00
1233.653, 29134.00
1234.732, 29486.00
1235.810, 29456.00
1236.888, 29623.00
1237.966, 29593.00
1239.044, 29713.00
1240.122, 29824.00
1241.199, 29807.00
1242.277, 30044.00
1243.354, 29890.00
1244.431, 30140.00
1245.508, 30027.00
1246.585, 30048.00
1247.661, 30354.00
1248.738, 30482.00
1249.814, 30426.00
1250.890, 30595.00
1251.966, 30779.00
1253.042, 30532.00
1254.117, 30499.00
1255.193, 30559.00
1256.268, 30912.00
1257.343, 30993.00
1258.418, 31014.00
1259.493, 30990.00
1260.567, 30972.00
1261.642, 31296.00
1262.716, 31503.00
1263.790, 31412.00
1264.864, 31500.00
1265.938, 31620.00
1267.011, 31737.00
1268.085, 31747.00
1269.158, 32003.00
1270.231, 31907.00
1271.304, 32182.00
1272.377, 32103.00
1273.450, 32148.00
1274.522, 32178.00
1275.594, 32353.00
1276.666, 32176.00
1277.738, 32618.00
1278.810, 32561.00
1279.882, 32416.00
1280.953, 32550.00
1282.025, 32757.00
1283.096, 32675.00
1284.167, 32876.00
1285.238, 33177.00
1286.308, 32874.00
1287.379, 33034.00
1288.449, 33250.00
1289.519, 33227.00
1290.589, 33512.00
1291.659, 33432.00
1292.729, 33643.00
1293.798, 33607.00
1294.868, 33803.00
1295.937, 33931.00
1297.006, 33868.00
1298.075, 34166.00
1299.143, 33956.00
1300.212, 34159.00
1301.280, 34368.00
1302.348, 34276.00
1303.416, 34589.00
1304.484, 34887.00
1305.552, 34743.00
1306.620, 34506.00
1307.687, 35081.00
1308.754, 34948.00
1309.821, 35137.00
1310.888, 35277.00
1311.955, 35146.00
1313.021, 35239.00
1314.088, 35252.00
1315.154, 35440.00
1316.220, 35577.00
1317.286, 35659.00
1318.352, 35644.00
1319.417, 35620.00
1320.483, 35890.00
1321.548, 35867.00
1322.613, 36109.00
1323.678, 36272.00
1324.743, 36475.72
1325.807, 36378.00
1326.872, 36460.00
1327.936, 36476.44
1329.000, 36669.00
1330.064, 36584.00
1331.128, 36874.00
1332.191, 37196.00
1333.255, 37137.07
1334.318, 37423.00
1335.381, 37210.00
1336.444, 37362.00
1337.507, 37420.00
1338.569, 37469.00
1339.632, 37698.00
1340.694, 37890.00
1341.756, 37813.00
1342.818, 37963.00
1343.880, 38261.00
1344.941, 38240.00
1346.003, 38215.00
1347.064, 38504.00
1348.125, 38487.00
1349.186, 38461.00
1350.247, 38560.00
1351.308, 38861.00
1352.368, 39139.00
1353.428, 39108.00
1354.489, 39057.00
1355.549, 39289.00
1356.608, 39136.00
1357.668, 39549.00
1358.727, 39595.00
1359.787, 39621.00
1360.846, 39713.00
1361.905, 39754.00
1362.964, 40056.00
1364.022, 39808.00
1365.081, 40251.00
1366.139, 40261.00
1367.197, 40431.00
1368.255, 40227.00
1369.313, 40626.00
1370.371, 40705.00
1371.428, 40604.00
1372.486, 41060.00
1373.543, 41025.00
1374.600, 40869.00
1375.657, 41101.00
1376.713, 41261.00
1377.770, 41471.00
1378.826, 41517.00
1379.882, 41486.00
1380.938, 41919.00
1381.994, 41884.00
1383.050, 41940.00
1384.106, 42382.00
1385.161, 42149.00
1386.216, 42519.00
1387.271, 42680.00
1388.326, 42429.00
1389.381, 42640.00
1390.435, 43083.00
1391.490, 42813.00
1392.544, 42924.00
1393.598, 42925.00
1394.652, 43404.00
1395.705, 43400.00
1396.759, 43489.00
1397.812, 43833.00
1398.866, 43576.00
1399.919, 44142.00
1400.972, 43787.00
1402.024, 44619.00
1403.077, 44241.00
1404.129, 44416.00
1405.181, 44613.00
1406.233, 44722.00
1407.285, 44852.00
1408.337, 44847.00
1409.389, 45008.00
1410.440, 45176.00
1411.491, 45493.00
1412.542, 45436.00
1413.593, 45689.00
1414.644, 45504.00
1415.695, 45923.00
1416.745, 45940.00
1417.795, 46065.00
1418.845, 46007.00
1419.895, 46234.00
1420.945, 46442.00
1421.995, 46527.00
1423.044, 46912.00
1424.093, 46979.00
1425.142, 46816.00
1426.191, 47083.00
1427.240, 47463.00
1428.289, 47294.00
1429.337, 47822.00
1430.385, 47586.00
1431.433, 47562.00
1432.481, 47823.00
1433.529, 48200.00
1434.577, 48383.00
1435.624, 48516.00
1436.672, 48685.00
1437.719, 48692.00
1438.766, 48816.00
1439.812, 49082.00
1440.859, 49263.00
1441.905, 49201.00
1442.952, 49345.00
1443.998, 49395.00
1445.044, 49815.00
1446.090, 49792.00
1447.135, 50077.00
1448.181, 50620.00
1449.226, 50717.00
1450.271, 50858.71
1451.316, 50642.00
1452.361, 50864.00
1453.405, 50935.00
1454.450, 50903.00
1455.494, 51199.00
1456.538, 51549.00
1457.582, 51383.00
1458.626, 51519.00
1459.670, 51873.00
1460.713, 51988.00
1461.757, 52187.99
1462.800, 52257.00
1463.843, 52486.00
1464.886, 52679.00
1465.928, 52763.00
1466.971, 52906.98
1468.013, 52914.00
1469.055, 53033.00
1470.097, 53369.00
1471.139, 53357.00
1472.181, 53371.00
1473.222, 53905.00
1474.263, 54055.00
1475.305, 54271.00
1476.346, 54554.00
1477.386, 54578.25
1478.427, 54452.00
1479.468, 54766.00
1480.508, 54843.00
1481.548, 55141.00
1482.588, 55334.00
1483.628, 55407.00
1484.668, 55728.00
1485.707, 55414.00
1486.747, 55955.00
1487.786, 55992.00
1488.825, 56178.00
1489.864, 56581.00
1490.902, 56489.00
1491.941, 57119.00
1492.979, 57097.00
1494.017, 56883.00
1495.055, 57241.00
1496.093, 57334.00
1497.131, 57609.00
1498.168, 57769.00
1499.206, 57966.00
1500.243, 57854.00
1501.280, 58198.00
1502.317, 58241.00
1503.354, 59113.00
1504.390, 58872.00
1505.426, 58736.00
1506.463, 59239.00
1507.499, 59072.00
1508.535, 59603.00
1509.570, 59401.00
1510.606, 59701.00
1511.641, 59933.00
1512.676, 60255.00
1513.711, 60128.00
1514.746, 60542.00
1515.781, 60680.00
1516.816, 60883.00
1517.850, 61139.96
1518.884, 61355.00
1519.918, 61586.00
1520.952, 61505.00
1521.986, 61785.00
##END=



