##NAMES=Danburite
##RRUFFID=R040013
##IDEAL CHEMISTRY=CaB_2_Si_2_O_8_
##LOCALITY=Charcas, San Luis Potosi, Mexico
##OWNER=RRUFF
##SOURCE=Marcus Origlieri
##DESCRIPTION=Colorless prismatic single crystal
##STATUS=The identification of this mineral has been confirmed by X-ray diffraction and chemical analysis
##URL=rruff.info/R040013
##MEASURED CHEMISTRY=Ca_1.00_B_2.00_Si_2.00_O_8_
##PIN_ID=M00010
##ORIENTATION=Laser parallel to a* (1 0 0). Fiducial mark perpendicular to laser is parallel to b [0 1 0]
26.288, 1.322e+003
27.694, 1.327e+003
29.099, 1.300e+003
30.504, 1.319e+003
31.909, 1.305e+003
33.313, 1.280e+003
34.717, 1.298e+003
36.121, 1.272e+003
37.525, 1.247e+003
38.929, 1.275e+003
40.332, 1.222e+003
41.735, 1.219e+003
43.138, 1.210e+003
44.541, 1.174e+003
45.943, 1.150e+003
47.345, 1.141e+003
48.747, 1.124e+003
50.149, 1.097e+003
51.551, 1.081e+003
52.952, 1.066e+003
54.353, 1.038e+003
55.754, 1.012e+003
57.155, 1.013e+003
58.555, 1.003e+003
59.955, 9.910e+002
61.355, 9.600e+002
62.755, 9.540e+002
64.154, 9.640e+002
65.553, 9.350e+002
66.952, 9.420e+002
68.351, 9.320e+002
69.750, 9.370e+002
71.148, 9.600e+002
72.546, 9.440e+002
73.944, 9.890e+002
75.342, 9.780e+002
76.739, 9.960e+002
78.136, 1.032e+003
79.533, 1.062e+003
80.930, 1.116e+003
82.327, 1.140e+003
83.723, 1.171e+003
85.119, 1.172e+003
86.515, 1.230e+003
87.910, 1.241e+003
89.306, 1.253e+003
90.701, 1.230e+003
92.096, 1.220e+003
93.490, 1.278e+003
94.885, 1.278e+003
96.279, 1.300e+003
97.673, 1.290e+003
99.067, 1.349e+003
100.461, 1.344e+003
101.854, 1.374e+003
103.247, 1.429e+003
104.640, 1.431e+003
106.032, 1.494e+003
107.425, 1.504e+003
108.817, 1.630e+003
110.209, 1.818e+003
111.601, 3.180e+003
112.992, 5.675e+003
114.384, 3.140e+003
115.775, 2.108e+003
117.166, 2.236e+003
118.556, 2.647e+003
119.947, 3.372e+003
121.337, 4.808e+003
122.727, 6.217e+003
124.116, 6.633e+003
125.506, 6.982e+003
126.895, 8.429e+003
128.284, 8.958e+003
129.673, 7.093e+003
131.062, 4.681e+003
132.450, 3.222e+003
133.838, 2.610e+003
135.226, 2.238e+003
136.614, 2.113e+003
138.001, 2.061e+003
139.388, 2.040e+003
140.775, 1.943e+003
142.162, 1.889e+003
143.549, 1.900e+003
144.935, 1.949e+003
146.321, 2.082e+003
147.707, 2.354e+003
149.093, 2.924e+003
150.478, 3.148e+003
151.863, 2.793e+003
153.248, 2.320e+003
154.633, 2.142e+003
156.018, 2.069e+003
157.402, 2.216e+003
158.786, 2.629e+003
160.170, 3.229e+003
161.554, 4.480e+003
162.937, 7.605e+003
164.320, 1.001e+004
165.703, 8.593e+003
167.086, 5.383e+003
168.469, 3.479e+003
169.851, 2.578e+003
171.233, 2.176e+003
172.615, 2.112e+003
173.996, 2.058e+003
175.378, 2.116e+003
176.759, 2.325e+003
178.140, 2.721e+003
179.521, 3.192e+003
180.901, 3.281e+003
182.281, 2.911e+003
183.662, 2.462e+003
185.041, 2.199e+003
186.421, 2.112e+003
187.800, 2.051e+003
189.180, 2.062e+003
190.558, 2.129e+003
191.937, 2.134e+003
193.316, 2.096e+003
194.694, 2.130e+003
196.072, 2.244e+003
197.450, 2.434e+003
198.827, 2.875e+003
200.205, 3.785e+003
201.582, 4.800e+003
202.959, 5.222e+003
204.336, 4.536e+003
205.712, 3.646e+003
207.088, 3.244e+003
208.465, 3.207e+003
209.840, 3.154e+003
211.216, 2.895e+003
212.591, 2.511e+003
213.967, 2.215e+003
215.341, 2.078e+003
216.716, 1.991e+003
218.091, 1.959e+003
219.465, 1.918e+003
220.839, 1.914e+003
222.213, 1.901e+003
223.586, 1.883e+003
224.960, 1.903e+003
226.333, 1.883e+003
227.706, 1.921e+003
229.079, 1.910e+003
230.451, 1.929e+003
231.823, 1.964e+003
233.195, 1.981e+003
234.567, 2.018e+003
235.939, 2.194e+003
237.310, 2.356e+003
238.682, 2.734e+003
240.052, 3.321e+003
241.423, 4.307e+003
242.794, 5.526e+003
244.164, 6.081e+003
245.534, 5.505e+003
246.904, 4.448e+003
248.274, 3.576e+003
249.643, 2.982e+003
251.012, 2.652e+003
252.381, 2.440e+003
253.750, 2.309e+003
255.118, 2.206e+003
256.487, 2.174e+003
257.855, 2.131e+003
259.223, 2.061e+003
260.590, 2.066e+003
261.958, 2.015e+003
263.325, 2.005e+003
264.692, 2.007e+003
266.059, 2.027e+003
267.425, 2.038e+003
268.791, 2.024e+003
270.158, 2.007e+003
271.523, 1.996e+003
272.889, 2.018e+003
274.255, 2.038e+003
275.620, 2.050e+003
276.985, 2.071e+003
278.350, 2.103e+003
279.714, 2.024e+003
281.078, 2.008e+003
282.443, 1.996e+003
283.806, 1.960e+003
285.170, 2.014e+003
286.534, 1.980e+003
287.897, 1.972e+003
289.260, 2.017e+003
290.623, 2.036e+003
291.985, 2.057e+003
293.348, 2.067e+003
294.710, 2.093e+003
296.072, 2.132e+003
297.433, 2.186e+003
298.795, 2.252e+003
300.156, 2.366e+003
301.517, 2.608e+003
302.878, 3.009e+003
304.239, 3.322e+003
305.599, 3.392e+003
306.959, 3.498e+003
308.319, 3.846e+003
309.679, 4.352e+003
311.038, 4.345e+003
312.398, 4.036e+003
313.757, 3.479e+003
315.116, 3.008e+003
316.474, 2.714e+003
317.833, 2.492e+003
319.191, 2.347e+003
320.549, 2.282e+003
321.907, 2.238e+003
323.264, 2.235e+003
324.622, 2.198e+003
325.979, 2.209e+003
327.336, 2.204e+003
328.692, 2.235e+003
330.049, 2.202e+003
331.405, 2.258e+003
332.761, 2.293e+003
334.117, 2.390e+003
335.473, 2.497e+003
336.828, 2.654e+003
338.183, 2.899e+003
339.538, 3.279e+003
340.893, 4.092e+003
342.247, 5.404e+003
343.602, 7.571e+003
344.956, 1.039e+004
346.310, 1.213e+004
347.663, 1.145e+004
349.017, 8.913e+003
350.370, 6.508e+003
351.723, 4.849e+003
353.076, 3.946e+003
354.428, 3.302e+003
355.780, 2.940e+003
357.133, 2.754e+003
358.484, 2.590e+003
359.836, 2.487e+003
361.188, 2.423e+003
362.539, 2.391e+003
363.890, 2.378e+003
365.241, 2.322e+003
366.591, 2.305e+003
367.942, 2.295e+003
369.292, 2.270e+003
370.642, 2.268e+003
371.992, 2.273e+003
373.341, 2.212e+003
374.691, 2.254e+003
376.040, 2.222e+003
377.388, 2.218e+003
378.737, 2.209e+003
380.086, 2.244e+003
381.434, 2.206e+003
382.782, 2.246e+003
384.130, 2.212e+003
385.477, 2.296e+003
386.825, 2.322e+003
388.172, 2.428e+003
389.519, 2.442e+003
390.865, 2.622e+003
392.212, 2.710e+003
393.558, 2.785e+003
394.904, 2.716e+003
396.250, 2.547e+003
397.596, 2.447e+003
398.941, 2.338e+003
400.286, 2.349e+003
401.631, 2.325e+003
402.976, 2.313e+003
404.321, 2.334e+003
405.665, 2.319e+003
407.009, 2.334e+003
408.353, 2.360e+003
409.697, 2.366e+003
411.040, 2.371e+003
412.384, 2.367e+003
413.727, 2.481e+003
415.070, 2.510e+003
416.412, 2.591e+003
417.755, 2.685e+003
419.097, 2.905e+003
420.439, 3.126e+003
421.781, 3.302e+003
423.122, 3.498e+003
424.464, 3.434e+003
425.805, 3.194e+003
427.146, 2.934e+003
428.486, 2.682e+003
429.827, 2.588e+003
431.167, 2.508e+003
432.507, 2.381e+003
433.847, 2.420e+003
435.187, 2.371e+003
436.526, 2.423e+003
437.865, 2.464e+003
439.204, 2.532e+003
440.543, 2.503e+003
441.882, 2.538e+003
443.220, 2.442e+003
444.558, 2.365e+003
445.896, 2.337e+003
447.234, 2.343e+003
448.572, 2.350e+003
449.909, 2.307e+003
451.246, 2.304e+003
452.583, 2.355e+003
453.919, 2.377e+003
455.256, 2.389e+003
456.592, 2.380e+003
457.928, 2.386e+003
459.264, 2.425e+003
460.600, 2.456e+003
461.935, 2.446e+003
463.270, 2.502e+003
464.605, 2.512e+003
465.940, 2.482e+003
467.274, 2.545e+003
468.609, 2.588e+003
469.943, 2.724e+003
471.277, 2.844e+003
472.610, 3.209e+003
473.944, 3.751e+003
475.277, 4.697e+003
476.610, 6.232e+003
477.943, 7.614e+003
479.275, 7.650e+003
480.608, 6.419e+003
481.940, 4.935e+003
483.272, 3.936e+003
484.604, 3.338e+003
485.935, 3.034e+003
487.267, 2.812e+003
488.598, 2.697e+003
489.929, 2.655e+003
491.260, 2.598e+003
492.590, 2.544e+003
493.920, 2.498e+003
495.250, 2.479e+003
496.580, 2.473e+003
497.910, 2.471e+003
499.239, 2.468e+003
500.569, 2.431e+003
501.898, 2.502e+003
503.226, 2.425e+003
504.555, 2.464e+003
505.883, 2.440e+003
507.212, 2.447e+003
508.540, 2.439e+003
509.867, 2.442e+003
511.195, 2.445e+003
512.522, 2.485e+003
513.849, 2.438e+003
515.176, 2.455e+003
516.503, 2.465e+003
517.829, 2.451e+003
519.156, 2.466e+003
520.482, 2.465e+003
521.808, 2.461e+003
523.133, 2.491e+003
524.459, 2.448e+003
525.784, 2.461e+003
527.109, 2.522e+003
528.434, 2.515e+003
529.758, 2.490e+003
531.083, 2.516e+003
532.407, 2.498e+003
533.731, 2.539e+003
535.055, 2.528e+003
536.378, 2.501e+003
537.701, 2.516e+003
539.025, 2.514e+003
540.348, 2.519e+003
541.670, 2.554e+003
542.993, 2.539e+003
544.315, 2.547e+003
545.637, 2.602e+003
546.959, 2.610e+003
548.281, 2.623e+003
549.602, 2.641e+003
550.923, 2.683e+003
552.244, 2.702e+003
553.565, 2.709e+003
554.886, 2.748e+003
556.206, 2.827e+003
557.526, 2.930e+003
558.846, 3.010e+003
560.166, 3.316e+003
561.486, 3.411e+003
562.805, 3.364e+003
564.124, 3.222e+003
565.443, 3.081e+003
566.762, 2.975e+003
568.080, 2.921e+003
569.399, 2.865e+003
570.717, 2.905e+003
572.035, 2.941e+003
573.352, 2.924e+003
574.670, 2.896e+003
575.987, 2.991e+003
577.304, 2.971e+003
578.621, 3.052e+003
579.938, 3.098e+003
581.254, 3.126e+003
582.570, 3.180e+003
583.886, 3.296e+003
585.202, 3.317e+003
586.518, 3.389e+003
587.833, 3.505e+003
589.148, 3.621e+003
590.463, 3.744e+003
591.778, 3.963e+003
593.093, 4.157e+003
594.407, 4.394e+003
595.721, 4.866e+003
597.035, 5.294e+003
598.349, 5.984e+003
599.662, 6.959e+003
600.976, 8.315e+003
602.289, 1.047e+004
603.602, 1.354e+004
604.914, 1.829e+004
606.227, 2.453e+004
607.539, 3.007e+004
608.851, 3.248e+004
610.163, 3.004e+004
611.475, 2.422e+004
612.786, 1.889e+004
614.097, 1.457e+004
615.408, 1.123e+004
616.719, 9.307e+003
618.030, 7.775e+003
619.340, 6.976e+003
620.651, 6.368e+003
621.961, 6.019e+003
623.270, 6.180e+003
624.580, 6.233e+003
625.889, 6.298e+003
627.199, 5.985e+003
628.507, 5.502e+003
629.816, 5.081e+003
631.125, 4.629e+003
632.433, 4.291e+003
633.741, 3.994e+003
635.049, 3.870e+003
636.357, 3.767e+003
637.664, 3.686e+003
638.972, 3.543e+003
640.279, 3.458e+003
641.586, 3.449e+003
642.893, 3.375e+003
644.199, 3.371e+003
645.505, 3.257e+003
646.811, 3.197e+003
648.117, 3.247e+003
649.423, 3.220e+003
650.728, 3.182e+003
652.034, 3.178e+003
653.339, 3.136e+003
654.644, 3.157e+003
655.948, 3.100e+003
657.253, 3.119e+003
658.557, 3.106e+003
659.861, 3.051e+003
661.165, 3.075e+003
662.468, 3.018e+003
663.772, 3.067e+003
665.075, 3.059e+003
666.378, 3.023e+003
667.681, 3.034e+003
668.983, 3.033e+003
670.286, 2.985e+003
671.588, 3.045e+003
672.890, 3.040e+003
674.192, 3.051e+003
675.493, 3.028e+003
676.795, 3.022e+003
678.096, 3.023e+003
679.397, 3.025e+003
680.697, 3.019e+003
681.998, 2.999e+003
683.298, 2.993e+003
684.598, 2.944e+003
685.898, 2.997e+003
687.198, 3.049e+003
688.498, 2.987e+003
689.797, 3.011e+003
691.096, 3.047e+003
692.395, 2.985e+003
693.694, 3.013e+003
694.992, 3.013e+003
696.290, 3.020e+003
697.589, 3.089e+003
698.886, 3.028e+003
700.184, 3.069e+003
701.482, 3.044e+003
702.779, 3.095e+003
704.076, 3.122e+003
705.373, 3.072e+003
706.669, 3.111e+003
707.966, 3.031e+003
709.262, 3.038e+003
710.558, 3.125e+003
711.854, 3.166e+003
713.150, 3.175e+003
714.445, 3.185e+003
715.740, 3.226e+003
717.035, 3.182e+003
718.330, 3.111e+003
719.625, 3.194e+003
720.919, 3.152e+003
722.214, 3.124e+003
723.508, 3.107e+003
724.801, 3.082e+003
726.095, 3.136e+003
727.388, 3.102e+003
728.682, 3.086e+003
729.975, 3.107e+003
731.267, 3.123e+003
732.560, 3.115e+003
733.852, 3.122e+003
735.145, 3.072e+003
736.437, 3.134e+003
737.728, 3.132e+003
739.020, 3.143e+003
740.311, 3.100e+003
741.603, 3.097e+003
742.894, 3.136e+003
744.184, 3.134e+003
745.475, 3.136e+003
746.765, 3.172e+003
748.055, 3.146e+003
749.345, 3.164e+003
750.635, 3.202e+003
751.925, 3.183e+003
753.214, 3.202e+003
754.503, 3.112e+003
755.792, 3.151e+003
757.081, 3.184e+003
758.370, 3.201e+003
759.658, 3.178e+003
760.946, 3.213e+003
762.234, 3.211e+003
763.522, 3.156e+003
764.809, 3.235e+003
766.097, 3.202e+003
767.384, 3.256e+003
768.671, 3.296e+003
769.958, 3.311e+003
771.244, 3.322e+003
772.530, 3.399e+003
773.817, 3.413e+003
775.102, 3.443e+003
776.388, 3.428e+003
777.674, 3.347e+003
778.959, 3.344e+003
780.244, 3.270e+003
781.529, 3.288e+003
782.814, 3.216e+003
784.098, 3.220e+003
785.383, 3.250e+003
786.667, 3.223e+003
787.951, 3.229e+003
789.235, 3.250e+003
790.518, 3.210e+003
791.801, 3.206e+003
793.084, 3.215e+003
794.367, 3.226e+003
795.650, 3.275e+003
796.933, 3.269e+003
798.215, 3.284e+003
799.497, 3.181e+003
800.779, 3.267e+003
802.061, 3.230e+003
803.342, 3.241e+003
804.624, 3.282e+003
805.905, 3.196e+003
807.186, 3.265e+003
808.466, 3.257e+003
809.747, 3.241e+003
811.027, 3.286e+003
812.307, 3.262e+003
813.587, 3.254e+003
814.867, 3.300e+003
816.146, 3.281e+003
817.426, 3.303e+003
818.705, 3.291e+003
819.984, 3.271e+003
821.263, 3.317e+003
822.541, 3.325e+003
823.819, 3.348e+003
825.098, 3.250e+003
826.375, 3.326e+003
827.653, 3.324e+003
828.931, 3.316e+003
830.208, 3.330e+003
831.485, 3.317e+003
832.762, 3.340e+003
834.039, 3.362e+003
835.315, 3.329e+003
836.592, 3.397e+003
837.868, 3.302e+003
839.144, 3.371e+003
840.420, 3.378e+003
841.695, 3.390e+003
842.970, 3.372e+003
844.246, 3.408e+003
845.521, 3.376e+003
846.795, 3.414e+003
848.070, 3.398e+003
849.344, 3.436e+003
850.618, 3.384e+003
851.892, 3.392e+003
853.166, 3.394e+003
854.440, 3.501e+003
855.713, 3.395e+003
856.986, 3.446e+003
858.259, 3.434e+003
859.532, 3.423e+003
860.804, 3.452e+003
862.077, 3.504e+003
863.349, 3.496e+003
864.621, 3.474e+003
865.893, 3.488e+003
867.164, 3.547e+003
868.436, 3.468e+003
869.707, 3.508e+003
870.978, 3.516e+003
872.248, 3.527e+003
873.519, 3.525e+003
874.789, 3.499e+003
876.060, 3.535e+003
877.330, 3.536e+003
878.599, 3.556e+003
879.869, 3.596e+003
881.138, 3.534e+003
882.408, 3.595e+003
883.677, 3.580e+003
884.945, 3.652e+003
886.214, 3.606e+003
887.482, 3.636e+003
888.751, 3.676e+003
890.019, 3.648e+003
891.287, 3.686e+003
892.554, 3.765e+003
893.822, 3.747e+003
895.089, 3.792e+003
896.356, 3.804e+003
897.623, 3.904e+003
898.889, 3.894e+003
900.156, 3.960e+003
901.422, 4.078e+003
902.688, 4.066e+003
903.954, 4.076e+003
905.220, 4.164e+003
906.485, 4.166e+003
907.750, 4.161e+003
909.015, 4.224e+003
910.280, 4.298e+003
911.545, 4.432e+003
912.809, 4.449e+003
914.074, 4.610e+003
915.338, 4.681e+003
916.602, 4.712e+003
917.865, 4.762e+003
919.129, 4.739e+003
920.392, 4.701e+003
921.655, 4.752e+003
922.918, 4.567e+003
924.181, 4.539e+003
925.443, 4.410e+003
926.706, 4.319e+003
927.968, 4.284e+003
929.230, 4.247e+003
930.491, 4.214e+003
931.753, 4.255e+003
933.014, 4.223e+003
934.276, 4.245e+003
935.536, 4.254e+003
936.797, 4.368e+003
938.058, 4.553e+003
939.318, 4.646e+003
940.578, 4.857e+003
941.838, 5.162e+003
943.098, 5.413e+003
944.358, 5.712e+003
945.617, 5.889e+003
946.876, 5.937e+003
948.135, 6.011e+003
949.394, 5.671e+003
950.653, 5.526e+003
951.911, 5.191e+003
953.169, 4.985e+003
954.427, 4.747e+003
955.685, 4.689e+003
956.943, 4.613e+003
958.200, 4.564e+003
959.458, 4.585e+003
960.715, 4.612e+003
961.971, 4.634e+003
963.228, 4.833e+003
964.485, 5.015e+003
965.741, 5.319e+003
966.997, 5.716e+003
968.253, 6.256e+003
969.508, 7.010e+003
970.764, 7.639e+003
972.019, 7.856e+003
973.274, 7.681e+003
974.529, 7.104e+003
975.784, 6.481e+003
977.039, 6.007e+003
978.293, 5.532e+003
979.547, 5.346e+003
980.801, 5.091e+003
982.055, 4.888e+003
983.308, 4.735e+003
984.562, 4.630e+003
985.815, 4.572e+003
987.068, 4.551e+003
988.321, 4.529e+003
989.573, 4.496e+003
990.826, 4.349e+003
992.078, 4.442e+003
993.330, 4.407e+003
994.582, 4.470e+003
995.833, 4.479e+003
997.085, 4.550e+003
998.336, 4.544e+003
999.587, 4.691e+003
1000.838, 4.857e+003
1002.088, 5.111e+003
1003.339, 5.379e+003
1004.589, 5.693e+003
1005.839, 6.218e+003
1007.089, 6.625e+003
1008.339, 6.423e+003
1009.588, 5.945e+003
1010.838, 5.412e+003
1012.087, 5.026e+003
1013.336, 4.794e+003
1014.584, 4.570e+003
1015.833, 4.380e+003
1017.081, 4.404e+003
1018.330, 4.278e+003
1019.577, 4.257e+003
1020.825, 4.278e+003
1022.073, 4.310e+003
1023.320, 4.334e+003
1024.567, 4.287e+003
1025.814, 4.287e+003
1027.061, 4.296e+003
1028.308, 4.226e+003
1029.554, 4.229e+003
1030.800, 4.189e+003
1032.046, 4.147e+003
1033.292, 4.082e+003
1034.538, 4.125e+003
1035.783, 4.168e+003
1037.029, 4.083e+003
1038.274, 4.108e+003
1039.519, 4.062e+003
1040.763, 3.987e+003
1042.008, 4.082e+003
1043.252, 4.106e+003
1044.496, 4.058e+003
1045.740, 4.072e+003
1046.984, 4.051e+003
1048.228, 4.048e+003
1049.471, 4.046e+003
1050.714, 4.073e+003
1051.957, 4.087e+003
1053.200, 4.078e+003
1054.442, 4.029e+003
1055.685, 4.116e+003
1056.927, 4.068e+003
1058.169, 4.049e+003
1059.411, 4.154e+003
1060.652, 4.099e+003
1061.894, 4.138e+003
1063.135, 4.143e+003
1064.376, 4.088e+003
1065.617, 4.212e+003
1066.858, 4.080e+003
1068.098, 4.160e+003
1069.339, 4.185e+003
1070.579, 4.101e+003
1071.819, 4.304e+003
1073.058, 4.201e+003
1074.298, 4.211e+003
1075.537, 4.295e+003
1076.776, 4.230e+003
1078.015, 4.265e+003
1079.254, 4.249e+003
1080.493, 4.278e+003
1081.731, 4.322e+003
1082.969, 4.266e+003
1084.207, 4.388e+003
1085.445, 4.299e+003
1086.683, 4.338e+003
1087.920, 4.416e+003
1089.157, 4.368e+003
1090.394, 4.411e+003
1091.631, 4.507e+003
1092.868, 4.514e+003
1094.105, 4.634e+003
1095.341, 4.662e+003
1096.577, 4.713e+003
1097.813, 4.862e+003
1099.049, 4.841e+003
1100.284, 5.026e+003
1101.519, 5.142e+003
1102.755, 5.215e+003
1103.990, 5.320e+003
1105.224, 5.310e+003
1106.459, 5.376e+003
1107.693, 5.328e+003
1108.928, 5.222e+003
1110.162, 5.155e+003
1111.395, 5.101e+003
1112.629, 4.913e+003
1113.863, 4.902e+003
1115.096, 4.778e+003
1116.329, 4.685e+003
1117.562, 4.691e+003
1118.795, 4.591e+003
1120.027, 4.621e+003
1121.259, 4.592e+003
1122.492, 4.539e+003
1123.723, 4.547e+003
1124.955, 4.439e+003
1126.187, 4.374e+003
1127.418, 4.480e+003
1128.649, 4.358e+003
1129.880, 4.390e+003
1131.111, 4.303e+003
1132.342, 4.326e+003
1133.572, 4.362e+003
1134.802, 4.279e+003
1136.033, 4.293e+003
1137.262, 4.290e+003
1138.492, 4.305e+003
1139.722, 4.246e+003
1140.951, 4.288e+003
1142.180, 4.240e+003
1143.409, 4.266e+003
1144.638, 4.257e+003
1145.866, 4.227e+003
1147.095, 4.291e+003
1148.323, 4.240e+003
1149.551, 4.246e+003
1150.779, 4.242e+003
1152.006, 4.183e+003
1153.234, 4.234e+003
1154.461, 4.163e+003
1155.688, 4.324e+003
1156.915, 4.294e+003
1158.141, 4.267e+003
1159.368, 4.303e+003
1160.594, 4.333e+003
1161.820, 4.275e+003
1163.046, 4.324e+003
1164.272, 4.294e+003
1165.498, 4.288e+003
1166.723, 4.344e+003
1167.948, 4.292e+003
1169.173, 4.464e+003
1170.398, 4.453e+003
1171.623, 4.435e+003
1172.847, 4.447e+003
1174.071, 4.474e+003
1175.295, 4.465e+003
1176.519, 4.508e+003
1177.743, 4.423e+003
1178.966, 4.444e+003
1180.190, 4.456e+003
1181.413, 4.398e+003
1182.636, 4.457e+003
1183.858, 4.370e+003
1185.081, 4.362e+003
1186.303, 4.385e+003
1187.526, 4.377e+003
1188.748, 4.422e+003
1189.969, 4.357e+003
1191.191, 4.363e+003
1192.412, 4.388e+003
1193.634, 4.357e+003
1194.855, 4.368e+003
1196.076, 4.315e+003
1197.296, 4.294e+003
1198.517, 4.408e+003
1199.737, 4.354e+003
1200.957, 4.330e+003
1202.177, 4.428e+003
1203.397, 4.308e+003
1204.617, 4.418e+003
1205.836, 4.371e+003
1207.055, 4.362e+003
1208.274, 4.391e+003
1209.493, 4.328e+003
1210.712, 4.312e+003
1211.930, 4.433e+003
1213.148, 4.413e+003
1214.367, 4.350e+003
1215.584, 4.385e+003
1216.802, 4.395e+003
1218.020, 4.452e+003
1219.237, 4.417e+003
1220.454, 4.355e+003
1221.671, 4.415e+003
1222.888, 4.424e+003
1224.105, 4.379e+003
1225.321, 4.423e+003
1226.537, 4.373e+003
1227.753, 4.407e+003
1228.969, 4.421e+003
1230.185, 4.407e+003
1231.400, 4.401e+003
1232.616, 4.352e+003
1233.831, 4.404e+003
1235.046, 4.419e+003
1236.261, 4.491e+003
1237.475, 4.457e+003
1238.689, 4.442e+003
1239.904, 4.414e+003
1241.118, 4.539e+003
1242.332, 4.426e+003
1243.545, 4.439e+003
1244.759, 4.496e+003
1245.972, 4.435e+003
1247.185, 4.418e+003
1248.398, 4.497e+003
1249.611, 4.451e+003
1250.823, 4.475e+003
1252.036, 4.418e+003
1253.248, 4.422e+003
1254.460, 4.480e+003
1255.671, 4.504e+003
1256.883, 4.456e+003
1258.095, 4.544e+003
1259.306, 4.468e+003
1260.517, 4.485e+003
1261.728, 4.519e+003
1262.938, 4.426e+003
1264.149, 4.516e+003
1265.359, 4.419e+003
1266.569, 4.462e+003
1267.779, 4.549e+003
1268.989, 4.455e+003
1270.199, 4.482e+003
1271.408, 4.514e+003
1272.617, 4.450e+003
1273.826, 4.493e+003
1275.035, 4.496e+003
1276.244, 4.500e+003
1277.452, 4.534e+003
1278.661, 4.458e+003
1279.869, 4.447e+003
1281.077, 4.506e+003
1282.285, 4.495e+003
1283.492, 4.491e+003
1284.700, 4.478e+003
1285.907, 4.491e+003
1287.114, 4.510e+003
1288.321, 4.433e+003
1289.527, 4.500e+003
1290.734, 4.525e+003
1291.940, 4.482e+003
1293.146, 4.553e+003
1294.352, 4.577e+003
1295.558, 4.482e+003
1296.763, 4.608e+003
1297.969, 4.517e+003
1299.174, 4.555e+003
1300.379, 4.552e+003
1301.584, 4.478e+003
1302.788, 4.558e+003
1303.993, 4.595e+003
1305.197, 4.535e+003
1306.401, 4.617e+003
1307.605, 4.608e+003
1308.809, 4.584e+003
1310.013, 4.592e+003
1311.216, 4.584e+003
1312.419, 4.617e+003
1313.622, 4.617e+003
1314.825, 4.538e+003
1316.028, 4.605e+003
1317.230, 4.574e+003
1318.432, 4.559e+003
1319.634, 4.645e+003
1320.836, 4.663e+003
1322.038, 4.623e+003
1323.240, 4.675e+003
1324.441, 4.668e+003
1325.642, 4.684e+003
1326.843, 4.624e+003
1328.044, 4.639e+003
1329.245, 4.685e+003
1330.445, 4.727e+003
1331.645, 4.650e+003
1332.845, 4.688e+003
1334.045, 4.657e+003
1335.245, 4.658e+003
1336.445, 4.737e+003
1337.644, 4.691e+003
1338.843, 4.708e+003
1340.042, 4.648e+003
1341.241, 4.683e+003
1342.440, 4.799e+003
1343.638, 4.682e+003
1344.836, 4.751e+003
1346.034, 4.764e+003
1347.232, 4.776e+003
1348.430, 4.731e+003
1349.628, 4.757e+003
1350.825, 4.738e+003
1352.022, 4.769e+003
1353.219, 4.715e+003
1354.416, 4.716e+003
1355.613, 4.759e+003
1356.809, 4.761e+003
1358.005, 4.765e+003
1359.202, 4.806e+003
1360.398, 4.721e+003
1361.593, 4.813e+003
1362.789, 4.833e+003
1363.984, 4.692e+003
1365.179, 4.798e+003
1366.374, 4.791e+003
1367.569, 4.804e+003
1368.764, 4.841e+003
1369.958, 4.791e+003
1371.153, 4.800e+003
1372.347, 4.828e+003
1373.541, 4.818e+003
1374.735, 4.886e+003
1375.928, 4.841e+003
1377.122, 4.805e+003
1378.315, 4.881e+003
1379.508, 4.846e+003
1380.701, 4.825e+003
1381.893, 4.840e+003
1383.086, 4.879e+003
1384.278, 4.839e+003
1385.470, 4.934e+003
1386.662, 4.837e+003
1387.854, 4.911e+003
1389.046, 4.941e+003
1390.237, 4.891e+003
1391.428, 4.928e+003
1392.619, 4.930e+003
1393.810, 4.899e+003
1395.001, 4.945e+003
1396.191, 4.900e+003
1397.382, 4.902e+003
1398.572, 4.888e+003
1399.762, 4.866e+003
1400.952, 4.944e+003
1402.141, 4.973e+003
1403.331, 4.974e+003
1404.520, 4.976e+003
1405.709, 4.893e+003
1406.898, 4.995e+003
1408.087, 4.980e+003
1409.275, 5.013e+003
1410.464, 4.983e+003
1411.652, 4.966e+003
1412.840, 5.008e+003
1414.028, 5.042e+003
1415.215, 5.009e+003
1416.403, 4.998e+003
1417.590, 5.079e+003
1418.777, 5.073e+003
1419.964, 5.079e+003
1421.151, 5.087e+003
1422.338, 5.028e+003
1423.524, 5.024e+003
1424.710, 5.066e+003
1425.896, 5.057e+003
1427.082, 5.059e+003
1428.268, 5.099e+003
1429.453, 5.001e+003
1430.639, 5.118e+003
1431.824, 5.121e+003
1433.009, 5.099e+003
1434.194, 5.143e+003
1435.378, 5.071e+003
1436.563, 5.134e+003
1437.747, 5.176e+003
1438.931, 5.196e+003
1440.115, 5.190e+003
1441.299, 5.195e+003
1442.482, 5.179e+003
1443.666, 5.271e+003
1444.849, 5.214e+003
1446.032, 5.127e+003
1447.215, 5.300e+003
1448.397, 5.214e+003
1449.580, 5.210e+003
1450.762, 5.308e+003
1451.944, 5.248e+003
1453.126, 5.301e+003
1454.308, 5.275e+003
1455.490, 5.254e+003
1456.671, 5.284e+003
1457.852, 5.260e+003
1459.033, 5.260e+003
1460.214, 5.252e+003
1461.395, 5.185e+003
1462.575, 5.256e+003
1463.756, 5.310e+003
1464.936, 5.258e+003
1466.116, 5.262e+003
1467.296, 5.254e+003
1468.475, 5.214e+003
1469.655, 5.303e+003
1470.834, 5.292e+003
1472.013, 5.277e+003
1473.192, 5.290e+003
1474.371, 5.227e+003
1475.550, 5.325e+003
1476.728, 5.281e+003
1477.906, 5.196e+003
1479.084, 5.243e+003
1480.262, 5.305e+003
1481.440, 5.218e+003
1482.617, 5.251e+003
1483.795, 5.286e+003
1484.972, 5.281e+003
1486.149, 5.300e+003
1487.326, 5.257e+003
1488.502, 5.313e+003
1489.679, 5.326e+003
1490.855, 5.284e+003
1492.031, 5.261e+003
1493.207, 5.302e+003
1494.383, 5.290e+003
1495.559, 5.346e+003
1496.734, 5.242e+003
1497.909, 5.406e+003
1499.084, 5.256e+003
1500.259, 5.289e+003
1501.434, 5.342e+003
1502.608, 5.296e+003
1503.783, 5.530e+003
1504.957, 1.790e+002
##END=



