##NAMES=Danburite
##RRUFFID=R040013
##IDEAL CHEMISTRY=CaB_2_Si_2_O_8_
##LOCALITY=Charcas, San Luis Potosi, Mexico
##OWNER=RRUFF
##SOURCE=Marcus Origlieri
##DESCRIPTION=Colorless prismatic single crystal
##STATUS=The identification of this mineral has been confirmed by X-ray diffraction and chemical analysis
##URL=rruff.info/R040013
##MEASURED CHEMISTRY=Ca_1.00_B_2.00_Si_2.00_O_8_
##PIN_ID=M00012
##ORIENTATION=Laser parallel to c* (0 0 1). Fiducial mark perpendicular to laser is parallel to a [1 0 0]
26.288, 2.244e+003
27.694, 2.242e+003
29.099, 2.170e+003
30.504, 2.129e+003
31.909, 2.099e+003
33.313, 2.095e+003
34.717, 2.043e+003
36.121, 2.020e+003
37.525, 2.027e+003
38.929, 2.045e+003
40.332, 1.965e+003
41.735, 1.979e+003
43.138, 1.952e+003
44.541, 1.937e+003
45.943, 1.934e+003
47.345, 1.863e+003
48.747, 1.895e+003
50.149, 1.840e+003
51.551, 1.865e+003
52.952, 1.863e+003
54.353, 1.869e+003
55.754, 1.879e+003
57.155, 1.924e+003
58.555, 1.898e+003
59.955, 1.915e+003
61.355, 1.880e+003
62.755, 1.843e+003
64.154, 1.810e+003
65.553, 1.778e+003
66.952, 1.677e+003
68.351, 1.629e+003
69.750, 1.564e+003
71.148, 1.512e+003
72.546, 1.517e+003
73.944, 1.461e+003
75.342, 1.456e+003
76.739, 1.444e+003
78.136, 1.482e+003
79.533, 1.447e+003
80.930, 1.446e+003
82.327, 1.490e+003
83.723, 1.514e+003
85.119, 1.598e+003
86.515, 1.674e+003
87.910, 1.771e+003
89.306, 1.855e+003
90.701, 1.982e+003
92.096, 2.164e+003
93.490, 2.232e+003
94.885, 2.498e+003
96.279, 2.570e+003
97.673, 2.816e+003
99.067, 2.989e+003
100.461, 3.025e+003
101.854, 3.217e+003
103.247, 3.108e+003
104.640, 3.342e+003
106.032, 3.304e+003
107.425, 3.480e+003
108.817, 3.555e+003
110.209, 3.963e+003
111.601, 6.791e+003
112.992, 1.040e+004
114.384, 5.612e+003
115.775, 4.648e+003
117.166, 5.897e+003
118.556, 5.904e+003
119.947, 5.438e+003
121.337, 6.074e+003
122.727, 7.398e+003
124.116, 8.962e+003
125.506, 8.542e+003
126.895, 8.138e+003
128.284, 8.594e+003
129.673, 8.300e+003
131.062, 7.053e+003
132.450, 5.420e+003
133.838, 4.956e+003
135.226, 4.824e+003
136.614, 5.703e+003
138.001, 6.869e+003
139.388, 7.098e+003
140.775, 6.112e+003
142.162, 4.722e+003
143.549, 3.907e+003
144.935, 3.420e+003
146.321, 3.213e+003
147.707, 3.026e+003
149.093, 2.908e+003
150.478, 2.955e+003
151.863, 2.786e+003
153.248, 2.903e+003
154.633, 2.836e+003
156.018, 2.892e+003
157.402, 2.991e+003
158.786, 3.154e+003
160.170, 3.758e+003
161.554, 4.106e+003
162.937, 5.674e+003
164.320, 8.448e+003
165.703, 1.006e+004
167.086, 8.379e+003
168.469, 5.680e+003
169.851, 4.143e+003
171.233, 3.375e+003
172.615, 3.125e+003
173.996, 2.941e+003
175.378, 2.859e+003
176.759, 2.868e+003
178.140, 2.850e+003
179.521, 2.990e+003
180.901, 3.090e+003
182.281, 3.192e+003
183.662, 3.172e+003
185.041, 3.390e+003
186.421, 3.819e+003
187.800, 4.533e+003
189.180, 5.942e+003
190.558, 6.915e+003
191.937, 6.660e+003
193.316, 5.384e+003
194.694, 4.264e+003
196.072, 3.569e+003
197.450, 3.192e+003
198.827, 3.121e+003
200.205, 3.022e+003
201.582, 3.026e+003
202.959, 3.137e+003
204.336, 3.361e+003
205.712, 3.616e+003
207.088, 3.967e+003
208.465, 4.892e+003
209.840, 5.924e+003
211.216, 6.329e+003
212.591, 5.549e+003
213.967, 4.456e+003
215.341, 3.774e+003
216.716, 3.255e+003
218.091, 3.094e+003
219.465, 2.916e+003
220.839, 2.869e+003
222.213, 2.829e+003
223.586, 2.789e+003
224.960, 2.861e+003
226.333, 2.734e+003
227.706, 2.869e+003
229.079, 2.828e+003
230.451, 2.887e+003
231.823, 2.972e+003
233.195, 3.010e+003
234.567, 3.286e+003
235.939, 3.447e+003
237.310, 3.970e+003
238.682, 4.721e+003
240.052, 5.897e+003
241.423, 8.064e+003
242.794, 1.104e+004
244.164, 1.465e+004
245.534, 1.555e+004
246.904, 1.321e+004
248.274, 9.980e+003
249.643, 7.365e+003
251.012, 5.838e+003
252.381, 4.842e+003
253.750, 4.348e+003
255.118, 3.977e+003
256.487, 3.792e+003
257.855, 3.670e+003
259.223, 3.441e+003
260.590, 3.275e+003
261.958, 3.088e+003
263.325, 3.114e+003
264.692, 2.981e+003
266.059, 2.981e+003
267.425, 3.011e+003
268.791, 2.956e+003
270.158, 3.161e+003
271.523, 3.233e+003
272.889, 3.606e+003
274.255, 4.080e+003
275.620, 4.932e+003
276.985, 5.991e+003
278.350, 5.855e+003
279.714, 5.137e+003
281.078, 4.175e+003
282.443, 3.522e+003
283.806, 3.138e+003
285.170, 2.849e+003
286.534, 2.799e+003
287.897, 2.639e+003
289.260, 2.686e+003
290.623, 2.637e+003
291.985, 2.578e+003
293.348, 2.631e+003
294.710, 2.601e+003
296.072, 2.615e+003
297.433, 2.560e+003
298.795, 2.651e+003
300.156, 2.657e+003
301.517, 2.707e+003
302.878, 2.756e+003
304.239, 2.798e+003
305.599, 3.034e+003
306.959, 3.221e+003
308.319, 3.510e+003
309.679, 3.928e+003
311.038, 4.256e+003
312.398, 4.365e+003
313.757, 4.051e+003
315.116, 3.681e+003
316.474, 3.333e+003
317.833, 3.035e+003
319.191, 2.958e+003
320.549, 2.777e+003
321.907, 2.726e+003
323.264, 2.706e+003
324.622, 2.683e+003
325.979, 2.674e+003
327.336, 2.586e+003
328.692, 2.702e+003
330.049, 2.598e+003
331.405, 2.793e+003
332.761, 2.838e+003
334.117, 2.847e+003
335.473, 2.921e+003
336.828, 2.882e+003
338.183, 3.032e+003
339.538, 3.144e+003
340.893, 3.518e+003
342.247, 4.088e+003
343.602, 5.008e+003
344.956, 6.641e+003
346.310, 8.386e+003
347.663, 9.610e+003
349.017, 8.849e+003
350.370, 7.038e+003
351.723, 5.585e+003
353.076, 4.422e+003
354.428, 3.840e+003
355.780, 3.378e+003
357.133, 3.133e+003
358.484, 2.948e+003
359.836, 2.837e+003
361.188, 2.783e+003
362.539, 2.751e+003
363.890, 2.702e+003
365.241, 2.651e+003
366.591, 2.663e+003
367.942, 2.637e+003
369.292, 2.564e+003
370.642, 2.560e+003
371.992, 2.598e+003
373.341, 2.539e+003
374.691, 2.580e+003
376.040, 2.598e+003
377.388, 2.642e+003
378.737, 2.548e+003
380.086, 2.631e+003
381.434, 2.566e+003
382.782, 2.578e+003
384.130, 2.639e+003
385.477, 2.579e+003
386.825, 2.630e+003
388.172, 2.607e+003
389.519, 2.650e+003
390.865, 2.673e+003
392.212, 2.606e+003
393.558, 2.702e+003
394.904, 2.690e+003
396.250, 2.694e+003
397.596, 2.738e+003
398.941, 2.737e+003
400.286, 2.874e+003
401.631, 2.887e+003
402.976, 3.150e+003
404.321, 3.312e+003
405.665, 3.518e+003
407.009, 3.557e+003
408.353, 3.316e+003
409.697, 3.173e+003
411.040, 2.990e+003
412.384, 2.973e+003
413.727, 2.998e+003
415.070, 3.018e+003
416.412, 3.153e+003
417.755, 3.308e+003
419.097, 3.569e+003
420.439, 3.843e+003
421.781, 4.226e+003
423.122, 4.661e+003
424.464, 4.706e+003
425.805, 4.677e+003
427.146, 4.190e+003
428.486, 3.803e+003
429.827, 3.478e+003
431.167, 3.151e+003
432.507, 3.066e+003
433.847, 2.960e+003
435.187, 3.027e+003
436.526, 3.134e+003
437.865, 3.443e+003
439.204, 3.826e+003
440.543, 4.162e+003
441.882, 4.206e+003
443.220, 3.859e+003
444.558, 3.553e+003
445.896, 3.333e+003
447.234, 3.107e+003
448.572, 3.032e+003
449.909, 2.910e+003
451.246, 2.887e+003
452.583, 2.910e+003
453.919, 2.959e+003
455.256, 3.095e+003
456.592, 3.170e+003
457.928, 3.307e+003
459.264, 3.605e+003
460.600, 3.696e+003
461.935, 3.669e+003
463.270, 3.571e+003
464.605, 3.348e+003
465.940, 3.159e+003
467.274, 3.106e+003
468.609, 2.999e+003
469.943, 2.944e+003
471.277, 3.058e+003
472.610, 3.031e+003
473.944, 3.276e+003
475.277, 3.564e+003
476.610, 4.112e+003
477.943, 5.027e+003
479.275, 5.706e+003
480.608, 5.711e+003
481.940, 4.947e+003
483.272, 4.151e+003
484.604, 3.550e+003
485.935, 3.282e+003
487.267, 3.095e+003
488.598, 2.936e+003
489.929, 2.834e+003
491.260, 2.872e+003
492.590, 2.750e+003
493.920, 2.763e+003
495.250, 2.698e+003
496.580, 2.731e+003
497.910, 2.711e+003
499.239, 2.690e+003
500.569, 2.696e+003
501.898, 2.681e+003
503.226, 2.699e+003
504.555, 2.714e+003
505.883, 2.718e+003
507.212, 2.748e+003
508.540, 2.736e+003
509.867, 2.711e+003
511.195, 2.732e+003
512.522, 2.754e+003
513.849, 2.757e+003
515.176, 2.740e+003
516.503, 2.803e+003
517.829, 2.801e+003
519.156, 2.758e+003
520.482, 2.780e+003
521.808, 2.731e+003
523.133, 2.798e+003
524.459, 2.806e+003
525.784, 2.770e+003
527.109, 2.839e+003
528.434, 2.794e+003
529.758, 2.819e+003
531.083, 2.844e+003
532.407, 2.820e+003
533.731, 2.826e+003
535.055, 2.780e+003
536.378, 2.835e+003
537.701, 2.770e+003
539.025, 2.809e+003
540.348, 2.802e+003
541.670, 2.785e+003
542.993, 2.837e+003
544.315, 2.796e+003
545.637, 2.883e+003
546.959, 2.900e+003
548.281, 2.881e+003
549.602, 2.919e+003
550.923, 2.866e+003
552.244, 2.933e+003
553.565, 2.898e+003
554.886, 2.961e+003
556.206, 2.965e+003
557.526, 3.012e+003
558.846, 3.125e+003
560.166, 3.219e+003
561.486, 3.379e+003
562.805, 3.450e+003
564.124, 3.407e+003
565.443, 3.343e+003
566.762, 3.218e+003
568.080, 3.177e+003
569.399, 3.149e+003
570.717, 3.109e+003
572.035, 3.198e+003
573.352, 3.192e+003
574.670, 3.245e+003
575.987, 3.239e+003
577.304, 3.274e+003
578.621, 3.370e+003
579.938, 3.383e+003
581.254, 3.584e+003
582.570, 3.652e+003
583.886, 3.682e+003
585.202, 3.725e+003
586.518, 3.766e+003
587.833, 3.858e+003
589.148, 3.855e+003
590.463, 3.963e+003
591.778, 4.126e+003
593.093, 4.229e+003
594.407, 4.448e+003
595.721, 4.695e+003
597.035, 5.015e+003
598.349, 5.618e+003
599.662, 6.179e+003
600.976, 7.229e+003
602.289, 8.422e+003
603.602, 1.052e+004
604.914, 1.373e+004
606.227, 1.819e+004
607.539, 2.417e+004
608.851, 2.912e+004
610.163, 3.092e+004
611.475, 2.859e+004
612.786, 2.358e+004
614.097, 1.874e+004
615.408, 1.444e+004
616.719, 1.168e+004
618.030, 9.720e+003
619.340, 8.078e+003
620.651, 7.400e+003
621.961, 6.850e+003
623.270, 6.762e+003
624.580, 7.021e+003
625.889, 7.422e+003
627.199, 7.863e+003
628.507, 7.614e+003
629.816, 7.112e+003
631.125, 6.414e+003
632.433, 5.644e+003
633.741, 5.273e+003
635.049, 4.848e+003
636.357, 4.709e+003
637.664, 4.510e+003
638.972, 4.280e+003
640.279, 4.246e+003
641.586, 4.047e+003
642.893, 3.987e+003
644.199, 3.988e+003
645.505, 3.896e+003
646.811, 3.966e+003
648.117, 3.780e+003
649.423, 3.815e+003
650.728, 3.803e+003
652.034, 3.720e+003
653.339, 3.716e+003
654.644, 3.572e+003
655.948, 3.562e+003
657.253, 3.518e+003
658.557, 3.415e+003
659.861, 3.456e+003
661.165, 3.293e+003
662.468, 3.291e+003
663.772, 3.324e+003
665.075, 3.275e+003
666.378, 3.285e+003
667.681, 3.204e+003
668.983, 3.220e+003
670.286, 3.206e+003
671.588, 3.123e+003
672.890, 3.224e+003
674.192, 3.124e+003
675.493, 3.192e+003
676.795, 3.153e+003
678.096, 3.128e+003
679.397, 3.156e+003
680.697, 3.082e+003
681.998, 3.172e+003
683.298, 3.155e+003
684.598, 3.136e+003
685.898, 3.151e+003
687.198, 3.130e+003
688.498, 3.138e+003
689.797, 3.108e+003
691.096, 3.110e+003
692.395, 3.175e+003
693.694, 3.129e+003
694.992, 3.134e+003
696.290, 3.137e+003
697.589, 3.141e+003
698.886, 3.133e+003
700.184, 3.092e+003
701.482, 3.154e+003
702.779, 3.161e+003
704.076, 3.143e+003
705.373, 3.146e+003
706.669, 3.151e+003
707.966, 3.116e+003
709.262, 3.138e+003
710.558, 3.104e+003
711.854, 3.191e+003
713.150, 3.137e+003
714.445, 3.111e+003
715.740, 3.125e+003
717.035, 3.120e+003
718.330, 3.189e+003
719.625, 3.162e+003
720.919, 3.185e+003
722.214, 3.192e+003
723.508, 3.157e+003
724.801, 3.264e+003
726.095, 3.245e+003
727.388, 3.295e+003
728.682, 3.252e+003
729.975, 3.291e+003
731.267, 3.324e+003
732.560, 3.267e+003
733.852, 3.337e+003
735.145, 3.305e+003
736.437, 3.242e+003
737.728, 3.286e+003
739.020, 4.492e+003
740.311, 3.365e+003
741.603, 3.348e+003
742.894, 3.314e+003
744.184, 3.384e+003
745.475, 3.318e+003
746.765, 3.397e+003
748.055, 3.440e+003
749.345, 3.404e+003
750.635, 3.470e+003
751.925, 3.396e+003
753.214, 3.404e+003
754.503, 3.429e+003
755.792, 3.348e+003
757.081, 3.407e+003
758.370, 3.366e+003
759.658, 3.371e+003
760.946, 3.393e+003
762.234, 3.385e+003
763.522, 3.420e+003
764.809, 3.466e+003
766.097, 3.465e+003
767.384, 3.538e+003
768.671, 3.523e+003
769.958, 3.630e+003
771.244, 3.618e+003
772.530, 3.685e+003
773.817, 3.734e+003
775.102, 3.715e+003
776.388, 3.662e+003
777.674, 3.546e+003
778.959, 3.592e+003
780.244, 3.613e+003
781.529, 3.465e+003
782.814, 3.559e+003
784.098, 3.499e+003
785.383, 3.522e+003
786.667, 3.591e+003
787.951, 3.525e+003
789.235, 3.571e+003
790.518, 3.530e+003
791.801, 3.569e+003
793.084, 3.625e+003
794.367, 3.504e+003
795.650, 3.607e+003
796.933, 3.516e+003
798.215, 3.538e+003
799.497, 3.591e+003
800.779, 3.524e+003
802.061, 3.547e+003
803.342, 3.615e+003
804.624, 3.458e+003
805.905, 3.597e+003
807.186, 3.517e+003
808.466, 3.536e+003
809.747, 3.579e+003
811.027, 3.526e+003
812.307, 3.587e+003
813.587, 3.547e+003
814.867, 3.558e+003
816.146, 3.582e+003
817.426, 3.579e+003
818.705, 3.569e+003
819.984, 3.573e+003
821.263, 3.584e+003
822.541, 3.654e+003
823.819, 3.584e+003
825.098, 3.657e+003
826.375, 3.714e+003
827.653, 3.643e+003
828.931, 3.714e+003
830.208, 3.652e+003
831.485, 3.729e+003
832.762, 3.702e+003
834.039, 3.706e+003
835.315, 3.723e+003
836.592, 3.744e+003
837.868, 3.823e+003
839.144, 3.825e+003
840.420, 3.803e+003
841.695, 3.968e+003
842.970, 3.858e+003
844.246, 3.918e+003
845.521, 3.959e+003
846.795, 3.880e+003
848.070, 4.037e+003
849.344, 3.927e+003
850.618, 4.018e+003
851.892, 4.051e+003
853.166, 4.068e+003
854.440, 4.161e+003
855.713, 4.085e+003
856.986, 4.114e+003
858.259, 4.344e+003
859.532, 4.239e+003
860.804, 4.336e+003
862.077, 4.342e+003
863.349, 4.249e+003
864.621, 4.315e+003
865.893, 4.160e+003
867.164, 4.187e+003
868.436, 4.137e+003
869.707, 4.044e+003
870.978, 4.143e+003
872.248, 4.067e+003
873.519, 4.089e+003
874.789, 4.163e+003
876.060, 4.174e+003
877.330, 4.215e+003
878.599, 4.138e+003
879.869, 4.186e+003
881.138, 4.202e+003
882.408, 4.093e+003
883.677, 4.120e+003
884.945, 4.137e+003
886.214, 4.054e+003
887.482, 4.211e+003
888.751, 4.148e+003
890.019, 4.282e+003
891.287, 4.232e+003
892.554, 4.216e+003
893.822, 4.393e+003
895.089, 4.341e+003
896.356, 4.430e+003
897.623, 4.592e+003
898.889, 4.559e+003
900.156, 4.706e+003
901.422, 4.674e+003
902.688, 4.701e+003
903.954, 4.885e+003
905.220, 4.720e+003
906.485, 4.858e+003
907.750, 4.870e+003
909.015, 4.810e+003
910.280, 4.851e+003
911.545, 4.757e+003
912.809, 4.824e+003
914.074, 4.952e+003
915.338, 4.848e+003
916.602, 4.918e+003
917.865, 4.826e+003
919.129, 4.806e+003
920.392, 4.628e+003
921.655, 4.456e+003
922.918, 4.535e+003
924.181, 4.416e+003
925.443, 4.433e+003
926.706, 4.465e+003
927.968, 4.317e+003
929.230, 4.480e+003
930.491, 4.414e+003
931.753, 4.418e+003
933.014, 4.550e+003
934.276, 4.484e+003
935.536, 4.524e+003
936.797, 4.651e+003
938.058, 4.558e+003
939.318, 4.826e+003
940.578, 4.847e+003
941.838, 5.106e+003
943.098, 5.351e+003
944.358, 5.407e+003
945.617, 5.846e+003
946.876, 5.865e+003
948.135, 5.986e+003
949.394, 6.122e+003
950.653, 5.813e+003
951.911, 5.691e+003
953.169, 5.495e+003
954.427, 5.272e+003
955.685, 5.177e+003
956.943, 4.944e+003
958.200, 4.942e+003
959.458, 4.926e+003
960.715, 4.787e+003
961.971, 4.885e+003
963.228, 4.951e+003
964.485, 5.116e+003
965.741, 5.287e+003
966.997, 5.408e+003
968.253, 5.910e+003
969.508, 6.268e+003
970.764, 6.798e+003
972.019, 7.489e+003
973.274, 7.556e+003
974.529, 7.516e+003
975.784, 7.086e+003
977.039, 6.462e+003
978.293, 6.105e+003
979.547, 5.699e+003
980.801, 5.483e+003
982.055, 5.343e+003
983.308, 5.138e+003
984.562, 5.109e+003
985.815, 5.019e+003
987.068, 4.959e+003
988.321, 4.956e+003
989.573, 4.811e+003
990.826, 4.804e+003
992.078, 4.832e+003
993.330, 4.766e+003
994.582, 4.796e+003
995.833, 4.730e+003
997.085, 4.974e+003
998.336, 5.165e+003
999.587, 5.189e+003
1000.838, 5.758e+003
1002.088, 5.883e+003
1003.339, 5.786e+003
1004.589, 5.914e+003
1005.839, 6.004e+003
1007.089, 6.440e+003
1008.339, 6.552e+003
1009.588, 6.350e+003
1010.838, 6.126e+003
1012.087, 5.730e+003
1013.336, 5.381e+003
1014.584, 5.250e+003
1015.833, 5.086e+003
1017.081, 5.108e+003
1018.330, 5.136e+003
1019.577, 5.158e+003
1020.825, 5.357e+003
1022.073, 5.306e+003
1023.320, 5.476e+003
1024.567, 5.569e+003
1025.814, 5.529e+003
1027.061, 5.649e+003
1028.308, 5.584e+003
1029.554, 5.509e+003
1030.800, 5.366e+003
1032.046, 5.093e+003
1033.292, 5.050e+003
1034.538, 4.890e+003
1035.783, 4.738e+003
1037.029, 4.786e+003
1038.274, 4.579e+003
1039.519, 4.665e+003
1040.763, 4.617e+003
1042.008, 4.478e+003
1043.252, 4.601e+003
1044.496, 4.506e+003
1045.740, 4.539e+003
1046.984, 4.638e+003
1048.228, 4.533e+003
1049.471, 4.604e+003
1050.714, 4.557e+003
1051.957, 4.525e+003
1053.200, 4.642e+003
1054.442, 4.572e+003
1055.685, 4.558e+003
1056.927, 4.604e+003
1058.169, 4.506e+003
1059.411, 4.561e+003
1060.652, 4.591e+003
1061.894, 4.520e+003
1063.135, 4.601e+003
1064.376, 4.550e+003
1065.617, 4.597e+003
1066.858, 4.679e+003
1068.098, 4.632e+003
1069.339, 4.829e+003
1070.579, 4.716e+003
1071.819, 4.793e+003
1073.058, 4.978e+003
1074.298, 4.951e+003
1075.537, 5.135e+003
1076.776, 5.258e+003
1078.015, 5.299e+003
1079.254, 5.470e+003
1080.493, 5.440e+003
1081.731, 5.570e+003
1082.969, 5.596e+003
1084.207, 5.388e+003
1085.445, 5.373e+003
1086.683, 5.352e+003
1087.920, 5.257e+003
1089.157, 5.355e+003
1090.394, 5.154e+003
1091.631, 5.287e+003
1092.868, 5.424e+003
1094.105, 5.375e+003
1095.341, 5.519e+003
1096.577, 5.580e+003
1097.813, 5.692e+003
1099.049, 5.905e+003
1100.284, 5.957e+003
1101.519, 6.288e+003
1102.755, 6.374e+003
1103.990, 6.556e+003
1105.224, 6.730e+003
1106.459, 6.750e+003
1107.693, 6.722e+003
1108.928, 6.817e+003
1110.162, 6.536e+003
1111.395, 6.478e+003
1112.629, 6.285e+003
1113.863, 6.018e+003
1115.096, 5.936e+003
1116.329, 5.675e+003
1117.562, 5.649e+003
1118.795, 5.534e+003
1120.027, 5.385e+003
1121.259, 5.465e+003
1122.492, 5.384e+003
1123.723, 5.204e+003
1124.955, 5.235e+003
1126.187, 5.077e+003
1127.418, 5.193e+003
1128.649, 5.112e+003
1129.880, 5.002e+003
1131.111, 5.098e+003
1132.342, 5.053e+003
1133.572, 4.969e+003
1134.802, 4.998e+003
1136.033, 4.875e+003
1137.262, 4.893e+003
1138.492, 4.873e+003
1139.722, 4.773e+003
1140.951, 4.867e+003
1142.180, 4.770e+003
1143.409, 4.775e+003
1144.638, 4.824e+003
1145.866, 4.726e+003
1147.095, 4.781e+003
1148.323, 4.853e+003
1149.551, 4.761e+003
1150.779, 4.857e+003
1152.006, 4.785e+003
1153.234, 4.839e+003
1154.461, 4.899e+003
1155.688, 4.899e+003
1156.915, 5.012e+003
1158.141, 4.952e+003
1159.368, 4.986e+003
1160.594, 5.190e+003
1161.820, 5.142e+003
1163.046, 5.127e+003
1164.272, 5.310e+003
1165.498, 5.278e+003
1166.723, 5.437e+003
1167.948, 5.511e+003
1169.173, 5.526e+003
1170.398, 5.795e+003
1171.623, 5.829e+003
1172.847, 5.872e+003
1174.071, 6.074e+003
1175.295, 5.919e+003
1176.519, 6.054e+003
1177.743, 5.883e+003
1178.966, 5.789e+003
1180.190, 5.793e+003
1181.413, 5.586e+003
1182.636, 5.490e+003
1183.858, 5.457e+003
1185.081, 5.357e+003
1186.303, 5.276e+003
1187.526, 5.248e+003
1188.748, 5.185e+003
1189.969, 5.209e+003
1191.191, 5.058e+003
1192.412, 5.014e+003
1193.634, 5.133e+003
1194.855, 5.051e+003
1196.076, 5.021e+003
1197.296, 4.983e+003
1198.517, 5.009e+003
1199.737, 5.074e+003
1200.957, 5.045e+003
1202.177, 4.948e+003
1203.397, 5.084e+003
1204.617, 4.915e+003
1205.836, 5.026e+003
1207.055, 4.917e+003
1208.274, 4.898e+003
1209.493, 5.044e+003
1210.712, 4.979e+003
1211.930, 4.984e+003
1213.148, 5.107e+003
1214.367, 4.954e+003
1215.584, 5.060e+003
1216.802, 5.118e+003
1218.020, 5.034e+003
1219.237, 5.117e+003
1220.454, 5.018e+003
1221.671, 5.000e+003
1222.888, 5.101e+003
1224.105, 4.984e+003
1225.321, 5.025e+003
1226.537, 5.062e+003
1227.753, 4.953e+003
1228.969, 5.128e+003
1230.185, 5.078e+003
1231.400, 5.024e+003
1232.616, 5.246e+003
1233.831, 5.102e+003
1235.046, 5.208e+003
1236.261, 5.330e+003
1237.475, 5.209e+003
1238.689, 5.357e+003
1239.904, 5.184e+003
1241.118, 5.254e+003
1242.332, 5.309e+003
1243.545, 5.202e+003
1244.759, 5.234e+003
1245.972, 5.367e+003
1247.185, 5.225e+003
1248.398, 5.365e+003
1249.611, 5.318e+003
1250.823, 5.261e+003
1252.036, 5.356e+003
1253.248, 5.228e+003
1254.460, 5.253e+003
1255.671, 5.358e+003
1256.883, 5.251e+003
1258.095, 5.360e+003
1259.306, 5.267e+003
1260.517, 5.221e+003
1261.728, 5.347e+003
1262.938, 5.282e+003
1264.149, 5.300e+003
1265.359, 5.526e+003
1266.569, 5.334e+003
1267.779, 5.511e+003
1268.989, 5.529e+003
1270.199, 5.492e+003
1271.408, 5.714e+003
1272.617, 5.566e+003
1273.826, 5.595e+003
1275.035, 5.610e+003
1276.244, 5.488e+003
1277.452, 5.520e+003
1278.661, 5.461e+003
1279.869, 5.258e+003
1281.077, 5.464e+003
1282.285, 5.379e+003
1283.492, 5.307e+003
1284.700, 5.400e+003
1285.907, 5.305e+003
1287.114, 5.418e+003
1288.321, 5.372e+003
1289.527, 5.250e+003
1290.734, 5.419e+003
1291.940, 5.444e+003
1293.146, 5.402e+003
1294.352, 5.647e+003
1295.558, 5.422e+003
1296.763, 5.429e+003
1297.969, 5.440e+003
1299.174, 5.333e+003
1300.379, 5.546e+003
1301.584, 5.456e+003
1302.788, 5.344e+003
1303.993, 5.442e+003
1305.197, 5.407e+003
1306.401, 5.455e+003
1307.605, 5.651e+003
1308.809, 5.534e+003
1310.013, 5.774e+003
1311.216, 5.724e+003
1312.419, 5.568e+003
1313.622, 5.802e+003
1314.825, 5.703e+003
1316.028, 5.628e+003
1317.230, 5.784e+003
1318.432, 5.656e+003
1319.634, 5.740e+003
1320.836, 5.798e+003
1322.038, 5.688e+003
1323.240, 5.750e+003
1324.441, 5.653e+003
1325.642, 5.435e+003
1326.843, 5.558e+003
1328.044, 5.460e+003
1329.245, 5.410e+003
1330.445, 5.441e+003
1331.645, 5.338e+003
1332.845, 5.393e+003
1334.045, 5.423e+003
1335.245, 5.313e+003
1336.445, 5.376e+003
1337.644, 5.255e+003
1338.843, 5.252e+003
1340.042, 5.382e+003
1341.241, 5.282e+003
1342.440, 5.335e+003
1343.638, 5.430e+003
1344.836, 5.292e+003
1346.034, 5.389e+003
1347.232, 5.443e+003
1348.430, 5.304e+003
1349.628, 5.358e+003
1350.825, 5.253e+003
1352.022, 5.366e+003
1353.219, 5.391e+003
1354.416, 5.377e+003
1355.613, 5.307e+003
1356.809, 5.349e+003
1358.005, 5.334e+003
1359.202, 5.403e+003
1360.398, 5.316e+003
1361.593, 5.360e+003
1362.789, 5.389e+003
1363.984, 5.294e+003
1365.179, 5.361e+003
1366.374, 5.370e+003
1367.569, 5.300e+003
1368.764, 5.440e+003
1369.958, 5.406e+003
1371.153, 5.381e+003
1372.347, 5.484e+003
1373.541, 5.454e+003
1374.735, 5.413e+003
1375.928, 5.607e+003
1377.122, 5.481e+003
1378.315, 5.489e+003
1379.508, 5.626e+003
1380.701, 5.519e+003
1381.893, 5.586e+003
1383.086, 5.659e+003
1384.278, 5.516e+003
1385.470, 5.689e+003
1386.662, 5.616e+003
1387.854, 5.529e+003
1389.046, 5.610e+003
1390.237, 5.536e+003
1391.428, 5.555e+003
1392.619, 5.630e+003
1393.810, 5.508e+003
1395.001, 5.498e+003
1396.191, 5.590e+003
1397.382, 5.504e+003
1398.572, 5.533e+003
1399.762, 5.538e+003
1400.952, 5.513e+003
1402.141, 5.588e+003
1403.331, 5.416e+003
1404.520, 5.539e+003
1405.709, 5.514e+003
1406.898, 5.488e+003
1408.087, 5.632e+003
1409.275, 5.564e+003
1410.464, 5.554e+003
1411.652, 5.553e+003
1412.840, 5.609e+003
1414.028, 5.608e+003
1415.215, 5.723e+003
1416.403, 5.599e+003
1417.590, 5.710e+003
1418.777, 5.704e+003
1419.964, 5.674e+003
1421.151, 5.766e+003
1422.338, 5.705e+003
1423.524, 5.642e+003
1424.710, 5.805e+003
1425.896, 5.754e+003
1427.082, 5.762e+003
1428.268, 5.879e+003
1429.453, 5.840e+003
1430.639, 5.949e+003
1431.824, 6.008e+003
1433.009, 5.997e+003
1434.194, 6.167e+003
1435.378, 6.181e+003
1436.563, 6.243e+003
1437.747, 6.497e+003
1438.931, 6.550e+003
1440.115, 6.646e+003
1441.299, 6.930e+003
1442.482, 6.798e+003
1443.666, 7.058e+003
1444.849, 7.126e+003
1446.032, 6.967e+003
1447.215, 7.214e+003
1448.397, 7.206e+003
1449.580, 7.211e+003
1450.762, 7.544e+003
1451.944, 7.336e+003
1453.126, 7.305e+003
1454.308, 7.619e+003
1455.490, 7.375e+003
1456.671, 7.417e+003
1457.852, 7.476e+003
1459.033, 7.255e+003
1460.214, 7.355e+003
1461.395, 7.242e+003
1462.575, 6.953e+003
1463.756, 7.139e+003
1464.936, 6.934e+003
1466.116, 6.761e+003
1467.296, 6.818e+003
1468.475, 6.594e+003
1469.655, 6.551e+003
1470.834, 6.648e+003
1472.013, 6.347e+003
1473.192, 6.428e+003
1474.371, 6.409e+003
1475.550, 6.282e+003
1476.728, 6.351e+003
1477.906, 6.345e+003
1479.084, 6.303e+003
1480.262, 6.355e+003
1481.440, 6.277e+003
1482.617, 6.369e+003
1483.795, 6.318e+003
1484.972, 6.238e+003
1486.149, 6.223e+003
1487.326, 6.212e+003
1488.502, 6.100e+003
1489.679, 6.125e+003
1490.855, 6.040e+003
1492.031, 6.017e+003
1493.207, 5.984e+003
1494.383, 5.892e+003
1495.559, 5.880e+003
1496.734, 5.903e+003
1497.909, 5.799e+003
1499.084, 5.818e+003
1500.259, 5.873e+003
1501.434, 5.724e+003
1502.608, 5.912e+003
1503.783, 6.128e+003
1504.957, 2.000e+002
##END=



