##NAMES=Danburite
##RRUFFID=R040013
##IDEAL CHEMISTRY=CaB_2_Si_2_O_8_
##LOCALITY=Charcas, San Luis Potosi, Mexico
##OWNER=RRUFF
##SOURCE=Marcus Origlieri
##DESCRIPTION=Colorless prismatic single crystal
##STATUS=The identification of this mineral has been confirmed by X-ray diffraction and chemical analysis
##URL=rruff.info/R040013
##MEASURED CHEMISTRY=Ca_1.00_B_2.00_Si_2.00_O_8_
##PIN_ID=M00009
##ORIENTATION=Laser parallel to b* (0 1 0). Fiducial mark perpendicular to laser is parallel to -c [0 0 -1]
26.288, 2.042e+003
27.694, 1.984e+003
29.099, 1.999e+003
30.504, 1.952e+003
31.909, 1.945e+003
33.313, 1.941e+003
34.717, 1.894e+003
36.121, 1.871e+003
37.525, 1.866e+003
38.929, 1.839e+003
40.332, 1.830e+003
41.735, 1.820e+003
43.138, 1.785e+003
44.541, 1.769e+003
45.943, 1.716e+003
47.345, 1.631e+003
48.747, 1.595e+003
50.149, 1.558e+003
51.551, 1.571e+003
52.952, 1.487e+003
54.353, 1.490e+003
55.754, 1.461e+003
57.155, 1.412e+003
58.555, 1.385e+003
59.955, 1.346e+003
61.355, 1.316e+003
62.755, 1.278e+003
64.154, 1.257e+003
65.553, 1.244e+003
66.952, 1.257e+003
68.351, 1.231e+003
69.750, 1.212e+003
71.148, 1.177e+003
72.546, 1.192e+003
73.944, 1.142e+003
75.342, 1.199e+003
76.739, 1.148e+003
78.136, 1.146e+003
79.533, 1.148e+003
80.930, 1.167e+003
82.327, 1.176e+003
83.723, 1.218e+003
85.119, 1.230e+003
86.515, 1.267e+003
87.910, 1.346e+003
89.306, 1.356e+003
90.701, 1.469e+003
92.096, 1.514e+003
93.490, 1.600e+003
94.885, 1.692e+003
96.279, 1.766e+003
97.673, 1.868e+003
99.067, 1.884e+003
100.461, 2.002e+003
101.854, 2.048e+003
103.247, 2.108e+003
104.640, 2.138e+003
106.032, 2.167e+003
107.425, 2.292e+003
108.817, 2.294e+003
110.209, 2.423e+003
111.601, 2.585e+003
112.992, 2.789e+003
114.384, 3.131e+003
115.775, 3.572e+003
117.166, 3.862e+003
118.556, 4.222e+003
119.947, 5.440e+003
121.337, 7.912e+003
122.727, 1.103e+004
124.116, 1.224e+004
125.506, 9.420e+003
126.895, 6.387e+003
128.284, 4.443e+003
129.673, 3.527e+003
131.062, 3.092e+003
132.450, 2.755e+003
133.838, 2.628e+003
135.226, 2.507e+003
136.614, 2.496e+003
138.001, 2.508e+003
139.388, 2.418e+003
140.775, 2.401e+003
142.162, 2.341e+003
143.549, 2.382e+003
144.935, 2.325e+003
146.321, 2.332e+003
147.707, 2.293e+003
149.093, 2.310e+003
150.478, 2.317e+003
151.863, 2.274e+003
153.248, 2.300e+003
154.633, 2.259e+003
156.018, 2.324e+003
157.402, 2.389e+003
158.786, 2.620e+003
160.170, 2.902e+003
161.554, 3.201e+003
162.937, 4.519e+003
164.320, 6.371e+003
165.703, 7.084e+003
167.086, 5.412e+003
168.469, 3.818e+003
169.851, 3.016e+003
171.233, 2.652e+003
172.615, 2.578e+003
173.996, 2.508e+003
175.378, 2.556e+003
176.759, 2.583e+003
178.140, 2.768e+003
179.521, 3.119e+003
180.901, 3.383e+003
182.281, 3.432e+003
183.662, 3.085e+003
185.041, 2.885e+003
186.421, 2.648e+003
187.800, 2.650e+003
189.180, 2.628e+003
190.558, 2.727e+003
191.937, 2.852e+003
193.316, 2.786e+003
194.694, 2.771e+003
196.072, 2.670e+003
197.450, 2.694e+003
198.827, 2.816e+003
200.205, 2.865e+003
201.582, 3.073e+003
202.959, 3.453e+003
204.336, 4.218e+003
205.712, 5.270e+003
207.088, 7.403e+003
208.465, 1.087e+004
209.840, 1.401e+004
211.216, 1.416e+004
212.591, 1.061e+004
213.967, 7.272e+003
215.341, 5.223e+003
216.716, 4.137e+003
218.091, 3.603e+003
219.465, 3.305e+003
220.839, 3.153e+003
222.213, 3.143e+003
223.586, 3.114e+003
224.960, 3.191e+003
226.333, 3.229e+003
227.706, 3.326e+003
229.079, 3.370e+003
230.451, 3.543e+003
231.823, 3.741e+003
233.195, 4.164e+003
234.567, 4.860e+003
235.939, 5.793e+003
237.310, 7.691e+003
238.682, 1.063e+004
240.052, 1.555e+004
241.423, 2.334e+004
242.794, 3.522e+004
244.164, 4.474e+004
245.534, 4.285e+004
246.904, 3.259e+004
248.274, 2.177e+004
249.643, 1.452e+004
251.012, 1.028e+004
252.381, 7.791e+003
253.750, 6.334e+003
255.118, 5.120e+003
256.487, 4.600e+003
257.855, 4.039e+003
259.223, 3.746e+003
260.590, 3.433e+003
261.958, 3.278e+003
263.325, 3.216e+003
264.692, 3.013e+003
266.059, 2.954e+003
267.425, 2.823e+003
268.791, 2.836e+003
270.158, 2.789e+003
271.523, 2.730e+003
272.889, 2.690e+003
274.255, 2.673e+003
275.620, 2.666e+003
276.985, 2.638e+003
278.350, 2.641e+003
279.714, 2.631e+003
281.078, 2.554e+003
282.443, 2.576e+003
283.806, 2.516e+003
285.170, 2.522e+003
286.534, 2.530e+003
287.897, 2.510e+003
289.260, 2.563e+003
290.623, 2.629e+003
291.985, 2.668e+003
293.348, 2.690e+003
294.710, 2.730e+003
296.072, 2.774e+003
297.433, 2.661e+003
298.795, 2.594e+003
300.156, 2.561e+003
301.517, 2.561e+003
302.878, 2.558e+003
304.239, 2.617e+003
305.599, 2.649e+003
306.959, 2.760e+003
308.319, 2.908e+003
309.679, 3.112e+003
311.038, 3.193e+003
312.398, 3.166e+003
313.757, 3.024e+003
315.116, 2.872e+003
316.474, 2.719e+003
317.833, 2.625e+003
319.191, 2.585e+003
320.549, 2.522e+003
321.907, 2.498e+003
323.264, 2.515e+003
324.622, 2.510e+003
325.979, 2.522e+003
327.336, 2.491e+003
328.692, 2.568e+003
330.049, 2.527e+003
331.405, 2.531e+003
332.761, 2.492e+003
334.117, 2.567e+003
335.473, 2.533e+003
336.828, 2.479e+003
338.183, 2.625e+003
339.538, 2.614e+003
340.893, 2.677e+003
342.247, 2.877e+003
343.602, 3.133e+003
344.956, 3.582e+003
346.310, 4.018e+003
347.663, 4.123e+003
349.017, 3.769e+003
350.370, 3.361e+003
351.723, 3.021e+003
353.076, 2.891e+003
354.428, 2.709e+003
355.780, 2.633e+003
357.133, 2.670e+003
358.484, 2.582e+003
359.836, 2.556e+003
361.188, 2.579e+003
362.539, 2.558e+003
363.890, 2.558e+003
365.241, 2.488e+003
366.591, 2.562e+003
367.942, 2.544e+003
369.292, 2.521e+003
370.642, 2.545e+003
371.992, 2.608e+003
373.341, 2.528e+003
374.691, 2.541e+003
376.040, 2.521e+003
377.388, 2.556e+003
378.737, 2.563e+003
380.086, 2.605e+003
381.434, 2.593e+003
382.782, 2.642e+003
384.130, 2.621e+003
385.477, 2.624e+003
386.825, 2.648e+003
388.172, 2.617e+003
389.519, 2.684e+003
390.865, 2.691e+003
392.212, 2.727e+003
393.558, 2.746e+003
394.904, 2.750e+003
396.250, 2.772e+003
397.596, 2.785e+003
398.941, 2.798e+003
400.286, 2.806e+003
401.631, 2.824e+003
402.976, 2.863e+003
404.321, 2.956e+003
405.665, 3.006e+003
407.009, 3.017e+003
408.353, 3.075e+003
409.697, 3.202e+003
411.040, 3.270e+003
412.384, 3.481e+003
413.727, 3.658e+003
415.070, 3.972e+003
416.412, 4.287e+003
417.755, 4.887e+003
419.097, 5.537e+003
420.439, 6.565e+003
421.781, 7.609e+003
423.122, 8.436e+003
424.464, 8.364e+003
425.805, 7.637e+003
427.146, 6.267e+003
428.486, 5.233e+003
429.827, 4.458e+003
431.167, 3.950e+003
432.507, 3.780e+003
433.847, 3.832e+003
435.187, 4.270e+003
436.526, 5.046e+003
437.865, 6.482e+003
439.204, 8.086e+003
440.543, 9.045e+003
441.882, 8.589e+003
443.220, 7.016e+003
444.558, 5.670e+003
445.896, 4.660e+003
447.234, 4.067e+003
448.572, 3.663e+003
449.909, 3.445e+003
451.246, 3.202e+003
452.583, 3.100e+003
453.919, 3.047e+003
455.256, 3.023e+003
456.592, 2.994e+003
457.928, 2.948e+003
459.264, 3.044e+003
460.600, 2.942e+003
461.935, 2.858e+003
463.270, 2.889e+003
464.605, 2.870e+003
465.940, 2.811e+003
467.274, 2.842e+003
468.609, 2.761e+003
469.943, 2.802e+003
471.277, 2.811e+003
472.610, 2.830e+003
473.944, 2.844e+003
475.277, 2.781e+003
476.610, 2.902e+003
477.943, 2.903e+003
479.275, 2.869e+003
480.608, 2.824e+003
481.940, 2.821e+003
483.272, 2.819e+003
484.604, 2.710e+003
485.935, 2.823e+003
487.267, 2.726e+003
488.598, 2.743e+003
489.929, 2.734e+003
491.260, 2.759e+003
492.590, 2.776e+003
493.920, 2.726e+003
495.250, 2.750e+003
496.580, 2.766e+003
497.910, 2.744e+003
499.239, 2.780e+003
500.569, 2.753e+003
501.898, 2.740e+003
503.226, 2.756e+003
504.555, 2.770e+003
505.883, 2.727e+003
507.212, 2.777e+003
508.540, 2.762e+003
509.867, 2.706e+003
511.195, 2.758e+003
512.522, 2.789e+003
513.849, 2.820e+003
515.176, 2.828e+003
516.503, 2.825e+003
517.829, 2.855e+003
519.156, 2.816e+003
520.482, 2.797e+003
521.808, 2.802e+003
523.133, 2.831e+003
524.459, 2.809e+003
525.784, 2.848e+003
527.109, 2.883e+003
528.434, 2.818e+003
529.758, 2.863e+003
531.083, 2.847e+003
532.407, 2.852e+003
533.731, 2.836e+003
535.055, 2.858e+003
536.378, 2.851e+003
537.701, 2.907e+003
539.025, 2.880e+003
540.348, 2.921e+003
541.670, 2.896e+003
542.993, 2.890e+003
544.315, 2.925e+003
545.637, 2.885e+003
546.959, 2.939e+003
548.281, 2.930e+003
549.602, 2.935e+003
550.923, 2.976e+003
552.244, 2.965e+003
553.565, 2.959e+003
554.886, 2.997e+003
556.206, 3.036e+003
557.526, 3.012e+003
558.846, 3.031e+003
560.166, 3.080e+003
561.486, 3.038e+003
562.805, 3.084e+003
564.124, 3.068e+003
565.443, 3.047e+003
566.762, 3.063e+003
568.080, 3.136e+003
569.399, 3.106e+003
570.717, 3.193e+003
572.035, 3.222e+003
573.352, 3.195e+003
574.670, 3.248e+003
575.987, 3.252e+003
577.304, 3.296e+003
578.621, 3.342e+003
579.938, 3.423e+003
581.254, 3.440e+003
582.570, 3.587e+003
583.886, 3.649e+003
585.202, 3.617e+003
586.518, 3.743e+003
587.833, 3.917e+003
589.148, 3.931e+003
590.463, 4.140e+003
591.778, 4.256e+003
593.093, 4.548e+003
594.407, 4.778e+003
595.721, 5.086e+003
597.035, 5.558e+003
598.349, 6.185e+003
599.662, 7.133e+003
600.976, 8.326e+003
602.289, 1.013e+004
603.602, 1.305e+004
604.914, 1.734e+004
606.227, 2.359e+004
607.539, 3.077e+004
608.851, 3.559e+004
610.163, 3.541e+004
611.475, 3.000e+004
612.786, 2.370e+004
614.097, 1.820e+004
615.408, 1.388e+004
616.719, 1.139e+004
618.030, 9.530e+003
619.340, 8.463e+003
620.651, 7.990e+003
621.961, 8.045e+003
623.270, 8.956e+003
624.580, 1.019e+004
625.889, 1.215e+004
627.199, 1.289e+004
628.507, 1.184e+004
629.816, 1.035e+004
631.125, 8.352e+003
632.433, 7.040e+003
633.741, 6.127e+003
635.049, 5.372e+003
636.357, 5.049e+003
637.664, 4.708e+003
638.972, 4.554e+003
640.279, 4.345e+003
641.586, 4.374e+003
642.893, 4.219e+003
644.199, 4.142e+003
645.505, 4.109e+003
646.811, 3.936e+003
648.117, 3.887e+003
649.423, 3.919e+003
650.728, 3.809e+003
652.034, 3.747e+003
653.339, 3.697e+003
654.644, 3.633e+003
655.948, 3.620e+003
657.253, 3.575e+003
658.557, 3.545e+003
659.861, 3.456e+003
661.165, 3.454e+003
662.468, 3.411e+003
663.772, 3.370e+003
665.075, 3.386e+003
666.378, 3.363e+003
667.681, 3.350e+003
668.983, 3.332e+003
670.286, 3.359e+003
671.588, 3.352e+003
672.890, 3.353e+003
674.192, 3.351e+003
675.493, 3.377e+003
676.795, 3.334e+003
678.096, 3.322e+003
679.397, 3.282e+003
680.697, 3.321e+003
681.998, 3.276e+003
683.298, 3.309e+003
684.598, 3.334e+003
685.898, 3.264e+003
687.198, 3.303e+003
688.498, 3.305e+003
689.797, 3.268e+003
691.096, 3.302e+003
692.395, 3.254e+003
693.694, 3.324e+003
694.992, 3.321e+003
696.290, 3.252e+003
697.589, 3.290e+003
698.886, 3.301e+003
700.184, 3.266e+003
701.482, 3.239e+003
702.779, 3.350e+003
704.076, 3.296e+003
705.373, 3.291e+003
706.669, 3.308e+003
707.966, 3.348e+003
709.262, 3.326e+003
710.558, 3.286e+003
711.854, 3.301e+003
713.150, 3.276e+003
714.445, 3.306e+003
715.740, 3.310e+003
717.035, 3.364e+003
718.330, 3.271e+003
719.625, 3.315e+003
720.919, 3.353e+003
722.214, 3.296e+003
723.508, 3.364e+003
724.801, 3.350e+003
726.095, 3.332e+003
727.388, 3.334e+003
728.682, 3.356e+003
729.975, 3.435e+003
731.267, 3.351e+003
732.560, 3.345e+003
733.852, 3.438e+003
735.145, 3.302e+003
736.437, 3.378e+003
737.728, 3.354e+003
739.020, 3.411e+003
740.311, 3.438e+003
741.603, 3.371e+003
742.894, 3.445e+003
744.184, 3.404e+003
745.475, 3.463e+003
746.765, 3.481e+003
748.055, 3.403e+003
749.345, 3.462e+003
750.635, 3.497e+003
751.925, 3.489e+003
753.214, 3.558e+003
754.503, 3.467e+003
755.792, 3.526e+003
757.081, 3.545e+003
758.370, 3.473e+003
759.658, 3.542e+003
760.946, 3.543e+003
762.234, 3.665e+003
763.522, 3.667e+003
764.809, 3.693e+003
766.097, 3.771e+003
767.384, 3.831e+003
768.671, 3.975e+003
769.958, 4.118e+003
771.244, 4.148e+003
772.530, 4.362e+003
773.817, 4.167e+003
775.102, 4.180e+003
776.388, 4.064e+003
777.674, 3.840e+003
778.959, 3.786e+003
780.244, 3.698e+003
781.529, 3.645e+003
782.814, 3.584e+003
784.098, 3.559e+003
785.383, 3.548e+003
786.667, 3.522e+003
787.951, 3.499e+003
789.235, 3.517e+003
790.518, 3.514e+003
791.801, 3.510e+003
793.084, 3.499e+003
794.367, 3.492e+003
795.650, 3.520e+003
796.933, 3.507e+003
798.215, 3.569e+003
799.497, 3.548e+003
800.779, 3.537e+003
802.061, 3.594e+003
803.342, 3.510e+003
804.624, 3.569e+003
805.905, 3.570e+003
807.186, 3.536e+003
808.466, 3.524e+003
809.747, 3.522e+003
811.027, 3.575e+003
812.307, 3.523e+003
813.587, 3.529e+003
814.867, 3.584e+003
816.146, 3.531e+003
817.426, 3.599e+003
818.705, 3.562e+003
819.984, 3.553e+003
821.263, 3.611e+003
822.541, 3.541e+003
823.819, 3.638e+003
825.098, 3.534e+003
826.375, 3.590e+003
827.653, 3.596e+003
828.931, 3.595e+003
830.208, 3.608e+003
831.485, 3.611e+003
832.762, 3.581e+003
834.039, 3.659e+003
835.315, 3.641e+003
836.592, 3.624e+003
837.868, 3.676e+003
839.144, 3.705e+003
840.420, 3.716e+003
841.695, 3.684e+003
842.970, 3.674e+003
844.246, 3.748e+003
845.521, 3.765e+003
846.795, 3.818e+003
848.070, 3.816e+003
849.344, 3.735e+003
850.618, 3.812e+003
851.892, 3.829e+003
853.166, 3.834e+003
854.440, 3.865e+003
855.713, 3.843e+003
856.986, 3.937e+003
858.259, 3.927e+003
859.532, 3.943e+003
860.804, 4.069e+003
862.077, 3.948e+003
863.349, 3.980e+003
864.621, 3.974e+003
865.893, 3.907e+003
867.164, 3.942e+003
868.436, 3.939e+003
869.707, 3.998e+003
870.978, 3.983e+003
872.248, 3.983e+003
873.519, 3.984e+003
874.789, 3.963e+003
876.060, 3.971e+003
877.330, 3.955e+003
878.599, 3.952e+003
879.869, 4.059e+003
881.138, 4.014e+003
882.408, 4.028e+003
883.677, 4.124e+003
884.945, 4.145e+003
886.214, 4.148e+003
887.482, 4.215e+003
888.751, 4.293e+003
890.019, 4.332e+003
891.287, 4.369e+003
892.554, 4.494e+003
893.822, 4.539e+003
895.089, 4.660e+003
896.356, 4.874e+003
897.623, 4.997e+003
898.889, 5.058e+003
900.156, 5.232e+003
901.422, 5.221e+003
902.688, 5.248e+003
903.954, 5.184e+003
905.220, 5.095e+003
906.485, 4.943e+003
907.750, 4.766e+003
909.015, 4.653e+003
910.280, 4.530e+003
911.545, 4.474e+003
912.809, 4.355e+003
914.074, 4.325e+003
915.338, 4.283e+003
916.602, 4.257e+003
917.865, 4.190e+003
919.129, 4.170e+003
920.392, 4.132e+003
921.655, 4.075e+003
922.918, 4.107e+003
924.181, 4.041e+003
925.443, 4.076e+003
926.706, 4.036e+003
927.968, 4.012e+003
929.230, 3.981e+003
930.491, 3.983e+003
931.753, 4.011e+003
933.014, 4.007e+003
934.276, 3.953e+003
935.536, 3.939e+003
936.797, 3.996e+003
938.058, 3.962e+003
939.318, 4.034e+003
940.578, 3.984e+003
941.838, 3.954e+003
943.098, 3.978e+003
944.358, 3.994e+003
945.617, 3.995e+003
946.876, 3.978e+003
948.135, 4.038e+003
949.394, 4.065e+003
950.653, 4.021e+003
951.911, 4.049e+003
953.169, 4.012e+003
954.427, 4.052e+003
955.685, 4.125e+003
956.943, 4.077e+003
958.200, 4.075e+003
959.458, 4.101e+003
960.715, 4.177e+003
961.971, 4.181e+003
963.228, 4.187e+003
964.485, 4.376e+003
965.741, 4.489e+003
966.997, 4.630e+003
968.253, 4.976e+003
969.508, 5.357e+003
970.764, 5.888e+003
972.019, 6.137e+003
973.274, 6.171e+003
974.529, 6.096e+003
975.784, 5.530e+003
977.039, 5.231e+003
978.293, 5.018e+003
979.547, 4.812e+003
980.801, 4.674e+003
982.055, 4.549e+003
983.308, 4.523e+003
984.562, 4.431e+003
985.815, 4.394e+003
987.068, 4.350e+003
988.321, 4.416e+003
989.573, 4.394e+003
990.826, 4.361e+003
992.078, 4.412e+003
993.330, 4.437e+003
994.582, 4.428e+003
995.833, 4.327e+003
997.085, 4.474e+003
998.336, 4.520e+003
999.587, 4.584e+003
1000.838, 4.700e+003
1002.088, 4.570e+003
1003.339, 4.537e+003
1004.589, 4.489e+003
1005.839, 4.456e+003
1007.089, 4.499e+003
1008.339, 4.397e+003
1009.588, 4.358e+003
1010.838, 4.323e+003
1012.087, 4.225e+003
1013.336, 4.263e+003
1014.584, 4.207e+003
1015.833, 4.204e+003
1017.081, 4.320e+003
1018.330, 4.263e+003
1019.577, 4.248e+003
1020.825, 4.279e+003
1022.073, 4.249e+003
1023.320, 4.330e+003
1024.567, 4.288e+003
1025.814, 4.236e+003
1027.061, 4.315e+003
1028.308, 4.218e+003
1029.554, 4.257e+003
1030.800, 4.230e+003
1032.046, 4.206e+003
1033.292, 4.286e+003
1034.538, 4.225e+003
1035.783, 4.302e+003
1037.029, 4.278e+003
1038.274, 4.378e+003
1039.519, 4.399e+003
1040.763, 4.364e+003
1042.008, 4.373e+003
1043.252, 4.382e+003
1044.496, 4.245e+003
1045.740, 4.274e+003
1046.984, 4.262e+003
1048.228, 4.294e+003
1049.471, 4.287e+003
1050.714, 4.228e+003
1051.957, 4.293e+003
1053.200, 4.281e+003
1054.442, 4.273e+003
1055.685, 4.254e+003
1056.927, 4.297e+003
1058.169, 4.243e+003
1059.411, 4.337e+003
1060.652, 4.283e+003
1061.894, 4.354e+003
1063.135, 4.268e+003
1064.376, 4.262e+003
1065.617, 4.391e+003
1066.858, 4.367e+003
1068.098, 4.394e+003
1069.339, 4.425e+003
1070.579, 4.336e+003
1071.819, 4.464e+003
1073.058, 4.427e+003
1074.298, 4.460e+003
1075.537, 4.542e+003
1076.776, 4.532e+003
1078.015, 4.608e+003
1079.254, 4.605e+003
1080.493, 4.655e+003
1081.731, 4.682e+003
1082.969, 4.759e+003
1084.207, 4.778e+003
1085.445, 4.910e+003
1086.683, 4.909e+003
1087.920, 4.971e+003
1089.157, 5.056e+003
1090.394, 5.124e+003
1091.631, 5.302e+003
1092.868, 5.422e+003
1094.105, 5.603e+003
1095.341, 5.803e+003
1096.577, 6.013e+003
1097.813, 6.303e+003
1099.049, 6.602e+003
1100.284, 6.894e+003
1101.519, 7.313e+003
1102.755, 7.498e+003
1103.990, 7.840e+003
1105.224, 8.019e+003
1106.459, 8.056e+003
1107.693, 8.044e+003
1108.928, 7.778e+003
1110.162, 7.552e+003
1111.395, 7.216e+003
1112.629, 6.848e+003
1113.863, 6.642e+003
1115.096, 6.393e+003
1116.329, 6.052e+003
1117.562, 5.923e+003
1118.795, 5.662e+003
1120.027, 5.528e+003
1121.259, 5.513e+003
1122.492, 5.329e+003
1123.723, 5.245e+003
1124.955, 5.145e+003
1126.187, 5.076e+003
1127.418, 5.085e+003
1128.649, 4.927e+003
1129.880, 4.908e+003
1131.111, 4.908e+003
1132.342, 4.815e+003
1133.572, 4.787e+003
1134.802, 4.741e+003
1136.033, 4.652e+003
1137.262, 4.715e+003
1138.492, 4.623e+003
1139.722, 4.557e+003
1140.951, 4.546e+003
1142.180, 4.532e+003
1143.409, 4.549e+003
1144.638, 4.566e+003
1145.866, 4.476e+003
1147.095, 4.514e+003
1148.323, 4.484e+003
1149.551, 4.538e+003
1150.779, 4.516e+003
1152.006, 4.435e+003
1153.234, 4.484e+003
1154.461, 4.485e+003
1155.688, 4.491e+003
1156.915, 4.491e+003
1158.141, 4.428e+003
1159.368, 4.472e+003
1160.594, 4.515e+003
1161.820, 4.404e+003
1163.046, 4.492e+003
1164.272, 4.428e+003
1165.498, 4.466e+003
1166.723, 4.493e+003
1167.948, 4.483e+003
1169.173, 4.561e+003
1170.398, 4.518e+003
1171.623, 4.481e+003
1172.847, 4.570e+003
1174.071, 4.585e+003
1175.295, 4.475e+003
1176.519, 4.572e+003
1177.743, 4.509e+003
1178.966, 4.569e+003
1180.190, 4.542e+003
1181.413, 4.545e+003
1182.636, 4.568e+003
1183.858, 4.529e+003
1185.081, 4.508e+003
1186.303, 4.542e+003
1187.526, 4.556e+003
1188.748, 4.530e+003
1189.969, 4.567e+003
1191.191, 4.483e+003
1192.412, 4.544e+003
1193.634, 4.484e+003
1194.855, 4.548e+003
1196.076, 4.560e+003
1197.296, 4.503e+003
1198.517, 4.524e+003
1199.737, 4.556e+003
1200.957, 4.566e+003
1202.177, 4.594e+003
1203.397, 4.527e+003
1204.617, 4.580e+003
1205.836, 4.579e+003
1207.055, 4.517e+003
1208.274, 4.552e+003
1209.493, 4.573e+003
1210.712, 4.559e+003
1211.930, 4.622e+003
1213.148, 4.574e+003
1214.367, 4.618e+003
1215.584, 4.639e+003
1216.802, 4.608e+003
1218.020, 4.561e+003
1219.237, 4.626e+003
1220.454, 4.557e+003
1221.671, 4.612e+003
1222.888, 4.629e+003
1224.105, 4.619e+003
1225.321, 4.654e+003
1226.537, 4.556e+003
1227.753, 4.579e+003
1228.969, 4.611e+003
1230.185, 4.591e+003
1231.400, 4.682e+003
1232.616, 4.646e+003
1233.831, 4.614e+003
1235.046, 4.639e+003
1236.261, 4.649e+003
1237.475, 4.687e+003
1238.689, 4.718e+003
1239.904, 4.675e+003
1241.118, 4.704e+003
1242.332, 4.655e+003
1243.545, 4.638e+003
1244.759, 4.731e+003
1245.972, 4.617e+003
1247.185, 4.704e+003
1248.398, 4.752e+003
1249.611, 4.687e+003
1250.823, 4.753e+003
1252.036, 4.688e+003
1253.248, 4.660e+003
1254.460, 4.721e+003
1255.671, 4.700e+003
1256.883, 4.674e+003
1258.095, 4.709e+003
1259.306, 4.637e+003
1260.517, 4.695e+003
1261.728, 4.770e+003
1262.938, 4.641e+003
1264.149, 4.767e+003
1265.359, 4.759e+003
1266.569, 4.749e+003
1267.779, 4.744e+003
1268.989, 4.704e+003
1270.199, 4.744e+003
1271.408, 4.806e+003
1272.617, 4.775e+003
1273.826, 4.747e+003
1275.035, 4.719e+003
1276.244, 4.778e+003
1277.452, 4.751e+003
1278.661, 4.652e+003
1279.869, 4.651e+003
1281.077, 4.657e+003
1282.285, 4.719e+003
1283.492, 4.740e+003
1284.700, 4.727e+003
1285.907, 4.650e+003
1287.114, 4.788e+003
1288.321, 4.733e+003
1289.527, 4.741e+003
1290.734, 4.788e+003
1291.940, 4.776e+003
1293.146, 4.822e+003
1294.352, 4.800e+003
1295.558, 4.747e+003
1296.763, 4.777e+003
1297.969, 4.738e+003
1299.174, 4.756e+003
1300.379, 4.782e+003
1301.584, 4.773e+003
1302.788, 4.775e+003
1303.993, 4.782e+003
1305.197, 4.753e+003
1306.401, 4.876e+003
1307.605, 4.748e+003
1308.809, 4.844e+003
1310.013, 4.864e+003
1311.216, 4.746e+003
1312.419, 4.857e+003
1313.622, 4.873e+003
1314.825, 4.841e+003
1316.028, 4.901e+003
1317.230, 4.906e+003
1318.432, 4.878e+003
1319.634, 4.917e+003
1320.836, 4.899e+003
1322.038, 4.868e+003
1323.240, 4.906e+003
1324.441, 4.879e+003
1325.642, 4.905e+003
1326.843, 4.863e+003
1328.044, 4.844e+003
1329.245, 4.883e+003
1330.445, 4.815e+003
1331.645, 4.814e+003
1332.845, 4.873e+003
1334.045, 4.792e+003
1335.245, 4.860e+003
1336.445, 4.879e+003
1337.644, 4.789e+003
1338.843, 4.869e+003
1340.042, 4.846e+003
1341.241, 4.815e+003
1342.440, 4.848e+003
1343.638, 4.816e+003
1344.836, 4.851e+003
1346.034, 4.873e+003
1347.232, 4.861e+003
1348.430, 4.878e+003
1349.628, 4.896e+003
1350.825, 4.781e+003
1352.022, 4.890e+003
1353.219, 4.860e+003
1354.416, 4.830e+003
1355.613, 4.891e+003
1356.809, 4.909e+003
1358.005, 4.860e+003
1359.202, 4.924e+003
1360.398, 4.855e+003
1361.593, 4.918e+003
1362.789, 4.872e+003
1363.984, 4.884e+003
1365.179, 4.948e+003
1366.374, 4.965e+003
1367.569, 4.971e+003
1368.764, 4.988e+003
1369.958, 4.903e+003
1371.153, 5.023e+003
1372.347, 4.968e+003
1373.541, 4.955e+003
1374.735, 5.006e+003
1375.928, 5.040e+003
1377.122, 4.956e+003
1378.315, 5.009e+003
1379.508, 5.020e+003
1380.701, 5.013e+003
1381.893, 5.036e+003
1383.086, 4.984e+003
1384.278, 5.015e+003
1385.470, 5.076e+003
1386.662, 5.024e+003
1387.854, 4.986e+003
1389.046, 5.006e+003
1390.237, 5.017e+003
1391.428, 5.086e+003
1392.619, 5.039e+003
1393.810, 5.065e+003
1395.001, 5.003e+003
1396.191, 5.054e+003
1397.382, 5.061e+003
1398.572, 5.094e+003
1399.762, 5.064e+003
1400.952, 5.025e+003
1402.141, 5.108e+003
1403.331, 5.067e+003
1404.520, 5.129e+003
1405.709, 5.126e+003
1406.898, 5.108e+003
1408.087, 5.128e+003
1409.275, 5.087e+003
1410.464, 5.055e+003
1411.652, 5.191e+003
1412.840, 5.127e+003
1414.028, 5.190e+003
1415.215, 5.196e+003
1416.403, 5.184e+003
1417.590, 5.186e+003
1418.777, 5.158e+003
1419.964, 5.197e+003
1421.151, 5.247e+003
1422.338, 5.241e+003
1423.524, 5.218e+003
1424.710, 5.246e+003
1425.896, 5.214e+003
1427.082, 5.156e+003
1428.268, 5.237e+003
1429.453, 5.230e+003
1430.639, 5.278e+003
1431.824, 5.257e+003
1433.009, 5.295e+003
1434.194, 5.391e+003
1435.378, 5.338e+003
1436.563, 5.444e+003
1437.747, 5.440e+003
1438.931, 5.451e+003
1440.115, 5.530e+003
1441.299, 5.622e+003
1442.482, 5.556e+003
1443.666, 5.613e+003
1444.849, 5.615e+003
1446.032, 5.566e+003
1447.215, 5.658e+003
1448.397, 5.586e+003
1449.580, 5.710e+003
1450.762, 5.737e+003
1451.944, 5.704e+003
1453.126, 5.706e+003
1454.308, 5.744e+003
1455.490, 5.665e+003
1456.671, 5.656e+003
1457.852, 5.689e+003
1459.033, 5.699e+003
1460.214, 5.678e+003
1461.395, 5.636e+003
1462.575, 5.639e+003
1463.756, 5.594e+003
1464.936, 5.624e+003
1466.116, 5.637e+003
1467.296, 5.574e+003
1468.475, 5.531e+003
1469.655, 5.521e+003
1470.834, 5.550e+003
1472.013, 5.509e+003
1473.192, 5.520e+003
1474.371, 5.444e+003
1475.550, 5.544e+003
1476.728, 5.469e+003
1477.906, 5.476e+003
1479.084, 5.496e+003
1480.262, 5.551e+003
1481.440, 5.463e+003
1482.617, 5.496e+003
1483.795, 5.516e+003
1484.972, 5.447e+003
1486.149, 5.420e+003
1487.326, 5.390e+003
1488.502, 5.487e+003
1489.679, 5.488e+003
1490.855, 5.382e+003
1492.031, 5.501e+003
1493.207, 5.437e+003
1494.383, 5.394e+003
1495.559, 5.440e+003
1496.734, 5.386e+003
1497.909, 5.448e+003
1499.084, 5.428e+003
1500.259, 5.432e+003
1501.434, 5.431e+003
1502.608, 5.433e+003
1503.783, 5.638e+003
1504.957, 1.830e+002
##END=



