##NAMES=Danburite
##RRUFFID=R040013
##IDEAL CHEMISTRY=CaB_2_Si_2_O_8_
##LOCALITY=Charcas, San Luis Potosi, Mexico
##OWNER=RRUFF
##SOURCE=Marcus Origlieri
##DESCRIPTION=Colorless prismatic single crystal
##STATUS=The identification of this mineral has been confirmed by X-ray diffraction and chemical analysis
##URL=rruff.info/R040013
##MEASURED CHEMISTRY=Ca_1.00_B_2.00_Si_2.00_O_8_
##PIN_ID=M00012
##ORIENTATION=Laser parallel to c* (0 0 1). Fiducial mark perpendicular to laser is parallel to a [1 0 0]
26.288, 1.905e+003
27.694, 1.797e+003
29.099, 1.814e+003
30.504, 1.785e+003
31.909, 1.758e+003
33.313, 1.750e+003
34.717, 1.783e+003
36.121, 1.759e+003
37.525, 1.704e+003
38.929, 1.767e+003
40.332, 1.719e+003
41.735, 1.745e+003
43.138, 1.686e+003
44.541, 1.661e+003
45.943, 1.699e+003
47.345, 1.686e+003
48.747, 1.653e+003
50.149, 1.628e+003
51.551, 1.600e+003
52.952, 1.639e+003
54.353, 1.636e+003
55.754, 1.669e+003
57.155, 1.685e+003
58.555, 1.672e+003
59.955, 1.681e+003
61.355, 1.687e+003
62.755, 1.626e+003
64.154, 1.590e+003
65.553, 1.530e+003
66.952, 1.424e+003
68.351, 1.375e+003
69.750, 1.380e+003
71.148, 1.334e+003
72.546, 1.291e+003
73.944, 1.273e+003
75.342, 1.260e+003
76.739, 1.253e+003
78.136, 1.207e+003
79.533, 1.222e+003
80.930, 1.231e+003
82.327, 1.278e+003
83.723, 1.310e+003
85.119, 1.338e+003
86.515, 1.384e+003
87.910, 1.450e+003
89.306, 1.561e+003
90.701, 1.666e+003
92.096, 1.762e+003
93.490, 1.880e+003
94.885, 2.032e+003
96.279, 2.082e+003
97.673, 2.288e+003
99.067, 2.384e+003
100.461, 2.473e+003
101.854, 2.602e+003
103.247, 2.652e+003
104.640, 2.793e+003
106.032, 2.782e+003
107.425, 2.979e+003
108.817, 3.023e+003
110.209, 3.288e+003
111.601, 5.268e+003
112.992, 9.506e+003
114.384, 4.977e+003
115.775, 4.216e+003
117.166, 4.780e+003
118.556, 4.666e+003
119.947, 4.609e+003
121.337, 5.629e+003
122.727, 7.307e+003
124.116, 9.065e+003
125.506, 9.090e+003
126.895, 9.360e+003
128.284, 1.089e+004
129.673, 1.089e+004
131.062, 8.732e+003
132.450, 6.465e+003
133.838, 5.328e+003
135.226, 4.951e+003
136.614, 5.405e+003
138.001, 6.270e+003
139.388, 6.436e+003
140.775, 5.573e+003
142.162, 4.433e+003
143.549, 3.853e+003
144.935, 3.456e+003
146.321, 3.211e+003
147.707, 3.193e+003
149.093, 3.146e+003
150.478, 3.014e+003
151.863, 2.977e+003
153.248, 3.088e+003
154.633, 3.030e+003
156.018, 3.127e+003
157.402, 3.169e+003
158.786, 3.467e+003
160.170, 4.096e+003
161.554, 4.695e+003
162.937, 6.758e+003
164.320, 1.052e+004
165.703, 1.286e+004
167.086, 1.061e+004
168.469, 6.867e+003
169.851, 4.869e+003
171.233, 3.883e+003
172.615, 3.467e+003
173.996, 3.204e+003
175.378, 3.113e+003
176.759, 3.132e+003
178.140, 3.093e+003
179.521, 3.170e+003
180.901, 3.217e+003
182.281, 3.403e+003
183.662, 3.397e+003
185.041, 3.499e+003
186.421, 3.881e+003
187.800, 4.353e+003
189.180, 5.482e+003
190.558, 6.260e+003
191.937, 6.065e+003
193.316, 5.060e+003
194.694, 4.189e+003
196.072, 3.734e+003
197.450, 3.388e+003
198.827, 3.224e+003
200.205, 3.172e+003
201.582, 3.208e+003
202.959, 3.294e+003
204.336, 3.451e+003
205.712, 3.588e+003
207.088, 3.807e+003
208.465, 4.361e+003
209.840, 4.970e+003
211.216, 5.252e+003
212.591, 4.792e+003
213.967, 4.075e+003
215.341, 3.711e+003
216.716, 3.322e+003
218.091, 3.227e+003
219.465, 3.066e+003
220.839, 3.013e+003
222.213, 3.021e+003
223.586, 2.973e+003
224.960, 3.039e+003
226.333, 2.991e+003
227.706, 3.085e+003
229.079, 3.010e+003
230.451, 3.076e+003
231.823, 3.119e+003
233.195, 3.190e+003
234.567, 3.264e+003
235.939, 3.385e+003
237.310, 3.732e+003
238.682, 4.141e+003
240.052, 4.954e+003
241.423, 6.275e+003
242.794, 8.250e+003
244.164, 1.068e+004
245.534, 1.115e+004
246.904, 9.871e+003
248.274, 7.800e+003
249.643, 6.114e+003
251.012, 5.120e+003
252.381, 4.523e+003
253.750, 4.177e+003
255.118, 3.900e+003
256.487, 3.893e+003
257.855, 3.749e+003
259.223, 3.606e+003
260.590, 3.538e+003
261.958, 3.362e+003
263.325, 3.306e+003
264.692, 3.224e+003
266.059, 3.254e+003
267.425, 3.225e+003
268.791, 3.210e+003
270.158, 3.354e+003
271.523, 3.487e+003
272.889, 3.730e+003
274.255, 4.125e+003
275.620, 4.776e+003
276.985, 5.600e+003
278.350, 5.572e+003
279.714, 5.014e+003
281.078, 4.181e+003
282.443, 3.780e+003
283.806, 3.420e+003
285.170, 3.184e+003
286.534, 3.177e+003
287.897, 3.049e+003
289.260, 3.076e+003
290.623, 3.074e+003
291.985, 3.024e+003
293.348, 3.034e+003
294.710, 3.062e+003
296.072, 3.060e+003
297.433, 3.079e+003
298.795, 3.128e+003
300.156, 3.134e+003
301.517, 3.211e+003
302.878, 3.328e+003
304.239, 3.459e+003
305.599, 3.681e+003
306.959, 3.952e+003
308.319, 4.444e+003
309.679, 5.097e+003
311.038, 5.514e+003
312.398, 5.666e+003
313.757, 5.271e+003
315.116, 4.657e+003
316.474, 4.162e+003
317.833, 3.797e+003
319.191, 3.530e+003
320.549, 3.432e+003
321.907, 3.286e+003
323.264, 3.210e+003
324.622, 3.228e+003
325.979, 3.231e+003
327.336, 3.212e+003
328.692, 3.184e+003
330.049, 3.204e+003
331.405, 3.346e+003
332.761, 3.382e+003
334.117, 3.445e+003
335.473, 3.489e+003
336.828, 3.629e+003
338.183, 3.819e+003
339.538, 3.941e+003
340.893, 4.576e+003
342.247, 5.359e+003
343.602, 6.745e+003
344.956, 9.190e+003
346.310, 1.198e+004
347.663, 1.388e+004
349.017, 1.278e+004
350.370, 9.978e+003
351.723, 7.696e+003
353.076, 6.052e+003
354.428, 5.113e+003
355.780, 4.400e+003
357.133, 4.010e+003
358.484, 3.758e+003
359.836, 3.591e+003
361.188, 3.512e+003
362.539, 3.457e+003
363.890, 3.409e+003
365.241, 3.307e+003
366.591, 3.292e+003
367.942, 3.276e+003
369.292, 3.255e+003
370.642, 3.195e+003
371.992, 3.182e+003
373.341, 3.172e+003
374.691, 3.148e+003
376.040, 3.188e+003
377.388, 3.166e+003
378.737, 3.174e+003
380.086, 3.186e+003
381.434, 3.178e+003
382.782, 3.205e+003
384.130, 3.218e+003
385.477, 3.200e+003
386.825, 3.196e+003
388.172, 3.229e+003
389.519, 3.249e+003
390.865, 3.254e+003
392.212, 3.213e+003
393.558, 3.266e+003
394.904, 3.239e+003
396.250, 3.234e+003
397.596, 3.264e+003
398.941, 3.297e+003
400.286, 3.375e+003
401.631, 3.446e+003
402.976, 3.543e+003
404.321, 3.810e+003
405.665, 3.962e+003
407.009, 3.942e+003
408.353, 3.749e+003
409.697, 3.686e+003
411.040, 3.506e+003
412.384, 3.538e+003
413.727, 3.507e+003
415.070, 3.524e+003
416.412, 3.681e+003
417.755, 3.802e+003
419.097, 3.956e+003
420.439, 4.243e+003
421.781, 4.538e+003
423.122, 4.928e+003
424.464, 4.956e+003
425.805, 4.920e+003
427.146, 4.577e+003
428.486, 4.232e+003
429.827, 3.947e+003
431.167, 3.697e+003
432.507, 3.579e+003
433.847, 3.483e+003
435.187, 3.520e+003
436.526, 3.548e+003
437.865, 3.625e+003
439.204, 3.825e+003
440.543, 3.976e+003
441.882, 4.013e+003
443.220, 3.906e+003
444.558, 3.742e+003
445.896, 3.671e+003
447.234, 3.539e+003
448.572, 3.476e+003
449.909, 3.444e+003
451.246, 3.440e+003
452.583, 3.436e+003
453.919, 3.510e+003
455.256, 3.578e+003
456.592, 3.665e+003
457.928, 3.834e+003
459.264, 3.985e+003
460.600, 4.046e+003
461.935, 4.141e+003
463.270, 4.017e+003
464.605, 3.919e+003
465.940, 3.723e+003
467.274, 3.721e+003
468.609, 3.691e+003
469.943, 3.625e+003
471.277, 3.745e+003
472.610, 3.849e+003
473.944, 4.235e+003
475.277, 4.653e+003
476.610, 5.539e+003
477.943, 6.988e+003
479.275, 7.989e+003
480.608, 8.084e+003
481.940, 6.931e+003
483.272, 5.621e+003
484.604, 4.731e+003
485.935, 4.204e+003
487.267, 3.960e+003
488.598, 3.762e+003
489.929, 3.588e+003
491.260, 3.563e+003
492.590, 3.495e+003
493.920, 3.467e+003
495.250, 3.495e+003
496.580, 3.462e+003
497.910, 3.421e+003
499.239, 3.403e+003
500.569, 3.465e+003
501.898, 3.358e+003
503.226, 3.375e+003
504.555, 3.420e+003
505.883, 3.435e+003
507.212, 3.412e+003
508.540, 3.417e+003
509.867, 3.403e+003
511.195, 3.395e+003
512.522, 3.418e+003
513.849, 3.441e+003
515.176, 3.433e+003
516.503, 3.478e+003
517.829, 3.471e+003
519.156, 3.462e+003
520.482, 3.544e+003
521.808, 3.470e+003
523.133, 3.497e+003
524.459, 3.419e+003
525.784, 3.498e+003
527.109, 3.531e+003
528.434, 3.474e+003
529.758, 3.546e+003
531.083, 3.447e+003
532.407, 3.469e+003
533.731, 3.525e+003
535.055, 3.535e+003
536.378, 3.558e+003
537.701, 3.524e+003
539.025, 3.580e+003
540.348, 3.584e+003
541.670, 3.558e+003
542.993, 3.515e+003
544.315, 3.562e+003
545.637, 3.602e+003
546.959, 3.615e+003
548.281, 3.638e+003
549.602, 3.667e+003
550.923, 3.613e+003
552.244, 3.686e+003
553.565, 3.683e+003
554.886, 3.678e+003
556.206, 3.800e+003
557.526, 3.798e+003
558.846, 3.974e+003
560.166, 4.129e+003
561.486, 4.437e+003
562.805, 4.510e+003
564.124, 4.448e+003
565.443, 4.286e+003
566.762, 4.159e+003
568.080, 4.028e+003
569.399, 4.054e+003
570.717, 3.986e+003
572.035, 4.003e+003
573.352, 4.033e+003
574.670, 3.983e+003
575.987, 4.073e+003
577.304, 4.068e+003
578.621, 4.227e+003
579.938, 4.250e+003
581.254, 4.380e+003
582.570, 4.399e+003
583.886, 4.502e+003
585.202, 4.598e+003
586.518, 4.622e+003
587.833, 4.723e+003
589.148, 4.813e+003
590.463, 4.949e+003
591.778, 5.102e+003
593.093, 5.300e+003
594.407, 5.521e+003
595.721, 5.815e+003
597.035, 6.285e+003
598.349, 6.919e+003
599.662, 7.604e+003
600.976, 8.865e+003
602.289, 1.041e+004
603.602, 1.292e+004
604.914, 1.686e+004
606.227, 2.215e+004
607.539, 2.974e+004
608.851, 3.560e+004
610.163, 3.783e+004
611.475, 3.474e+004
612.786, 2.882e+004
614.097, 2.295e+004
615.408, 1.744e+004
616.719, 1.417e+004
618.030, 1.168e+004
619.340, 9.794e+003
620.651, 8.803e+003
621.961, 8.142e+003
623.270, 7.716e+003
624.580, 7.686e+003
625.889, 7.884e+003
627.199, 8.114e+003
628.507, 7.919e+003
629.816, 7.506e+003
631.125, 6.876e+003
632.433, 6.339e+003
633.741, 6.016e+003
635.049, 5.588e+003
636.357, 5.521e+003
637.664, 5.297e+003
638.972, 5.175e+003
640.279, 5.014e+003
641.586, 4.940e+003
642.893, 4.866e+003
644.199, 4.794e+003
645.505, 4.834e+003
646.811, 4.718e+003
648.117, 4.628e+003
649.423, 4.649e+003
650.728, 4.502e+003
652.034, 4.523e+003
653.339, 4.549e+003
654.644, 4.360e+003
655.948, 4.416e+003
657.253, 4.321e+003
658.557, 4.281e+003
659.861, 4.294e+003
661.165, 4.192e+003
662.468, 4.232e+003
663.772, 4.112e+003
665.075, 4.139e+003
666.378, 4.128e+003
667.681, 4.157e+003
668.983, 4.089e+003
670.286, 4.158e+003
671.588, 4.128e+003
672.890, 4.132e+003
674.192, 4.126e+003
675.493, 4.116e+003
676.795, 4.088e+003
678.096, 4.014e+003
679.397, 4.052e+003
680.697, 4.050e+003
681.998, 4.066e+003
683.298, 4.032e+003
684.598, 4.056e+003
685.898, 4.041e+003
687.198, 4.048e+003
688.498, 4.068e+003
689.797, 4.108e+003
691.096, 4.078e+003
692.395, 4.103e+003
693.694, 4.076e+003
694.992, 4.076e+003
696.290, 4.066e+003
697.589, 4.127e+003
698.886, 4.152e+003
700.184, 4.100e+003
701.482, 4.122e+003
702.779, 4.091e+003
704.076, 4.112e+003
705.373, 4.133e+003
706.669, 4.112e+003
707.966, 4.137e+003
709.262, 4.126e+003
710.558, 4.124e+003
711.854, 4.102e+003
713.150, 4.096e+003
714.445, 4.161e+003
715.740, 4.134e+003
717.035, 4.149e+003
718.330, 4.202e+003
719.625, 4.157e+003
720.919, 4.238e+003
722.214, 4.104e+003
723.508, 4.168e+003
724.801, 4.210e+003
726.095, 4.182e+003
727.388, 4.247e+003
728.682, 4.210e+003
729.975, 4.240e+003
731.267, 4.247e+003
732.560, 4.218e+003
733.852, 4.297e+003
735.145, 4.266e+003
736.437, 4.279e+003
737.728, 4.273e+003
739.020, 4.218e+003
740.311, 4.311e+003
741.603, 4.209e+003
742.894, 4.249e+003
744.184, 4.339e+003
745.475, 4.343e+003
746.765, 4.329e+003
748.055, 4.358e+003
749.345, 4.357e+003
750.635, 4.409e+003
751.925, 4.387e+003
753.214, 4.385e+003
754.503, 4.358e+003
755.792, 4.361e+003
757.081, 4.405e+003
758.370, 4.379e+003
759.658, 4.416e+003
760.946, 4.395e+003
762.234, 4.407e+003
763.522, 4.384e+003
764.809, 4.377e+003
766.097, 4.453e+003
767.384, 4.507e+003
768.671, 4.538e+003
769.958, 4.557e+003
771.244, 4.566e+003
772.530, 4.564e+003
773.817, 4.615e+003
775.102, 4.644e+003
776.388, 4.612e+003
777.674, 4.576e+003
778.959, 4.515e+003
780.244, 4.526e+003
781.529, 4.474e+003
782.814, 4.500e+003
784.098, 4.462e+003
785.383, 4.500e+003
786.667, 4.565e+003
787.951, 4.502e+003
789.235, 4.522e+003
790.518, 4.569e+003
791.801, 4.570e+003
793.084, 4.566e+003
794.367, 4.540e+003
795.650, 4.575e+003
796.933, 4.609e+003
798.215, 4.642e+003
799.497, 4.558e+003
800.779, 4.502e+003
802.061, 4.606e+003
803.342, 4.562e+003
804.624, 4.514e+003
805.905, 4.577e+003
807.186, 4.546e+003
808.466, 4.576e+003
809.747, 4.608e+003
811.027, 4.583e+003
812.307, 4.547e+003
813.587, 4.631e+003
814.867, 4.578e+003
816.146, 4.618e+003
817.426, 4.608e+003
818.705, 4.664e+003
819.984, 4.660e+003
821.263, 4.625e+003
822.541, 4.651e+003
823.819, 4.636e+003
825.098, 4.732e+003
826.375, 4.660e+003
827.653, 4.677e+003
828.931, 4.769e+003
830.208, 4.714e+003
831.485, 4.773e+003
832.762, 4.746e+003
834.039, 4.762e+003
835.315, 4.797e+003
836.592, 4.730e+003
837.868, 4.828e+003
839.144, 4.891e+003
840.420, 4.836e+003
841.695, 4.901e+003
842.970, 4.919e+003
844.246, 4.996e+003
845.521, 4.904e+003
846.795, 4.973e+003
848.070, 5.020e+003
849.344, 5.026e+003
850.618, 5.022e+003
851.892, 5.049e+003
853.166, 5.009e+003
854.440, 5.128e+003
855.713, 5.068e+003
856.986, 5.197e+003
858.259, 5.211e+003
859.532, 5.226e+003
860.804, 5.350e+003
862.077, 5.256e+003
863.349, 5.195e+003
864.621, 5.225e+003
865.893, 5.200e+003
867.164, 5.173e+003
868.436, 5.089e+003
869.707, 5.052e+003
870.978, 5.186e+003
872.248, 5.116e+003
873.519, 5.081e+003
874.789, 5.197e+003
876.060, 5.173e+003
877.330, 5.187e+003
878.599, 5.097e+003
879.869, 5.277e+003
881.138, 5.216e+003
882.408, 5.190e+003
883.677, 5.259e+003
884.945, 5.254e+003
886.214, 5.154e+003
887.482, 5.274e+003
888.751, 5.269e+003
890.019, 5.291e+003
891.287, 5.393e+003
892.554, 5.353e+003
893.822, 5.441e+003
895.089, 5.423e+003
896.356, 5.519e+003
897.623, 5.623e+003
898.889, 5.610e+003
900.156, 5.713e+003
901.422, 5.764e+003
902.688, 5.866e+003
903.954, 5.994e+003
905.220, 5.924e+003
906.485, 5.958e+003
907.750, 6.002e+003
909.015, 5.952e+003
910.280, 6.134e+003
911.545, 6.088e+003
912.809, 6.195e+003
914.074, 6.208e+003
915.338, 6.196e+003
916.602, 6.367e+003
917.865, 6.237e+003
919.129, 6.148e+003
920.392, 6.006e+003
921.655, 5.822e+003
922.918, 5.854e+003
924.181, 5.684e+003
925.443, 5.799e+003
926.706, 5.804e+003
927.968, 5.708e+003
929.230, 5.705e+003
930.491, 5.678e+003
931.753, 5.751e+003
933.014, 5.828e+003
934.276, 5.888e+003
935.536, 5.922e+003
936.797, 6.025e+003
938.058, 6.067e+003
939.318, 6.332e+003
940.578, 6.411e+003
941.838, 6.720e+003
943.098, 7.040e+003
944.358, 7.251e+003
945.617, 7.718e+003
946.876, 7.801e+003
948.135, 8.058e+003
949.394, 7.983e+003
950.653, 7.703e+003
951.911, 7.446e+003
953.169, 7.159e+003
954.427, 6.815e+003
955.685, 6.699e+003
956.943, 6.471e+003
958.200, 6.369e+003
959.458, 6.400e+003
960.715, 6.327e+003
961.971, 6.304e+003
963.228, 6.440e+003
964.485, 6.549e+003
965.741, 6.785e+003
966.997, 7.034e+003
968.253, 7.710e+003
969.508, 8.259e+003
970.764, 9.017e+003
972.019, 9.755e+003
973.274, 1.005e+004
974.529, 9.844e+003
975.784, 9.241e+003
977.039, 8.592e+003
978.293, 8.039e+003
979.547, 7.517e+003
980.801, 7.210e+003
982.055, 7.065e+003
983.308, 6.695e+003
984.562, 6.661e+003
985.815, 6.534e+003
987.068, 6.473e+003
988.321, 6.438e+003
989.573, 6.351e+003
990.826, 6.308e+003
992.078, 6.307e+003
993.330, 6.167e+003
994.582, 6.277e+003
995.833, 6.292e+003
997.085, 6.401e+003
998.336, 6.559e+003
999.587, 6.668e+003
1000.838, 7.221e+003
1002.088, 7.308e+003
1003.339, 7.352e+003
1004.589, 7.766e+003
1005.839, 8.038e+003
1007.089, 8.614e+003
1008.339, 8.910e+003
1009.588, 8.582e+003
1010.838, 8.218e+003
1012.087, 7.584e+003
1013.336, 7.145e+003
1014.584, 6.874e+003
1015.833, 6.486e+003
1017.081, 6.552e+003
1018.330, 6.430e+003
1019.577, 6.521e+003
1020.825, 6.580e+003
1022.073, 6.552e+003
1023.320, 6.711e+003
1024.567, 6.758e+003
1025.814, 6.724e+003
1027.061, 6.916e+003
1028.308, 6.817e+003
1029.554, 6.698e+003
1030.800, 6.670e+003
1032.046, 6.481e+003
1033.292, 6.403e+003
1034.538, 6.268e+003
1035.783, 6.077e+003
1037.029, 6.118e+003
1038.274, 5.983e+003
1039.519, 6.006e+003
1040.763, 5.952e+003
1042.008, 5.955e+003
1043.252, 5.944e+003
1044.496, 5.859e+003
1045.740, 5.908e+003
1046.984, 5.946e+003
1048.228, 5.919e+003
1049.471, 5.936e+003
1050.714, 5.937e+003
1051.957, 5.944e+003
1053.200, 5.968e+003
1054.442, 5.964e+003
1055.685, 5.920e+003
1056.927, 5.974e+003
1058.169, 5.943e+003
1059.411, 5.948e+003
1060.652, 5.911e+003
1061.894, 5.958e+003
1063.135, 5.982e+003
1064.376, 5.994e+003
1065.617, 5.984e+003
1066.858, 6.074e+003
1068.098, 6.087e+003
1069.339, 6.166e+003
1070.579, 6.136e+003
1071.819, 6.188e+003
1073.058, 6.219e+003
1074.298, 6.334e+003
1075.537, 6.436e+003
1076.776, 6.597e+003
1078.015, 6.608e+003
1079.254, 6.737e+003
1080.493, 6.721e+003
1081.731, 6.737e+003
1082.969, 6.720e+003
1084.207, 6.680e+003
1085.445, 6.636e+003
1086.683, 6.616e+003
1087.920, 6.503e+003
1089.157, 6.610e+003
1090.394, 6.592e+003
1091.631, 6.652e+003
1092.868, 6.725e+003
1094.105, 6.691e+003
1095.341, 6.794e+003
1096.577, 6.902e+003
1097.813, 7.030e+003
1099.049, 7.200e+003
1100.284, 7.225e+003
1101.519, 7.406e+003
1102.755, 7.591e+003
1103.990, 7.806e+003
1105.224, 7.860e+003
1106.459, 7.983e+003
1107.693, 7.969e+003
1108.928, 7.907e+003
1110.162, 7.686e+003
1111.395, 7.650e+003
1112.629, 7.450e+003
1113.863, 7.246e+003
1115.096, 7.148e+003
1116.329, 6.946e+003
1117.562, 6.896e+003
1118.795, 6.818e+003
1120.027, 6.796e+003
1121.259, 6.779e+003
1122.492, 6.741e+003
1123.723, 6.569e+003
1124.955, 6.583e+003
1126.187, 6.569e+003
1127.418, 6.490e+003
1128.649, 6.477e+003
1129.880, 6.475e+003
1131.111, 6.494e+003
1132.342, 6.424e+003
1133.572, 6.362e+003
1134.802, 6.311e+003
1136.033, 6.318e+003
1137.262, 6.361e+003
1138.492, 6.323e+003
1139.722, 6.210e+003
1140.951, 6.359e+003
1142.180, 6.234e+003
1143.409, 6.262e+003
1144.638, 6.323e+003
1145.866, 6.214e+003
1147.095, 6.251e+003
1148.323, 6.281e+003
1149.551, 6.248e+003
1150.779, 6.278e+003
1152.006, 6.245e+003
1153.234, 6.298e+003
1154.461, 6.350e+003
1155.688, 6.299e+003
1156.915, 6.391e+003
1158.141, 6.385e+003
1159.368, 6.427e+003
1160.594, 6.425e+003
1161.820, 6.461e+003
1163.046, 6.568e+003
1164.272, 6.751e+003
1165.498, 6.649e+003
1166.723, 6.786e+003
1167.948, 6.865e+003
1169.173, 6.852e+003
1170.398, 7.115e+003
1171.623, 7.254e+003
1172.847, 7.240e+003
1174.071, 7.428e+003
1175.295, 7.381e+003
1176.519, 7.376e+003
1177.743, 7.281e+003
1178.966, 7.137e+003
1180.190, 7.176e+003
1181.413, 6.982e+003
1182.636, 6.879e+003
1183.858, 6.892e+003
1185.081, 6.764e+003
1186.303, 6.822e+003
1187.526, 6.726e+003
1188.748, 6.649e+003
1189.969, 6.670e+003
1191.191, 6.624e+003
1192.412, 6.614e+003
1193.634, 6.633e+003
1194.855, 6.498e+003
1196.076, 6.429e+003
1197.296, 6.513e+003
1198.517, 6.560e+003
1199.737, 6.572e+003
1200.957, 6.501e+003
1202.177, 6.554e+003
1203.397, 6.514e+003
1204.617, 6.489e+003
1205.836, 6.520e+003
1207.055, 6.475e+003
1208.274, 6.477e+003
1209.493, 6.493e+003
1210.712, 6.521e+003
1211.930, 6.490e+003
1213.148, 6.630e+003
1214.367, 6.569e+003
1215.584, 6.659e+003
1216.802, 6.619e+003
1218.020, 6.543e+003
1219.237, 6.649e+003
1220.454, 6.535e+003
1221.671, 6.576e+003
1222.888, 6.542e+003
1224.105, 6.514e+003
1225.321, 6.523e+003
1226.537, 6.615e+003
1227.753, 6.545e+003
1228.969, 6.646e+003
1230.185, 6.553e+003
1231.400, 6.648e+003
1232.616, 6.652e+003
1233.831, 6.670e+003
1235.046, 6.691e+003
1236.261, 6.771e+003
1237.475, 6.702e+003
1238.689, 6.797e+003
1239.904, 6.695e+003
1241.118, 6.759e+003
1242.332, 6.777e+003
1243.545, 6.710e+003
1244.759, 6.676e+003
1245.972, 6.785e+003
1247.185, 6.726e+003
1248.398, 6.833e+003
1249.611, 6.738e+003
1250.823, 6.773e+003
1252.036, 6.795e+003
1253.248, 6.764e+003
1254.460, 6.750e+003
1255.671, 6.802e+003
1256.883, 6.657e+003
1258.095, 6.886e+003
1259.306, 6.811e+003
1260.517, 6.760e+003
1261.728, 6.880e+003
1262.938, 6.758e+003
1264.149, 6.855e+003
1265.359, 6.858e+003
1266.569, 6.897e+003
1267.779, 7.017e+003
1268.989, 6.977e+003
1270.199, 6.922e+003
1271.408, 6.974e+003
1272.617, 6.883e+003
1273.826, 6.936e+003
1275.035, 7.021e+003
1276.244, 6.922e+003
1277.452, 6.931e+003
1278.661, 6.915e+003
1279.869, 6.850e+003
1281.077, 6.939e+003
1282.285, 6.818e+003
1283.492, 6.775e+003
1284.700, 6.842e+003
1285.907, 6.747e+003
1287.114, 6.882e+003
1288.321, 6.854e+003
1289.527, 6.777e+003
1290.734, 6.879e+003
1291.940, 6.921e+003
1293.146, 6.881e+003
1294.352, 7.058e+003
1295.558, 6.913e+003
1296.763, 6.941e+003
1297.969, 6.988e+003
1299.174, 6.850e+003
1300.379, 6.987e+003
1301.584, 6.884e+003
1302.788, 6.856e+003
1303.993, 6.944e+003
1305.197, 6.954e+003
1306.401, 6.966e+003
1307.605, 7.085e+003
1308.809, 7.058e+003
1310.013, 7.142e+003
1311.216, 7.102e+003
1312.419, 7.086e+003
1313.622, 7.116e+003
1314.825, 7.137e+003
1316.028, 7.179e+003
1317.230, 7.189e+003
1318.432, 7.118e+003
1319.634, 7.190e+003
1320.836, 7.307e+003
1322.038, 7.090e+003
1323.240, 7.162e+003
1324.441, 7.236e+003
1325.642, 7.074e+003
1326.843, 7.120e+003
1328.044, 7.028e+003
1329.245, 6.957e+003
1330.445, 7.124e+003
1331.645, 7.022e+003
1332.845, 6.980e+003
1334.045, 6.937e+003
1335.245, 7.021e+003
1336.445, 7.036e+003
1337.644, 6.964e+003
1338.843, 6.930e+003
1340.042, 7.059e+003
1341.241, 6.989e+003
1342.440, 6.951e+003
1343.638, 7.030e+003
1344.836, 6.961e+003
1346.034, 7.021e+003
1347.232, 7.089e+003
1348.430, 6.959e+003
1349.628, 7.057e+003
1350.825, 7.008e+003
1352.022, 7.150e+003
1353.219, 7.127e+003
1354.416, 7.071e+003
1355.613, 7.036e+003
1356.809, 7.050e+003
1358.005, 7.036e+003
1359.202, 7.052e+003
1360.398, 7.127e+003
1361.593, 7.154e+003
1362.789, 7.127e+003
1363.984, 7.110e+003
1365.179, 7.215e+003
1366.374, 7.178e+003
1367.569, 7.105e+003
1368.764, 7.105e+003
1369.958, 7.158e+003
1371.153, 7.111e+003
1372.347, 7.175e+003
1373.541, 7.210e+003
1374.735, 7.182e+003
1375.928, 7.257e+003
1377.122, 7.279e+003
1378.315, 7.274e+003
1379.508, 7.292e+003
1380.701, 7.313e+003
1381.893, 7.241e+003
1383.086, 7.364e+003
1384.278, 7.308e+003
1385.470, 7.380e+003
1386.662, 7.350e+003
1387.854, 7.283e+003
1389.046, 7.356e+003
1390.237, 7.400e+003
1391.428, 7.318e+003
1392.619, 7.315e+003
1393.810, 7.318e+003
1395.001, 7.385e+003
1396.191, 7.377e+003
1397.382, 7.319e+003
1398.572, 7.332e+003
1399.762, 7.311e+003
1400.952, 7.370e+003
1402.141, 7.366e+003
1403.331, 7.350e+003
1404.520, 7.375e+003
1405.709, 7.390e+003
1406.898, 7.374e+003
1408.087, 7.426e+003
1409.275, 7.412e+003
1410.464, 7.366e+003
1411.652, 7.460e+003
1412.840, 7.519e+003
1414.028, 7.379e+003
1415.215, 7.569e+003
1416.403, 7.465e+003
1417.590, 7.495e+003
1418.777, 7.544e+003
1419.964, 7.479e+003
1421.151, 7.436e+003
1422.338, 7.570e+003
1423.524, 7.412e+003
1424.710, 7.616e+003
1425.896, 7.546e+003
1427.082, 7.690e+003
1428.268, 7.780e+003
1429.453, 7.695e+003
1430.639, 7.723e+003
1431.824, 7.772e+003
1433.009, 7.754e+003
1434.194, 7.886e+003
1435.378, 7.901e+003
1436.563, 7.963e+003
1437.747, 8.134e+003
1438.931, 8.148e+003
1440.115, 8.198e+003
1441.299, 8.432e+003
1442.482, 8.322e+003
1443.666, 8.451e+003
1444.849, 8.497e+003
1446.032, 8.386e+003
1447.215, 8.625e+003
1448.397, 8.631e+003
1449.580, 8.453e+003
1450.762, 8.737e+003
1451.944, 8.640e+003
1453.126, 8.662e+003
1454.308, 8.736e+003
1455.490, 8.719e+003
1456.671, 8.756e+003
1457.852, 8.791e+003
1459.033, 8.710e+003
1460.214, 8.654e+003
1461.395, 8.660e+003
1462.575, 8.480e+003
1463.756, 8.491e+003
1464.936, 8.462e+003
1466.116, 8.407e+003
1467.296, 8.317e+003
1468.475, 8.247e+003
1469.655, 8.220e+003
1470.834, 8.263e+003
1472.013, 8.168e+003
1473.192, 8.144e+003
1474.371, 8.138e+003
1475.550, 8.130e+003
1476.728, 8.061e+003
1477.906, 8.184e+003
1479.084, 8.061e+003
1480.262, 8.103e+003
1481.440, 8.054e+003
1482.617, 8.129e+003
1483.795, 8.099e+003
1484.972, 8.062e+003
1486.149, 8.048e+003
1487.326, 8.052e+003
1488.502, 7.945e+003
1489.679, 8.000e+003
1490.855, 7.967e+003
1492.031, 7.960e+003
1493.207, 7.980e+003
1494.383, 7.948e+003
1495.559, 7.856e+003
1496.734, 7.882e+003
1497.909, 7.885e+003
1499.084, 7.860e+003
1500.259, 7.900e+003
1501.434, 7.877e+003
1502.608, 7.907e+003
1503.783, 8.276e+003
1504.957, 1.950e+002
##END=



