##NAMES=Danburite
##RRUFFID=R040013
##IDEAL CHEMISTRY=CaB_2_Si_2_O_8_
##LOCALITY=Charcas, San Luis Potosi, Mexico
##OWNER=RRUFF
##SOURCE=Marcus Origlieri
##DESCRIPTION=Colorless prismatic single crystal
##STATUS=The identification of this mineral has been confirmed by X-ray diffraction and chemical analysis
##URL=rruff.info/R040013
##MEASURED CHEMISTRY=Ca_1.00_B_2.00_Si_2.00_O_8_
##PIN_ID=M00010
##ORIENTATION=Laser parallel to a* (1 0 0). Fiducial mark perpendicular to laser is parallel to b [0 1 0]
26.288, 1.010e+003
27.694, 1.032e+003
29.099, 1.008e+003
30.504, 9.880e+002
31.909, 9.990e+002
33.313, 9.960e+002
34.717, 9.800e+002
36.121, 9.580e+002
37.525, 9.170e+002
38.929, 9.130e+002
40.332, 9.120e+002
41.735, 8.680e+002
43.138, 8.740e+002
44.541, 8.840e+002
45.943, 8.680e+002
47.345, 8.440e+002
48.747, 8.360e+002
50.149, 8.180e+002
51.551, 8.040e+002
52.952, 8.140e+002
54.353, 8.140e+002
55.754, 8.020e+002
57.155, 8.120e+002
58.555, 8.350e+002
59.955, 8.280e+002
61.355, 8.220e+002
62.755, 8.480e+002
64.154, 8.330e+002
65.553, 8.490e+002
66.952, 8.410e+002
68.351, 8.200e+002
69.750, 8.470e+002
71.148, 8.840e+002
72.546, 8.860e+002
73.944, 9.100e+002
75.342, 8.770e+002
76.739, 8.150e+002
78.136, 8.340e+002
79.533, 8.610e+002
80.930, 7.900e+002
82.327, 7.830e+002
83.723, 8.040e+002
85.119, 8.100e+002
86.515, 7.990e+002
87.910, 7.980e+002
89.306, 8.410e+002
90.701, 8.320e+002
92.096, 8.360e+002
93.490, 8.370e+002
94.885, 8.620e+002
96.279, 8.680e+002
97.673, 9.020e+002
99.067, 9.310e+002
100.461, 9.150e+002
101.854, 9.390e+002
103.247, 9.600e+002
104.640, 1.003e+003
106.032, 1.029e+003
107.425, 1.102e+003
108.817, 1.202e+003
110.209, 1.682e+003
111.601, 3.110e+003
112.992, 2.164e+003
114.384, 1.652e+003
115.775, 1.417e+003
117.166, 1.392e+003
118.556, 1.485e+003
119.947, 1.626e+003
121.337, 1.845e+003
122.727, 1.948e+003
124.116, 1.864e+003
125.506, 1.590e+003
126.895, 1.428e+003
128.284, 1.325e+003
129.673, 1.289e+003
131.062, 1.247e+003
132.450, 1.249e+003
133.838, 1.287e+003
135.226, 1.305e+003
136.614, 1.344e+003
138.001, 1.312e+003
139.388, 1.316e+003
140.775, 1.267e+003
142.162, 1.238e+003
143.549, 1.236e+003
144.935, 1.236e+003
146.321, 1.281e+003
147.707, 1.338e+003
149.093, 1.430e+003
150.478, 1.468e+003
151.863, 1.402e+003
153.248, 1.326e+003
154.633, 1.310e+003
156.018, 1.316e+003
157.402, 1.321e+003
158.786, 1.411e+003
160.170, 1.590e+003
161.554, 1.756e+003
162.937, 2.098e+003
164.320, 2.397e+003
165.703, 2.296e+003
167.086, 1.999e+003
168.469, 1.918e+003
169.851, 2.025e+003
171.233, 2.358e+003
172.615, 3.003e+003
173.996, 4.259e+003
175.378, 6.577e+003
176.759, 1.004e+004
178.140, 1.631e+004
179.521, 2.330e+004
180.901, 2.499e+004
182.281, 1.930e+004
183.662, 1.122e+004
185.041, 6.414e+003
186.421, 4.173e+003
187.800, 3.352e+003
189.180, 3.005e+003
190.558, 2.951e+003
191.937, 2.812e+003
193.316, 2.410e+003
194.694, 2.043e+003
196.072, 1.829e+003
197.450, 1.768e+003
198.827, 1.730e+003
200.205, 1.865e+003
201.582, 2.106e+003
202.959, 2.152e+003
204.336, 2.286e+003
205.712, 2.430e+003
207.088, 2.724e+003
208.465, 3.107e+003
209.840, 3.257e+003
211.216, 2.829e+003
212.591, 2.245e+003
213.967, 1.807e+003
215.341, 1.585e+003
216.716, 1.479e+003
218.091, 1.469e+003
219.465, 1.452e+003
220.839, 1.600e+003
222.213, 1.747e+003
223.586, 2.031e+003
224.960, 2.157e+003
226.333, 2.062e+003
227.706, 1.756e+003
229.079, 1.531e+003
230.451, 1.450e+003
231.823, 1.470e+003
233.195, 1.546e+003
234.567, 1.650e+003
235.939, 1.850e+003
237.310, 2.266e+003
238.682, 2.913e+003
240.052, 4.067e+003
241.423, 5.481e+003
242.794, 7.255e+003
244.164, 7.800e+003
245.534, 6.641e+003
246.904, 4.990e+003
248.274, 3.555e+003
249.643, 2.781e+003
251.012, 2.305e+003
252.381, 2.043e+003
253.750, 1.865e+003
255.118, 1.752e+003
256.487, 1.637e+003
257.855, 1.533e+003
259.223, 1.503e+003
260.590, 1.463e+003
261.958, 1.432e+003
263.325, 1.411e+003
264.692, 1.372e+003
266.059, 1.381e+003
267.425, 1.358e+003
268.791, 1.396e+003
270.158, 1.382e+003
271.523, 1.376e+003
272.889, 1.362e+003
274.255, 1.391e+003
275.620, 1.434e+003
276.985, 1.458e+003
278.350, 1.429e+003
279.714, 1.350e+003
281.078, 1.344e+003
282.443, 1.364e+003
283.806, 1.403e+003
285.170, 1.394e+003
286.534, 1.487e+003
287.897, 1.585e+003
289.260, 1.786e+003
290.623, 1.981e+003
291.985, 2.230e+003
293.348, 2.352e+003
294.710, 2.362e+003
296.072, 2.117e+003
297.433, 1.870e+003
298.795, 1.754e+003
300.156, 1.737e+003
301.517, 1.790e+003
302.878, 1.941e+003
304.239, 2.198e+003
305.599, 2.537e+003
306.959, 3.102e+003
308.319, 3.789e+003
309.679, 4.468e+003
311.038, 4.691e+003
312.398, 4.437e+003
313.757, 3.631e+003
315.116, 2.974e+003
316.474, 2.457e+003
317.833, 2.126e+003
319.191, 1.884e+003
320.549, 1.772e+003
321.907, 1.691e+003
323.264, 1.646e+003
324.622, 1.668e+003
325.979, 1.655e+003
327.336, 1.746e+003
328.692, 1.742e+003
330.049, 1.702e+003
331.405, 1.728e+003
332.761, 1.737e+003
334.117, 1.782e+003
335.473, 1.878e+003
336.828, 2.065e+003
338.183, 2.320e+003
339.538, 2.762e+003
340.893, 3.613e+003
342.247, 4.976e+003
343.602, 7.105e+003
344.956, 9.872e+003
346.310, 1.157e+004
347.663, 1.072e+004
349.017, 8.010e+003
350.370, 5.497e+003
351.723, 3.776e+003
353.076, 2.866e+003
354.428, 2.398e+003
355.780, 2.062e+003
357.133, 1.850e+003
358.484, 1.739e+003
359.836, 1.645e+003
361.188, 1.579e+003
362.539, 1.512e+003
363.890, 1.514e+003
365.241, 1.497e+003
366.591, 1.490e+003
367.942, 1.469e+003
369.292, 1.429e+003
370.642, 1.405e+003
371.992, 1.409e+003
373.341, 1.426e+003
374.691, 1.429e+003
376.040, 1.396e+003
377.388, 1.400e+003
378.737, 1.373e+003
380.086, 1.392e+003
381.434, 1.396e+003
382.782, 1.383e+003
384.130, 1.437e+003
385.477, 1.407e+003
386.825, 1.408e+003
388.172, 1.414e+003
389.519, 1.441e+003
390.865, 1.487e+003
392.212, 1.478e+003
393.558, 1.474e+003
394.904, 1.478e+003
396.250, 1.498e+003
397.596, 1.446e+003
398.941, 1.463e+003
400.286, 1.500e+003
401.631, 1.468e+003
402.976, 1.490e+003
404.321, 1.528e+003
405.665, 1.538e+003
407.009, 1.560e+003
408.353, 1.525e+003
409.697, 1.607e+003
411.040, 1.583e+003
412.384, 1.649e+003
413.727, 1.682e+003
415.070, 1.804e+003
416.412, 1.907e+003
417.755, 2.070e+003
419.097, 2.299e+003
420.439, 2.460e+003
421.781, 2.691e+003
423.122, 2.786e+003
424.464, 2.678e+003
425.805, 2.412e+003
427.146, 2.155e+003
428.486, 1.892e+003
429.827, 1.805e+003
431.167, 1.702e+003
432.507, 1.715e+003
433.847, 1.791e+003
435.187, 1.965e+003
436.526, 2.257e+003
437.865, 2.609e+003
439.204, 2.875e+003
440.543, 2.957e+003
441.882, 2.673e+003
443.220, 2.249e+003
444.558, 1.994e+003
445.896, 1.832e+003
447.234, 1.680e+003
448.572, 1.646e+003
449.909, 1.615e+003
451.246, 1.590e+003
452.583, 1.613e+003
453.919, 1.712e+003
455.256, 1.800e+003
456.592, 1.900e+003
457.928, 1.972e+003
459.264, 1.926e+003
460.600, 1.852e+003
461.935, 1.830e+003
463.270, 1.796e+003
464.605, 1.852e+003
465.940, 1.909e+003
467.274, 2.008e+003
468.609, 2.185e+003
469.943, 2.545e+003
471.277, 3.030e+003
472.610, 3.968e+003
473.944, 5.671e+003
475.277, 8.539e+003
476.610, 1.287e+004
477.943, 1.702e+004
479.275, 1.758e+004
480.608, 1.397e+004
481.940, 9.359e+003
483.272, 6.046e+003
484.604, 4.313e+003
485.935, 3.387e+003
487.267, 2.818e+003
488.598, 2.449e+003
489.929, 2.247e+003
491.260, 2.124e+003
492.590, 1.968e+003
493.920, 1.881e+003
495.250, 1.806e+003
496.580, 1.792e+003
497.910, 1.753e+003
499.239, 1.752e+003
500.569, 1.704e+003
501.898, 1.670e+003
503.226, 1.654e+003
504.555, 1.644e+003
505.883, 1.627e+003
507.212, 1.629e+003
508.540, 1.631e+003
509.867, 1.588e+003
511.195, 1.615e+003
512.522, 1.620e+003
513.849, 1.588e+003
515.176, 1.586e+003
516.503, 1.617e+003
517.829, 1.608e+003
519.156, 1.595e+003
520.482, 1.594e+003
521.808, 1.612e+003
523.133, 1.578e+003
524.459, 1.591e+003
525.784, 1.572e+003
527.109, 1.600e+003
528.434, 1.595e+003
529.758, 1.558e+003
531.083, 1.611e+003
532.407, 1.602e+003
533.731, 1.598e+003
535.055, 1.635e+003
536.378, 1.635e+003
537.701, 1.596e+003
539.025, 1.638e+003
540.348, 1.637e+003
541.670, 1.683e+003
542.993, 1.661e+003
544.315, 1.681e+003
545.637, 1.658e+003
546.959, 1.728e+003
548.281, 1.705e+003
549.602, 1.769e+003
550.923, 1.759e+003
552.244, 1.824e+003
553.565, 1.865e+003
554.886, 1.926e+003
556.206, 2.052e+003
557.526, 2.182e+003
558.846, 2.393e+003
560.166, 2.681e+003
561.486, 2.827e+003
562.805, 2.620e+003
564.124, 2.342e+003
565.443, 2.140e+003
566.762, 2.019e+003
568.080, 2.023e+003
569.399, 2.003e+003
570.717, 2.012e+003
572.035, 1.999e+003
573.352, 2.046e+003
574.670, 2.010e+003
575.987, 2.045e+003
577.304, 2.130e+003
578.621, 2.160e+003
579.938, 2.252e+003
581.254, 2.310e+003
582.570, 2.397e+003
583.886, 2.492e+003
585.202, 2.571e+003
586.518, 2.701e+003
587.833, 2.855e+003
589.148, 3.050e+003
590.463, 3.230e+003
591.778, 3.417e+003
593.093, 3.809e+003
594.407, 4.189e+003
595.721, 4.640e+003
597.035, 5.476e+003
598.349, 6.357e+003
599.662, 7.787e+003
600.976, 9.807e+003
602.289, 1.278e+004
603.602, 1.746e+004
604.914, 2.405e+004
606.227, 3.302e+004
607.539, 4.136e+004
608.851, 4.435e+004
610.163, 4.141e+004
611.475, 3.242e+004
612.786, 2.488e+004
614.097, 1.825e+004
615.408, 1.354e+004
616.719, 1.084e+004
618.030, 8.736e+003
619.340, 7.592e+003
620.651, 6.897e+003
621.961, 6.692e+003
623.270, 7.079e+003
624.580, 7.689e+003
625.889, 8.539e+003
627.199, 8.389e+003
628.507, 7.326e+003
629.816, 6.346e+003
631.125, 5.133e+003
632.433, 4.394e+003
633.741, 3.923e+003
635.049, 3.503e+003
636.357, 3.334e+003
637.664, 3.052e+003
638.972, 2.898e+003
640.279, 2.768e+003
641.586, 2.727e+003
642.893, 2.640e+003
644.199, 2.550e+003
645.505, 2.473e+003
646.811, 2.405e+003
648.117, 2.336e+003
649.423, 2.284e+003
650.728, 2.284e+003
652.034, 2.246e+003
653.339, 2.138e+003
654.644, 2.119e+003
655.948, 2.104e+003
657.253, 2.073e+003
658.557, 2.068e+003
659.861, 2.029e+003
661.165, 2.037e+003
662.468, 2.019e+003
663.772, 2.013e+003
665.075, 1.978e+003
666.378, 1.974e+003
667.681, 1.965e+003
668.983, 1.943e+003
670.286, 1.945e+003
671.588, 1.939e+003
672.890, 1.959e+003
674.192, 1.934e+003
675.493, 1.911e+003
676.795, 1.896e+003
678.096, 1.905e+003
679.397, 1.883e+003
680.697, 1.878e+003
681.998, 1.879e+003
683.298, 1.871e+003
684.598, 1.861e+003
685.898, 1.846e+003
687.198, 1.836e+003
688.498, 1.863e+003
689.797, 1.852e+003
691.096, 1.888e+003
692.395, 1.869e+003
693.694, 1.862e+003
694.992, 1.812e+003
696.290, 1.890e+003
697.589, 1.871e+003
698.886, 1.852e+003
700.184, 1.838e+003
701.482, 1.875e+003
702.779, 1.827e+003
704.076, 1.828e+003
705.373, 1.833e+003
706.669, 1.884e+003
707.966, 1.856e+003
709.262, 1.857e+003
710.558, 1.825e+003
711.854, 1.871e+003
713.150, 1.881e+003
714.445, 1.889e+003
715.740, 1.857e+003
717.035, 1.846e+003
718.330, 1.878e+003
719.625, 1.879e+003
720.919, 1.849e+003
722.214, 1.820e+003
723.508, 1.808e+003
724.801, 1.831e+003
726.095, 1.830e+003
727.388, 1.856e+003
728.682, 1.846e+003
729.975, 1.812e+003
731.267, 1.828e+003
732.560, 1.849e+003
733.852, 1.887e+003
735.145, 1.842e+003
736.437, 1.862e+003
737.728, 1.809e+003
739.020, 1.797e+003
740.311, 1.869e+003
741.603, 1.848e+003
742.894, 1.874e+003
744.184, 1.825e+003
745.475, 1.888e+003
746.765, 1.852e+003
748.055, 1.807e+003
749.345, 1.842e+003
750.635, 1.871e+003
751.925, 1.847e+003
753.214, 1.862e+003
754.503, 1.857e+003
755.792, 1.908e+003
757.081, 1.864e+003
758.370, 1.879e+003
759.658, 1.931e+003
760.946, 1.922e+003
762.234, 1.939e+003
763.522, 1.918e+003
764.809, 1.987e+003
766.097, 2.058e+003
767.384, 2.034e+003
768.671, 2.148e+003
769.958, 2.200e+003
771.244, 2.270e+003
772.530, 2.338e+003
773.817, 2.274e+003
775.102, 2.254e+003
776.388, 2.157e+003
777.674, 2.045e+003
778.959, 2.001e+003
780.244, 2.016e+003
781.529, 1.972e+003
782.814, 1.939e+003
784.098, 1.943e+003
785.383, 1.930e+003
786.667, 1.928e+003
787.951, 1.915e+003
789.235, 1.903e+003
790.518, 1.878e+003
791.801, 1.911e+003
793.084, 1.902e+003
794.367, 1.866e+003
795.650, 1.889e+003
796.933, 1.869e+003
798.215, 1.913e+003
799.497, 1.852e+003
800.779, 1.877e+003
802.061, 1.871e+003
803.342, 1.915e+003
804.624, 1.924e+003
805.905, 1.850e+003
807.186, 1.898e+003
808.466, 1.906e+003
809.747, 1.871e+003
811.027, 1.893e+003
812.307, 1.867e+003
813.587, 1.896e+003
814.867, 1.892e+003
816.146, 1.871e+003
817.426, 1.879e+003
818.705, 1.909e+003
819.984, 1.899e+003
821.263, 1.859e+003
822.541, 1.907e+003
823.819, 1.899e+003
825.098, 1.899e+003
826.375, 1.907e+003
827.653, 1.929e+003
828.931, 1.895e+003
830.208, 1.966e+003
831.485, 1.926e+003
832.762, 1.928e+003
834.039, 1.943e+003
835.315, 1.913e+003
836.592, 1.933e+003
837.868, 1.934e+003
839.144, 1.971e+003
840.420, 1.946e+003
841.695, 1.972e+003
842.970, 1.964e+003
844.246, 1.953e+003
845.521, 1.965e+003
846.795, 2.010e+003
848.070, 2.037e+003
849.344, 1.984e+003
850.618, 2.035e+003
851.892, 2.025e+003
853.166, 2.006e+003
854.440, 2.009e+003
855.713, 2.052e+003
856.986, 2.034e+003
858.259, 2.028e+003
859.532, 2.056e+003
860.804, 2.057e+003
862.077, 2.078e+003
863.349, 2.098e+003
864.621, 2.060e+003
865.893, 2.115e+003
867.164, 2.096e+003
868.436, 2.126e+003
869.707, 2.166e+003
870.978, 2.149e+003
872.248, 2.101e+003
873.519, 2.171e+003
874.789, 2.149e+003
876.060, 2.137e+003
877.330, 2.094e+003
878.599, 2.079e+003
879.869, 2.114e+003
881.138, 2.114e+003
882.408, 2.156e+003
883.677, 2.133e+003
884.945, 2.146e+003
886.214, 2.193e+003
887.482, 2.160e+003
888.751, 2.254e+003
890.019, 2.258e+003
891.287, 2.272e+003
892.554, 2.327e+003
893.822, 2.355e+003
895.089, 2.428e+003
896.356, 2.463e+003
897.623, 2.471e+003
898.889, 2.481e+003
900.156, 2.426e+003
901.422, 2.438e+003
902.688, 2.443e+003
903.954, 2.441e+003
905.220, 2.415e+003
906.485, 2.374e+003
907.750, 2.406e+003
909.015, 2.369e+003
910.280, 2.368e+003
911.545, 2.398e+003
912.809, 2.417e+003
914.074, 2.424e+003
915.338, 2.454e+003
916.602, 2.432e+003
917.865, 2.465e+003
919.129, 2.452e+003
920.392, 2.462e+003
921.655, 2.432e+003
922.918, 2.489e+003
924.181, 2.386e+003
925.443, 2.364e+003
926.706, 2.319e+003
927.968, 2.304e+003
929.230, 2.252e+003
930.491, 2.199e+003
931.753, 2.221e+003
933.014, 2.220e+003
934.276, 2.225e+003
935.536, 2.246e+003
936.797, 2.249e+003
938.058, 2.312e+003
939.318, 2.299e+003
940.578, 2.315e+003
941.838, 2.391e+003
943.098, 2.449e+003
944.358, 2.541e+003
945.617, 2.618e+003
946.876, 2.677e+003
948.135, 2.675e+003
949.394, 2.642e+003
950.653, 2.607e+003
951.911, 2.509e+003
953.169, 2.420e+003
954.427, 2.470e+003
955.685, 2.422e+003
956.943, 2.374e+003
958.200, 2.389e+003
959.458, 2.356e+003
960.715, 2.385e+003
961.971, 2.339e+003
963.228, 2.417e+003
964.485, 2.424e+003
965.741, 2.476e+003
966.997, 2.591e+003
968.253, 2.767e+003
969.508, 2.982e+003
970.764, 3.212e+003
972.019, 3.228e+003
973.274, 3.205e+003
974.529, 2.974e+003
975.784, 2.808e+003
977.039, 2.674e+003
978.293, 2.530e+003
979.547, 2.487e+003
980.801, 2.462e+003
982.055, 2.467e+003
983.308, 2.447e+003
984.562, 2.371e+003
985.815, 2.375e+003
987.068, 2.411e+003
988.321, 2.353e+003
989.573, 2.412e+003
990.826, 2.385e+003
992.078, 2.404e+003
993.330, 2.396e+003
994.582, 2.430e+003
995.833, 2.434e+003
997.085, 2.436e+003
998.336, 2.446e+003
999.587, 2.454e+003
1000.838, 2.448e+003
1002.088, 2.411e+003
1003.339, 2.410e+003
1004.589, 2.362e+003
1005.839, 2.377e+003
1007.089, 2.374e+003
1008.339, 2.346e+003
1009.588, 2.321e+003
1010.838, 2.318e+003
1012.087, 2.340e+003
1013.336, 2.278e+003
1014.584, 2.310e+003
1015.833, 2.268e+003
1017.081, 2.273e+003
1018.330, 2.311e+003
1019.577, 2.350e+003
1020.825, 2.341e+003
1022.073, 2.294e+003
1023.320, 2.359e+003
1024.567, 2.420e+003
1025.814, 2.386e+003
1027.061, 2.351e+003
1028.308, 2.369e+003
1029.554, 2.386e+003
1030.800, 2.342e+003
1032.046, 2.342e+003
1033.292, 2.321e+003
1034.538, 2.355e+003
1035.783, 2.358e+003
1037.029, 2.362e+003
1038.274, 2.446e+003
1039.519, 2.462e+003
1040.763, 2.440e+003
1042.008, 2.382e+003
1043.252, 2.347e+003
1044.496, 2.313e+003
1045.740, 2.324e+003
1046.984, 2.312e+003
1048.228, 2.349e+003
1049.471, 2.319e+003
1050.714, 2.340e+003
1051.957, 2.285e+003
1053.200, 2.319e+003
1054.442, 2.312e+003
1055.685, 2.318e+003
1056.927, 2.332e+003
1058.169, 2.335e+003
1059.411, 2.343e+003
1060.652, 2.374e+003
1061.894, 2.420e+003
1063.135, 2.346e+003
1064.376, 2.382e+003
1065.617, 2.398e+003
1066.858, 2.334e+003
1068.098, 2.387e+003
1069.339, 2.416e+003
1070.579, 2.374e+003
1071.819, 2.468e+003
1073.058, 2.429e+003
1074.298, 2.506e+003
1075.537, 2.503e+003
1076.776, 2.543e+003
1078.015, 2.537e+003
1079.254, 2.561e+003
1080.493, 2.588e+003
1081.731, 2.609e+003
1082.969, 2.590e+003
1084.207, 2.691e+003
1085.445, 2.713e+003
1086.683, 2.716e+003
1087.920, 2.767e+003
1089.157, 2.844e+003
1090.394, 2.921e+003
1091.631, 3.035e+003
1092.868, 3.041e+003
1094.105, 3.277e+003
1095.341, 3.359e+003
1096.577, 3.457e+003
1097.813, 3.716e+003
1099.049, 3.841e+003
1100.284, 4.085e+003
1101.519, 4.299e+003
1102.755, 4.400e+003
1103.990, 4.690e+003
1105.224, 4.659e+003
1106.459, 4.640e+003
1107.693, 4.588e+003
1108.928, 4.423e+003
1110.162, 4.251e+003
1111.395, 4.026e+003
1112.629, 3.827e+003
1113.863, 3.688e+003
1115.096, 3.476e+003
1116.329, 3.334e+003
1117.562, 3.262e+003
1118.795, 3.163e+003
1120.027, 3.126e+003
1121.259, 3.061e+003
1122.492, 3.002e+003
1123.723, 2.924e+003
1124.955, 2.880e+003
1126.187, 2.804e+003
1127.418, 2.787e+003
1128.649, 2.700e+003
1129.880, 2.706e+003
1131.111, 2.674e+003
1132.342, 2.617e+003
1133.572, 2.554e+003
1134.802, 2.536e+003
1136.033, 2.583e+003
1137.262, 2.758e+003
1138.492, 2.578e+003
1139.722, 2.505e+003
1140.951, 2.486e+003
1142.180, 2.467e+003
1143.409, 2.482e+003
1144.638, 2.455e+003
1145.866, 2.456e+003
1147.095, 2.487e+003
1148.323, 2.400e+003
1149.551, 2.460e+003
1150.779, 2.419e+003
1152.006, 2.396e+003
1153.234, 2.413e+003
1154.461, 2.405e+003
1155.688, 2.405e+003
1156.915, 2.415e+003
1158.141, 2.409e+003
1159.368, 2.394e+003
1160.594, 2.421e+003
1161.820, 2.426e+003
1163.046, 2.461e+003
1164.272, 2.419e+003
1165.498, 2.459e+003
1166.723, 2.483e+003
1167.948, 2.467e+003
1169.173, 3.401e+003
1170.398, 4.051e+003
1171.623, 2.757e+003
1172.847, 2.558e+003
1174.071, 2.491e+003
1175.295, 2.511e+003
1176.519, 2.553e+003
1177.743, 2.525e+003
1178.966, 2.502e+003
1180.190, 2.450e+003
1181.413, 2.513e+003
1182.636, 2.503e+003
1183.858, 2.452e+003
1185.081, 2.446e+003
1186.303, 2.446e+003
1187.526, 2.447e+003
1188.748, 2.522e+003
1189.969, 2.478e+003
1191.191, 2.451e+003
1192.412, 2.434e+003
1193.634, 2.466e+003
1194.855, 2.497e+003
1196.076, 2.418e+003
1197.296, 2.428e+003
1198.517, 2.494e+003
1199.737, 2.461e+003
1200.957, 2.446e+003
1202.177, 2.451e+003
1203.397, 2.390e+003
1204.617, 2.432e+003
1205.836, 2.481e+003
1207.055, 2.475e+003
1208.274, 2.451e+003
1209.493, 2.432e+003
1210.712, 2.449e+003
1211.930, 2.435e+003
1213.148, 2.458e+003
1214.367, 2.446e+003
1215.584, 2.466e+003
1216.802, 2.436e+003
1218.020, 2.479e+003
1219.237, 2.510e+003
1220.454, 2.450e+003
1221.671, 2.506e+003
1222.888, 2.432e+003
1224.105, 2.466e+003
1225.321, 2.454e+003
1226.537, 2.456e+003
1227.753, 2.454e+003
1228.969, 2.467e+003
1230.185, 2.423e+003
1231.400, 2.454e+003
1232.616, 2.479e+003
1233.831, 2.457e+003
1235.046, 2.513e+003
1236.261, 2.499e+003
1237.475, 2.500e+003
1238.689, 2.468e+003
1239.904, 2.472e+003
1241.118, 2.519e+003
1242.332, 2.491e+003
1243.545, 2.523e+003
1244.759, 2.529e+003
1245.972, 2.471e+003
1247.185, 2.515e+003
1248.398, 2.578e+003
1249.611, 2.474e+003
1250.823, 2.521e+003
1252.036, 2.492e+003
1253.248, 2.570e+003
1254.460, 2.523e+003
1255.671, 2.523e+003
1256.883, 2.515e+003
1258.095, 2.543e+003
1259.306, 2.496e+003
1260.517, 2.545e+003
1261.728, 2.526e+003
1262.938, 2.494e+003
1264.149, 2.481e+003
1265.359, 2.506e+003
1266.569, 2.503e+003
1267.779, 2.483e+003
1268.989, 2.465e+003
1270.199, 2.527e+003
1271.408, 2.490e+003
1272.617, 2.477e+003
1273.826, 2.548e+003
1275.035, 2.521e+003
1276.244, 2.460e+003
1277.452, 2.518e+003
1278.661, 2.453e+003
1279.869, 2.514e+003
1281.077, 2.486e+003
1282.285, 2.443e+003
1283.492, 2.522e+003
1284.700, 2.487e+003
1285.907, 2.458e+003
1287.114, 2.487e+003
1288.321, 2.457e+003
1289.527, 2.491e+003
1290.734, 2.474e+003
1291.940, 2.496e+003
1293.146, 2.567e+003
1294.352, 2.519e+003
1295.558, 2.520e+003
1296.763, 2.534e+003
1297.969, 2.526e+003
1299.174, 2.506e+003
1300.379, 2.468e+003
1301.584, 2.486e+003
1302.788, 2.514e+003
1303.993, 2.505e+003
1305.197, 2.524e+003
1306.401, 2.557e+003
1307.605, 2.541e+003
1308.809, 2.517e+003
1310.013, 2.576e+003
1311.216, 2.531e+003
1312.419, 2.532e+003
1313.622, 2.560e+003
1314.825, 2.555e+003
1316.028, 2.601e+003
1317.230, 2.563e+003
1318.432, 2.571e+003
1319.634, 2.604e+003
1320.836, 2.589e+003
1322.038, 2.603e+003
1323.240, 2.581e+003
1324.441, 2.576e+003
1325.642, 2.577e+003
1326.843, 2.565e+003
1328.044, 2.555e+003
1329.245, 2.636e+003
1330.445, 2.595e+003
1331.645, 2.570e+003
1332.845, 2.628e+003
1334.045, 2.586e+003
1335.245, 2.563e+003
1336.445, 2.590e+003
1337.644, 2.608e+003
1338.843, 2.564e+003
1340.042, 2.597e+003
1341.241, 2.578e+003
1342.440, 2.587e+003
1343.638, 2.603e+003
1344.836, 2.583e+003
1346.034, 2.600e+003
1347.232, 2.593e+003
1348.430, 2.621e+003
1349.628, 2.625e+003
1350.825, 2.572e+003
1352.022, 2.646e+003
1353.219, 2.603e+003
1354.416, 2.617e+003
1355.613, 2.605e+003
1356.809, 2.622e+003
1358.005, 2.653e+003
1359.202, 2.622e+003
1360.398, 2.627e+003
1361.593, 2.638e+003
1362.789, 2.617e+003
1363.984, 2.649e+003
1365.179, 2.672e+003
1366.374, 2.616e+003
1367.569, 2.662e+003
1368.764, 2.630e+003
1369.958, 2.670e+003
1371.153, 2.637e+003
1372.347, 2.657e+003
1373.541, 2.651e+003
1374.735, 2.650e+003
1375.928, 2.659e+003
1377.122, 2.646e+003
1378.315, 2.685e+003
1379.508, 2.682e+003
1380.701, 2.651e+003
1381.893, 2.696e+003
1383.086, 2.689e+003
1384.278, 2.667e+003
1385.470, 2.769e+003
1386.662, 2.671e+003
1387.854, 2.732e+003
1389.046, 2.722e+003
1390.237, 2.717e+003
1391.428, 2.696e+003
1392.619, 2.675e+003
1393.810, 2.725e+003
1395.001, 2.743e+003
1396.191, 2.721e+003
1397.382, 2.688e+003
1398.572, 2.734e+003
1399.762, 2.698e+003
1400.952, 2.746e+003
1402.141, 2.689e+003
1403.331, 2.738e+003
1404.520, 2.742e+003
1405.709, 2.746e+003
1406.898, 2.721e+003
1408.087, 2.729e+003
1409.275, 2.768e+003
1410.464, 2.727e+003
1411.652, 2.777e+003
1412.840, 2.764e+003
1414.028, 2.746e+003
1415.215, 2.720e+003
1416.403, 2.730e+003
1417.590, 2.771e+003
1418.777, 2.810e+003
1419.964, 2.794e+003
1421.151, 2.745e+003
1422.338, 2.742e+003
1423.524, 2.785e+003
1424.710, 2.785e+003
1425.896, 2.800e+003
1427.082, 2.802e+003
1428.268, 2.798e+003
1429.453, 2.807e+003
1430.639, 2.851e+003
1431.824, 2.802e+003
1433.009, 2.800e+003
1434.194, 2.906e+003
1435.378, 2.832e+003
1436.563, 2.903e+003
1437.747, 2.908e+003
1438.931, 2.849e+003
1440.115, 2.880e+003
1441.299, 2.906e+003
1442.482, 2.962e+003
1443.666, 2.913e+003
1444.849, 2.882e+003
1446.032, 2.923e+003
1447.215, 2.944e+003
1448.397, 2.928e+003
1449.580, 2.953e+003
1450.762, 2.968e+003
1451.944, 2.955e+003
1453.126, 2.950e+003
1454.308, 2.977e+003
1455.490, 2.921e+003
1456.671, 2.962e+003
1457.852, 2.988e+003
1459.033, 2.969e+003
1460.214, 3.005e+003
1461.395, 2.939e+003
1462.575, 2.933e+003
1463.756, 2.957e+003
1464.936, 2.915e+003
1466.116, 2.894e+003
1467.296, 2.873e+003
1468.475, 2.887e+003
1469.655, 2.930e+003
1470.834, 2.922e+003
1472.013, 2.896e+003
1473.192, 2.950e+003
1474.371, 2.871e+003
1475.550, 2.946e+003
1476.728, 2.858e+003
1477.906, 2.948e+003
1479.084, 2.894e+003
1480.262, 2.918e+003
1481.440, 2.896e+003
1482.617, 2.911e+003
1483.795, 2.903e+003
1484.972, 2.895e+003
1486.149, 2.881e+003
1487.326, 2.888e+003
1488.502, 2.887e+003
1489.679, 2.967e+003
1490.855, 2.857e+003
1492.031, 2.905e+003
1493.207, 2.934e+003
1494.383, 2.873e+003
1495.559, 2.949e+003
1496.734, 2.926e+003
1497.909, 2.909e+003
1499.084, 2.945e+003
1500.259, 2.934e+003
1501.434, 2.894e+003
1502.608, 2.950e+003
1503.783, 3.049e+003
1504.957, 1.640e+002
##END=



