##NAMES=Danburite
##RRUFFID=R040013
##IDEAL CHEMISTRY=CaB_2_Si_2_O_8_
##LOCALITY=Charcas, San Luis Potosi, Mexico
##OWNER=RRUFF
##SOURCE=Marcus Origlieri
##DESCRIPTION=Colorless prismatic single crystal
##STATUS=The identification of this mineral has been confirmed by X-ray diffraction and chemical analysis
##URL=rruff.info/R040013
##MEASURED CHEMISTRY=Ca_1.00_B_2.00_Si_2.00_O_8_
##PIN_ID=M00012
##ORIENTATION=Laser parallel to c* (0 0 1). Fiducial mark perpendicular to laser is parallel to a [1 0 0]
26.288, 2.158e+003
27.694, 2.098e+003
29.099, 2.078e+003
30.504, 2.032e+003
31.909, 2.025e+003
33.313, 1.992e+003
34.717, 1.994e+003
36.121, 1.962e+003
37.525, 1.923e+003
38.929, 1.904e+003
40.332, 1.916e+003
41.735, 1.908e+003
43.138, 1.854e+003
44.541, 1.836e+003
45.943, 1.849e+003
47.345, 1.807e+003
48.747, 1.797e+003
50.149, 1.757e+003
51.551, 1.734e+003
52.952, 1.686e+003
54.353, 1.723e+003
55.754, 1.676e+003
57.155, 1.701e+003
58.555, 1.714e+003
59.955, 1.734e+003
61.355, 1.682e+003
62.755, 1.623e+003
64.154, 1.569e+003
65.553, 1.477e+003
66.952, 1.408e+003
68.351, 1.414e+003
69.750, 1.385e+003
71.148, 1.363e+003
72.546, 1.319e+003
73.944, 1.304e+003
75.342, 1.298e+003
76.739, 1.273e+003
78.136, 1.269e+003
79.533, 1.276e+003
80.930, 1.310e+003
82.327, 1.342e+003
83.723, 1.388e+003
85.119, 1.413e+003
86.515, 1.478e+003
87.910, 1.575e+003
89.306, 1.672e+003
90.701, 1.811e+003
92.096, 1.889e+003
93.490, 1.984e+003
94.885, 2.130e+003
96.279, 2.222e+003
97.673, 2.376e+003
99.067, 2.472e+003
100.461, 2.602e+003
101.854, 2.711e+003
103.247, 2.695e+003
104.640, 2.814e+003
106.032, 2.758e+003
107.425, 2.912e+003
108.817, 2.870e+003
110.209, 3.239e+003
111.601, 3.400e+003
112.992, 3.176e+003
114.384, 3.143e+003
115.775, 3.242e+003
117.166, 3.581e+003
118.556, 3.911e+003
119.947, 4.427e+003
121.337, 5.883e+003
122.727, 8.089e+003
124.116, 1.063e+004
125.506, 1.107e+004
126.895, 1.206e+004
128.284, 1.431e+004
129.673, 1.469e+004
131.062, 1.169e+004
132.450, 7.651e+003
133.838, 5.499e+003
135.226, 4.110e+003
136.614, 3.742e+003
138.001, 3.458e+003
139.388, 3.385e+003
140.775, 3.152e+003
142.162, 2.805e+003
143.549, 2.692e+003
144.935, 2.526e+003
146.321, 2.538e+003
147.707, 2.479e+003
149.093, 2.476e+003
150.478, 2.480e+003
151.863, 2.435e+003
153.248, 2.503e+003
154.633, 2.462e+003
156.018, 2.573e+003
157.402, 2.635e+003
158.786, 2.948e+003
160.170, 3.864e+003
161.554, 4.692e+003
162.937, 7.498e+003
164.320, 1.258e+004
165.703, 1.646e+004
167.086, 1.384e+004
168.469, 8.309e+003
169.851, 5.279e+003
171.233, 3.702e+003
172.615, 3.066e+003
173.996, 2.659e+003
175.378, 2.451e+003
176.759, 2.327e+003
178.140, 2.377e+003
179.521, 2.427e+003
180.901, 2.434e+003
182.281, 2.513e+003
183.662, 2.413e+003
185.041, 2.437e+003
186.421, 2.396e+003
187.800, 2.509e+003
189.180, 2.720e+003
190.558, 2.819e+003
191.937, 2.868e+003
193.316, 2.638e+003
194.694, 2.447e+003
196.072, 2.330e+003
197.450, 2.258e+003
198.827, 2.255e+003
200.205, 2.281e+003
201.582, 2.339e+003
202.959, 2.401e+003
204.336, 2.502e+003
205.712, 2.615e+003
207.088, 2.857e+003
208.465, 3.298e+003
209.840, 3.729e+003
211.216, 4.088e+003
212.591, 3.781e+003
213.967, 3.126e+003
215.341, 2.781e+003
216.716, 2.509e+003
218.091, 2.396e+003
219.465, 2.319e+003
220.839, 2.278e+003
222.213, 2.258e+003
223.586, 2.222e+003
224.960, 2.218e+003
226.333, 2.231e+003
227.706, 2.280e+003
229.079, 2.204e+003
230.451, 2.278e+003
231.823, 2.286e+003
233.195, 2.311e+003
234.567, 2.417e+003
235.939, 2.499e+003
237.310, 2.734e+003
238.682, 3.100e+003
240.052, 3.712e+003
241.423, 4.707e+003
242.794, 6.280e+003
244.164, 8.384e+003
245.534, 8.978e+003
246.904, 8.025e+003
248.274, 6.417e+003
249.643, 4.989e+003
251.012, 4.164e+003
252.381, 3.496e+003
253.750, 3.212e+003
255.118, 2.949e+003
256.487, 2.854e+003
257.855, 2.729e+003
259.223, 2.604e+003
260.590, 2.610e+003
261.958, 2.514e+003
263.325, 2.448e+003
264.692, 2.373e+003
266.059, 2.405e+003
267.425, 2.385e+003
268.791, 2.414e+003
270.158, 2.358e+003
271.523, 2.337e+003
272.889, 2.381e+003
274.255, 2.470e+003
275.620, 2.568e+003
276.985, 2.732e+003
278.350, 2.684e+003
279.714, 2.642e+003
281.078, 2.469e+003
282.443, 2.338e+003
283.806, 2.272e+003
285.170, 2.196e+003
286.534, 2.227e+003
287.897, 2.176e+003
289.260, 2.156e+003
290.623, 2.228e+003
291.985, 2.230e+003
293.348, 2.251e+003
294.710, 2.189e+003
296.072, 2.269e+003
297.433, 2.250e+003
298.795, 2.394e+003
300.156, 2.386e+003
301.517, 2.499e+003
302.878, 2.705e+003
304.239, 2.842e+003
305.599, 3.236e+003
306.959, 3.696e+003
308.319, 4.367e+003
309.679, 5.340e+003
311.038, 5.940e+003
312.398, 6.248e+003
313.757, 5.646e+003
315.116, 4.783e+003
316.474, 3.968e+003
317.833, 3.335e+003
319.191, 3.035e+003
320.549, 2.773e+003
321.907, 2.655e+003
323.264, 2.515e+003
324.622, 2.501e+003
325.979, 2.443e+003
327.336, 2.427e+003
328.692, 2.461e+003
330.049, 2.417e+003
331.405, 2.537e+003
332.761, 2.511e+003
334.117, 2.630e+003
335.473, 2.776e+003
336.828, 2.848e+003
338.183, 3.190e+003
339.538, 3.512e+003
340.893, 4.420e+003
342.247, 5.692e+003
343.602, 7.819e+003
344.956, 1.164e+004
346.310, 1.566e+004
347.663, 1.887e+004
349.017, 1.739e+004
350.370, 1.310e+004
351.723, 9.473e+003
353.076, 6.901e+003
354.428, 5.361e+003
355.780, 4.204e+003
357.133, 3.652e+003
358.484, 3.262e+003
359.836, 2.998e+003
361.188, 2.836e+003
362.539, 2.715e+003
363.890, 2.613e+003
365.241, 2.519e+003
366.591, 2.510e+003
367.942, 2.454e+003
369.292, 2.402e+003
370.642, 2.369e+003
371.992, 2.325e+003
373.341, 2.311e+003
374.691, 2.310e+003
376.040, 2.263e+003
377.388, 2.283e+003
378.737, 2.262e+003
380.086, 2.266e+003
381.434, 2.231e+003
382.782, 2.259e+003
384.130, 2.237e+003
385.477, 2.272e+003
386.825, 2.282e+003
388.172, 2.292e+003
389.519, 2.372e+003
390.865, 2.298e+003
392.212, 2.309e+003
393.558, 2.315e+003
394.904, 2.279e+003
396.250, 2.315e+003
397.596, 2.272e+003
398.941, 2.283e+003
400.286, 2.315e+003
401.631, 2.295e+003
402.976, 2.373e+003
404.321, 2.342e+003
405.665, 2.418e+003
407.009, 2.425e+003
408.353, 2.418e+003
409.697, 2.384e+003
411.040, 2.348e+003
412.384, 2.481e+003
413.727, 2.457e+003
415.070, 2.510e+003
416.412, 2.641e+003
417.755, 2.776e+003
419.097, 3.054e+003
420.439, 3.237e+003
421.781, 3.658e+003
423.122, 4.044e+003
424.464, 4.165e+003
425.805, 4.104e+003
427.146, 3.718e+003
428.486, 3.332e+003
429.827, 2.985e+003
431.167, 2.679e+003
432.507, 2.526e+003
433.847, 2.390e+003
435.187, 2.418e+003
436.526, 2.333e+003
437.865, 2.391e+003
439.204, 2.409e+003
440.543, 2.446e+003
441.882, 2.506e+003
443.220, 2.441e+003
444.558, 2.407e+003
445.896, 2.322e+003
447.234, 2.312e+003
448.572, 2.296e+003
449.909, 2.257e+003
451.246, 2.282e+003
452.583, 2.294e+003
453.919, 2.297e+003
455.256, 2.290e+003
456.592, 2.361e+003
457.928, 2.388e+003
459.264, 2.468e+003
460.600, 2.511e+003
461.935, 2.535e+003
463.270, 2.524e+003
464.605, 2.496e+003
465.940, 2.514e+003
467.274, 2.575e+003
468.609, 2.552e+003
469.943, 2.628e+003
471.277, 2.817e+003
472.610, 3.008e+003
473.944, 3.562e+003
475.277, 4.321e+003
476.610, 5.643e+003
477.943, 7.800e+003
479.275, 9.360e+003
480.608, 9.580e+003
481.940, 7.960e+003
483.272, 5.868e+003
484.604, 4.527e+003
485.935, 3.649e+003
487.267, 3.205e+003
488.598, 2.908e+003
489.929, 2.681e+003
491.260, 2.627e+003
492.590, 2.469e+003
493.920, 2.416e+003
495.250, 2.375e+003
496.580, 2.413e+003
497.910, 2.312e+003
499.239, 2.350e+003
500.569, 2.346e+003
501.898, 2.327e+003
503.226, 2.318e+003
504.555, 2.293e+003
505.883, 2.316e+003
507.212, 2.336e+003
508.540, 2.347e+003
509.867, 2.359e+003
511.195, 2.316e+003
512.522, 2.291e+003
513.849, 2.358e+003
515.176, 2.300e+003
516.503, 2.359e+003
517.829, 2.355e+003
519.156, 2.345e+003
520.482, 2.352e+003
521.808, 2.353e+003
523.133, 2.349e+003
524.459, 2.318e+003
525.784, 2.385e+003
527.109, 2.339e+003
528.434, 2.355e+003
529.758, 2.364e+003
531.083, 2.344e+003
532.407, 2.357e+003
533.731, 2.359e+003
535.055, 2.386e+003
536.378, 2.345e+003
537.701, 2.358e+003
539.025, 2.363e+003
540.348, 2.371e+003
541.670, 2.379e+003
542.993, 2.384e+003
544.315, 2.373e+003
545.637, 2.451e+003
546.959, 2.382e+003
548.281, 2.414e+003
549.602, 2.455e+003
550.923, 2.460e+003
552.244, 2.510e+003
553.565, 2.514e+003
554.886, 2.584e+003
556.206, 2.648e+003
557.526, 2.704e+003
558.846, 2.954e+003
560.166, 3.177e+003
561.486, 3.591e+003
562.805, 3.806e+003
564.124, 3.648e+003
565.443, 3.472e+003
566.762, 3.173e+003
568.080, 3.027e+003
569.399, 2.968e+003
570.717, 2.963e+003
572.035, 2.950e+003
573.352, 2.918e+003
574.670, 2.975e+003
575.987, 2.982e+003
577.304, 3.020e+003
578.621, 3.115e+003
579.938, 3.128e+003
581.254, 3.255e+003
582.570, 3.403e+003
583.886, 3.513e+003
585.202, 3.564e+003
586.518, 3.648e+003
587.833, 3.764e+003
589.148, 4.005e+003
590.463, 4.041e+003
591.778, 4.415e+003
593.093, 4.569e+003
594.407, 5.068e+003
595.721, 5.406e+003
597.035, 6.017e+003
598.349, 6.902e+003
599.662, 7.889e+003
600.976, 9.595e+003
602.289, 1.164e+004
603.602, 1.523e+004
604.914, 2.041e+004
606.227, 2.756e+004
607.539, 3.829e+004
608.851, 4.630e+004
610.163, 4.976e+004
611.475, 4.645e+004
612.786, 3.752e+004
614.097, 2.954e+004
615.408, 2.190e+004
616.719, 1.702e+004
618.030, 1.363e+004
619.340, 1.080e+004
620.651, 9.467e+003
621.961, 8.350e+003
623.270, 7.892e+003
624.580, 7.678e+003
625.889, 7.610e+003
627.199, 7.900e+003
628.507, 7.346e+003
629.816, 6.953e+003
631.125, 6.212e+003
632.433, 5.445e+003
633.741, 5.145e+003
635.049, 4.617e+003
636.357, 4.519e+003
637.664, 4.222e+003
638.972, 4.106e+003
640.279, 4.062e+003
641.586, 3.919e+003
642.893, 3.974e+003
644.199, 3.901e+003
645.505, 3.835e+003
646.811, 3.802e+003
648.117, 3.742e+003
649.423, 3.721e+003
650.728, 3.622e+003
652.034, 3.585e+003
653.339, 3.572e+003
654.644, 3.390e+003
655.948, 3.333e+003
657.253, 3.225e+003
658.557, 3.121e+003
659.861, 3.054e+003
661.165, 2.952e+003
662.468, 2.937e+003
663.772, 2.900e+003
665.075, 2.881e+003
666.378, 2.857e+003
667.681, 2.754e+003
668.983, 2.834e+003
670.286, 2.713e+003
671.588, 2.743e+003
672.890, 2.735e+003
674.192, 2.654e+003
675.493, 2.704e+003
676.795, 2.704e+003
678.096, 2.653e+003
679.397, 2.646e+003
680.697, 2.620e+003
681.998, 2.699e+003
683.298, 2.652e+003
684.598, 2.561e+003
685.898, 2.662e+003
687.198, 2.626e+003
688.498, 2.654e+003
689.797, 2.614e+003
691.096, 2.611e+003
692.395, 2.612e+003
693.694, 2.604e+003
694.992, 2.590e+003
696.290, 2.635e+003
697.589, 2.608e+003
698.886, 2.612e+003
700.184, 2.572e+003
701.482, 2.592e+003
702.779, 2.595e+003
704.076, 2.596e+003
705.373, 2.586e+003
706.669, 2.600e+003
707.966, 2.601e+003
709.262, 2.591e+003
710.558, 2.567e+003
711.854, 2.620e+003
713.150, 2.588e+003
714.445, 2.604e+003
715.740, 2.658e+003
717.035, 2.595e+003
718.330, 2.606e+003
719.625, 2.613e+003
720.919, 2.647e+003
722.214, 2.654e+003
723.508, 2.591e+003
724.801, 2.659e+003
726.095, 2.653e+003
727.388, 2.694e+003
728.682, 2.703e+003
729.975, 2.688e+003
731.267, 2.731e+003
732.560, 2.614e+003
733.852, 2.736e+003
735.145, 2.705e+003
736.437, 2.710e+003
737.728, 2.710e+003
739.020, 2.693e+003
740.311, 2.677e+003
741.603, 2.739e+003
742.894, 2.725e+003
744.184, 2.738e+003
745.475, 2.725e+003
746.765, 2.750e+003
748.055, 2.766e+003
749.345, 2.759e+003
750.635, 2.825e+003
751.925, 2.741e+003
753.214, 2.758e+003
754.503, 2.785e+003
755.792, 2.693e+003
757.081, 2.781e+003
758.370, 2.755e+003
759.658, 2.823e+003
760.946, 2.802e+003
762.234, 2.825e+003
763.522, 2.896e+003
764.809, 2.867e+003
766.097, 2.825e+003
767.384, 2.874e+003
768.671, 2.886e+003
769.958, 2.957e+003
771.244, 2.896e+003
772.530, 2.957e+003
773.817, 2.968e+003
775.102, 2.944e+003
776.388, 3.003e+003
777.674, 2.881e+003
778.959, 2.872e+003
780.244, 2.900e+003
781.529, 2.822e+003
782.814, 2.916e+003
784.098, 2.902e+003
785.383, 2.894e+003
786.667, 2.974e+003
787.951, 2.902e+003
789.235, 2.931e+003
790.518, 2.948e+003
791.801, 2.937e+003
793.084, 2.991e+003
794.367, 2.867e+003
795.650, 2.996e+003
796.933, 2.899e+003
798.215, 2.895e+003
799.497, 2.937e+003
800.779, 2.908e+003
802.061, 2.954e+003
803.342, 2.928e+003
804.624, 2.846e+003
805.905, 2.918e+003
807.186, 2.918e+003
808.466, 2.876e+003
809.747, 2.893e+003
811.027, 2.894e+003
812.307, 2.924e+003
813.587, 2.931e+003
814.867, 2.924e+003
816.146, 2.934e+003
817.426, 2.883e+003
818.705, 2.924e+003
819.984, 2.915e+003
821.263, 2.944e+003
822.541, 2.945e+003
823.819, 2.952e+003
825.098, 2.994e+003
826.375, 2.992e+003
827.653, 3.014e+003
828.931, 3.083e+003
830.208, 3.000e+003
831.485, 3.099e+003
832.762, 3.061e+003
834.039, 3.034e+003
835.315, 3.052e+003
836.592, 3.070e+003
837.868, 3.156e+003
839.144, 3.141e+003
840.420, 3.105e+003
841.695, 3.253e+003
842.970, 3.222e+003
844.246, 3.256e+003
845.521, 3.258e+003
846.795, 3.264e+003
848.070, 3.344e+003
849.344, 3.290e+003
850.618, 3.360e+003
851.892, 3.354e+003
853.166, 3.362e+003
854.440, 3.564e+003
855.713, 3.489e+003
856.986, 3.544e+003
858.259, 3.718e+003
859.532, 3.643e+003
860.804, 3.830e+003
862.077, 3.679e+003
863.349, 3.624e+003
864.621, 3.623e+003
865.893, 3.490e+003
867.164, 3.432e+003
868.436, 3.392e+003
869.707, 3.353e+003
870.978, 3.421e+003
872.248, 3.310e+003
873.519, 3.412e+003
874.789, 3.396e+003
876.060, 3.376e+003
877.330, 3.470e+003
878.599, 3.384e+003
879.869, 3.398e+003
881.138, 3.449e+003
882.408, 3.380e+003
883.677, 3.440e+003
884.945, 3.331e+003
886.214, 3.351e+003
887.482, 3.486e+003
888.751, 3.384e+003
890.019, 3.487e+003
891.287, 3.475e+003
892.554, 3.494e+003
893.822, 3.602e+003
895.089, 3.575e+003
896.356, 3.700e+003
897.623, 3.792e+003
898.889, 3.764e+003
900.156, 3.921e+003
901.422, 3.906e+003
902.688, 4.068e+003
903.954, 4.203e+003
905.220, 4.139e+003
906.485, 4.242e+003
907.750, 4.162e+003
909.015, 4.241e+003
910.280, 4.356e+003
911.545, 4.332e+003
912.809, 4.513e+003
914.074, 4.600e+003
915.338, 4.679e+003
916.602, 4.776e+003
917.865, 4.591e+003
919.129, 4.536e+003
920.392, 4.329e+003
921.655, 4.053e+003
922.918, 4.072e+003
924.181, 3.952e+003
925.443, 3.876e+003
926.706, 3.849e+003
927.968, 3.783e+003
929.230, 3.854e+003
930.491, 3.808e+003
931.753, 3.841e+003
933.014, 4.023e+003
934.276, 3.929e+003
935.536, 4.127e+003
936.797, 4.202e+003
938.058, 4.295e+003
939.318, 4.627e+003
940.578, 4.834e+003
941.838, 5.213e+003
943.098, 5.660e+003
944.358, 6.080e+003
945.617, 6.670e+003
946.876, 7.013e+003
948.135, 7.178e+003
949.394, 7.271e+003
950.653, 6.711e+003
951.911, 6.324e+003
953.169, 5.858e+003
954.427, 5.411e+003
955.685, 5.192e+003
956.943, 4.828e+003
958.200, 4.644e+003
959.458, 4.652e+003
960.715, 4.489e+003
961.971, 4.654e+003
963.228, 4.670e+003
964.485, 4.820e+003
965.741, 5.230e+003
966.997, 5.581e+003
968.253, 6.385e+003
969.508, 7.161e+003
970.764, 8.268e+003
972.019, 9.474e+003
973.274, 9.639e+003
974.529, 9.505e+003
975.784, 8.741e+003
977.039, 7.682e+003
978.293, 6.938e+003
979.547, 6.226e+003
980.801, 5.673e+003
982.055, 5.398e+003
983.308, 4.993e+003
984.562, 4.853e+003
985.815, 4.698e+003
987.068, 4.586e+003
988.321, 4.539e+003
989.573, 4.379e+003
990.826, 4.323e+003
992.078, 4.315e+003
993.330, 4.236e+003
994.582, 4.394e+003
995.833, 4.337e+003
997.085, 4.437e+003
998.336, 4.726e+003
999.587, 4.903e+003
1000.838, 5.520e+003
1002.088, 5.679e+003
1003.339, 5.852e+003
1004.589, 6.188e+003
1005.839, 6.698e+003
1007.089, 7.594e+003
1008.339, 8.107e+003
1009.588, 7.737e+003
1010.838, 7.071e+003
1012.087, 6.116e+003
1013.336, 5.387e+003
1014.584, 4.996e+003
1015.833, 4.579e+003
1017.081, 4.481e+003
1018.330, 4.312e+003
1019.577, 4.268e+003
1020.825, 4.405e+003
1022.073, 4.297e+003
1023.320, 4.372e+003
1024.567, 4.338e+003
1025.814, 4.306e+003
1027.061, 4.414e+003
1028.308, 4.293e+003
1029.554, 4.196e+003
1030.800, 4.139e+003
1032.046, 4.017e+003
1033.292, 3.927e+003
1034.538, 3.777e+003
1035.783, 3.673e+003
1037.029, 3.710e+003
1038.274, 3.586e+003
1039.519, 3.576e+003
1040.763, 3.526e+003
1042.008, 3.475e+003
1043.252, 3.514e+003
1044.496, 3.479e+003
1045.740, 3.478e+003
1046.984, 3.522e+003
1048.228, 3.487e+003
1049.471, 3.521e+003
1050.714, 3.531e+003
1051.957, 3.496e+003
1053.200, 3.553e+003
1054.442, 3.452e+003
1055.685, 3.504e+003
1056.927, 3.549e+003
1058.169, 3.430e+003
1059.411, 3.468e+003
1060.652, 3.488e+003
1061.894, 3.489e+003
1063.135, 3.502e+003
1064.376, 3.496e+003
1065.617, 3.585e+003
1066.858, 3.540e+003
1068.098, 3.565e+003
1069.339, 3.682e+003
1070.579, 3.576e+003
1071.819, 3.621e+003
1073.058, 3.752e+003
1074.298, 3.777e+003
1075.537, 3.873e+003
1076.776, 4.015e+003
1078.015, 4.028e+003
1079.254, 4.118e+003
1080.493, 4.108e+003
1081.731, 4.230e+003
1082.969, 4.272e+003
1084.207, 4.113e+003
1085.445, 4.161e+003
1086.683, 4.081e+003
1087.920, 4.030e+003
1089.157, 4.098e+003
1090.394, 4.028e+003
1091.631, 4.087e+003
1092.868, 4.180e+003
1094.105, 4.140e+003
1095.341, 4.339e+003
1096.577, 4.341e+003
1097.813, 4.508e+003
1099.049, 4.665e+003
1100.284, 4.711e+003
1101.519, 4.938e+003
1102.755, 5.123e+003
1103.990, 5.210e+003
1105.224, 5.471e+003
1106.459, 5.395e+003
1107.693, 5.366e+003
1108.928, 5.396e+003
1110.162, 5.199e+003
1111.395, 5.195e+003
1112.629, 4.961e+003
1113.863, 4.719e+003
1115.096, 4.631e+003
1116.329, 4.394e+003
1117.562, 4.359e+003
1118.795, 4.253e+003
1120.027, 4.195e+003
1121.259, 4.219e+003
1122.492, 4.136e+003
1123.723, 4.032e+003
1124.955, 4.022e+003
1126.187, 3.902e+003
1127.418, 3.932e+003
1128.649, 3.835e+003
1129.880, 3.817e+003
1131.111, 3.886e+003
1132.342, 3.766e+003
1133.572, 3.705e+003
1134.802, 3.776e+003
1136.033, 3.657e+003
1137.262, 3.691e+003
1138.492, 3.659e+003
1139.722, 3.556e+003
1140.951, 3.645e+003
1142.180, 3.584e+003
1143.409, 3.552e+003
1144.638, 3.578e+003
1145.866, 3.518e+003
1147.095, 3.636e+003
1148.323, 3.601e+003
1149.551, 3.527e+003
1150.779, 3.581e+003
1152.006, 3.576e+003
1153.234, 3.568e+003
1154.461, 3.548e+003
1155.688, 3.593e+003
1156.915, 3.612e+003
1158.141, 3.637e+003
1159.368, 3.638e+003
1160.594, 3.753e+003
1161.820, 3.666e+003
1163.046, 3.784e+003
1164.272, 3.808e+003
1165.498, 3.880e+003
1166.723, 3.922e+003
1167.948, 3.969e+003
1169.173, 4.012e+003
1170.398, 4.218e+003
1171.623, 4.268e+003
1172.847, 4.330e+003
1174.071, 4.389e+003
1175.295, 4.348e+003
1176.519, 4.368e+003
1177.743, 4.284e+003
1178.966, 4.164e+003
1180.190, 4.211e+003
1181.413, 4.049e+003
1182.636, 4.003e+003
1183.858, 4.007e+003
1185.081, 3.937e+003
1186.303, 3.874e+003
1187.526, 3.802e+003
1188.748, 3.810e+003
1189.969, 3.823e+003
1191.191, 3.772e+003
1192.412, 3.703e+003
1193.634, 3.721e+003
1194.855, 3.663e+003
1196.076, 3.663e+003
1197.296, 3.742e+003
1198.517, 3.704e+003
1199.737, 3.735e+003
1200.957, 3.684e+003
1202.177, 3.690e+003
1203.397, 3.707e+003
1204.617, 3.591e+003
1205.836, 3.624e+003
1207.055, 3.673e+003
1208.274, 3.598e+003
1209.493, 3.661e+003
1210.712, 3.645e+003
1211.930, 3.700e+003
1213.148, 3.760e+003
1214.367, 3.616e+003
1215.584, 3.769e+003
1216.802, 3.745e+003
1218.020, 3.702e+003
1219.237, 3.716e+003
1220.454, 3.642e+003
1221.671, 3.706e+003
1222.888, 3.751e+003
1224.105, 3.692e+003
1225.321, 3.673e+003
1226.537, 3.679e+003
1227.753, 3.675e+003
1228.969, 3.718e+003
1230.185, 3.676e+003
1231.400, 3.765e+003
1232.616, 3.757e+003
1233.831, 3.743e+003
1235.046, 3.860e+003
1236.261, 3.887e+003
1237.475, 3.833e+003
1238.689, 3.897e+003
1239.904, 3.806e+003
1241.118, 3.869e+003
1242.332, 3.863e+003
1243.545, 3.782e+003
1244.759, 3.862e+003
1245.972, 3.911e+003
1247.185, 3.794e+003
1248.398, 3.923e+003
1249.611, 3.838e+003
1250.823, 3.880e+003
1252.036, 3.888e+003
1253.248, 3.861e+003
1254.460, 3.877e+003
1255.671, 3.845e+003
1256.883, 3.816e+003
1258.095, 4.184e+003
1259.306, 4.550e+003
1260.517, 3.795e+003
1261.728, 3.944e+003
1262.938, 3.861e+003
1264.149, 3.953e+003
1265.359, 3.948e+003
1266.569, 3.926e+003
1267.779, 4.013e+003
1268.989, 3.907e+003
1270.199, 3.993e+003
1271.408, 4.129e+003
1272.617, 3.983e+003
1273.826, 3.983e+003
1275.035, 4.039e+003
1276.244, 3.958e+003
1277.452, 3.970e+003
1278.661, 3.963e+003
1279.869, 3.835e+003
1281.077, 3.917e+003
1282.285, 3.818e+003
1283.492, 3.888e+003
1284.700, 3.870e+003
1285.907, 3.800e+003
1287.114, 3.887e+003
1288.321, 3.833e+003
1289.527, 3.857e+003
1290.734, 3.928e+003
1291.940, 3.889e+003
1293.146, 3.929e+003
1294.352, 4.034e+003
1295.558, 3.859e+003
1296.763, 3.906e+003
1297.969, 3.949e+003
1299.174, 3.889e+003
1300.379, 3.977e+003
1301.584, 3.935e+003
1302.788, 3.917e+003
1303.993, 3.949e+003
1305.197, 3.904e+003
1306.401, 3.958e+003
1307.605, 4.061e+003
1308.809, 3.969e+003
1310.013, 4.125e+003
1311.216, 4.109e+003
1312.419, 4.053e+003
1313.622, 4.076e+003
1314.825, 4.092e+003
1316.028, 4.049e+003
1317.230, 4.160e+003
1318.432, 4.080e+003
1319.634, 4.142e+003
1320.836, 4.182e+003
1322.038, 4.072e+003
1323.240, 4.105e+003
1324.441, 4.052e+003
1325.642, 3.983e+003
1326.843, 4.053e+003
1328.044, 3.892e+003
1329.245, 3.940e+003
1330.445, 3.952e+003
1331.645, 3.873e+003
1332.845, 3.863e+003
1334.045, 3.873e+003
1335.245, 3.833e+003
1336.445, 3.840e+003
1337.644, 3.730e+003
1338.843, 3.830e+003
1340.042, 3.825e+003
1341.241, 3.747e+003
1342.440, 3.793e+003
1343.638, 3.784e+003
1344.836, 3.773e+003
1346.034, 3.815e+003
1347.232, 3.828e+003
1348.430, 3.727e+003
1349.628, 3.817e+003
1350.825, 3.792e+003
1352.022, 3.811e+003
1353.219, 3.776e+003
1354.416, 3.772e+003
1355.613, 3.817e+003
1356.809, 3.837e+003
1358.005, 3.727e+003
1359.202, 3.793e+003
1360.398, 3.818e+003
1361.593, 3.730e+003
1362.789, 3.804e+003
1363.984, 3.758e+003
1365.179, 3.828e+003
1366.374, 3.813e+003
1367.569, 3.810e+003
1368.764, 3.820e+003
1369.958, 3.808e+003
1371.153, 3.802e+003
1372.347, 3.835e+003
1373.541, 3.846e+003
1374.735, 3.914e+003
1375.928, 3.905e+003
1377.122, 3.882e+003
1378.315, 3.939e+003
1379.508, 3.966e+003
1380.701, 3.924e+003
1381.893, 3.981e+003
1383.086, 3.917e+003
1384.278, 3.904e+003
1385.470, 3.987e+003
1386.662, 3.952e+003
1387.854, 3.976e+003
1389.046, 3.985e+003
1390.237, 3.940e+003
1391.428, 3.995e+003
1392.619, 3.962e+003
1393.810, 3.954e+003
1395.001, 3.960e+003
1396.191, 3.895e+003
1397.382, 3.861e+003
1398.572, 3.934e+003
1399.762, 3.870e+003
1400.952, 3.877e+003
1402.141, 3.925e+003
1403.331, 3.817e+003
1404.520, 3.901e+003
1405.709, 3.911e+003
1406.898, 3.885e+003
1408.087, 3.968e+003
1409.275, 3.972e+003
1410.464, 3.928e+003
1411.652, 3.996e+003
1412.840, 3.961e+003
1414.028, 3.909e+003
1415.215, 3.965e+003
1416.403, 3.937e+003
1417.590, 3.968e+003
1418.777, 4.046e+003
1419.964, 3.988e+003
1421.151, 3.982e+003
1422.338, 3.969e+003
1423.524, 3.956e+003
1424.710, 4.077e+003
1425.896, 3.994e+003
1427.082, 4.099e+003
1428.268, 4.141e+003
1429.453, 4.159e+003
1430.639, 4.165e+003
1431.824, 4.162e+003
1433.009, 4.210e+003
1434.194, 4.313e+003
1435.378, 4.305e+003
1436.563, 4.429e+003
1437.747, 4.584e+003
1438.931, 4.610e+003
1440.115, 4.790e+003
1441.299, 4.887e+003
1442.482, 4.832e+003
1443.666, 5.023e+003
1444.849, 4.912e+003
1446.032, 4.912e+003
1447.215, 5.170e+003
1448.397, 5.104e+003
1449.580, 5.081e+003
1450.762, 5.296e+003
1451.944, 5.152e+003
1453.126, 5.243e+003
1454.308, 5.371e+003
1455.490, 5.140e+003
1456.671, 5.249e+003
1457.852, 5.225e+003
1459.033, 5.093e+003
1460.214, 5.198e+003
1461.395, 5.037e+003
1462.575, 4.937e+003
1463.756, 4.963e+003
1464.936, 4.809e+003
1466.116, 4.763e+003
1467.296, 4.726e+003
1468.475, 4.655e+003
1469.655, 4.629e+003
1470.834, 4.594e+003
1472.013, 4.466e+003
1473.192, 4.526e+003
1474.371, 4.460e+003
1475.550, 4.450e+003
1476.728, 4.479e+003
1477.906, 4.426e+003
1479.084, 4.378e+003
1480.262, 4.479e+003
1481.440, 4.304e+003
1482.617, 4.401e+003
1483.795, 4.465e+003
1484.972, 4.410e+003
1486.149, 4.353e+003
1487.326, 4.314e+003
1488.502, 4.263e+003
1489.679, 4.253e+003
1490.855, 4.195e+003
1492.031, 4.134e+003
1493.207, 4.077e+003
1494.383, 4.130e+003
1495.559, 4.102e+003
1496.734, 4.092e+003
1497.909, 4.135e+003
1499.084, 4.086e+003
1500.259, 4.092e+003
1501.434, 4.020e+003
1502.608, 4.059e+003
1503.783, 4.212e+003
1504.957, 1.850e+002
##END=



