##NAMES=Danburite
##RRUFFID=R040013
##IDEAL CHEMISTRY=CaB_2_Si_2_O_8_
##LOCALITY=Charcas, San Luis Potosi, Mexico
##OWNER=RRUFF
##SOURCE=Marcus Origlieri
##DESCRIPTION=Colorless prismatic single crystal
##STATUS=The identification of this mineral has been confirmed by X-ray diffraction and chemical analysis
##URL=rruff.info/R040013
##MEASURED CHEMISTRY=Ca_1.00_B_2.00_Si_2.00_O_8_
##PIN_ID=M00012
##ORIENTATION=Laser parallel to c* (0 0 1). Fiducial mark perpendicular to laser is parallel to a [1 0 0]
26.288, 1.629e+003
27.694, 1.604e+003
29.099, 1.597e+003
30.504, 1.569e+003
31.909, 1.547e+003
33.313, 1.544e+003
34.717, 1.503e+003
36.121, 1.512e+003
37.525, 1.486e+003
38.929, 1.502e+003
40.332, 1.499e+003
41.735, 1.509e+003
43.138, 1.430e+003
44.541, 1.438e+003
45.943, 1.426e+003
47.345, 1.425e+003
48.747, 1.425e+003
50.149, 1.419e+003
51.551, 1.371e+003
52.952, 1.413e+003
54.353, 1.408e+003
55.754, 1.472e+003
57.155, 1.447e+003
58.555, 1.435e+003
59.955, 1.462e+003
61.355, 1.410e+003
62.755, 1.404e+003
64.154, 1.326e+003
65.553, 1.248e+003
66.952, 1.218e+003
68.351, 1.212e+003
69.750, 1.162e+003
71.148, 1.185e+003
72.546, 1.150e+003
73.944, 1.137e+003
75.342, 1.111e+003
76.739, 1.124e+003
78.136, 1.130e+003
79.533, 1.152e+003
80.930, 1.171e+003
82.327, 1.259e+003
83.723, 1.242e+003
85.119, 1.366e+003
86.515, 1.406e+003
87.910, 1.553e+003
89.306, 1.703e+003
90.701, 1.839e+003
92.096, 2.025e+003
93.490, 2.108e+003
94.885, 2.481e+003
96.279, 2.544e+003
97.673, 2.794e+003
99.067, 2.960e+003
100.461, 3.078e+003
101.854, 3.352e+003
103.247, 3.257e+003
104.640, 3.591e+003
106.032, 3.481e+003
107.425, 3.676e+003
108.817, 3.798e+003
110.209, 4.158e+003
111.601, 6.773e+003
112.992, 9.922e+003
114.384, 5.763e+003
115.775, 5.182e+003
117.166, 6.918e+003
118.556, 8.131e+003
119.947, 9.015e+003
121.337, 1.087e+004
122.727, 1.293e+004
124.116, 1.486e+004
125.506, 1.272e+004
126.895, 9.029e+003
128.284, 6.546e+003
129.673, 5.025e+003
131.062, 4.409e+003
132.450, 3.761e+003
133.838, 3.781e+003
135.226, 3.547e+003
136.614, 3.717e+003
138.001, 3.824e+003
139.388, 3.824e+003
140.775, 3.639e+003
142.162, 3.322e+003
143.549, 3.290e+003
144.935, 3.161e+003
146.321, 3.110e+003
147.707, 3.093e+003
149.093, 2.976e+003
150.478, 3.028e+003
151.863, 2.882e+003
153.248, 3.064e+003
154.633, 2.954e+003
156.018, 3.014e+003
157.402, 3.037e+003
158.786, 3.066e+003
160.170, 3.564e+003
161.554, 3.783e+003
162.937, 4.914e+003
164.320, 7.039e+003
165.703, 8.369e+003
167.086, 7.262e+003
168.469, 5.143e+003
169.851, 4.114e+003
171.233, 3.497e+003
172.615, 3.272e+003
173.996, 3.084e+003
175.378, 3.146e+003
176.759, 3.161e+003
178.140, 3.222e+003
179.521, 3.648e+003
180.901, 3.861e+003
182.281, 4.003e+003
183.662, 3.694e+003
185.041, 3.496e+003
186.421, 3.385e+003
187.800, 3.383e+003
189.180, 3.604e+003
190.558, 3.627e+003
191.937, 3.707e+003
193.316, 3.427e+003
194.694, 3.348e+003
196.072, 3.306e+003
197.450, 3.189e+003
198.827, 3.323e+003
200.205, 3.256e+003
201.582, 3.606e+003
202.959, 3.927e+003
204.336, 4.620e+003
205.712, 5.719e+003
207.088, 7.418e+003
208.465, 1.088e+004
209.840, 1.491e+004
211.216, 1.652e+004
212.591, 1.398e+004
213.967, 9.778e+003
215.341, 7.099e+003
216.716, 5.491e+003
218.091, 4.589e+003
219.465, 4.027e+003
220.839, 3.789e+003
222.213, 3.753e+003
223.586, 3.578e+003
224.960, 3.666e+003
226.333, 3.598e+003
227.706, 3.851e+003
229.079, 3.898e+003
230.451, 4.108e+003
231.823, 4.401e+003
233.195, 4.681e+003
234.567, 5.436e+003
235.939, 6.282e+003
237.310, 8.068e+003
238.682, 1.093e+004
240.052, 1.549e+004
241.423, 2.291e+004
242.794, 3.433e+004
244.164, 4.701e+004
245.534, 4.998e+004
246.904, 4.153e+004
248.274, 2.949e+004
249.643, 1.957e+004
251.012, 1.395e+004
252.381, 1.018e+004
253.750, 8.176e+003
255.118, 6.592e+003
256.487, 5.724e+003
257.855, 5.189e+003
259.223, 4.616e+003
260.590, 4.407e+003
261.958, 4.074e+003
263.325, 3.905e+003
264.692, 3.732e+003
266.059, 3.608e+003
267.425, 3.567e+003
268.791, 3.448e+003
270.158, 3.513e+003
271.523, 3.294e+003
272.889, 3.324e+003
274.255, 3.375e+003
275.620, 3.393e+003
276.985, 3.606e+003
278.350, 3.516e+003
279.714, 3.436e+003
281.078, 3.171e+003
282.443, 3.084e+003
283.806, 3.072e+003
285.170, 2.896e+003
286.534, 2.926e+003
287.897, 2.791e+003
289.260, 2.895e+003
290.623, 2.820e+003
291.985, 2.867e+003
293.348, 2.903e+003
294.710, 2.831e+003
296.072, 2.881e+003
297.433, 2.820e+003
298.795, 2.875e+003
300.156, 2.855e+003
301.517, 2.848e+003
302.878, 2.952e+003
304.239, 2.879e+003
305.599, 3.034e+003
306.959, 3.069e+003
308.319, 3.225e+003
309.679, 3.462e+003
311.038, 3.537e+003
312.398, 3.690e+003
313.757, 3.463e+003
315.116, 3.358e+003
316.474, 3.216e+003
317.833, 3.044e+003
319.191, 3.028e+003
320.549, 2.847e+003
321.907, 2.924e+003
323.264, 2.791e+003
324.622, 2.806e+003
325.979, 2.824e+003
327.336, 2.784e+003
328.692, 2.862e+003
330.049, 2.758e+003
331.405, 2.826e+003
332.761, 2.801e+003
334.117, 2.812e+003
335.473, 2.886e+003
336.828, 2.816e+003
338.183, 2.932e+003
339.538, 2.860e+003
340.893, 3.076e+003
342.247, 3.176e+003
343.602, 3.347e+003
344.956, 3.925e+003
346.310, 4.319e+003
347.663, 4.638e+003
349.017, 4.480e+003
350.370, 4.015e+003
351.723, 3.618e+003
353.076, 3.290e+003
354.428, 3.097e+003
355.780, 2.909e+003
357.133, 2.938e+003
358.484, 2.903e+003
359.836, 2.773e+003
361.188, 2.845e+003
362.539, 2.746e+003
363.890, 2.814e+003
365.241, 2.752e+003
366.591, 2.710e+003
367.942, 2.787e+003
369.292, 2.719e+003
370.642, 2.764e+003
371.992, 2.764e+003
373.341, 2.734e+003
374.691, 2.793e+003
376.040, 2.729e+003
377.388, 2.800e+003
378.737, 2.752e+003
380.086, 2.835e+003
381.434, 2.781e+003
382.782, 2.821e+003
384.130, 2.904e+003
385.477, 2.884e+003
386.825, 2.971e+003
388.172, 2.939e+003
389.519, 2.982e+003
390.865, 3.053e+003
392.212, 2.977e+003
393.558, 3.129e+003
394.904, 3.026e+003
396.250, 3.091e+003
397.596, 3.064e+003
398.941, 3.026e+003
400.286, 3.165e+003
401.631, 3.130e+003
402.976, 3.212e+003
404.321, 3.243e+003
405.665, 3.362e+003
407.009, 3.418e+003
408.353, 3.382e+003
409.697, 3.568e+003
411.040, 3.576e+003
412.384, 3.725e+003
413.727, 3.855e+003
415.070, 4.154e+003
416.412, 4.572e+003
417.755, 5.010e+003
419.097, 5.822e+003
420.439, 6.670e+003
421.781, 7.870e+003
423.122, 8.977e+003
424.464, 9.236e+003
425.805, 8.900e+003
427.146, 7.574e+003
428.486, 6.317e+003
429.827, 5.337e+003
431.167, 4.535e+003
432.507, 4.303e+003
433.847, 4.229e+003
435.187, 4.495e+003
436.526, 5.182e+003
437.865, 6.384e+003
439.204, 8.071e+003
440.543, 9.466e+003
441.882, 9.652e+003
443.220, 8.380e+003
444.558, 6.826e+003
445.896, 5.627e+003
447.234, 4.750e+003
448.572, 4.242e+003
449.909, 3.762e+003
451.246, 3.550e+003
452.583, 3.426e+003
453.919, 3.322e+003
455.256, 3.368e+003
456.592, 3.234e+003
457.928, 3.305e+003
459.264, 3.314e+003
460.600, 3.280e+003
461.935, 3.328e+003
463.270, 3.212e+003
464.605, 3.231e+003
465.940, 3.084e+003
467.274, 3.138e+003
468.609, 3.099e+003
469.943, 3.051e+003
471.277, 3.048e+003
472.610, 3.039e+003
473.944, 3.070e+003
475.277, 3.088e+003
476.610, 3.082e+003
477.943, 3.175e+003
479.275, 3.132e+003
480.608, 3.148e+003
481.940, 3.082e+003
483.272, 2.993e+003
484.604, 3.030e+003
485.935, 2.908e+003
487.267, 2.967e+003
488.598, 2.911e+003
489.929, 2.898e+003
491.260, 2.963e+003
492.590, 2.916e+003
493.920, 2.930e+003
495.250, 2.899e+003
496.580, 2.914e+003
497.910, 2.881e+003
499.239, 2.863e+003
500.569, 2.911e+003
501.898, 2.900e+003
503.226, 2.903e+003
504.555, 2.953e+003
505.883, 2.916e+003
507.212, 2.954e+003
508.540, 2.928e+003
509.867, 2.988e+003
511.195, 3.006e+003
512.522, 2.987e+003
513.849, 3.072e+003
515.176, 3.025e+003
516.503, 3.106e+003
517.829, 3.066e+003
519.156, 3.115e+003
520.482, 3.169e+003
521.808, 3.039e+003
523.133, 3.118e+003
524.459, 3.057e+003
525.784, 3.057e+003
527.109, 3.130e+003
528.434, 3.067e+003
529.758, 3.108e+003
531.083, 3.057e+003
532.407, 3.121e+003
533.731, 3.086e+003
535.055, 3.064e+003
536.378, 3.144e+003
537.701, 3.072e+003
539.025, 3.128e+003
540.348, 3.156e+003
541.670, 3.065e+003
542.993, 3.139e+003
544.315, 3.111e+003
545.637, 3.105e+003
546.959, 3.097e+003
548.281, 3.153e+003
549.602, 3.174e+003
550.923, 3.139e+003
552.244, 3.213e+003
553.565, 3.179e+003
554.886, 3.205e+003
556.206, 3.260e+003
557.526, 3.230e+003
558.846, 3.305e+003
560.166, 3.310e+003
561.486, 3.362e+003
562.805, 3.382e+003
564.124, 3.320e+003
565.443, 3.425e+003
566.762, 3.328e+003
568.080, 3.341e+003
569.399, 3.437e+003
570.717, 3.390e+003
572.035, 3.503e+003
573.352, 3.486e+003
574.670, 3.492e+003
575.987, 3.560e+003
577.304, 3.548e+003
578.621, 3.665e+003
579.938, 3.646e+003
581.254, 3.844e+003
582.570, 3.936e+003
583.886, 4.064e+003
585.202, 4.219e+003
586.518, 4.143e+003
587.833, 4.346e+003
589.148, 4.440e+003
590.463, 4.597e+003
591.778, 4.793e+003
593.093, 4.944e+003
594.407, 5.372e+003
595.721, 5.665e+003
597.035, 6.103e+003
598.349, 6.914e+003
599.662, 7.582e+003
600.976, 8.942e+003
602.289, 1.057e+004
603.602, 1.327e+004
604.914, 1.747e+004
606.227, 2.321e+004
607.539, 3.141e+004
608.851, 3.780e+004
610.163, 3.999e+004
611.475, 3.679e+004
612.786, 3.034e+004
614.097, 2.388e+004
615.408, 1.812e+004
616.719, 1.464e+004
618.030, 1.224e+004
619.340, 1.033e+004
620.651, 9.995e+003
621.961, 9.542e+003
623.270, 1.027e+004
624.580, 1.173e+004
625.889, 1.352e+004
627.199, 1.521e+004
628.507, 1.454e+004
629.816, 1.304e+004
631.125, 1.096e+004
632.433, 8.872e+003
633.741, 7.892e+003
635.049, 6.683e+003
636.357, 6.259e+003
637.664, 5.819e+003
638.972, 5.428e+003
640.279, 5.410e+003
641.586, 5.202e+003
642.893, 5.253e+003
644.199, 5.213e+003
645.505, 5.078e+003
646.811, 5.267e+003
648.117, 4.878e+003
649.423, 4.928e+003
650.728, 4.862e+003
652.034, 4.676e+003
653.339, 4.786e+003
654.644, 4.450e+003
655.948, 4.477e+003
657.253, 4.266e+003
658.557, 3.994e+003
659.861, 4.051e+003
661.165, 3.807e+003
662.468, 3.780e+003
663.772, 3.745e+003
665.075, 3.624e+003
666.378, 3.717e+003
667.681, 3.595e+003
668.983, 3.602e+003
670.286, 3.560e+003
671.588, 3.467e+003
672.890, 3.612e+003
674.192, 3.486e+003
675.493, 3.453e+003
676.795, 3.499e+003
678.096, 3.431e+003
679.397, 3.476e+003
680.697, 3.387e+003
681.998, 3.406e+003
683.298, 3.431e+003
684.598, 3.386e+003
685.898, 3.463e+003
687.198, 3.330e+003
688.498, 3.383e+003
689.797, 3.375e+003
691.096, 3.366e+003
692.395, 3.394e+003
693.694, 3.337e+003
694.992, 3.349e+003
696.290, 3.401e+003
697.589, 3.328e+003
698.886, 3.415e+003
700.184, 3.350e+003
701.482, 3.387e+003
702.779, 3.398e+003
704.076, 3.357e+003
705.373, 3.377e+003
706.669, 3.356e+003
707.966, 3.363e+003
709.262, 3.378e+003
710.558, 3.337e+003
711.854, 3.405e+003
713.150, 3.338e+003
714.445, 3.387e+003
715.740, 3.384e+003
717.035, 3.366e+003
718.330, 3.444e+003
719.625, 3.436e+003
720.919, 3.415e+003
722.214, 3.443e+003
723.508, 3.440e+003
724.801, 3.556e+003
726.095, 3.497e+003
727.388, 3.525e+003
728.682, 3.551e+003
729.975, 3.515e+003
731.267, 3.620e+003
732.560, 3.536e+003
733.852, 3.661e+003
735.145, 3.658e+003
736.437, 3.558e+003
737.728, 3.591e+003
739.020, 3.590e+003
740.311, 3.566e+003
741.603, 3.675e+003
742.894, 3.613e+003
744.184, 3.668e+003
745.475, 3.590e+003
746.765, 3.766e+003
748.055, 3.760e+003
749.345, 3.710e+003
750.635, 3.838e+003
751.925, 3.761e+003
753.214, 3.753e+003
754.503, 3.790e+003
755.792, 3.697e+003
757.081, 3.757e+003
758.370, 3.758e+003
759.658, 3.848e+003
760.946, 3.900e+003
762.234, 3.851e+003
763.522, 3.913e+003
764.809, 4.002e+003
766.097, 4.060e+003
767.384, 4.190e+003
768.671, 4.216e+003
769.958, 4.406e+003
771.244, 4.516e+003
772.530, 4.604e+003
773.817, 4.710e+003
775.102, 4.627e+003
776.388, 4.550e+003
777.674, 4.370e+003
778.959, 4.185e+003
780.244, 4.195e+003
781.529, 4.022e+003
782.814, 4.099e+003
784.098, 4.002e+003
785.383, 4.015e+003
786.667, 4.117e+003
787.951, 3.990e+003
789.235, 4.092e+003
790.518, 4.086e+003
791.801, 3.999e+003
793.084, 4.085e+003
794.367, 3.994e+003
795.650, 4.089e+003
796.933, 4.067e+003
798.215, 3.987e+003
799.497, 4.187e+003
800.779, 4.238e+003
802.061, 3.973e+003
803.342, 3.968e+003
804.624, 3.894e+003
805.905, 4.075e+003
807.186, 3.974e+003
808.466, 3.924e+003
809.747, 3.979e+003
811.027, 3.874e+003
812.307, 4.016e+003
813.587, 3.924e+003
814.867, 3.968e+003
816.146, 3.990e+003
817.426, 3.901e+003
818.705, 4.107e+003
819.984, 3.963e+003
821.263, 4.015e+003
822.541, 4.138e+003
823.819, 4.007e+003
825.098, 4.115e+003
826.375, 4.172e+003
827.653, 4.085e+003
828.931, 4.230e+003
830.208, 4.098e+003
831.485, 4.225e+003
832.762, 4.243e+003
834.039, 4.097e+003
835.315, 4.310e+003
836.592, 4.163e+003
837.868, 4.270e+003
839.144, 4.390e+003
840.420, 4.251e+003
841.695, 4.534e+003
842.970, 4.416e+003
844.246, 4.489e+003
845.521, 4.669e+003
846.795, 4.427e+003
848.070, 4.764e+003
849.344, 4.590e+003
850.618, 4.593e+003
851.892, 4.847e+003
853.166, 4.642e+003
854.440, 4.918e+003
855.713, 4.910e+003
856.986, 4.940e+003
858.259, 5.362e+003
859.532, 5.216e+003
860.804, 5.344e+003
862.077, 5.339e+003
863.349, 5.041e+003
864.621, 5.262e+003
865.893, 4.862e+003
867.164, 4.870e+003
868.436, 4.806e+003
869.707, 4.666e+003
870.978, 4.758e+003
872.248, 4.599e+003
873.519, 4.680e+003
874.789, 4.772e+003
876.060, 4.597e+003
877.330, 4.852e+003
878.599, 4.761e+003
879.869, 4.713e+003
881.138, 4.850e+003
882.408, 4.693e+003
883.677, 4.843e+003
884.945, 4.865e+003
886.214, 4.734e+003
887.482, 5.025e+003
888.751, 4.859e+003
890.019, 4.997e+003
891.287, 5.036e+003
892.554, 5.047e+003
893.822, 5.254e+003
895.089, 5.309e+003
896.356, 5.465e+003
897.623, 5.741e+003
898.889, 5.686e+003
900.156, 5.947e+003
901.422, 5.908e+003
902.688, 5.970e+003
903.954, 6.084e+003
905.220, 5.844e+003
906.485, 5.837e+003
907.750, 5.655e+003
909.015, 5.384e+003
910.280, 5.471e+003
911.545, 5.205e+003
912.809, 5.130e+003
914.074, 5.100e+003
915.338, 4.899e+003
916.602, 4.933e+003
917.865, 4.732e+003
919.129, 4.717e+003
920.392, 4.736e+003
921.655, 4.521e+003
922.918, 4.580e+003
924.181, 4.543e+003
925.443, 4.492e+003
926.706, 4.625e+003
927.968, 4.386e+003
929.230, 4.583e+003
930.491, 4.548e+003
931.753, 4.462e+003
933.014, 4.559e+003
934.276, 4.482e+003
935.536, 4.506e+003
936.797, 4.613e+003
938.058, 4.439e+003
939.318, 4.617e+003
940.578, 4.480e+003
941.838, 4.485e+003
943.098, 4.574e+003
944.358, 4.421e+003
945.617, 4.578e+003
946.876, 4.489e+003
948.135, 4.501e+003
949.394, 4.644e+003
950.653, 4.514e+003
951.911, 4.699e+003
953.169, 4.674e+003
954.427, 4.504e+003
955.685, 4.699e+003
956.943, 4.574e+003
958.200, 4.603e+003
959.458, 4.730e+003
960.715, 4.498e+003
961.971, 4.697e+003
963.228, 4.699e+003
964.485, 4.710e+003
965.741, 4.923e+003
966.997, 4.894e+003
968.253, 5.284e+003
969.508, 5.415e+003
970.764, 5.699e+003
972.019, 6.089e+003
973.274, 6.077e+003
974.529, 6.080e+003
975.784, 5.904e+003
977.039, 5.547e+003
978.293, 5.393e+003
979.547, 5.158e+003
980.801, 4.975e+003
982.055, 4.955e+003
983.308, 4.813e+003
984.562, 4.865e+003
985.815, 4.972e+003
987.068, 4.831e+003
988.321, 4.896e+003
989.573, 4.730e+003
990.826, 4.780e+003
992.078, 4.786e+003
993.330, 4.620e+003
994.582, 4.829e+003
995.833, 4.769e+003
997.085, 4.832e+003
998.336, 5.166e+003
999.587, 5.307e+003
1000.838, 6.166e+003
1002.088, 6.102e+003
1003.339, 5.745e+003
1004.589, 5.583e+003
1005.839, 5.119e+003
1007.089, 5.040e+003
1008.339, 4.980e+003
1009.588, 4.805e+003
1010.838, 4.907e+003
1012.087, 4.686e+003
1013.336, 4.742e+003
1014.584, 4.803e+003
1015.833, 4.734e+003
1017.081, 4.945e+003
1018.330, 5.062e+003
1019.577, 4.971e+003
1020.825, 5.284e+003
1022.073, 5.193e+003
1023.320, 5.402e+003
1024.567, 5.457e+003
1025.814, 5.266e+003
1027.061, 5.503e+003
1028.308, 5.299e+003
1029.554, 5.224e+003
1030.800, 5.274e+003
1032.046, 4.992e+003
1033.292, 5.002e+003
1034.538, 4.894e+003
1035.783, 4.694e+003
1037.029, 4.817e+003
1038.274, 4.658e+003
1039.519, 4.686e+003
1040.763, 4.692e+003
1042.008, 4.580e+003
1043.252, 4.739e+003
1044.496, 4.658e+003
1045.740, 4.564e+003
1046.984, 4.736e+003
1048.228, 4.624e+003
1049.471, 4.739e+003
1050.714, 4.662e+003
1051.957, 4.630e+003
1053.200, 4.784e+003
1054.442, 4.579e+003
1055.685, 4.750e+003
1056.927, 4.694e+003
1058.169, 4.559e+003
1059.411, 4.663e+003
1060.652, 4.722e+003
1061.894, 4.675e+003
1063.135, 4.811e+003
1064.376, 4.714e+003
1065.617, 4.798e+003
1066.858, 4.853e+003
1068.098, 4.771e+003
1069.339, 5.014e+003
1070.579, 4.954e+003
1071.819, 4.955e+003
1073.058, 5.111e+003
1074.298, 5.094e+003
1075.537, 5.254e+003
1076.776, 5.422e+003
1078.015, 5.417e+003
1079.254, 5.687e+003
1080.493, 5.650e+003
1081.731, 5.716e+003
1082.969, 5.905e+003
1084.207, 5.750e+003
1085.445, 5.857e+003
1086.683, 5.773e+003
1087.920, 5.703e+003
1089.157, 5.869e+003
1090.394, 5.794e+003
1091.631, 5.894e+003
1092.868, 6.180e+003
1094.105, 6.185e+003
1095.341, 6.498e+003
1096.577, 6.598e+003
1097.813, 6.784e+003
1099.049, 7.308e+003
1100.284, 7.494e+003
1101.519, 7.898e+003
1102.755, 8.211e+003
1103.990, 8.610e+003
1105.224, 9.033e+003
1106.459, 9.148e+003
1107.693, 9.064e+003
1108.928, 9.084e+003
1110.162, 8.588e+003
1111.395, 8.431e+003
1112.629, 8.014e+003
1113.863, 7.472e+003
1115.096, 7.284e+003
1116.329, 6.921e+003
1117.562, 6.679e+003
1118.795, 6.561e+003
1120.027, 6.308e+003
1121.259, 6.199e+003
1122.492, 6.106e+003
1123.723, 5.933e+003
1124.955, 5.932e+003
1126.187, 5.739e+003
1127.418, 5.650e+003
1128.649, 5.659e+003
1129.880, 5.437e+003
1131.111, 5.499e+003
1132.342, 5.481e+003
1133.572, 5.290e+003
1134.802, 5.401e+003
1136.033, 5.210e+003
1137.262, 5.217e+003
1138.492, 5.126e+003
1139.722, 5.038e+003
1140.951, 5.066e+003
1142.180, 4.977e+003
1143.409, 4.877e+003
1144.638, 5.022e+003
1145.866, 4.846e+003
1147.095, 4.878e+003
1148.323, 4.911e+003
1149.551, 4.858e+003
1150.779, 4.976e+003
1152.006, 4.857e+003
1153.234, 4.770e+003
1154.461, 4.932e+003
1155.688, 4.891e+003
1156.915, 5.018e+003
1158.141, 5.068e+003
1159.368, 4.964e+003
1160.594, 5.155e+003
1161.820, 5.138e+003
1163.046, 5.129e+003
1164.272, 5.248e+003
1165.498, 5.129e+003
1166.723, 5.344e+003
1167.948, 5.316e+003
1169.173, 5.316e+003
1170.398, 5.607e+003
1171.623, 5.576e+003
1172.847, 5.613e+003
1174.071, 5.825e+003
1175.295, 5.667e+003
1176.519, 5.732e+003
1177.743, 5.763e+003
1178.966, 5.532e+003
1180.190, 5.546e+003
1181.413, 5.444e+003
1182.636, 5.369e+003
1183.858, 5.371e+003
1185.081, 5.193e+003
1186.303, 5.230e+003
1187.526, 5.302e+003
1188.748, 5.160e+003
1189.969, 5.314e+003
1191.191, 5.110e+003
1192.412, 5.090e+003
1193.634, 5.144e+003
1194.855, 5.011e+003
1196.076, 4.968e+003
1197.296, 5.010e+003
1198.517, 4.975e+003
1199.737, 5.106e+003
1200.957, 5.042e+003
1202.177, 5.023e+003
1203.397, 5.087e+003
1204.617, 4.954e+003
1205.836, 5.053e+003
1207.055, 4.992e+003
1208.274, 4.894e+003
1209.493, 5.047e+003
1210.712, 4.959e+003
1211.930, 5.016e+003
1213.148, 5.158e+003
1214.367, 5.050e+003
1215.584, 5.205e+003
1216.802, 5.134e+003
1218.020, 5.075e+003
1219.237, 5.177e+003
1220.454, 5.034e+003
1221.671, 4.993e+003
1222.888, 5.147e+003
1224.105, 5.000e+003
1225.321, 5.060e+003
1226.537, 5.156e+003
1227.753, 4.980e+003
1228.969, 5.176e+003
1230.185, 5.099e+003
1231.400, 5.145e+003
1232.616, 5.312e+003
1233.831, 5.139e+003
1235.046, 5.255e+003
1236.261, 5.454e+003
1237.475, 5.226e+003
1238.689, 5.390e+003
1239.904, 5.384e+003
1241.118, 5.325e+003
1242.332, 5.351e+003
1243.545, 5.200e+003
1244.759, 5.294e+003
1245.972, 5.433e+003
1247.185, 5.225e+003
1248.398, 5.477e+003
1249.611, 5.370e+003
1250.823, 5.270e+003
1252.036, 5.483e+003
1253.248, 5.298e+003
1254.460, 5.310e+003
1255.671, 5.442e+003
1256.883, 5.232e+003
1258.095, 5.398e+003
1259.306, 5.307e+003
1260.517, 5.262e+003
1261.728, 5.501e+003
1262.938, 5.376e+003
1264.149, 5.379e+003
1265.359, 5.624e+003
1266.569, 5.423e+003
1267.779, 5.656e+003
1268.989, 5.651e+003
1270.199, 5.510e+003
1271.408, 5.863e+003
1272.617, 5.590e+003
1273.826, 5.675e+003
1275.035, 5.716e+003
1276.244, 5.571e+003
1277.452, 5.573e+003
1278.661, 5.564e+003
1279.869, 5.318e+003
1281.077, 5.397e+003
1282.285, 5.428e+003
1283.492, 5.253e+003
1284.700, 5.521e+003
1285.907, 5.282e+003
1287.114, 5.433e+003
1288.321, 5.485e+003
1289.527, 5.302e+003
1290.734, 5.525e+003
1291.940, 5.529e+003
1293.146, 5.382e+003
1294.352, 5.716e+003
1295.558, 5.482e+003
1296.763, 5.504e+003
1297.969, 5.573e+003
1299.174, 5.400e+003
1300.379, 5.495e+003
1301.584, 5.486e+003
1302.788, 5.388e+003
1303.993, 5.546e+003
1305.197, 5.527e+003
1306.401, 5.496e+003
1307.605, 5.749e+003
1308.809, 5.576e+003
1310.013, 5.834e+003
1311.216, 5.792e+003
1312.419, 5.625e+003
1313.622, 5.829e+003
1314.825, 5.785e+003
1316.028, 5.690e+003
1317.230, 5.902e+003
1318.432, 5.775e+003
1319.634, 5.845e+003
1320.836, 5.924e+003
1322.038, 5.656e+003
1323.240, 5.782e+003
1324.441, 5.727e+003
1325.642, 5.510e+003
1326.843, 5.572e+003
1328.044, 5.414e+003
1329.245, 5.399e+003
1330.445, 5.538e+003
1331.645, 5.281e+003
1332.845, 5.350e+003
1334.045, 5.338e+003
1335.245, 5.166e+003
1336.445, 5.383e+003
1337.644, 5.178e+003
1338.843, 5.184e+003
1340.042, 5.282e+003
1341.241, 5.220e+003
1342.440, 5.243e+003
1343.638, 5.345e+003
1344.836, 5.198e+003
1346.034, 5.277e+003
1347.232, 5.276e+003
1348.430, 5.180e+003
1349.628, 5.312e+003
1350.825, 5.325e+003
1352.022, 5.194e+003
1353.219, 5.346e+003
1354.416, 5.230e+003
1355.613, 5.245e+003
1356.809, 5.323e+003
1358.005, 5.198e+003
1359.202, 5.329e+003
1360.398, 5.201e+003
1361.593, 5.225e+003
1362.789, 5.287e+003
1363.984, 5.167e+003
1365.179, 5.235e+003
1366.374, 5.347e+003
1367.569, 5.222e+003
1368.764, 5.316e+003
1369.958, 5.313e+003
1371.153, 5.281e+003
1372.347, 5.352e+003
1373.541, 5.392e+003
1374.735, 5.277e+003
1375.928, 5.525e+003
1377.122, 5.402e+003
1378.315, 5.504e+003
1379.508, 5.515e+003
1380.701, 5.355e+003
1381.893, 5.499e+003
1383.086, 5.544e+003
1384.278, 5.357e+003
1385.470, 5.532e+003
1386.662, 5.413e+003
1387.854, 5.368e+003
1389.046, 5.582e+003
1390.237, 5.446e+003
1391.428, 5.479e+003
1392.619, 5.536e+003
1393.810, 5.357e+003
1395.001, 5.378e+003
1396.191, 5.389e+003
1397.382, 5.299e+003
1398.572, 5.436e+003
1399.762, 5.316e+003
1400.952, 5.305e+003
1402.141, 5.403e+003
1403.331, 5.354e+003
1404.520, 5.364e+003
1405.709, 5.487e+003
1406.898, 5.400e+003
1408.087, 5.406e+003
1409.275, 5.417e+003
1410.464, 5.321e+003
1411.652, 5.473e+003
1412.840, 5.494e+003
1414.028, 5.392e+003
1415.215, 5.566e+003
1416.403, 5.397e+003
1417.590, 5.508e+003
1418.777, 5.571e+003
1419.964, 5.377e+003
1421.151, 5.548e+003
1422.338, 5.536e+003
1423.524, 5.470e+003
1424.710, 5.650e+003
1425.896, 5.578e+003
1427.082, 5.601e+003
1428.268, 5.744e+003
1429.453, 5.660e+003
1430.639, 5.758e+003
1431.824, 5.952e+003
1433.009, 5.777e+003
1434.194, 6.017e+003
1435.378, 6.070e+003
1436.563, 6.096e+003
1437.747, 6.541e+003
1438.931, 6.490e+003
1440.115, 6.714e+003
1441.299, 7.004e+003
1442.482, 6.887e+003
1443.666, 7.120e+003
1444.849, 7.278e+003
1446.032, 7.044e+003
1447.215, 7.314e+003
1448.397, 7.401e+003
1449.580, 7.198e+003
1450.762, 7.677e+003
1451.944, 7.538e+003
1453.126, 7.429e+003
1454.308, 7.870e+003
1455.490, 7.431e+003
1456.671, 7.566e+003
1457.852, 7.668e+003
1459.033, 7.366e+003
1460.214, 7.469e+003
1461.395, 7.323e+003
1462.575, 6.902e+003
1463.756, 7.156e+003
1464.936, 6.956e+003
1466.116, 6.645e+003
1467.296, 6.787e+003
1468.475, 6.521e+003
1469.655, 6.458e+003
1470.834, 6.502e+003
1472.013, 6.220e+003
1473.192, 6.306e+003
1474.371, 6.295e+003
1475.550, 6.138e+003
1476.728, 6.224e+003
1477.906, 6.230e+003
1479.084, 6.078e+003
1480.262, 6.257e+003
1481.440, 6.150e+003
1482.617, 6.132e+003
1483.795, 6.306e+003
1484.972, 6.098e+003
1486.149, 6.081e+003
1487.326, 6.032e+003
1488.502, 5.836e+003
1489.679, 5.950e+003
1490.855, 5.817e+003
1492.031, 5.644e+003
1493.207, 5.775e+003
1494.383, 5.658e+003
1495.559, 5.557e+003
1496.734, 5.621e+003
1497.909, 5.528e+003
1499.084, 5.499e+003
1500.259, 5.631e+003
1501.434, 5.590e+003
1502.608, 5.542e+003
1503.783, 5.806e+003
1504.957, 1.870e+002
##END=



