##NAMES=Danburite
##RRUFFID=R040013
##IDEAL CHEMISTRY=CaB_2_Si_2_O_8_
##LOCALITY=Charcas, San Luis Potosi, Mexico
##OWNER=RRUFF
##SOURCE=Marcus Origlieri
##DESCRIPTION=Colorless prismatic single crystal
##STATUS=The identification of this mineral has been confirmed by X-ray diffraction and chemical analysis
##URL=rruff.info/R040013
##MEASURED CHEMISTRY=Ca_1.00_B_2.00_Si_2.00_O_8_
##PIN_ID=M00009
##ORIENTATION=Laser parallel to b* (0 1 0). Fiducial mark perpendicular to laser is parallel to -c [0 0 -1]
26.288, 1.820e+002
27.694, 2.010e+002
29.099, 2.210e+002
30.504, 2.300e+002
31.909, 2.370e+002
33.313, 2.480e+002
34.717, 2.450e+002
36.121, 2.540e+002
37.525, 2.570e+002
38.929, 2.620e+002
40.332, 2.610e+002
41.735, 2.600e+002
43.138, 2.590e+002
44.541, 2.580e+002
45.943, 2.610e+002
47.345, 2.570e+002
48.747, 2.580e+002
50.149, 2.540e+002
51.551, 2.570e+002
52.952, 2.570e+002
54.353, 2.540e+002
55.754, 2.590e+002
57.155, 2.600e+002
58.555, 2.610e+002
59.955, 2.610e+002
61.355, 2.520e+002
62.755, 2.480e+002
64.154, 2.470e+002
65.553, 2.460e+002
66.952, 2.440e+002
68.351, 2.500e+002
69.750, 2.410e+002
71.148, 2.370e+002
72.546, 2.370e+002
73.944, 2.380e+002
75.342, 2.310e+002
76.739, 2.290e+002
78.136, 2.290e+002
79.533, 2.260e+002
80.930, 2.270e+002
82.327, 2.290e+002
83.723, 2.270e+002
85.119, 2.320e+002
86.515, 2.260e+002
87.910, 2.270e+002
89.306, 2.320e+002
90.701, 2.380e+002
92.096, 2.400e+002
93.490, 2.500e+002
94.885, 2.460e+002
96.279, 2.500e+002
97.673, 2.500e+002
99.067, 2.590e+002
100.461, 2.680e+002
101.854, 2.700e+002
103.247, 2.680e+002
104.640, 2.690e+002
106.032, 2.730e+002
107.425, 2.790e+002
108.817, 3.010e+002
110.209, 3.830e+002
111.601, 5.670e+002
112.992, 4.530e+002
114.384, 3.720e+002
115.775, 3.360e+002
117.166, 3.260e+002
118.556, 3.180e+002
119.947, 3.190e+002
121.337, 3.240e+002
122.727, 3.420e+002
124.116, 3.460e+002
125.506, 3.090e+002
126.895, 3.040e+002
128.284, 3.030e+002
129.673, 2.990e+002
131.062, 2.900e+002
132.450, 2.810e+002
133.838, 2.760e+002
135.226, 2.800e+002
136.614, 2.760e+002
138.001, 2.850e+002
139.388, 2.780e+002
140.775, 2.820e+002
142.162, 2.800e+002
143.549, 2.750e+002
144.935, 2.710e+002
146.321, 2.750e+002
147.707, 2.730e+002
149.093, 2.810e+002
150.478, 2.760e+002
151.863, 2.740e+002
153.248, 2.750e+002
154.633, 2.750e+002
156.018, 2.740e+002
157.402, 2.780e+002
158.786, 2.660e+002
160.170, 2.800e+002
161.554, 2.900e+002
162.937, 2.980e+002
164.320, 3.280e+002
165.703, 3.310e+002
167.086, 3.260e+002
168.469, 3.030e+002
169.851, 3.040e+002
171.233, 3.140e+002
172.615, 3.420e+002
173.996, 3.740e+002
175.378, 4.480e+002
176.759, 5.770e+002
178.140, 8.130e+002
179.521, 1.162e+003
180.901, 1.397e+003
182.281, 1.223e+003
183.662, 8.320e+002
185.041, 5.720e+002
186.421, 4.260e+002
187.800, 3.870e+002
189.180, 3.930e+002
190.558, 4.400e+002
191.937, 4.850e+002
193.316, 4.610e+002
194.694, 3.800e+002
196.072, 3.420e+002
197.450, 3.080e+002
198.827, 3.010e+002
200.205, 2.830e+002
201.582, 3.030e+002
202.959, 3.030e+002
204.336, 2.980e+002
205.712, 3.120e+002
207.088, 3.230e+002
208.465, 3.510e+002
209.840, 3.610e+002
211.216, 3.410e+002
212.591, 3.290e+002
213.967, 3.060e+002
215.341, 2.840e+002
216.716, 2.890e+002
218.091, 2.810e+002
219.465, 2.950e+002
220.839, 2.950e+002
222.213, 3.270e+002
223.586, 3.640e+002
224.960, 4.410e+002
226.333, 4.550e+002
227.706, 3.900e+002
229.079, 3.370e+002
230.451, 3.060e+002
231.823, 2.910e+002
233.195, 2.890e+002
234.567, 2.890e+002
235.939, 2.950e+002
237.310, 3.050e+002
238.682, 3.400e+002
240.052, 3.610e+002
241.423, 4.110e+002
242.794, 5.010e+002
244.164, 5.620e+002
245.534, 5.350e+002
246.904, 4.660e+002
248.274, 3.970e+002
249.643, 3.410e+002
251.012, 3.230e+002
252.381, 3.230e+002
253.750, 2.980e+002
255.118, 2.990e+002
256.487, 2.780e+002
257.855, 2.820e+002
259.223, 2.900e+002
260.590, 2.860e+002
261.958, 2.790e+002
263.325, 2.820e+002
264.692, 2.840e+002
266.059, 2.820e+002
267.425, 2.720e+002
268.791, 2.830e+002
270.158, 2.890e+002
271.523, 2.770e+002
272.889, 2.870e+002
274.255, 2.790e+002
275.620, 2.890e+002
276.985, 2.810e+002
278.350, 2.790e+002
279.714, 2.800e+002
281.078, 2.850e+002
282.443, 2.800e+002
283.806, 2.840e+002
285.170, 2.850e+002
286.534, 3.120e+002
287.897, 3.100e+002
289.260, 3.500e+002
290.623, 3.930e+002
291.985, 4.230e+002
293.348, 4.860e+002
294.710, 4.940e+002
296.072, 4.580e+002
297.433, 3.970e+002
298.795, 3.590e+002
300.156, 3.270e+002
301.517, 3.130e+002
302.878, 3.130e+002
304.239, 3.230e+002
305.599, 3.290e+002
306.959, 3.540e+002
308.319, 3.800e+002
309.679, 3.940e+002
311.038, 4.080e+002
312.398, 4.080e+002
313.757, 3.780e+002
315.116, 3.450e+002
316.474, 3.260e+002
317.833, 3.110e+002
319.191, 3.050e+002
320.549, 3.050e+002
321.907, 2.950e+002
323.264, 2.930e+002
324.622, 2.980e+002
325.979, 3.020e+002
327.336, 2.980e+002
328.692, 3.180e+002
330.049, 3.170e+002
331.405, 3.160e+002
332.761, 3.070e+002
334.117, 3.040e+002
335.473, 3.070e+002
336.828, 3.130e+002
338.183, 3.110e+002
339.538, 3.230e+002
340.893, 3.540e+002
342.247, 3.950e+002
343.602, 4.790e+002
344.956, 5.990e+002
346.310, 6.950e+002
347.663, 6.820e+002
349.017, 5.660e+002
350.370, 4.680e+002
351.723, 3.820e+002
353.076, 3.490e+002
354.428, 3.220e+002
355.780, 3.080e+002
357.133, 2.970e+002
358.484, 3.010e+002
359.836, 2.930e+002
361.188, 2.920e+002
362.539, 2.870e+002
363.890, 2.940e+002
365.241, 2.880e+002
366.591, 2.860e+002
367.942, 2.840e+002
369.292, 2.730e+002
370.642, 2.800e+002
371.992, 2.810e+002
373.341, 2.750e+002
374.691, 2.790e+002
376.040, 2.800e+002
377.388, 2.740e+002
378.737, 2.790e+002
380.086, 2.810e+002
381.434, 2.890e+002
382.782, 2.820e+002
384.130, 2.780e+002
385.477, 2.780e+002
386.825, 2.790e+002
388.172, 2.900e+002
389.519, 2.890e+002
390.865, 2.800e+002
392.212, 2.800e+002
393.558, 2.810e+002
394.904, 2.820e+002
396.250, 2.880e+002
397.596, 2.860e+002
398.941, 2.960e+002
400.286, 2.900e+002
401.631, 2.800e+002
402.976, 2.930e+002
404.321, 2.870e+002
405.665, 2.950e+002
407.009, 2.930e+002
408.353, 2.920e+002
409.697, 2.900e+002
411.040, 2.960e+002
412.384, 2.960e+002
413.727, 2.940e+002
415.070, 2.960e+002
416.412, 3.050e+002
417.755, 3.150e+002
419.097, 3.140e+002
420.439, 3.320e+002
421.781, 3.460e+002
423.122, 3.420e+002
424.464, 3.410e+002
425.805, 3.360e+002
427.146, 3.260e+002
428.486, 3.000e+002
429.827, 3.060e+002
431.167, 2.990e+002
432.507, 2.970e+002
433.847, 2.940e+002
435.187, 2.950e+002
436.526, 3.130e+002
437.865, 3.300e+002
439.204, 3.400e+002
440.543, 3.550e+002
441.882, 3.390e+002
443.220, 3.260e+002
444.558, 3.040e+002
445.896, 3.030e+002
447.234, 2.960e+002
448.572, 2.980e+002
449.909, 3.000e+002
451.246, 2.930e+002
452.583, 2.910e+002
453.919, 3.120e+002
455.256, 3.260e+002
456.592, 3.400e+002
457.928, 3.640e+002
459.264, 3.720e+002
460.600, 3.420e+002
461.935, 3.210e+002
463.270, 3.130e+002
464.605, 3.080e+002
465.940, 3.090e+002
467.274, 3.050e+002
468.609, 3.290e+002
469.943, 3.300e+002
471.277, 3.500e+002
472.610, 3.750e+002
473.944, 4.250e+002
475.277, 5.420e+002
476.610, 7.090e+002
477.943, 9.230e+002
479.275, 9.690e+002
480.608, 8.600e+002
481.940, 6.580e+002
483.272, 5.030e+002
484.604, 4.200e+002
485.935, 3.750e+002
487.267, 3.540e+002
488.598, 3.360e+002
489.929, 3.260e+002
491.260, 3.200e+002
492.590, 3.120e+002
493.920, 3.100e+002
495.250, 3.020e+002
496.580, 3.100e+002
497.910, 3.070e+002
499.239, 2.940e+002
500.569, 3.020e+002
501.898, 3.020e+002
503.226, 2.970e+002
504.555, 2.990e+002
505.883, 3.040e+002
507.212, 3.020e+002
508.540, 2.910e+002
509.867, 2.980e+002
511.195, 2.950e+002
512.522, 3.030e+002
513.849, 2.950e+002
515.176, 3.050e+002
516.503, 3.100e+002
517.829, 2.990e+002
519.156, 3.030e+002
520.482, 3.040e+002
521.808, 3.110e+002
523.133, 3.120e+002
524.459, 3.040e+002
525.784, 3.030e+002
527.109, 3.100e+002
528.434, 3.020e+002
529.758, 3.050e+002
531.083, 2.950e+002
532.407, 3.050e+002
533.731, 2.920e+002
535.055, 3.050e+002
536.378, 3.100e+002
537.701, 3.040e+002
539.025, 3.030e+002
540.348, 3.150e+002
541.670, 3.090e+002
542.993, 3.070e+002
544.315, 3.070e+002
545.637, 3.110e+002
546.959, 3.130e+002
548.281, 3.160e+002
549.602, 3.160e+002
550.923, 3.120e+002
552.244, 3.180e+002
553.565, 3.160e+002
554.886, 3.190e+002
556.206, 3.210e+002
557.526, 3.270e+002
558.846, 3.380e+002
560.166, 3.490e+002
561.486, 3.540e+002
562.805, 3.420e+002
564.124, 3.410e+002
565.443, 3.330e+002
566.762, 3.240e+002
568.080, 3.370e+002
569.399, 3.300e+002
570.717, 3.250e+002
572.035, 3.370e+002
573.352, 3.310e+002
574.670, 3.290e+002
575.987, 3.170e+002
577.304, 3.340e+002
578.621, 3.360e+002
579.938, 3.310e+002
581.254, 3.370e+002
582.570, 3.320e+002
583.886, 3.410e+002
585.202, 3.420e+002
586.518, 3.630e+002
587.833, 3.550e+002
589.148, 3.610e+002
590.463, 3.750e+002
591.778, 3.880e+002
593.093, 3.860e+002
594.407, 4.060e+002
595.721, 4.360e+002
597.035, 4.460e+002
598.349, 4.790e+002
599.662, 5.510e+002
600.976, 6.040e+002
602.289, 7.200e+002
603.602, 8.870e+002
604.914, 1.150e+003
606.227, 1.487e+003
607.539, 1.879e+003
608.851, 2.119e+003
610.163, 2.076e+003
611.475, 1.696e+003
612.786, 1.355e+003
614.097, 1.060e+003
615.408, 8.270e+002
616.719, 7.110e+002
618.030, 6.230e+002
619.340, 5.700e+002
620.651, 5.510e+002
621.961, 5.280e+002
623.270, 5.490e+002
624.580, 5.780e+002
625.889, 6.180e+002
627.199, 6.200e+002
628.507, 5.860e+002
629.816, 5.240e+002
631.125, 4.780e+002
632.433, 4.410e+002
633.741, 4.220e+002
635.049, 4.100e+002
636.357, 3.950e+002
637.664, 3.870e+002
638.972, 3.760e+002
640.279, 3.710e+002
641.586, 3.750e+002
642.893, 3.750e+002
644.199, 3.580e+002
645.505, 3.670e+002
646.811, 3.660e+002
648.117, 3.630e+002
649.423, 3.640e+002
650.728, 3.600e+002
652.034, 3.440e+002
653.339, 3.470e+002
654.644, 3.440e+002
655.948, 3.430e+002
657.253, 3.430e+002
658.557, 3.470e+002
659.861, 3.430e+002
661.165, 3.390e+002
662.468, 3.390e+002
663.772, 3.370e+002
665.075, 3.370e+002
666.378, 3.350e+002
667.681, 3.490e+002
668.983, 3.420e+002
670.286, 3.440e+002
671.588, 3.420e+002
672.890, 3.440e+002
674.192, 3.370e+002
675.493, 3.500e+002
676.795, 3.390e+002
678.096, 3.360e+002
679.397, 3.430e+002
680.697, 3.380e+002
681.998, 3.300e+002
683.298, 3.310e+002
684.598, 3.350e+002
685.898, 3.320e+002
687.198, 3.370e+002
688.498, 3.290e+002
689.797, 3.310e+002
691.096, 3.370e+002
692.395, 3.340e+002
693.694, 3.330e+002
694.992, 3.240e+002
696.290, 3.400e+002
697.589, 3.340e+002
698.886, 3.240e+002
700.184, 3.340e+002
701.482, 3.310e+002
702.779, 3.340e+002
704.076, 3.280e+002
705.373, 3.310e+002
706.669, 3.310e+002
707.966, 3.340e+002
709.262, 3.330e+002
710.558, 3.310e+002
711.854, 3.180e+002
713.150, 3.240e+002
714.445, 3.430e+002
715.740, 3.360e+002
717.035, 3.310e+002
718.330, 3.270e+002
719.625, 3.370e+002
720.919, 3.300e+002
722.214, 3.350e+002
723.508, 3.280e+002
724.801, 3.370e+002
726.095, 3.350e+002
727.388, 3.270e+002
728.682, 3.300e+002
729.975, 3.330e+002
731.267, 3.340e+002
732.560, 3.390e+002
733.852, 3.350e+002
735.145, 3.360e+002
736.437, 3.340e+002
737.728, 3.260e+002
739.020, 3.410e+002
740.311, 3.350e+002
741.603, 3.430e+002
742.894, 3.400e+002
744.184, 3.430e+002
745.475, 3.480e+002
746.765, 3.380e+002
748.055, 3.350e+002
749.345, 3.420e+002
750.635, 3.290e+002
751.925, 3.470e+002
753.214, 3.380e+002
754.503, 3.330e+002
755.792, 3.350e+002
757.081, 3.420e+002
758.370, 3.400e+002
759.658, 3.410e+002
760.946, 3.350e+002
762.234, 3.400e+002
763.522, 3.400e+002
764.809, 3.430e+002
766.097, 3.550e+002
767.384, 3.540e+002
768.671, 3.510e+002
769.958, 3.560e+002
771.244, 3.660e+002
772.530, 3.640e+002
773.817, 3.670e+002
775.102, 3.570e+002
776.388, 3.570e+002
777.674, 3.510e+002
778.959, 3.470e+002
780.244, 3.500e+002
781.529, 3.510e+002
782.814, 3.490e+002
784.098, 3.380e+002
785.383, 3.490e+002
786.667, 3.480e+002
787.951, 3.450e+002
789.235, 3.370e+002
790.518, 3.440e+002
791.801, 3.380e+002
793.084, 3.510e+002
794.367, 3.470e+002
795.650, 3.510e+002
796.933, 3.510e+002
798.215, 3.530e+002
799.497, 3.440e+002
800.779, 3.510e+002
802.061, 3.540e+002
803.342, 3.550e+002
804.624, 3.470e+002
805.905, 3.480e+002
807.186, 3.600e+002
808.466, 3.550e+002
809.747, 3.490e+002
811.027, 3.460e+002
812.307, 3.530e+002
813.587, 3.580e+002
814.867, 3.550e+002
816.146, 3.560e+002
817.426, 3.520e+002
818.705, 3.610e+002
819.984, 3.510e+002
821.263, 3.630e+002
822.541, 3.490e+002
823.819, 3.440e+002
825.098, 3.590e+002
826.375, 3.560e+002
827.653, 3.520e+002
828.931, 3.480e+002
830.208, 3.690e+002
831.485, 3.540e+002
832.762, 3.640e+002
834.039, 3.570e+002
835.315, 3.630e+002
836.592, 3.670e+002
837.868, 3.590e+002
839.144, 3.630e+002
840.420, 3.660e+002
841.695, 3.610e+002
842.970, 3.560e+002
844.246, 3.600e+002
845.521, 3.740e+002
846.795, 3.630e+002
848.070, 3.690e+002
849.344, 3.600e+002
850.618, 3.770e+002
851.892, 3.650e+002
853.166, 3.750e+002
854.440, 3.730e+002
855.713, 3.760e+002
856.986, 3.780e+002
858.259, 3.780e+002
859.532, 3.830e+002
860.804, 3.930e+002
862.077, 3.940e+002
863.349, 3.770e+002
864.621, 3.940e+002
865.893, 3.930e+002
867.164, 3.870e+002
868.436, 3.930e+002
869.707, 3.970e+002
870.978, 3.850e+002
872.248, 3.940e+002
873.519, 3.890e+002
874.789, 3.910e+002
876.060, 3.850e+002
877.330, 3.960e+002
878.599, 3.880e+002
879.869, 3.820e+002
881.138, 3.850e+002
882.408, 3.930e+002
883.677, 3.810e+002
884.945, 3.840e+002
886.214, 3.820e+002
887.482, 3.900e+002
888.751, 3.810e+002
890.019, 3.960e+002
891.287, 4.000e+002
892.554, 4.140e+002
893.822, 4.140e+002
895.089, 4.210e+002
896.356, 4.200e+002
897.623, 4.280e+002
898.889, 4.040e+002
900.156, 4.150e+002
901.422, 4.180e+002
902.688, 4.100e+002
903.954, 3.950e+002
905.220, 4.020e+002
906.485, 3.780e+002
907.750, 3.960e+002
909.015, 4.090e+002
910.280, 4.010e+002
911.545, 3.920e+002
912.809, 3.900e+002
914.074, 3.860e+002
915.338, 3.920e+002
916.602, 3.930e+002
917.865, 3.950e+002
919.129, 3.910e+002
920.392, 4.040e+002
921.655, 3.900e+002
922.918, 3.920e+002
924.181, 3.850e+002
925.443, 3.810e+002
926.706, 3.900e+002
927.968, 3.810e+002
929.230, 3.750e+002
930.491, 3.840e+002
931.753, 3.800e+002
933.014, 3.780e+002
934.276, 3.810e+002
935.536, 3.840e+002
936.797, 3.820e+002
938.058, 3.850e+002
939.318, 3.890e+002
940.578, 3.840e+002
941.838, 4.030e+002
943.098, 3.970e+002
944.358, 3.960e+002
945.617, 4.010e+002
946.876, 4.070e+002
948.135, 4.160e+002
949.394, 4.060e+002
950.653, 4.070e+002
951.911, 4.010e+002
953.169, 4.020e+002
954.427, 4.100e+002
955.685, 4.020e+002
956.943, 3.900e+002
958.200, 4.060e+002
959.458, 3.970e+002
960.715, 4.010e+002
961.971, 3.980e+002
963.228, 4.020e+002
964.485, 4.050e+002
965.741, 4.140e+002
966.997, 4.230e+002
968.253, 4.450e+002
969.508, 4.730e+002
970.764, 4.840e+002
972.019, 5.210e+002
973.274, 5.190e+002
974.529, 5.000e+002
975.784, 4.560e+002
977.039, 4.450e+002
978.293, 4.180e+002
979.547, 4.270e+002
980.801, 4.110e+002
982.055, 4.180e+002
983.308, 4.120e+002
984.562, 4.120e+002
985.815, 4.030e+002
987.068, 4.120e+002
988.321, 4.010e+002
989.573, 4.270e+002
990.826, 4.140e+002
992.078, 4.130e+002
993.330, 4.240e+002
994.582, 4.300e+002
995.833, 4.180e+002
997.085, 4.230e+002
998.336, 4.160e+002
999.587, 4.110e+002
1000.838, 4.320e+002
1002.088, 4.260e+002
1003.339, 4.330e+002
1004.589, 4.120e+002
1005.839, 4.050e+002
1007.089, 4.030e+002
1008.339, 4.070e+002
1009.588, 4.040e+002
1010.838, 4.040e+002
1012.087, 3.910e+002
1013.336, 3.810e+002
1014.584, 3.970e+002
1015.833, 3.890e+002
1017.081, 4.070e+002
1018.330, 4.030e+002
1019.577, 3.900e+002
1020.825, 4.010e+002
1022.073, 4.130e+002
1023.320, 4.060e+002
1024.567, 4.030e+002
1025.814, 4.050e+002
1027.061, 4.070e+002
1028.308, 3.950e+002
1029.554, 4.050e+002
1030.800, 3.980e+002
1032.046, 3.930e+002
1033.292, 3.990e+002
1034.538, 4.140e+002
1035.783, 3.990e+002
1037.029, 4.070e+002
1038.274, 4.260e+002
1039.519, 4.250e+002
1040.763, 4.200e+002
1042.008, 4.230e+002
1043.252, 4.170e+002
1044.496, 4.010e+002
1045.740, 4.070e+002
1046.984, 3.990e+002
1048.228, 4.010e+002
1049.471, 4.060e+002
1050.714, 3.940e+002
1051.957, 4.040e+002
1053.200, 3.970e+002
1054.442, 4.130e+002
1055.685, 4.050e+002
1056.927, 4.000e+002
1058.169, 4.000e+002
1059.411, 4.010e+002
1060.652, 3.980e+002
1061.894, 3.960e+002
1063.135, 4.090e+002
1064.376, 4.070e+002
1065.617, 4.140e+002
1066.858, 4.060e+002
1068.098, 4.050e+002
1069.339, 4.130e+002
1070.579, 3.990e+002
1071.819, 4.000e+002
1073.058, 4.150e+002
1074.298, 4.100e+002
1075.537, 4.050e+002
1076.776, 4.110e+002
1078.015, 4.070e+002
1079.254, 4.190e+002
1080.493, 4.200e+002
1081.731, 4.220e+002
1082.969, 4.200e+002
1084.207, 4.240e+002
1085.445, 4.240e+002
1086.683, 4.240e+002
1087.920, 4.320e+002
1089.157, 4.200e+002
1090.394, 4.280e+002
1091.631, 4.340e+002
1092.868, 4.280e+002
1094.105, 4.360e+002
1095.341, 4.420e+002
1096.577, 4.430e+002
1097.813, 4.620e+002
1099.049, 4.670e+002
1100.284, 4.860e+002
1101.519, 4.960e+002
1102.755, 4.960e+002
1103.990, 5.070e+002
1105.224, 5.180e+002
1106.459, 5.190e+002
1107.693, 5.080e+002
1108.928, 4.990e+002
1110.162, 5.020e+002
1111.395, 4.930e+002
1112.629, 4.550e+002
1113.863, 4.760e+002
1115.096, 4.630e+002
1116.329, 4.680e+002
1117.562, 4.410e+002
1118.795, 4.410e+002
1120.027, 4.480e+002
1121.259, 4.460e+002
1122.492, 4.350e+002
1123.723, 4.340e+002
1124.955, 4.320e+002
1126.187, 4.320e+002
1127.418, 4.360e+002
1128.649, 4.160e+002
1129.880, 4.240e+002
1131.111, 4.230e+002
1132.342, 4.190e+002
1133.572, 4.120e+002
1134.802, 4.220e+002
1136.033, 4.230e+002
1137.262, 4.160e+002
1138.492, 4.050e+002
1139.722, 4.150e+002
1140.951, 4.120e+002
1142.180, 4.140e+002
1143.409, 4.110e+002
1144.638, 4.120e+002
1145.866, 4.080e+002
1147.095, 4.100e+002
1148.323, 4.060e+002
1149.551, 4.220e+002
1150.779, 4.150e+002
1152.006, 4.130e+002
1153.234, 4.050e+002
1154.461, 4.070e+002
1155.688, 4.240e+002
1156.915, 4.110e+002
1158.141, 4.170e+002
1159.368, 4.090e+002
1160.594, 4.020e+002
1161.820, 4.170e+002
1163.046, 4.030e+002
1164.272, 4.190e+002
1165.498, 4.270e+002
1166.723, 4.350e+002
1167.948, 4.210e+002
1169.173, 4.140e+002
1170.398, 4.100e+002
1171.623, 4.130e+002
1172.847, 4.250e+002
1174.071, 4.180e+002
1175.295, 4.150e+002
1176.519, 4.140e+002
1177.743, 4.070e+002
1178.966, 4.210e+002
1180.190, 4.250e+002
1181.413, 4.130e+002
1182.636, 4.150e+002
1183.858, 4.150e+002
1185.081, 4.290e+002
1186.303, 4.040e+002
1187.526, 4.140e+002
1188.748, 4.270e+002
1189.969, 4.090e+002
1191.191, 4.140e+002
1192.412, 4.200e+002
1193.634, 4.200e+002
1194.855, 4.210e+002
1196.076, 4.220e+002
1197.296, 4.180e+002
1198.517, 4.270e+002
1199.737, 4.190e+002
1200.957, 4.170e+002
1202.177, 4.180e+002
1203.397, 4.140e+002
1204.617, 4.180e+002
1205.836, 4.090e+002
1207.055, 4.260e+002
1208.274, 4.230e+002
1209.493, 4.070e+002
1210.712, 4.330e+002
1211.930, 4.180e+002
1213.148, 4.260e+002
1214.367, 4.300e+002
1215.584, 4.290e+002
1216.802, 4.350e+002
1218.020, 4.290e+002
1219.237, 4.170e+002
1220.454, 4.310e+002
1221.671, 4.140e+002
1222.888, 4.250e+002
1224.105, 4.220e+002
1225.321, 4.330e+002
1226.537, 4.160e+002
1227.753, 4.280e+002
1228.969, 4.270e+002
1230.185, 4.220e+002
1231.400, 4.260e+002
1232.616, 4.210e+002
1233.831, 4.320e+002
1235.046, 4.310e+002
1236.261, 4.360e+002
1237.475, 4.380e+002
1238.689, 4.400e+002
1239.904, 4.320e+002
1241.118, 4.370e+002
1242.332, 4.320e+002
1243.545, 4.250e+002
1244.759, 4.330e+002
1245.972, 4.300e+002
1247.185, 4.240e+002
1248.398, 4.290e+002
1249.611, 4.250e+002
1250.823, 4.320e+002
1252.036, 4.330e+002
1253.248, 4.300e+002
1254.460, 4.380e+002
1255.671, 4.280e+002
1256.883, 4.340e+002
1258.095, 4.300e+002
1259.306, 4.340e+002
1260.517, 4.350e+002
1261.728, 4.330e+002
1262.938, 4.360e+002
1264.149, 4.410e+002
1265.359, 4.380e+002
1266.569, 4.450e+002
1267.779, 4.380e+002
1268.989, 4.320e+002
1270.199, 4.430e+002
1271.408, 4.440e+002
1272.617, 4.350e+002
1273.826, 4.320e+002
1275.035, 4.370e+002
1276.244, 4.220e+002
1277.452, 4.400e+002
1278.661, 4.360e+002
1279.869, 4.380e+002
1281.077, 4.350e+002
1282.285, 4.340e+002
1283.492, 4.330e+002
1284.700, 4.360e+002
1285.907, 4.270e+002
1287.114, 4.250e+002
1288.321, 4.320e+002
1289.527, 4.420e+002
1290.734, 4.460e+002
1291.940, 4.350e+002
1293.146, 4.330e+002
1294.352, 4.350e+002
1295.558, 4.370e+002
1296.763, 4.340e+002
1297.969, 4.460e+002
1299.174, 4.320e+002
1300.379, 4.360e+002
1301.584, 4.270e+002
1302.788, 4.390e+002
1303.993, 4.400e+002
1305.197, 4.300e+002
1306.401, 4.390e+002
1307.605, 4.450e+002
1308.809, 4.340e+002
1310.013, 4.500e+002
1311.216, 4.410e+002
1312.419, 4.480e+002
1313.622, 4.440e+002
1314.825, 4.480e+002
1316.028, 4.540e+002
1317.230, 4.450e+002
1318.432, 4.590e+002
1319.634, 4.460e+002
1320.836, 4.560e+002
1322.038, 4.430e+002
1323.240, 4.490e+002
1324.441, 4.500e+002
1325.642, 4.440e+002
1326.843, 4.560e+002
1328.044, 4.510e+002
1329.245, 4.540e+002
1330.445, 4.420e+002
1331.645, 4.420e+002
1332.845, 4.500e+002
1334.045, 4.520e+002
1335.245, 4.450e+002
1336.445, 4.390e+002
1337.644, 4.420e+002
1338.843, 4.450e+002
1340.042, 4.510e+002
1341.241, 4.430e+002
1342.440, 4.500e+002
1343.638, 4.520e+002
1344.836, 4.570e+002
1346.034, 4.460e+002
1347.232, 4.440e+002
1348.430, 4.510e+002
1349.628, 4.370e+002
1350.825, 4.320e+002
1352.022, 4.570e+002
1353.219, 4.440e+002
1354.416, 4.480e+002
1355.613, 4.350e+002
1356.809, 4.520e+002
1358.005, 4.450e+002
1359.202, 4.510e+002
1360.398, 4.490e+002
1361.593, 4.390e+002
1362.789, 4.430e+002
1363.984, 4.340e+002
1365.179, 4.550e+002
1366.374, 4.570e+002
1367.569, 4.550e+002
1368.764, 4.480e+002
1369.958, 4.490e+002
1371.153, 4.430e+002
1372.347, 4.620e+002
1373.541, 4.610e+002
1374.735, 4.340e+002
1375.928, 4.510e+002
1377.122, 4.620e+002
1378.315, 4.550e+002
1379.508, 4.580e+002
1380.701, 4.490e+002
1381.893, 4.580e+002
1383.086, 4.530e+002
1384.278, 4.550e+002
1385.470, 4.600e+002
1386.662, 4.390e+002
1387.854, 4.550e+002
1389.046, 4.570e+002
1390.237, 4.560e+002
1391.428, 4.610e+002
1392.619, 4.610e+002
1393.810, 4.570e+002
1395.001, 4.480e+002
1396.191, 4.510e+002
1397.382, 4.570e+002
1398.572, 4.440e+002
1399.762, 4.560e+002
1400.952, 4.550e+002
1402.141, 4.550e+002
1403.331, 4.630e+002
1404.520, 4.570e+002
1405.709, 4.700e+002
1406.898, 4.600e+002
1408.087, 4.630e+002
1409.275, 4.520e+002
1410.464, 4.510e+002
1411.652, 4.580e+002
1412.840, 4.650e+002
1414.028, 4.580e+002
1415.215, 4.650e+002
1416.403, 4.530e+002
1417.590, 4.700e+002
1418.777, 4.700e+002
1419.964, 4.600e+002
1421.151, 4.660e+002
1422.338, 4.700e+002
1423.524, 4.620e+002
1424.710, 4.600e+002
1425.896, 4.730e+002
1427.082, 4.810e+002
1428.268, 4.680e+002
1429.453, 4.740e+002
1430.639, 4.740e+002
1431.824, 4.660e+002
1433.009, 4.650e+002
1434.194, 4.870e+002
1435.378, 4.740e+002
1436.563, 4.750e+002
1437.747, 4.960e+002
1438.931, 4.930e+002
1440.115, 4.970e+002
1441.299, 4.960e+002
1442.482, 4.960e+002
1443.666, 5.080e+002
1444.849, 5.020e+002
1446.032, 5.100e+002
1447.215, 4.950e+002
1448.397, 5.080e+002
1449.580, 5.010e+002
1450.762, 5.110e+002
1451.944, 5.060e+002
1453.126, 5.080e+002
1454.308, 5.080e+002
1455.490, 5.060e+002
1456.671, 5.040e+002
1457.852, 5.010e+002
1459.033, 5.110e+002
1460.214, 5.170e+002
1461.395, 5.120e+002
1462.575, 4.930e+002
1463.756, 4.890e+002
1464.936, 4.930e+002
1466.116, 4.970e+002
1467.296, 4.920e+002
1468.475, 4.930e+002
1469.655, 4.910e+002
1470.834, 5.020e+002
1472.013, 4.920e+002
1473.192, 4.910e+002
1474.371, 4.950e+002
1475.550, 4.870e+002
1476.728, 4.860e+002
1477.906, 4.950e+002
1479.084, 4.920e+002
1480.262, 4.920e+002
1481.440, 4.920e+002
1482.617, 4.830e+002
1483.795, 4.870e+002
1484.972, 4.950e+002
1486.149, 4.860e+002
1487.326, 4.930e+002
1488.502, 4.920e+002
1489.679, 4.750e+002
1490.855, 4.820e+002
1492.031, 4.810e+002
1493.207, 4.790e+002
1494.383, 4.740e+002
1495.559, 4.710e+002
1496.734, 4.820e+002
1497.909, 4.870e+002
1499.084, 4.730e+002
1500.259, 4.870e+002
1501.434, 4.870e+002
1502.608, 4.640e+002
1503.783, 4.890e+002
1504.957, 1.660e+002
##END=



