##NAMES=Danburite
##RRUFFID=R040013
##IDEAL CHEMISTRY=CaB_2_Si_2_O_8_
##LOCALITY=Charcas, San Luis Potosi, Mexico
##OWNER=RRUFF
##SOURCE=Marcus Origlieri
##DESCRIPTION=Colorless prismatic single crystal
##STATUS=The identification of this mineral has been confirmed by X-ray diffraction and chemical analysis
##URL=rruff.info/R040013
##MEASURED CHEMISTRY=Ca_1.00_B_2.00_Si_2.00_O_8_
##PIN_ID=M00010
##ORIENTATION=Laser parallel to a* (1 0 0). Fiducial mark perpendicular to laser is parallel to b [0 1 0]
26.288, 1.019e+003
27.694, 1.000e+003
29.099, 9.890e+002
30.504, 9.640e+002
31.909, 9.710e+002
33.313, 9.630e+002
34.717, 9.390e+002
36.121, 9.340e+002
37.525, 8.830e+002
38.929, 8.960e+002
40.332, 8.690e+002
41.735, 8.530e+002
43.138, 8.320e+002
44.541, 8.400e+002
45.943, 8.520e+002
47.345, 8.290e+002
48.747, 8.060e+002
50.149, 8.070e+002
51.551, 8.000e+002
52.952, 7.780e+002
54.353, 8.130e+002
55.754, 8.510e+002
57.155, 8.320e+002
58.555, 8.380e+002
59.955, 8.410e+002
61.355, 8.610e+002
62.755, 8.260e+002
64.154, 8.540e+002
65.553, 8.500e+002
66.952, 8.540e+002
68.351, 8.350e+002
69.750, 8.660e+002
71.148, 8.810e+002
72.546, 8.740e+002
73.944, 8.730e+002
75.342, 8.240e+002
76.739, 7.890e+002
78.136, 7.610e+002
79.533, 7.740e+002
80.930, 7.680e+002
82.327, 7.540e+002
83.723, 7.420e+002
85.119, 7.180e+002
86.515, 7.510e+002
87.910, 7.460e+002
89.306, 7.570e+002
90.701, 7.830e+002
92.096, 8.060e+002
93.490, 8.350e+002
94.885, 8.460e+002
96.279, 8.760e+002
97.673, 8.960e+002
99.067, 9.420e+002
100.461, 9.540e+002
101.854, 9.410e+002
103.247, 9.970e+002
104.640, 1.061e+003
106.032, 1.096e+003
107.425, 1.152e+003
108.817, 1.318e+003
110.209, 1.987e+003
111.601, 3.486e+003
112.992, 2.142e+003
114.384, 1.698e+003
115.775, 1.452e+003
117.166, 1.484e+003
118.556, 1.573e+003
119.947, 1.805e+003
121.337, 2.089e+003
122.727, 2.215e+003
124.116, 2.003e+003
125.506, 1.731e+003
126.895, 1.551e+003
128.284, 1.446e+003
129.673, 1.386e+003
131.062, 1.349e+003
132.450, 1.348e+003
133.838, 1.388e+003
135.226, 1.430e+003
136.614, 1.502e+003
138.001, 1.513e+003
139.388, 1.424e+003
140.775, 1.346e+003
142.162, 1.325e+003
143.549, 1.308e+003
144.935, 1.332e+003
146.321, 1.385e+003
147.707, 1.456e+003
149.093, 1.621e+003
150.478, 1.646e+003
151.863, 1.557e+003
153.248, 1.460e+003
154.633, 1.398e+003
156.018, 1.382e+003
157.402, 1.429e+003
158.786, 1.474e+003
160.170, 1.658e+003
161.554, 1.868e+003
162.937, 2.310e+003
164.320, 2.530e+003
165.703, 2.396e+003
167.086, 2.065e+003
168.469, 1.948e+003
169.851, 2.082e+003
171.233, 2.310e+003
172.615, 2.858e+003
173.996, 4.033e+003
175.378, 6.654e+003
176.759, 9.616e+003
178.140, 1.568e+004
179.521, 2.257e+004
180.901, 2.444e+004
182.281, 1.849e+004
183.662, 1.068e+004
185.041, 6.225e+003
186.421, 4.126e+003
187.800, 3.297e+003
189.180, 3.134e+003
190.558, 3.132e+003
191.937, 2.991e+003
193.316, 2.549e+003
194.694, 2.127e+003
196.072, 1.912e+003
197.450, 1.932e+003
198.827, 1.944e+003
200.205, 2.158e+003
201.582, 2.434e+003
202.959, 2.548e+003
204.336, 2.539e+003
205.712, 2.570e+003
207.088, 2.968e+003
208.465, 3.390e+003
209.840, 3.443e+003
211.216, 2.961e+003
212.591, 2.311e+003
213.967, 1.877e+003
215.341, 1.685e+003
216.716, 1.596e+003
218.091, 1.505e+003
219.465, 1.556e+003
220.839, 1.635e+003
222.213, 1.810e+003
223.586, 2.128e+003
224.960, 2.397e+003
226.333, 2.209e+003
227.706, 1.835e+003
229.079, 1.639e+003
230.451, 1.605e+003
231.823, 1.601e+003
233.195, 1.627e+003
234.567, 1.764e+003
235.939, 1.947e+003
237.310, 2.280e+003
238.682, 2.973e+003
240.052, 4.230e+003
241.423, 5.894e+003
242.794, 7.787e+003
244.164, 8.038e+003
245.534, 6.798e+003
246.904, 5.291e+003
248.274, 3.742e+003
249.643, 2.870e+003
251.012, 2.358e+003
252.381, 2.160e+003
253.750, 1.963e+003
255.118, 1.836e+003
256.487, 1.745e+003
257.855, 1.692e+003
259.223, 1.657e+003
260.590, 1.595e+003
261.958, 1.571e+003
263.325, 1.540e+003
264.692, 1.529e+003
266.059, 1.505e+003
267.425, 1.501e+003
268.791, 1.496e+003
270.158, 1.493e+003
271.523, 1.508e+003
272.889, 1.517e+003
274.255, 1.583e+003
275.620, 1.620e+003
276.985, 1.594e+003
278.350, 1.565e+003
279.714, 1.536e+003
281.078, 1.486e+003
282.443, 1.477e+003
283.806, 1.508e+003
285.170, 1.544e+003
286.534, 1.590e+003
287.897, 1.691e+003
289.260, 1.867e+003
290.623, 2.053e+003
291.985, 2.406e+003
293.348, 2.537e+003
294.710, 2.521e+003
296.072, 2.214e+003
297.433, 2.025e+003
298.795, 1.863e+003
300.156, 1.869e+003
301.517, 1.921e+003
302.878, 2.083e+003
304.239, 2.377e+003
305.599, 2.639e+003
306.959, 3.137e+003
308.319, 3.793e+003
309.679, 4.446e+003
311.038, 4.704e+003
312.398, 4.388e+003
313.757, 3.703e+003
315.116, 2.994e+003
316.474, 2.498e+003
317.833, 2.193e+003
319.191, 1.998e+003
320.549, 1.835e+003
321.907, 1.784e+003
323.264, 1.754e+003
324.622, 1.731e+003
325.979, 1.783e+003
327.336, 1.834e+003
328.692, 1.874e+003
330.049, 1.815e+003
331.405, 1.833e+003
332.761, 1.837e+003
334.117, 1.907e+003
335.473, 2.003e+003
336.828, 2.168e+003
338.183, 2.378e+003
339.538, 2.791e+003
340.893, 3.571e+003
342.247, 4.921e+003
343.602, 6.998e+003
344.956, 9.602e+003
346.310, 1.123e+004
347.663, 1.041e+004
349.017, 7.779e+003
350.370, 5.353e+003
351.723, 3.806e+003
353.076, 3.465e+003
354.428, 2.602e+003
355.780, 2.162e+003
357.133, 2.020e+003
358.484, 1.902e+003
359.836, 1.747e+003
361.188, 1.769e+003
362.539, 1.689e+003
363.890, 1.630e+003
365.241, 1.615e+003
366.591, 1.612e+003
367.942, 1.569e+003
369.292, 1.550e+003
370.642, 1.621e+003
371.992, 1.552e+003
373.341, 1.544e+003
374.691, 1.566e+003
376.040, 1.549e+003
377.388, 1.546e+003
378.737, 1.565e+003
380.086, 1.529e+003
381.434, 1.532e+003
382.782, 1.559e+003
384.130, 1.544e+003
385.477, 1.551e+003
386.825, 1.591e+003
388.172, 1.562e+003
389.519, 1.626e+003
390.865, 1.618e+003
392.212, 1.681e+003
393.558, 1.715e+003
394.904, 1.681e+003
396.250, 1.652e+003
397.596, 1.642e+003
398.941, 1.634e+003
400.286, 1.606e+003
401.631, 1.643e+003
402.976, 1.656e+003
404.321, 1.681e+003
405.665, 1.664e+003
407.009, 1.730e+003
408.353, 1.703e+003
409.697, 1.732e+003
411.040, 1.786e+003
412.384, 1.749e+003
413.727, 1.849e+003
415.070, 1.942e+003
416.412, 2.040e+003
417.755, 2.215e+003
419.097, 2.404e+003
420.439, 2.642e+003
421.781, 2.908e+003
423.122, 2.944e+003
424.464, 2.852e+003
425.805, 2.585e+003
427.146, 2.241e+003
428.486, 2.035e+003
429.827, 1.914e+003
431.167, 1.864e+003
432.507, 1.867e+003
433.847, 1.920e+003
435.187, 2.091e+003
436.526, 2.362e+003
437.865, 2.837e+003
439.204, 3.083e+003
440.543, 3.077e+003
441.882, 2.831e+003
443.220, 2.412e+003
444.558, 2.104e+003
445.896, 1.975e+003
447.234, 1.847e+003
448.572, 1.801e+003
449.909, 1.802e+003
451.246, 1.776e+003
452.583, 1.760e+003
453.919, 1.847e+003
455.256, 1.950e+003
456.592, 2.105e+003
457.928, 2.153e+003
459.264, 2.086e+003
460.600, 2.041e+003
461.935, 1.991e+003
463.270, 1.975e+003
464.605, 1.990e+003
465.940, 2.079e+003
467.274, 2.169e+003
468.609, 2.306e+003
469.943, 2.632e+003
471.277, 3.044e+003
472.610, 3.919e+003
473.944, 5.472e+003
475.277, 8.291e+003
476.610, 1.249e+004
477.943, 1.658e+004
479.275, 1.701e+004
480.608, 1.354e+004
481.940, 9.008e+003
483.272, 5.994e+003
484.604, 4.321e+003
485.935, 3.428e+003
487.267, 2.878e+003
488.598, 2.607e+003
489.929, 2.392e+003
491.260, 2.260e+003
492.590, 2.163e+003
493.920, 2.056e+003
495.250, 2.003e+003
496.580, 1.990e+003
497.910, 1.910e+003
499.239, 1.892e+003
500.569, 1.860e+003
501.898, 1.842e+003
503.226, 1.829e+003
504.555, 1.788e+003
505.883, 1.845e+003
507.212, 1.765e+003
508.540, 1.805e+003
509.867, 1.786e+003
511.195, 1.755e+003
512.522, 1.784e+003
513.849, 1.769e+003
515.176, 1.774e+003
516.503, 1.792e+003
517.829, 1.720e+003
519.156, 1.794e+003
520.482, 1.768e+003
521.808, 1.801e+003
523.133, 1.794e+003
524.459, 1.792e+003
525.784, 1.759e+003
527.109, 1.782e+003
528.434, 1.768e+003
529.758, 1.790e+003
531.083, 1.766e+003
532.407, 1.795e+003
533.731, 1.802e+003
535.055, 1.795e+003
536.378, 1.806e+003
537.701, 1.797e+003
539.025, 1.820e+003
540.348, 1.833e+003
541.670, 1.829e+003
542.993, 1.863e+003
544.315, 1.869e+003
545.637, 1.879e+003
546.959, 1.908e+003
548.281, 1.918e+003
549.602, 1.934e+003
550.923, 1.996e+003
552.244, 2.018e+003
553.565, 2.048e+003
554.886, 2.131e+003
556.206, 2.195e+003
557.526, 2.316e+003
558.846, 2.568e+003
560.166, 2.835e+003
561.486, 3.021e+003
562.805, 2.781e+003
564.124, 2.533e+003
565.443, 2.240e+003
566.762, 2.174e+003
568.080, 2.179e+003
569.399, 2.164e+003
570.717, 2.204e+003
572.035, 2.185e+003
573.352, 2.184e+003
574.670, 2.207e+003
575.987, 2.251e+003
577.304, 2.318e+003
578.621, 2.369e+003
579.938, 2.406e+003
581.254, 2.460e+003
582.570, 2.548e+003
583.886, 2.688e+003
585.202, 2.736e+003
586.518, 2.859e+003
587.833, 3.006e+003
589.148, 3.150e+003
590.463, 3.408e+003
591.778, 3.564e+003
593.093, 3.861e+003
594.407, 4.215e+003
595.721, 4.803e+003
597.035, 5.445e+003
598.349, 6.313e+003
599.662, 7.673e+003
600.976, 9.625e+003
602.289, 1.234e+004
603.602, 1.670e+004
604.914, 2.305e+004
606.227, 3.198e+004
607.539, 3.984e+004
608.851, 4.326e+004
610.163, 4.008e+004
611.475, 3.140e+004
612.786, 2.394e+004
614.097, 1.781e+004
615.408, 1.318e+004
616.719, 1.055e+004
618.030, 8.746e+003
619.340, 7.634e+003
620.651, 6.910e+003
621.961, 6.731e+003
623.270, 7.119e+003
624.580, 7.668e+003
625.889, 8.440e+003
627.199, 8.314e+003
628.507, 7.396e+003
629.816, 6.361e+003
631.125, 5.208e+003
632.433, 4.568e+003
633.741, 3.993e+003
635.049, 3.607e+003
636.357, 3.394e+003
637.664, 3.188e+003
638.972, 3.138e+003
640.279, 2.941e+003
641.586, 2.904e+003
642.893, 3.596e+003
644.199, 2.745e+003
645.505, 2.648e+003
646.811, 2.590e+003
648.117, 2.506e+003
649.423, 2.493e+003
650.728, 2.474e+003
652.034, 2.349e+003
653.339, 2.334e+003
654.644, 2.302e+003
655.948, 2.315e+003
657.253, 2.296e+003
658.557, 2.227e+003
659.861, 2.248e+003
661.165, 2.233e+003
662.468, 2.199e+003
663.772, 2.192e+003
665.075, 2.220e+003
666.378, 2.192e+003
667.681, 2.189e+003
668.983, 2.214e+003
670.286, 2.149e+003
671.588, 2.181e+003
672.890, 2.188e+003
674.192, 2.189e+003
675.493, 2.182e+003
676.795, 2.083e+003
678.096, 2.139e+003
679.397, 2.140e+003
680.697, 2.126e+003
681.998, 2.135e+003
683.298, 2.112e+003
684.598, 2.106e+003
685.898, 2.097e+003
687.198, 2.085e+003
688.498, 2.142e+003
689.797, 2.089e+003
691.096, 2.081e+003
692.395, 2.089e+003
693.694, 2.082e+003
694.992, 2.060e+003
696.290, 2.114e+003
697.589, 2.107e+003
698.886, 2.114e+003
700.184, 2.095e+003
701.482, 2.099e+003
702.779, 2.073e+003
704.076, 2.071e+003
705.373, 2.077e+003
706.669, 2.102e+003
707.966, 2.097e+003
709.262, 2.068e+003
710.558, 2.083e+003
711.854, 2.112e+003
713.150, 2.129e+003
714.445, 2.185e+003
715.740, 2.129e+003
717.035, 2.142e+003
718.330, 2.118e+003
719.625, 2.097e+003
720.919, 2.085e+003
722.214, 2.115e+003
723.508, 2.134e+003
724.801, 2.099e+003
726.095, 2.089e+003
727.388, 2.081e+003
728.682, 2.103e+003
729.975, 2.104e+003
731.267, 2.101e+003
732.560, 2.079e+003
733.852, 2.112e+003
735.145, 2.105e+003
736.437, 2.118e+003
737.728, 2.085e+003
739.020, 2.125e+003
740.311, 2.112e+003
741.603, 2.114e+003
742.894, 2.142e+003
744.184, 2.093e+003
745.475, 2.089e+003
746.765, 2.106e+003
748.055, 2.088e+003
749.345, 2.105e+003
750.635, 2.132e+003
751.925, 2.134e+003
753.214, 2.164e+003
754.503, 2.143e+003
755.792, 2.195e+003
757.081, 2.190e+003
758.370, 2.152e+003
759.658, 2.139e+003
760.946, 2.183e+003
762.234, 2.214e+003
763.522, 2.226e+003
764.809, 2.258e+003
766.097, 2.299e+003
767.384, 2.345e+003
768.671, 2.372e+003
769.958, 2.436e+003
771.244, 2.514e+003
772.530, 2.571e+003
773.817, 2.518e+003
775.102, 2.504e+003
776.388, 2.427e+003
777.674, 2.366e+003
778.959, 2.313e+003
780.244, 2.252e+003
781.529, 2.252e+003
782.814, 2.253e+003
784.098, 2.182e+003
785.383, 2.207e+003
786.667, 2.192e+003
787.951, 2.243e+003
789.235, 2.194e+003
790.518, 2.155e+003
791.801, 2.171e+003
793.084, 2.159e+003
794.367, 2.158e+003
795.650, 2.154e+003
796.933, 2.156e+003
798.215, 2.195e+003
799.497, 2.141e+003
800.779, 2.169e+003
802.061, 2.168e+003
803.342, 2.161e+003
804.624, 2.195e+003
805.905, 2.139e+003
807.186, 2.154e+003
808.466, 2.197e+003
809.747, 2.164e+003
811.027, 2.218e+003
812.307, 2.119e+003
813.587, 2.144e+003
814.867, 2.216e+003
816.146, 2.143e+003
817.426, 2.198e+003
818.705, 2.141e+003
819.984, 2.184e+003
821.263, 2.230e+003
822.541, 2.172e+003
823.819, 2.182e+003
825.098, 2.219e+003
826.375, 2.234e+003
827.653, 2.202e+003
828.931, 2.189e+003
830.208, 2.214e+003
831.485, 2.206e+003
832.762, 2.256e+003
834.039, 2.234e+003
835.315, 2.213e+003
836.592, 2.213e+003
837.868, 2.229e+003
839.144, 2.286e+003
840.420, 2.242e+003
841.695, 2.223e+003
842.970, 2.243e+003
844.246, 2.302e+003
845.521, 2.283e+003
846.795, 2.289e+003
848.070, 2.320e+003
849.344, 2.313e+003
850.618, 2.301e+003
851.892, 2.298e+003
853.166, 2.331e+003
854.440, 2.356e+003
855.713, 2.316e+003
856.986, 2.340e+003
858.259, 2.344e+003
859.532, 2.369e+003
860.804, 2.373e+003
862.077, 2.384e+003
863.349, 2.374e+003
864.621, 2.375e+003
865.893, 2.454e+003
867.164, 2.432e+003
868.436, 2.416e+003
869.707, 2.445e+003
870.978, 2.428e+003
872.248, 2.409e+003
873.519, 2.447e+003
874.789, 2.385e+003
876.060, 2.429e+003
877.330, 2.449e+003
878.599, 2.423e+003
879.869, 2.427e+003
881.138, 2.432e+003
882.408, 2.489e+003
883.677, 2.426e+003
884.945, 2.439e+003
886.214, 2.454e+003
887.482, 2.494e+003
888.751, 2.493e+003
890.019, 2.510e+003
891.287, 2.561e+003
892.554, 2.672e+003
893.822, 2.633e+003
895.089, 2.702e+003
896.356, 2.721e+003
897.623, 2.743e+003
898.889, 2.830e+003
900.156, 2.794e+003
901.422, 2.695e+003
902.688, 2.772e+003
903.954, 2.688e+003
905.220, 2.746e+003
906.485, 2.672e+003
907.750, 2.681e+003
909.015, 2.732e+003
910.280, 2.769e+003
911.545, 2.745e+003
912.809, 2.752e+003
914.074, 2.769e+003
915.338, 2.804e+003
916.602, 2.779e+003
917.865, 2.806e+003
919.129, 2.808e+003
920.392, 2.861e+003
921.655, 2.787e+003
922.918, 2.787e+003
924.181, 2.790e+003
925.443, 2.718e+003
926.706, 2.631e+003
927.968, 2.633e+003
929.230, 2.605e+003
930.491, 2.582e+003
931.753, 2.626e+003
933.014, 2.535e+003
934.276, 2.609e+003
935.536, 2.591e+003
936.797, 2.575e+003
938.058, 2.607e+003
939.318, 2.629e+003
940.578, 2.671e+003
941.838, 2.754e+003
943.098, 2.764e+003
944.358, 2.916e+003
945.617, 2.971e+003
946.876, 2.994e+003
948.135, 3.066e+003
949.394, 3.006e+003
950.653, 2.950e+003
951.911, 2.865e+003
953.169, 2.813e+003
954.427, 2.739e+003
955.685, 2.735e+003
956.943, 2.676e+003
958.200, 2.718e+003
959.458, 2.690e+003
960.715, 2.702e+003
961.971, 2.734e+003
963.228, 2.754e+003
964.485, 2.843e+003
965.741, 2.883e+003
966.997, 3.014e+003
968.253, 3.181e+003
969.508, 3.386e+003
970.764, 3.639e+003
972.019, 3.664e+003
973.274, 3.538e+003
974.529, 3.409e+003
975.784, 3.103e+003
977.039, 3.040e+003
978.293, 2.927e+003
979.547, 2.847e+003
980.801, 2.858e+003
982.055, 2.792e+003
983.308, 2.773e+003
984.562, 2.754e+003
985.815, 2.739e+003
987.068, 2.792e+003
988.321, 2.748e+003
989.573, 2.726e+003
990.826, 2.745e+003
992.078, 2.784e+003
993.330, 2.737e+003
994.582, 2.782e+003
995.833, 2.745e+003
997.085, 2.802e+003
998.336, 2.800e+003
999.587, 2.760e+003
1000.838, 2.807e+003
1002.088, 2.754e+003
1003.339, 2.778e+003
1004.589, 2.763e+003
1005.839, 2.736e+003
1007.089, 2.777e+003
1008.339, 2.702e+003
1009.588, 2.716e+003
1010.838, 2.678e+003
1012.087, 2.674e+003
1013.336, 2.686e+003
1014.584, 2.668e+003
1015.833, 2.698e+003
1017.081, 2.682e+003
1018.330, 2.716e+003
1019.577, 2.680e+003
1020.825, 2.718e+003
1022.073, 2.735e+003
1023.320, 2.734e+003
1024.567, 2.703e+003
1025.814, 2.756e+003
1027.061, 2.720e+003
1028.308, 2.713e+003
1029.554, 2.735e+003
1030.800, 2.664e+003
1032.046, 2.748e+003
1033.292, 2.754e+003
1034.538, 2.709e+003
1035.783, 2.777e+003
1037.029, 2.736e+003
1038.274, 2.729e+003
1039.519, 2.850e+003
1040.763, 2.789e+003
1042.008, 2.800e+003
1043.252, 2.697e+003
1044.496, 2.754e+003
1045.740, 2.715e+003
1046.984, 2.685e+003
1048.228, 2.691e+003
1049.471, 2.665e+003
1050.714, 2.696e+003
1051.957, 2.698e+003
1053.200, 2.647e+003
1054.442, 2.662e+003
1055.685, 2.765e+003
1056.927, 2.685e+003
1058.169, 2.708e+003
1059.411, 2.757e+003
1060.652, 2.677e+003
1061.894, 2.764e+003
1063.135, 2.723e+003
1064.376, 2.723e+003
1065.617, 2.792e+003
1066.858, 2.726e+003
1068.098, 2.810e+003
1069.339, 2.766e+003
1070.579, 2.785e+003
1071.819, 2.811e+003
1073.058, 2.837e+003
1074.298, 2.870e+003
1075.537, 2.870e+003
1076.776, 2.861e+003
1078.015, 2.913e+003
1079.254, 2.940e+003
1080.493, 2.893e+003
1081.731, 2.976e+003
1082.969, 2.899e+003
1084.207, 3.030e+003
1085.445, 3.053e+003
1086.683, 3.104e+003
1087.920, 3.169e+003
1089.157, 3.196e+003
1090.394, 3.281e+003
1091.631, 3.358e+003
1092.868, 3.449e+003
1094.105, 3.621e+003
1095.341, 3.718e+003
1096.577, 3.767e+003
1097.813, 4.069e+003
1099.049, 4.180e+003
1100.284, 4.401e+003
1101.519, 4.686e+003
1102.755, 4.700e+003
1103.990, 4.972e+003
1105.224, 5.009e+003
1106.459, 4.969e+003
1107.693, 4.975e+003
1108.928, 4.702e+003
1110.162, 4.532e+003
1111.395, 4.335e+003
1112.629, 4.178e+003
1113.863, 4.020e+003
1115.096, 3.816e+003
1116.329, 3.719e+003
1117.562, 3.662e+003
1118.795, 3.481e+003
1120.027, 3.538e+003
1121.259, 3.454e+003
1122.492, 3.375e+003
1123.723, 3.297e+003
1124.955, 3.244e+003
1126.187, 3.109e+003
1127.418, 3.163e+003
1128.649, 3.108e+003
1129.880, 3.052e+003
1131.111, 3.006e+003
1132.342, 3.025e+003
1133.572, 3.013e+003
1134.802, 2.919e+003
1136.033, 2.946e+003
1137.262, 2.914e+003
1138.492, 2.887e+003
1139.722, 2.930e+003
1140.951, 2.880e+003
1142.180, 2.852e+003
1143.409, 2.835e+003
1144.638, 2.835e+003
1145.866, 2.812e+003
1147.095, 2.870e+003
1148.323, 2.825e+003
1149.551, 2.840e+003
1150.779, 2.788e+003
1152.006, 2.829e+003
1153.234, 2.850e+003
1154.461, 2.798e+003
1155.688, 2.801e+003
1156.915, 2.825e+003
1158.141, 2.827e+003
1159.368, 2.827e+003
1160.594, 2.813e+003
1161.820, 2.841e+003
1163.046, 2.820e+003
1164.272, 2.826e+003
1165.498, 2.843e+003
1166.723, 2.885e+003
1167.948, 2.815e+003
1169.173, 2.953e+003
1170.398, 2.934e+003
1171.623, 2.884e+003
1172.847, 2.936e+003
1174.071, 2.930e+003
1175.295, 2.923e+003
1176.519, 2.973e+003
1177.743, 2.946e+003
1178.966, 2.929e+003
1180.190, 2.893e+003
1181.413, 2.876e+003
1182.636, 2.906e+003
1183.858, 2.894e+003
1185.081, 2.860e+003
1186.303, 2.919e+003
1187.526, 2.899e+003
1188.748, 2.891e+003
1189.969, 2.888e+003
1191.191, 2.847e+003
1192.412, 2.872e+003
1193.634, 2.856e+003
1194.855, 2.875e+003
1196.076, 2.839e+003
1197.296, 2.838e+003
1198.517, 2.867e+003
1199.737, 2.832e+003
1200.957, 2.866e+003
1202.177, 2.855e+003
1203.397, 2.833e+003
1204.617, 2.872e+003
1205.836, 2.876e+003
1207.055, 2.886e+003
1208.274, 2.917e+003
1209.493, 2.893e+003
1210.712, 2.825e+003
1211.930, 2.922e+003
1213.148, 2.872e+003
1214.367, 2.850e+003
1215.584, 2.870e+003
1216.802, 2.911e+003
1218.020, 2.865e+003
1219.237, 2.856e+003
1220.454, 2.885e+003
1221.671, 2.838e+003
1222.888, 2.859e+003
1224.105, 2.892e+003
1225.321, 2.876e+003
1226.537, 2.830e+003
1227.753, 2.888e+003
1228.969, 2.913e+003
1230.185, 2.871e+003
1231.400, 2.913e+003
1232.616, 2.897e+003
1233.831, 2.892e+003
1235.046, 2.961e+003
1236.261, 2.903e+003
1237.475, 2.938e+003
1238.689, 2.980e+003
1239.904, 2.950e+003
1241.118, 2.924e+003
1242.332, 2.932e+003
1243.545, 2.943e+003
1244.759, 2.917e+003
1245.972, 2.911e+003
1247.185, 2.921e+003
1248.398, 2.980e+003
1249.611, 2.878e+003
1250.823, 2.905e+003
1252.036, 2.931e+003
1253.248, 2.922e+003
1254.460, 2.972e+003
1255.671, 2.940e+003
1256.883, 2.971e+003
1258.095, 2.999e+003
1259.306, 2.921e+003
1260.517, 2.956e+003
1261.728, 2.983e+003
1262.938, 2.921e+003
1264.149, 2.915e+003
1265.359, 2.899e+003
1266.569, 2.973e+003
1267.779, 2.940e+003
1268.989, 2.944e+003
1270.199, 2.938e+003
1271.408, 2.936e+003
1272.617, 2.964e+003
1273.826, 2.903e+003
1275.035, 2.960e+003
1276.244, 2.918e+003
1277.452, 2.963e+003
1278.661, 2.873e+003
1279.869, 2.940e+003
1281.077, 2.952e+003
1282.285, 2.922e+003
1283.492, 2.954e+003
1284.700, 2.973e+003
1285.907, 2.917e+003
1287.114, 2.933e+003
1288.321, 2.897e+003
1289.527, 2.950e+003
1290.734, 2.904e+003
1291.940, 2.924e+003
1293.146, 2.969e+003
1294.352, 2.955e+003
1295.558, 2.977e+003
1296.763, 2.980e+003
1297.969, 2.891e+003
1299.174, 2.956e+003
1300.379, 2.947e+003
1301.584, 2.937e+003
1302.788, 3.007e+003
1303.993, 2.983e+003
1305.197, 2.960e+003
1306.401, 2.973e+003
1307.605, 3.033e+003
1308.809, 2.983e+003
1310.013, 3.018e+003
1311.216, 2.988e+003
1312.419, 3.003e+003
1313.622, 2.966e+003
1314.825, 3.009e+003
1316.028, 3.038e+003
1317.230, 2.992e+003
1318.432, 3.030e+003
1319.634, 2.994e+003
1320.836, 3.068e+003
1322.038, 3.003e+003
1323.240, 3.031e+003
1324.441, 3.015e+003
1325.642, 3.086e+003
1326.843, 3.019e+003
1328.044, 3.054e+003
1329.245, 3.022e+003
1330.445, 3.025e+003
1331.645, 3.017e+003
1332.845, 3.102e+003
1334.045, 3.037e+003
1335.245, 3.025e+003
1336.445, 3.043e+003
1337.644, 3.074e+003
1338.843, 3.036e+003
1340.042, 3.050e+003
1341.241, 3.058e+003
1342.440, 3.127e+003
1343.638, 3.108e+003
1344.836, 3.017e+003
1346.034, 3.092e+003
1347.232, 3.070e+003
1348.430, 3.091e+003
1349.628, 3.085e+003
1350.825, 3.026e+003
1352.022, 3.136e+003
1353.219, 3.034e+003
1354.416, 3.136e+003
1355.613, 3.112e+003
1356.809, 3.058e+003
1358.005, 3.122e+003
1359.202, 3.143e+003
1360.398, 3.047e+003
1361.593, 3.149e+003
1362.789, 3.148e+003
1363.984, 3.121e+003
1365.179, 3.156e+003
1366.374, 3.131e+003
1367.569, 3.112e+003
1368.764, 3.127e+003
1369.958, 3.127e+003
1371.153, 3.105e+003
1372.347, 3.118e+003
1373.541, 3.107e+003
1374.735, 3.178e+003
1375.928, 3.154e+003
1377.122, 3.167e+003
1378.315, 3.204e+003
1379.508, 3.180e+003
1380.701, 3.164e+003
1381.893, 3.196e+003
1383.086, 3.180e+003
1384.278, 3.149e+003
1385.470, 3.196e+003
1386.662, 3.160e+003
1387.854, 3.177e+003
1389.046, 3.186e+003
1390.237, 3.195e+003
1391.428, 3.193e+003
1392.619, 3.139e+003
1393.810, 3.223e+003
1395.001, 3.228e+003
1396.191, 3.197e+003
1397.382, 3.221e+003
1398.572, 3.168e+003
1399.762, 3.177e+003
1400.952, 3.210e+003
1402.141, 3.243e+003
1403.331, 3.243e+003
1404.520, 3.263e+003
1405.709, 3.194e+003
1406.898, 3.259e+003
1408.087, 3.278e+003
1409.275, 3.233e+003
1410.464, 3.204e+003
1411.652, 3.279e+003
1412.840, 3.235e+003
1414.028, 3.307e+003
1415.215, 3.266e+003
1416.403, 3.256e+003
1417.590, 3.288e+003
1418.777, 3.257e+003
1419.964, 3.275e+003
1421.151, 3.310e+003
1422.338, 3.328e+003
1423.524, 3.261e+003
1424.710, 3.311e+003
1425.896, 3.306e+003
1427.082, 3.319e+003
1428.268, 3.318e+003
1429.453, 3.269e+003
1430.639, 3.364e+003
1431.824, 3.354e+003
1433.009, 3.380e+003
1434.194, 3.367e+003
1435.378, 3.383e+003
1436.563, 3.355e+003
1437.747, 3.442e+003
1438.931, 3.350e+003
1440.115, 3.407e+003
1441.299, 3.400e+003
1442.482, 3.436e+003
1443.666, 3.411e+003
1444.849, 3.451e+003
1446.032, 3.437e+003
1447.215, 3.421e+003
1448.397, 3.424e+003
1449.580, 3.468e+003
1450.762, 3.489e+003
1451.944, 3.468e+003
1453.126, 3.470e+003
1454.308, 3.485e+003
1455.490, 3.481e+003
1456.671, 3.487e+003
1457.852, 3.467e+003
1459.033, 3.510e+003
1460.214, 3.473e+003
1461.395, 3.506e+003
1462.575, 3.420e+003
1463.756, 3.529e+003
1464.936, 3.447e+003
1466.116, 3.497e+003
1467.296, 3.463e+003
1468.475, 3.449e+003
1469.655, 3.404e+003
1470.834, 3.423e+003
1472.013, 3.405e+003
1473.192, 3.507e+003
1474.371, 3.411e+003
1475.550, 3.416e+003
1476.728, 3.393e+003
1477.906, 3.501e+003
1479.084, 3.390e+003
1480.262, 3.440e+003
1481.440, 3.360e+003
1482.617, 3.458e+003
1483.795, 3.485e+003
1484.972, 3.432e+003
1486.149, 3.448e+003
1487.326, 3.408e+003
1488.502, 3.511e+003
1489.679, 3.473e+003
1490.855, 3.432e+003
1492.031, 3.422e+003
1493.207, 3.408e+003
1494.383, 3.464e+003
1495.559, 3.441e+003
1496.734, 3.517e+003
1497.909, 3.473e+003
1499.084, 3.407e+003
1500.259, 3.421e+003
1501.434, 3.452e+003
1502.608, 3.419e+003
1503.783, 3.568e+003
1504.957, 1.710e+002
##END=



