##NAMES=Danburite
##RRUFFID=R040013
##IDEAL CHEMISTRY=CaB_2_Si_2_O_8_
##LOCALITY=Charcas, San Luis Potosi, Mexico
##OWNER=RRUFF
##SOURCE=Marcus Origlieri
##DESCRIPTION=Colorless prismatic single crystal
##STATUS=The identification of this mineral has been confirmed by X-ray diffraction and chemical analysis
##URL=rruff.info/R040013
##MEASURED CHEMISTRY=Ca_1.00_B_2.00_Si_2.00_O_8_
##PIN_ID=M00012
##ORIENTATION=Laser parallel to c* (0 0 1). Fiducial mark perpendicular to laser is parallel to a [1 0 0]
26.288, 1.598e+003
27.694, 1.586e+003
29.099, 1.548e+003
30.504, 1.563e+003
31.909, 1.531e+003
33.313, 1.553e+003
34.717, 1.542e+003
36.121, 1.501e+003
37.525, 1.541e+003
38.929, 1.529e+003
40.332, 1.527e+003
41.735, 1.507e+003
43.138, 1.501e+003
44.541, 1.456e+003
45.943, 1.459e+003
47.345, 1.448e+003
48.747, 1.432e+003
50.149, 1.379e+003
51.551, 1.404e+003
52.952, 1.438e+003
54.353, 1.417e+003
55.754, 1.406e+003
57.155, 1.479e+003
58.555, 1.472e+003
59.955, 1.509e+003
61.355, 1.470e+003
62.755, 1.419e+003
64.154, 1.373e+003
65.553, 1.262e+003
66.952, 1.225e+003
68.351, 1.200e+003
69.750, 1.188e+003
71.148, 1.150e+003
72.546, 1.124e+003
73.944, 1.083e+003
75.342, 1.078e+003
76.739, 1.055e+003
78.136, 1.053e+003
79.533, 1.059e+003
80.930, 1.065e+003
82.327, 1.077e+003
83.723, 1.091e+003
85.119, 1.106e+003
86.515, 1.176e+003
87.910, 1.225e+003
89.306, 1.290e+003
90.701, 1.336e+003
92.096, 1.446e+003
93.490, 1.507e+003
94.885, 1.646e+003
96.279, 1.728e+003
97.673, 1.847e+003
99.067, 1.961e+003
100.461, 1.973e+003
101.854, 2.093e+003
103.247, 2.158e+003
104.640, 2.296e+003
106.032, 2.290e+003
107.425, 2.448e+003
108.817, 2.496e+003
110.209, 2.647e+003
111.601, 3.797e+003
112.992, 6.595e+003
114.384, 3.926e+003
115.775, 3.649e+003
117.166, 4.133e+003
118.556, 4.002e+003
119.947, 4.110e+003
121.337, 5.307e+003
122.727, 7.195e+003
124.116, 9.273e+003
125.506, 9.410e+003
126.895, 1.022e+004
128.284, 1.237e+004
129.673, 1.237e+004
131.062, 9.718e+003
132.450, 6.562e+003
133.838, 5.012e+003
135.226, 4.254e+003
136.614, 4.295e+003
138.001, 4.584e+003
139.388, 4.585e+003
140.775, 4.074e+003
142.162, 3.434e+003
143.549, 3.065e+003
144.935, 2.820e+003
146.321, 2.737e+003
147.707, 2.665e+003
149.093, 2.602e+003
150.478, 2.604e+003
151.863, 2.540e+003
153.248, 2.619e+003
154.633, 2.653e+003
156.018, 2.731e+003
157.402, 2.794e+003
158.786, 3.109e+003
160.170, 3.934e+003
161.554, 4.594e+003
162.937, 7.059e+003
164.320, 1.178e+004
165.703, 1.452e+004
167.086, 1.157e+004
168.469, 7.079e+003
169.851, 4.798e+003
171.233, 3.679e+003
172.615, 3.108e+003
173.996, 2.824e+003
175.378, 2.684e+003
176.759, 2.653e+003
178.140, 2.605e+003
179.521, 2.775e+003
180.901, 2.743e+003
182.281, 2.824e+003
183.662, 2.782e+003
185.041, 2.844e+003
186.421, 3.018e+003
187.800, 3.326e+003
189.180, 3.911e+003
190.558, 4.342e+003
191.937, 4.210e+003
193.316, 3.642e+003
194.694, 3.139e+003
196.072, 2.887e+003
197.450, 2.685e+003
198.827, 2.696e+003
200.205, 2.672e+003
201.582, 2.711e+003
202.959, 2.769e+003
204.336, 2.849e+003
205.712, 3.011e+003
207.088, 3.176e+003
208.465, 3.569e+003
209.840, 4.040e+003
211.216, 4.321e+003
212.591, 3.931e+003
213.967, 3.373e+003
215.341, 3.051e+003
216.716, 2.838e+003
218.091, 2.658e+003
219.465, 2.649e+003
220.839, 2.571e+003
222.213, 2.549e+003
223.586, 2.541e+003
224.960, 2.578e+003
226.333, 2.530e+003
227.706, 2.583e+003
229.079, 2.565e+003
230.451, 2.586e+003
231.823, 2.619e+003
233.195, 2.661e+003
234.567, 2.786e+003
235.939, 2.866e+003
237.310, 3.118e+003
238.682, 3.412e+003
240.052, 4.022e+003
241.423, 5.079e+003
242.794, 6.612e+003
244.164, 8.532e+003
245.534, 9.110e+003
246.904, 7.915e+003
248.274, 6.350e+003
249.643, 5.022e+003
251.012, 4.324e+003
252.381, 3.783e+003
253.750, 3.543e+003
255.118, 3.367e+003
256.487, 3.179e+003
257.855, 3.136e+003
259.223, 3.001e+003
260.590, 2.949e+003
261.958, 2.906e+003
263.325, 2.812e+003
264.692, 2.775e+003
266.059, 2.707e+003
267.425, 2.810e+003
268.791, 2.800e+003
270.158, 2.855e+003
271.523, 2.886e+003
272.889, 3.006e+003
274.255, 3.264e+003
275.620, 3.604e+003
276.985, 4.033e+003
278.350, 3.965e+003
279.714, 3.663e+003
281.078, 3.271e+003
282.443, 3.025e+003
283.806, 2.887e+003
285.170, 2.727e+003
286.534, 2.714e+003
287.897, 2.605e+003
289.260, 2.678e+003
290.623, 2.638e+003
291.985, 2.620e+003
293.348, 2.647e+003
294.710, 2.689e+003
296.072, 2.700e+003
297.433, 2.721e+003
298.795, 2.747e+003
300.156, 2.772e+003
301.517, 2.906e+003
302.878, 3.036e+003
304.239, 3.184e+003
305.599, 3.532e+003
306.959, 3.852e+003
308.319, 4.446e+003
309.679, 5.334e+003
311.038, 5.746e+003
312.398, 5.922e+003
313.757, 5.377e+003
315.116, 4.720e+003
316.474, 4.139e+003
317.833, 3.634e+003
319.191, 3.345e+003
320.549, 3.092e+003
321.907, 3.010e+003
323.264, 2.975e+003
324.622, 2.901e+003
325.979, 2.890e+003
327.336, 2.862e+003
328.692, 2.949e+003
330.049, 2.924e+003
331.405, 2.982e+003
332.761, 3.030e+003
334.117, 3.108e+003
335.473, 3.193e+003
336.828, 3.252e+003
338.183, 3.534e+003
339.538, 3.833e+003
340.893, 4.475e+003
342.247, 5.719e+003
343.602, 7.436e+003
344.956, 1.061e+004
346.310, 1.409e+004
347.663, 1.631e+004
349.017, 1.486e+004
350.370, 1.141e+004
351.723, 8.507e+003
353.076, 6.343e+003
354.428, 5.191e+003
355.780, 4.334e+003
357.133, 3.982e+003
358.484, 3.540e+003
359.836, 3.383e+003
361.188, 3.306e+003
362.539, 3.129e+003
363.890, 3.105e+003
365.241, 3.029e+003
366.591, 3.013e+003
367.942, 2.964e+003
369.292, 2.924e+003
370.642, 2.852e+003
371.992, 2.893e+003
373.341, 2.796e+003
374.691, 2.835e+003
376.040, 2.826e+003
377.388, 2.840e+003
378.737, 2.791e+003
380.086, 2.892e+003
381.434, 2.822e+003
382.782, 2.795e+003
384.130, 2.847e+003
385.477, 2.852e+003
386.825, 2.806e+003
388.172, 2.801e+003
389.519, 2.847e+003
390.865, 2.881e+003
392.212, 2.812e+003
393.558, 2.852e+003
394.904, 2.872e+003
396.250, 2.875e+003
397.596, 2.872e+003
398.941, 2.888e+003
400.286, 2.980e+003
401.631, 2.945e+003
402.976, 3.073e+003
404.321, 3.188e+003
405.665, 3.302e+003
407.009, 3.334e+003
408.353, 3.132e+003
409.697, 3.126e+003
411.040, 3.022e+003
412.384, 3.020e+003
413.727, 3.125e+003
415.070, 3.125e+003
416.412, 3.284e+003
417.755, 3.355e+003
419.097, 3.563e+003
420.439, 3.785e+003
421.781, 4.135e+003
423.122, 4.487e+003
424.464, 4.529e+003
425.805, 4.571e+003
427.146, 4.127e+003
428.486, 3.750e+003
429.827, 3.518e+003
431.167, 3.329e+003
432.507, 3.195e+003
433.847, 3.055e+003
435.187, 3.054e+003
436.526, 3.042e+003
437.865, 3.033e+003
439.204, 3.138e+003
440.543, 3.215e+003
441.882, 3.262e+003
443.220, 3.198e+003
444.558, 3.091e+003
445.896, 3.072e+003
447.234, 2.999e+003
448.572, 2.980e+003
449.909, 2.964e+003
451.246, 2.971e+003
452.583, 2.978e+003
453.919, 2.985e+003
455.256, 3.053e+003
456.592, 3.157e+003
457.928, 3.211e+003
459.264, 3.357e+003
460.600, 3.378e+003
461.935, 3.410e+003
463.270, 3.374e+003
464.605, 3.330e+003
465.940, 3.259e+003
467.274, 3.194e+003
468.609, 3.280e+003
469.943, 3.310e+003
471.277, 3.433e+003
472.610, 3.619e+003
473.944, 4.038e+003
475.277, 4.771e+003
476.610, 5.888e+003
477.943, 7.656e+003
479.275, 9.031e+003
480.608, 8.858e+003
481.940, 7.448e+003
483.272, 5.692e+003
484.604, 4.661e+003
485.935, 4.085e+003
487.267, 3.784e+003
488.598, 3.462e+003
489.929, 3.290e+003
491.260, 3.255e+003
492.590, 3.126e+003
493.920, 3.146e+003
495.250, 3.033e+003
496.580, 3.098e+003
497.910, 3.084e+003
499.239, 3.060e+003
500.569, 2.966e+003
501.898, 3.038e+003
503.226, 3.025e+003
504.555, 3.052e+003
505.883, 3.012e+003
507.212, 3.008e+003
508.540, 3.001e+003
509.867, 3.022e+003
511.195, 3.078e+003
512.522, 3.038e+003
513.849, 3.087e+003
515.176, 3.058e+003
516.503, 3.049e+003
517.829, 3.075e+003
519.156, 3.072e+003
520.482, 3.076e+003
521.808, 3.031e+003
523.133, 3.101e+003
524.459, 3.085e+003
525.784, 3.143e+003
527.109, 3.128e+003
528.434, 3.087e+003
529.758, 3.138e+003
531.083, 3.063e+003
532.407, 3.098e+003
533.731, 3.169e+003
535.055, 3.129e+003
536.378, 3.124e+003
537.701, 3.104e+003
539.025, 3.142e+003
540.348, 3.200e+003
541.670, 3.177e+003
542.993, 3.184e+003
544.315, 3.146e+003
545.637, 3.197e+003
546.959, 3.218e+003
548.281, 3.197e+003
549.602, 3.216e+003
550.923, 3.270e+003
552.244, 3.244e+003
553.565, 3.289e+003
554.886, 3.356e+003
556.206, 3.359e+003
557.526, 3.464e+003
558.846, 3.625e+003
560.166, 3.844e+003
561.486, 4.213e+003
562.805, 4.377e+003
564.124, 4.218e+003
565.443, 4.107e+003
566.762, 3.805e+003
568.080, 3.740e+003
569.399, 3.691e+003
570.717, 3.639e+003
572.035, 3.665e+003
573.352, 3.658e+003
574.670, 3.691e+003
575.987, 3.710e+003
577.304, 3.772e+003
578.621, 3.812e+003
579.938, 3.854e+003
581.254, 4.005e+003
582.570, 4.040e+003
583.886, 4.137e+003
585.202, 4.246e+003
586.518, 4.272e+003
587.833, 4.459e+003
589.148, 4.597e+003
590.463, 4.690e+003
591.778, 4.946e+003
593.093, 5.127e+003
594.407, 5.455e+003
595.721, 5.818e+003
597.035, 6.337e+003
598.349, 7.094e+003
599.662, 7.987e+003
600.976, 9.456e+003
602.289, 1.126e+004
603.602, 1.434e+004
604.914, 1.889e+004
606.227, 2.515e+004
607.539, 3.397e+004
608.851, 4.069e+004
610.163, 4.320e+004
611.475, 3.920e+004
612.786, 3.222e+004
614.097, 2.553e+004
615.408, 1.917e+004
616.719, 1.521e+004
618.030, 1.237e+004
619.340, 1.020e+004
620.651, 9.064e+003
621.961, 8.143e+003
623.270, 7.726e+003
624.580, 7.535e+003
625.889, 7.646e+003
627.199, 7.861e+003
628.507, 7.497e+003
629.816, 7.121e+003
631.125, 6.449e+003
632.433, 5.872e+003
633.741, 5.620e+003
635.049, 5.159e+003
636.357, 5.056e+003
637.664, 4.864e+003
638.972, 4.692e+003
640.279, 4.659e+003
641.586, 4.511e+003
642.893, 4.518e+003
644.199, 4.461e+003
645.505, 4.372e+003
646.811, 4.381e+003
648.117, 4.265e+003
649.423, 4.257e+003
650.728, 4.236e+003
652.034, 4.172e+003
653.339, 4.160e+003
654.644, 4.025e+003
655.948, 3.991e+003
657.253, 3.863e+003
658.557, 3.885e+003
659.861, 3.893e+003
661.165, 3.818e+003
662.468, 3.788e+003
663.772, 3.751e+003
665.075, 3.768e+003
666.378, 3.740e+003
667.681, 3.674e+003
668.983, 3.671e+003
670.286, 3.650e+003
671.588, 3.697e+003
672.890, 3.686e+003
674.192, 3.615e+003
675.493, 3.636e+003
676.795, 3.640e+003
678.096, 3.587e+003
679.397, 3.630e+003
680.697, 3.622e+003
681.998, 3.597e+003
683.298, 3.638e+003
684.598, 3.593e+003
685.898, 3.650e+003
687.198, 3.586e+003
688.498, 3.674e+003
689.797, 3.553e+003
691.096, 3.606e+003
692.395, 3.578e+003
693.694, 3.616e+003
694.992, 3.618e+003
696.290, 3.622e+003
697.589, 3.592e+003
698.886, 3.676e+003
700.184, 3.621e+003
701.482, 3.601e+003
702.779, 3.650e+003
704.076, 3.590e+003
705.373, 3.590e+003
706.669, 3.616e+003
707.966, 3.660e+003
709.262, 3.668e+003
710.558, 3.625e+003
711.854, 3.669e+003
713.150, 3.638e+003
714.445, 3.668e+003
715.740, 3.656e+003
717.035, 3.673e+003
718.330, 3.665e+003
719.625, 3.712e+003
720.919, 3.635e+003
722.214, 3.645e+003
723.508, 3.663e+003
724.801, 3.733e+003
726.095, 3.701e+003
727.388, 3.747e+003
728.682, 3.684e+003
729.975, 3.759e+003
731.267, 3.762e+003
732.560, 3.692e+003
733.852, 3.746e+003
735.145, 3.686e+003
736.437, 3.771e+003
737.728, 3.777e+003
739.020, 3.766e+003
740.311, 3.739e+003
741.603, 3.724e+003
742.894, 3.757e+003
744.184, 3.813e+003
745.475, 3.782e+003
746.765, 3.819e+003
748.055, 3.836e+003
749.345, 3.767e+003
750.635, 3.881e+003
751.925, 3.876e+003
753.214, 3.874e+003
754.503, 3.890e+003
755.792, 3.855e+003
757.081, 3.852e+003
758.370, 3.820e+003
759.658, 3.867e+003
760.946, 3.887e+003
762.234, 3.889e+003
763.522, 3.893e+003
764.809, 3.837e+003
766.097, 3.898e+003
767.384, 3.927e+003
768.671, 3.912e+003
769.958, 3.960e+003
771.244, 3.971e+003
772.530, 4.016e+003
773.817, 4.067e+003
775.102, 4.014e+003
776.388, 4.052e+003
777.674, 3.972e+003
778.959, 3.959e+003
780.244, 3.921e+003
781.529, 3.916e+003
782.814, 3.970e+003
784.098, 3.950e+003
785.383, 3.948e+003
786.667, 3.939e+003
787.951, 3.936e+003
789.235, 4.002e+003
790.518, 3.974e+003
791.801, 3.979e+003
793.084, 4.025e+003
794.367, 3.983e+003
795.650, 4.035e+003
796.933, 3.951e+003
798.215, 3.982e+003
799.497, 3.999e+003
800.779, 3.931e+003
802.061, 3.963e+003
803.342, 3.977e+003
804.624, 3.973e+003
805.905, 3.973e+003
807.186, 4.004e+003
808.466, 3.986e+003
809.747, 4.026e+003
811.027, 3.984e+003
812.307, 4.010e+003
813.587, 4.002e+003
814.867, 3.996e+003
816.146, 4.070e+003
817.426, 4.068e+003
818.705, 4.062e+003
819.984, 4.062e+003
821.263, 4.047e+003
822.541, 4.093e+003
823.819, 4.033e+003
825.098, 4.094e+003
826.375, 4.105e+003
827.653, 4.078e+003
828.931, 4.150e+003
830.208, 4.056e+003
831.485, 4.168e+003
832.762, 4.120e+003
834.039, 4.128e+003
835.315, 4.118e+003
836.592, 4.131e+003
837.868, 4.193e+003
839.144, 4.232e+003
840.420, 4.167e+003
841.695, 4.226e+003
842.970, 4.206e+003
844.246, 4.276e+003
845.521, 4.347e+003
846.795, 4.304e+003
848.070, 4.354e+003
849.344, 4.369e+003
850.618, 4.353e+003
851.892, 4.462e+003
853.166, 4.414e+003
854.440, 4.477e+003
855.713, 4.486e+003
856.986, 4.508e+003
858.259, 4.670e+003
859.532, 4.625e+003
860.804, 4.618e+003
862.077, 4.633e+003
863.349, 4.506e+003
864.621, 4.667e+003
865.893, 4.444e+003
867.164, 4.499e+003
868.436, 4.428e+003
869.707, 4.403e+003
870.978, 4.476e+003
872.248, 4.423e+003
873.519, 4.537e+003
874.789, 4.530e+003
876.060, 4.490e+003
877.330, 4.478e+003
878.599, 4.511e+003
879.869, 4.508e+003
881.138, 4.497e+003
882.408, 4.499e+003
883.677, 4.501e+003
884.945, 4.529e+003
886.214, 4.564e+003
887.482, 4.593e+003
888.751, 4.549e+003
890.019, 4.614e+003
891.287, 4.665e+003
892.554, 4.644e+003
893.822, 4.730e+003
895.089, 4.726e+003
896.356, 4.806e+003
897.623, 4.946e+003
898.889, 4.870e+003
900.156, 5.103e+003
901.422, 5.021e+003
902.688, 5.135e+003
903.954, 5.234e+003
905.220, 5.180e+003
906.485, 5.274e+003
907.750, 5.281e+003
909.015, 5.299e+003
910.280, 5.470e+003
911.545, 5.393e+003
912.809, 5.583e+003
914.074, 5.638e+003
915.338, 5.717e+003
916.602, 5.771e+003
917.865, 5.625e+003
919.129, 5.608e+003
920.392, 5.405e+003
921.655, 5.207e+003
922.918, 5.209e+003
924.181, 5.086e+003
925.443, 5.019e+003
926.706, 5.042e+003
927.968, 4.959e+003
929.230, 5.075e+003
930.491, 5.063e+003
931.753, 5.041e+003
933.014, 5.218e+003
934.276, 5.169e+003
935.536, 5.272e+003
936.797, 5.428e+003
938.058, 5.489e+003
939.318, 5.785e+003
940.578, 5.888e+003
941.838, 6.283e+003
943.098, 6.654e+003
944.358, 7.010e+003
945.617, 7.498e+003
946.876, 7.761e+003
948.135, 7.910e+003
949.394, 7.786e+003
950.653, 7.496e+003
951.911, 7.138e+003
953.169, 6.743e+003
954.427, 6.429e+003
955.685, 6.177e+003
956.943, 5.897e+003
958.200, 5.825e+003
959.458, 5.857e+003
960.715, 5.731e+003
961.971, 5.840e+003
963.228, 5.917e+003
964.485, 6.007e+003
965.741, 6.338e+003
966.997, 6.568e+003
968.253, 7.482e+003
969.508, 7.991e+003
970.764, 8.993e+003
972.019, 9.822e+003
973.274, 1.017e+004
974.529, 9.822e+003
975.784, 9.159e+003
977.039, 8.337e+003
978.293, 7.782e+003
979.547, 7.076e+003
980.801, 6.746e+003
982.055, 6.449e+003
983.308, 6.171e+003
984.562, 6.102e+003
985.815, 5.968e+003
987.068, 5.819e+003
988.321, 5.710e+003
989.573, 5.647e+003
990.826, 5.596e+003
992.078, 5.647e+003
993.330, 5.531e+003
994.582, 5.613e+003
995.833, 5.578e+003
997.085, 5.693e+003
998.336, 5.884e+003
999.587, 6.004e+003
1000.838, 6.491e+003
1002.088, 6.624e+003
1003.339, 6.794e+003
1004.589, 7.202e+003
1005.839, 7.664e+003
1007.089, 8.472e+003
1008.339, 8.833e+003
1009.588, 8.505e+003
1010.838, 7.876e+003
1012.087, 7.042e+003
1013.336, 6.530e+003
1014.584, 6.161e+003
1015.833, 5.791e+003
1017.081, 5.825e+003
1018.330, 5.717e+003
1019.577, 5.578e+003
1020.825, 5.770e+003
1022.073, 5.659e+003
1023.320, 5.726e+003
1024.567, 5.808e+003
1025.814, 5.751e+003
1027.061, 5.814e+003
1028.308, 5.763e+003
1029.554, 5.617e+003
1030.800, 5.624e+003
1032.046, 5.516e+003
1033.292, 5.442e+003
1034.538, 5.312e+003
1035.783, 5.169e+003
1037.029, 5.238e+003
1038.274, 5.062e+003
1039.519, 5.166e+003
1040.763, 5.098e+003
1042.008, 5.012e+003
1043.252, 5.045e+003
1044.496, 5.019e+003
1045.740, 5.012e+003
1046.984, 5.044e+003
1048.228, 5.007e+003
1049.471, 5.026e+003
1050.714, 5.033e+003
1051.957, 4.976e+003
1053.200, 5.158e+003
1054.442, 5.052e+003
1055.685, 5.071e+003
1056.927, 5.066e+003
1058.169, 5.071e+003
1059.411, 5.075e+003
1060.652, 5.121e+003
1061.894, 5.123e+003
1063.135, 5.053e+003
1064.376, 5.036e+003
1065.617, 5.136e+003
1066.858, 5.145e+003
1068.098, 5.139e+003
1069.339, 5.232e+003
1070.579, 5.134e+003
1071.819, 5.241e+003
1073.058, 5.330e+003
1074.298, 5.249e+003
1075.537, 5.466e+003
1076.776, 5.543e+003
1078.015, 5.566e+003
1079.254, 5.684e+003
1080.493, 5.579e+003
1081.731, 5.647e+003
1082.969, 5.719e+003
1084.207, 5.630e+003
1085.445, 5.627e+003
1086.683, 5.618e+003
1087.920, 5.514e+003
1089.157, 5.593e+003
1090.394, 5.556e+003
1091.631, 5.689e+003
1092.868, 5.761e+003
1094.105, 5.694e+003
1095.341, 5.898e+003
1096.577, 5.945e+003
1097.813, 6.016e+003
1099.049, 6.238e+003
1100.284, 6.259e+003
1101.519, 6.417e+003
1102.755, 6.593e+003
1103.990, 6.650e+003
1105.224, 6.896e+003
1106.459, 6.907e+003
1107.693, 6.818e+003
1108.928, 6.894e+003
1110.162, 6.605e+003
1111.395, 6.657e+003
1112.629, 6.405e+003
1113.863, 6.197e+003
1115.096, 6.137e+003
1116.329, 5.968e+003
1117.562, 5.882e+003
1118.795, 5.838e+003
1120.027, 5.720e+003
1121.259, 5.766e+003
1122.492, 5.715e+003
1123.723, 5.647e+003
1124.955, 5.605e+003
1126.187, 5.508e+003
1127.418, 5.534e+003
1128.649, 5.452e+003
1129.880, 5.348e+003
1131.111, 5.475e+003
1132.342, 5.394e+003
1133.572, 5.374e+003
1134.802, 5.385e+003
1136.033, 5.288e+003
1137.262, 5.313e+003
1138.492, 5.353e+003
1139.722, 5.264e+003
1140.951, 5.268e+003
1142.180, 5.281e+003
1143.409, 5.193e+003
1144.638, 5.293e+003
1145.866, 5.217e+003
1147.095, 5.187e+003
1148.323, 5.305e+003
1149.551, 5.248e+003
1150.779, 5.266e+003
1152.006, 5.261e+003
1153.234, 5.286e+003
1154.461, 5.296e+003
1155.688, 5.295e+003
1156.915, 5.340e+003
1158.141, 5.367e+003
1159.368, 5.368e+003
1160.594, 7.650e+003
1161.820, 5.481e+003
1163.046, 5.462e+003
1164.272, 5.538e+003
1165.498, 5.552e+003
1166.723, 5.645e+003
1167.948, 5.698e+003
1169.173, 5.782e+003
1170.398, 5.988e+003
1171.623, 6.003e+003
1172.847, 6.098e+003
1174.071, 6.194e+003
1175.295, 6.093e+003
1176.519, 6.100e+003
1177.743, 6.084e+003
1178.966, 5.935e+003
1180.190, 5.984e+003
1181.413, 5.822e+003
1182.636, 5.754e+003
1183.858, 5.762e+003
1185.081, 5.643e+003
1186.303, 5.671e+003
1187.526, 5.555e+003
1188.748, 5.577e+003
1189.969, 5.667e+003
1191.191, 5.542e+003
1192.412, 5.428e+003
1193.634, 5.506e+003
1194.855, 5.400e+003
1196.076, 5.488e+003
1197.296, 5.483e+003
1198.517, 5.461e+003
1199.737, 5.473e+003
1200.957, 5.425e+003
1202.177, 5.521e+003
1203.397, 5.473e+003
1204.617, 5.384e+003
1205.836, 5.408e+003
1207.055, 5.393e+003
1208.274, 5.420e+003
1209.493, 5.450e+003
1210.712, 5.435e+003
1211.930, 5.428e+003
1213.148, 5.566e+003
1214.367, 5.494e+003
1215.584, 5.547e+003
1216.802, 5.558e+003
1218.020, 5.513e+003
1219.237, 5.477e+003
1220.454, 5.452e+003
1221.671, 5.444e+003
1222.888, 5.507e+003
1224.105, 5.478e+003
1225.321, 5.506e+003
1226.537, 5.494e+003
1227.753, 5.512e+003
1228.969, 5.502e+003
1230.185, 5.530e+003
1231.400, 5.511e+003
1232.616, 5.624e+003
1233.831, 5.514e+003
1235.046, 5.571e+003
1236.261, 5.647e+003
1237.475, 5.465e+003
1238.689, 5.650e+003
1239.904, 5.630e+003
1241.118, 5.590e+003
1242.332, 5.664e+003
1243.545, 5.583e+003
1244.759, 5.610e+003
1245.972, 5.679e+003
1247.185, 5.589e+003
1248.398, 5.684e+003
1249.611, 5.658e+003
1250.823, 5.606e+003
1252.036, 5.620e+003
1253.248, 5.551e+003
1254.460, 5.625e+003
1255.671, 5.698e+003
1256.883, 5.580e+003
1258.095, 5.679e+003
1259.306, 5.734e+003
1260.517, 5.698e+003
1261.728, 5.827e+003
1262.938, 5.710e+003
1264.149, 5.649e+003
1265.359, 5.844e+003
1266.569, 5.691e+003
1267.779, 5.799e+003
1268.989, 5.717e+003
1270.199, 5.721e+003
1271.408, 5.821e+003
1272.617, 5.832e+003
1273.826, 5.764e+003
1275.035, 5.861e+003
1276.244, 5.720e+003
1277.452, 5.814e+003
1278.661, 5.736e+003
1279.869, 5.683e+003
1281.077, 5.726e+003
1282.285, 5.732e+003
1283.492, 5.624e+003
1284.700, 5.720e+003
1285.907, 5.659e+003
1287.114, 5.740e+003
1288.321, 5.715e+003
1289.527, 5.650e+003
1290.734, 5.746e+003
1291.940, 5.792e+003
1293.146, 5.784e+003
1294.352, 5.848e+003
1295.558, 5.706e+003
1296.763, 5.796e+003
1297.969, 5.815e+003
1299.174, 5.686e+003
1300.379, 5.806e+003
1301.584, 5.803e+003
1302.788, 5.719e+003
1303.993, 5.815e+003
1305.197, 5.716e+003
1306.401, 5.807e+003
1307.605, 5.913e+003
1308.809, 5.853e+003
1310.013, 5.937e+003
1311.216, 5.996e+003
1312.419, 5.870e+003
1313.622, 5.939e+003
1314.825, 6.001e+003
1316.028, 5.888e+003
1317.230, 6.013e+003
1318.432, 5.981e+003
1319.634, 5.936e+003
1320.836, 6.054e+003
1322.038, 5.892e+003
1323.240, 5.932e+003
1324.441, 5.940e+003
1325.642, 5.828e+003
1326.843, 5.914e+003
1328.044, 5.880e+003
1329.245, 5.826e+003
1330.445, 5.869e+003
1331.645, 5.764e+003
1332.845, 5.835e+003
1334.045, 5.854e+003
1335.245, 5.708e+003
1336.445, 5.816e+003
1337.644, 5.799e+003
1338.843, 5.729e+003
1340.042, 5.857e+003
1341.241, 5.813e+003
1342.440, 5.798e+003
1343.638, 5.854e+003
1344.836, 5.811e+003
1346.034, 5.862e+003
1347.232, 5.894e+003
1348.430, 5.818e+003
1349.628, 5.892e+003
1350.825, 5.801e+003
1352.022, 5.814e+003
1353.219, 5.944e+003
1354.416, 5.819e+003
1355.613, 5.901e+003
1356.809, 5.877e+003
1358.005, 5.818e+003
1359.202, 5.890e+003
1360.398, 5.862e+003
1361.593, 5.872e+003
1362.789, 5.909e+003
1363.984, 5.864e+003
1365.179, 5.916e+003
1366.374, 5.973e+003
1367.569, 5.896e+003
1368.764, 5.888e+003
1369.958, 5.985e+003
1371.153, 5.919e+003
1372.347, 5.990e+003
1373.541, 5.960e+003
1374.735, 5.957e+003
1375.928, 6.001e+003
1377.122, 5.995e+003
1378.315, 5.996e+003
1379.508, 6.130e+003
1380.701, 6.050e+003
1381.893, 5.990e+003
1383.086, 6.121e+003
1384.278, 6.013e+003
1385.470, 6.162e+003
1386.662, 6.074e+003
1387.854, 6.038e+003
1389.046, 6.069e+003
1390.237, 5.972e+003
1391.428, 6.050e+003
1392.619, 6.155e+003
1393.810, 6.056e+003
1395.001, 6.080e+003
1396.191, 6.081e+003
1397.382, 6.036e+003
1398.572, 6.106e+003
1399.762, 6.093e+003
1400.952, 6.052e+003
1402.141, 6.113e+003
1403.331, 5.969e+003
1404.520, 6.131e+003
1405.709, 6.163e+003
1406.898, 6.060e+003
1408.087, 6.114e+003
1409.275, 6.130e+003
1410.464, 6.043e+003
1411.652, 6.229e+003
1412.840, 6.185e+003
1414.028, 6.077e+003
1415.215, 6.293e+003
1416.403, 6.136e+003
1417.590, 6.210e+003
1418.777, 6.289e+003
1419.964, 6.150e+003
1421.151, 6.205e+003
1422.338, 6.268e+003
1423.524, 6.248e+003
1424.710, 6.317e+003
1425.896, 6.316e+003
1427.082, 6.350e+003
1428.268, 6.393e+003
1429.453, 6.314e+003
1430.639, 6.398e+003
1431.824, 6.412e+003
1433.009, 6.360e+003
1434.194, 6.530e+003
1435.378, 6.570e+003
1436.563, 6.524e+003
1437.747, 6.709e+003
1438.931, 6.672e+003
1440.115, 6.762e+003
1441.299, 7.042e+003
1442.482, 6.822e+003
1443.666, 6.951e+003
1444.849, 7.036e+003
1446.032, 7.005e+003
1447.215, 7.214e+003
1448.397, 7.172e+003
1449.580, 7.065e+003
1450.762, 7.303e+003
1451.944, 7.202e+003
1453.126, 7.081e+003
1454.308, 7.293e+003
1455.490, 7.211e+003
1456.671, 7.124e+003
1457.852, 7.224e+003
1459.033, 7.052e+003
1460.214, 7.173e+003
1461.395, 7.101e+003
1462.575, 7.005e+003
1463.756, 7.094e+003
1464.936, 6.974e+003
1466.116, 6.871e+003
1467.296, 6.876e+003
1468.475, 6.787e+003
1469.655, 6.810e+003
1470.834, 6.797e+003
1472.013, 6.727e+003
1473.192, 6.830e+003
1474.371, 6.763e+003
1475.550, 6.771e+003
1476.728, 6.740e+003
1477.906, 6.707e+003
1479.084, 6.635e+003
1480.262, 6.825e+003
1481.440, 6.671e+003
1482.617, 6.724e+003
1483.795, 6.774e+003
1484.972, 6.707e+003
1486.149, 6.642e+003
1487.326, 6.663e+003
1488.502, 6.641e+003
1489.679, 6.586e+003
1490.855, 6.613e+003
1492.031, 6.586e+003
1493.207, 6.633e+003
1494.383, 6.546e+003
1495.559, 6.493e+003
1496.734, 6.564e+003
1497.909, 6.651e+003
1499.084, 6.538e+003
1500.259, 6.586e+003
1501.434, 6.563e+003
1502.608, 6.585e+003
1503.783, 6.863e+003
1504.957, 1.960e+002
##END=



