##NAMES=Danburite
##RRUFFID=R040013
##IDEAL CHEMISTRY=CaB_2_Si_2_O_8_
##LOCALITY=Charcas, San Luis Potosi, Mexico
##OWNER=RRUFF
##SOURCE=Marcus Origlieri
##DESCRIPTION=Colorless prismatic single crystal
##STATUS=The identification of this mineral has been confirmed by X-ray diffraction and chemical analysis
##URL=rruff.info/R040013
##MEASURED CHEMISTRY=Ca_1.00_B_2.00_Si_2.00_O_8_
##PIN_ID=M00009
##ORIENTATION=Laser parallel to b* (0 1 0). Fiducial mark perpendicular to laser is parallel to -c [0 0 -1]
26.288, 1.402e+003
27.694, 1.383e+003
29.099, 1.326e+003
30.504, 1.348e+003
31.909, 1.356e+003
33.313, 1.340e+003
34.717, 1.325e+003
36.121, 1.354e+003
37.525, 1.330e+003
38.929, 1.353e+003
40.332, 1.354e+003
41.735, 1.375e+003
43.138, 1.346e+003
44.541, 1.337e+003
45.943, 1.296e+003
47.345, 1.311e+003
48.747, 1.319e+003
50.149, 1.300e+003
51.551, 1.290e+003
52.952, 1.265e+003
54.353, 1.262e+003
55.754, 1.293e+003
57.155, 1.270e+003
58.555, 1.264e+003
59.955, 1.207e+003
61.355, 1.196e+003
62.755, 1.165e+003
64.154, 1.113e+003
65.553, 1.086e+003
66.952, 1.075e+003
68.351, 1.051e+003
69.750, 1.030e+003
71.148, 1.012e+003
72.546, 9.960e+002
73.944, 9.940e+002
75.342, 1.008e+003
76.739, 9.740e+002
78.136, 9.960e+002
79.533, 1.009e+003
80.930, 1.079e+003
82.327, 1.097e+003
83.723, 1.118e+003
85.119, 1.225e+003
86.515, 1.292e+003
87.910, 1.432e+003
89.306, 1.480e+003
90.701, 1.664e+003
92.096, 1.768e+003
93.490, 1.932e+003
94.885, 2.143e+003
96.279, 2.266e+003
97.673, 2.550e+003
99.067, 2.612e+003
100.461, 2.785e+003
101.854, 2.913e+003
103.247, 2.959e+003
104.640, 3.157e+003
106.032, 3.168e+003
107.425, 3.341e+003
108.817, 3.489e+003
110.209, 3.988e+003
111.601, 5.428e+003
112.992, 6.013e+003
114.384, 5.497e+003
115.775, 4.806e+003
117.166, 4.769e+003
118.556, 5.264e+003
119.947, 6.604e+003
121.337, 9.113e+003
122.727, 1.175e+004
124.116, 1.161e+004
125.506, 8.400e+003
126.895, 5.970e+003
128.284, 4.521e+003
129.673, 3.895e+003
131.062, 3.604e+003
132.450, 3.427e+003
133.838, 3.374e+003
135.226, 3.268e+003
136.614, 3.281e+003
138.001, 3.259e+003
139.388, 3.223e+003
140.775, 3.163e+003
142.162, 3.164e+003
143.549, 3.134e+003
144.935, 3.116e+003
146.321, 3.099e+003
147.707, 3.072e+003
149.093, 3.108e+003
150.478, 3.033e+003
151.863, 3.108e+003
153.248, 3.122e+003
154.633, 3.051e+003
156.018, 3.126e+003
157.402, 3.231e+003
158.786, 3.470e+003
160.170, 3.823e+003
161.554, 4.201e+003
162.937, 5.736e+003
164.320, 7.410e+003
165.703, 7.133e+003
167.086, 5.303e+003
168.469, 4.026e+003
169.851, 3.571e+003
171.233, 3.356e+003
172.615, 3.397e+003
173.996, 3.430e+003
175.378, 3.634e+003
176.759, 3.917e+003
178.140, 4.508e+003
179.521, 5.593e+003
180.901, 6.630e+003
182.281, 6.746e+003
183.662, 5.619e+003
185.041, 4.519e+003
186.421, 4.044e+003
187.800, 4.055e+003
189.180, 4.292e+003
190.558, 5.186e+003
191.937, 5.867e+003
193.316, 5.536e+003
194.694, 4.631e+003
196.072, 4.018e+003
197.450, 3.654e+003
198.827, 3.631e+003
200.205, 3.667e+003
201.582, 4.021e+003
202.959, 4.409e+003
204.336, 5.290e+003
205.712, 6.554e+003
207.088, 8.754e+003
208.465, 1.241e+004
209.840, 1.465e+004
211.216, 1.321e+004
212.591, 9.586e+003
213.967, 6.724e+003
215.341, 5.179e+003
216.716, 4.435e+003
218.091, 4.127e+003
219.465, 4.100e+003
220.839, 4.244e+003
222.213, 4.409e+003
223.586, 5.069e+003
224.960, 5.999e+003
226.333, 6.136e+003
227.706, 5.455e+003
229.079, 4.731e+003
230.451, 4.607e+003
231.823, 4.697e+003
233.195, 5.084e+003
234.567, 5.709e+003
235.939, 6.869e+003
237.310, 8.920e+003
238.682, 1.227e+004
240.052, 1.773e+004
241.423, 2.599e+004
242.794, 3.735e+004
244.164, 4.382e+004
245.534, 3.818e+004
246.904, 2.721e+004
248.274, 1.774e+004
249.643, 1.207e+004
251.012, 8.884e+003
252.381, 7.197e+003
253.750, 6.147e+003
255.118, 5.400e+003
256.487, 4.979e+003
257.855, 4.585e+003
259.223, 4.330e+003
260.590, 4.126e+003
261.958, 3.970e+003
263.325, 3.927e+003
264.692, 3.787e+003
266.059, 3.786e+003
267.425, 3.744e+003
268.791, 3.629e+003
270.158, 3.677e+003
271.523, 3.532e+003
272.889, 3.529e+003
274.255, 3.454e+003
275.620, 3.497e+003
276.985, 3.479e+003
278.350, 3.413e+003
279.714, 3.408e+003
281.078, 3.440e+003
282.443, 3.526e+003
283.806, 3.498e+003
285.170, 3.540e+003
286.534, 3.659e+003
287.897, 3.950e+003
289.260, 4.208e+003
290.623, 4.758e+003
291.985, 5.395e+003
293.348, 5.969e+003
294.710, 6.100e+003
296.072, 5.647e+003
297.433, 4.851e+003
298.795, 4.246e+003
300.156, 3.917e+003
301.517, 3.744e+003
302.878, 3.660e+003
304.239, 3.553e+003
305.599, 3.676e+003
306.959, 3.753e+003
308.319, 3.914e+003
309.679, 4.066e+003
311.038, 4.076e+003
312.398, 4.021e+003
313.757, 3.824e+003
315.116, 3.681e+003
316.474, 3.552e+003
317.833, 3.466e+003
319.191, 3.464e+003
320.549, 3.422e+003
321.907, 3.395e+003
323.264, 3.370e+003
324.622, 3.465e+003
325.979, 3.467e+003
327.336, 3.613e+003
328.692, 3.726e+003
330.049, 3.676e+003
331.405, 3.630e+003
332.761, 3.446e+003
334.117, 3.486e+003
335.473, 3.425e+003
336.828, 3.412e+003
338.183, 3.507e+003
339.538, 3.515e+003
340.893, 3.690e+003
342.247, 3.857e+003
343.602, 4.246e+003
344.956, 4.809e+003
346.310, 5.202e+003
347.663, 5.146e+003
349.017, 4.672e+003
350.370, 4.165e+003
351.723, 3.810e+003
353.076, 3.641e+003
354.428, 3.578e+003
355.780, 3.481e+003
357.133, 3.447e+003
358.484, 3.356e+003
359.836, 3.338e+003
361.188, 3.378e+003
362.539, 3.344e+003
363.890, 3.358e+003
365.241, 3.376e+003
366.591, 3.312e+003
367.942, 3.370e+003
369.292, 3.379e+003
370.642, 3.320e+003
371.992, 3.362e+003
373.341, 3.328e+003
374.691, 3.343e+003
376.040, 3.375e+003
377.388, 3.328e+003
378.737, 3.362e+003
380.086, 3.510e+003
381.434, 3.371e+003
382.782, 3.502e+003
384.130, 3.480e+003
385.477, 3.523e+003
386.825, 3.537e+003
388.172, 3.539e+003
389.519, 3.570e+003
390.865, 3.529e+003
392.212, 3.566e+003
393.558, 3.671e+003
394.904, 3.579e+003
396.250, 3.660e+003
397.596, 3.655e+003
398.941, 3.679e+003
400.286, 3.739e+003
401.631, 3.713e+003
402.976, 3.735e+003
404.321, 3.792e+003
405.665, 3.824e+003
407.009, 3.904e+003
408.353, 3.918e+003
409.697, 4.067e+003
411.040, 4.119e+003
412.384, 4.276e+003
413.727, 4.522e+003
415.070, 4.832e+003
416.412, 5.240e+003
417.755, 5.718e+003
419.097, 6.492e+003
420.439, 7.441e+003
421.781, 8.324e+003
423.122, 8.982e+003
424.464, 8.743e+003
425.805, 7.937e+003
427.146, 6.582e+003
428.486, 5.571e+003
429.827, 4.969e+003
431.167, 4.627e+003
432.507, 4.538e+003
433.847, 4.777e+003
435.187, 5.205e+003
436.526, 6.052e+003
437.865, 7.526e+003
439.204, 8.991e+003
440.543, 9.518e+003
441.882, 8.638e+003
443.220, 7.098e+003
444.558, 5.836e+003
445.896, 5.101e+003
447.234, 4.687e+003
448.572, 4.336e+003
449.909, 4.177e+003
451.246, 4.060e+003
452.583, 4.077e+003
453.919, 4.080e+003
455.256, 4.201e+003
456.592, 4.472e+003
457.928, 4.672e+003
459.264, 4.687e+003
460.600, 4.362e+003
461.935, 4.081e+003
463.270, 3.876e+003
464.605, 3.899e+003
465.940, 3.790e+003
467.274, 3.792e+003
468.609, 3.783e+003
469.943, 3.767e+003
471.277, 3.752e+003
472.610, 3.780e+003
473.944, 3.956e+003
475.277, 4.014e+003
476.610, 4.194e+003
477.943, 4.366e+003
479.275, 4.435e+003
480.608, 4.233e+003
481.940, 4.044e+003
483.272, 3.900e+003
484.604, 3.709e+003
485.935, 3.768e+003
487.267, 3.720e+003
488.598, 3.746e+003
489.929, 3.627e+003
491.260, 3.727e+003
492.590, 3.688e+003
493.920, 3.666e+003
495.250, 3.658e+003
496.580, 3.691e+003
497.910, 3.706e+003
499.239, 3.751e+003
500.569, 3.656e+003
501.898, 3.732e+003
503.226, 3.658e+003
504.555, 3.695e+003
505.883, 3.756e+003
507.212, 3.773e+003
508.540, 3.739e+003
509.867, 3.755e+003
511.195, 3.755e+003
512.522, 3.786e+003
513.849, 3.752e+003
515.176, 3.808e+003
516.503, 3.848e+003
517.829, 3.841e+003
519.156, 3.852e+003
520.482, 3.863e+003
521.808, 3.817e+003
523.133, 3.904e+003
524.459, 3.858e+003
525.784, 3.866e+003
527.109, 3.856e+003
528.434, 3.896e+003
529.758, 3.887e+003
531.083, 3.841e+003
532.407, 3.836e+003
533.731, 3.848e+003
535.055, 3.929e+003
536.378, 3.847e+003
537.701, 3.878e+003
539.025, 3.911e+003
540.348, 3.922e+003
541.670, 3.955e+003
542.993, 3.937e+003
544.315, 3.924e+003
545.637, 3.985e+003
546.959, 3.959e+003
548.281, 3.971e+003
549.602, 3.996e+003
550.923, 3.998e+003
552.244, 4.072e+003
553.565, 4.008e+003
554.886, 4.036e+003
556.206, 4.131e+003
557.526, 4.094e+003
558.846, 4.126e+003
560.166, 4.124e+003
561.486, 4.230e+003
562.805, 4.119e+003
564.124, 4.155e+003
565.443, 4.244e+003
566.762, 4.233e+003
568.080, 4.358e+003
569.399, 4.404e+003
570.717, 4.387e+003
572.035, 4.391e+003
573.352, 4.366e+003
574.670, 4.383e+003
575.987, 4.400e+003
577.304, 4.404e+003
578.621, 4.420e+003
579.938, 4.499e+003
581.254, 4.651e+003
582.570, 4.638e+003
583.886, 4.775e+003
585.202, 4.820e+003
586.518, 4.968e+003
587.833, 5.094e+003
589.148, 5.157e+003
590.463, 5.295e+003
591.778, 5.528e+003
593.093, 5.691e+003
594.407, 6.118e+003
595.721, 6.402e+003
597.035, 6.895e+003
598.349, 7.603e+003
599.662, 8.493e+003
600.976, 9.849e+003
602.289, 1.187e+004
603.602, 1.507e+004
604.914, 1.982e+004
606.227, 2.641e+004
607.539, 3.328e+004
608.851, 3.675e+004
610.163, 3.510e+004
611.475, 2.878e+004
612.786, 2.258e+004
614.097, 1.745e+004
615.408, 1.361e+004
616.719, 1.162e+004
618.030, 1.021e+004
619.340, 9.326e+003
620.651, 9.198e+003
621.961, 9.431e+003
623.270, 1.051e+004
624.580, 1.204e+004
625.889, 1.367e+004
627.199, 1.410e+004
628.507, 1.263e+004
629.816, 1.095e+004
631.125, 9.134e+003
632.433, 7.857e+003
633.741, 7.091e+003
635.049, 6.522e+003
636.357, 6.241e+003
637.664, 5.939e+003
638.972, 5.805e+003
640.279, 5.648e+003
641.586, 5.559e+003
642.893, 5.580e+003
644.199, 5.458e+003
645.505, 5.504e+003
646.811, 5.401e+003
648.117, 5.307e+003
649.423, 5.245e+003
650.728, 5.190e+003
652.034, 5.203e+003
653.339, 5.138e+003
654.644, 4.959e+003
655.948, 5.010e+003
657.253, 4.861e+003
658.557, 4.821e+003
659.861, 4.773e+003
661.165, 4.637e+003
662.468, 4.607e+003
663.772, 4.612e+003
665.075, 4.556e+003
666.378, 4.572e+003
667.681, 4.538e+003
668.983, 4.654e+003
670.286, 4.646e+003
671.588, 4.644e+003
672.890, 4.663e+003
674.192, 4.599e+003
675.493, 4.639e+003
676.795, 4.494e+003
678.096, 4.529e+003
679.397, 4.970e+003
680.697, 4.487e+003
681.998, 4.513e+003
683.298, 4.447e+003
684.598, 4.480e+003
685.898, 4.483e+003
687.198, 4.461e+003
688.498, 4.484e+003
689.797, 4.447e+003
691.096, 4.737e+003
692.395, 4.756e+003
693.694, 4.996e+003
694.992, 4.537e+003
696.290, 4.462e+003
697.589, 4.503e+003
698.886, 4.492e+003
700.184, 4.548e+003
701.482, 4.514e+003
702.779, 4.498e+003
704.076, 4.476e+003
705.373, 4.536e+003
706.669, 4.519e+003
707.966, 4.508e+003
709.262, 4.490e+003
710.558, 4.527e+003
711.854, 4.428e+003
713.150, 4.478e+003
714.445, 4.505e+003
715.740, 4.547e+003
717.035, 4.529e+003
718.330, 4.560e+003
719.625, 4.572e+003
720.919, 4.554e+003
722.214, 4.576e+003
723.508, 4.608e+003
724.801, 4.571e+003
726.095, 4.628e+003
727.388, 4.673e+003
728.682, 4.660e+003
729.975, 4.672e+003
731.267, 4.737e+003
732.560, 4.677e+003
733.852, 4.720e+003
735.145, 4.625e+003
736.437, 4.729e+003
737.728, 4.587e+003
739.020, 4.638e+003
740.311, 4.707e+003
741.603, 4.664e+003
742.894, 4.712e+003
744.184, 4.715e+003
745.475, 4.651e+003
746.765, 4.776e+003
748.055, 4.734e+003
749.345, 4.795e+003
750.635, 4.770e+003
751.925, 4.738e+003
753.214, 4.830e+003
754.503, 4.801e+003
755.792, 4.810e+003
757.081, 4.873e+003
758.370, 4.916e+003
759.658, 4.888e+003
760.946, 4.865e+003
762.234, 4.947e+003
763.522, 5.010e+003
764.809, 5.015e+003
766.097, 5.087e+003
767.384, 5.175e+003
768.671, 5.336e+003
769.958, 5.395e+003
771.244, 5.535e+003
772.530, 5.681e+003
773.817, 5.597e+003
775.102, 5.457e+003
776.388, 5.350e+003
777.674, 5.175e+003
778.959, 5.096e+003
780.244, 5.049e+003
781.529, 4.990e+003
782.814, 4.989e+003
784.098, 4.886e+003
785.383, 4.972e+003
786.667, 4.889e+003
787.951, 4.904e+003
789.235, 4.992e+003
790.518, 4.919e+003
791.801, 4.976e+003
793.084, 5.013e+003
794.367, 4.971e+003
795.650, 5.008e+003
796.933, 4.935e+003
798.215, 4.988e+003
799.497, 5.044e+003
800.779, 4.995e+003
802.061, 5.077e+003
803.342, 4.990e+003
804.624, 5.009e+003
805.905, 5.027e+003
807.186, 4.999e+003
808.466, 5.076e+003
809.747, 5.079e+003
811.027, 4.996e+003
812.307, 5.057e+003
813.587, 5.031e+003
814.867, 5.040e+003
816.146, 5.109e+003
817.426, 5.133e+003
818.705, 5.117e+003
819.984, 5.145e+003
821.263, 5.116e+003
822.541, 5.151e+003
823.819, 5.175e+003
825.098, 5.199e+003
826.375, 5.139e+003
827.653, 5.216e+003
828.931, 5.243e+003
830.208, 5.255e+003
831.485, 8.697e+003
832.762, 6.951e+003
834.039, 5.342e+003
835.315, 5.222e+003
836.592, 5.275e+003
837.868, 5.325e+003
839.144, 5.334e+003
840.420, 5.345e+003
841.695, 5.486e+003
842.970, 5.348e+003
844.246, 5.510e+003
845.521, 5.498e+003
846.795, 5.483e+003
848.070, 5.593e+003
849.344, 5.480e+003
850.618, 5.610e+003
851.892, 5.636e+003
853.166, 5.668e+003
854.440, 5.850e+003
855.713, 5.790e+003
856.986, 5.899e+003
858.259, 6.041e+003
859.532, 6.012e+003
860.804, 6.132e+003
862.077, 6.074e+003
863.349, 6.033e+003
864.621, 6.076e+003
865.893, 5.924e+003
867.164, 6.033e+003
868.436, 5.926e+003
869.707, 5.956e+003
870.978, 5.908e+003
872.248, 5.856e+003
873.519, 5.955e+003
874.789, 5.852e+003
876.060, 5.931e+003
877.330, 5.908e+003
878.599, 5.862e+003
879.869, 5.960e+003
881.138, 5.877e+003
882.408, 5.905e+003
883.677, 5.937e+003
884.945, 5.966e+003
886.214, 6.017e+003
887.482, 6.145e+003
888.751, 6.162e+003
890.019, 6.225e+003
891.287, 6.354e+003
892.554, 6.547e+003
893.822, 6.654e+003
895.089, 6.891e+003
896.356, 7.094e+003
897.623, 7.192e+003
898.889, 7.287e+003
900.156, 7.336e+003
901.422, 7.257e+003
902.688, 7.212e+003
903.954, 7.123e+003
905.220, 6.888e+003
906.485, 6.729e+003
907.750, 6.555e+003
909.015, 6.519e+003
910.280, 6.389e+003
911.545, 6.210e+003
912.809, 6.198e+003
914.074, 6.132e+003
915.338, 6.109e+003
916.602, 6.058e+003
917.865, 5.927e+003
919.129, 5.948e+003
920.392, 5.841e+003
921.655, 5.832e+003
922.918, 5.821e+003
924.181, 5.756e+003
925.443, 5.856e+003
926.706, 5.707e+003
927.968, 5.819e+003
929.230, 5.776e+003
930.491, 5.634e+003
931.753, 5.845e+003
933.014, 5.730e+003
934.276, 5.823e+003
935.536, 5.798e+003
936.797, 5.804e+003
938.058, 5.788e+003
939.318, 5.772e+003
940.578, 5.742e+003
941.838, 5.834e+003
943.098, 5.791e+003
944.358, 5.732e+003
945.617, 5.859e+003
946.876, 5.877e+003
948.135, 5.878e+003
949.394, 5.803e+003
950.653, 5.833e+003
951.911, 5.939e+003
953.169, 5.869e+003
954.427, 5.888e+003
955.685, 5.966e+003
956.943, 5.908e+003
958.200, 5.950e+003
959.458, 5.983e+003
960.715, 6.012e+003
961.971, 6.069e+003
963.228, 6.196e+003
964.485, 6.391e+003
965.741, 6.474e+003
966.997, 6.718e+003
968.253, 7.348e+003
969.508, 7.794e+003
970.764, 8.572e+003
972.019, 8.936e+003
973.274, 8.726e+003
974.529, 8.349e+003
975.784, 7.711e+003
977.039, 7.232e+003
978.293, 6.878e+003
979.547, 6.645e+003
980.801, 6.530e+003
982.055, 6.432e+003
983.308, 6.384e+003
984.562, 6.343e+003
985.815, 6.308e+003
987.068, 6.443e+003
988.321, 6.379e+003
989.573, 6.339e+003
990.826, 6.421e+003
992.078, 6.372e+003
993.330, 6.436e+003
994.582, 6.516e+003
995.833, 6.447e+003
997.085, 6.638e+003
998.336, 6.746e+003
999.587, 6.899e+003
1000.838, 7.264e+003
1002.088, 7.083e+003
1003.339, 6.873e+003
1004.589, 6.612e+003
1005.839, 6.455e+003
1007.089, 6.385e+003
1008.339, 6.263e+003
1009.588, 6.174e+003
1010.838, 6.167e+003
1012.087, 6.077e+003
1013.336, 6.124e+003
1014.584, 6.151e+003
1015.833, 6.036e+003
1017.081, 6.244e+003
1018.330, 6.236e+003
1019.577, 6.339e+003
1020.825, 6.308e+003
1022.073, 6.407e+003
1023.320, 6.374e+003
1024.567, 6.264e+003
1025.814, 6.336e+003
1027.061, 6.288e+003
1028.308, 6.255e+003
1029.554, 6.285e+003
1030.800, 6.469e+003
1032.046, 6.171e+003
1033.292, 6.223e+003
1034.538, 6.272e+003
1035.783, 6.284e+003
1037.029, 6.382e+003
1038.274, 6.423e+003
1039.519, 6.641e+003
1040.763, 6.540e+003
1042.008, 6.396e+003
1043.252, 6.406e+003
1044.496, 6.187e+003
1045.740, 6.205e+003
1046.984, 6.172e+003
1048.228, 6.131e+003
1049.471, 6.142e+003
1050.714, 6.117e+003
1051.957, 6.159e+003
1053.200, 6.162e+003
1054.442, 6.082e+003
1055.685, 6.274e+003
1056.927, 6.134e+003
1058.169, 6.039e+003
1059.411, 6.169e+003
1060.652, 6.154e+003
1061.894, 6.115e+003
1063.135, 6.176e+003
1064.376, 6.231e+003
1065.617, 6.244e+003
1066.858, 6.203e+003
1068.098, 6.278e+003
1069.339, 6.341e+003
1070.579, 6.231e+003
1071.819, 6.382e+003
1073.058, 6.359e+003
1074.298, 6.388e+003
1075.537, 6.493e+003
1076.776, 6.593e+003
1078.015, 6.572e+003
1079.254, 6.624e+003
1080.493, 6.621e+003
1081.731, 6.798e+003
1082.969, 6.803e+003
1084.207, 6.899e+003
1085.445, 6.894e+003
1086.683, 6.982e+003
1087.920, 6.962e+003
1089.157, 7.116e+003
1090.394, 7.181e+003
1091.631, 7.330e+003
1092.868, 7.432e+003
1094.105, 7.601e+003
1095.341, 7.775e+003
1096.577, 7.975e+003
1097.813, 8.299e+003
1099.049, 8.615e+003
1100.284, 8.869e+003
1101.519, 9.282e+003
1102.755, 9.375e+003
1103.990, 9.870e+003
1105.224, 1.001e+004
1106.459, 9.992e+003
1107.693, 1.002e+004
1108.928, 9.660e+003
1110.162, 9.392e+003
1111.395, 9.140e+003
1112.629, 8.752e+003
1113.863, 8.494e+003
1115.096, 8.198e+003
1116.329, 7.878e+003
1117.562, 7.892e+003
1118.795, 7.677e+003
1120.027, 7.583e+003
1121.259, 7.520e+003
1122.492, 7.350e+003
1123.723, 7.184e+003
1124.955, 7.142e+003
1126.187, 6.979e+003
1127.418, 7.119e+003
1128.649, 6.952e+003
1129.880, 6.910e+003
1131.111, 6.834e+003
1132.342, 6.848e+003
1133.572, 6.765e+003
1134.802, 6.751e+003
1136.033, 6.678e+003
1137.262, 6.650e+003
1138.492, 6.577e+003
1139.722, 6.563e+003
1140.951, 6.593e+003
1142.180, 6.520e+003
1143.409, 6.449e+003
1144.638, 6.529e+003
1145.866, 6.447e+003
1147.095, 6.491e+003
1148.323, 6.528e+003
1149.551, 6.483e+003
1150.779, 6.472e+003
1152.006, 6.508e+003
1153.234, 6.396e+003
1154.461, 6.491e+003
1155.688, 6.479e+003
1156.915, 6.529e+003
1158.141, 6.417e+003
1159.368, 6.481e+003
1160.594, 6.507e+003
1161.820, 6.407e+003
1163.046, 6.543e+003
1164.272, 6.545e+003
1165.498, 6.525e+003
1166.723, 6.580e+003
1167.948, 6.539e+003
1169.173, 6.513e+003
1170.398, 6.616e+003
1171.623, 6.500e+003
1172.847, 6.635e+003
1174.071, 6.671e+003
1175.295, 6.597e+003
1176.519, 6.672e+003
1177.743, 6.577e+003
1178.966, 6.539e+003
1180.190, 6.622e+003
1181.413, 6.575e+003
1182.636, 6.650e+003
1183.858, 6.654e+003
1185.081, 6.538e+003
1186.303, 6.656e+003
1187.526, 6.628e+003
1188.748, 6.618e+003
1189.969, 6.619e+003
1191.191, 6.577e+003
1192.412, 6.598e+003
1193.634, 6.614e+003
1194.855, 6.602e+003
1196.076, 6.581e+003
1197.296, 6.575e+003
1198.517, 6.662e+003
1199.737, 6.594e+003
1200.957, 6.616e+003
1202.177, 6.759e+003
1203.397, 6.616e+003
1204.617, 6.592e+003
1205.836, 6.742e+003
1207.055, 6.642e+003
1208.274, 6.572e+003
1209.493, 6.630e+003
1210.712, 6.612e+003
1211.930, 6.735e+003
1213.148, 6.735e+003
1214.367, 6.757e+003
1215.584, 6.793e+003
1216.802, 6.843e+003
1218.020, 6.732e+003
1219.237, 6.797e+003
1220.454, 6.663e+003
1221.671, 6.770e+003
1222.888, 6.707e+003
1224.105, 6.735e+003
1225.321, 6.766e+003
1226.537, 6.761e+003
1227.753, 6.709e+003
1228.969, 6.759e+003
1230.185, 6.677e+003
1231.400, 6.844e+003
1232.616, 6.918e+003
1233.831, 6.768e+003
1235.046, 6.929e+003
1236.261, 6.951e+003
1237.475, 6.909e+003
1238.689, 7.013e+003
1239.904, 6.869e+003
1241.118, 6.964e+003
1242.332, 6.963e+003
1243.545, 6.838e+003
1244.759, 6.882e+003
1245.972, 6.914e+003
1247.185, 6.932e+003
1248.398, 7.060e+003
1249.611, 6.952e+003
1250.823, 6.921e+003
1252.036, 6.946e+003
1253.248, 6.919e+003
1254.460, 7.034e+003
1255.671, 7.068e+003
1256.883, 6.944e+003
1258.095, 7.052e+003
1259.306, 6.984e+003
1260.517, 7.040e+003
1261.728, 7.056e+003
1262.938, 6.957e+003
1264.149, 7.156e+003
1265.359, 7.188e+003
1266.569, 7.124e+003
1267.779, 7.235e+003
1268.989, 7.119e+003
1270.199, 7.181e+003
1271.408, 7.326e+003
1272.617, 7.184e+003
1273.826, 7.121e+003
1275.035, 7.181e+003
1276.244, 7.174e+003
1277.452, 7.222e+003
1278.661, 7.085e+003
1279.869, 7.030e+003
1281.077, 7.079e+003
1282.285, 7.015e+003
1283.492, 7.015e+003
1284.700, 7.099e+003
1285.907, 7.032e+003
1287.114, 7.084e+003
1288.321, 7.017e+003
1289.527, 7.022e+003
1290.734, 7.018e+003
1291.940, 7.073e+003
1293.146, 7.170e+003
1294.352, 7.204e+003
1295.558, 7.147e+003
1296.763, 7.174e+003
1297.969, 7.121e+003
1299.174, 7.111e+003
1300.379, 7.156e+003
1301.584, 7.176e+003
1302.788, 7.096e+003
1303.993, 7.177e+003
1305.197, 7.166e+003
1306.401, 7.244e+003
1307.605, 7.303e+003
1308.809, 7.258e+003
1310.013, 7.455e+003
1311.216, 7.386e+003
1312.419, 7.304e+003
1313.622, 7.431e+003
1314.825, 7.366e+003
1316.028, 7.406e+003
1317.230, 7.357e+003
1318.432, 7.353e+003
1319.634, 7.405e+003
1320.836, 7.394e+003
1322.038, 7.317e+003
1323.240, 7.302e+003
1324.441, 7.358e+003
1325.642, 7.303e+003
1326.843, 7.274e+003
1328.044, 7.294e+003
1329.245, 7.227e+003
1330.445, 7.178e+003
1331.645, 7.106e+003
1332.845, 7.210e+003
1334.045, 7.181e+003
1335.245, 7.043e+003
1336.445, 7.202e+003
1337.644, 7.143e+003
1338.843, 7.056e+003
1340.042, 7.198e+003
1341.241, 7.134e+003
1342.440, 7.148e+003
1343.638, 7.211e+003
1344.836, 7.146e+003
1346.034, 7.228e+003
1347.232, 7.213e+003
1348.430, 7.177e+003
1349.628, 7.183e+003
1350.825, 7.139e+003
1352.022, 7.232e+003
1353.219, 7.215e+003
1354.416, 7.182e+003
1355.613, 7.144e+003
1356.809, 7.156e+003
1358.005, 7.175e+003
1359.202, 7.147e+003
1360.398, 7.216e+003
1361.593, 7.177e+003
1362.789, 7.324e+003
1363.984, 7.199e+003
1365.179, 7.342e+003
1366.374, 7.327e+003
1367.569, 7.253e+003
1368.764, 7.264e+003
1369.958, 7.292e+003
1371.153, 7.226e+003
1372.347, 7.441e+003
1373.541, 7.342e+003
1374.735, 7.360e+003
1375.928, 7.441e+003
1377.122, 7.396e+003
1378.315, 7.453e+003
1379.508, 7.411e+003
1380.701, 7.446e+003
1381.893, 7.422e+003
1383.086, 7.587e+003
1384.278, 7.377e+003
1385.470, 7.493e+003
1386.662, 7.516e+003
1387.854, 7.413e+003
1389.046, 7.470e+003
1390.237, 7.467e+003
1391.428, 7.521e+003
1392.619, 7.466e+003
1393.810, 7.482e+003
1395.001, 7.539e+003
1396.191, 7.444e+003
1397.382, 7.376e+003
1398.572, 7.416e+003
1399.762, 7.490e+003
1400.952, 7.460e+003
1402.141, 7.458e+003
1403.331, 7.366e+003
1404.520, 7.473e+003
1405.709, 7.506e+003
1406.898, 7.508e+003
1408.087, 7.460e+003
1409.275, 7.516e+003
1410.464, 7.617e+003
1411.652, 7.631e+003
1412.840, 7.601e+003
1414.028, 7.597e+003
1415.215, 7.640e+003
1416.403, 7.623e+003
1417.590, 7.630e+003
1418.777, 7.657e+003
1419.964, 7.626e+003
1421.151, 7.632e+003
1422.338, 7.613e+003
1423.524, 7.712e+003
1424.710, 7.758e+003
1425.896, 7.620e+003
1427.082, 7.700e+003
1428.268, 7.862e+003
1429.453, 7.810e+003
1430.639, 7.906e+003
1431.824, 7.816e+003
1433.009, 7.903e+003
1434.194, 8.040e+003
1435.378, 7.982e+003
1436.563, 8.075e+003
1437.747, 8.259e+003
1438.931, 8.395e+003
1440.115, 8.411e+003
1441.299, 8.597e+003
1442.482, 8.519e+003
1443.666, 8.676e+003
1444.849, 8.610e+003
1446.032, 8.677e+003
1447.215, 8.789e+003
1448.397, 8.818e+003
1449.580, 8.750e+003
1450.762, 9.027e+003
1451.944, 8.891e+003
1453.126, 8.963e+003
1454.308, 8.983e+003
1455.490, 8.839e+003
1456.671, 8.993e+003
1457.852, 8.867e+003
1459.033, 8.936e+003
1460.214, 8.992e+003
1461.395, 8.832e+003
1462.575, 8.628e+003
1463.756, 8.693e+003
1464.936, 8.552e+003
1466.116, 8.607e+003
1467.296, 8.534e+003
1468.475, 8.462e+003
1469.655, 8.361e+003
1470.834, 8.394e+003
1472.013, 8.266e+003
1473.192, 8.414e+003
1474.371, 8.229e+003
1475.550, 8.303e+003
1476.728, 8.243e+003
1477.906, 8.338e+003
1479.084, 8.218e+003
1480.262, 8.322e+003
1481.440, 8.334e+003
1482.617, 8.285e+003
1483.795, 8.245e+003
1484.972, 8.209e+003
1486.149, 8.249e+003
1487.326, 8.110e+003
1488.502, 8.080e+003
1489.679, 8.073e+003
1490.855, 8.100e+003
1492.031, 8.032e+003
1493.207, 8.016e+003
1494.383, 7.994e+003
1495.559, 8.045e+003
1496.734, 7.988e+003
1497.909, 8.094e+003
1499.084, 7.996e+003
1500.259, 8.006e+003
1501.434, 8.045e+003
1502.608, 8.015e+003
1503.783, 8.327e+003
1504.957, 1.880e+002
##END=



