##NAMES=Danburite
##RRUFFID=R040013
##IDEAL CHEMISTRY=CaB_2_Si_2_O_8_
##LOCALITY=Charcas, San Luis Potosi, Mexico
##OWNER=RRUFF
##SOURCE=Marcus Origlieri
##DESCRIPTION=Colorless prismatic single crystal
##STATUS=The identification of this mineral has been confirmed by X-ray diffraction and chemical analysis
##URL=rruff.info/R040013
##MEASURED CHEMISTRY=Ca_1.00_B_2.00_Si_2.00_O_8_
##PIN_ID=M00012
##ORIENTATION=Laser parallel to c* (0 0 1). Fiducial mark perpendicular to laser is parallel to a [1 0 0]
26.288, 2.173e+003
27.694, 2.157e+003
29.099, 2.118e+003
30.504, 2.103e+003
31.909, 2.042e+003
33.313, 2.114e+003
34.717, 1.997e+003
36.121, 2.000e+003
37.525, 2.009e+003
38.929, 1.975e+003
40.332, 1.956e+003
41.735, 1.926e+003
43.138, 1.917e+003
44.541, 1.916e+003
45.943, 1.831e+003
47.345, 1.831e+003
48.747, 1.831e+003
50.149, 1.839e+003
51.551, 1.822e+003
52.952, 1.846e+003
54.353, 1.780e+003
55.754, 1.818e+003
57.155, 1.837e+003
58.555, 1.833e+003
59.955, 1.818e+003
61.355, 1.811e+003
62.755, 1.784e+003
64.154, 1.703e+003
65.553, 1.643e+003
66.952, 1.603e+003
68.351, 1.566e+003
69.750, 1.550e+003
71.148, 1.500e+003
72.546, 1.480e+003
73.944, 1.454e+003
75.342, 1.446e+003
76.739, 1.454e+003
78.136, 1.513e+003
79.533, 1.465e+003
80.930, 1.455e+003
82.327, 1.478e+003
83.723, 1.543e+003
85.119, 1.639e+003
86.515, 1.711e+003
87.910, 1.826e+003
89.306, 1.946e+003
90.701, 2.104e+003
92.096, 2.328e+003
93.490, 2.440e+003
94.885, 2.716e+003
96.279, 2.841e+003
97.673, 3.139e+003
99.067, 3.304e+003
100.461, 3.357e+003
101.854, 3.636e+003
103.247, 3.568e+003
104.640, 3.866e+003
106.032, 3.849e+003
107.425, 4.013e+003
108.817, 4.060e+003
110.209, 4.466e+003
111.601, 7.135e+003
112.992, 1.059e+004
114.384, 6.283e+003
115.775, 5.915e+003
117.166, 8.041e+003
118.556, 8.774e+003
119.947, 8.238e+003
121.337, 8.924e+003
122.727, 1.041e+004
124.116, 1.194e+004
125.506, 1.049e+004
126.895, 8.180e+003
128.284, 6.849e+003
129.673, 5.726e+003
131.062, 5.184e+003
132.450, 4.608e+003
133.838, 4.651e+003
135.226, 4.676e+003
136.614, 5.427e+003
138.001, 6.405e+003
139.388, 6.528e+003
140.775, 5.852e+003
142.162, 4.681e+003
143.549, 4.246e+003
144.935, 3.770e+003
146.321, 3.674e+003
147.707, 3.508e+003
149.093, 3.393e+003
150.478, 3.484e+003
151.863, 3.306e+003
153.248, 3.446e+003
154.633, 3.356e+003
156.018, 3.372e+003
157.402, 3.372e+003
158.786, 3.518e+003
160.170, 4.066e+003
161.554, 4.217e+003
162.937, 5.352e+003
164.320, 7.181e+003
165.703, 8.313e+003
167.086, 7.193e+003
168.469, 5.267e+003
169.851, 4.339e+003
171.233, 3.721e+003
172.615, 3.698e+003
173.996, 3.450e+003
175.378, 3.459e+003
176.759, 3.511e+003
178.140, 3.495e+003
179.521, 3.817e+003
180.901, 3.931e+003
182.281, 4.098e+003
183.662, 4.007e+003
185.041, 3.978e+003
186.421, 4.223e+003
187.800, 4.711e+003
189.180, 5.790e+003
190.558, 6.524e+003
191.937, 6.250e+003
193.316, 5.354e+003
194.694, 4.484e+003
196.072, 4.050e+003
197.450, 3.796e+003
198.827, 3.752e+003
200.205, 3.593e+003
201.582, 3.826e+003
202.959, 4.023e+003
204.336, 4.498e+003
205.712, 5.233e+003
207.088, 6.255e+003
208.465, 8.452e+003
209.840, 1.102e+004
211.216, 1.218e+004
212.591, 1.047e+004
213.967, 7.677e+003
215.341, 5.961e+003
216.716, 4.876e+003
218.091, 4.358e+003
219.465, 3.945e+003
220.839, 3.819e+003
222.213, 3.653e+003
223.586, 3.663e+003
224.960, 3.736e+003
226.333, 3.668e+003
227.706, 3.845e+003
229.079, 3.858e+003
230.451, 3.991e+003
231.823, 4.151e+003
233.195, 4.336e+003
234.567, 4.929e+003
235.939, 5.387e+003
237.310, 6.612e+003
238.682, 8.514e+003
240.052, 1.150e+004
241.423, 1.635e+004
242.794, 2.373e+004
244.164, 3.210e+004
245.534, 3.428e+004
246.904, 2.876e+004
248.274, 2.078e+004
249.643, 1.436e+004
251.012, 1.065e+004
252.381, 8.273e+003
253.750, 6.842e+003
255.118, 5.886e+003
256.487, 5.360e+003
257.855, 4.946e+003
259.223, 4.556e+003
260.590, 4.398e+003
261.958, 4.071e+003
263.325, 3.978e+003
264.692, 3.877e+003
266.059, 3.768e+003
267.425, 3.786e+003
268.791, 3.712e+003
270.158, 3.808e+003
271.523, 3.822e+003
272.889, 4.094e+003
274.255, 4.476e+003
275.620, 5.023e+003
276.985, 5.766e+003
278.350, 5.722e+003
279.714, 5.191e+003
281.078, 4.420e+003
282.443, 3.908e+003
283.806, 3.622e+003
285.170, 3.402e+003
286.534, 3.347e+003
287.897, 3.210e+003
289.260, 3.218e+003
290.623, 3.154e+003
291.985, 3.158e+003
293.348, 3.193e+003
294.710, 3.120e+003
296.072, 3.245e+003
297.433, 3.123e+003
298.795, 3.161e+003
300.156, 3.174e+003
301.517, 3.196e+003
302.878, 3.227e+003
304.239, 3.202e+003
305.599, 3.355e+003
306.959, 3.403e+003
308.319, 3.536e+003
309.679, 3.764e+003
311.038, 3.810e+003
312.398, 4.029e+003
313.757, 3.842e+003
315.116, 3.654e+003
316.474, 3.468e+003
317.833, 3.367e+003
319.191, 3.361e+003
320.549, 3.247e+003
321.907, 3.226e+003
323.264, 3.145e+003
324.622, 3.182e+003
325.979, 3.188e+003
327.336, 3.133e+003
328.692, 3.212e+003
330.049, 3.132e+003
331.405, 3.240e+003
332.761, 3.233e+003
334.117, 3.269e+003
335.473, 3.300e+003
336.828, 3.239e+003
338.183, 3.318e+003
339.538, 3.327e+003
340.893, 3.468e+003
342.247, 3.677e+003
343.602, 3.989e+003
344.956, 4.545e+003
346.310, 5.145e+003
347.663, 5.728e+003
349.017, 5.342e+003
350.370, 4.759e+003
351.723, 4.202e+003
353.076, 3.805e+003
354.428, 3.616e+003
355.780, 3.369e+003
357.133, 3.339e+003
358.484, 3.264e+003
359.836, 3.187e+003
361.188, 3.197e+003
362.539, 3.104e+003
363.890, 3.151e+003
365.241, 3.108e+003
366.591, 3.137e+003
367.942, 3.121e+003
369.292, 3.095e+003
370.642, 3.070e+003
371.992, 3.100e+003
373.341, 3.103e+003
374.691, 3.163e+003
376.040, 3.140e+003
377.388, 3.166e+003
378.737, 3.095e+003
380.086, 3.183e+003
381.434, 3.097e+003
382.782, 3.145e+003
384.130, 3.233e+003
385.477, 3.174e+003
386.825, 3.268e+003
388.172, 3.255e+003
389.519, 3.308e+003
390.865, 3.323e+003
392.212, 3.284e+003
393.558, 3.392e+003
394.904, 3.292e+003
396.250, 3.435e+003
397.596, 3.421e+003
398.941, 3.424e+003
400.286, 3.445e+003
401.631, 3.506e+003
402.976, 3.720e+003
404.321, 3.907e+003
405.665, 4.100e+003
407.009, 4.132e+003
408.353, 3.932e+003
409.697, 3.878e+003
411.040, 3.765e+003
412.384, 3.818e+003
413.727, 3.926e+003
415.070, 4.086e+003
416.412, 4.327e+003
417.755, 4.670e+003
419.097, 5.291e+003
420.439, 5.796e+003
421.781, 6.528e+003
423.122, 7.283e+003
424.464, 7.445e+003
425.805, 7.277e+003
427.146, 6.300e+003
428.486, 5.520e+003
429.827, 4.821e+003
431.167, 4.286e+003
432.507, 4.204e+003
433.847, 4.112e+003
435.187, 4.271e+003
436.526, 4.767e+003
437.865, 5.443e+003
439.204, 6.571e+003
440.543, 7.492e+003
441.882, 7.641e+003
443.220, 6.785e+003
444.558, 5.881e+003
445.896, 5.114e+003
447.234, 4.513e+003
448.572, 4.164e+003
449.909, 3.919e+003
451.246, 3.820e+003
452.583, 3.758e+003
453.919, 3.721e+003
455.256, 3.784e+003
456.592, 3.758e+003
457.928, 3.913e+003
459.264, 4.042e+003
460.600, 4.122e+003
461.935, 4.126e+003
463.270, 3.998e+003
464.605, 3.913e+003
465.940, 3.676e+003
467.274, 3.638e+003
468.609, 3.542e+003
469.943, 3.531e+003
471.277, 3.527e+003
472.610, 3.466e+003
473.944, 3.567e+003
475.277, 3.559e+003
476.610, 3.639e+003
477.943, 3.893e+003
479.275, 3.980e+003
480.608, 4.083e+003
481.940, 3.860e+003
483.272, 3.646e+003
484.604, 3.545e+003
485.935, 3.394e+003
487.267, 3.392e+003
488.598, 3.286e+003
489.929, 3.370e+003
491.260, 3.339e+003
492.590, 3.265e+003
493.920, 3.350e+003
495.250, 3.266e+003
496.580, 3.284e+003
497.910, 3.283e+003
499.239, 3.333e+003
500.569, 3.375e+003
501.898, 3.265e+003
503.226, 3.340e+003
504.555, 3.358e+003
505.883, 3.339e+003
507.212, 3.358e+003
508.540, 3.334e+003
509.867, 3.350e+003
511.195, 3.338e+003
512.522, 3.395e+003
513.849, 3.435e+003
515.176, 3.393e+003
516.503, 3.511e+003
517.829, 3.454e+003
519.156, 3.435e+003
520.482, 3.473e+003
521.808, 3.452e+003
523.133, 3.499e+003
524.459, 3.456e+003
525.784, 3.513e+003
527.109, 3.490e+003
528.434, 3.421e+003
529.758, 3.490e+003
531.083, 3.422e+003
532.407, 3.463e+003
533.731, 3.497e+003
535.055, 3.379e+003
536.378, 3.457e+003
537.701, 3.482e+003
539.025, 3.490e+003
540.348, 3.450e+003
541.670, 3.526e+003
542.993, 3.524e+003
544.315, 3.500e+003
545.637, 3.557e+003
546.959, 3.590e+003
548.281, 3.540e+003
549.602, 3.590e+003
550.923, 3.510e+003
552.244, 3.613e+003
553.565, 3.520e+003
554.886, 3.568e+003
556.206, 3.612e+003
557.526, 3.579e+003
558.846, 3.737e+003
560.166, 3.674e+003
561.486, 3.729e+003
562.805, 3.788e+003
564.124, 3.788e+003
565.443, 3.800e+003
566.762, 3.650e+003
568.080, 3.763e+003
569.399, 3.757e+003
570.717, 3.804e+003
572.035, 3.834e+003
573.352, 3.798e+003
574.670, 3.883e+003
575.987, 3.912e+003
577.304, 3.872e+003
578.621, 4.066e+003
579.938, 4.065e+003
581.254, 4.214e+003
582.570, 4.288e+003
583.886, 4.356e+003
585.202, 4.452e+003
586.518, 4.442e+003
587.833, 4.590e+003
589.148, 4.608e+003
590.463, 4.752e+003
591.778, 4.895e+003
593.093, 4.996e+003
594.407, 5.185e+003
595.721, 5.496e+003
597.035, 5.871e+003
598.349, 6.419e+003
599.662, 6.983e+003
600.976, 8.076e+003
602.289, 9.350e+003
603.602, 1.128e+004
604.914, 1.449e+004
606.227, 1.885e+004
607.539, 2.495e+004
608.851, 3.008e+004
610.163, 3.183e+004
611.475, 2.960e+004
612.786, 2.453e+004
614.097, 1.981e+004
615.408, 1.533e+004
616.719, 1.266e+004
618.030, 1.062e+004
619.340, 9.245e+003
620.651, 8.720e+003
621.961, 8.458e+003
623.270, 8.949e+003
624.580, 9.774e+003
625.889, 1.090e+004
627.199, 1.189e+004
628.507, 1.173e+004
629.816, 1.062e+004
631.125, 9.176e+003
632.433, 7.806e+003
633.741, 7.111e+003
635.049, 6.358e+003
636.357, 6.064e+003
637.664, 5.686e+003
638.972, 5.342e+003
640.279, 5.378e+003
641.586, 5.141e+003
642.893, 5.203e+003
644.199, 5.212e+003
645.505, 5.103e+003
646.811, 5.159e+003
648.117, 4.971e+003
649.423, 5.004e+003
650.728, 4.872e+003
652.034, 4.766e+003
653.339, 4.867e+003
654.644, 4.574e+003
655.948, 4.599e+003
657.253, 4.492e+003
658.557, 4.326e+003
659.861, 4.268e+003
661.165, 4.163e+003
662.468, 4.128e+003
663.772, 4.047e+003
665.075, 4.020e+003
666.378, 4.062e+003
667.681, 3.954e+003
668.983, 3.997e+003
670.286, 3.942e+003
671.588, 3.887e+003
672.890, 3.985e+003
674.192, 3.847e+003
675.493, 3.928e+003
676.795, 3.895e+003
678.096, 3.866e+003
679.397, 3.914e+003
680.697, 3.824e+003
681.998, 3.927e+003
683.298, 3.809e+003
684.598, 3.783e+003
685.898, 3.904e+003
687.198, 3.751e+003
688.498, 3.880e+003
689.797, 3.802e+003
691.096, 3.796e+003
692.395, 3.866e+003
693.694, 3.811e+003
694.992, 3.871e+003
696.290, 3.832e+003
697.589, 3.865e+003
698.886, 3.846e+003
700.184, 3.784e+003
701.482, 3.928e+003
702.779, 3.811e+003
704.076, 3.820e+003
705.373, 3.876e+003
706.669, 3.806e+003
707.966, 3.870e+003
709.262, 3.871e+003
710.558, 3.774e+003
711.854, 3.908e+003
713.150, 3.857e+003
714.445, 3.891e+003
715.740, 3.867e+003
717.035, 3.886e+003
718.330, 3.857e+003
719.625, 3.831e+003
720.919, 3.927e+003
722.214, 3.933e+003
723.508, 3.968e+003
724.801, 3.936e+003
726.095, 3.943e+003
727.388, 3.988e+003
728.682, 4.028e+003
729.975, 4.003e+003
731.267, 4.162e+003
732.560, 4.083e+003
733.852, 4.119e+003
735.145, 4.046e+003
736.437, 4.100e+003
737.728, 4.123e+003
739.020, 4.085e+003
740.311, 4.081e+003
741.603, 4.084e+003
742.894, 4.064e+003
744.184, 4.137e+003
745.475, 4.136e+003
746.765, 4.153e+003
748.055, 4.195e+003
749.345, 4.172e+003
750.635, 4.277e+003
751.925, 4.293e+003
753.214, 4.240e+003
754.503, 4.215e+003
755.792, 4.168e+003
757.081, 4.210e+003
758.370, 4.183e+003
759.658, 4.258e+003
760.946, 4.302e+003
762.234, 4.254e+003
763.522, 4.308e+003
764.809, 4.377e+003
766.097, 4.427e+003
767.384, 4.481e+003
768.671, 4.511e+003
769.958, 4.654e+003
771.244, 4.732e+003
772.530, 4.804e+003
773.817, 4.875e+003
775.102, 4.762e+003
776.388, 4.733e+003
777.674, 4.613e+003
778.959, 4.498e+003
780.244, 4.498e+003
781.529, 4.464e+003
782.814, 4.455e+003
784.098, 4.451e+003
785.383, 4.430e+003
786.667, 4.494e+003
787.951, 4.393e+003
789.235, 4.450e+003
790.518, 4.536e+003
791.801, 4.483e+003
793.084, 4.524e+003
794.367, 4.471e+003
795.650, 4.576e+003
796.933, 4.489e+003
798.215, 4.356e+003
799.497, 4.473e+003
800.779, 4.417e+003
802.061, 4.403e+003
803.342, 4.451e+003
804.624, 4.364e+003
805.905, 4.434e+003
807.186, 4.386e+003
808.466, 4.375e+003
809.747, 4.412e+003
811.027, 4.367e+003
812.307, 4.444e+003
813.587, 4.440e+003
814.867, 4.383e+003
816.146, 4.496e+003
817.426, 4.397e+003
818.705, 4.491e+003
819.984, 4.539e+003
821.263, 4.478e+003
822.541, 4.619e+003
823.819, 4.486e+003
825.098, 4.566e+003
826.375, 4.591e+003
827.653, 4.567e+003
828.931, 4.668e+003
830.208, 4.596e+003
831.485, 4.619e+003
832.762, 4.675e+003
834.039, 4.621e+003
835.315, 4.683e+003
836.592, 4.680e+003
837.868, 4.719e+003
839.144, 4.814e+003
840.420, 4.759e+003
841.695, 4.848e+003
842.970, 4.829e+003
844.246, 4.916e+003
845.521, 5.011e+003
846.795, 4.879e+003
848.070, 5.034e+003
849.344, 4.982e+003
850.618, 4.959e+003
851.892, 5.104e+003
853.166, 5.018e+003
854.440, 5.184e+003
855.713, 5.185e+003
856.986, 5.255e+003
858.259, 5.493e+003
859.532, 5.456e+003
860.804, 5.505e+003
862.077, 5.518e+003
863.349, 5.360e+003
864.621, 5.517e+003
865.893, 5.222e+003
867.164, 5.225e+003
868.436, 5.201e+003
869.707, 5.086e+003
870.978, 5.189e+003
872.248, 5.108e+003
873.519, 5.073e+003
874.789, 5.166e+003
876.060, 5.104e+003
877.330, 5.232e+003
878.599, 5.187e+003
879.869, 5.159e+003
881.138, 5.232e+003
882.408, 5.075e+003
883.677, 5.207e+003
884.945, 5.229e+003
886.214, 5.140e+003
887.482, 5.340e+003
888.751, 5.331e+003
890.019, 5.376e+003
891.287, 5.415e+003
892.554, 5.419e+003
893.822, 5.564e+003
895.089, 5.559e+003
896.356, 5.706e+003
897.623, 5.803e+003
898.889, 5.896e+003
900.156, 6.031e+003
901.422, 6.057e+003
902.688, 6.124e+003
903.954, 6.199e+003
905.220, 6.008e+003
906.485, 6.102e+003
907.750, 5.948e+003
909.015, 5.862e+003
910.280, 5.827e+003
911.545, 5.646e+003
912.809, 5.638e+003
914.074, 5.660e+003
915.338, 5.484e+003
916.602, 5.574e+003
917.865, 5.388e+003
919.129, 5.348e+003
920.392, 5.370e+003
921.655, 5.157e+003
922.918, 5.202e+003
924.181, 5.224e+003
925.443, 5.129e+003
926.706, 5.194e+003
927.968, 5.082e+003
929.230, 5.269e+003
930.491, 5.199e+003
931.753, 5.169e+003
933.014, 5.270e+003
934.276, 5.209e+003
935.536, 5.199e+003
936.797, 5.234e+003
938.058, 5.191e+003
939.318, 5.359e+003
940.578, 5.300e+003
941.838, 5.372e+003
943.098, 5.527e+003
944.358, 5.401e+003
945.617, 5.617e+003
946.876, 5.642e+003
948.135, 5.624e+003
949.394, 5.752e+003
950.653, 5.594e+003
951.911, 5.670e+003
953.169, 5.627e+003
954.427, 5.529e+003
955.685, 5.605e+003
956.943, 5.394e+003
958.200, 5.479e+003
959.458, 5.518e+003
960.715, 5.336e+003
961.971, 5.484e+003
963.228, 5.426e+003
964.485, 5.470e+003
965.741, 5.718e+003
966.997, 5.729e+003
968.253, 6.087e+003
969.508, 6.289e+003
970.764, 6.567e+003
972.019, 7.000e+003
973.274, 7.119e+003
974.529, 7.041e+003
975.784, 6.754e+003
977.039, 6.388e+003
978.293, 6.229e+003
979.547, 5.977e+003
980.801, 5.850e+003
982.055, 5.863e+003
983.308, 5.666e+003
984.562, 5.620e+003
985.815, 5.581e+003
987.068, 5.564e+003
988.321, 5.730e+003
989.573, 5.474e+003
990.826, 5.476e+003
992.078, 5.481e+003
993.330, 5.463e+003
994.582, 5.550e+003
995.833, 5.469e+003
997.085, 5.588e+003
998.336, 5.808e+003
999.587, 5.914e+003
1000.838, 6.512e+003
1002.088, 6.609e+003
1003.339, 6.334e+003
1004.589, 6.318e+003
1005.839, 6.087e+003
1007.089, 6.158e+003
1008.339, 6.137e+003
1009.588, 5.974e+003
1010.838, 6.025e+003
1012.087, 5.752e+003
1013.336, 5.720e+003
1014.584, 5.700e+003
1015.833, 5.612e+003
1017.081, 5.762e+003
1018.330, 5.783e+003
1019.577, 5.930e+003
1020.825, 6.174e+003
1022.073, 6.144e+003
1023.320, 6.322e+003
1024.567, 6.439e+003
1025.814, 6.293e+003
1027.061, 6.505e+003
1028.308, 6.354e+003
1029.554, 6.326e+003
1030.800, 6.244e+003
1032.046, 5.967e+003
1033.292, 5.969e+003
1034.538, 5.859e+003
1035.783, 5.662e+003
1037.029, 5.675e+003
1038.274, 5.438e+003
1039.519, 5.490e+003
1040.763, 5.500e+003
1042.008, 5.441e+003
1043.252, 5.491e+003
1044.496, 5.434e+003
1045.740, 5.417e+003
1046.984, 5.530e+003
1048.228, 5.439e+003
1049.471, 5.540e+003
1050.714, 5.555e+003
1051.957, 5.448e+003
1053.200, 5.526e+003
1054.442, 5.492e+003
1055.685, 5.516e+003
1056.927, 5.575e+003
1058.169, 5.485e+003
1059.411, 5.518e+003
1060.652, 5.497e+003
1061.894, 5.511e+003
1063.135, 5.612e+003
1064.376, 5.523e+003
1065.617, 5.627e+003
1066.858, 5.687e+003
1068.098, 5.581e+003
1069.339, 5.772e+003
1070.579, 5.706e+003
1071.819, 5.754e+003
1073.058, 5.942e+003
1074.298, 5.944e+003
1075.537, 6.171e+003
1076.776, 6.248e+003
1078.015, 6.244e+003
1079.254, 6.502e+003
1080.493, 6.449e+003
1081.731, 6.615e+003
1082.969, 6.750e+003
1084.207, 6.475e+003
1085.445, 6.528e+003
1086.683, 6.582e+003
1087.920, 6.426e+003
1089.157, 6.478e+003
1090.394, 6.484e+003
1091.631, 6.602e+003
1092.868, 6.658e+003
1094.105, 6.616e+003
1095.341, 6.908e+003
1096.577, 6.994e+003
1097.813, 7.210e+003
1099.049, 7.495e+003
1100.284, 7.645e+003
1101.519, 7.902e+003
1102.755, 8.294e+003
1103.990, 8.455e+003
1105.224, 8.887e+003
1106.459, 8.877e+003
1107.693, 8.873e+003
1108.928, 1.000e+004
1110.162, 8.622e+003
1111.395, 8.384e+003
1112.629, 8.079e+003
1113.863, 7.680e+003
1115.096, 7.605e+003
1116.329, 7.186e+003
1117.562, 7.053e+003
1118.795, 7.031e+003
1120.027, 6.777e+003
1121.259, 6.805e+003
1122.492, 6.712e+003
1123.723, 6.515e+003
1124.955, 6.559e+003
1126.187, 6.270e+003
1127.418, 6.386e+003
1128.649, 6.301e+003
1129.880, 6.251e+003
1131.111, 6.252e+003
1132.342, 6.175e+003
1133.572, 6.059e+003
1134.802, 6.131e+003
1136.033, 6.015e+003
1137.262, 6.049e+003
1138.492, 5.943e+003
1139.722, 5.851e+003
1140.951, 6.002e+003
1142.180, 5.802e+003
1143.409, 5.802e+003
1144.638, 5.858e+003
1145.866, 5.772e+003
1147.095, 5.803e+003
1148.323, 5.848e+003
1149.551, 5.755e+003
1150.779, 5.896e+003
1152.006, 5.798e+003
1153.234, 5.800e+003
1154.461, 5.910e+003
1155.688, 5.820e+003
1156.915, 5.991e+003
1158.141, 5.980e+003
1159.368, 6.064e+003
1160.594, 6.169e+003
1161.820, 6.080e+003
1163.046, 6.098e+003
1164.272, 6.293e+003
1165.498, 6.253e+003
1166.723, 6.344e+003
1167.948, 6.520e+003
1169.173, 6.544e+003
1170.398, 6.693e+003
1171.623, 6.721e+003
1172.847, 6.853e+003
1174.071, 6.921e+003
1175.295, 6.907e+003
1176.519, 6.896e+003
1177.743, 6.809e+003
1178.966, 6.654e+003
1180.190, 6.701e+003
1181.413, 6.551e+003
1182.636, 6.442e+003
1183.858, 6.472e+003
1185.081, 6.237e+003
1186.303, 6.355e+003
1187.526, 6.265e+003
1188.748, 6.235e+003
1189.969, 6.294e+003
1191.191, 6.122e+003
1192.412, 6.096e+003
1193.634, 6.120e+003
1194.855, 6.026e+003
1196.076, 5.999e+003
1197.296, 6.068e+003
1198.517, 6.004e+003
1199.737, 6.117e+003
1200.957, 6.065e+003
1202.177, 6.018e+003
1203.397, 6.082e+003
1204.617, 5.971e+003
1205.836, 6.011e+003
1207.055, 6.082e+003
1208.274, 5.963e+003
1209.493, 6.050e+003
1210.712, 6.043e+003
1211.930, 6.054e+003
1213.148, 6.189e+003
1214.367, 6.060e+003
1215.584, 6.182e+003
1216.802, 6.152e+003
1218.020, 6.096e+003
1219.237, 6.213e+003
1220.454, 6.095e+003
1221.671, 6.076e+003
1222.888, 6.090e+003
1224.105, 6.009e+003
1225.321, 6.070e+003
1226.537, 6.167e+003
1227.753, 6.000e+003
1228.969, 6.233e+003
1230.185, 6.141e+003
1231.400, 6.123e+003
1232.616, 6.284e+003
1233.831, 6.136e+003
1235.046, 6.343e+003
1236.261, 6.462e+003
1237.475, 6.314e+003
1238.689, 6.422e+003
1239.904, 6.338e+003
1241.118, 6.350e+003
1242.332, 6.441e+003
1243.545, 6.293e+003
1244.759, 6.341e+003
1245.972, 6.422e+003
1247.185, 6.310e+003
1248.398, 6.553e+003
1249.611, 6.490e+003
1250.823, 6.336e+003
1252.036, 6.463e+003
1253.248, 6.347e+003
1254.460, 6.439e+003
1255.671, 6.408e+003
1256.883, 6.300e+003
1258.095, 6.448e+003
1259.306, 6.397e+003
1260.517, 6.310e+003
1261.728, 6.556e+003
1262.938, 6.362e+003
1264.149, 6.398e+003
1265.359, 6.578e+003
1266.569, 6.431e+003
1267.779, 6.663e+003
1268.989, 6.609e+003
1270.199, 6.555e+003
1271.408, 6.836e+003
1272.617, 6.661e+003
1273.826, 6.703e+003
1275.035, 6.749e+003
1276.244, 6.657e+003
1277.452, 6.680e+003
1278.661, 6.653e+003
1279.869, 6.482e+003
1281.077, 6.620e+003
1282.285, 6.521e+003
1283.492, 6.504e+003
1284.700, 6.502e+003
1285.907, 6.367e+003
1287.114, 6.492e+003
1288.321, 6.454e+003
1289.527, 6.452e+003
1290.734, 6.550e+003
1291.940, 6.629e+003
1293.146, 6.627e+003
1294.352, 6.769e+003
1295.558, 6.569e+003
1296.763, 6.589e+003
1297.969, 6.718e+003
1299.174, 6.464e+003
1300.379, 6.578e+003
1301.584, 6.517e+003
1302.788, 6.484e+003
1303.993, 6.649e+003
1305.197, 6.504e+003
1306.401, 6.625e+003
1307.605, 6.845e+003
1308.809, 6.681e+003
1310.013, 6.897e+003
1311.216, 6.919e+003
1312.419, 6.843e+003
1313.622, 6.958e+003
1314.825, 6.926e+003
1316.028, 6.855e+003
1317.230, 7.032e+003
1318.432, 6.942e+003
1319.634, 6.904e+003
1320.836, 7.002e+003
1322.038, 6.783e+003
1323.240, 6.890e+003
1324.441, 6.899e+003
1325.642, 6.670e+003
1326.843, 6.806e+003
1328.044, 6.616e+003
1329.245, 6.590e+003
1330.445, 6.636e+003
1331.645, 6.425e+003
1332.845, 6.509e+003
1334.045, 6.574e+003
1335.245, 6.338e+003
1336.445, 6.479e+003
1337.644, 6.471e+003
1338.843, 6.348e+003
1340.042, 6.428e+003
1341.241, 6.375e+003
1342.440, 6.419e+003
1343.638, 6.510e+003
1344.836, 6.383e+003
1346.034, 6.497e+003
1347.232, 6.493e+003
1348.430, 6.406e+003
1349.628, 6.582e+003
1350.825, 6.492e+003
1352.022, 6.508e+003
1353.219, 6.563e+003
1354.416, 6.388e+003
1355.613, 6.482e+003
1356.809, 6.512e+003
1358.005, 6.369e+003
1359.202, 6.516e+003
1360.398, 6.478e+003
1361.593, 6.475e+003
1362.789, 6.467e+003
1363.984, 6.429e+003
1365.179, 6.488e+003
1366.374, 6.545e+003
1367.569, 6.484e+003
1368.764, 6.560e+003
1369.958, 6.595e+003
1371.153, 6.534e+003
1372.347, 6.613e+003
1373.541, 6.620e+003
1374.735, 6.571e+003
1375.928, 6.718e+003
1377.122, 6.613e+003
1378.315, 6.676e+003
1379.508, 6.822e+003
1380.701, 6.679e+003
1381.893, 6.770e+003
1383.086, 6.737e+003
1384.278, 6.720e+003
1385.470, 6.856e+003
1386.662, 6.768e+003
1387.854, 6.706e+003
1389.046, 6.779e+003
1390.237, 6.726e+003
1391.428, 6.718e+003
1392.619, 6.768e+003
1393.810, 6.659e+003
1395.001, 6.685e+003
1396.191, 6.710e+003
1397.382, 6.580e+003
1398.572, 6.651e+003
1399.762, 6.599e+003
1400.952, 6.650e+003
1402.141, 6.761e+003
1403.331, 6.619e+003
1404.520, 6.727e+003
1405.709, 6.764e+003
1406.898, 6.644e+003
1408.087, 6.753e+003
1409.275, 6.772e+003
1410.464, 6.664e+003
1411.652, 6.824e+003
1412.840, 6.768e+003
1414.028, 6.765e+003
1415.215, 6.954e+003
1416.403, 6.760e+003
1417.590, 6.864e+003
1418.777, 6.912e+003
1419.964, 6.784e+003
1421.151, 6.949e+003
1422.338, 6.952e+003
1423.524, 6.856e+003
1424.710, 7.046e+003
1425.896, 6.933e+003
1427.082, 7.027e+003
1428.268, 7.093e+003
1429.453, 7.125e+003
1430.639, 7.177e+003
1431.824, 7.267e+003
1433.009, 7.185e+003
1434.194, 7.385e+003
1435.378, 7.501e+003
1436.563, 7.417e+003
1437.747, 7.872e+003
1438.931, 7.831e+003
1440.115, 8.072e+003
1441.299, 8.427e+003
1442.482, 8.255e+003
1443.666, 8.556e+003
1444.849, 8.643e+003
1446.032, 8.426e+003
1447.215, 8.753e+003
1448.397, 8.872e+003
1449.580, 8.613e+003
1450.762, 9.092e+003
1451.944, 8.997e+003
1453.126, 8.750e+003
1454.308, 9.196e+003
1455.490, 8.963e+003
1456.671, 9.024e+003
1457.852, 9.102e+003
1459.033, 8.750e+003
1460.214, 8.953e+003
1461.395, 8.748e+003
1462.575, 8.419e+003
1463.756, 8.622e+003
1464.936, 8.395e+003
1466.116, 8.122e+003
1467.296, 8.238e+003
1468.475, 8.007e+003
1469.655, 7.854e+003
1470.834, 7.913e+003
1472.013, 7.731e+003
1473.192, 7.779e+003
1474.371, 7.668e+003
1475.550, 7.566e+003
1476.728, 7.642e+003
1477.906, 7.640e+003
1479.084, 7.462e+003
1480.262, 7.714e+003
1481.440, 7.621e+003
1482.617, 7.535e+003
1483.795, 7.641e+003
1484.972, 7.462e+003
1486.149, 7.488e+003
1487.326, 7.398e+003
1488.502, 7.294e+003
1489.679, 7.318e+003
1490.855, 7.225e+003
1492.031, 7.086e+003
1493.207, 7.233e+003
1494.383, 7.123e+003
1495.559, 7.107e+003
1496.734, 7.115e+003
1497.909, 7.056e+003
1499.084, 6.996e+003
1500.259, 7.093e+003
1501.434, 6.950e+003
1502.608, 7.043e+003
1503.783, 7.264e+003
1504.957, 1.960e+002
##END=



