##NAMES=Danburite
##RRUFFID=R040013
##IDEAL CHEMISTRY=CaB_2_Si_2_O_8_
##LOCALITY=Charcas, San Luis Potosi, Mexico
##OWNER=RRUFF
##SOURCE=Marcus Origlieri
##DESCRIPTION=Colorless prismatic single crystal
##STATUS=The identification of this mineral has been confirmed by X-ray diffraction and chemical analysis
##URL=rruff.info/R040013
##MEASURED CHEMISTRY=Ca_1.00_B_2.00_Si_2.00_O_8_
##PIN_ID=M00010
##ORIENTATION=Laser parallel to a* (1 0 0). Fiducial mark perpendicular to laser is parallel to b [0 1 0]
26.288, 1.272e+003
27.694, 1.223e+003
29.099, 1.248e+003
30.504, 1.257e+003
31.909, 1.250e+003
33.313, 1.258e+003
34.717, 1.254e+003
36.121, 1.235e+003
37.525, 1.242e+003
38.929, 1.245e+003
40.332, 1.198e+003
41.735, 1.204e+003
43.138, 1.180e+003
44.541, 1.175e+003
45.943, 1.148e+003
47.345, 1.143e+003
48.747, 1.132e+003
50.149, 1.116e+003
51.551, 1.099e+003
52.952, 1.019e+003
54.353, 1.012e+003
55.754, 1.000e+003
57.155, 1.009e+003
58.555, 9.970e+002
59.955, 9.560e+002
61.355, 9.370e+002
62.755, 9.210e+002
64.154, 9.150e+002
65.553, 9.090e+002
66.952, 9.110e+002
68.351, 9.130e+002
69.750, 9.260e+002
71.148, 9.630e+002
72.546, 9.890e+002
73.944, 9.830e+002
75.342, 1.008e+003
76.739, 9.920e+002
78.136, 1.043e+003
79.533, 1.083e+003
80.930, 1.128e+003
82.327, 1.175e+003
83.723, 1.217e+003
85.119, 1.218e+003
86.515, 1.253e+003
87.910, 1.268e+003
89.306, 1.300e+003
90.701, 1.311e+003
92.096, 1.312e+003
93.490, 1.364e+003
94.885, 1.393e+003
96.279, 1.430e+003
97.673, 1.447e+003
99.067, 1.439e+003
100.461, 1.506e+003
101.854, 1.501e+003
103.247, 1.575e+003
104.640, 1.598e+003
106.032, 1.613e+003
107.425, 1.656e+003
108.817, 1.692e+003
110.209, 1.893e+003
111.601, 3.231e+003
112.992, 5.427e+003
114.384, 3.142e+003
115.775, 2.257e+003
117.166, 2.403e+003
118.556, 2.834e+003
119.947, 3.888e+003
121.337, 5.712e+003
122.727, 7.440e+003
124.116, 7.714e+003
125.506, 7.872e+003
126.895, 9.482e+003
128.284, 9.805e+003
129.673, 7.402e+003
131.062, 4.612e+003
132.450, 3.149e+003
133.838, 2.541e+003
135.226, 2.390e+003
136.614, 2.490e+003
138.001, 2.595e+003
139.388, 2.376e+003
140.775, 2.072e+003
142.162, 1.918e+003
143.549, 1.850e+003
144.935, 1.862e+003
146.321, 1.920e+003
147.707, 2.028e+003
149.093, 2.448e+003
150.478, 2.584e+003
151.863, 2.294e+003
153.248, 2.028e+003
154.633, 1.967e+003
156.018, 1.980e+003
157.402, 2.112e+003
158.786, 2.631e+003
160.170, 3.314e+003
161.554, 4.994e+003
162.937, 8.930e+003
164.320, 1.193e+004
165.703, 9.424e+003
167.086, 5.406e+003
168.469, 3.215e+003
169.851, 2.348e+003
171.233, 1.977e+003
172.615, 1.883e+003
173.996, 1.826e+003
175.378, 1.874e+003
176.759, 1.955e+003
178.140, 2.241e+003
179.521, 2.608e+003
180.901, 2.847e+003
182.281, 2.666e+003
183.662, 2.255e+003
185.041, 2.091e+003
186.421, 2.097e+003
187.800, 2.346e+003
189.180, 2.650e+003
190.558, 2.765e+003
191.937, 2.573e+003
193.316, 2.316e+003
194.694, 2.149e+003
196.072, 2.132e+003
197.450, 2.224e+003
198.827, 2.423e+003
200.205, 2.983e+003
201.582, 3.738e+003
202.959, 4.066e+003
204.336, 3.632e+003
205.712, 3.127e+003
207.088, 3.110e+003
208.465, 3.570e+003
209.840, 3.774e+003
211.216, 3.387e+003
212.591, 2.618e+003
213.967, 2.219e+003
215.341, 2.011e+003
216.716, 1.904e+003
218.091, 1.816e+003
219.465, 1.827e+003
220.839, 1.815e+003
222.213, 1.814e+003
223.586, 1.922e+003
224.960, 2.061e+003
226.333, 2.048e+003
227.706, 1.951e+003
229.079, 1.846e+003
230.451, 1.833e+003
231.823, 1.870e+003
233.195, 1.922e+003
234.567, 2.022e+003
235.939, 2.188e+003
237.310, 2.492e+003
238.682, 3.049e+003
240.052, 4.062e+003
241.423, 5.608e+003
242.794, 7.930e+003
244.164, 8.740e+003
245.534, 7.605e+003
246.904, 5.625e+003
248.274, 4.182e+003
249.643, 3.328e+003
251.012, 2.820e+003
252.381, 2.573e+003
253.750, 2.410e+003
255.118, 2.233e+003
256.487, 2.177e+003
257.855, 2.040e+003
259.223, 1.999e+003
260.590, 1.941e+003
261.958, 1.899e+003
263.325, 1.908e+003
264.692, 1.897e+003
266.059, 1.879e+003
267.425, 1.881e+003
268.791, 1.893e+003
270.158, 1.893e+003
271.523, 1.927e+003
272.889, 1.978e+003
274.255, 2.105e+003
275.620, 2.318e+003
276.985, 2.372e+003
278.350, 2.223e+003
279.714, 2.044e+003
281.078, 1.918e+003
282.443, 1.879e+003
283.806, 1.852e+003
285.170, 1.851e+003
286.534, 1.825e+003
287.897, 1.843e+003
289.260, 1.903e+003
290.623, 1.989e+003
291.985, 2.081e+003
293.348, 2.204e+003
294.710, 2.270e+003
296.072, 2.157e+003
297.433, 2.142e+003
298.795, 2.159e+003
300.156, 2.183e+003
301.517, 2.375e+003
302.878, 2.695e+003
304.239, 2.966e+003
305.599, 3.136e+003
306.959, 3.414e+003
308.319, 3.880e+003
309.679, 4.427e+003
311.038, 4.410e+003
312.398, 4.017e+003
313.757, 3.454e+003
315.116, 2.886e+003
316.474, 2.512e+003
317.833, 2.261e+003
319.191, 2.121e+003
320.549, 2.075e+003
321.907, 2.034e+003
323.264, 2.026e+003
324.622, 2.007e+003
325.979, 2.024e+003
327.336, 2.020e+003
328.692, 2.114e+003
330.049, 2.066e+003
331.405, 2.122e+003
332.761, 2.158e+003
334.117, 2.288e+003
335.473, 2.323e+003
336.828, 2.493e+003
338.183, 2.791e+003
339.538, 3.272e+003
340.893, 4.217e+003
342.247, 5.727e+003
343.602, 8.137e+003
344.956, 1.167e+004
346.310, 1.381e+004
347.663, 1.261e+004
349.017, 9.380e+003
350.370, 6.508e+003
351.723, 4.697e+003
353.076, 3.709e+003
354.428, 3.189e+003
355.780, 2.772e+003
357.133, 2.543e+003
358.484, 2.406e+003
359.836, 2.312e+003
361.188, 2.254e+003
362.539, 2.184e+003
363.890, 2.138e+003
365.241, 2.086e+003
366.591, 2.102e+003
367.942, 2.016e+003
369.292, 2.045e+003
370.642, 2.004e+003
371.992, 2.016e+003
373.341, 2.010e+003
374.691, 1.979e+003
376.040, 1.977e+003
377.388, 1.964e+003
378.737, 1.938e+003
380.086, 1.974e+003
381.434, 1.950e+003
382.782, 1.993e+003
384.130, 1.948e+003
385.477, 1.980e+003
386.825, 2.013e+003
388.172, 2.080e+003
389.519, 2.084e+003
390.865, 2.195e+003
392.212, 2.353e+003
393.558, 2.305e+003
394.904, 2.291e+003
396.250, 2.176e+003
397.596, 2.101e+003
398.941, 2.094e+003
400.286, 2.087e+003
401.631, 2.090e+003
402.976, 2.135e+003
404.321, 2.192e+003
405.665, 2.193e+003
407.009, 2.197e+003
408.353, 2.085e+003
409.697, 2.109e+003
411.040, 2.161e+003
412.384, 2.165e+003
413.727, 2.249e+003
415.070, 2.311e+003
416.412, 2.432e+003
417.755, 2.556e+003
419.097, 2.842e+003
420.439, 3.124e+003
421.781, 3.479e+003
423.122, 3.596e+003
424.464, 3.495e+003
425.805, 3.173e+003
427.146, 2.884e+003
428.486, 2.547e+003
429.827, 2.360e+003
431.167, 2.230e+003
432.507, 2.179e+003
433.847, 2.142e+003
435.187, 2.145e+003
436.526, 2.233e+003
437.865, 2.328e+003
439.204, 2.378e+003
440.543, 2.513e+003
441.882, 2.352e+003
443.220, 2.304e+003
444.558, 2.187e+003
445.896, 2.118e+003
447.234, 2.062e+003
448.572, 2.065e+003
449.909, 2.056e+003
451.246, 2.048e+003
452.583, 2.045e+003
453.919, 2.154e+003
455.256, 2.158e+003
456.592, 2.252e+003
457.928, 2.280e+003
459.264, 2.345e+003
460.600, 2.339e+003
461.935, 2.272e+003
463.270, 2.244e+003
464.605, 2.240e+003
465.940, 2.208e+003
467.274, 2.251e+003
468.609, 2.300e+003
469.943, 2.456e+003
471.277, 2.603e+003
472.610, 2.968e+003
473.944, 3.546e+003
475.277, 4.618e+003
476.610, 6.340e+003
477.943, 7.919e+003
479.275, 7.963e+003
480.608, 6.437e+003
481.940, 4.770e+003
483.272, 3.614e+003
484.604, 3.036e+003
485.935, 2.672e+003
487.267, 2.497e+003
488.598, 2.364e+003
489.929, 2.329e+003
491.260, 2.255e+003
492.590, 2.229e+003
493.920, 2.164e+003
495.250, 2.132e+003
496.580, 2.174e+003
497.910, 2.116e+003
499.239, 2.123e+003
500.569, 2.076e+003
501.898, 2.103e+003
503.226, 2.045e+003
504.555, 2.095e+003
505.883, 2.069e+003
507.212, 2.094e+003
508.540, 2.143e+003
509.867, 2.105e+003
511.195, 2.074e+003
512.522, 2.119e+003
513.849, 2.076e+003
515.176, 2.117e+003
516.503, 2.124e+003
517.829, 2.116e+003
519.156, 2.152e+003
520.482, 2.128e+003
521.808, 2.132e+003
523.133, 2.156e+003
524.459, 2.128e+003
525.784, 2.105e+003
527.109, 2.172e+003
528.434, 2.170e+003
529.758, 2.164e+003
531.083, 2.158e+003
532.407, 2.127e+003
533.731, 2.156e+003
535.055, 2.228e+003
536.378, 2.162e+003
537.701, 2.163e+003
539.025, 2.203e+003
540.348, 2.184e+003
541.670, 2.184e+003
542.993, 2.176e+003
544.315, 2.187e+003
545.637, 2.241e+003
546.959, 2.250e+003
548.281, 2.259e+003
549.602, 2.252e+003
550.923, 2.295e+003
552.244, 2.352e+003
553.565, 2.375e+003
554.886, 2.429e+003
556.206, 2.476e+003
557.526, 2.564e+003
558.846, 2.743e+003
560.166, 3.022e+003
561.486, 3.136e+003
562.805, 3.088e+003
564.124, 2.875e+003
565.443, 2.746e+003
566.762, 2.636e+003
568.080, 2.578e+003
569.399, 2.558e+003
570.717, 2.600e+003
572.035, 2.604e+003
573.352, 2.644e+003
574.670, 2.652e+003
575.987, 2.662e+003
577.304, 2.748e+003
578.621, 2.801e+003
579.938, 2.838e+003
581.254, 2.892e+003
582.570, 2.954e+003
583.886, 3.033e+003
585.202, 3.071e+003
586.518, 3.188e+003
587.833, 3.312e+003
589.148, 3.483e+003
590.463, 3.643e+003
591.778, 3.794e+003
593.093, 4.096e+003
594.407, 4.366e+003
595.721, 4.814e+003
597.035, 5.445e+003
598.349, 6.298e+003
599.662, 7.367e+003
600.976, 9.031e+003
602.289, 1.149e+004
603.602, 1.523e+004
604.914, 2.097e+004
606.227, 2.891e+004
607.539, 3.598e+004
608.851, 3.871e+004
610.163, 3.533e+004
611.475, 2.769e+004
612.786, 2.146e+004
614.097, 1.606e+004
615.408, 1.215e+004
616.719, 9.928e+003
618.030, 8.221e+003
619.340, 7.154e+003
620.651, 6.486e+003
621.961, 6.109e+003
623.270, 6.162e+003
624.580, 6.281e+003
625.889, 6.400e+003
627.199, 6.274e+003
628.507, 5.660e+003
629.816, 5.046e+003
631.125, 4.567e+003
632.433, 4.146e+003
633.741, 3.906e+003
635.049, 3.658e+003
636.357, 3.505e+003
637.664, 3.362e+003
638.972, 3.336e+003
640.279, 3.180e+003
641.586, 3.114e+003
642.893, 3.092e+003
644.199, 3.056e+003
645.505, 2.984e+003
646.811, 2.942e+003
648.117, 2.859e+003
649.423, 2.862e+003
650.728, 2.828e+003
652.034, 2.807e+003
653.339, 2.779e+003
654.644, 2.741e+003
655.948, 2.714e+003
657.253, 2.637e+003
658.557, 2.682e+003
659.861, 2.667e+003
661.165, 2.655e+003
662.468, 2.656e+003
663.772, 2.624e+003
665.075, 2.606e+003
666.378, 2.650e+003
667.681, 2.613e+003
668.983, 2.631e+003
670.286, 2.620e+003
671.588, 2.596e+003
672.890, 2.636e+003
674.192, 2.557e+003
675.493, 2.597e+003
676.795, 2.595e+003
678.096, 2.564e+003
679.397, 2.534e+003
680.697, 2.608e+003
681.998, 2.581e+003
683.298, 2.565e+003
684.598, 2.551e+003
685.898, 2.511e+003
687.198, 2.564e+003
688.498, 2.610e+003
689.797, 2.608e+003
691.096, 2.594e+003
692.395, 2.558e+003
693.694, 2.592e+003
694.992, 2.531e+003
696.290, 2.599e+003
697.589, 2.586e+003
698.886, 2.576e+003
700.184, 2.582e+003
701.482, 2.582e+003
702.779, 2.555e+003
704.076, 2.591e+003
705.373, 2.585e+003
706.669, 2.611e+003
707.966, 2.638e+003
709.262, 2.604e+003
710.558, 2.617e+003
711.854, 2.651e+003
713.150, 2.660e+003
714.445, 2.745e+003
715.740, 2.683e+003
717.035, 2.709e+003
718.330, 2.682e+003
719.625, 2.628e+003
720.919, 2.696e+003
722.214, 2.631e+003
723.508, 2.617e+003
724.801, 2.634e+003
726.095, 2.591e+003
727.388, 2.629e+003
728.682, 2.613e+003
729.975, 2.638e+003
731.267, 2.608e+003
732.560, 2.605e+003
733.852, 2.630e+003
735.145, 2.587e+003
736.437, 2.628e+003
737.728, 2.611e+003
739.020, 2.615e+003
740.311, 2.646e+003
741.603, 2.577e+003
742.894, 2.613e+003
744.184, 2.642e+003
745.475, 2.665e+003
746.765, 2.671e+003
748.055, 2.648e+003
749.345, 2.669e+003
750.635, 2.652e+003
751.925, 2.646e+003
753.214, 2.690e+003
754.503, 2.648e+003
755.792, 2.663e+003
757.081, 2.713e+003
758.370, 2.688e+003
759.658, 2.659e+003
760.946, 2.717e+003
762.234, 2.720e+003
763.522, 2.700e+003
764.809, 2.723e+003
766.097, 2.758e+003
767.384, 2.741e+003
768.671, 2.780e+003
769.958, 2.876e+003
771.244, 2.854e+003
772.530, 2.914e+003
773.817, 2.908e+003
775.102, 2.957e+003
776.388, 2.939e+003
777.674, 2.894e+003
778.959, 2.822e+003
780.244, 2.791e+003
781.529, 2.729e+003
782.814, 2.713e+003
784.098, 2.730e+003
785.383, 2.751e+003
786.667, 2.688e+003
787.951, 2.704e+003
789.235, 2.728e+003
790.518, 2.694e+003
791.801, 2.718e+003
793.084, 2.717e+003
794.367, 2.734e+003
795.650, 2.702e+003
796.933, 2.718e+003
798.215, 2.717e+003
799.497, 2.740e+003
800.779, 2.708e+003
802.061, 2.740e+003
803.342, 2.743e+003
804.624, 2.734e+003
805.905, 2.703e+003
807.186, 2.784e+003
808.466, 2.741e+003
809.747, 2.740e+003
811.027, 2.732e+003
812.307, 2.714e+003
813.587, 2.726e+003
814.867, 2.769e+003
816.146, 2.741e+003
817.426, 2.773e+003
818.705, 2.839e+003
819.984, 2.778e+003
821.263, 2.767e+003
822.541, 2.773e+003
823.819, 2.812e+003
825.098, 2.768e+003
826.375, 2.783e+003
827.653, 2.803e+003
828.931, 2.754e+003
830.208, 2.805e+003
831.485, 2.807e+003
832.762, 2.802e+003
834.039, 2.836e+003
835.315, 2.819e+003
836.592, 2.840e+003
837.868, 2.830e+003
839.144, 2.818e+003
840.420, 2.880e+003
841.695, 2.858e+003
842.970, 2.906e+003
844.246, 2.926e+003
845.521, 2.876e+003
846.795, 2.877e+003
848.070, 2.906e+003
849.344, 2.898e+003
850.618, 2.905e+003
851.892, 2.903e+003
853.166, 2.860e+003
854.440, 2.916e+003
855.713, 2.926e+003
856.986, 3.009e+003
858.259, 2.958e+003
859.532, 2.936e+003
860.804, 2.957e+003
862.077, 3.019e+003
863.349, 2.936e+003
864.621, 3.008e+003
865.893, 3.043e+003
867.164, 2.932e+003
868.436, 2.959e+003
869.707, 3.016e+003
870.978, 3.023e+003
872.248, 3.013e+003
873.519, 3.065e+003
874.789, 3.015e+003
876.060, 3.065e+003
877.330, 3.029e+003
878.599, 3.012e+003
879.869, 3.054e+003
881.138, 3.066e+003
882.408, 3.079e+003
883.677, 2.999e+003
884.945, 3.057e+003
886.214, 3.084e+003
887.482, 3.145e+003
888.751, 3.139e+003
890.019, 3.131e+003
891.287, 3.193e+003
892.554, 3.247e+003
893.822, 3.277e+003
895.089, 3.336e+003
896.356, 3.419e+003
897.623, 3.458e+003
898.889, 3.524e+003
900.156, 3.564e+003
901.422, 3.609e+003
902.688, 3.663e+003
903.954, 3.676e+003
905.220, 3.666e+003
906.485, 3.696e+003
907.750, 3.733e+003
909.015, 3.809e+003
910.280, 3.889e+003
911.545, 4.000e+003
912.809, 4.099e+003
914.074, 4.179e+003
915.338, 4.291e+003
916.602, 4.200e+003
917.865, 4.218e+003
919.129, 4.203e+003
920.392, 4.127e+003
921.655, 4.120e+003
922.918, 4.032e+003
924.181, 3.921e+003
925.443, 3.887e+003
926.706, 3.795e+003
927.968, 3.732e+003
929.230, 3.662e+003
930.491, 3.618e+003
931.753, 3.698e+003
933.014, 3.715e+003
934.276, 3.781e+003
935.536, 3.836e+003
936.797, 3.996e+003
938.058, 4.099e+003
939.318, 4.259e+003
940.578, 4.577e+003
941.838, 4.812e+003
943.098, 5.155e+003
944.358, 5.557e+003
945.617, 5.836e+003
946.876, 5.871e+003
948.135, 5.825e+003
949.394, 5.577e+003
950.653, 5.257e+003
951.911, 4.932e+003
953.169, 4.536e+003
954.427, 4.427e+003
955.685, 4.288e+003
956.943, 4.200e+003
958.200, 4.142e+003
959.458, 4.113e+003
960.715, 4.171e+003
961.971, 4.206e+003
963.228, 4.442e+003
964.485, 4.694e+003
965.741, 4.952e+003
966.997, 5.539e+003
968.253, 6.236e+003
969.508, 7.043e+003
970.764, 7.950e+003
972.019, 8.171e+003
973.274, 7.997e+003
974.529, 7.270e+003
975.784, 6.357e+003
977.039, 5.945e+003
978.293, 5.279e+003
979.547, 4.948e+003
980.801, 4.673e+003
982.055, 4.446e+003
983.308, 4.394e+003
984.562, 4.180e+003
985.815, 4.150e+003
987.068, 4.144e+003
988.321, 3.989e+003
989.573, 3.999e+003
990.826, 3.980e+003
992.078, 3.945e+003
993.330, 4.019e+003
994.582, 3.980e+003
995.833, 4.046e+003
997.085, 4.118e+003
998.336, 4.212e+003
999.587, 4.271e+003
1000.838, 4.457e+003
1002.088, 4.657e+003
1003.339, 5.097e+003
1004.589, 5.586e+003
1005.839, 6.258e+003
1007.089, 6.582e+003
1008.339, 6.386e+003
1009.588, 5.835e+003
1010.838, 5.056e+003
1012.087, 4.610e+003
1013.336, 4.308e+003
1014.584, 4.068e+003
1015.833, 3.971e+003
1017.081, 3.857e+003
1018.330, 3.840e+003
1019.577, 3.764e+003
1020.825, 3.769e+003
1022.073, 3.770e+003
1023.320, 3.758e+003
1024.567, 3.731e+003
1025.814, 3.769e+003
1027.061, 3.758e+003
1028.308, 3.766e+003
1029.554, 3.762e+003
1030.800, 3.618e+003
1032.046, 3.627e+003
1033.292, 3.578e+003
1034.538, 3.523e+003
1035.783, 3.538e+003
1037.029, 3.553e+003
1038.274, 3.512e+003
1039.519, 3.538e+003
1040.763, 3.506e+003
1042.008, 3.504e+003
1043.252, 3.518e+003
1044.496, 3.481e+003
1045.740, 3.511e+003
1046.984, 3.510e+003
1048.228, 3.478e+003
1049.471, 3.412e+003
1050.714, 3.518e+003
1051.957, 3.500e+003
1053.200, 3.515e+003
1054.442, 3.506e+003
1055.685, 3.476e+003
1056.927, 3.460e+003
1058.169, 3.516e+003
1059.411, 3.462e+003
1060.652, 3.472e+003
1061.894, 3.498e+003
1063.135, 3.459e+003
1064.376, 3.540e+003
1065.617, 3.498e+003
1066.858, 3.447e+003
1068.098, 3.588e+003
1069.339, 3.602e+003
1070.579, 3.544e+003
1071.819, 3.636e+003
1073.058, 3.614e+003
1074.298, 3.686e+003
1075.537, 3.671e+003
1076.776, 3.676e+003
1078.015, 3.755e+003
1079.254, 3.726e+003
1080.493, 3.720e+003
1081.731, 3.770e+003
1082.969, 3.726e+003
1084.207, 3.742e+003
1085.445, 3.780e+003
1086.683, 3.814e+003
1087.920, 3.867e+003
1089.157, 3.888e+003
1090.394, 3.941e+003
1091.631, 3.978e+003
1092.868, 3.974e+003
1094.105, 4.143e+003
1095.341, 4.161e+003
1096.577, 4.329e+003
1097.813, 4.363e+003
1099.049, 4.547e+003
1100.284, 4.721e+003
1101.519, 4.869e+003
1102.755, 4.842e+003
1103.990, 5.088e+003
1105.224, 5.090e+003
1106.459, 5.089e+003
1107.693, 5.056e+003
1108.928, 4.872e+003
1110.162, 4.775e+003
1111.395, 4.708e+003
1112.629, 4.570e+003
1113.863, 4.462e+003
1115.096, 4.336e+003
1116.329, 4.216e+003
1117.562, 4.222e+003
1118.795, 4.065e+003
1120.027, 4.101e+003
1121.259, 4.066e+003
1122.492, 3.999e+003
1123.723, 3.976e+003
1124.955, 3.863e+003
1126.187, 3.825e+003
1127.418, 3.904e+003
1128.649, 3.820e+003
1129.880, 3.774e+003
1131.111, 3.769e+003
1132.342, 3.743e+003
1133.572, 3.696e+003
1134.802, 3.676e+003
1136.033, 3.729e+003
1137.262, 3.686e+003
1138.492, 3.645e+003
1139.722, 3.701e+003
1140.951, 3.633e+003
1142.180, 3.671e+003
1143.409, 3.700e+003
1144.638, 3.619e+003
1145.866, 3.633e+003
1147.095, 3.646e+003
1148.323, 3.591e+003
1149.551, 3.646e+003
1150.779, 3.601e+003
1152.006, 3.613e+003
1153.234, 3.607e+003
1154.461, 3.584e+003
1155.688, 3.728e+003
1156.915, 3.636e+003
1158.141, 3.644e+003
1159.368, 3.734e+003
1160.594, 3.655e+003
1161.820, 3.706e+003
1163.046, 3.748e+003
1164.272, 3.689e+003
1165.498, 3.739e+003
1166.723, 3.722e+003
1167.948, 3.738e+003
1169.173, 3.820e+003
1170.398, 3.851e+003
1171.623, 3.869e+003
1172.847, 3.941e+003
1174.071, 3.952e+003
1175.295, 3.935e+003
1176.519, 3.907e+003
1177.743, 3.855e+003
1178.966, 3.891e+003
1180.190, 3.817e+003
1181.413, 3.856e+003
1182.636, 3.759e+003
1183.858, 3.761e+003
1185.081, 3.791e+003
1186.303, 3.767e+003
1187.526, 3.743e+003
1188.748, 3.786e+003
1189.969, 3.752e+003
1191.191, 3.783e+003
1192.412, 3.737e+003
1193.634, 3.712e+003
1194.855, 3.769e+003
1196.076, 3.727e+003
1197.296, 3.755e+003
1198.517, 3.756e+003
1199.737, 3.733e+003
1200.957, 3.687e+003
1202.177, 3.730e+003
1203.397, 3.741e+003
1204.617, 3.761e+003
1205.836, 3.728e+003
1207.055, 3.738e+003
1208.274, 3.727e+003
1209.493, 3.657e+003
1210.712, 3.758e+003
1211.930, 3.783e+003
1213.148, 3.710e+003
1214.367, 3.787e+003
1215.584, 3.781e+003
1216.802, 3.777e+003
1218.020, 3.782e+003
1219.237, 3.767e+003
1220.454, 3.769e+003
1221.671, 3.734e+003
1222.888, 3.737e+003
1224.105, 3.762e+003
1225.321, 3.690e+003
1226.537, 3.748e+003
1227.753, 3.739e+003
1228.969, 3.754e+003
1230.185, 3.747e+003
1231.400, 3.812e+003
1232.616, 3.785e+003
1233.831, 3.832e+003
1235.046, 3.788e+003
1236.261, 3.825e+003
1237.475, 3.855e+003
1238.689, 3.806e+003
1239.904, 3.804e+003
1241.118, 3.808e+003
1242.332, 3.804e+003
1243.545, 3.811e+003
1244.759, 3.786e+003
1245.972, 3.808e+003
1247.185, 3.761e+003
1248.398, 3.811e+003
1249.611, 3.812e+003
1250.823, 3.790e+003
1252.036, 3.818e+003
1253.248, 3.868e+003
1254.460, 3.848e+003
1255.671, 3.892e+003
1256.883, 3.867e+003
1258.095, 3.871e+003
1259.306, 3.816e+003
1260.517, 3.822e+003
1261.728, 3.849e+003
1262.938, 3.826e+003
1264.149, 3.865e+003
1265.359, 3.801e+003
1266.569, 3.883e+003
1267.779, 3.836e+003
1268.989, 3.828e+003
1270.199, 3.889e+003
1271.408, 3.838e+003
1272.617, 3.820e+003
1273.826, 3.820e+003
1275.035, 3.857e+003
1276.244, 3.820e+003
1277.452, 3.875e+003
1278.661, 3.787e+003
1279.869, 3.838e+003
1281.077, 3.829e+003
1282.285, 3.865e+003
1283.492, 3.824e+003
1284.700, 3.826e+003
1285.907, 3.817e+003
1287.114, 3.880e+003
1288.321, 3.855e+003
1289.527, 3.811e+003
1290.734, 3.879e+003
1291.940, 3.892e+003
1293.146, 3.937e+003
1294.352, 3.839e+003
1295.558, 3.863e+003
1296.763, 3.896e+003
1297.969, 3.870e+003
1299.174, 3.850e+003
1300.379, 3.918e+003
1301.584, 3.868e+003
1302.788, 3.930e+003
1303.993, 3.852e+003
1305.197, 3.892e+003
1306.401, 3.904e+003
1307.605, 3.958e+003
1308.809, 3.969e+003
1310.013, 3.981e+003
1311.216, 3.904e+003
1312.419, 3.933e+003
1313.622, 3.944e+003
1314.825, 3.993e+003
1316.028, 3.948e+003
1317.230, 3.952e+003
1318.432, 3.968e+003
1319.634, 3.992e+003
1320.836, 3.977e+003
1322.038, 3.976e+003
1323.240, 3.970e+003
1324.441, 3.990e+003
1325.642, 4.015e+003
1326.843, 3.952e+003
1328.044, 3.978e+003
1329.245, 4.037e+003
1330.445, 3.934e+003
1331.645, 3.975e+003
1332.845, 3.997e+003
1334.045, 4.005e+003
1335.245, 4.024e+003
1336.445, 4.033e+003
1337.644, 4.020e+003
1338.843, 3.999e+003
1340.042, 4.027e+003
1341.241, 3.988e+003
1342.440, 4.002e+003
1343.638, 4.058e+003
1344.836, 4.065e+003
1346.034, 3.971e+003
1347.232, 4.051e+003
1348.430, 4.026e+003
1349.628, 4.000e+003
1350.825, 4.077e+003
1352.022, 4.046e+003
1353.219, 4.050e+003
1354.416, 4.010e+003
1355.613, 4.039e+003
1356.809, 4.105e+003
1358.005, 4.104e+003
1359.202, 4.047e+003
1360.398, 4.086e+003
1361.593, 4.081e+003
1362.789, 4.007e+003
1363.984, 4.084e+003
1365.179, 4.137e+003
1366.374, 4.114e+003
1367.569, 4.138e+003
1368.764, 4.107e+003
1369.958, 4.042e+003
1371.153, 4.143e+003
1372.347, 4.119e+003
1373.541, 4.162e+003
1374.735, 4.086e+003
1375.928, 4.090e+003
1377.122, 4.137e+003
1378.315, 4.156e+003
1379.508, 4.142e+003
1380.701, 4.142e+003
1381.893, 4.134e+003
1383.086, 4.127e+003
1384.278, 4.150e+003
1385.470, 4.171e+003
1386.662, 4.226e+003
1387.854, 4.092e+003
1389.046, 4.226e+003
1390.237, 4.198e+003
1391.428, 4.151e+003
1392.619, 4.142e+003
1393.810, 4.202e+003
1395.001, 4.175e+003
1396.191, 4.160e+003
1397.382, 4.180e+003
1398.572, 4.222e+003
1399.762, 4.208e+003
1400.952, 4.198e+003
1402.141, 4.224e+003
1403.331, 4.234e+003
1404.520, 4.203e+003
1405.709, 4.239e+003
1406.898, 4.274e+003
1408.087, 4.271e+003
1409.275, 4.267e+003
1410.464, 4.249e+003
1411.652, 4.267e+003
1412.840, 4.254e+003
1414.028, 4.237e+003
1415.215, 4.264e+003
1416.403, 4.280e+003
1417.590, 4.295e+003
1418.777, 4.274e+003
1419.964, 4.309e+003
1421.151, 4.246e+003
1422.338, 4.362e+003
1423.524, 4.382e+003
1424.710, 4.379e+003
1425.896, 4.370e+003
1427.082, 4.324e+003
1428.268, 4.423e+003
1429.453, 4.368e+003
1430.639, 4.382e+003
1431.824, 4.391e+003
1433.009, 4.443e+003
1434.194, 4.423e+003
1435.378, 4.390e+003
1436.563, 4.434e+003
1437.747, 4.416e+003
1438.931, 4.443e+003
1440.115, 4.506e+003
1441.299, 4.482e+003
1442.482, 4.564e+003
1443.666, 4.532e+003
1444.849, 4.503e+003
1446.032, 4.512e+003
1447.215, 4.539e+003
1448.397, 4.621e+003
1449.580, 4.585e+003
1450.762, 4.616e+003
1451.944, 4.631e+003
1453.126, 4.548e+003
1454.308, 4.594e+003
1455.490, 4.553e+003
1456.671, 4.674e+003
1457.852, 4.622e+003
1459.033, 4.592e+003
1460.214, 4.593e+003
1461.395, 4.568e+003
1462.575, 4.597e+003
1463.756, 4.585e+003
1464.936, 4.587e+003
1466.116, 4.593e+003
1467.296, 4.526e+003
1468.475, 4.538e+003
1469.655, 4.586e+003
1470.834, 4.579e+003
1472.013, 4.592e+003
1473.192, 4.573e+003
1474.371, 4.530e+003
1475.550, 4.570e+003
1476.728, 4.554e+003
1477.906, 4.622e+003
1479.084, 4.470e+003
1480.262, 4.534e+003
1481.440, 4.551e+003
1482.617, 4.483e+003
1483.795, 4.550e+003
1484.972, 4.582e+003
1486.149, 4.533e+003
1487.326, 4.507e+003
1488.502, 4.532e+003
1489.679, 4.535e+003
1490.855, 4.608e+003
1492.031, 4.542e+003
1493.207, 4.587e+003
1494.383, 4.546e+003
1495.559, 4.553e+003
1496.734, 4.558e+003
1497.909, 4.558e+003
1499.084, 4.545e+003
1500.259, 4.564e+003
1501.434, 4.616e+003
1502.608, 4.583e+003
1503.783, 4.777e+003
1504.957, 1.820e+002
##END=



