##NAMES=Danburite
##RRUFFID=R040013
##IDEAL CHEMISTRY=CaB_2_Si_2_O_8_
##LOCALITY=Charcas, San Luis Potosi, Mexico
##OWNER=RRUFF
##SOURCE=Marcus Origlieri
##DESCRIPTION=Colorless prismatic single crystal
##STATUS=The identification of this mineral has been confirmed by X-ray diffraction and chemical analysis
##URL=rruff.info/R040013
##MEASURED CHEMISTRY=Ca_1.00_B_2.00_Si_2.00_O_8_
##PIN_ID=M00009
##ORIENTATION=Laser parallel to b* (0 1 0). Fiducial mark perpendicular to laser is parallel to -c [0 0 -1]
26.288, 3.060e+002
27.694, 3.350e+002
29.099, 3.450e+002
30.504, 3.480e+002
31.909, 3.570e+002
33.313, 3.590e+002
34.717, 3.800e+002
36.121, 3.640e+002
37.525, 3.890e+002
38.929, 3.710e+002
40.332, 3.770e+002
41.735, 3.670e+002
43.138, 3.840e+002
44.541, 3.660e+002
45.943, 3.720e+002
47.345, 3.670e+002
48.747, 3.700e+002
50.149, 3.580e+002
51.551, 3.690e+002
52.952, 3.670e+002
54.353, 3.580e+002
55.754, 3.530e+002
57.155, 3.510e+002
58.555, 3.560e+002
59.955, 3.650e+002
61.355, 3.520e+002
62.755, 3.590e+002
64.154, 3.510e+002
65.553, 3.560e+002
66.952, 3.520e+002
68.351, 3.530e+002
69.750, 3.450e+002
71.148, 3.540e+002
72.546, 3.530e+002
73.944, 3.650e+002
75.342, 3.610e+002
76.739, 3.850e+002
78.136, 3.870e+002
79.533, 3.980e+002
80.930, 4.070e+002
82.327, 4.250e+002
83.723, 4.400e+002
85.119, 4.640e+002
86.515, 5.020e+002
87.910, 5.530e+002
89.306, 5.960e+002
90.701, 6.470e+002
92.096, 6.790e+002
93.490, 7.540e+002
94.885, 8.160e+002
96.279, 9.080e+002
97.673, 9.560e+002
99.067, 1.051e+003
100.461, 1.133e+003
101.854, 1.174e+003
103.247, 1.246e+003
104.640, 1.338e+003
106.032, 1.427e+003
107.425, 1.521e+003
108.817, 1.596e+003
110.209, 1.856e+003
111.601, 2.112e+003
112.992, 2.346e+003
114.384, 2.520e+003
115.775, 2.869e+003
117.166, 3.482e+003
118.556, 4.606e+003
119.947, 6.361e+003
121.337, 9.025e+003
122.727, 1.046e+004
124.116, 9.935e+003
125.506, 7.660e+003
126.895, 5.380e+003
128.284, 3.872e+003
129.673, 2.993e+003
131.062, 2.583e+003
132.450, 2.335e+003
133.838, 2.269e+003
135.226, 2.272e+003
136.614, 2.403e+003
138.001, 2.432e+003
139.388, 2.357e+003
140.775, 2.183e+003
142.162, 2.060e+003
143.549, 2.018e+003
144.935, 1.972e+003
146.321, 1.962e+003
147.707, 1.934e+003
149.093, 1.972e+003
150.478, 1.947e+003
151.863, 1.979e+003
153.248, 1.984e+003
154.633, 1.942e+003
156.018, 2.014e+003
157.402, 2.114e+003
158.786, 2.366e+003
160.170, 2.923e+003
161.554, 3.764e+003
162.937, 5.576e+003
164.320, 6.569e+003
165.703, 6.190e+003
167.086, 4.729e+003
168.469, 3.406e+003
169.851, 2.720e+003
171.233, 2.376e+003
172.615, 2.283e+003
173.996, 2.316e+003
175.378, 2.446e+003
176.759, 2.719e+003
178.140, 3.136e+003
179.521, 3.760e+003
180.901, 4.140e+003
182.281, 4.028e+003
183.662, 3.543e+003
185.041, 3.112e+003
186.421, 2.920e+003
187.800, 3.060e+003
189.180, 3.376e+003
190.558, 3.673e+003
191.937, 3.787e+003
193.316, 3.468e+003
194.694, 3.142e+003
196.072, 2.805e+003
197.450, 2.651e+003
198.827, 2.724e+003
200.205, 2.815e+003
201.582, 3.137e+003
202.959, 3.723e+003
204.336, 4.700e+003
205.712, 6.395e+003
207.088, 9.074e+003
208.465, 1.232e+004
209.840, 1.370e+004
211.216, 1.222e+004
212.591, 9.197e+003
213.967, 6.570e+003
215.341, 4.819e+003
216.716, 3.871e+003
218.091, 3.386e+003
219.465, 3.160e+003
220.839, 3.131e+003
222.213, 3.254e+003
223.586, 3.545e+003
224.960, 3.842e+003
226.333, 3.917e+003
227.706, 3.762e+003
229.079, 3.564e+003
230.451, 3.625e+003
231.823, 3.858e+003
233.195, 4.346e+003
234.567, 5.133e+003
235.939, 6.468e+003
237.310, 8.911e+003
238.682, 1.317e+004
240.052, 2.005e+004
241.423, 2.993e+004
242.794, 3.994e+004
244.164, 4.397e+004
245.534, 3.897e+004
246.904, 2.910e+004
248.274, 1.989e+004
249.643, 1.359e+004
251.012, 9.571e+003
252.381, 7.252e+003
253.750, 5.832e+003
255.118, 4.971e+003
256.487, 4.376e+003
257.855, 3.816e+003
259.223, 3.503e+003
260.590, 3.333e+003
261.958, 3.072e+003
263.325, 2.956e+003
264.692, 2.903e+003
266.059, 2.777e+003
267.425, 2.735e+003
268.791, 2.675e+003
270.158, 2.613e+003
271.523, 2.702e+003
272.889, 2.642e+003
274.255, 3.872e+003
275.620, 2.900e+003
276.985, 2.880e+003
278.350, 2.796e+003
279.714, 2.621e+003
281.078, 2.547e+003
282.443, 2.497e+003
283.806, 2.468e+003
285.170, 2.494e+003
286.534, 2.551e+003
287.897, 2.631e+003
289.260, 2.862e+003
290.623, 3.097e+003
291.985, 3.331e+003
293.348, 3.648e+003
294.710, 3.620e+003
296.072, 3.410e+003
297.433, 3.107e+003
298.795, 2.818e+003
300.156, 2.689e+003
301.517, 2.558e+003
302.878, 2.595e+003
304.239, 2.574e+003
305.599, 2.650e+003
306.959, 2.762e+003
308.319, 2.903e+003
309.679, 3.059e+003
311.038, 3.089e+003
312.398, 2.976e+003
313.757, 2.832e+003
315.116, 2.704e+003
316.474, 2.616e+003
317.833, 2.501e+003
319.191, 2.486e+003
320.549, 2.373e+003
321.907, 2.407e+003
323.264, 2.425e+003
324.622, 2.413e+003
325.979, 2.485e+003
327.336, 2.540e+003
328.692, 2.528e+003
330.049, 2.522e+003
331.405, 2.506e+003
332.761, 2.478e+003
334.117, 2.482e+003
335.473, 2.447e+003
336.828, 2.459e+003
338.183, 2.522e+003
339.538, 2.571e+003
340.893, 2.776e+003
342.247, 3.037e+003
343.602, 3.418e+003
344.956, 3.988e+003
346.310, 4.278e+003
347.663, 4.208e+003
349.017, 3.761e+003
350.370, 3.266e+003
351.723, 2.983e+003
353.076, 2.765e+003
354.428, 2.640e+003
355.780, 2.531e+003
357.133, 2.558e+003
358.484, 2.482e+003
359.836, 2.474e+003
361.188, 2.455e+003
362.539, 2.420e+003
363.890, 2.491e+003
365.241, 2.454e+003
366.591, 2.476e+003
367.942, 2.418e+003
369.292, 2.456e+003
370.642, 2.434e+003
371.992, 2.479e+003
373.341, 2.454e+003
374.691, 2.503e+003
376.040, 2.492e+003
377.388, 2.480e+003
378.737, 2.492e+003
380.086, 2.485e+003
381.434, 2.478e+003
382.782, 2.493e+003
384.130, 2.546e+003
385.477, 2.510e+003
386.825, 2.524e+003
388.172, 2.585e+003
389.519, 2.588e+003
390.865, 2.576e+003
392.212, 2.607e+003
393.558, 2.622e+003
394.904, 2.628e+003
396.250, 2.692e+003
397.596, 2.725e+003
398.941, 2.768e+003
400.286, 2.749e+003
401.631, 2.805e+003
402.976, 2.876e+003
404.321, 3.016e+003
405.665, 3.039e+003
407.009, 3.087e+003
408.353, 3.127e+003
409.697, 3.165e+003
411.040, 3.300e+003
412.384, 3.433e+003
413.727, 3.745e+003
415.070, 4.062e+003
416.412, 4.486e+003
417.755, 5.095e+003
419.097, 5.961e+003
420.439, 7.022e+003
421.781, 8.035e+003
423.122, 8.586e+003
424.464, 8.253e+003
425.805, 7.293e+003
427.146, 6.059e+003
428.486, 4.960e+003
429.827, 4.253e+003
431.167, 3.885e+003
432.507, 3.811e+003
433.847, 3.958e+003
435.187, 4.513e+003
436.526, 5.671e+003
437.865, 7.084e+003
439.204, 8.442e+003
440.543, 8.893e+003
441.882, 8.092e+003
443.220, 6.689e+003
444.558, 5.366e+003
445.896, 4.553e+003
447.234, 3.943e+003
448.572, 3.531e+003
449.909, 3.260e+003
451.246, 3.130e+003
452.583, 3.123e+003
453.919, 3.071e+003
455.256, 3.147e+003
456.592, 3.392e+003
457.928, 3.513e+003
459.264, 3.291e+003
460.600, 3.194e+003
461.935, 3.060e+003
463.270, 2.926e+003
464.605, 2.876e+003
465.940, 2.803e+003
467.274, 2.839e+003
468.609, 2.759e+003
469.943, 2.727e+003
471.277, 2.714e+003
472.610, 2.695e+003
473.944, 2.745e+003
475.277, 2.840e+003
476.610, 2.909e+003
477.943, 2.983e+003
479.275, 2.941e+003
480.608, 2.874e+003
481.940, 2.897e+003
483.272, 2.732e+003
484.604, 2.726e+003
485.935, 2.706e+003
487.267, 2.673e+003
488.598, 2.642e+003
489.929, 2.659e+003
491.260, 2.638e+003
492.590, 2.654e+003
493.920, 2.647e+003
495.250, 2.674e+003
496.580, 2.645e+003
497.910, 2.634e+003
499.239, 2.632e+003
500.569, 2.630e+003
501.898, 2.659e+003
503.226, 2.642e+003
504.555, 2.661e+003
505.883, 2.650e+003
507.212, 2.676e+003
508.540, 2.715e+003
509.867, 2.710e+003
511.195, 2.721e+003
512.522, 2.690e+003
513.849, 2.739e+003
515.176, 2.724e+003
516.503, 2.754e+003
517.829, 2.721e+003
519.156, 2.719e+003
520.482, 2.753e+003
521.808, 2.738e+003
523.133, 2.779e+003
524.459, 2.726e+003
525.784, 2.745e+003
527.109, 2.742e+003
528.434, 2.760e+003
529.758, 2.768e+003
531.083, 2.786e+003
532.407, 2.764e+003
533.731, 2.755e+003
535.055, 2.824e+003
536.378, 2.752e+003
537.701, 2.834e+003
539.025, 2.820e+003
540.348, 2.829e+003
541.670, 2.800e+003
542.993, 2.853e+003
544.315, 2.861e+003
545.637, 2.820e+003
546.959, 2.849e+003
548.281, 2.892e+003
549.602, 2.890e+003
550.923, 2.876e+003
552.244, 2.883e+003
553.565, 2.905e+003
554.886, 2.881e+003
556.206, 2.967e+003
557.526, 3.005e+003
558.846, 3.038e+003
560.166, 3.016e+003
561.486, 3.061e+003
562.805, 3.070e+003
564.124, 3.049e+003
565.443, 3.064e+003
566.762, 3.091e+003
568.080, 3.153e+003
569.399, 3.206e+003
570.717, 3.207e+003
572.035, 3.226e+003
573.352, 3.209e+003
574.670, 3.218e+003
575.987, 3.290e+003
577.304, 3.286e+003
578.621, 3.345e+003
579.938, 3.437e+003
581.254, 3.477e+003
582.570, 3.525e+003
583.886, 3.604e+003
585.202, 3.694e+003
586.518, 3.796e+003
587.833, 3.842e+003
589.148, 4.119e+003
590.463, 4.241e+003
591.778, 4.403e+003
593.093, 4.646e+003
594.407, 4.964e+003
595.721, 5.404e+003
597.035, 5.875e+003
598.349, 6.673e+003
599.662, 7.806e+003
600.976, 9.249e+003
602.289, 1.156e+004
603.602, 1.500e+004
604.914, 2.059e+004
606.227, 2.765e+004
607.539, 3.463e+004
608.851, 3.841e+004
610.163, 3.671e+004
611.475, 3.031e+004
612.786, 2.404e+004
614.097, 1.834e+004
615.408, 1.406e+004
616.719, 1.142e+004
618.030, 9.761e+003
619.340, 8.683e+003
620.651, 8.377e+003
621.961, 8.596e+003
623.270, 9.666e+003
624.580, 1.115e+004
625.889, 1.281e+004
627.199, 1.312e+004
628.507, 1.180e+004
629.816, 1.008e+004
631.125, 8.253e+003
632.433, 6.982e+003
633.741, 6.163e+003
635.049, 5.441e+003
636.357, 5.150e+003
637.664, 4.748e+003
638.972, 4.640e+003
640.279, 4.308e+003
641.586, 4.320e+003
642.893, 4.103e+003
644.199, 4.055e+003
645.505, 4.029e+003
646.811, 3.867e+003
648.117, 3.817e+003
649.423, 3.794e+003
650.728, 3.727e+003
652.034, 3.692e+003
653.339, 3.595e+003
654.644, 3.574e+003
655.948, 3.504e+003
657.253, 3.448e+003
658.557, 3.441e+003
659.861, 3.401e+003
661.165, 3.410e+003
662.468, 3.373e+003
663.772, 3.362e+003
665.075, 3.334e+003
666.378, 3.303e+003
667.681, 3.349e+003
668.983, 3.254e+003
670.286, 3.347e+003
671.588, 3.380e+003
672.890, 3.346e+003
674.192, 3.322e+003
675.493, 3.299e+003
676.795, 3.275e+003
678.096, 3.249e+003
679.397, 3.307e+003
680.697, 3.254e+003
681.998, 3.168e+003
683.298, 3.190e+003
684.598, 3.206e+003
685.898, 3.237e+003
687.198, 3.228e+003
688.498, 3.223e+003
689.797, 3.241e+003
691.096, 3.223e+003
692.395, 3.164e+003
693.694, 3.227e+003
694.992, 3.271e+003
696.290, 3.233e+003
697.589, 3.261e+003
698.886, 3.212e+003
700.184, 3.243e+003
701.482, 3.220e+003
702.779, 3.270e+003
704.076, 3.255e+003
705.373, 3.243e+003
706.669, 3.279e+003
707.966, 3.248e+003
709.262, 3.257e+003
710.558, 3.264e+003
711.854, 3.231e+003
713.150, 3.208e+003
714.445, 3.275e+003
715.740, 3.249e+003
717.035, 3.273e+003
718.330, 3.261e+003
719.625, 3.289e+003
720.919, 3.289e+003
722.214, 3.224e+003
723.508, 3.288e+003
724.801, 3.250e+003
726.095, 3.264e+003
727.388, 3.304e+003
728.682, 3.265e+003
729.975, 3.265e+003
731.267, 3.330e+003
732.560, 3.261e+003
733.852, 3.340e+003
735.145, 3.309e+003
736.437, 3.309e+003
737.728, 3.328e+003
739.020, 3.342e+003
740.311, 3.335e+003
741.603, 3.363e+003
742.894, 3.399e+003
744.184, 3.374e+003
745.475, 3.362e+003
746.765, 3.452e+003
748.055, 3.338e+003
749.345, 3.398e+003
750.635, 3.454e+003
751.925, 3.407e+003
753.214, 3.411e+003
754.503, 3.434e+003
755.792, 3.480e+003
757.081, 3.489e+003
758.370, 3.454e+003
759.658, 3.517e+003
760.946, 3.432e+003
762.234, 3.545e+003
763.522, 3.587e+003
764.809, 3.633e+003
766.097, 3.734e+003
767.384, 3.754e+003
768.671, 3.911e+003
769.958, 4.051e+003
771.244, 4.161e+003
772.530, 4.236e+003
773.817, 4.184e+003
775.102, 4.105e+003
776.388, 3.950e+003
777.674, 3.824e+003
778.959, 3.666e+003
780.244, 3.616e+003
781.529, 3.578e+003
782.814, 3.543e+003
784.098, 3.495e+003
785.383, 3.445e+003
786.667, 3.456e+003
787.951, 3.442e+003
789.235, 3.415e+003
790.518, 3.434e+003
791.801, 3.503e+003
793.084, 3.458e+003
794.367, 3.397e+003
795.650, 3.472e+003
796.933, 3.425e+003
798.215, 3.550e+003
799.497, 3.457e+003
800.779, 3.383e+003
802.061, 3.472e+003
803.342, 3.446e+003
804.624, 3.518e+003
805.905, 3.465e+003
807.186, 3.490e+003
808.466, 3.494e+003
809.747, 3.431e+003
811.027, 3.476e+003
812.307, 3.440e+003
813.587, 3.456e+003
814.867, 3.500e+003
816.146, 3.465e+003
817.426, 3.522e+003
818.705, 3.485e+003
819.984, 3.464e+003
821.263, 3.542e+003
822.541, 3.514e+003
823.819, 3.535e+003
825.098, 3.510e+003
826.375, 3.584e+003
827.653, 3.608e+003
828.931, 3.559e+003
830.208, 3.549e+003
831.485, 3.542e+003
832.762, 3.579e+003
834.039, 3.611e+003
835.315, 3.577e+003
836.592, 3.654e+003
837.868, 3.557e+003
839.144, 3.631e+003
840.420, 3.673e+003
841.695, 3.648e+003
842.970, 3.634e+003
844.246, 3.671e+003
845.521, 3.689e+003
846.795, 3.690e+003
848.070, 3.706e+003
849.344, 3.702e+003
850.618, 3.726e+003
851.892, 3.767e+003
853.166, 3.764e+003
854.440, 3.801e+003
855.713, 3.861e+003
856.986, 3.853e+003
858.259, 3.887e+003
859.532, 3.881e+003
860.804, 3.919e+003
862.077, 3.931e+003
863.349, 3.877e+003
864.621, 3.880e+003
865.893, 3.907e+003
867.164, 3.950e+003
868.436, 3.996e+003
869.707, 3.976e+003
870.978, 3.962e+003
872.248, 3.979e+003
873.519, 4.004e+003
874.789, 4.003e+003
876.060, 3.940e+003
877.330, 3.950e+003
878.599, 3.947e+003
879.869, 4.084e+003
881.138, 4.010e+003
882.408, 4.064e+003
883.677, 4.115e+003
884.945, 4.089e+003
886.214, 4.128e+003
887.482, 4.203e+003
888.751, 4.254e+003
890.019, 4.375e+003
891.287, 4.453e+003
892.554, 4.586e+003
893.822, 4.675e+003
895.089, 4.884e+003
896.356, 5.053e+003
897.623, 5.150e+003
898.889, 5.269e+003
900.156, 5.276e+003
901.422, 5.333e+003
902.688, 5.353e+003
903.954, 5.141e+003
905.220, 5.050e+003
906.485, 4.893e+003
907.750, 4.770e+003
909.015, 4.690e+003
910.280, 4.498e+003
911.545, 4.441e+003
912.809, 4.267e+003
914.074, 4.318e+003
915.338, 4.255e+003
916.602, 4.220e+003
917.865, 4.214e+003
919.129, 4.198e+003
920.392, 4.073e+003
921.655, 4.057e+003
922.918, 4.008e+003
924.181, 4.023e+003
925.443, 3.974e+003
926.706, 3.993e+003
927.968, 4.000e+003
929.230, 3.948e+003
930.491, 3.916e+003
931.753, 3.989e+003
933.014, 3.919e+003
934.276, 3.952e+003
935.536, 3.902e+003
936.797, 3.931e+003
938.058, 3.897e+003
939.318, 3.929e+003
940.578, 3.942e+003
941.838, 4.045e+003
943.098, 3.977e+003
944.358, 3.970e+003
945.617, 3.981e+003
946.876, 3.932e+003
948.135, 4.018e+003
949.394, 3.999e+003
950.653, 3.988e+003
951.911, 4.032e+003
953.169, 4.006e+003
954.427, 4.064e+003
955.685, 4.059e+003
956.943, 4.017e+003
958.200, 4.057e+003
959.458, 4.071e+003
960.715, 4.198e+003
961.971, 4.224e+003
963.228, 4.278e+003
964.485, 4.476e+003
965.741, 4.617e+003
966.997, 4.878e+003
968.253, 5.301e+003
969.508, 5.821e+003
970.764, 6.504e+003
972.019, 6.787e+003
973.274, 6.845e+003
974.529, 6.533e+003
975.784, 5.859e+003
977.039, 5.545e+003
978.293, 5.139e+003
979.547, 4.976e+003
980.801, 4.814e+003
982.055, 4.628e+003
983.308, 4.582e+003
984.562, 4.508e+003
985.815, 4.497e+003
987.068, 4.519e+003
988.321, 4.437e+003
989.573, 4.504e+003
990.826, 4.496e+003
992.078, 4.389e+003
993.330, 4.524e+003
994.582, 4.572e+003
995.833, 4.562e+003
997.085, 4.649e+003
998.336, 4.618e+003
999.587, 4.636e+003
1000.838, 4.678e+003
1002.088, 4.583e+003
1003.339, 4.531e+003
1004.589, 4.478e+003
1005.839, 4.526e+003
1007.089, 4.456e+003
1008.339, 4.430e+003
1009.588, 4.369e+003
1010.838, 4.356e+003
1012.087, 4.250e+003
1013.336, 4.251e+003
1014.584, 4.252e+003
1015.833, 4.238e+003
1017.081, 4.210e+003
1018.330, 4.316e+003
1019.577, 4.271e+003
1020.825, 4.318e+003
1022.073, 4.313e+003
1023.320, 4.377e+003
1024.567, 4.390e+003
1025.814, 4.406e+003
1027.061, 4.388e+003
1028.308, 4.414e+003
1029.554, 4.416e+003
1030.800, 4.260e+003
1032.046, 4.339e+003
1033.292, 4.325e+003
1034.538, 4.281e+003
1035.783, 4.341e+003
1037.029, 4.348e+003
1038.274, 4.407e+003
1039.519, 4.550e+003
1040.763, 4.529e+003
1042.008, 4.461e+003
1043.252, 4.352e+003
1044.496, 4.291e+003
1045.740, 4.273e+003
1046.984, 4.239e+003
1048.228, 4.234e+003
1049.471, 4.269e+003
1050.714, 4.248e+003
1051.957, 4.269e+003
1053.200, 4.222e+003
1054.442, 4.263e+003
1055.685, 4.292e+003
1056.927, 4.227e+003
1058.169, 4.231e+003
1059.411, 4.211e+003
1060.652, 4.292e+003
1061.894, 4.298e+003
1063.135, 4.298e+003
1064.376, 4.262e+003
1065.617, 4.329e+003
1066.858, 4.337e+003
1068.098, 4.390e+003
1069.339, 4.359e+003
1070.579, 4.341e+003
1071.819, 4.465e+003
1073.058, 4.459e+003
1074.298, 4.467e+003
1075.537, 4.572e+003
1076.776, 4.507e+003
1078.015, 4.626e+003
1079.254, 4.714e+003
1080.493, 4.682e+003
1081.731, 4.758e+003
1082.969, 4.713e+003
1084.207, 4.940e+003
1085.445, 4.825e+003
1086.683, 4.845e+003
1087.920, 4.980e+003
1089.157, 5.072e+003
1090.394, 5.138e+003
1091.631, 5.303e+003
1092.868, 5.466e+003
1094.105, 5.676e+003
1095.341, 5.915e+003
1096.577, 6.109e+003
1097.813, 6.516e+003
1099.049, 6.702e+003
1100.284, 7.041e+003
1101.519, 7.503e+003
1102.755, 7.729e+003
1103.990, 8.193e+003
1105.224, 8.419e+003
1106.459, 8.359e+003
1107.693, 8.311e+003
1108.928, 8.030e+003
1110.162, 7.787e+003
1111.395, 7.408e+003
1112.629, 6.991e+003
1113.863, 6.647e+003
1115.096, 6.406e+003
1116.329, 6.112e+003
1117.562, 6.056e+003
1118.795, 5.705e+003
1120.027, 5.659e+003
1121.259, 5.680e+003
1122.492, 5.480e+003
1123.723, 5.290e+003
1124.955, 5.223e+003
1126.187, 5.128e+003
1127.418, 5.104e+003
1128.649, 5.043e+003
1129.880, 4.946e+003
1131.111, 4.905e+003
1132.342, 4.818e+003
1133.572, 4.826e+003
1134.802, 4.701e+003
1136.033, 4.631e+003
1137.262, 4.733e+003
1138.492, 4.597e+003
1139.722, 4.578e+003
1140.951, 4.572e+003
1142.180, 4.547e+003
1143.409, 4.561e+003
1144.638, 4.593e+003
1145.866, 4.475e+003
1147.095, 4.518e+003
1148.323, 4.492e+003
1149.551, 4.497e+003
1150.779, 4.504e+003
1152.006, 4.456e+003
1153.234, 4.539e+003
1154.461, 4.501e+003
1155.688, 4.505e+003
1156.915, 4.564e+003
1158.141, 4.502e+003
1159.368, 4.455e+003
1160.594, 4.531e+003
1161.820, 4.441e+003
1163.046, 4.555e+003
1164.272, 4.498e+003
1165.498, 4.510e+003
1166.723, 4.555e+003
1167.948, 4.611e+003
1169.173, 4.633e+003
1170.398, 4.652e+003
1171.623, 4.645e+003
1172.847, 4.646e+003
1174.071, 4.720e+003
1175.295, 4.745e+003
1176.519, 4.734e+003
1177.743, 4.679e+003
1178.966, 4.692e+003
1180.190, 4.630e+003
1181.413, 4.571e+003
1182.636, 4.620e+003
1183.858, 4.564e+003
1185.081, 4.592e+003
1186.303, 4.594e+003
1187.526, 4.536e+003
1188.748, 4.546e+003
1189.969, 4.594e+003
1191.191, 4.520e+003
1192.412, 4.559e+003
1193.634, 4.577e+003
1194.855, 4.608e+003
1196.076, 4.468e+003
1197.296, 4.526e+003
1198.517, 4.570e+003
1199.737, 4.580e+003
1200.957, 4.541e+003
1202.177, 4.577e+003
1203.397, 4.598e+003
1204.617, 4.535e+003
1205.836, 4.598e+003
1207.055, 4.541e+003
1208.274, 4.589e+003
1209.493, 4.570e+003
1210.712, 4.559e+003
1211.930, 4.564e+003
1213.148, 4.537e+003
1214.367, 4.560e+003
1215.584, 4.579e+003
1216.802, 4.561e+003
1218.020, 4.627e+003
1219.237, 4.604e+003
1220.454, 4.565e+003
1221.671, 4.652e+003
1222.888, 4.552e+003
1224.105, 4.591e+003
1225.321, 4.561e+003
1226.537, 4.580e+003
1227.753, 4.542e+003
1228.969, 4.598e+003
1230.185, 4.601e+003
1231.400, 4.655e+003
1232.616, 4.680e+003
1233.831, 4.559e+003
1235.046, 4.630e+003
1236.261, 4.637e+003
1237.475, 4.634e+003
1238.689, 4.694e+003
1239.904, 4.635e+003
1241.118, 4.693e+003
1242.332, 4.703e+003
1243.545, 4.718e+003
1244.759, 4.619e+003
1245.972, 4.672e+003
1247.185, 4.643e+003
1248.398, 4.666e+003
1249.611, 4.639e+003
1250.823, 4.666e+003
1252.036, 4.685e+003
1253.248, 4.649e+003
1254.460, 4.719e+003
1255.671, 4.667e+003
1256.883, 4.703e+003
1258.095, 4.757e+003
1259.306, 4.673e+003
1260.517, 4.754e+003
1261.728, 4.746e+003
1262.938, 4.641e+003
1264.149, 4.756e+003
1265.359, 4.729e+003
1266.569, 4.721e+003
1267.779, 4.794e+003
1268.989, 4.694e+003
1270.199, 4.678e+003
1271.408, 4.747e+003
1272.617, 4.747e+003
1273.826, 4.776e+003
1275.035, 4.740e+003
1276.244, 4.722e+003
1277.452, 4.842e+003
1278.661, 4.740e+003
1279.869, 4.703e+003
1281.077, 4.746e+003
1282.285, 4.723e+003
1283.492, 4.695e+003
1284.700, 4.695e+003
1285.907, 4.652e+003
1287.114, 4.797e+003
1288.321, 4.690e+003
1289.527, 4.670e+003
1290.734, 4.759e+003
1291.940, 4.750e+003
1293.146, 4.806e+003
1294.352, 4.738e+003
1295.558, 4.726e+003
1296.763, 4.769e+003
1297.969, 4.791e+003
1299.174, 4.753e+003
1300.379, 4.809e+003
1301.584, 4.703e+003
1302.788, 4.814e+003
1303.993, 4.854e+003
1305.197, 4.786e+003
1306.401, 4.815e+003
1307.605, 4.798e+003
1308.809, 4.759e+003
1310.013, 4.875e+003
1311.216, 4.894e+003
1312.419, 4.859e+003
1313.622, 4.854e+003
1314.825, 4.861e+003
1316.028, 4.812e+003
1317.230, 4.899e+003
1318.432, 4.852e+003
1319.634, 4.943e+003
1320.836, 4.961e+003
1322.038, 4.822e+003
1323.240, 4.879e+003
1324.441, 4.915e+003
1325.642, 4.897e+003
1326.843, 4.867e+003
1328.044, 4.855e+003
1329.245, 4.905e+003
1330.445, 4.885e+003
1331.645, 4.862e+003
1332.845, 4.867e+003
1334.045, 4.851e+003
1335.245, 4.852e+003
1336.445, 4.888e+003
1337.644, 4.834e+003
1338.843, 4.829e+003
1340.042, 4.892e+003
1341.241, 4.848e+003
1342.440, 4.935e+003
1343.638, 4.958e+003
1344.836, 4.850e+003
1346.034, 4.904e+003
1347.232, 4.949e+003
1348.430, 4.894e+003
1349.628, 4.924e+003
1350.825, 4.887e+003
1352.022, 4.924e+003
1353.219, 4.966e+003
1354.416, 4.881e+003
1355.613, 4.971e+003
1356.809, 4.924e+003
1358.005, 4.870e+003
1359.202, 4.946e+003
1360.398, 4.919e+003
1361.593, 4.916e+003
1362.789, 4.990e+003
1363.984, 4.900e+003
1365.179, 4.981e+003
1366.374, 4.999e+003
1367.569, 4.947e+003
1368.764, 4.981e+003
1369.958, 4.983e+003
1371.153, 4.977e+003
1372.347, 5.034e+003
1373.541, 4.968e+003
1374.735, 5.035e+003
1375.928, 5.037e+003
1377.122, 4.980e+003
1378.315, 4.980e+003
1379.508, 5.000e+003
1380.701, 5.073e+003
1381.893, 5.086e+003
1383.086, 5.038e+003
1384.278, 5.045e+003
1385.470, 5.132e+003
1386.662, 5.066e+003
1387.854, 5.025e+003
1389.046, 5.124e+003
1390.237, 5.011e+003
1391.428, 5.140e+003
1392.619, 5.106e+003
1393.810, 5.138e+003
1395.001, 5.138e+003
1396.191, 5.068e+003
1397.382, 5.058e+003
1398.572, 5.069e+003
1399.762, 5.087e+003
1400.952, 5.084e+003
1402.141, 5.147e+003
1403.331, 5.062e+003
1404.520, 5.185e+003
1405.709, 5.201e+003
1406.898, 5.227e+003
1408.087, 5.133e+003
1409.275, 5.159e+003
1410.464, 5.152e+003
1411.652, 5.172e+003
1412.840, 5.186e+003
1414.028, 5.213e+003
1415.215, 5.210e+003
1416.403, 5.178e+003
1417.590, 5.211e+003
1418.777, 5.282e+003
1419.964, 5.188e+003
1421.151, 5.291e+003
1422.338, 5.219e+003
1423.524, 5.307e+003
1424.710, 5.270e+003
1425.896, 5.237e+003
1427.082, 5.350e+003
1428.268, 5.428e+003
1429.453, 5.270e+003
1430.639, 5.327e+003
1431.824, 5.324e+003
1433.009, 5.353e+003
1434.194, 5.449e+003
1435.378, 5.391e+003
1436.563, 5.410e+003
1437.747, 5.550e+003
1438.931, 5.493e+003
1440.115, 5.558e+003
1441.299, 5.658e+003
1442.482, 5.546e+003
1443.666, 5.633e+003
1444.849, 5.700e+003
1446.032, 5.581e+003
1447.215, 5.756e+003
1448.397, 5.586e+003
1449.580, 5.608e+003
1450.762, 5.803e+003
1451.944, 5.572e+003
1453.126, 5.623e+003
1454.308, 5.752e+003
1455.490, 5.655e+003
1456.671, 5.686e+003
1457.852, 5.735e+003
1459.033, 5.655e+003
1460.214, 5.710e+003
1461.395, 5.585e+003
1462.575, 5.550e+003
1463.756, 5.651e+003
1464.936, 5.568e+003
1466.116, 5.574e+003
1467.296, 5.590e+003
1468.475, 5.539e+003
1469.655, 5.538e+003
1470.834, 5.627e+003
1472.013, 5.457e+003
1473.192, 5.562e+003
1474.371, 5.490e+003
1475.550, 5.532e+003
1476.728, 5.570e+003
1477.906, 5.525e+003
1479.084, 5.461e+003
1480.262, 5.550e+003
1481.440, 5.459e+003
1482.617, 5.581e+003
1483.795, 5.470e+003
1484.972, 5.540e+003
1486.149, 5.549e+003
1487.326, 5.464e+003
1488.502, 5.482e+003
1489.679, 5.547e+003
1490.855, 5.482e+003
1492.031, 5.498e+003
1493.207, 5.539e+003
1494.383, 5.459e+003
1495.559, 5.540e+003
1496.734, 5.487e+003
1497.909, 5.502e+003
1499.084, 5.457e+003
1500.259, 5.480e+003
1501.434, 5.463e+003
1502.608, 5.479e+003
1503.783, 5.692e+003
1504.957, 1.790e+002
##END=



