##NAMES=Danburite
##RRUFFID=R040013
##IDEAL CHEMISTRY=CaB_2_Si_2_O_8_
##LOCALITY=Charcas, San Luis Potosi, Mexico
##OWNER=RRUFF
##SOURCE=Marcus Origlieri
##DESCRIPTION=Colorless prismatic single crystal
##STATUS=The identification of this mineral has been confirmed by X-ray diffraction and chemical analysis
##URL=rruff.info/R040013
##MEASURED CHEMISTRY=Ca_1.00_B_2.00_Si_2.00_O_8_
##PIN_ID=M00009
##ORIENTATION=Laser parallel to b* (0 1 0). Fiducial mark perpendicular to laser is parallel to -c [0 0 -1]
26.288, 1.935e+003
27.694, 1.847e+003
29.099, 1.857e+003
30.504, 1.820e+003
31.909, 1.815e+003
33.313, 1.777e+003
34.717, 1.795e+003
36.121, 1.769e+003
37.525, 1.758e+003
38.929, 1.754e+003
40.332, 1.715e+003
41.735, 1.725e+003
43.138, 1.688e+003
44.541, 1.669e+003
45.943, 1.642e+003
47.345, 1.632e+003
48.747, 1.654e+003
50.149, 1.658e+003
51.551, 1.677e+003
52.952, 1.628e+003
54.353, 1.632e+003
55.754, 1.679e+003
57.155, 1.661e+003
58.555, 1.702e+003
59.955, 1.680e+003
61.355, 1.651e+003
62.755, 1.556e+003
64.154, 1.558e+003
65.553, 1.507e+003
66.952, 1.479e+003
68.351, 1.420e+003
69.750, 1.405e+003
71.148, 1.377e+003
72.546, 1.324e+003
73.944, 1.303e+003
75.342, 1.255e+003
76.739, 1.223e+003
78.136, 1.223e+003
79.533, 1.264e+003
80.930, 1.298e+003
82.327, 1.361e+003
83.723, 1.369e+003
85.119, 1.468e+003
86.515, 1.558e+003
87.910, 1.593e+003
89.306, 1.728e+003
90.701, 1.925e+003
92.096, 2.050e+003
93.490, 2.214e+003
94.885, 2.382e+003
96.279, 2.546e+003
97.673, 2.796e+003
99.067, 2.891e+003
100.461, 3.060e+003
101.854, 3.153e+003
103.247, 3.273e+003
104.640, 3.272e+003
106.032, 3.448e+003
107.425, 3.599e+003
108.817, 3.870e+003
110.209, 4.813e+003
111.601, 8.715e+003
112.992, 8.138e+003
114.384, 5.837e+003
115.775, 4.868e+003
117.166, 4.448e+003
118.556, 4.251e+003
119.947, 4.487e+003
121.337, 4.982e+003
122.727, 5.484e+003
124.116, 5.498e+003
125.506, 4.778e+003
126.895, 4.147e+003
128.284, 3.909e+003
129.673, 3.689e+003
131.062, 3.665e+003
132.450, 3.550e+003
133.838, 3.579e+003
135.226, 3.502e+003
136.614, 3.529e+003
138.001, 3.464e+003
139.388, 3.462e+003
140.775, 3.442e+003
142.162, 3.414e+003
143.549, 3.446e+003
144.935, 3.382e+003
146.321, 3.372e+003
147.707, 3.373e+003
149.093, 3.431e+003
150.478, 3.392e+003
151.863, 3.388e+003
153.248, 3.390e+003
154.633, 3.337e+003
156.018, 3.405e+003
157.402, 3.444e+003
158.786, 3.438e+003
160.170, 3.603e+003
161.554, 3.715e+003
162.937, 4.162e+003
164.320, 4.540e+003
165.703, 4.564e+003
167.086, 4.076e+003
168.469, 3.860e+003
169.851, 3.792e+003
171.233, 3.897e+003
172.615, 4.216e+003
173.996, 4.716e+003
175.378, 5.686e+003
176.759, 7.451e+003
178.140, 1.071e+004
179.521, 1.574e+004
180.901, 1.924e+004
182.281, 1.749e+004
183.662, 1.203e+004
185.041, 7.929e+003
186.421, 5.952e+003
187.800, 5.497e+003
189.180, 5.872e+003
190.558, 7.227e+003
191.937, 8.441e+003
193.316, 7.891e+003
194.694, 6.062e+003
196.072, 4.780e+003
197.450, 4.106e+003
198.827, 3.819e+003
200.205, 3.746e+003
201.582, 3.816e+003
202.959, 3.863e+003
204.336, 4.097e+003
205.712, 4.372e+003
207.088, 4.853e+003
208.465, 5.742e+003
209.840, 6.211e+003
211.216, 5.870e+003
212.591, 5.002e+003
213.967, 4.266e+003
215.341, 3.912e+003
216.716, 3.752e+003
218.091, 3.732e+003
219.465, 3.895e+003
220.839, 4.142e+003
222.213, 4.719e+003
223.586, 5.945e+003
224.960, 7.511e+003
226.333, 7.960e+003
227.706, 6.561e+003
229.079, 4.986e+003
230.451, 4.258e+003
231.823, 3.956e+003
233.195, 3.997e+003
234.567, 4.059e+003
235.939, 4.328e+003
237.310, 4.695e+003
238.682, 5.495e+003
240.052, 6.758e+003
241.423, 8.718e+003
242.794, 1.158e+004
244.164, 1.314e+004
245.534, 1.209e+004
246.904, 9.484e+003
248.274, 7.119e+003
249.643, 5.649e+003
251.012, 4.907e+003
252.381, 4.476e+003
253.750, 4.268e+003
255.118, 4.014e+003
256.487, 3.931e+003
257.855, 3.828e+003
259.223, 3.759e+003
260.590, 3.671e+003
261.958, 3.672e+003
263.325, 3.644e+003
264.692, 3.663e+003
266.059, 3.638e+003
267.425, 3.598e+003
268.791, 3.633e+003
270.158, 3.643e+003
271.523, 3.608e+003
272.889, 3.637e+003
274.255, 3.566e+003
275.620, 3.575e+003
276.985, 3.568e+003
278.350, 3.606e+003
279.714, 3.625e+003
281.078, 3.681e+003
282.443, 3.760e+003
283.806, 3.856e+003
285.170, 3.983e+003
286.534, 4.261e+003
287.897, 4.634e+003
289.260, 5.230e+003
290.623, 6.150e+003
291.985, 7.332e+003
293.348, 8.567e+003
294.710, 8.831e+003
296.072, 7.961e+003
297.433, 6.491e+003
298.795, 5.365e+003
300.156, 4.687e+003
301.517, 4.345e+003
302.878, 4.130e+003
304.239, 4.162e+003
305.599, 4.265e+003
306.959, 4.473e+003
308.319, 4.831e+003
309.679, 5.259e+003
311.038, 5.411e+003
312.398, 5.242e+003
313.757, 4.947e+003
315.116, 4.381e+003
316.474, 4.112e+003
317.833, 4.032e+003
319.191, 3.915e+003
320.549, 4.092e+003
321.907, 3.777e+003
323.264, 3.802e+003
324.622, 3.837e+003
325.979, 3.970e+003
327.336, 4.217e+003
328.692, 4.395e+003
330.049, 4.270e+003
331.405, 4.187e+003
332.761, 4.009e+003
334.117, 3.895e+003
335.473, 3.864e+003
336.828, 3.916e+003
338.183, 4.011e+003
339.538, 4.200e+003
340.893, 4.578e+003
342.247, 5.133e+003
343.602, 6.229e+003
344.956, 7.674e+003
346.310, 8.840e+003
347.663, 8.634e+003
349.017, 7.250e+003
350.370, 5.748e+003
351.723, 4.866e+003
353.076, 4.371e+003
354.428, 4.094e+003
355.780, 3.889e+003
357.133, 3.821e+003
358.484, 3.699e+003
359.836, 3.686e+003
361.188, 3.660e+003
362.539, 3.575e+003
363.890, 3.584e+003
365.241, 3.554e+003
366.591, 3.517e+003
367.942, 3.502e+003
369.292, 3.580e+003
370.642, 3.486e+003
371.992, 3.558e+003
373.341, 3.459e+003
374.691, 3.522e+003
376.040, 3.511e+003
377.388, 3.494e+003
378.737, 3.494e+003
380.086, 3.577e+003
381.434, 3.510e+003
382.782, 3.494e+003
384.130, 3.544e+003
385.477, 3.633e+003
386.825, 3.575e+003
388.172, 3.667e+003
389.519, 3.620e+003
390.865, 3.670e+003
392.212, 3.685e+003
393.558, 3.624e+003
394.904, 3.634e+003
396.250, 3.661e+003
397.596, 3.643e+003
398.941, 3.633e+003
400.286, 3.618e+003
401.631, 3.707e+003
402.976, 3.654e+003
404.321, 3.671e+003
405.665, 3.608e+003
407.009, 3.662e+003
408.353, 3.659e+003
409.697, 3.751e+003
411.040, 3.699e+003
412.384, 3.788e+003
413.727, 3.823e+003
415.070, 3.902e+003
416.412, 4.019e+003
417.755, 4.255e+003
419.097, 4.458e+003
420.439, 4.673e+003
421.781, 4.977e+003
423.122, 5.174e+003
424.464, 5.086e+003
425.805, 4.889e+003
427.146, 4.546e+003
428.486, 4.208e+003
429.827, 4.004e+003
431.167, 3.874e+003
432.507, 3.884e+003
433.847, 3.919e+003
435.187, 4.042e+003
436.526, 4.406e+003
437.865, 4.780e+003
439.204, 5.182e+003
440.543, 5.385e+003
441.882, 5.097e+003
443.220, 4.682e+003
444.558, 4.388e+003
445.896, 4.111e+003
447.234, 3.961e+003
448.572, 3.932e+003
449.909, 3.917e+003
451.246, 3.942e+003
452.583, 4.013e+003
453.919, 4.155e+003
455.256, 4.472e+003
456.592, 4.970e+003
457.928, 5.598e+003
459.264, 5.518e+003
460.600, 4.926e+003
461.935, 4.408e+003
463.270, 4.194e+003
464.605, 4.090e+003
465.940, 4.030e+003
467.274, 4.077e+003
468.609, 4.139e+003
469.943, 4.224e+003
471.277, 4.460e+003
472.610, 4.810e+003
473.944, 5.517e+003
475.277, 6.874e+003
476.610, 9.038e+003
477.943, 1.158e+004
479.275, 1.228e+004
480.608, 1.089e+004
481.940, 8.269e+003
483.272, 6.370e+003
484.604, 5.382e+003
485.935, 4.836e+003
487.267, 4.443e+003
488.598, 4.285e+003
489.929, 4.133e+003
491.260, 4.118e+003
492.590, 4.018e+003
493.920, 3.997e+003
495.250, 3.926e+003
496.580, 3.951e+003
497.910, 3.958e+003
499.239, 3.934e+003
500.569, 3.848e+003
501.898, 3.914e+003
503.226, 3.863e+003
504.555, 3.877e+003
505.883, 3.881e+003
507.212, 3.947e+003
508.540, 3.878e+003
509.867, 3.884e+003
511.195, 3.923e+003
512.522, 3.984e+003
513.849, 3.898e+003
515.176, 3.931e+003
516.503, 3.976e+003
517.829, 3.969e+003
519.156, 3.900e+003
520.482, 3.986e+003
521.808, 3.915e+003
523.133, 3.980e+003
524.459, 3.985e+003
525.784, 4.006e+003
527.109, 3.968e+003
528.434, 3.931e+003
529.758, 3.989e+003
531.083, 3.927e+003
532.407, 3.930e+003
533.731, 3.944e+003
535.055, 3.963e+003
536.378, 3.949e+003
537.701, 3.979e+003
539.025, 3.960e+003
540.348, 3.984e+003
541.670, 3.936e+003
542.993, 4.033e+003
544.315, 4.023e+003
545.637, 4.003e+003
546.959, 3.978e+003
548.281, 4.058e+003
549.602, 4.009e+003
550.923, 4.040e+003
552.244, 4.111e+003
553.565, 4.201e+003
554.886, 4.175e+003
556.206, 4.272e+003
557.526, 4.286e+003
558.846, 4.425e+003
560.166, 4.524e+003
561.486, 4.703e+003
562.805, 4.632e+003
564.124, 4.483e+003
565.443, 4.474e+003
566.762, 4.326e+003
568.080, 4.454e+003
569.399, 4.565e+003
570.717, 4.573e+003
572.035, 4.537e+003
573.352, 4.467e+003
574.670, 4.414e+003
575.987, 4.416e+003
577.304, 4.365e+003
578.621, 4.419e+003
579.938, 4.480e+003
581.254, 4.503e+003
582.570, 4.524e+003
583.886, 4.654e+003
585.202, 4.738e+003
586.518, 4.811e+003
587.833, 4.891e+003
589.148, 4.962e+003
590.463, 5.124e+003
591.778, 5.236e+003
593.093, 5.489e+003
594.407, 5.638e+003
595.721, 5.964e+003
597.035, 6.386e+003
598.349, 6.886e+003
599.662, 7.689e+003
600.976, 8.796e+003
602.289, 1.034e+004
603.602, 1.286e+004
604.914, 1.666e+004
606.227, 2.194e+004
607.539, 2.768e+004
608.851, 3.084e+004
610.163, 2.985e+004
611.475, 2.467e+004
612.786, 1.954e+004
614.097, 1.526e+004
615.408, 1.210e+004
616.719, 1.028e+004
618.030, 8.973e+003
619.340, 8.200e+003
620.651, 7.872e+003
621.961, 7.801e+003
623.270, 8.222e+003
624.580, 8.856e+003
625.889, 9.650e+003
627.199, 9.830e+003
628.507, 9.209e+003
629.816, 8.194e+003
631.125, 7.180e+003
632.433, 6.491e+003
633.741, 6.052e+003
635.049, 5.717e+003
636.357, 5.514e+003
637.664, 5.294e+003
638.972, 5.325e+003
640.279, 5.211e+003
641.586, 5.173e+003
642.893, 5.187e+003
644.199, 5.194e+003
645.505, 5.137e+003
646.811, 5.129e+003
648.117, 4.977e+003
649.423, 5.025e+003
650.728, 5.002e+003
652.034, 4.878e+003
653.339, 4.950e+003
654.644, 4.826e+003
655.948, 4.763e+003
657.253, 4.748e+003
658.557, 4.664e+003
659.861, 4.557e+003
661.165, 4.524e+003
662.468, 4.490e+003
663.772, 4.536e+003
665.075, 4.504e+003
666.378, 4.566e+003
667.681, 4.557e+003
668.983, 4.547e+003
670.286, 4.627e+003
671.588, 4.667e+003
672.890, 4.627e+003
674.192, 4.615e+003
675.493, 4.630e+003
676.795, 4.506e+003
678.096, 4.419e+003
679.397, 4.432e+003
680.697, 4.398e+003
681.998, 4.405e+003
683.298, 4.428e+003
684.598, 4.354e+003
685.898, 4.319e+003
687.198, 4.303e+003
688.498, 4.335e+003
689.797, 4.360e+003
691.096, 4.446e+003
692.395, 4.375e+003
693.694, 4.344e+003
694.992, 4.426e+003
696.290, 4.430e+003
697.589, 4.388e+003
698.886, 4.348e+003
700.184, 4.357e+003
701.482, 4.402e+003
702.779, 4.353e+003
704.076, 4.419e+003
705.373, 4.395e+003
706.669, 4.383e+003
707.966, 4.382e+003
709.262, 4.407e+003
710.558, 4.417e+003
711.854, 4.372e+003
713.150, 4.368e+003
714.445, 4.396e+003
715.740, 4.378e+003
717.035, 4.404e+003
718.330, 4.414e+003
719.625, 4.391e+003
720.919, 4.441e+003
722.214, 4.403e+003
723.508, 4.514e+003
724.801, 4.429e+003
726.095, 4.447e+003
727.388, 4.567e+003
728.682, 4.538e+003
729.975, 4.492e+003
731.267, 4.507e+003
732.560, 4.466e+003
733.852, 4.574e+003
735.145, 4.526e+003
736.437, 4.521e+003
737.728, 4.482e+003
739.020, 4.509e+003
740.311, 4.599e+003
741.603, 4.520e+003
742.894, 4.562e+003
744.184, 4.558e+003
745.475, 4.527e+003
746.765, 4.554e+003
748.055, 4.542e+003
749.345, 4.594e+003
750.635, 4.628e+003
751.925, 4.564e+003
753.214, 4.627e+003
754.503, 4.556e+003
755.792, 4.602e+003
757.081, 4.630e+003
758.370, 4.619e+003
759.658, 4.670e+003
760.946, 4.677e+003
762.234, 4.691e+003
763.522, 4.747e+003
764.809, 4.791e+003
766.097, 4.814e+003
767.384, 4.821e+003
768.671, 4.894e+003
769.958, 4.874e+003
771.244, 4.978e+003
772.530, 5.001e+003
773.817, 4.976e+003
775.102, 4.918e+003
776.388, 4.867e+003
777.674, 4.814e+003
778.959, 4.761e+003
780.244, 4.769e+003
781.529, 4.697e+003
782.814, 4.758e+003
784.098, 4.712e+003
785.383, 4.703e+003
786.667, 4.744e+003
787.951, 4.705e+003
789.235, 4.727e+003
790.518, 4.741e+003
791.801, 4.716e+003
793.084, 4.816e+003
794.367, 4.695e+003
795.650, 4.798e+003
796.933, 4.772e+003
798.215, 4.817e+003
799.497, 4.778e+003
800.779, 4.746e+003
802.061, 4.798e+003
803.342, 4.770e+003
804.624, 4.873e+003
805.905, 4.800e+003
807.186, 4.808e+003
808.466, 4.828e+003
809.747, 4.816e+003
811.027, 4.808e+003
812.307, 4.834e+003
813.587, 4.849e+003
814.867, 4.815e+003
816.146, 4.825e+003
817.426, 4.912e+003
818.705, 4.896e+003
819.984, 4.801e+003
821.263, 4.971e+003
822.541, 4.875e+003
823.819, 4.855e+003
825.098, 4.935e+003
826.375, 4.980e+003
827.653, 4.926e+003
828.931, 4.910e+003
830.208, 4.994e+003
831.485, 4.974e+003
832.762, 5.007e+003
834.039, 5.017e+003
835.315, 5.023e+003
836.592, 4.965e+003
837.868, 5.138e+003
839.144, 5.164e+003
840.420, 5.094e+003
841.695, 5.137e+003
842.970, 5.146e+003
844.246, 5.233e+003
845.521, 5.187e+003
846.795, 5.160e+003
848.070, 5.244e+003
849.344, 5.311e+003
850.618, 5.303e+003
851.892, 5.317e+003
853.166, 5.331e+003
854.440, 5.422e+003
855.713, 5.429e+003
856.986, 5.518e+003
858.259, 5.646e+003
859.532, 5.682e+003
860.804, 5.658e+003
862.077, 5.744e+003
863.349, 5.675e+003
864.621, 5.710e+003
865.893, 5.761e+003
867.164, 5.814e+003
868.436, 5.760e+003
869.707, 5.809e+003
870.978, 5.766e+003
872.248, 5.722e+003
873.519, 5.761e+003
874.789, 5.549e+003
876.060, 5.616e+003
877.330, 5.593e+003
878.599, 5.540e+003
879.869, 5.574e+003
881.138, 5.553e+003
882.408, 5.616e+003
883.677, 5.587e+003
884.945, 5.551e+003
886.214, 5.678e+003
887.482, 5.727e+003
888.751, 5.763e+003
890.019, 5.835e+003
891.287, 5.976e+003
892.554, 6.095e+003
893.822, 6.214e+003
895.089, 6.486e+003
896.356, 6.614e+003
897.623, 6.603e+003
898.889, 6.603e+003
900.156, 6.531e+003
901.422, 6.301e+003
902.688, 6.284e+003
903.954, 6.130e+003
905.220, 6.055e+003
906.485, 5.964e+003
907.750, 5.840e+003
909.015, 5.911e+003
910.280, 5.852e+003
911.545, 5.835e+003
912.809, 5.682e+003
914.074, 5.694e+003
915.338, 5.697e+003
916.602, 5.616e+003
917.865, 5.561e+003
919.129, 5.592e+003
920.392, 5.504e+003
921.655, 5.454e+003
922.918, 5.495e+003
924.181, 5.455e+003
925.443, 5.546e+003
926.706, 5.430e+003
927.968, 5.464e+003
929.230, 5.445e+003
930.491, 5.422e+003
931.753, 5.420e+003
933.014, 5.396e+003
934.276, 5.472e+003
935.536, 5.451e+003
936.797, 5.445e+003
938.058, 5.496e+003
939.318, 5.553e+003
940.578, 5.477e+003
941.838, 5.577e+003
943.098, 5.609e+003
944.358, 5.707e+003
945.617, 5.724e+003
946.876, 5.689e+003
948.135, 5.854e+003
949.394, 5.809e+003
950.653, 5.790e+003
951.911, 5.747e+003
953.169, 5.706e+003
954.427, 5.758e+003
955.685, 5.703e+003
956.943, 5.665e+003
958.200, 5.725e+003
959.458, 5.720e+003
960.715, 5.738e+003
961.971, 5.836e+003
963.228, 5.886e+003
964.485, 6.097e+003
965.741, 6.222e+003
966.997, 6.390e+003
968.253, 6.877e+003
969.508, 7.333e+003
970.764, 8.119e+003
972.019, 8.543e+003
973.274, 8.387e+003
974.529, 7.918e+003
975.784, 7.140e+003
977.039, 6.708e+003
978.293, 6.346e+003
979.547, 6.182e+003
980.801, 6.093e+003
982.055, 5.910e+003
983.308, 5.987e+003
984.562, 5.949e+003
985.815, 5.925e+003
987.068, 5.961e+003
988.321, 6.017e+003
989.573, 6.023e+003
990.826, 6.094e+003
992.078, 6.093e+003
993.330, 6.206e+003
994.582, 6.272e+003
995.833, 6.238e+003
997.085, 6.311e+003
998.336, 6.397e+003
999.587, 6.420e+003
1000.838, 6.672e+003
1002.088, 6.494e+003
1003.339, 6.311e+003
1004.589, 6.144e+003
1005.839, 5.933e+003
1007.089, 5.920e+003
1008.339, 5.830e+003
1009.588, 5.785e+003
1010.838, 5.706e+003
1012.087, 5.721e+003
1013.336, 5.804e+003
1014.584, 5.727e+003
1015.833, 5.708e+003
1017.081, 5.834e+003
1018.330, 5.827e+003
1019.577, 5.910e+003
1020.825, 5.866e+003
1022.073, 5.909e+003
1023.320, 5.921e+003
1024.567, 5.868e+003
1025.814, 5.833e+003
1027.061, 5.871e+003
1028.308, 5.827e+003
1029.554, 5.833e+003
1030.800, 5.790e+003
1032.046, 5.796e+003
1033.292, 5.805e+003
1034.538, 5.887e+003
1035.783, 5.932e+003
1037.029, 6.155e+003
1038.274, 6.256e+003
1039.519, 6.494e+003
1040.763, 6.343e+003
1042.008, 6.145e+003
1043.252, 6.100e+003
1044.496, 5.876e+003
1045.740, 5.882e+003
1046.984, 5.792e+003
1048.228, 5.811e+003
1049.471, 5.782e+003
1050.714, 5.742e+003
1051.957, 5.758e+003
1053.200, 5.771e+003
1054.442, 5.666e+003
1055.685, 5.720e+003
1056.927, 5.789e+003
1058.169, 5.602e+003
1059.411, 5.681e+003
1060.652, 5.738e+003
1061.894, 5.742e+003
1063.135, 5.744e+003
1064.376, 5.699e+003
1065.617, 5.781e+003
1066.858, 5.723e+003
1068.098, 5.798e+003
1069.339, 5.880e+003
1070.579, 5.718e+003
1071.819, 5.891e+003
1073.058, 5.837e+003
1074.298, 5.897e+003
1075.537, 5.927e+003
1076.776, 5.985e+003
1078.015, 6.101e+003
1079.254, 6.091e+003
1080.493, 6.078e+003
1081.731, 6.204e+003
1082.969, 6.280e+003
1084.207, 6.266e+003
1085.445, 6.325e+003
1086.683, 6.243e+003
1087.920, 6.233e+003
1089.157, 6.300e+003
1090.394, 6.357e+003
1091.631, 6.451e+003
1092.868, 6.453e+003
1094.105, 6.562e+003
1095.341, 6.572e+003
1096.577, 6.760e+003
1097.813, 6.915e+003
1099.049, 7.097e+003
1100.284, 7.250e+003
1101.519, 7.496e+003
1102.755, 7.580e+003
1103.990, 7.822e+003
1105.224, 7.847e+003
1106.459, 7.883e+003
1107.693, 7.869e+003
1108.928, 7.705e+003
1110.162, 7.473e+003
1111.395, 7.449e+003
1112.629, 7.179e+003
1113.863, 7.060e+003
1115.096, 6.916e+003
1116.329, 6.731e+003
1117.562, 6.697e+003
1118.795, 6.604e+003
1120.027, 6.489e+003
1121.259, 6.553e+003
1122.492, 6.485e+003
1123.723, 6.336e+003
1124.955, 6.294e+003
1126.187, 6.317e+003
1127.418, 6.286e+003
1128.649, 6.242e+003
1129.880, 6.171e+003
1131.111, 6.189e+003
1132.342, 6.175e+003
1133.572, 6.124e+003
1134.802, 6.057e+003
1136.033, 6.026e+003
1137.262, 6.029e+003
1138.492, 5.965e+003
1139.722, 5.978e+003
1140.951, 5.988e+003
1142.180, 5.962e+003
1143.409, 5.946e+003
1144.638, 5.890e+003
1145.866, 5.919e+003
1147.095, 6.080e+003
1148.323, 5.966e+003
1149.551, 5.962e+003
1150.779, 5.948e+003
1152.006, 5.914e+003
1153.234, 6.004e+003
1154.461, 5.971e+003
1155.688, 5.944e+003
1156.915, 6.012e+003
1158.141, 5.963e+003
1159.368, 6.059e+003
1160.594, 6.027e+003
1161.820, 5.992e+003
1163.046, 6.039e+003
1164.272, 6.000e+003
1165.498, 6.055e+003
1166.723, 6.038e+003
1167.948, 6.030e+003
1169.173, 6.104e+003
1170.398, 6.067e+003
1171.623, 6.171e+003
1172.847, 6.115e+003
1174.071, 6.095e+003
1175.295, 6.032e+003
1176.519, 6.156e+003
1177.743, 6.110e+003
1178.966, 6.150e+003
1180.190, 6.123e+003
1181.413, 6.063e+003
1182.636, 6.084e+003
1183.858, 6.117e+003
1185.081, 6.084e+003
1186.303, 6.131e+003
1187.526, 6.114e+003
1188.748, 6.136e+003
1189.969, 6.152e+003
1191.191, 6.012e+003
1192.412, 6.060e+003
1193.634, 6.034e+003
1194.855, 6.063e+003
1196.076, 6.124e+003
1197.296, 6.058e+003
1198.517, 6.086e+003
1199.737, 6.088e+003
1200.957, 6.129e+003
1202.177, 6.114e+003
1203.397, 6.189e+003
1204.617, 6.110e+003
1205.836, 6.162e+003
1207.055, 6.057e+003
1208.274, 6.097e+003
1209.493, 6.096e+003
1210.712, 6.126e+003
1211.930, 6.168e+003
1213.148, 6.182e+003
1214.367, 6.165e+003
1215.584, 6.237e+003
1216.802, 6.307e+003
1218.020, 6.155e+003
1219.237, 6.195e+003
1220.454, 6.145e+003
1221.671, 6.103e+003
1222.888, 6.198e+003
1224.105, 6.228e+003
1225.321, 6.204e+003
1226.537, 6.241e+003
1227.753, 6.204e+003
1228.969, 6.299e+003
1230.185, 6.244e+003
1231.400, 6.302e+003
1232.616, 6.327e+003
1233.831, 6.348e+003
1235.046, 6.337e+003
1236.261, 6.408e+003
1237.475, 6.485e+003
1238.689, 6.478e+003
1239.904, 6.350e+003
1241.118, 6.482e+003
1242.332, 6.411e+003
1243.545, 6.390e+003
1244.759, 6.398e+003
1245.972, 6.471e+003
1247.185, 6.471e+003
1248.398, 6.501e+003
1249.611, 6.504e+003
1250.823, 6.442e+003
1252.036, 6.377e+003
1253.248, 6.399e+003
1254.460, 6.362e+003
1255.671, 6.457e+003
1256.883, 6.392e+003
1258.095, 6.475e+003
1259.306, 6.332e+003
1260.517, 6.432e+003
1261.728, 6.520e+003
1262.938, 6.443e+003
1264.149, 6.528e+003
1265.359, 6.539e+003
1266.569, 6.529e+003
1267.779, 6.628e+003
1268.989, 6.539e+003
1270.199, 6.661e+003
1271.408, 6.621e+003
1272.617, 6.551e+003
1273.826, 6.574e+003
1275.035, 6.609e+003
1276.244, 6.618e+003
1277.452, 6.618e+003
1278.661, 6.562e+003
1279.869, 6.513e+003
1281.077, 6.520e+003
1282.285, 6.496e+003
1283.492, 6.485e+003
1284.700, 6.440e+003
1285.907, 6.477e+003
1287.114, 6.459e+003
1288.321, 6.482e+003
1289.527, 6.573e+003
1290.734, 6.547e+003
1291.940, 6.555e+003
1293.146, 6.633e+003
1294.352, 6.708e+003
1295.558, 6.616e+003
1296.763, 6.623e+003
1297.969, 6.548e+003
1299.174, 6.487e+003
1300.379, 6.554e+003
1301.584, 6.500e+003
1302.788, 6.618e+003
1303.993, 6.643e+003
1305.197, 6.530e+003
1306.401, 6.677e+003
1307.605, 6.684e+003
1308.809, 6.676e+003
1310.013, 6.864e+003
1311.216, 6.715e+003
1312.419, 6.709e+003
1313.622, 6.755e+003
1314.825, 6.804e+003
1316.028, 6.850e+003
1317.230, 6.846e+003
1318.432, 6.745e+003
1319.634, 6.828e+003
1320.836, 6.834e+003
1322.038, 6.778e+003
1323.240, 6.812e+003
1324.441, 6.721e+003
1325.642, 6.720e+003
1326.843, 6.746e+003
1328.044, 6.596e+003
1329.245, 6.619e+003
1330.445, 6.639e+003
1331.645, 6.611e+003
1332.845, 6.615e+003
1334.045, 6.631e+003
1335.245, 6.563e+003
1336.445, 6.665e+003
1337.644, 6.558e+003
1338.843, 6.651e+003
1340.042, 6.633e+003
1341.241, 6.683e+003
1342.440, 6.669e+003
1343.638, 6.660e+003
1344.836, 6.614e+003
1346.034, 6.727e+003
1347.232, 6.627e+003
1348.430, 6.664e+003
1349.628, 6.658e+003
1350.825, 6.620e+003
1352.022, 6.701e+003
1353.219, 6.616e+003
1354.416, 6.654e+003
1355.613, 6.659e+003
1356.809, 6.671e+003
1358.005, 6.704e+003
1359.202, 6.684e+003
1360.398, 6.745e+003
1361.593, 6.729e+003
1362.789, 6.741e+003
1363.984, 6.594e+003
1365.179, 6.720e+003
1366.374, 6.800e+003
1367.569, 6.711e+003
1368.764, 6.807e+003
1369.958, 6.835e+003
1371.153, 6.784e+003
1372.347, 6.916e+003
1373.541, 6.780e+003
1374.735, 6.840e+003
1375.928, 6.889e+003
1377.122, 6.866e+003
1378.315, 6.889e+003
1379.508, 6.963e+003
1380.701, 6.850e+003
1381.893, 6.852e+003
1383.086, 6.912e+003
1384.278, 6.901e+003
1385.470, 7.004e+003
1386.662, 6.920e+003
1387.854, 6.833e+003
1389.046, 7.009e+003
1390.237, 6.920e+003
1391.428, 6.980e+003
1392.619, 6.990e+003
1393.810, 6.977e+003
1395.001, 6.931e+003
1396.191, 6.896e+003
1397.382, 6.922e+003
1398.572, 6.927e+003
1399.762, 6.870e+003
1400.952, 6.918e+003
1402.141, 6.974e+003
1403.331, 6.864e+003
1404.520, 6.983e+003
1405.709, 6.965e+003
1406.898, 6.944e+003
1408.087, 6.999e+003
1409.275, 6.951e+003
1410.464, 7.022e+003
1411.652, 7.021e+003
1412.840, 7.007e+003
1414.028, 7.025e+003
1415.215, 7.064e+003
1416.403, 6.995e+003
1417.590, 7.148e+003
1418.777, 7.135e+003
1419.964, 7.101e+003
1421.151, 7.124e+003
1422.338, 7.218e+003
1423.524, 7.139e+003
1424.710, 7.194e+003
1425.896, 7.123e+003
1427.082, 7.225e+003
1428.268, 7.302e+003
1429.453, 7.288e+003
1430.639, 7.734e+003
1431.824, 7.352e+003
1433.009, 7.420e+003
1434.194, 7.468e+003
1435.378, 7.541e+003
1436.563, 7.594e+003
1437.747, 7.770e+003
1438.931, 7.754e+003
1440.115, 7.953e+003
1441.299, 8.150e+003
1442.482, 8.120e+003
1443.666, 8.163e+003
1444.849, 8.263e+003
1446.032, 8.188e+003
1447.215, 8.406e+003
1448.397, 8.344e+003
1449.580, 8.339e+003
1450.762, 8.578e+003
1451.944, 8.473e+003
1453.126, 8.523e+003
1454.308, 8.561e+003
1455.490, 8.440e+003
1456.671, 8.530e+003
1457.852, 8.491e+003
1459.033, 8.458e+003
1460.214, 8.473e+003
1461.395, 8.348e+003
1462.575, 8.178e+003
1463.756, 8.189e+003
1464.936, 8.143e+003
1466.116, 8.154e+003
1467.296, 7.904e+003
1468.475, 7.956e+003
1469.655, 7.795e+003
1470.834, 7.879e+003
1472.013, 7.700e+003
1473.192, 7.804e+003
1474.371, 7.686e+003
1475.550, 7.724e+003
1476.728, 7.744e+003
1477.906, 7.786e+003
1479.084, 7.686e+003
1480.262, 7.770e+003
1481.440, 7.657e+003
1482.617, 7.690e+003
1483.795, 7.698e+003
1484.972, 7.702e+003
1486.149, 7.622e+003
1487.326, 7.595e+003
1488.502, 7.626e+003
1489.679, 7.598e+003
1490.855, 7.527e+003
1492.031, 7.441e+003
1493.207, 7.470e+003
1494.383, 7.444e+003
1495.559, 7.479e+003
1496.734, 7.412e+003
1497.909, 7.424e+003
1499.084, 7.394e+003
1500.259, 7.501e+003
1501.434, 7.401e+003
1502.608, 7.428e+003
1503.783, 7.784e+003
1504.957, 1.860e+002
##END=



