##NAMES=Danburite
##RRUFFID=R040013
##IDEAL CHEMISTRY=CaB_2_Si_2_O_8_
##LOCALITY=Charcas, San Luis Potosi, Mexico
##OWNER=RRUFF
##SOURCE=Marcus Origlieri
##DESCRIPTION=Colorless prismatic single crystal
##STATUS=The identification of this mineral has been confirmed by X-ray diffraction and chemical analysis
##URL=rruff.info/R040013
##MEASURED CHEMISTRY=Ca_1.00_B_2.00_Si_2.00_O_8_
##PIN_ID=M00012
##ORIENTATION=Laser parallel to c* (0 0 1). Fiducial mark perpendicular to laser is parallel to a [1 0 0]
26.288, 1.995e+003
27.694, 1.957e+003
29.099, 1.940e+003
30.504, 1.948e+003
31.909, 1.892e+003
33.313, 1.909e+003
34.717, 1.875e+003
36.121, 1.871e+003
37.525, 1.869e+003
38.929, 1.835e+003
40.332, 1.843e+003
41.735, 1.772e+003
43.138, 1.760e+003
44.541, 1.732e+003
45.943, 1.758e+003
47.345, 1.745e+003
48.747, 1.714e+003
50.149, 1.715e+003
51.551, 1.696e+003
52.952, 1.654e+003
54.353, 1.633e+003
55.754, 1.644e+003
57.155, 1.681e+003
58.555, 1.711e+003
59.955, 1.677e+003
61.355, 1.682e+003
62.755, 1.609e+003
64.154, 1.515e+003
65.553, 1.489e+003
66.952, 1.429e+003
68.351, 1.404e+003
69.750, 1.410e+003
71.148, 1.354e+003
72.546, 1.323e+003
73.944, 1.274e+003
75.342, 1.265e+003
76.739, 1.242e+003
78.136, 1.233e+003
79.533, 1.230e+003
80.930, 1.257e+003
82.327, 1.330e+003
83.723, 1.368e+003
85.119, 1.402e+003
86.515, 1.462e+003
87.910, 1.604e+003
89.306, 1.686e+003
90.701, 1.751e+003
92.096, 1.939e+003
93.490, 2.048e+003
94.885, 2.180e+003
96.279, 2.316e+003
97.673, 2.452e+003
99.067, 2.645e+003
100.461, 2.622e+003
101.854, 2.828e+003
103.247, 2.748e+003
104.640, 2.900e+003
106.032, 2.903e+003
107.425, 2.949e+003
108.817, 3.039e+003
110.209, 3.313e+003
111.601, 3.720e+003
112.992, 3.259e+003
114.384, 3.243e+003
115.775, 3.497e+003
117.166, 3.968e+003
118.556, 4.135e+003
119.947, 4.476e+003
121.337, 5.939e+003
122.727, 8.212e+003
124.116, 1.086e+004
125.506, 1.139e+004
126.895, 1.234e+004
128.284, 1.501e+004
129.673, 1.520e+004
131.062, 1.220e+004
132.450, 7.856e+003
133.838, 5.512e+003
135.226, 4.185e+003
136.614, 3.527e+003
138.001, 3.265e+003
139.388, 3.030e+003
140.775, 2.889e+003
142.162, 2.628e+003
143.549, 2.585e+003
144.935, 2.539e+003
146.321, 2.454e+003
147.707, 2.432e+003
149.093, 2.380e+003
150.478, 2.448e+003
151.863, 2.408e+003
153.248, 2.482e+003
154.633, 2.443e+003
156.018, 2.484e+003
157.402, 2.649e+003
158.786, 2.987e+003
160.170, 3.965e+003
161.554, 4.710e+003
162.937, 7.618e+003
164.320, 1.282e+004
165.703, 1.700e+004
167.086, 1.443e+004
168.469, 8.676e+003
169.851, 5.443e+003
171.233, 3.795e+003
172.615, 3.086e+003
173.996, 2.610e+003
175.378, 2.383e+003
176.759, 2.364e+003
178.140, 2.306e+003
179.521, 2.399e+003
180.901, 2.394e+003
182.281, 2.465e+003
183.662, 2.335e+003
185.041, 2.298e+003
186.421, 2.312e+003
187.800, 2.274e+003
189.180, 2.388e+003
190.558, 2.398e+003
191.937, 2.374e+003
193.316, 2.327e+003
194.694, 2.254e+003
196.072, 2.257e+003
197.450, 2.168e+003
198.827, 2.201e+003
200.205, 2.167e+003
201.582, 2.278e+003
202.959, 2.343e+003
204.336, 2.406e+003
205.712, 2.635e+003
207.088, 2.814e+003
208.465, 3.244e+003
209.840, 3.775e+003
211.216, 4.072e+003
212.591, 3.813e+003
213.967, 3.167e+003
215.341, 2.771e+003
216.716, 2.482e+003
218.091, 2.360e+003
219.465, 2.274e+003
220.839, 2.226e+003
222.213, 2.241e+003
223.586, 2.174e+003
224.960, 2.203e+003
226.333, 2.184e+003
227.706, 2.200e+003
229.079, 2.213e+003
230.451, 2.213e+003
231.823, 2.234e+003
233.195, 2.314e+003
234.567, 2.414e+003
235.939, 2.420e+003
237.310, 2.667e+003
238.682, 3.120e+003
240.052, 3.720e+003
241.423, 4.754e+003
242.794, 6.375e+003
244.164, 8.556e+003
245.534, 9.225e+003
246.904, 8.247e+003
248.274, 6.595e+003
249.643, 5.005e+003
251.012, 4.207e+003
252.381, 3.555e+003
253.750, 3.230e+003
255.118, 2.939e+003
256.487, 2.745e+003
257.855, 2.705e+003
259.223, 2.585e+003
260.590, 2.545e+003
261.958, 2.374e+003
263.325, 2.432e+003
264.692, 2.337e+003
266.059, 2.314e+003
267.425, 2.320e+003
268.791, 2.271e+003
270.158, 2.308e+003
271.523, 2.271e+003
272.889, 2.283e+003
274.255, 2.344e+003
275.620, 2.297e+003
276.985, 2.382e+003
278.350, 2.302e+003
279.714, 2.312e+003
281.078, 2.237e+003
282.443, 2.210e+003
283.806, 2.173e+003
285.170, 2.136e+003
286.534, 2.132e+003
287.897, 2.103e+003
289.260, 2.150e+003
290.623, 2.148e+003
291.985, 2.129e+003
293.348, 2.165e+003
294.710, 2.162e+003
296.072, 2.280e+003
297.433, 2.250e+003
298.795, 2.302e+003
300.156, 2.399e+003
301.517, 2.463e+003
302.878, 2.688e+003
304.239, 2.850e+003
305.599, 3.230e+003
306.959, 3.741e+003
308.319, 4.436e+003
309.679, 5.396e+003
311.038, 6.022e+003
312.398, 6.474e+003
313.757, 5.805e+003
315.116, 4.916e+003
316.474, 4.121e+003
317.833, 3.420e+003
319.191, 3.066e+003
320.549, 2.783e+003
321.907, 2.631e+003
323.264, 2.528e+003
324.622, 2.437e+003
325.979, 2.424e+003
327.336, 2.404e+003
328.692, 2.423e+003
330.049, 2.396e+003
331.405, 2.466e+003
332.761, 2.487e+003
334.117, 2.555e+003
335.473, 2.686e+003
336.828, 2.854e+003
338.183, 3.193e+003
339.538, 3.563e+003
340.893, 4.435e+003
342.247, 5.844e+003
343.602, 7.974e+003
344.956, 1.207e+004
346.310, 1.638e+004
347.663, 1.957e+004
349.017, 1.821e+004
350.370, 1.368e+004
351.723, 9.898e+003
353.076, 7.130e+003
354.428, 5.533e+003
355.780, 4.352e+003
357.133, 3.674e+003
358.484, 3.320e+003
359.836, 2.952e+003
361.188, 2.834e+003
362.539, 2.658e+003
363.890, 2.596e+003
365.241, 2.487e+003
366.591, 2.438e+003
367.942, 2.383e+003
369.292, 2.326e+003
370.642, 2.345e+003
371.992, 2.294e+003
373.341, 2.276e+003
374.691, 2.214e+003
376.040, 2.213e+003
377.388, 2.212e+003
378.737, 2.190e+003
380.086, 2.211e+003
381.434, 2.149e+003
382.782, 2.180e+003
384.130, 2.208e+003
385.477, 2.202e+003
386.825, 2.198e+003
388.172, 2.237e+003
389.519, 2.241e+003
390.865, 2.260e+003
392.212, 2.211e+003
393.558, 2.265e+003
394.904, 2.238e+003
396.250, 2.275e+003
397.596, 2.217e+003
398.941, 2.190e+003
400.286, 2.231e+003
401.631, 2.230e+003
402.976, 2.266e+003
404.321, 2.273e+003
405.665, 2.235e+003
407.009, 2.299e+003
408.353, 2.258e+003
409.697, 2.309e+003
411.040, 2.285e+003
412.384, 2.324e+003
413.727, 2.396e+003
415.070, 2.456e+003
416.412, 2.569e+003
417.755, 2.664e+003
419.097, 2.987e+003
420.439, 3.279e+003
421.781, 3.624e+003
423.122, 4.086e+003
424.464, 4.141e+003
425.805, 4.139e+003
427.146, 3.693e+003
428.486, 3.324e+003
429.827, 2.933e+003
431.167, 2.679e+003
432.507, 2.536e+003
433.847, 2.374e+003
435.187, 2.321e+003
436.526, 2.290e+003
437.865, 2.285e+003
439.204, 2.381e+003
440.543, 2.386e+003
441.882, 2.407e+003
443.220, 2.373e+003
444.558, 2.247e+003
445.896, 2.220e+003
447.234, 2.171e+003
448.572, 2.201e+003
449.909, 2.160e+003
451.246, 2.207e+003
452.583, 2.207e+003
453.919, 2.186e+003
455.256, 2.226e+003
456.592, 2.232e+003
457.928, 2.260e+003
459.264, 2.318e+003
460.600, 2.284e+003
461.935, 2.404e+003
463.270, 2.366e+003
464.605, 2.384e+003
465.940, 2.378e+003
467.274, 2.465e+003
468.609, 2.491e+003
469.943, 2.522e+003
471.277, 2.770e+003
472.610, 3.019e+003
473.944, 3.446e+003
475.277, 4.345e+003
476.610, 5.708e+003
477.943, 8.043e+003
479.275, 9.682e+003
480.608, 9.929e+003
481.940, 8.166e+003
483.272, 6.010e+003
484.604, 4.636e+003
485.935, 3.684e+003
487.267, 3.147e+003
488.598, 2.847e+003
489.929, 2.619e+003
491.260, 2.551e+003
492.590, 2.427e+003
493.920, 2.387e+003
495.250, 2.314e+003
496.580, 2.314e+003
497.910, 2.282e+003
499.239, 2.250e+003
500.569, 2.240e+003
501.898, 2.235e+003
503.226, 2.228e+003
504.555, 2.204e+003
505.883, 2.235e+003
507.212, 2.256e+003
508.540, 2.238e+003
509.867, 2.243e+003
511.195, 2.276e+003
512.522, 2.240e+003
513.849, 2.257e+003
515.176, 2.211e+003
516.503, 2.288e+003
517.829, 2.312e+003
519.156, 2.277e+003
520.482, 2.288e+003
521.808, 2.289e+003
523.133, 2.305e+003
524.459, 2.278e+003
525.784, 2.275e+003
527.109, 2.317e+003
528.434, 2.262e+003
529.758, 2.323e+003
531.083, 2.305e+003
532.407, 2.270e+003
533.731, 2.296e+003
535.055, 2.257e+003
536.378, 2.302e+003
537.701, 2.267e+003
539.025, 2.322e+003
540.348, 2.263e+003
541.670, 2.274e+003
542.993, 2.331e+003
544.315, 2.327e+003
545.637, 2.350e+003
546.959, 2.363e+003
548.281, 2.324e+003
549.602, 2.421e+003
550.923, 2.419e+003
552.244, 2.458e+003
553.565, 2.426e+003
554.886, 2.487e+003
556.206, 2.580e+003
557.526, 2.679e+003
558.846, 2.897e+003
560.166, 3.139e+003
561.486, 3.575e+003
562.805, 3.873e+003
564.124, 3.631e+003
565.443, 3.446e+003
566.762, 3.088e+003
568.080, 2.944e+003
569.399, 2.957e+003
570.717, 2.838e+003
572.035, 2.935e+003
573.352, 2.884e+003
574.670, 2.873e+003
575.987, 2.963e+003
577.304, 2.936e+003
578.621, 2.990e+003
579.938, 3.064e+003
581.254, 3.217e+003
582.570, 3.347e+003
583.886, 3.358e+003
585.202, 3.564e+003
586.518, 3.654e+003
587.833, 3.806e+003
589.148, 3.943e+003
590.463, 4.132e+003
591.778, 4.418e+003
593.093, 4.594e+003
594.407, 5.078e+003
595.721, 5.455e+003
597.035, 6.078e+003
598.349, 7.085e+003
599.662, 8.041e+003
600.976, 9.911e+003
602.289, 1.208e+004
603.602, 1.551e+004
604.914, 2.126e+004
606.227, 2.852e+004
607.539, 3.958e+004
608.851, 4.841e+004
610.163, 5.171e+004
611.475, 4.854e+004
612.786, 3.951e+004
614.097, 3.109e+004
615.408, 2.297e+004
616.719, 1.764e+004
618.030, 1.420e+004
619.340, 1.121e+004
620.651, 9.830e+003
621.961, 8.558e+003
623.270, 8.060e+003
624.580, 7.956e+003
625.889, 7.734e+003
627.199, 8.148e+003
628.507, 7.609e+003
629.816, 7.072e+003
631.125, 6.402e+003
632.433, 5.519e+003
633.741, 5.175e+003
635.049, 4.636e+003
636.357, 4.450e+003
637.664, 4.272e+003
638.972, 4.069e+003
640.279, 4.030e+003
641.586, 3.966e+003
642.893, 3.916e+003
644.199, 3.971e+003
645.505, 3.841e+003
646.811, 3.929e+003
648.117, 3.777e+003
649.423, 3.673e+003
650.728, 3.679e+003
652.034, 3.518e+003
653.339, 3.535e+003
654.644, 3.341e+003
655.948, 3.306e+003
657.253, 3.221e+003
658.557, 3.011e+003
659.861, 3.012e+003
661.165, 2.888e+003
662.468, 2.868e+003
663.772, 2.821e+003
665.075, 2.709e+003
666.378, 2.823e+003
667.681, 2.714e+003
668.983, 2.686e+003
670.286, 2.705e+003
671.588, 2.669e+003
672.890, 2.675e+003
674.192, 2.626e+003
675.493, 2.640e+003
676.795, 2.625e+003
678.096, 2.567e+003
679.397, 2.605e+003
680.697, 2.544e+003
681.998, 2.552e+003
683.298, 2.587e+003
684.598, 2.497e+003
685.898, 2.540e+003
687.198, 2.529e+003
688.498, 2.517e+003
689.797, 2.552e+003
691.096, 2.471e+003
692.395, 2.550e+003
693.694, 2.490e+003
694.992, 2.547e+003
696.290, 2.526e+003
697.589, 2.536e+003
698.886, 2.520e+003
700.184, 2.497e+003
701.482, 2.478e+003
702.779, 2.506e+003
704.076, 2.444e+003
705.373, 2.534e+003
706.669, 2.513e+003
707.966, 2.541e+003
709.262, 2.466e+003
710.558, 2.479e+003
711.854, 2.566e+003
713.150, 2.462e+003
714.445, 2.510e+003
715.740, 2.533e+003
717.035, 2.501e+003
718.330, 2.540e+003
719.625, 2.479e+003
720.919, 2.543e+003
722.214, 2.539e+003
723.508, 2.538e+003
724.801, 2.549e+003
726.095, 2.558e+003
727.388, 2.572e+003
728.682, 2.571e+003
729.975, 2.551e+003
731.267, 2.680e+003
732.560, 2.542e+003
733.852, 2.597e+003
735.145, 2.650e+003
736.437, 2.568e+003
737.728, 2.576e+003
739.020, 2.587e+003
740.311, 2.569e+003
741.603, 2.600e+003
742.894, 2.593e+003
744.184, 2.655e+003
745.475, 2.611e+003
746.765, 2.727e+003
748.055, 2.693e+003
749.345, 2.590e+003
750.635, 2.666e+003
751.925, 2.680e+003
753.214, 2.684e+003
754.503, 2.718e+003
755.792, 2.619e+003
757.081, 2.641e+003
758.370, 2.660e+003
759.658, 2.690e+003
760.946, 2.755e+003
762.234, 2.665e+003
763.522, 2.735e+003
764.809, 2.787e+003
766.097, 2.728e+003
767.384, 2.828e+003
768.671, 2.814e+003
769.958, 2.841e+003
771.244, 2.880e+003
772.530, 2.864e+003
773.817, 2.954e+003
775.102, 2.903e+003
776.388, 2.904e+003
777.674, 2.833e+003
778.959, 2.806e+003
780.244, 2.811e+003
781.529, 2.780e+003
782.814, 2.770e+003
784.098, 2.843e+003
785.383, 2.722e+003
786.667, 2.858e+003
787.951, 2.795e+003
789.235, 2.878e+003
790.518, 2.884e+003
791.801, 2.800e+003
793.084, 2.893e+003
794.367, 2.772e+003
795.650, 2.877e+003
796.933, 2.850e+003
798.215, 2.808e+003
799.497, 2.824e+003
800.779, 2.806e+003
802.061, 2.826e+003
803.342, 2.798e+003
804.624, 2.793e+003
805.905, 2.774e+003
807.186, 2.794e+003
808.466, 2.776e+003
809.747, 2.819e+003
811.027, 2.752e+003
812.307, 2.802e+003
813.587, 2.831e+003
814.867, 2.782e+003
816.146, 2.880e+003
817.426, 2.782e+003
818.705, 2.851e+003
819.984, 2.855e+003
821.263, 2.864e+003
822.541, 2.946e+003
823.819, 2.860e+003
825.098, 2.886e+003
826.375, 2.964e+003
827.653, 2.878e+003
828.931, 3.008e+003
830.208, 2.888e+003
831.485, 2.936e+003
832.762, 2.971e+003
834.039, 2.947e+003
835.315, 2.999e+003
836.592, 2.937e+003
837.868, 3.046e+003
839.144, 3.070e+003
840.420, 3.031e+003
841.695, 3.188e+003
842.970, 3.130e+003
844.246, 3.183e+003
845.521, 3.246e+003
846.795, 3.205e+003
848.070, 3.308e+003
849.344, 3.292e+003
850.618, 3.241e+003
851.892, 3.390e+003
853.166, 3.306e+003
854.440, 3.496e+003
855.713, 3.490e+003
856.986, 3.527e+003
858.259, 3.729e+003
859.532, 3.608e+003
860.804, 3.664e+003
862.077, 3.766e+003
863.349, 3.546e+003
864.621, 3.697e+003
865.893, 3.444e+003
867.164, 3.344e+003
868.436, 3.453e+003
869.707, 3.206e+003
870.978, 3.324e+003
872.248, 3.264e+003
873.519, 3.266e+003
874.789, 3.346e+003
876.060, 3.243e+003
877.330, 3.336e+003
878.599, 3.359e+003
879.869, 3.291e+003
881.138, 3.342e+003
882.408, 3.304e+003
883.677, 3.311e+003
884.945, 3.352e+003
886.214, 3.268e+003
887.482, 3.388e+003
888.751, 3.367e+003
890.019, 3.369e+003
891.287, 3.464e+003
892.554, 3.405e+003
893.822, 3.547e+003
895.089, 3.552e+003
896.356, 3.568e+003
897.623, 3.798e+003
898.889, 3.684e+003
900.156, 3.882e+003
901.422, 3.941e+003
902.688, 3.953e+003
903.954, 4.174e+003
905.220, 4.038e+003
906.485, 4.217e+003
907.750, 4.257e+003
909.015, 4.191e+003
910.280, 4.388e+003
911.545, 4.296e+003
912.809, 4.464e+003
914.074, 4.644e+003
915.338, 4.615e+003
916.602, 4.732e+003
917.865, 4.549e+003
919.129, 4.473e+003
920.392, 4.314e+003
921.655, 4.032e+003
922.918, 4.018e+003
924.181, 3.851e+003
925.443, 3.745e+003
926.706, 3.838e+003
927.968, 3.690e+003
929.230, 3.792e+003
930.491, 3.755e+003
931.753, 3.782e+003
933.014, 3.898e+003
934.276, 3.883e+003
935.536, 4.057e+003
936.797, 4.238e+003
938.058, 4.216e+003
939.318, 4.579e+003
940.578, 4.753e+003
941.838, 5.216e+003
943.098, 5.709e+003
944.358, 6.060e+003
945.617, 6.738e+003
946.876, 7.104e+003
948.135, 7.182e+003
949.394, 7.340e+003
950.653, 6.770e+003
951.911, 6.438e+003
953.169, 5.938e+003
954.427, 5.376e+003
955.685, 5.142e+003
956.943, 4.783e+003
958.200, 4.601e+003
959.458, 4.668e+003
960.715, 4.473e+003
961.971, 4.614e+003
963.228, 4.633e+003
964.485, 4.763e+003
965.741, 5.258e+003
966.997, 5.462e+003
968.253, 6.402e+003
969.508, 7.250e+003
970.764, 8.279e+003
972.019, 9.685e+003
973.274, 9.941e+003
974.529, 9.637e+003
975.784, 8.998e+003
977.039, 7.767e+003
978.293, 7.056e+003
979.547, 6.246e+003
980.801, 5.653e+003
982.055, 5.371e+003
983.308, 4.899e+003
984.562, 4.835e+003
985.815, 4.734e+003
987.068, 4.413e+003
988.321, 4.532e+003
989.573, 4.334e+003
990.826, 4.201e+003
992.078, 4.296e+003
993.330, 4.126e+003
994.582, 4.265e+003
995.833, 4.288e+003
997.085, 4.371e+003
998.336, 4.679e+003
999.587, 4.881e+003
1000.838, 5.648e+003
1002.088, 5.886e+003
1003.339, 5.809e+003
1004.589, 6.302e+003
1005.839, 6.783e+003
1007.089, 7.542e+003
1008.339, 8.328e+003
1009.588, 7.750e+003
1010.838, 7.122e+003
1012.087, 6.247e+003
1013.336, 5.377e+003
1014.584, 4.925e+003
1015.833, 4.430e+003
1017.081, 4.387e+003
1018.330, 4.275e+003
1019.577, 4.179e+003
1020.825, 4.236e+003
1022.073, 4.131e+003
1023.320, 4.237e+003
1024.567, 4.274e+003
1025.814, 4.140e+003
1027.061, 4.291e+003
1028.308, 4.114e+003
1029.554, 3.960e+003
1030.800, 4.030e+003
1032.046, 3.824e+003
1033.292, 3.723e+003
1034.538, 3.622e+003
1035.783, 3.505e+003
1037.029, 3.518e+003
1038.274, 3.419e+003
1039.519, 3.432e+003
1040.763, 3.448e+003
1042.008, 3.341e+003
1043.252, 3.390e+003
1044.496, 3.359e+003
1045.740, 3.314e+003
1046.984, 3.449e+003
1048.228, 3.346e+003
1049.471, 3.362e+003
1050.714, 3.382e+003
1051.957, 3.321e+003
1053.200, 3.395e+003
1054.442, 3.300e+003
1055.685, 3.354e+003
1056.927, 3.399e+003
1058.169, 3.291e+003
1059.411, 3.380e+003
1060.652, 3.339e+003
1061.894, 3.303e+003
1063.135, 3.386e+003
1064.376, 3.354e+003
1065.617, 3.457e+003
1066.858, 3.458e+003
1068.098, 3.380e+003
1069.339, 3.491e+003
1070.579, 3.521e+003
1071.819, 3.506e+003
1073.058, 3.656e+003
1074.298, 3.636e+003
1075.537, 3.720e+003
1076.776, 3.850e+003
1078.015, 3.808e+003
1079.254, 4.040e+003
1080.493, 3.968e+003
1081.731, 4.022e+003
1082.969, 4.118e+003
1084.207, 3.962e+003
1085.445, 3.999e+003
1086.683, 3.968e+003
1087.920, 3.882e+003
1089.157, 4.026e+003
1090.394, 3.905e+003
1091.631, 3.976e+003
1092.868, 4.080e+003
1094.105, 3.991e+003
1095.341, 4.199e+003
1096.577, 4.262e+003
1097.813, 4.310e+003
1099.049, 4.555e+003
1100.284, 4.629e+003
1101.519, 4.768e+003
1102.755, 5.000e+003
1103.990, 5.053e+003
1105.224, 5.282e+003
1106.459, 5.330e+003
1107.693, 5.280e+003
1108.928, 5.354e+003
1110.162, 5.056e+003
1111.395, 5.030e+003
1112.629, 4.898e+003
1113.863, 4.617e+003
1115.096, 4.510e+003
1116.329, 4.355e+003
1117.562, 4.174e+003
1118.795, 4.248e+003
1120.027, 4.052e+003
1121.259, 4.082e+003
1122.492, 3.999e+003
1123.723, 3.806e+003
1124.955, 3.893e+003
1126.187, 3.763e+003
1127.418, 3.741e+003
1128.649, 3.718e+003
1129.880, 3.629e+003
1131.111, 3.675e+003
1132.342, 3.616e+003
1133.572, 3.526e+003
1134.802, 3.620e+003
1136.033, 3.511e+003
1137.262, 3.529e+003
1138.492, 3.514e+003
1139.722, 3.406e+003
1140.951, 3.426e+003
1142.180, 3.418e+003
1143.409, 3.372e+003
1144.638, 3.402e+003
1145.866, 3.366e+003
1147.095, 4.643e+003
1148.323, 3.473e+003
1149.551, 3.315e+003
1150.779, 3.433e+003
1152.006, 3.352e+003
1153.234, 3.386e+003
1154.461, 3.347e+003
1155.688, 3.383e+003
1156.915, 3.457e+003
1158.141, 3.501e+003
1159.368, 3.464e+003
1160.594, 3.580e+003
1161.820, 3.547e+003
1163.046, 3.558e+003
1164.272, 3.664e+003
1165.498, 3.607e+003
1166.723, 3.737e+003
1167.948, 3.790e+003
1169.173, 3.780e+003
1170.398, 3.946e+003
1171.623, 4.040e+003
1172.847, 4.066e+003
1174.071, 4.196e+003
1175.295, 4.043e+003
1176.519, 4.117e+003
1177.743, 4.083e+003
1178.966, 3.998e+003
1180.190, 4.019e+003
1181.413, 3.886e+003
1182.636, 3.776e+003
1183.858, 3.814e+003
1185.081, 3.702e+003
1186.303, 3.668e+003
1187.526, 3.731e+003
1188.748, 3.576e+003
1189.969, 3.706e+003
1191.191, 3.580e+003
1192.412, 3.527e+003
1193.634, 3.532e+003
1194.855, 3.520e+003
1196.076, 3.515e+003
1197.296, 3.546e+003
1198.517, 3.462e+003
1199.737, 3.496e+003
1200.957, 3.506e+003
1202.177, 3.487e+003
1203.397, 3.578e+003
1204.617, 3.470e+003
1205.836, 3.489e+003
1207.055, 3.544e+003
1208.274, 3.400e+003
1209.493, 3.500e+003
1210.712, 3.497e+003
1211.930, 3.440e+003
1213.148, 3.634e+003
1214.367, 3.524e+003
1215.584, 3.619e+003
1216.802, 3.632e+003
1218.020, 3.542e+003
1219.237, 3.561e+003
1220.454, 3.498e+003
1221.671, 3.503e+003
1222.888, 3.599e+003
1224.105, 3.459e+003
1225.321, 3.520e+003
1226.537, 3.566e+003
1227.753, 3.470e+003
1228.969, 3.599e+003
1230.185, 3.538e+003
1231.400, 3.525e+003
1232.616, 3.654e+003
1233.831, 3.575e+003
1235.046, 3.650e+003
1236.261, 3.747e+003
1237.475, 3.675e+003
1238.689, 3.770e+003
1239.904, 3.701e+003
1241.118, 3.623e+003
1242.332, 3.761e+003
1243.545, 3.663e+003
1244.759, 3.694e+003
1245.972, 3.765e+003
1247.185, 3.682e+003
1248.398, 3.754e+003
1249.611, 3.752e+003
1250.823, 3.632e+003
1252.036, 3.792e+003
1253.248, 3.659e+003
1254.460, 3.679e+003
1255.671, 3.750e+003
1256.883, 3.629e+003
1258.095, 3.712e+003
1259.306, 3.676e+003
1260.517, 3.676e+003
1261.728, 3.785e+003
1262.938, 3.665e+003
1264.149, 3.685e+003
1265.359, 3.922e+003
1266.569, 3.746e+003
1267.779, 3.901e+003
1268.989, 3.913e+003
1270.199, 3.795e+003
1271.408, 3.983e+003
1272.617, 3.919e+003
1273.826, 3.889e+003
1275.035, 3.945e+003
1276.244, 3.849e+003
1277.452, 3.844e+003
1278.661, 3.842e+003
1279.869, 3.671e+003
1281.077, 3.796e+003
1282.285, 3.774e+003
1283.492, 3.642e+003
1284.700, 3.778e+003
1285.907, 3.732e+003
1287.114, 3.696e+003
1288.321, 3.751e+003
1289.527, 3.671e+003
1290.734, 3.721e+003
1291.940, 3.788e+003
1293.146, 3.697e+003
1294.352, 3.879e+003
1295.558, 3.764e+003
1296.763, 3.722e+003
1297.969, 3.846e+003
1299.174, 3.657e+003
1300.379, 3.789e+003
1301.584, 3.740e+003
1302.788, 3.685e+003
1303.993, 3.781e+003
1305.197, 3.780e+003
1306.401, 3.795e+003
1307.605, 3.916e+003
1308.809, 3.814e+003
1310.013, 3.932e+003
1311.216, 4.000e+003
1312.419, 3.865e+003
1313.622, 3.991e+003
1314.825, 4.006e+003
1316.028, 3.962e+003
1317.230, 4.027e+003
1318.432, 3.974e+003
1319.634, 3.902e+003
1320.836, 4.005e+003
1322.038, 3.933e+003
1323.240, 3.977e+003
1324.441, 3.956e+003
1325.642, 3.792e+003
1326.843, 3.830e+003
1328.044, 3.751e+003
1329.245, 3.718e+003
1330.445, 3.734e+003
1331.645, 3.683e+003
1332.845, 3.659e+003
1334.045, 3.676e+003
1335.245, 3.543e+003
1336.445, 3.605e+003
1337.644, 3.630e+003
1338.843, 3.534e+003
1340.042, 3.690e+003
1341.241, 3.578e+003
1342.440, 3.567e+003
1343.638, 3.646e+003
1344.836, 3.554e+003
1346.034, 3.618e+003
1347.232, 3.621e+003
1348.430, 3.536e+003
1349.628, 3.608e+003
1350.825, 3.569e+003
1352.022, 3.589e+003
1353.219, 3.635e+003
1354.416, 3.521e+003
1355.613, 3.609e+003
1356.809, 3.616e+003
1358.005, 3.536e+003
1359.202, 3.610e+003
1360.398, 3.585e+003
1361.593, 3.529e+003
1362.789, 3.617e+003
1363.984, 3.584e+003
1365.179, 3.577e+003
1366.374, 3.617e+003
1367.569, 3.587e+003
1368.764, 3.638e+003
1369.958, 3.640e+003
1371.153, 3.577e+003
1372.347, 3.690e+003
1373.541, 3.670e+003
1374.735, 3.580e+003
1375.928, 3.723e+003
1377.122, 3.698e+003
1378.315, 3.667e+003
1379.508, 3.803e+003
1380.701, 3.707e+003
1381.893, 3.764e+003
1383.086, 3.798e+003
1384.278, 3.696e+003
1385.470, 3.808e+003
1386.662, 3.742e+003
1387.854, 3.718e+003
1389.046, 3.843e+003
1390.237, 3.780e+003
1391.428, 3.720e+003
1392.619, 3.741e+003
1393.810, 3.685e+003
1395.001, 3.688e+003
1396.191, 3.666e+003
1397.382, 3.634e+003
1398.572, 3.677e+003
1399.762, 3.700e+003
1400.952, 3.634e+003
1402.141, 3.734e+003
1403.331, 3.654e+003
1404.520, 3.628e+003
1405.709, 3.734e+003
1406.898, 3.646e+003
1408.087, 3.702e+003
1409.275, 3.706e+003
1410.464, 3.750e+003
1411.652, 3.777e+003
1412.840, 3.735e+003
1414.028, 3.727e+003
1415.215, 3.763e+003
1416.403, 3.700e+003
1417.590, 3.712e+003
1418.777, 3.842e+003
1419.964, 3.741e+003
1421.151, 3.786e+003
1422.338, 3.779e+003
1423.524, 3.754e+003
1424.710, 3.863e+003
1425.896, 3.801e+003
1427.082, 3.839e+003
1428.268, 3.927e+003
1429.453, 3.909e+003
1430.639, 3.901e+003
1431.824, 4.016e+003
1433.009, 3.984e+003
1434.194, 4.141e+003
1435.378, 4.192e+003
1436.563, 4.155e+003
1437.747, 4.444e+003
1438.931, 4.466e+003
1440.115, 4.504e+003
1441.299, 4.744e+003
1442.482, 4.673e+003
1443.666, 4.762e+003
1444.849, 4.933e+003
1446.032, 4.724e+003
1447.215, 5.033e+003
1448.397, 5.020e+003
1449.580, 4.856e+003
1450.762, 5.131e+003
1451.944, 5.085e+003
1453.126, 4.989e+003
1454.308, 5.298e+003
1455.490, 5.062e+003
1456.671, 5.098e+003
1457.852, 5.217e+003
1459.033, 4.921e+003
1460.214, 5.065e+003
1461.395, 4.984e+003
1462.575, 4.733e+003
1463.756, 4.807e+003
1464.936, 4.660e+003
1466.116, 4.511e+003
1467.296, 4.610e+003
1468.475, 4.501e+003
1469.655, 4.347e+003
1470.834, 4.439e+003
1472.013, 4.316e+003
1473.192, 4.275e+003
1474.371, 4.298e+003
1475.550, 4.200e+003
1476.728, 4.261e+003
1477.906, 4.272e+003
1479.084, 4.148e+003
1480.262, 4.263e+003
1481.440, 4.184e+003
1482.617, 4.196e+003
1483.795, 4.290e+003
1484.972, 4.120e+003
1486.149, 4.150e+003
1487.326, 4.126e+003
1488.502, 4.018e+003
1489.679, 4.058e+003
1490.855, 4.035e+003
1492.031, 3.834e+003
1493.207, 3.926e+003
1494.383, 3.851e+003
1495.559, 3.836e+003
1496.734, 3.923e+003
1497.909, 3.890e+003
1499.084, 3.823e+003
1500.259, 3.902e+003
1501.434, 3.751e+003
1502.608, 3.837e+003
1503.783, 3.979e+003
1504.957, 1.900e+002
##END=



