##NAMES=Danburite
##RRUFFID=R040013
##IDEAL CHEMISTRY=CaB_2_Si_2_O_8_
##LOCALITY=Charcas, San Luis Potosi, Mexico
##OWNER=RRUFF
##SOURCE=Marcus Origlieri
##DESCRIPTION=Colorless prismatic single crystal
##STATUS=The identification of this mineral has been confirmed by X-ray diffraction and chemical analysis
##URL=rruff.info/R040013
##MEASURED CHEMISTRY=Ca_1.00_B_2.00_Si_2.00_O_8_
##PIN_ID=M00012
##ORIENTATION=Laser parallel to c* (0 0 1). Fiducial mark perpendicular to laser is parallel to a [1 0 0]
26.288, 1.865e+003
27.694, 1.866e+003
29.099, 1.841e+003
30.504, 1.800e+003
31.909, 1.824e+003
33.313, 1.790e+003
34.717, 1.755e+003
36.121, 1.720e+003
37.525, 1.707e+003
38.929, 1.709e+003
40.332, 1.686e+003
41.735, 1.646e+003
43.138, 1.646e+003
44.541, 1.633e+003
45.943, 1.622e+003
47.345, 1.612e+003
48.747, 1.598e+003
50.149, 1.602e+003
51.551, 1.609e+003
52.952, 1.569e+003
54.353, 1.601e+003
55.754, 1.592e+003
57.155, 1.578e+003
58.555, 1.599e+003
59.955, 1.606e+003
61.355, 1.579e+003
62.755, 1.522e+003
64.154, 1.478e+003
65.553, 1.433e+003
66.952, 1.423e+003
68.351, 1.406e+003
69.750, 1.364e+003
71.148, 1.313e+003
72.546, 1.288e+003
73.944, 1.307e+003
75.342, 1.306e+003
76.739, 1.281e+003
78.136, 1.330e+003
79.533, 1.275e+003
80.930, 1.288e+003
82.327, 1.338e+003
83.723, 1.426e+003
85.119, 1.484e+003
86.515, 1.579e+003
87.910, 1.689e+003
89.306, 1.823e+003
90.701, 1.972e+003
92.096, 2.138e+003
93.490, 2.283e+003
94.885, 2.529e+003
96.279, 2.664e+003
97.673, 3.024e+003
99.067, 3.153e+003
100.461, 3.288e+003
101.854, 3.521e+003
103.247, 3.488e+003
104.640, 3.766e+003
106.032, 3.679e+003
107.425, 3.982e+003
108.817, 3.965e+003
110.209, 4.405e+003
111.601, 6.964e+003
112.992, 1.031e+004
114.384, 6.280e+003
115.775, 5.937e+003
117.166, 8.868e+003
118.556, 1.090e+004
119.947, 1.077e+004
121.337, 1.103e+004
122.727, 1.248e+004
124.116, 1.394e+004
125.506, 1.181e+004
126.895, 8.896e+003
128.284, 6.646e+003
129.673, 5.469e+003
131.062, 4.824e+003
132.450, 4.294e+003
133.838, 4.289e+003
135.226, 4.246e+003
136.614, 4.701e+003
138.001, 5.116e+003
139.388, 5.258e+003
140.775, 4.811e+003
142.162, 4.155e+003
143.549, 3.911e+003
144.935, 3.538e+003
146.321, 3.533e+003
147.707, 3.414e+003
149.093, 3.371e+003
150.478, 3.342e+003
151.863, 3.278e+003
153.248, 3.362e+003
154.633, 3.324e+003
156.018, 3.448e+003
157.402, 3.354e+003
158.786, 3.467e+003
160.170, 3.937e+003
161.554, 4.229e+003
162.937, 5.349e+003
164.320, 7.199e+003
165.703, 8.472e+003
167.086, 7.298e+003
168.469, 5.336e+003
169.851, 4.398e+003
171.233, 3.746e+003
172.615, 3.596e+003
173.996, 3.395e+003
175.378, 3.462e+003
176.759, 3.507e+003
178.140, 3.616e+003
179.521, 3.828e+003
180.901, 4.035e+003
182.281, 4.223e+003
183.662, 3.900e+003
185.041, 3.879e+003
186.421, 3.968e+003
187.800, 4.167e+003
189.180, 4.767e+003
190.558, 5.070e+003
191.937, 5.072e+003
193.316, 4.498e+003
194.694, 4.049e+003
196.072, 3.807e+003
197.450, 3.682e+003
198.827, 3.643e+003
200.205, 3.609e+003
201.582, 3.841e+003
202.959, 4.183e+003
204.336, 4.739e+003
205.712, 5.699e+003
207.088, 7.141e+003
208.465, 9.944e+003
209.840, 1.343e+004
211.216, 1.488e+004
212.591, 1.273e+004
213.967, 9.144e+003
215.341, 6.768e+003
216.716, 5.377e+003
218.091, 4.707e+003
219.465, 4.199e+003
220.839, 3.979e+003
222.213, 3.871e+003
223.586, 3.833e+003
224.960, 3.888e+003
226.333, 3.811e+003
227.706, 3.952e+003
229.079, 4.029e+003
230.451, 4.247e+003
231.823, 4.496e+003
233.195, 4.773e+003
234.567, 5.317e+003
235.939, 6.084e+003
237.310, 7.551e+003
238.682, 1.002e+004
240.052, 1.394e+004
241.423, 2.008e+004
242.794, 2.995e+004
244.164, 4.096e+004
245.534, 4.375e+004
246.904, 3.619e+004
248.274, 2.594e+004
249.643, 1.755e+004
251.012, 1.264e+004
252.381, 9.601e+003
253.750, 7.697e+003
255.118, 6.455e+003
256.487, 5.749e+003
257.855, 5.219e+003
259.223, 4.810e+003
260.590, 4.563e+003
261.958, 4.202e+003
263.325, 4.113e+003
264.692, 3.975e+003
266.059, 3.858e+003
267.425, 3.817e+003
268.791, 3.788e+003
270.158, 3.794e+003
271.523, 3.745e+003
272.889, 3.894e+003
274.255, 4.014e+003
275.620, 4.331e+003
276.985, 4.744e+003
278.350, 4.698e+003
279.714, 4.402e+003
281.078, 3.971e+003
282.443, 3.708e+003
283.806, 3.424e+003
285.170, 3.345e+003
286.534, 3.356e+003
287.897, 3.200e+003
289.260, 3.290e+003
290.623, 3.211e+003
291.985, 3.207e+003
293.348, 3.163e+003
294.710, 3.130e+003
296.072, 3.236e+003
297.433, 3.167e+003
298.795, 3.194e+003
300.156, 3.182e+003
301.517, 3.232e+003
302.878, 3.239e+003
304.239, 3.248e+003
305.599, 3.349e+003
306.959, 3.385e+003
308.319, 3.562e+003
309.679, 3.728e+003
311.038, 3.850e+003
312.398, 3.931e+003
313.757, 3.823e+003
315.116, 3.700e+003
316.474, 3.449e+003
317.833, 3.386e+003
319.191, 3.306e+003
320.549, 3.239e+003
321.907, 3.249e+003
323.264, 3.157e+003
324.622, 3.178e+003
325.979, 3.201e+003
327.336, 3.167e+003
328.692, 3.241e+003
330.049, 3.171e+003
331.405, 3.215e+003
332.761, 3.192e+003
334.117, 3.238e+003
335.473, 3.289e+003
336.828, 3.181e+003
338.183, 3.346e+003
339.538, 3.308e+003
340.893, 3.437e+003
342.247, 3.586e+003
343.602, 3.784e+003
344.956, 4.280e+003
346.310, 4.681e+003
347.663, 5.105e+003
349.017, 4.871e+003
350.370, 4.428e+003
351.723, 3.975e+003
353.076, 3.663e+003
354.428, 3.535e+003
355.780, 3.297e+003
357.133, 3.356e+003
358.484, 3.236e+003
359.836, 3.251e+003
361.188, 3.221e+003
362.539, 3.144e+003
363.890, 3.189e+003
365.241, 3.156e+003
366.591, 3.182e+003
367.942, 3.127e+003
369.292, 3.156e+003
370.642, 3.149e+003
371.992, 3.131e+003
373.341, 3.186e+003
374.691, 3.190e+003
376.040, 3.159e+003
377.388, 3.200e+003
378.737, 3.137e+003
380.086, 3.240e+003
381.434, 3.218e+003
382.782, 3.257e+003
384.130, 3.296e+003
385.477, 3.327e+003
386.825, 3.346e+003
388.172, 3.310e+003
389.519, 3.389e+003
390.865, 3.451e+003
392.212, 3.436e+003
393.558, 3.488e+003
394.904, 3.371e+003
396.250, 3.468e+003
397.596, 3.458e+003
398.941, 3.475e+003
400.286, 3.555e+003
401.631, 3.525e+003
402.976, 3.712e+003
404.321, 3.818e+003
405.665, 3.937e+003
407.009, 4.021e+003
408.353, 3.862e+003
409.697, 3.943e+003
411.040, 3.890e+003
412.384, 4.022e+003
413.727, 4.149e+003
415.070, 4.357e+003
416.412, 4.723e+003
417.755, 5.216e+003
419.097, 5.803e+003
420.439, 6.545e+003
421.781, 7.583e+003
423.122, 8.599e+003
424.464, 8.814e+003
425.805, 8.450e+003
427.146, 7.349e+003
428.486, 6.273e+003
429.827, 5.349e+003
431.167, 4.798e+003
432.507, 4.522e+003
433.847, 4.434e+003
435.187, 4.656e+003
436.526, 5.190e+003
437.865, 6.185e+003
439.204, 7.714e+003
440.543, 8.964e+003
441.882, 9.157e+003
443.220, 8.068e+003
444.558, 6.766e+003
445.896, 5.633e+003
447.234, 4.928e+003
448.572, 4.454e+003
449.909, 4.151e+003
451.246, 3.940e+003
452.583, 3.840e+003
453.919, 3.753e+003
455.256, 3.851e+003
456.592, 3.791e+003
457.928, 3.899e+003
459.264, 3.853e+003
460.600, 3.950e+003
461.935, 3.943e+003
463.270, 3.868e+003
464.605, 3.800e+003
465.940, 3.667e+003
467.274, 3.611e+003
468.609, 3.608e+003
469.943, 3.500e+003
471.277, 3.562e+003
472.610, 3.547e+003
473.944, 3.552e+003
475.277, 3.568e+003
476.610, 3.520e+003
477.943, 3.699e+003
479.275, 3.717e+003
480.608, 3.720e+003
481.940, 3.628e+003
483.272, 3.503e+003
484.604, 3.448e+003
485.935, 3.454e+003
487.267, 3.399e+003
488.598, 3.351e+003
489.929, 3.399e+003
491.260, 3.436e+003
492.590, 3.381e+003
493.920, 3.410e+003
495.250, 3.364e+003
496.580, 3.420e+003
497.910, 3.362e+003
499.239, 3.353e+003
500.569, 3.421e+003
501.898, 3.384e+003
503.226, 3.383e+003
504.555, 3.420e+003
505.883, 3.383e+003
507.212, 3.458e+003
508.540, 3.425e+003
509.867, 3.448e+003
511.195, 3.442e+003
512.522, 3.480e+003
513.849, 3.478e+003
515.176, 3.503e+003
516.503, 3.535e+003
517.829, 3.488e+003
519.156, 3.600e+003
520.482, 3.551e+003
521.808, 3.518e+003
523.133, 3.586e+003
524.459, 3.540e+003
525.784, 3.553e+003
527.109, 3.538e+003
528.434, 3.520e+003
529.758, 3.558e+003
531.083, 3.563e+003
532.407, 3.641e+003
533.731, 3.563e+003
535.055, 3.551e+003
536.378, 3.598e+003
537.701, 3.526e+003
539.025, 3.552e+003
540.348, 3.619e+003
541.670, 3.558e+003
542.993, 3.586e+003
544.315, 3.555e+003
545.637, 3.645e+003
546.959, 3.607e+003
548.281, 3.648e+003
549.602, 3.623e+003
550.923, 3.583e+003
552.244, 3.667e+003
553.565, 3.676e+003
554.886, 3.690e+003
556.206, 3.746e+003
557.526, 3.649e+003
558.846, 3.764e+003
560.166, 3.715e+003
561.486, 3.877e+003
562.805, 3.841e+003
564.124, 3.830e+003
565.443, 3.845e+003
566.762, 3.796e+003
568.080, 3.919e+003
569.399, 3.826e+003
570.717, 3.843e+003
572.035, 3.946e+003
573.352, 3.927e+003
574.670, 3.999e+003
575.987, 3.995e+003
577.304, 4.049e+003
578.621, 4.155e+003
579.938, 4.238e+003
581.254, 4.371e+003
582.570, 4.385e+003
583.886, 4.489e+003
585.202, 4.652e+003
586.518, 4.630e+003
587.833, 4.770e+003
589.148, 4.791e+003
590.463, 4.950e+003
591.778, 5.097e+003
593.093, 5.255e+003
594.407, 5.607e+003
595.721, 5.877e+003
597.035, 6.280e+003
598.349, 6.893e+003
599.662, 7.596e+003
600.976, 8.789e+003
602.289, 1.016e+004
603.602, 1.251e+004
604.914, 1.623e+004
606.227, 2.120e+004
607.539, 2.843e+004
608.851, 3.420e+004
610.163, 3.664e+004
611.475, 3.363e+004
612.786, 2.788e+004
614.097, 2.217e+004
615.408, 1.690e+004
616.719, 1.382e+004
618.030, 1.180e+004
619.340, 1.011e+004
620.651, 9.618e+003
621.961, 9.292e+003
623.270, 1.003e+004
624.580, 1.109e+004
625.889, 1.258e+004
627.199, 1.415e+004
628.507, 1.352e+004
629.816, 1.232e+004
631.125, 1.053e+004
632.433, 8.761e+003
633.741, 7.793e+003
635.049, 6.885e+003
636.357, 6.585e+003
637.664, 6.050e+003
638.972, 5.764e+003
640.279, 5.710e+003
641.586, 5.534e+003
642.893, 5.498e+003
644.199, 5.457e+003
645.505, 5.355e+003
646.811, 5.488e+003
648.117, 5.182e+003
649.423, 5.293e+003
650.728, 5.144e+003
652.034, 5.059e+003
653.339, 5.077e+003
654.644, 4.785e+003
655.948, 4.844e+003
657.253, 4.672e+003
658.557, 4.533e+003
659.861, 4.479e+003
661.165, 4.324e+003
662.468, 4.315e+003
663.772, 4.236e+003
665.075, 4.201e+003
666.378, 4.199e+003
667.681, 4.080e+003
668.983, 4.160e+003
670.286, 4.125e+003
671.588, 4.082e+003
672.890, 4.131e+003
674.192, 3.981e+003
675.493, 4.060e+003
676.795, 4.013e+003
678.096, 3.998e+003
679.397, 3.994e+003
680.697, 3.964e+003
681.998, 4.014e+003
683.298, 3.999e+003
684.598, 3.974e+003
685.898, 3.987e+003
687.198, 3.918e+003
688.498, 3.962e+003
689.797, 4.010e+003
691.096, 3.945e+003
692.395, 3.971e+003
693.694, 3.971e+003
694.992, 3.975e+003
696.290, 3.954e+003
697.589, 3.948e+003
698.886, 4.008e+003
700.184, 3.935e+003
701.482, 4.025e+003
702.779, 3.996e+003
704.076, 3.946e+003
705.373, 4.015e+003
706.669, 3.992e+003
707.966, 3.994e+003
709.262, 3.976e+003
710.558, 3.932e+003
711.854, 4.014e+003
713.150, 3.942e+003
714.445, 4.046e+003
715.740, 4.007e+003
717.035, 4.000e+003
718.330, 4.045e+003
719.625, 4.026e+003
720.919, 4.115e+003
722.214, 4.023e+003
723.508, 4.097e+003
724.801, 4.123e+003
726.095, 4.158e+003
727.388, 4.139e+003
728.682, 4.171e+003
729.975, 4.208e+003
731.267, 4.259e+003
732.560, 4.183e+003
733.852, 4.238e+003
735.145, 4.226e+003
736.437, 4.229e+003
737.728, 4.280e+003
739.020, 4.214e+003
740.311, 4.294e+003
741.603, 4.227e+003
742.894, 4.228e+003
744.184, 4.308e+003
745.475, 4.288e+003
746.765, 4.288e+003
748.055, 4.344e+003
749.345, 4.336e+003
750.635, 4.412e+003
751.925, 4.378e+003
753.214, 4.404e+003
754.503, 4.367e+003
755.792, 4.333e+003
757.081, 4.425e+003
758.370, 4.369e+003
759.658, 4.481e+003
760.946, 4.594e+003
762.234, 4.440e+003
763.522, 4.550e+003
764.809, 4.594e+003
766.097, 4.570e+003
767.384, 4.698e+003
768.671, 4.757e+003
769.958, 4.998e+003
771.244, 4.992e+003
772.530, 5.096e+003
773.817, 5.246e+003
775.102, 5.065e+003
776.388, 5.056e+003
777.674, 4.943e+003
778.959, 4.772e+003
780.244, 4.830e+003
781.529, 4.629e+003
782.814, 4.761e+003
784.098, 4.616e+003
785.383, 4.586e+003
786.667, 4.767e+003
787.951, 4.605e+003
789.235, 4.695e+003
790.518, 4.675e+003
791.801, 4.677e+003
793.084, 4.726e+003
794.367, 4.592e+003
795.650, 4.732e+003
796.933, 4.699e+003
798.215, 4.622e+003
799.497, 4.699e+003
800.779, 4.606e+003
802.061, 4.642e+003
803.342, 4.602e+003
804.624, 4.551e+003
805.905, 4.687e+003
807.186, 4.588e+003
808.466, 4.581e+003
809.747, 4.591e+003
811.027, 4.532e+003
812.307, 4.662e+003
813.587, 4.601e+003
814.867, 4.634e+003
816.146, 4.764e+003
817.426, 4.644e+003
818.705, 4.734e+003
819.984, 4.712e+003
821.263, 4.715e+003
822.541, 4.820e+003
823.819, 4.634e+003
825.098, 4.818e+003
826.375, 4.770e+003
827.653, 4.745e+003
828.931, 4.874e+003
830.208, 4.801e+003
831.485, 4.940e+003
832.762, 4.844e+003
834.039, 4.817e+003
835.315, 4.934e+003
836.592, 4.880e+003
837.868, 5.033e+003
839.144, 5.054e+003
840.420, 4.930e+003
841.695, 5.214e+003
842.970, 5.049e+003
844.246, 5.188e+003
845.521, 5.374e+003
846.795, 5.112e+003
848.070, 5.382e+003
849.344, 5.219e+003
850.618, 5.355e+003
851.892, 5.429e+003
853.166, 5.290e+003
854.440, 5.570e+003
855.713, 5.532e+003
856.986, 5.749e+003
858.259, 5.947e+003
859.532, 5.824e+003
860.804, 5.994e+003
862.077, 5.958e+003
863.349, 5.702e+003
864.621, 5.824e+003
865.893, 5.471e+003
867.164, 5.563e+003
868.436, 5.553e+003
869.707, 5.267e+003
870.978, 5.497e+003
872.248, 5.323e+003
873.519, 5.436e+003
874.789, 5.454e+003
876.060, 5.395e+003
877.330, 5.568e+003
878.599, 5.424e+003
879.869, 5.521e+003
881.138, 5.568e+003
882.408, 5.363e+003
883.677, 5.542e+003
884.945, 5.500e+003
886.214, 5.504e+003
887.482, 5.653e+003
888.751, 5.512e+003
890.019, 5.670e+003
891.287, 5.809e+003
892.554, 5.762e+003
893.822, 5.903e+003
895.089, 5.905e+003
896.356, 6.160e+003
897.623, 6.279e+003
898.889, 6.207e+003
900.156, 6.628e+003
901.422, 6.470e+003
902.688, 6.533e+003
903.954, 6.662e+003
905.220, 6.351e+003
906.485, 6.457e+003
907.750, 6.242e+003
909.015, 6.074e+003
910.280, 6.088e+003
911.545, 5.836e+003
912.809, 5.878e+003
914.074, 5.775e+003
915.338, 5.617e+003
916.602, 5.627e+003
917.865, 5.463e+003
919.129, 5.547e+003
920.392, 5.447e+003
921.655, 5.261e+003
922.918, 5.395e+003
924.181, 5.284e+003
925.443, 5.294e+003
926.706, 5.342e+003
927.968, 5.254e+003
929.230, 5.318e+003
930.491, 5.294e+003
931.753, 5.313e+003
933.014, 5.362e+003
934.276, 5.252e+003
935.536, 5.326e+003
936.797, 5.295e+003
938.058, 5.193e+003
939.318, 5.283e+003
940.578, 5.240e+003
941.838, 5.313e+003
943.098, 5.435e+003
944.358, 5.323e+003
945.617, 5.472e+003
946.876, 5.362e+003
948.135, 5.473e+003
949.394, 5.575e+003
950.653, 5.452e+003
951.911, 5.520e+003
953.169, 5.515e+003
954.427, 5.428e+003
955.685, 5.534e+003
956.943, 5.386e+003
958.200, 5.424e+003
959.458, 5.446e+003
960.715, 5.408e+003
961.971, 5.471e+003
963.228, 5.456e+003
964.485, 5.490e+003
965.741, 5.694e+003
966.997, 5.683e+003
968.253, 6.048e+003
969.508, 6.180e+003
970.764, 6.473e+003
972.019, 6.923e+003
973.274, 6.966e+003
974.529, 6.959e+003
975.784, 6.672e+003
977.039, 6.345e+003
978.293, 6.206e+003
979.547, 5.977e+003
980.801, 5.840e+003
982.055, 5.812e+003
983.308, 5.680e+003
984.562, 5.699e+003
985.815, 5.734e+003
987.068, 5.724e+003
988.321, 5.795e+003
989.573, 5.515e+003
990.826, 5.636e+003
992.078, 5.555e+003
993.330, 5.518e+003
994.582, 5.719e+003
995.833, 5.587e+003
997.085, 5.756e+003
998.336, 6.008e+003
999.587, 6.165e+003
1000.838, 7.086e+003
1002.088, 6.921e+003
1003.339, 6.549e+003
1004.589, 6.395e+003
1005.839, 5.988e+003
1007.089, 6.045e+003
1008.339, 5.965e+003
1009.588, 5.812e+003
1010.838, 5.860e+003
1012.087, 5.670e+003
1013.336, 5.732e+003
1014.584, 5.801e+003
1015.833, 5.637e+003
1017.081, 5.851e+003
1018.330, 5.856e+003
1019.577, 5.952e+003
1020.825, 6.160e+003
1022.073, 6.137e+003
1023.320, 6.265e+003
1024.567, 6.416e+003
1025.814, 6.287e+003
1027.061, 6.486e+003
1028.308, 6.362e+003
1029.554, 6.261e+003
1030.800, 6.209e+003
1032.046, 5.959e+003
1033.292, 5.965e+003
1034.538, 5.878e+003
1035.783, 5.694e+003
1037.029, 5.691e+003
1038.274, 5.587e+003
1039.519, 5.652e+003
1040.763, 5.630e+003
1042.008, 5.481e+003
1043.252, 5.643e+003
1044.496, 5.460e+003
1045.740, 5.578e+003
1046.984, 5.573e+003
1048.228, 5.565e+003
1049.471, 5.584e+003
1050.714, 5.619e+003
1051.957, 5.512e+003
1053.200, 5.676e+003
1054.442, 5.480e+003
1055.685, 5.540e+003
1056.927, 5.677e+003
1058.169, 5.467e+003
1059.411, 5.606e+003
1060.652, 5.571e+003
1061.894, 5.563e+003
1063.135, 5.682e+003
1064.376, 5.662e+003
1065.617, 5.718e+003
1066.858, 5.763e+003
1068.098, 5.641e+003
1069.339, 5.971e+003
1070.579, 5.790e+003
1071.819, 5.912e+003
1073.058, 6.066e+003
1074.298, 5.969e+003
1075.537, 6.254e+003
1076.776, 6.311e+003
1078.015, 6.259e+003
1079.254, 6.597e+003
1080.493, 6.548e+003
1081.731, 6.673e+003
1082.969, 6.796e+003
1084.207, 6.540e+003
1085.445, 6.665e+003
1086.683, 6.594e+003
1087.920, 6.532e+003
1089.157, 6.743e+003
1090.394, 6.575e+003
1091.631, 6.794e+003
1092.868, 6.879e+003
1094.105, 6.895e+003
1095.341, 7.239e+003
1096.577, 7.265e+003
1097.813, 7.486e+003
1099.049, 8.046e+003
1100.284, 8.061e+003
1101.519, 8.507e+003
1102.755, 8.842e+003
1103.990, 9.097e+003
1105.224, 9.484e+003
1106.459, 9.502e+003
1107.693, 9.502e+003
1108.928, 9.538e+003
1110.162, 9.198e+003
1111.395, 8.923e+003
1112.629, 8.568e+003
1113.863, 8.089e+003
1115.096, 8.075e+003
1116.329, 7.672e+003
1117.562, 7.473e+003
1118.795, 7.351e+003
1120.027, 7.098e+003
1121.259, 7.143e+003
1122.492, 6.957e+003
1123.723, 6.690e+003
1124.955, 6.721e+003
1126.187, 6.502e+003
1127.418, 6.534e+003
1128.649, 6.526e+003
1129.880, 6.358e+003
1131.111, 6.448e+003
1132.342, 6.335e+003
1133.572, 6.193e+003
1134.802, 6.240e+003
1136.033, 6.044e+003
1137.262, 6.186e+003
1138.492, 6.048e+003
1139.722, 5.906e+003
1140.951, 6.002e+003
1142.180, 5.991e+003
1143.409, 5.840e+003
1144.638, 5.966e+003
1145.866, 5.842e+003
1147.095, 5.889e+003
1148.323, 5.925e+003
1149.551, 5.787e+003
1150.779, 5.896e+003
1152.006, 5.843e+003
1153.234, 5.870e+003
1154.461, 5.967e+003
1155.688, 5.836e+003
1156.915, 6.047e+003
1158.141, 6.030e+003
1159.368, 6.005e+003
1160.594, 6.185e+003
1161.820, 6.041e+003
1163.046, 6.083e+003
1164.272, 6.236e+003
1165.498, 6.184e+003
1166.723, 6.351e+003
1167.948, 6.432e+003
1169.173, 6.435e+003
1170.398, 6.706e+003
1171.623, 6.735e+003
1172.847, 6.726e+003
1174.071, 6.981e+003
1175.295, 6.735e+003
1176.519, 6.872e+003
1177.743, 6.717e+003
1178.966, 6.571e+003
1180.190, 6.595e+003
1181.413, 6.476e+003
1182.636, 6.396e+003
1183.858, 6.452e+003
1185.081, 6.222e+003
1186.303, 6.310e+003
1187.526, 6.345e+003
1188.748, 6.054e+003
1189.969, 6.278e+003
1191.191, 6.101e+003
1192.412, 5.996e+003
1193.634, 6.191e+003
1194.855, 6.016e+003
1196.076, 6.104e+003
1197.296, 6.075e+003
1198.517, 6.028e+003
1199.737, 6.131e+003
1200.957, 6.062e+003
1202.177, 6.109e+003
1203.397, 6.159e+003
1204.617, 5.938e+003
1205.836, 6.138e+003
1207.055, 6.010e+003
1208.274, 5.934e+003
1209.493, 6.154e+003
1210.712, 6.016e+003
1211.930, 6.091e+003
1213.148, 6.187e+003
1214.367, 6.035e+003
1215.584, 6.182e+003
1216.802, 6.213e+003
1218.020, 6.063e+003
1219.237, 6.238e+003
1220.454, 6.105e+003
1221.671, 6.095e+003
1222.888, 6.206e+003
1224.105, 6.040e+003
1225.321, 6.134e+003
1226.537, 6.165e+003
1227.753, 6.030e+003
1228.969, 6.183e+003
1230.185, 6.162e+003
1231.400, 6.124e+003
1232.616, 6.264e+003
1233.831, 6.120e+003
1235.046, 6.356e+003
1236.261, 6.458e+003
1237.475, 6.327e+003
1238.689, 6.471e+003
1239.904, 6.405e+003
1241.118, 6.316e+003
1242.332, 6.461e+003
1243.545, 6.307e+003
1244.759, 6.366e+003
1245.972, 6.492e+003
1247.185, 6.323e+003
1248.398, 6.528e+003
1249.611, 6.417e+003
1250.823, 6.364e+003
1252.036, 6.524e+003
1253.248, 6.368e+003
1254.460, 6.331e+003
1255.671, 6.523e+003
1256.883, 6.311e+003
1258.095, 6.447e+003
1259.306, 6.406e+003
1260.517, 6.363e+003
1261.728, 6.544e+003
1262.938, 6.418e+003
1264.149, 6.550e+003
1265.359, 6.541e+003
1266.569, 6.477e+003
1267.779, 6.690e+003
1268.989, 6.592e+003
1270.199, 6.564e+003
1271.408, 6.788e+003
1272.617, 6.723e+003
1273.826, 6.744e+003
1275.035, 6.828e+003
1276.244, 6.556e+003
1277.452, 6.670e+003
1278.661, 6.596e+003
1279.869, 6.384e+003
1281.077, 6.511e+003
1282.285, 6.495e+003
1283.492, 6.415e+003
1284.700, 6.566e+003
1285.907, 6.310e+003
1287.114, 6.471e+003
1288.321, 6.450e+003
1289.527, 6.355e+003
1290.734, 6.536e+003
1291.940, 6.495e+003
1293.146, 6.563e+003
1294.352, 6.815e+003
1295.558, 6.626e+003
1296.763, 6.575e+003
1297.969, 6.701e+003
1299.174, 6.381e+003
1300.379, 6.636e+003
1301.584, 6.565e+003
1302.788, 6.410e+003
1303.993, 6.685e+003
1305.197, 6.562e+003
1306.401, 6.595e+003
1307.605, 6.781e+003
1308.809, 6.639e+003
1310.013, 6.991e+003
1311.216, 6.838e+003
1312.419, 6.696e+003
1313.622, 6.896e+003
1314.825, 6.802e+003
1316.028, 6.792e+003
1317.230, 6.973e+003
1318.432, 6.811e+003
1319.634, 6.889e+003
1320.836, 6.977e+003
1322.038, 6.794e+003
1323.240, 6.882e+003
1324.441, 6.879e+003
1325.642, 6.674e+003
1326.843, 6.735e+003
1328.044, 6.527e+003
1329.245, 6.582e+003
1330.445, 6.570e+003
1331.645, 6.458e+003
1332.845, 6.445e+003
1334.045, 6.477e+003
1335.245, 6.321e+003
1336.445, 6.380e+003
1337.644, 6.410e+003
1338.843, 6.378e+003
1340.042, 6.454e+003
1341.241, 6.395e+003
1342.440, 6.368e+003
1343.638, 6.459e+003
1344.836, 6.428e+003
1346.034, 6.423e+003
1347.232, 6.462e+003
1348.430, 6.388e+003
1349.628, 6.571e+003
1350.825, 6.361e+003
1352.022, 6.421e+003
1353.219, 6.476e+003
1354.416, 6.317e+003
1355.613, 6.516e+003
1356.809, 6.451e+003
1358.005, 6.350e+003
1359.202, 6.500e+003
1360.398, 6.434e+003
1361.593, 6.401e+003
1362.789, 6.533e+003
1363.984, 6.384e+003
1365.179, 6.380e+003
1366.374, 6.545e+003
1367.569, 6.383e+003
1368.764, 6.510e+003
1369.958, 6.523e+003
1371.153, 6.513e+003
1372.347, 6.657e+003
1373.541, 6.541e+003
1374.735, 6.566e+003
1375.928, 6.700e+003
1377.122, 6.528e+003
1378.315, 6.644e+003
1379.508, 6.747e+003
1380.701, 6.588e+003
1381.893, 6.717e+003
1383.086, 6.641e+003
1384.278, 6.620e+003
1385.470, 6.778e+003
1386.662, 6.643e+003
1387.854, 6.614e+003
1389.046, 6.766e+003
1390.237, 6.597e+003
1391.428, 6.680e+003
1392.619, 6.701e+003
1393.810, 6.612e+003
1395.001, 6.627e+003
1396.191, 6.652e+003
1397.382, 6.527e+003
1398.572, 6.597e+003
1399.762, 6.580e+003
1400.952, 6.514e+003
1402.141, 6.714e+003
1403.331, 6.504e+003
1404.520, 6.660e+003
1405.709, 6.633e+003
1406.898, 6.608e+003
1408.087, 6.737e+003
1409.275, 6.682e+003
1410.464, 6.671e+003
1411.652, 6.751e+003
1412.840, 6.751e+003
1414.028, 6.604e+003
1415.215, 6.849e+003
1416.403, 6.788e+003
1417.590, 6.717e+003
1418.777, 6.888e+003
1419.964, 6.772e+003
1421.151, 6.884e+003
1422.338, 6.820e+003
1423.524, 6.752e+003
1424.710, 6.951e+003
1425.896, 6.860e+003
1427.082, 6.863e+003
1428.268, 7.119e+003
1429.453, 6.985e+003
1430.639, 7.020e+003
1431.824, 7.104e+003
1433.009, 7.070e+003
1434.194, 7.301e+003
1435.378, 7.432e+003
1436.563, 7.420e+003
1437.747, 7.838e+003
1438.931, 7.746e+003
1440.115, 7.993e+003
1441.299, 8.387e+003
1442.482, 8.096e+003
1443.666, 8.433e+003
1444.849, 8.444e+003
1446.032, 8.266e+003
1447.215, 8.704e+003
1448.397, 8.745e+003
1449.580, 8.497e+003
1450.762, 8.923e+003
1451.944, 8.774e+003
1453.126, 8.828e+003
1454.308, 9.175e+003
1455.490, 8.758e+003
1456.671, 8.872e+003
1457.852, 8.966e+003
1459.033, 8.608e+003
1460.214, 8.836e+003
1461.395, 8.593e+003
1462.575, 8.296e+003
1463.756, 8.535e+003
1464.936, 8.253e+003
1466.116, 8.089e+003
1467.296, 8.066e+003
1468.475, 7.873e+003
1469.655, 7.864e+003
1470.834, 7.859e+003
1472.013, 7.566e+003
1473.192, 7.735e+003
1474.371, 7.533e+003
1475.550, 7.532e+003
1476.728, 7.543e+003
1477.906, 7.553e+003
1479.084, 7.400e+003
1480.262, 7.636e+003
1481.440, 7.457e+003
1482.617, 7.428e+003
1483.795, 7.542e+003
1484.972, 7.395e+003
1486.149, 7.388e+003
1487.326, 7.361e+003
1488.502, 7.249e+003
1489.679, 7.270e+003
1490.855, 7.211e+003
1492.031, 7.076e+003
1493.207, 7.127e+003
1494.383, 7.002e+003
1495.559, 6.929e+003
1496.734, 7.113e+003
1497.909, 6.933e+003
1499.084, 6.976e+003
1500.259, 6.961e+003
1501.434, 6.899e+003
1502.608, 6.949e+003
1503.783, 7.223e+003
1504.957, 2.020e+002
##END=



