##NAMES=Danburite
##RRUFFID=R040013
##IDEAL CHEMISTRY=CaB_2_Si_2_O_8_
##LOCALITY=Charcas, San Luis Potosi, Mexico
##OWNER=RRUFF
##SOURCE=Marcus Origlieri
##DESCRIPTION=Colorless prismatic single crystal
##STATUS=The identification of this mineral has been confirmed by X-ray diffraction and chemical analysis
##URL=rruff.info/R040013
##MEASURED CHEMISTRY=Ca_1.00_B_2.00_Si_2.00_O_8_
##PIN_ID=M00010
##ORIENTATION=Laser parallel to a* (1 0 0). Fiducial mark perpendicular to laser is parallel to b [0 1 0]
26.288, 8.270e+002
27.694, 8.380e+002
29.099, 8.250e+002
30.504, 8.130e+002
31.909, 8.100e+002
33.313, 8.040e+002
34.717, 7.980e+002
36.121, 7.830e+002
37.525, 7.860e+002
38.929, 7.960e+002
40.332, 7.780e+002
41.735, 7.560e+002
43.138, 7.440e+002
44.541, 7.540e+002
45.943, 7.460e+002
47.345, 7.280e+002
48.747, 7.160e+002
50.149, 7.100e+002
51.551, 6.910e+002
52.952, 6.810e+002
54.353, 7.030e+002
55.754, 6.900e+002
57.155, 7.070e+002
58.555, 7.040e+002
59.955, 7.030e+002
61.355, 6.940e+002
62.755, 6.970e+002
64.154, 6.920e+002
65.553, 6.710e+002
66.952, 6.920e+002
68.351, 6.760e+002
69.750, 6.900e+002
71.148, 7.090e+002
72.546, 6.990e+002
73.944, 7.440e+002
75.342, 7.150e+002
76.739, 6.920e+002
78.136, 7.000e+002
79.533, 7.240e+002
80.930, 6.930e+002
82.327, 7.020e+002
83.723, 6.920e+002
85.119, 7.060e+002
86.515, 7.110e+002
87.910, 7.440e+002
89.306, 7.600e+002
90.701, 8.020e+002
92.096, 8.200e+002
93.490, 8.480e+002
94.885, 8.640e+002
96.279, 8.820e+002
97.673, 9.540e+002
99.067, 9.770e+002
100.461, 1.009e+003
101.854, 1.037e+003
103.247, 1.068e+003
104.640, 1.116e+003
106.032, 1.152e+003
107.425, 1.231e+003
108.817, 1.371e+003
110.209, 2.006e+003
111.601, 5.089e+003
112.992, 5.320e+003
114.384, 2.240e+003
115.775, 1.664e+003
117.166, 1.646e+003
118.556, 1.739e+003
119.947, 1.929e+003
121.337, 2.247e+003
122.727, 2.414e+003
124.116, 2.260e+003
125.506, 1.997e+003
126.895, 1.880e+003
128.284, 1.769e+003
129.673, 1.688e+003
131.062, 1.643e+003
132.450, 1.598e+003
133.838, 1.616e+003
135.226, 1.715e+003
136.614, 1.785e+003
138.001, 1.847e+003
139.388, 1.720e+003
140.775, 1.625e+003
142.162, 1.588e+003
143.549, 1.551e+003
144.935, 1.627e+003
146.321, 1.646e+003
147.707, 1.739e+003
149.093, 1.951e+003
150.478, 2.041e+003
151.863, 1.866e+003
153.248, 1.733e+003
154.633, 1.638e+003
156.018, 1.631e+003
157.402, 1.647e+003
158.786, 1.769e+003
160.170, 1.937e+003
161.554, 2.114e+003
162.937, 2.527e+003
164.320, 2.800e+003
165.703, 2.597e+003
167.086, 2.231e+003
168.469, 2.169e+003
169.851, 2.252e+003
171.233, 2.424e+003
172.615, 3.047e+003
173.996, 4.097e+003
175.378, 5.911e+003
176.759, 8.775e+003
178.140, 1.370e+004
179.521, 1.968e+004
180.901, 2.096e+004
182.281, 1.577e+004
183.662, 9.532e+003
185.041, 5.952e+003
186.421, 4.161e+003
187.800, 3.438e+003
189.180, 3.177e+003
190.558, 3.078e+003
191.937, 2.911e+003
193.316, 2.605e+003
194.694, 2.352e+003
196.072, 2.164e+003
197.450, 2.247e+003
198.827, 2.383e+003
200.205, 2.615e+003
201.582, 2.980e+003
202.959, 3.180e+003
204.336, 3.121e+003
205.712, 3.005e+003
207.088, 3.108e+003
208.465, 3.454e+003
209.840, 3.443e+003
211.216, 3.064e+003
212.591, 2.479e+003
213.967, 2.164e+003
215.341, 1.940e+003
216.716, 1.870e+003
218.091, 1.816e+003
219.465, 1.823e+003
220.839, 1.931e+003
222.213, 1.977e+003
223.586, 2.131e+003
224.960, 2.289e+003
226.333, 2.243e+003
227.706, 2.017e+003
229.079, 1.851e+003
230.451, 1.800e+003
231.823, 1.897e+003
233.195, 1.917e+003
234.567, 2.028e+003
235.939, 2.238e+003
237.310, 2.597e+003
238.682, 3.289e+003
240.052, 4.397e+003
241.423, 5.712e+003
242.794, 7.173e+003
244.164, 7.549e+003
245.534, 6.483e+003
246.904, 5.051e+003
248.274, 3.816e+003
249.643, 3.058e+003
251.012, 2.659e+003
252.381, 2.392e+003
253.750, 2.208e+003
255.118, 2.100e+003
256.487, 2.034e+003
257.855, 1.971e+003
259.223, 1.887e+003
260.590, 1.873e+003
261.958, 1.838e+003
263.325, 1.834e+003
264.692, 1.786e+003
266.059, 1.804e+003
267.425, 1.767e+003
268.791, 1.828e+003
270.158, 1.797e+003
271.523, 1.828e+003
272.889, 1.871e+003
274.255, 1.926e+003
275.620, 1.975e+003
276.985, 1.972e+003
278.350, 1.913e+003
279.714, 1.857e+003
281.078, 1.809e+003
282.443, 1.802e+003
283.806, 1.751e+003
285.170, 1.818e+003
286.534, 1.909e+003
287.897, 1.960e+003
289.260, 2.063e+003
290.623, 2.247e+003
291.985, 2.389e+003
293.348, 2.501e+003
294.710, 2.488e+003
296.072, 2.330e+003
297.433, 2.181e+003
298.795, 2.142e+003
300.156, 2.131e+003
301.517, 2.242e+003
302.878, 2.416e+003
304.239, 2.645e+003
305.599, 2.865e+003
306.959, 3.296e+003
308.319, 3.856e+003
309.679, 4.370e+003
311.038, 4.517e+003
312.398, 4.326e+003
313.757, 3.737e+003
315.116, 3.117e+003
316.474, 2.655e+003
317.833, 2.383e+003
319.191, 2.252e+003
320.549, 2.143e+003
321.907, 2.063e+003
323.264, 2.057e+003
324.622, 2.002e+003
325.979, 2.081e+003
327.336, 2.070e+003
328.692, 2.119e+003
330.049, 2.140e+003
331.405, 2.141e+003
332.761, 2.100e+003
334.117, 2.211e+003
335.473, 2.282e+003
336.828, 2.387e+003
338.183, 2.641e+003
339.538, 3.053e+003
340.893, 3.743e+003
342.247, 4.924e+003
343.602, 6.658e+003
344.956, 9.008e+003
346.310, 1.045e+004
347.663, 9.532e+003
349.017, 7.292e+003
350.370, 5.198e+003
351.723, 3.895e+003
353.076, 3.120e+003
354.428, 2.713e+003
355.780, 2.432e+003
357.133, 2.320e+003
358.484, 2.153e+003
359.836, 2.084e+003
361.188, 2.036e+003
362.539, 2.018e+003
363.890, 1.982e+003
365.241, 1.980e+003
366.591, 1.956e+003
367.942, 1.897e+003
369.292, 1.880e+003
370.642, 1.856e+003
371.992, 1.931e+003
373.341, 1.890e+003
374.691, 1.875e+003
376.040, 1.909e+003
377.388, 1.887e+003
378.737, 1.906e+003
380.086, 1.879e+003
381.434, 1.931e+003
382.782, 1.900e+003
384.130, 1.867e+003
385.477, 1.965e+003
386.825, 1.959e+003
388.172, 1.970e+003
389.519, 1.990e+003
390.865, 2.035e+003
392.212, 2.146e+003
393.558, 2.121e+003
394.904, 2.140e+003
396.250, 2.040e+003
397.596, 2.018e+003
398.941, 2.001e+003
400.286, 2.014e+003
401.631, 2.051e+003
402.976, 2.036e+003
404.321, 2.083e+003
405.665, 2.051e+003
407.009, 2.076e+003
408.353, 2.066e+003
409.697, 2.090e+003
411.040, 2.110e+003
412.384, 2.160e+003
413.727, 2.220e+003
415.070, 2.260e+003
416.412, 2.414e+003
417.755, 2.578e+003
419.097, 2.741e+003
420.439, 2.894e+003
421.781, 3.099e+003
423.122, 3.158e+003
424.464, 3.068e+003
425.805, 2.811e+003
427.146, 2.609e+003
428.486, 2.383e+003
429.827, 2.252e+003
431.167, 2.210e+003
432.507, 2.213e+003
433.847, 2.289e+003
435.187, 2.427e+003
436.526, 2.742e+003
437.865, 3.000e+003
439.204, 3.291e+003
440.543, 3.309e+003
441.882, 3.030e+003
443.220, 2.711e+003
444.558, 2.464e+003
445.896, 2.331e+003
447.234, 2.246e+003
448.572, 2.143e+003
449.909, 2.156e+003
451.246, 2.160e+003
452.583, 2.190e+003
453.919, 2.215e+003
455.256, 2.300e+003
456.592, 2.389e+003
457.928, 2.459e+003
459.264, 2.456e+003
460.600, 2.434e+003
461.935, 2.312e+003
463.270, 2.334e+003
464.605, 2.351e+003
465.940, 2.407e+003
467.274, 2.547e+003
468.609, 2.713e+003
469.943, 2.900e+003
471.277, 3.354e+003
472.610, 4.165e+003
473.944, 5.573e+003
475.277, 8.000e+003
476.610, 1.164e+004
477.943, 1.512e+004
479.275, 1.540e+004
480.608, 1.223e+004
481.940, 8.425e+003
483.272, 5.729e+003
484.604, 4.362e+003
485.935, 3.641e+003
487.267, 3.142e+003
488.598, 2.896e+003
489.929, 2.678e+003
491.260, 2.562e+003
492.590, 2.459e+003
493.920, 2.422e+003
495.250, 2.355e+003
496.580, 2.345e+003
497.910, 2.318e+003
499.239, 2.291e+003
500.569, 2.237e+003
501.898, 2.251e+003
503.226, 2.216e+003
504.555, 2.230e+003
505.883, 2.185e+003
507.212, 2.205e+003
508.540, 2.213e+003
509.867, 2.254e+003
511.195, 2.221e+003
512.522, 2.199e+003
513.849, 2.197e+003
515.176, 2.190e+003
516.503, 2.235e+003
517.829, 2.198e+003
519.156, 2.176e+003
520.482, 2.242e+003
521.808, 2.206e+003
523.133, 2.231e+003
524.459, 2.220e+003
525.784, 2.208e+003
527.109, 2.245e+003
528.434, 2.257e+003
529.758, 2.210e+003
531.083, 2.210e+003
532.407, 2.237e+003
533.731, 2.203e+003
535.055, 2.261e+003
536.378, 2.249e+003
537.701, 2.222e+003
539.025, 2.275e+003
540.348, 2.285e+003
541.670, 2.308e+003
542.993, 2.284e+003
544.315, 2.331e+003
545.637, 2.347e+003
546.959, 2.319e+003
548.281, 2.332e+003
549.602, 2.373e+003
550.923, 2.426e+003
552.244, 2.506e+003
553.565, 2.491e+003
554.886, 2.522e+003
556.206, 2.616e+003
557.526, 2.737e+003
558.846, 2.982e+003
560.166, 3.193e+003
561.486, 3.257e+003
562.805, 3.089e+003
564.124, 2.891e+003
565.443, 2.674e+003
566.762, 2.571e+003
568.080, 2.540e+003
569.399, 2.594e+003
570.717, 2.625e+003
572.035, 2.624e+003
573.352, 2.579e+003
574.670, 2.644e+003
575.987, 2.691e+003
577.304, 2.754e+003
578.621, 2.778e+003
579.938, 2.882e+003
581.254, 2.917e+003
582.570, 2.941e+003
583.886, 3.049e+003
585.202, 3.113e+003
586.518, 3.244e+003
587.833, 3.324e+003
589.148, 3.509e+003
590.463, 3.668e+003
591.778, 3.878e+003
593.093, 4.140e+003
594.407, 4.542e+003
595.721, 5.012e+003
597.035, 5.588e+003
598.349, 6.357e+003
599.662, 7.640e+003
600.976, 9.275e+003
602.289, 1.194e+004
603.602, 1.585e+004
604.914, 2.174e+004
606.227, 2.918e+004
607.539, 3.611e+004
608.851, 3.868e+004
610.163, 3.553e+004
611.475, 2.814e+004
612.786, 2.178e+004
614.097, 1.630e+004
615.408, 1.233e+004
616.719, 1.006e+004
618.030, 8.438e+003
619.340, 7.433e+003
620.651, 6.906e+003
621.961, 6.749e+003
623.270, 7.154e+003
624.580, 7.693e+003
625.889, 8.340e+003
627.199, 8.187e+003
628.507, 7.317e+003
629.816, 6.290e+003
631.125, 5.345e+003
632.433, 4.726e+003
633.741, 4.317e+003
635.049, 4.028e+003
636.357, 3.781e+003
637.664, 3.601e+003
638.972, 3.480e+003
640.279, 3.415e+003
641.586, 3.346e+003
642.893, 3.223e+003
644.199, 3.147e+003
645.505, 3.065e+003
646.811, 3.030e+003
648.117, 2.999e+003
649.423, 2.955e+003
650.728, 2.893e+003
652.034, 2.877e+003
653.339, 2.827e+003
654.644, 2.802e+003
655.948, 2.821e+003
657.253, 2.830e+003
658.557, 2.785e+003
659.861, 2.723e+003
661.165, 2.774e+003
662.468, 2.692e+003
663.772, 2.642e+003
665.075, 2.698e+003
666.378, 2.744e+003
667.681, 2.678e+003
668.983, 2.753e+003
670.286, 2.700e+003
671.588, 2.691e+003
672.890, 2.689e+003
674.192, 2.665e+003
675.493, 2.661e+003
676.795, 2.655e+003
678.096, 2.597e+003
679.397, 2.637e+003
680.697, 2.638e+003
681.998, 2.620e+003
683.298, 2.623e+003
684.598, 2.639e+003
685.898, 2.651e+003
687.198, 2.655e+003
688.498, 2.634e+003
689.797, 2.646e+003
691.096, 2.619e+003
692.395, 2.647e+003
693.694, 2.640e+003
694.992, 2.620e+003
696.290, 2.662e+003
697.589, 2.633e+003
698.886, 2.659e+003
700.184, 2.634e+003
701.482, 2.612e+003
702.779, 2.674e+003
704.076, 2.605e+003
705.373, 2.605e+003
706.669, 2.663e+003
707.966, 2.645e+003
709.262, 2.686e+003
710.558, 2.680e+003
711.854, 2.683e+003
713.150, 2.730e+003
714.445, 2.702e+003
715.740, 2.741e+003
717.035, 2.728e+003
718.330, 2.695e+003
719.625, 2.726e+003
720.919, 2.684e+003
722.214, 2.664e+003
723.508, 2.675e+003
724.801, 2.652e+003
726.095, 2.710e+003
727.388, 2.700e+003
728.682, 2.669e+003
729.975, 2.682e+003
731.267, 2.693e+003
732.560, 2.656e+003
733.852, 2.676e+003
735.145, 2.682e+003
736.437, 2.718e+003
737.728, 2.724e+003
739.020, 2.720e+003
740.311, 2.727e+003
741.603, 2.699e+003
742.894, 2.708e+003
744.184, 2.729e+003
745.475, 2.703e+003
746.765, 2.720e+003
748.055, 2.675e+003
749.345, 2.718e+003
750.635, 2.744e+003
751.925, 2.724e+003
753.214, 2.756e+003
754.503, 2.710e+003
755.792, 2.765e+003
757.081, 2.746e+003
758.370, 2.779e+003
759.658, 2.766e+003
760.946, 2.795e+003
762.234, 2.834e+003
763.522, 2.817e+003
764.809, 2.890e+003
766.097, 2.887e+003
767.384, 2.929e+003
768.671, 2.983e+003
769.958, 3.023e+003
771.244, 3.097e+003
772.530, 3.154e+003
773.817, 3.099e+003
775.102, 3.121e+003
776.388, 3.053e+003
777.674, 3.015e+003
778.959, 2.958e+003
780.244, 2.863e+003
781.529, 2.860e+003
782.814, 2.855e+003
784.098, 2.825e+003
785.383, 2.816e+003
786.667, 2.769e+003
787.951, 2.786e+003
789.235, 2.861e+003
790.518, 2.800e+003
791.801, 2.828e+003
793.084, 2.781e+003
794.367, 2.869e+003
795.650, 2.796e+003
796.933, 2.819e+003
798.215, 2.781e+003
799.497, 2.808e+003
800.779, 2.850e+003
802.061, 2.823e+003
803.342, 2.850e+003
804.624, 2.831e+003
805.905, 2.793e+003
807.186, 2.869e+003
808.466, 2.812e+003
809.747, 2.790e+003
811.027, 2.856e+003
812.307, 2.828e+003
813.587, 2.825e+003
814.867, 2.827e+003
816.146, 2.902e+003
817.426, 2.857e+003
818.705, 2.813e+003
819.984, 2.836e+003
821.263, 2.828e+003
822.541, 2.854e+003
823.819, 2.905e+003
825.098, 2.873e+003
826.375, 2.872e+003
827.653, 2.855e+003
828.931, 2.881e+003
830.208, 2.894e+003
831.485, 2.876e+003
832.762, 2.850e+003
834.039, 2.895e+003
835.315, 2.911e+003
836.592, 2.922e+003
837.868, 2.911e+003
839.144, 2.977e+003
840.420, 2.884e+003
841.695, 2.954e+003
842.970, 2.928e+003
844.246, 2.983e+003
845.521, 2.971e+003
846.795, 3.001e+003
848.070, 2.955e+003
849.344, 2.955e+003
850.618, 2.998e+003
851.892, 2.972e+003
853.166, 2.978e+003
854.440, 3.000e+003
855.713, 3.017e+003
856.986, 2.996e+003
858.259, 3.089e+003
859.532, 3.032e+003
860.804, 3.001e+003
862.077, 3.091e+003
863.349, 3.069e+003
864.621, 3.073e+003
865.893, 3.113e+003
867.164, 3.108e+003
868.436, 3.139e+003
869.707, 3.142e+003
870.978, 3.152e+003
872.248, 3.100e+003
873.519, 3.115e+003
874.789, 3.154e+003
876.060, 3.165e+003
877.330, 3.068e+003
878.599, 3.135e+003
879.869, 3.130e+003
881.138, 3.117e+003
882.408, 3.113e+003
883.677, 3.149e+003
884.945, 3.114e+003
886.214, 3.145e+003
887.482, 3.210e+003
888.751, 3.222e+003
890.019, 3.217e+003
891.287, 3.270e+003
892.554, 3.290e+003
893.822, 3.287e+003
895.089, 3.384e+003
896.356, 3.413e+003
897.623, 3.403e+003
898.889, 3.449e+003
900.156, 3.467e+003
901.422, 3.434e+003
902.688, 3.459e+003
903.954, 3.436e+003
905.220, 3.454e+003
906.485, 3.410e+003
907.750, 3.480e+003
909.015, 3.399e+003
910.280, 3.412e+003
911.545, 3.488e+003
912.809, 3.450e+003
914.074, 3.524e+003
915.338, 3.552e+003
916.602, 3.521e+003
917.865, 3.536e+003
919.129, 3.582e+003
920.392, 3.574e+003
921.655, 3.551e+003
922.918, 3.512e+003
924.181, 3.525e+003
925.443, 3.530e+003
926.706, 3.472e+003
927.968, 3.436e+003
929.230, 3.338e+003
930.491, 3.329e+003
931.753, 3.298e+003
933.014, 3.301e+003
934.276, 3.325e+003
935.536, 3.403e+003
936.797, 3.335e+003
938.058, 3.392e+003
939.318, 3.420e+003
940.578, 3.426e+003
941.838, 3.570e+003
943.098, 3.579e+003
944.358, 3.692e+003
945.617, 3.756e+003
946.876, 3.741e+003
948.135, 3.744e+003
949.394, 3.673e+003
950.653, 3.708e+003
951.911, 3.616e+003
953.169, 3.567e+003
954.427, 3.524e+003
955.685, 3.525e+003
956.943, 3.435e+003
958.200, 3.488e+003
959.458, 3.463e+003
960.715, 3.447e+003
961.971, 3.476e+003
963.228, 3.538e+003
964.485, 3.623e+003
965.741, 3.675e+003
966.997, 3.791e+003
968.253, 3.959e+003
969.508, 4.049e+003
970.764, 4.406e+003
972.019, 4.358e+003
973.274, 4.338e+003
974.529, 4.179e+003
975.784, 3.884e+003
977.039, 3.788e+003
978.293, 3.728e+003
979.547, 3.617e+003
980.801, 3.591e+003
982.055, 3.546e+003
983.308, 3.576e+003
984.562, 3.525e+003
985.815, 3.523e+003
987.068, 3.563e+003
988.321, 3.521e+003
989.573, 3.514e+003
990.826, 3.563e+003
992.078, 3.542e+003
993.330, 3.560e+003
994.582, 3.524e+003
995.833, 3.572e+003
997.085, 3.582e+003
998.336, 3.593e+003
999.587, 3.568e+003
1000.838, 3.572e+003
1002.088, 3.595e+003
1003.339, 3.625e+003
1004.589, 3.584e+003
1005.839, 3.624e+003
1007.089, 3.601e+003
1008.339, 3.626e+003
1009.588, 3.554e+003
1010.838, 3.550e+003
1012.087, 3.492e+003
1013.336, 3.525e+003
1014.584, 3.385e+003
1015.833, 3.590e+003
1017.081, 3.472e+003
1018.330, 3.494e+003
1019.577, 3.534e+003
1020.825, 3.514e+003
1022.073, 3.556e+003
1023.320, 3.574e+003
1024.567, 3.600e+003
1025.814, 3.593e+003
1027.061, 3.584e+003
1028.308, 3.596e+003
1029.554, 3.612e+003
1030.800, 3.570e+003
1032.046, 3.555e+003
1033.292, 3.564e+003
1034.538, 3.557e+003
1035.783, 3.516e+003
1037.029, 3.568e+003
1038.274, 3.571e+003
1039.519, 3.661e+003
1040.763, 3.653e+003
1042.008, 3.610e+003
1043.252, 3.535e+003
1044.496, 3.484e+003
1045.740, 3.566e+003
1046.984, 3.528e+003
1048.228, 3.506e+003
1049.471, 3.494e+003
1050.714, 3.492e+003
1051.957, 3.526e+003
1053.200, 3.525e+003
1054.442, 3.568e+003
1055.685, 3.545e+003
1056.927, 3.596e+003
1058.169, 3.554e+003
1059.411, 3.558e+003
1060.652, 3.535e+003
1061.894, 3.588e+003
1063.135, 3.515e+003
1064.376, 3.565e+003
1065.617, 3.553e+003
1066.858, 3.557e+003
1068.098, 3.614e+003
1069.339, 3.595e+003
1070.579, 3.586e+003
1071.819, 3.638e+003
1073.058, 3.659e+003
1074.298, 3.704e+003
1075.537, 3.692e+003
1076.776, 3.750e+003
1078.015, 3.812e+003
1079.254, 3.798e+003
1080.493, 3.764e+003
1081.731, 3.858e+003
1082.969, 3.809e+003
1084.207, 3.885e+003
1085.445, 3.871e+003
1086.683, 3.962e+003
1087.920, 3.950e+003
1089.157, 4.002e+003
1090.394, 4.023e+003
1091.631, 4.118e+003
1092.868, 4.200e+003
1094.105, 4.396e+003
1095.341, 4.460e+003
1096.577, 4.550e+003
1097.813, 4.821e+003
1099.049, 4.860e+003
1100.284, 5.165e+003
1101.519, 5.314e+003
1102.755, 5.383e+003
1103.990, 5.649e+003
1105.224, 5.708e+003
1106.459, 5.600e+003
1107.693, 5.624e+003
1108.928, 5.362e+003
1110.162, 5.259e+003
1111.395, 5.116e+003
1112.629, 4.834e+003
1113.863, 4.765e+003
1115.096, 4.604e+003
1116.329, 4.474e+003
1117.562, 4.401e+003
1118.795, 4.307e+003
1120.027, 4.271e+003
1121.259, 4.213e+003
1122.492, 4.195e+003
1123.723, 4.094e+003
1124.955, 4.038e+003
1126.187, 3.952e+003
1127.418, 4.049e+003
1128.649, 3.895e+003
1129.880, 3.905e+003
1131.111, 3.847e+003
1132.342, 3.840e+003
1133.572, 3.863e+003
1134.802, 3.795e+003
1136.033, 3.764e+003
1137.262, 3.810e+003
1138.492, 3.764e+003
1139.722, 3.717e+003
1140.951, 3.748e+003
1142.180, 3.666e+003
1143.409, 3.776e+003
1144.638, 3.655e+003
1145.866, 3.713e+003
1147.095, 3.766e+003
1148.323, 3.693e+003
1149.551, 3.724e+003
1150.779, 3.712e+003
1152.006, 3.739e+003
1153.234, 3.693e+003
1154.461, 3.703e+003
1155.688, 3.756e+003
1156.915, 3.750e+003
1158.141, 3.687e+003
1159.368, 3.762e+003
1160.594, 3.698e+003
1161.820, 3.718e+003
1163.046, 3.807e+003
1164.272, 3.732e+003
1165.498, 3.774e+003
1166.723, 3.820e+003
1167.948, 3.749e+003
1169.173, 3.817e+003
1170.398, 3.816e+003
1171.623, 3.856e+003
1172.847, 3.856e+003
1174.071, 3.880e+003
1175.295, 3.891e+003
1176.519, 3.848e+003
1177.743, 3.862e+003
1178.966, 3.874e+003
1180.190, 3.831e+003
1181.413, 3.819e+003
1182.636, 3.852e+003
1183.858, 3.814e+003
1185.081, 3.813e+003
1186.303, 3.834e+003
1187.526, 3.776e+003
1188.748, 3.858e+003
1189.969, 3.842e+003
1191.191, 3.750e+003
1192.412, 3.763e+003
1193.634, 3.735e+003
1194.855, 3.784e+003
1196.076, 3.833e+003
1197.296, 3.762e+003
1198.517, 3.826e+003
1199.737, 3.774e+003
1200.957, 3.738e+003
1202.177, 3.834e+003
1203.397, 3.768e+003
1204.617, 3.768e+003
1205.836, 3.816e+003
1207.055, 3.784e+003
1208.274, 3.813e+003
1209.493, 3.740e+003
1210.712, 3.817e+003
1211.930, 3.785e+003
1213.148, 3.795e+003
1214.367, 3.794e+003
1215.584, 3.802e+003
1216.802, 3.822e+003
1218.020, 3.819e+003
1219.237, 3.804e+003
1220.454, 3.793e+003
1221.671, 3.855e+003
1222.888, 3.847e+003
1224.105, 3.822e+003
1225.321, 3.805e+003
1226.537, 3.823e+003
1227.753, 3.822e+003
1228.969, 3.868e+003
1230.185, 3.796e+003
1231.400, 3.883e+003
1232.616, 3.824e+003
1233.831, 3.840e+003
1235.046, 3.877e+003
1236.261, 3.919e+003
1237.475, 3.907e+003
1238.689, 3.916e+003
1239.904, 3.838e+003
1241.118, 3.896e+003
1242.332, 3.870e+003
1243.545, 3.908e+003
1244.759, 3.872e+003
1245.972, 3.879e+003
1247.185, 3.856e+003
1248.398, 3.895e+003
1249.611, 3.885e+003
1250.823, 3.908e+003
1252.036, 3.922e+003
1253.248, 3.903e+003
1254.460, 3.952e+003
1255.671, 3.872e+003
1256.883, 3.990e+003
1258.095, 3.889e+003
1259.306, 3.878e+003
1260.517, 3.958e+003
1261.728, 3.935e+003
1262.938, 3.892e+003
1264.149, 4.005e+003
1265.359, 3.868e+003
1266.569, 3.871e+003
1267.779, 3.989e+003
1268.989, 3.887e+003
1270.199, 3.946e+003
1271.408, 3.926e+003
1272.617, 3.892e+003
1273.826, 3.975e+003
1275.035, 3.870e+003
1276.244, 3.917e+003
1277.452, 3.983e+003
1278.661, 3.919e+003
1279.869, 3.863e+003
1281.077, 3.952e+003
1282.285, 3.937e+003
1283.492, 3.935e+003
1284.700, 3.870e+003
1285.907, 3.894e+003
1287.114, 4.001e+003
1288.321, 3.914e+003
1289.527, 3.894e+003
1290.734, 3.922e+003
1291.940, 3.923e+003
1293.146, 3.948e+003
1294.352, 3.977e+003
1295.558, 3.927e+003
1296.763, 3.970e+003
1297.969, 3.966e+003
1299.174, 3.937e+003
1300.379, 3.994e+003
1301.584, 3.957e+003
1302.788, 3.981e+003
1303.993, 3.986e+003
1305.197, 3.916e+003
1306.401, 4.058e+003
1307.605, 4.030e+003
1308.809, 4.039e+003
1310.013, 4.084e+003
1311.216, 4.003e+003
1312.419, 4.035e+003
1313.622, 4.032e+003
1314.825, 4.011e+003
1316.028, 4.103e+003
1317.230, 4.002e+003
1318.432, 4.032e+003
1319.634, 4.095e+003
1320.836, 4.079e+003
1322.038, 4.069e+003
1323.240, 4.089e+003
1324.441, 4.103e+003
1325.642, 4.056e+003
1326.843, 4.054e+003
1328.044, 4.028e+003
1329.245, 4.069e+003
1330.445, 4.059e+003
1331.645, 4.114e+003
1332.845, 4.062e+003
1334.045, 4.088e+003
1335.245, 4.101e+003
1336.445, 4.129e+003
1337.644, 4.096e+003
1338.843, 4.091e+003
1340.042, 4.082e+003
1341.241, 4.086e+003
1342.440, 4.041e+003
1343.638, 4.095e+003
1344.836, 4.171e+003
1346.034, 4.167e+003
1347.232, 4.136e+003
1348.430, 4.125e+003
1349.628, 4.128e+003
1350.825, 4.082e+003
1352.022, 4.162e+003
1353.219, 4.155e+003
1354.416, 4.130e+003
1355.613, 4.192e+003
1356.809, 4.156e+003
1358.005, 4.107e+003
1359.202, 4.226e+003
1360.398, 4.122e+003
1361.593, 4.208e+003
1362.789, 4.200e+003
1363.984, 4.129e+003
1365.179, 4.210e+003
1366.374, 4.230e+003
1367.569, 4.202e+003
1368.764, 4.167e+003
1369.958, 4.261e+003
1371.153, 4.241e+003
1372.347, 4.233e+003
1373.541, 4.158e+003
1374.735, 4.208e+003
1375.928, 4.204e+003
1377.122, 4.231e+003
1378.315, 4.202e+003
1379.508, 4.214e+003
1380.701, 4.267e+003
1381.893, 4.317e+003
1383.086, 4.288e+003
1384.278, 4.230e+003
1385.470, 4.279e+003
1386.662, 4.239e+003
1387.854, 4.226e+003
1389.046, 4.308e+003
1390.237, 4.256e+003
1391.428, 4.262e+003
1392.619, 4.267e+003
1393.810, 4.278e+003
1395.001, 4.327e+003
1396.191, 4.264e+003
1397.382, 4.289e+003
1398.572, 4.320e+003
1399.762, 4.256e+003
1400.952, 4.303e+003
1402.141, 4.319e+003
1403.331, 4.297e+003
1404.520, 4.386e+003
1405.709, 4.291e+003
1406.898, 4.366e+003
1408.087, 4.381e+003
1409.275, 4.378e+003
1410.464, 4.364e+003
1411.652, 4.358e+003
1412.840, 4.289e+003
1414.028, 4.398e+003
1415.215, 4.438e+003
1416.403, 4.317e+003
1417.590, 4.428e+003
1418.777, 4.381e+003
1419.964, 4.428e+003
1421.151, 4.428e+003
1422.338, 4.387e+003
1423.524, 4.448e+003
1424.710, 4.447e+003
1425.896, 4.421e+003
1427.082, 4.458e+003
1428.268, 4.494e+003
1429.453, 4.469e+003
1430.639, 4.504e+003
1431.824, 4.473e+003
1433.009, 4.487e+003
1434.194, 4.498e+003
1435.378, 4.481e+003
1436.563, 4.558e+003
1437.747, 4.596e+003
1438.931, 4.502e+003
1440.115, 4.590e+003
1441.299, 4.559e+003
1442.482, 4.572e+003
1443.666, 4.628e+003
1444.849, 4.573e+003
1446.032, 4.580e+003
1447.215, 4.663e+003
1448.397, 4.652e+003
1449.580, 4.626e+003
1450.762, 4.702e+003
1451.944, 4.656e+003
1453.126, 4.678e+003
1454.308, 4.669e+003
1455.490, 4.617e+003
1456.671, 4.628e+003
1457.852, 4.641e+003
1459.033, 4.595e+003
1460.214, 4.646e+003
1461.395, 4.585e+003
1462.575, 4.619e+003
1463.756, 4.669e+003
1464.936, 4.568e+003
1466.116, 4.720e+003
1467.296, 4.626e+003
1468.475, 4.650e+003
1469.655, 4.627e+003
1470.834, 4.684e+003
1472.013, 4.594e+003
1473.192, 4.657e+003
1474.371, 4.566e+003
1475.550, 4.682e+003
1476.728, 4.564e+003
1477.906, 4.679e+003
1479.084, 4.618e+003
1480.262, 4.652e+003
1481.440, 4.546e+003
1482.617, 4.594e+003
1483.795, 4.648e+003
1484.972, 4.630e+003
1486.149, 4.677e+003
1487.326, 4.633e+003
1488.502, 4.655e+003
1489.679, 4.681e+003
1490.855, 4.599e+003
1492.031, 4.578e+003
1493.207, 4.595e+003
1494.383, 4.614e+003
1495.559, 4.703e+003
1496.734, 4.621e+003
1497.909, 4.669e+003
1499.084, 4.679e+003
1500.259, 4.642e+003
1501.434, 4.659e+003
1502.608, 4.619e+003
1503.783, 4.818e+003
1504.957, 1.730e+002
##END=



