##NAMES=Danburite
##RRUFFID=R040013
##IDEAL CHEMISTRY=CaB_2_Si_2_O_8_
##LOCALITY=Charcas, San Luis Potosi, Mexico
##OWNER=RRUFF
##SOURCE=Marcus Origlieri
##DESCRIPTION=Colorless prismatic single crystal
##STATUS=The identification of this mineral has been confirmed by X-ray diffraction and chemical analysis
##URL=rruff.info/R040013
##MEASURED CHEMISTRY=Ca_1.00_B_2.00_Si_2.00_O_8_
##PIN_ID=M00009
##ORIENTATION=Laser parallel to b* (0 1 0). Fiducial mark perpendicular to laser is parallel to -c [0 0 -1]
26.288, 1.280e+003
27.694, 1.287e+003
29.099, 1.287e+003
30.504, 1.289e+003
31.909, 1.257e+003
33.313, 1.230e+003
34.717, 1.259e+003
36.121, 1.254e+003
37.525, 1.227e+003
38.929, 1.262e+003
40.332, 1.218e+003
41.735, 1.249e+003
43.138, 1.230e+003
44.541, 1.169e+003
45.943, 1.139e+003
47.345, 1.140e+003
48.747, 1.154e+003
50.149, 1.136e+003
51.551, 1.153e+003
52.952, 1.138e+003
54.353, 1.134e+003
55.754, 1.180e+003
57.155, 1.154e+003
58.555, 1.161e+003
59.955, 1.106e+003
61.355, 1.084e+003
62.755, 1.050e+003
64.154, 1.032e+003
65.553, 9.960e+002
66.952, 9.490e+002
68.351, 9.570e+002
69.750, 9.380e+002
71.148, 9.430e+002
72.546, 9.410e+002
73.944, 9.050e+002
75.342, 9.170e+002
76.739, 8.910e+002
78.136, 8.890e+002
79.533, 8.850e+002
80.930, 9.550e+002
82.327, 9.710e+002
83.723, 1.021e+003
85.119, 1.067e+003
86.515, 1.103e+003
87.910, 1.164e+003
89.306, 1.264e+003
90.701, 1.346e+003
92.096, 1.472e+003
93.490, 1.570e+003
94.885, 1.708e+003
96.279, 1.830e+003
97.673, 2.005e+003
99.067, 2.082e+003
100.461, 2.222e+003
101.854, 2.361e+003
103.247, 2.423e+003
104.640, 2.557e+003
106.032, 2.552e+003
107.425, 2.750e+003
108.817, 2.940e+003
110.209, 3.959e+003
111.601, 6.196e+003
112.992, 5.605e+003
114.384, 4.871e+003
115.775, 4.154e+003
117.166, 3.960e+003
118.556, 4.172e+003
119.947, 4.899e+003
121.337, 6.592e+003
122.727, 8.187e+003
124.116, 8.247e+003
125.506, 6.418e+003
126.895, 4.682e+003
128.284, 3.698e+003
129.673, 3.265e+003
131.062, 3.049e+003
132.450, 2.937e+003
133.838, 2.849e+003
135.226, 2.848e+003
136.614, 2.835e+003
138.001, 2.835e+003
139.388, 2.770e+003
140.775, 2.773e+003
142.162, 2.706e+003
143.549, 2.724e+003
144.935, 2.744e+003
146.321, 2.680e+003
147.707, 2.722e+003
149.093, 2.721e+003
150.478, 2.708e+003
151.863, 2.727e+003
153.248, 2.799e+003
154.633, 2.728e+003
156.018, 2.766e+003
157.402, 2.794e+003
158.786, 2.907e+003
160.170, 3.141e+003
161.554, 3.410e+003
162.937, 4.419e+003
164.320, 5.500e+003
165.703, 5.470e+003
167.086, 4.357e+003
168.469, 3.495e+003
169.851, 3.123e+003
171.233, 3.024e+003
172.615, 3.043e+003
173.996, 3.130e+003
175.378, 3.477e+003
176.759, 4.098e+003
178.140, 5.094e+003
179.521, 6.824e+003
180.901, 8.562e+003
182.281, 8.783e+003
183.662, 6.881e+003
185.041, 5.126e+003
186.421, 4.205e+003
187.800, 4.141e+003
189.180, 4.492e+003
190.558, 5.740e+003
191.937, 6.788e+003
193.316, 6.346e+003
194.694, 5.087e+003
196.072, 3.970e+003
197.450, 3.538e+003
198.827, 3.305e+003
200.205, 3.262e+003
201.582, 3.398e+003
202.959, 3.626e+003
204.336, 4.163e+003
205.712, 4.928e+003
207.088, 6.388e+003
208.465, 8.684e+003
209.840, 1.020e+004
211.216, 9.493e+003
212.591, 7.212e+003
213.967, 5.309e+003
215.341, 4.183e+003
216.716, 3.758e+003
218.091, 3.495e+003
219.465, 3.578e+003
220.839, 3.784e+003
222.213, 4.263e+003
223.586, 5.084e+003
224.960, 6.485e+003
226.333, 6.860e+003
227.706, 5.752e+003
229.079, 4.592e+003
230.451, 4.059e+003
231.823, 3.970e+003
233.195, 4.150e+003
234.567, 4.537e+003
235.939, 5.170e+003
237.310, 6.481e+003
238.682, 8.494e+003
240.052, 1.191e+004
241.423, 1.725e+004
242.794, 2.447e+004
244.164, 2.899e+004
245.534, 2.620e+004
246.904, 1.915e+004
248.274, 1.282e+004
249.643, 8.784e+003
251.012, 6.735e+003
252.381, 5.600e+003
253.750, 4.849e+003
255.118, 4.374e+003
256.487, 4.000e+003
257.855, 3.859e+003
259.223, 3.640e+003
260.590, 3.532e+003
261.958, 3.413e+003
263.325, 3.402e+003
264.692, 3.413e+003
266.059, 3.492e+003
267.425, 3.565e+003
268.791, 3.454e+003
270.158, 3.337e+003
271.523, 3.259e+003
272.889, 3.171e+003
274.255, 3.113e+003
275.620, 3.149e+003
276.985, 3.147e+003
278.350, 3.138e+003
279.714, 3.160e+003
281.078, 3.154e+003
282.443, 3.247e+003
283.806, 3.296e+003
285.170, 3.388e+003
286.534, 3.563e+003
287.897, 3.926e+003
289.260, 4.431e+003
290.623, 5.100e+003
291.985, 6.076e+003
293.348, 7.028e+003
294.710, 7.304e+003
296.072, 6.576e+003
297.433, 5.427e+003
298.795, 4.513e+003
300.156, 3.956e+003
301.517, 3.706e+003
302.878, 3.523e+003
304.239, 3.441e+003
305.599, 3.449e+003
306.959, 3.464e+003
308.319, 3.621e+003
309.679, 3.825e+003
311.038, 3.862e+003
312.398, 3.789e+003
313.757, 3.645e+003
315.116, 3.449e+003
316.474, 3.244e+003
317.833, 3.217e+003
319.191, 3.140e+003
320.549, 3.176e+003
321.907, 3.138e+003
323.264, 3.136e+003
324.622, 3.197e+003
325.979, 3.303e+003
327.336, 3.456e+003
328.692, 3.648e+003
330.049, 3.590e+003
331.405, 3.510e+003
332.761, 3.337e+003
334.117, 3.254e+003
335.473, 3.214e+003
336.828, 3.191e+003
338.183, 3.239e+003
339.538, 3.241e+003
340.893, 3.430e+003
342.247, 3.623e+003
343.602, 4.077e+003
344.956, 4.558e+003
346.310, 5.093e+003
347.663, 4.982e+003
349.017, 4.480e+003
350.370, 3.974e+003
351.723, 3.621e+003
353.076, 3.385e+003
354.428, 3.275e+003
355.780, 3.239e+003
357.133, 3.143e+003
358.484, 3.086e+003
359.836, 3.116e+003
361.188, 3.072e+003
362.539, 3.103e+003
363.890, 3.077e+003
365.241, 3.052e+003
366.591, 3.054e+003
367.942, 3.049e+003
369.292, 3.083e+003
370.642, 3.092e+003
371.992, 3.032e+003
373.341, 3.035e+003
374.691, 3.091e+003
376.040, 3.052e+003
377.388, 3.079e+003
378.737, 3.079e+003
380.086, 3.121e+003
381.434, 3.133e+003
382.782, 3.097e+003
384.130, 3.090e+003
385.477, 3.162e+003
386.825, 3.164e+003
388.172, 3.162e+003
389.519, 3.192e+003
390.865, 3.206e+003
392.212, 3.265e+003
393.558, 3.235e+003
394.904, 3.235e+003
396.250, 3.260e+003
397.596, 3.290e+003
398.941, 3.255e+003
400.286, 3.303e+003
401.631, 3.318e+003
402.976, 3.341e+003
404.321, 3.363e+003
405.665, 3.386e+003
407.009, 3.381e+003
408.353, 3.443e+003
409.697, 3.524e+003
411.040, 3.625e+003
412.384, 3.701e+003
413.727, 3.825e+003
415.070, 3.983e+003
416.412, 4.242e+003
417.755, 4.626e+003
419.097, 5.134e+003
420.439, 5.734e+003
421.781, 6.398e+003
423.122, 6.860e+003
424.464, 6.675e+003
425.805, 6.144e+003
427.146, 5.329e+003
428.486, 4.596e+003
429.827, 4.164e+003
431.167, 4.035e+003
432.507, 3.911e+003
433.847, 3.959e+003
435.187, 4.284e+003
436.526, 4.869e+003
437.865, 5.746e+003
439.204, 6.668e+003
440.543, 7.105e+003
441.882, 6.613e+003
443.220, 5.770e+003
444.558, 4.877e+003
445.896, 4.332e+003
447.234, 4.014e+003
448.572, 3.825e+003
449.909, 3.737e+003
451.246, 3.639e+003
452.583, 3.641e+003
453.919, 3.753e+003
455.256, 3.948e+003
456.592, 4.397e+003
457.928, 4.806e+003
459.264, 4.773e+003
460.600, 4.348e+003
461.935, 3.910e+003
463.270, 3.671e+003
464.605, 3.562e+003
465.940, 3.477e+003
467.274, 3.451e+003
468.609, 3.479e+003
469.943, 3.557e+003
471.277, 3.522e+003
472.610, 3.619e+003
473.944, 3.746e+003
475.277, 4.035e+003
476.610, 4.581e+003
477.943, 5.078e+003
479.275, 5.250e+003
480.608, 4.954e+003
481.940, 4.463e+003
483.272, 3.947e+003
484.604, 3.716e+003
485.935, 3.650e+003
487.267, 3.539e+003
488.598, 3.488e+003
489.929, 3.450e+003
491.260, 3.451e+003
492.590, 3.440e+003
493.920, 3.412e+003
495.250, 3.415e+003
496.580, 3.382e+003
497.910, 3.405e+003
499.239, 3.390e+003
500.569, 3.367e+003
501.898, 3.428e+003
503.226, 3.397e+003
504.555, 3.374e+003
505.883, 3.456e+003
507.212, 3.465e+003
508.540, 3.421e+003
509.867, 3.427e+003
511.195, 3.435e+003
512.522, 3.413e+003
513.849, 3.458e+003
515.176, 3.449e+003
516.503, 3.504e+003
517.829, 3.517e+003
519.156, 3.489e+003
520.482, 3.493e+003
521.808, 3.501e+003
523.133, 3.493e+003
524.459, 3.476e+003
525.784, 3.495e+003
527.109, 3.531e+003
528.434, 3.500e+003
529.758, 3.480e+003
531.083, 3.524e+003
532.407, 3.551e+003
533.731, 3.514e+003
535.055, 3.527e+003
536.378, 3.514e+003
537.701, 3.523e+003
539.025, 3.558e+003
540.348, 3.541e+003
541.670, 3.568e+003
542.993, 3.604e+003
544.315, 3.595e+003
545.637, 3.584e+003
546.959, 3.562e+003
548.281, 3.621e+003
549.602, 3.577e+003
550.923, 3.596e+003
552.244, 3.628e+003
553.565, 3.681e+003
554.886, 3.681e+003
556.206, 3.754e+003
557.526, 3.690e+003
558.846, 3.762e+003
560.166, 3.812e+003
561.486, 3.810e+003
562.805, 3.818e+003
564.124, 3.846e+003
565.443, 3.873e+003
566.762, 3.847e+003
568.080, 3.895e+003
569.399, 4.035e+003
570.717, 4.076e+003
572.035, 4.055e+003
573.352, 3.995e+003
574.670, 3.954e+003
575.987, 3.938e+003
577.304, 3.971e+003
578.621, 3.949e+003
579.938, 3.986e+003
581.254, 4.107e+003
582.570, 4.099e+003
583.886, 4.155e+003
585.202, 4.192e+003
586.518, 4.294e+003
587.833, 4.343e+003
589.148, 4.469e+003
590.463, 4.609e+003
591.778, 4.696e+003
593.093, 4.928e+003
594.407, 5.104e+003
595.721, 5.466e+003
597.035, 5.758e+003
598.349, 6.145e+003
599.662, 6.938e+003
600.976, 8.009e+003
602.289, 9.349e+003
603.602, 1.158e+004
604.914, 1.514e+004
606.227, 2.011e+004
607.539, 2.532e+004
608.851, 2.829e+004
610.163, 2.734e+004
611.475, 2.283e+004
612.786, 1.814e+004
614.097, 1.423e+004
615.408, 1.114e+004
616.719, 9.394e+003
618.030, 8.300e+003
619.340, 7.533e+003
620.651, 7.393e+003
621.961, 7.471e+003
623.270, 8.172e+003
624.580, 9.058e+003
625.889, 1.039e+004
627.199, 1.073e+004
628.507, 9.771e+003
629.816, 8.623e+003
631.125, 7.376e+003
632.433, 6.462e+003
633.741, 5.832e+003
635.049, 5.352e+003
636.357, 5.137e+003
637.664, 5.030e+003
638.972, 4.832e+003
640.279, 4.744e+003
641.586, 4.691e+003
642.893, 4.569e+003
644.199, 4.554e+003
645.505, 4.562e+003
646.811, 4.486e+003
648.117, 4.469e+003
649.423, 4.441e+003
650.728, 4.321e+003
652.034, 4.370e+003
653.339, 4.332e+003
654.644, 4.292e+003
655.948, 4.271e+003
657.253, 4.158e+003
658.557, 4.165e+003
659.861, 4.181e+003
661.165, 4.166e+003
662.468, 4.092e+003
663.772, 4.112e+003
665.075, 4.113e+003
666.378, 4.105e+003
667.681, 4.113e+003
668.983, 4.224e+003
670.286, 4.140e+003
671.588, 4.251e+003
672.890, 4.271e+003
674.192, 4.161e+003
675.493, 4.228e+003
676.795, 4.101e+003
678.096, 4.109e+003
679.397, 4.053e+003
680.697, 4.056e+003
681.998, 4.065e+003
683.298, 4.037e+003
684.598, 3.977e+003
685.898, 4.039e+003
687.198, 4.038e+003
688.498, 4.124e+003
689.797, 4.062e+003
691.096, 4.143e+003
692.395, 3.980e+003
693.694, 4.001e+003
694.992, 4.075e+003
696.290, 4.094e+003
697.589, 4.043e+003
698.886, 4.012e+003
700.184, 4.021e+003
701.482, 4.041e+003
702.779, 4.019e+003
704.076, 4.086e+003
705.373, 4.059e+003
706.669, 4.064e+003
707.966, 3.996e+003
709.262, 4.022e+003
710.558, 4.047e+003
711.854, 4.073e+003
713.150, 4.016e+003
714.445, 4.133e+003
715.740, 4.059e+003
717.035, 4.099e+003
718.330, 3.987e+003
719.625, 4.087e+003
720.919, 4.107e+003
722.214, 4.142e+003
723.508, 4.181e+003
724.801, 4.096e+003
726.095, 4.126e+003
727.388, 4.131e+003
728.682, 4.138e+003
729.975, 4.173e+003
731.267, 4.200e+003
732.560, 4.122e+003
733.852, 4.271e+003
735.145, 4.134e+003
736.437, 4.241e+003
737.728, 4.171e+003
739.020, 4.165e+003
740.311, 4.265e+003
741.603, 4.130e+003
742.894, 4.284e+003
744.184, 4.178e+003
745.475, 4.222e+003
746.765, 4.232e+003
748.055, 4.156e+003
749.345, 4.221e+003
750.635, 4.309e+003
751.925, 4.245e+003
753.214, 4.286e+003
754.503, 4.229e+003
755.792, 4.312e+003
757.081, 4.347e+003
758.370, 4.326e+003
759.658, 4.382e+003
760.946, 4.331e+003
762.234, 4.336e+003
763.522, 4.384e+003
764.809, 4.413e+003
766.097, 4.454e+003
767.384, 4.515e+003
768.671, 4.653e+003
769.958, 4.730e+003
771.244, 4.734e+003
772.530, 4.832e+003
773.817, 4.785e+003
775.102, 4.686e+003
776.388, 4.663e+003
777.674, 4.482e+003
778.959, 4.501e+003
780.244, 4.457e+003
781.529, 4.397e+003
782.814, 4.372e+003
784.098, 4.364e+003
785.383, 4.358e+003
786.667, 4.375e+003
787.951, 4.340e+003
789.235, 4.409e+003
790.518, 4.352e+003
791.801, 4.424e+003
793.084, 4.430e+003
794.367, 4.389e+003
795.650, 4.388e+003
796.933, 4.330e+003
798.215, 4.337e+003
799.497, 4.323e+003
800.779, 4.392e+003
802.061, 4.376e+003
803.342, 4.353e+003
804.624, 4.370e+003
805.905, 4.391e+003
807.186, 4.379e+003
808.466, 4.384e+003
809.747, 4.378e+003
811.027, 4.442e+003
812.307, 4.412e+003
813.587, 4.433e+003
814.867, 4.443e+003
816.146, 4.437e+003
817.426, 4.478e+003
818.705, 4.467e+003
819.984, 4.451e+003
821.263, 4.516e+003
822.541, 4.493e+003
823.819, 4.476e+003
825.098, 4.487e+003
826.375, 4.540e+003
827.653, 4.569e+003
828.931, 4.544e+003
830.208, 4.520e+003
831.485, 4.580e+003
832.762, 4.551e+003
834.039, 4.606e+003
835.315, 4.523e+003
836.592, 4.574e+003
837.868, 4.669e+003
839.144, 4.679e+003
840.420, 4.634e+003
841.695, 4.647e+003
842.970, 4.695e+003
844.246, 4.711e+003
845.521, 4.736e+003
846.795, 4.737e+003
848.070, 4.810e+003
849.344, 4.715e+003
850.618, 4.763e+003
851.892, 4.832e+003
853.166, 4.790e+003
854.440, 4.878e+003
855.713, 4.836e+003
856.986, 4.943e+003
858.259, 4.949e+003
859.532, 4.993e+003
860.804, 5.023e+003
862.077, 5.013e+003
863.349, 5.052e+003
864.621, 5.126e+003
865.893, 5.142e+003
867.164, 5.239e+003
868.436, 5.207e+003
869.707, 5.200e+003
870.978, 5.225e+003
872.248, 5.178e+003
873.519, 5.221e+003
874.789, 5.126e+003
876.060, 5.175e+003
877.330, 5.087e+003
878.599, 5.068e+003
879.869, 5.167e+003
881.138, 5.026e+003
882.408, 5.168e+003
883.677, 5.137e+003
884.945, 5.134e+003
886.214, 5.191e+003
887.482, 5.229e+003
888.751, 5.328e+003
890.019, 5.471e+003
891.287, 5.577e+003
892.554, 5.740e+003
893.822, 5.875e+003
895.089, 6.041e+003
896.356, 6.285e+003
897.623, 6.257e+003
898.889, 6.249e+003
900.156, 6.321e+003
901.422, 6.200e+003
902.688, 6.065e+003
903.954, 6.053e+003
905.220, 5.916e+003
906.485, 5.801e+003
907.750, 5.669e+003
909.015, 5.624e+003
910.280, 5.504e+003
911.545, 5.416e+003
912.809, 5.400e+003
914.074, 5.341e+003
915.338, 5.312e+003
916.602, 5.286e+003
917.865, 5.249e+003
919.129, 5.266e+003
920.392, 5.166e+003
921.655, 5.121e+003
922.918, 5.160e+003
924.181, 5.086e+003
925.443, 5.092e+003
926.706, 5.129e+003
927.968, 5.056e+003
929.230, 5.059e+003
930.491, 5.092e+003
931.753, 5.099e+003
933.014, 5.029e+003
934.276, 5.074e+003
935.536, 5.079e+003
936.797, 5.030e+003
938.058, 5.061e+003
939.318, 5.107e+003
940.578, 5.070e+003
941.838, 5.169e+003
943.098, 5.135e+003
944.358, 5.129e+003
945.617, 5.194e+003
946.876, 5.201e+003
948.135, 5.187e+003
949.394, 5.184e+003
950.653, 5.217e+003
951.911, 5.267e+003
953.169, 5.244e+003
954.427, 5.274e+003
955.685, 5.342e+003
956.943, 5.264e+003
958.200, 5.315e+003
959.458, 5.344e+003
960.715, 5.380e+003
961.971, 5.470e+003
963.228, 5.504e+003
964.485, 5.649e+003
965.741, 5.827e+003
966.997, 6.142e+003
968.253, 6.563e+003
969.508, 7.038e+003
970.764, 7.830e+003
972.019, 8.325e+003
973.274, 8.222e+003
974.529, 7.748e+003
975.784, 6.946e+003
977.039, 6.512e+003
978.293, 6.163e+003
979.547, 5.886e+003
980.801, 5.888e+003
982.055, 5.681e+003
983.308, 5.716e+003
984.562, 5.685e+003
985.815, 5.643e+003
987.068, 5.748e+003
988.321, 6.001e+003
989.573, 5.666e+003
990.826, 5.745e+003
992.078, 5.767e+003
993.330, 5.843e+003
994.582, 5.918e+003
995.833, 5.895e+003
997.085, 5.884e+003
998.336, 5.961e+003
999.587, 5.911e+003
1000.838, 6.026e+003
1002.088, 5.876e+003
1003.339, 5.803e+003
1004.589, 5.717e+003
1005.839, 5.551e+003
1007.089, 5.627e+003
1008.339, 5.531e+003
1009.588, 5.419e+003
1010.838, 5.456e+003
1012.087, 5.380e+003
1013.336, 5.399e+003
1014.584, 5.342e+003
1015.833, 5.366e+003
1017.081, 5.408e+003
1018.330, 5.442e+003
1019.577, 5.471e+003
1020.825, 5.450e+003
1022.073, 5.467e+003
1023.320, 5.462e+003
1024.567, 5.505e+003
1025.814, 5.460e+003
1027.061, 5.511e+003
1028.308, 5.490e+003
1029.554, 5.423e+003
1030.800, 5.389e+003
1032.046, 5.430e+003
1033.292, 5.490e+003
1034.538, 5.506e+003
1035.783, 5.580e+003
1037.029, 5.732e+003
1038.274, 5.871e+003
1039.519, 6.001e+003
1040.763, 5.981e+003
1042.008, 5.824e+003
1043.252, 5.742e+003
1044.496, 5.554e+003
1045.740, 5.496e+003
1046.984, 5.496e+003
1048.228, 5.479e+003
1049.471, 5.445e+003
1050.714, 5.442e+003
1051.957, 5.440e+003
1053.200, 5.463e+003
1054.442, 5.408e+003
1055.685, 5.442e+003
1056.927, 5.452e+003
1058.169, 5.422e+003
1059.411, 5.414e+003
1060.652, 5.402e+003
1061.894, 5.447e+003
1063.135, 5.484e+003
1064.376, 5.418e+003
1065.617, 5.520e+003
1066.858, 5.465e+003
1068.098, 5.484e+003
1069.339, 5.578e+003
1070.579, 5.459e+003
1071.819, 5.546e+003
1073.058, 5.553e+003
1074.298, 5.610e+003
1075.537, 5.659e+003
1076.776, 5.696e+003
1078.015, 5.742e+003
1079.254, 5.803e+003
1080.493, 5.762e+003
1081.731, 5.870e+003
1082.969, 5.901e+003
1084.207, 5.962e+003
1085.445, 6.020e+003
1086.683, 5.970e+003
1087.920, 6.000e+003
1089.157, 6.172e+003
1090.394, 6.144e+003
1091.631, 6.291e+003
1092.868, 6.308e+003
1094.105, 6.512e+003
1095.341, 6.607e+003
1096.577, 6.656e+003
1097.813, 6.971e+003
1099.049, 7.160e+003
1100.284, 7.465e+003
1101.519, 7.820e+003
1102.755, 7.800e+003
1103.990, 8.081e+003
1105.224, 8.256e+003
1106.459, 8.306e+003
1107.693, 8.335e+003
1108.928, 8.086e+003
1110.162, 7.859e+003
1111.395, 7.761e+003
1112.629, 7.283e+003
1113.863, 7.135e+003
1115.096, 6.963e+003
1116.329, 6.805e+003
1117.562, 6.711e+003
1118.795, 6.577e+003
1120.027, 6.468e+003
1121.259, 6.466e+003
1122.492, 6.343e+003
1123.723, 6.262e+003
1124.955, 6.177e+003
1126.187, 6.127e+003
1127.418, 6.129e+003
1128.649, 5.962e+003
1129.880, 5.929e+003
1131.111, 5.960e+003
1132.342, 5.910e+003
1133.572, 5.850e+003
1134.802, 5.897e+003
1136.033, 5.812e+003
1137.262, 5.903e+003
1138.492, 5.742e+003
1139.722, 5.721e+003
1140.951, 5.762e+003
1142.180, 5.703e+003
1143.409, 5.736e+003
1144.638, 5.711e+003
1145.866, 5.669e+003
1147.095, 5.736e+003
1148.323, 5.717e+003
1149.551, 5.768e+003
1150.779, 5.764e+003
1152.006, 5.747e+003
1153.234, 5.789e+003
1154.461, 5.716e+003
1155.688, 5.731e+003
1156.915, 5.775e+003
1158.141, 5.630e+003
1159.368, 5.705e+003
1160.594, 5.807e+003
1161.820, 5.739e+003
1163.046, 5.727e+003
1164.272, 5.781e+003
1165.498, 5.736e+003
1166.723, 5.785e+003
1167.948, 5.765e+003
1169.173, 5.795e+003
1170.398, 5.866e+003
1171.623, 5.772e+003
1172.847, 5.794e+003
1174.071, 5.834e+003
1175.295, 5.758e+003
1176.519, 5.822e+003
1177.743, 5.828e+003
1178.966, 5.816e+003
1180.190, 5.802e+003
1181.413, 5.806e+003
1182.636, 5.760e+003
1183.858, 5.811e+003
1185.081, 5.746e+003
1186.303, 5.807e+003
1187.526, 5.848e+003
1188.748, 5.844e+003
1189.969, 5.870e+003
1191.191, 5.850e+003
1192.412, 5.841e+003
1193.634, 5.851e+003
1194.855, 5.784e+003
1196.076, 5.798e+003
1197.296, 5.851e+003
1198.517, 5.898e+003
1199.737, 5.826e+003
1200.957, 5.900e+003
1202.177, 5.826e+003
1203.397, 5.822e+003
1204.617, 5.907e+003
1205.836, 5.857e+003
1207.055, 5.851e+003
1208.274, 5.896e+003
1209.493, 5.881e+003
1210.712, 5.868e+003
1211.930, 5.810e+003
1213.148, 6.000e+003
1214.367, 5.946e+003
1215.584, 5.927e+003
1216.802, 5.901e+003
1218.020, 5.920e+003
1219.237, 5.952e+003
1220.454, 5.902e+003
1221.671, 5.939e+003
1222.888, 5.931e+003
1224.105, 5.905e+003
1225.321, 5.948e+003
1226.537, 5.996e+003
1227.753, 5.888e+003
1228.969, 5.952e+003
1230.185, 5.904e+003
1231.400, 6.005e+003
1232.616, 6.000e+003
1233.831, 5.952e+003
1235.046, 6.130e+003
1236.261, 6.118e+003
1237.475, 6.117e+003
1238.689, 6.171e+003
1239.904, 6.059e+003
1241.118, 6.126e+003
1242.332, 6.062e+003
1243.545, 6.036e+003
1244.759, 6.049e+003
1245.972, 6.110e+003
1247.185, 6.112e+003
1248.398, 6.214e+003
1249.611, 6.067e+003
1250.823, 6.113e+003
1252.036, 6.092e+003
1253.248, 6.140e+003
1254.460, 6.162e+003
1255.671, 6.065e+003
1256.883, 6.094e+003
1258.095, 6.198e+003
1259.306, 6.042e+003
1260.517, 6.137e+003
1261.728, 6.161e+003
1262.938, 6.084e+003
1264.149, 6.205e+003
1265.359, 6.155e+003
1266.569, 6.165e+003
1267.779, 6.256e+003
1268.989, 6.192e+003
1270.199, 6.168e+003
1271.408, 6.233e+003
1272.617, 6.235e+003
1273.826, 6.244e+003
1275.035, 6.234e+003
1276.244, 6.273e+003
1277.452, 6.191e+003
1278.661, 6.171e+003
1279.869, 6.176e+003
1281.077, 6.198e+003
1282.285, 6.125e+003
1283.492, 6.193e+003
1284.700, 6.170e+003
1285.907, 6.078e+003
1287.114, 6.159e+003
1288.321, 6.201e+003
1289.527, 6.196e+003
1290.734, 6.218e+003
1291.940, 6.200e+003
1293.146, 6.292e+003
1294.352, 6.300e+003
1295.558, 6.244e+003
1296.763, 6.309e+003
1297.969, 6.215e+003
1299.174, 6.145e+003
1300.379, 6.277e+003
1301.584, 6.227e+003
1302.788, 6.236e+003
1303.993, 6.254e+003
1305.197, 6.233e+003
1306.401, 6.373e+003
1307.605, 6.319e+003
1308.809, 6.373e+003
1310.013, 6.450e+003
1311.216, 6.328e+003
1312.419, 6.365e+003
1313.622, 6.402e+003
1314.825, 6.424e+003
1316.028, 6.449e+003
1317.230, 6.415e+003
1318.432, 6.375e+003
1319.634, 6.462e+003
1320.836, 6.461e+003
1322.038, 6.415e+003
1323.240, 6.460e+003
1324.441, 6.408e+003
1325.642, 6.392e+003
1326.843, 6.378e+003
1328.044, 6.316e+003
1329.245, 6.393e+003
1330.445, 6.384e+003
1331.645, 6.384e+003
1332.845, 6.285e+003
1334.045, 6.376e+003
1335.245, 6.286e+003
1336.445, 6.374e+003
1337.644, 6.345e+003
1338.843, 6.347e+003
1340.042, 6.421e+003
1341.241, 6.384e+003
1342.440, 6.426e+003
1343.638, 6.472e+003
1344.836, 6.377e+003
1346.034, 6.442e+003
1347.232, 6.494e+003
1348.430, 6.362e+003
1349.628, 6.440e+003
1350.825, 6.362e+003
1352.022, 6.457e+003
1353.219, 6.408e+003
1354.416, 6.437e+003
1355.613, 6.406e+003
1356.809, 6.476e+003
1358.005, 6.364e+003
1359.202, 6.438e+003
1360.398, 6.389e+003
1361.593, 6.483e+003
1362.789, 6.470e+003
1363.984, 6.408e+003
1365.179, 6.559e+003
1366.374, 6.478e+003
1367.569, 6.436e+003
1368.764, 6.483e+003
1369.958, 6.544e+003
1371.153, 6.536e+003
1372.347, 6.659e+003
1373.541, 6.584e+003
1374.735, 6.546e+003
1375.928, 6.586e+003
1377.122, 6.599e+003
1378.315, 6.566e+003
1379.508, 6.675e+003
1380.701, 6.702e+003
1381.893, 6.583e+003
1383.086, 6.720e+003
1384.278, 6.624e+003
1385.470, 6.685e+003
1386.662, 6.703e+003
1387.854, 6.596e+003
1389.046, 6.709e+003
1390.237, 6.635e+003
1391.428, 6.650e+003
1392.619, 6.704e+003
1393.810, 6.634e+003
1395.001, 6.646e+003
1396.191, 6.664e+003
1397.382, 6.660e+003
1398.572, 6.765e+003
1399.762, 6.662e+003
1400.952, 6.686e+003
1402.141, 6.712e+003
1403.331, 6.644e+003
1404.520, 6.727e+003
1405.709, 6.705e+003
1406.898, 6.748e+003
1408.087, 6.729e+003
1409.275, 6.769e+003
1410.464, 6.692e+003
1411.652, 6.764e+003
1412.840, 6.834e+003
1414.028, 6.727e+003
1415.215, 6.877e+003
1416.403, 6.761e+003
1417.590, 6.755e+003
1418.777, 6.821e+003
1419.964, 6.876e+003
1421.151, 6.839e+003
1422.338, 6.843e+003
1423.524, 6.856e+003
1424.710, 6.820e+003
1425.896, 6.839e+003
1427.082, 6.898e+003
1428.268, 7.036e+003
1429.453, 6.987e+003
1430.639, 6.962e+003
1431.824, 7.063e+003
1433.009, 7.080e+003
1434.194, 7.119e+003
1435.378, 7.144e+003
1436.563, 7.240e+003
1437.747, 7.388e+003
1438.931, 7.289e+003
1440.115, 7.359e+003
1441.299, 7.544e+003
1442.482, 7.509e+003
1443.666, 7.553e+003
1444.849, 7.609e+003
1446.032, 7.546e+003
1447.215, 7.717e+003
1448.397, 7.656e+003
1449.580, 7.704e+003
1450.762, 7.810e+003
1451.944, 7.689e+003
1453.126, 7.782e+003
1454.308, 7.872e+003
1455.490, 7.744e+003
1456.671, 7.820e+003
1457.852, 7.864e+003
1459.033, 7.762e+003
1460.214, 7.752e+003
1461.395, 7.713e+003
1462.575, 7.585e+003
1463.756, 7.648e+003
1464.936, 7.537e+003
1466.116, 7.573e+003
1467.296, 7.502e+003
1468.475, 7.474e+003
1469.655, 7.427e+003
1470.834, 7.489e+003
1472.013, 7.354e+003
1473.192, 7.469e+003
1474.371, 7.364e+003
1475.550, 7.418e+003
1476.728, 7.337e+003
1477.906, 7.394e+003
1479.084, 7.304e+003
1480.262, 7.411e+003
1481.440, 7.301e+003
1482.617, 7.376e+003
1483.795, 7.420e+003
1484.972, 7.369e+003
1486.149, 7.373e+003
1487.326, 7.333e+003
1488.502, 7.352e+003
1489.679, 7.262e+003
1490.855, 7.266e+003
1492.031, 7.252e+003
1493.207, 7.232e+003
1494.383, 7.203e+003
1495.559, 7.168e+003
1496.734, 7.250e+003
1497.909, 7.264e+003
1499.084, 7.188e+003
1500.259, 7.259e+003
1501.434, 7.282e+003
1502.608, 7.232e+003
1503.783, 7.576e+003
1504.957, 1.810e+002
##END=



