##NAMES=Danburite
##RRUFFID=R040013
##IDEAL CHEMISTRY=CaB_2_Si_2_O_8_
##LOCALITY=Charcas, San Luis Potosi, Mexico
##OWNER=RRUFF
##SOURCE=Marcus Origlieri
##DESCRIPTION=Colorless prismatic single crystal
##STATUS=The identification of this mineral has been confirmed by X-ray diffraction and chemical analysis
##URL=rruff.info/R040013
##MEASURED CHEMISTRY=Ca_1.00_B_2.00_Si_2.00_O_8_
##PIN_ID=M00009
##ORIENTATION=Laser parallel to b* (0 1 0). Fiducial mark perpendicular to laser is parallel to -c [0 0 -1]
26.288, 2.172e+003
27.694, 2.110e+003
29.099, 2.160e+003
30.504, 2.064e+003
31.909, 2.059e+003
33.313, 2.051e+003
34.717, 2.008e+003
36.121, 1.964e+003
37.525, 1.994e+003
38.929, 1.977e+003
40.332, 1.974e+003
41.735, 1.914e+003
43.138, 1.905e+003
44.541, 1.902e+003
45.943, 1.906e+003
47.345, 1.888e+003
48.747, 1.860e+003
50.149, 1.847e+003
51.551, 1.836e+003
52.952, 1.785e+003
54.353, 1.847e+003
55.754, 1.875e+003
57.155, 1.901e+003
58.555, 1.900e+003
59.955, 1.845e+003
61.355, 1.832e+003
62.755, 1.781e+003
64.154, 1.749e+003
65.553, 1.723e+003
66.952, 1.706e+003
68.351, 1.676e+003
69.750, 1.666e+003
71.148, 1.607e+003
72.546, 1.544e+003
73.944, 1.470e+003
75.342, 1.472e+003
76.739, 1.446e+003
78.136, 1.438e+003
79.533, 1.448e+003
80.930, 1.526e+003
82.327, 1.566e+003
83.723, 1.666e+003
85.119, 1.800e+003
86.515, 1.878e+003
87.910, 2.102e+003
89.306, 2.162e+003
90.701, 2.425e+003
92.096, 2.588e+003
93.490, 2.858e+003
94.885, 3.106e+003
96.279, 3.234e+003
97.673, 3.654e+003
99.067, 3.693e+003
100.461, 3.921e+003
101.854, 3.956e+003
103.247, 4.088e+003
104.640, 4.299e+003
106.032, 4.201e+003
107.425, 4.491e+003
108.817, 4.347e+003
110.209, 4.945e+003
111.601, 5.151e+003
112.992, 4.828e+003
114.384, 4.762e+003
115.775, 4.593e+003
117.166, 4.941e+003
118.556, 5.051e+003
119.947, 5.191e+003
121.337, 4.919e+003
122.727, 4.779e+003
124.116, 4.575e+003
125.506, 4.298e+003
126.895, 4.326e+003
128.284, 4.127e+003
129.673, 4.106e+003
131.062, 4.023e+003
132.450, 3.982e+003
133.838, 3.992e+003
135.226, 3.885e+003
136.614, 4.018e+003
138.001, 3.847e+003
139.388, 3.952e+003
140.775, 3.849e+003
142.162, 3.823e+003
143.549, 3.812e+003
144.935, 3.796e+003
146.321, 3.814e+003
147.707, 3.733e+003
149.093, 3.821e+003
150.478, 3.794e+003
151.863, 3.764e+003
153.248, 3.900e+003
154.633, 3.699e+003
156.018, 3.834e+003
157.402, 3.735e+003
158.786, 3.815e+003
160.170, 3.935e+003
161.554, 3.967e+003
162.937, 4.204e+003
164.320, 4.367e+003
165.703, 4.475e+003
167.086, 4.273e+003
168.469, 4.332e+003
169.851, 4.394e+003
171.233, 4.600e+003
172.615, 5.236e+003
173.996, 6.380e+003
175.378, 8.540e+003
176.759, 1.188e+004
178.140, 1.829e+004
179.521, 2.693e+004
180.901, 3.074e+004
182.281, 2.576e+004
183.662, 1.622e+004
185.041, 1.014e+004
186.421, 6.972e+003
187.800, 5.632e+003
189.180, 5.024e+003
190.558, 4.888e+003
191.937, 4.806e+003
193.316, 4.588e+003
194.694, 4.299e+003
196.072, 4.060e+003
197.450, 3.956e+003
198.827, 3.923e+003
200.205, 3.810e+003
201.582, 3.946e+003
202.959, 3.919e+003
204.336, 4.065e+003
205.712, 4.125e+003
207.088, 4.294e+003
208.465, 4.559e+003
209.840, 4.695e+003
211.216, 4.600e+003
212.591, 4.252e+003
213.967, 3.964e+003
215.341, 3.795e+003
216.716, 3.703e+003
218.091, 3.655e+003
219.465, 3.675e+003
220.839, 3.731e+003
222.213, 3.766e+003
223.586, 4.005e+003
224.960, 4.175e+003
226.333, 4.190e+003
227.706, 4.047e+003
229.079, 3.814e+003
230.451, 3.807e+003
231.823, 3.736e+003
233.195, 3.791e+003
234.567, 3.810e+003
235.939, 3.833e+003
237.310, 4.059e+003
238.682, 4.160e+003
240.052, 4.665e+003
241.423, 5.288e+003
242.794, 6.412e+003
244.164, 6.998e+003
245.534, 6.735e+003
246.904, 5.966e+003
248.274, 5.123e+003
249.643, 4.681e+003
251.012, 4.290e+003
252.381, 4.207e+003
253.750, 4.123e+003
255.118, 3.990e+003
256.487, 4.052e+003
257.855, 3.912e+003
259.223, 3.950e+003
260.590, 3.923e+003
261.958, 3.847e+003
263.325, 3.805e+003
264.692, 3.811e+003
266.059, 3.890e+003
267.425, 3.832e+003
268.791, 3.833e+003
270.158, 3.849e+003
271.523, 3.764e+003
272.889, 3.746e+003
274.255, 3.769e+003
275.620, 3.744e+003
276.985, 3.744e+003
278.350, 3.640e+003
279.714, 3.641e+003
281.078, 3.683e+003
282.443, 3.682e+003
283.806, 3.632e+003
285.170, 3.714e+003
286.534, 3.635e+003
287.897, 3.711e+003
289.260, 3.803e+003
290.623, 3.946e+003
291.985, 4.114e+003
293.348, 4.249e+003
294.710, 4.282e+003
296.072, 4.210e+003
297.433, 4.036e+003
298.795, 3.981e+003
300.156, 3.955e+003
301.517, 4.006e+003
302.878, 4.157e+003
304.239, 4.354e+003
305.599, 4.852e+003
306.959, 5.339e+003
308.319, 6.183e+003
309.679, 6.965e+003
311.038, 7.424e+003
312.398, 7.179e+003
313.757, 6.319e+003
315.116, 5.599e+003
316.474, 4.935e+003
317.833, 4.621e+003
319.191, 4.315e+003
320.549, 4.206e+003
321.907, 4.088e+003
323.264, 4.041e+003
324.622, 4.017e+003
325.979, 3.968e+003
327.336, 3.986e+003
328.692, 4.086e+003
330.049, 3.986e+003
331.405, 4.054e+003
332.761, 4.098e+003
334.117, 4.189e+003
335.473, 4.208e+003
336.828, 4.405e+003
338.183, 4.702e+003
339.538, 5.132e+003
340.893, 5.972e+003
342.247, 7.245e+003
343.602, 9.457e+003
344.956, 1.252e+004
346.310, 1.463e+004
347.663, 1.439e+004
349.017, 1.141e+004
350.370, 8.467e+003
351.723, 6.565e+003
353.076, 5.528e+003
354.428, 4.825e+003
355.780, 4.417e+003
357.133, 4.284e+003
358.484, 4.084e+003
359.836, 3.956e+003
361.188, 3.925e+003
362.539, 3.879e+003
363.890, 3.869e+003
365.241, 3.808e+003
366.591, 3.792e+003
367.942, 3.723e+003
369.292, 3.751e+003
370.642, 3.750e+003
371.992, 3.732e+003
373.341, 3.727e+003
374.691, 3.663e+003
376.040, 3.692e+003
377.388, 3.710e+003
378.737, 3.685e+003
380.086, 3.751e+003
381.434, 3.681e+003
382.782, 3.754e+003
384.130, 3.743e+003
385.477, 3.794e+003
386.825, 3.765e+003
388.172, 3.841e+003
389.519, 3.897e+003
390.865, 3.915e+003
392.212, 3.850e+003
393.558, 3.881e+003
394.904, 3.874e+003
396.250, 3.861e+003
397.596, 3.840e+003
398.941, 3.852e+003
400.286, 3.835e+003
401.631, 3.841e+003
402.976, 3.820e+003
404.321, 3.792e+003
405.665, 3.798e+003
407.009, 3.802e+003
408.353, 3.823e+003
409.697, 3.871e+003
411.040, 3.871e+003
412.384, 3.845e+003
413.727, 3.902e+003
415.070, 4.001e+003
416.412, 4.023e+003
417.755, 4.127e+003
419.097, 4.247e+003
420.439, 4.382e+003
421.781, 4.609e+003
423.122, 4.653e+003
424.464, 4.669e+003
425.805, 4.449e+003
427.146, 4.289e+003
428.486, 4.127e+003
429.827, 4.006e+003
431.167, 3.970e+003
432.507, 3.972e+003
433.847, 4.030e+003
435.187, 4.112e+003
436.526, 4.297e+003
437.865, 4.645e+003
439.204, 4.822e+003
440.543, 4.900e+003
441.882, 4.734e+003
443.220, 4.427e+003
444.558, 4.210e+003
445.896, 4.062e+003
447.234, 4.058e+003
448.572, 3.933e+003
449.909, 3.951e+003
451.246, 3.965e+003
452.583, 4.002e+003
453.919, 4.090e+003
455.256, 4.131e+003
456.592, 4.242e+003
457.928, 4.352e+003
459.264, 4.281e+003
460.600, 4.325e+003
461.935, 4.320e+003
463.270, 4.316e+003
464.605, 4.347e+003
465.940, 4.420e+003
467.274, 4.578e+003
468.609, 4.744e+003
469.943, 5.024e+003
471.277, 5.484e+003
472.610, 6.453e+003
473.944, 8.131e+003
475.277, 1.102e+004
476.610, 1.580e+004
477.943, 2.125e+004
479.275, 2.282e+004
480.608, 1.944e+004
481.940, 1.389e+004
483.272, 9.728e+003
484.604, 7.475e+003
485.935, 6.198e+003
487.267, 5.583e+003
488.598, 5.054e+003
489.929, 4.922e+003
491.260, 4.689e+003
492.590, 4.543e+003
493.920, 4.399e+003
495.250, 4.367e+003
496.580, 4.386e+003
497.910, 4.260e+003
499.239, 4.267e+003
500.569, 4.212e+003
501.898, 4.242e+003
503.226, 4.229e+003
504.555, 4.203e+003
505.883, 4.260e+003
507.212, 4.201e+003
508.540, 4.170e+003
509.867, 4.273e+003
511.195, 4.158e+003
512.522, 4.295e+003
513.849, 4.222e+003
515.176, 4.236e+003
516.503, 4.304e+003
517.829, 4.240e+003
519.156, 4.253e+003
520.482, 4.276e+003
521.808, 4.258e+003
523.133, 4.310e+003
524.459, 4.262e+003
525.784, 4.242e+003
527.109, 4.327e+003
528.434, 4.274e+003
529.758, 4.283e+003
531.083, 4.295e+003
532.407, 4.313e+003
533.731, 4.230e+003
535.055, 4.342e+003
536.378, 4.301e+003
537.701, 4.287e+003
539.025, 4.255e+003
540.348, 4.276e+003
541.670, 4.280e+003
542.993, 4.276e+003
544.315, 4.248e+003
545.637, 4.370e+003
546.959, 4.339e+003
548.281, 4.459e+003
549.602, 4.391e+003
550.923, 4.495e+003
552.244, 4.543e+003
553.565, 4.549e+003
554.886, 4.626e+003
556.206, 4.673e+003
557.526, 4.925e+003
558.846, 5.141e+003
560.166, 5.479e+003
561.486, 5.679e+003
562.805, 5.456e+003
564.124, 5.157e+003
565.443, 4.922e+003
566.762, 4.723e+003
568.080, 4.730e+003
569.399, 4.711e+003
570.717, 4.756e+003
572.035, 4.812e+003
573.352, 4.705e+003
574.670, 4.809e+003
575.987, 4.851e+003
577.304, 4.879e+003
578.621, 4.910e+003
579.938, 5.936e+003
581.254, 5.248e+003
582.570, 5.201e+003
583.886, 5.388e+003
585.202, 5.524e+003
586.518, 5.625e+003
587.833, 5.832e+003
589.148, 5.888e+003
590.463, 6.140e+003
591.778, 6.376e+003
593.093, 6.594e+003
594.407, 7.069e+003
595.721, 7.510e+003
597.035, 8.274e+003
598.349, 9.129e+003
599.662, 1.041e+004
600.976, 1.228e+004
602.289, 1.494e+004
603.602, 1.917e+004
604.914, 2.537e+004
606.227, 3.426e+004
607.539, 4.336e+004
608.851, 4.839e+004
610.163, 4.613e+004
611.475, 3.791e+004
612.786, 2.968e+004
614.097, 2.279e+004
615.408, 1.734e+004
616.719, 1.464e+004
618.030, 1.246e+004
619.340, 1.101e+004
620.651, 1.042e+004
621.961, 1.017e+004
623.270, 1.071e+004
624.580, 1.108e+004
625.889, 1.199e+004
627.199, 1.201e+004
628.507, 1.100e+004
629.816, 9.883e+003
631.125, 8.535e+003
632.433, 7.768e+003
633.741, 7.182e+003
635.049, 6.680e+003
636.357, 6.638e+003
637.664, 6.299e+003
638.972, 6.310e+003
640.279, 6.155e+003
641.586, 6.223e+003
642.893, 6.382e+003
644.199, 6.148e+003
645.505, 6.289e+003
646.811, 6.233e+003
648.117, 6.070e+003
649.423, 6.174e+003
650.728, 5.947e+003
652.034, 5.977e+003
653.339, 5.818e+003
654.644, 5.618e+003
655.948, 5.682e+003
657.253, 5.350e+003
658.557, 5.234e+003
659.861, 5.196e+003
661.165, 5.079e+003
662.468, 5.076e+003
663.772, 4.954e+003
665.075, 4.987e+003
666.378, 4.872e+003
667.681, 4.878e+003
668.983, 4.896e+003
670.286, 4.801e+003
671.588, 4.889e+003
672.890, 4.832e+003
674.192, 4.810e+003
675.493, 4.816e+003
676.795, 4.741e+003
678.096, 4.693e+003
679.397, 4.728e+003
680.697, 4.653e+003
681.998, 4.724e+003
683.298, 4.689e+003
684.598, 4.711e+003
685.898, 4.675e+003
687.198, 4.670e+003
688.498, 4.760e+003
689.797, 4.701e+003
691.096, 4.766e+003
692.395, 4.678e+003
693.694, 4.742e+003
694.992, 4.679e+003
696.290, 4.796e+003
697.589, 4.731e+003
698.886, 4.679e+003
700.184, 4.772e+003
701.482, 4.748e+003
702.779, 4.686e+003
704.076, 4.717e+003
705.373, 4.687e+003
706.669, 4.687e+003
707.966, 4.693e+003
709.262, 4.734e+003
710.558, 4.769e+003
711.854, 4.739e+003
713.150, 4.768e+003
714.445, 4.753e+003
715.740, 4.764e+003
717.035, 4.877e+003
718.330, 4.771e+003
719.625, 4.787e+003
720.919, 4.822e+003
722.214, 4.817e+003
723.508, 4.851e+003
724.801, 4.814e+003
726.095, 4.900e+003
727.388, 4.954e+003
728.682, 4.885e+003
729.975, 5.066e+003
731.267, 4.982e+003
732.560, 4.974e+003
733.852, 5.029e+003
735.145, 4.888e+003
736.437, 5.006e+003
737.728, 4.977e+003
739.020, 4.942e+003
740.311, 5.063e+003
741.603, 4.892e+003
742.894, 5.010e+003
744.184, 4.909e+003
745.475, 5.017e+003
746.765, 5.118e+003
748.055, 4.983e+003
749.345, 5.068e+003
750.635, 5.094e+003
751.925, 5.001e+003
753.214, 5.134e+003
754.503, 5.017e+003
755.792, 5.035e+003
757.081, 5.068e+003
758.370, 5.095e+003
759.658, 5.182e+003
760.946, 5.152e+003
762.234, 5.194e+003
763.522, 5.229e+003
764.809, 5.202e+003
766.097, 5.326e+003
767.384, 5.287e+003
768.671, 5.326e+003
769.958, 5.484e+003
771.244, 5.432e+003
772.530, 5.684e+003
773.817, 5.460e+003
775.102, 5.480e+003
776.388, 5.466e+003
777.674, 5.239e+003
778.959, 5.364e+003
780.244, 5.263e+003
781.529, 5.252e+003
782.814, 5.259e+003
784.098, 5.188e+003
785.383, 5.297e+003
786.667, 5.348e+003
787.951, 5.294e+003
789.235, 5.349e+003
790.518, 5.263e+003
791.801, 5.447e+003
793.084, 5.400e+003
794.367, 5.346e+003
795.650, 5.460e+003
796.933, 5.307e+003
798.215, 5.482e+003
799.497, 5.426e+003
800.779, 5.352e+003
802.061, 5.443e+003
803.342, 5.317e+003
804.624, 5.424e+003
805.905, 5.436e+003
807.186, 5.393e+003
808.466, 5.462e+003
809.747, 5.331e+003
811.027, 5.421e+003
812.307, 5.481e+003
813.587, 5.405e+003
814.867, 5.474e+003
816.146, 5.426e+003
817.426, 5.558e+003
818.705, 5.639e+003
819.984, 5.484e+003
821.263, 5.596e+003
822.541, 5.580e+003
823.819, 5.579e+003
825.098, 5.629e+003
826.375, 5.601e+003
827.653, 5.805e+003
828.931, 5.696e+003
830.208, 5.696e+003
831.485, 5.711e+003
832.762, 5.651e+003
834.039, 5.774e+003
835.315, 5.689e+003
836.592, 5.747e+003
837.868, 5.888e+003
839.144, 5.853e+003
840.420, 5.940e+003
841.695, 6.054e+003
842.970, 5.994e+003
844.246, 6.107e+003
845.521, 5.974e+003
846.795, 6.136e+003
848.070, 6.340e+003
849.344, 6.172e+003
850.618, 6.268e+003
851.892, 6.286e+003
853.166, 6.349e+003
854.440, 6.606e+003
855.713, 6.436e+003
856.986, 6.721e+003
858.259, 6.804e+003
859.532, 6.792e+003
860.804, 6.983e+003
862.077, 6.823e+003
863.349, 6.815e+003
864.621, 6.714e+003
865.893, 6.447e+003
867.164, 6.507e+003
868.436, 6.305e+003
869.707, 6.440e+003
870.978, 6.425e+003
872.248, 6.184e+003
873.519, 6.414e+003
874.789, 6.164e+003
876.060, 6.336e+003
877.330, 6.266e+003
878.599, 6.259e+003
879.869, 6.402e+003
881.138, 6.159e+003
882.408, 6.276e+003
883.677, 6.387e+003
884.945, 6.142e+003
886.214, 6.292e+003
887.482, 6.310e+003
888.751, 6.262e+003
890.019, 6.406e+003
891.287, 6.401e+003
892.554, 6.530e+003
893.822, 6.549e+003
895.089, 6.549e+003
896.356, 6.774e+003
897.623, 6.651e+003
898.889, 6.682e+003
900.156, 6.751e+003
901.422, 6.568e+003
902.688, 6.655e+003
903.954, 6.536e+003
905.220, 6.563e+003
906.485, 6.536e+003
907.750, 6.485e+003
909.015, 6.533e+003
910.280, 6.506e+003
911.545, 6.530e+003
912.809, 6.634e+003
914.074, 6.366e+003
915.338, 6.486e+003
916.602, 6.313e+003
917.865, 6.267e+003
919.129, 6.346e+003
920.392, 6.128e+003
921.655, 6.109e+003
922.918, 6.160e+003
924.181, 6.041e+003
925.443, 6.230e+003
926.706, 6.152e+003
927.968, 6.144e+003
929.230, 6.178e+003
930.491, 6.096e+003
931.753, 6.243e+003
933.014, 6.158e+003
934.276, 6.158e+003
935.536, 6.245e+003
936.797, 6.192e+003
938.058, 6.260e+003
939.318, 6.302e+003
940.578, 6.255e+003
941.838, 6.489e+003
943.098, 6.387e+003
944.358, 6.513e+003
945.617, 6.662e+003
946.876, 6.659e+003
948.135, 6.828e+003
949.394, 6.749e+003
950.653, 6.690e+003
951.911, 6.765e+003
953.169, 6.441e+003
954.427, 6.626e+003
955.685, 6.523e+003
956.943, 6.318e+003
958.200, 6.481e+003
959.458, 6.317e+003
960.715, 6.386e+003
961.971, 6.369e+003
963.228, 6.342e+003
964.485, 6.586e+003
965.741, 6.439e+003
966.997, 6.482e+003
968.253, 6.731e+003
969.508, 6.785e+003
970.764, 7.104e+003
972.019, 7.116e+003
973.274, 7.005e+003
974.529, 7.086e+003
975.784, 6.555e+003
977.039, 6.568e+003
978.293, 6.358e+003
979.547, 6.250e+003
980.801, 6.384e+003
982.055, 6.370e+003
983.308, 6.432e+003
984.562, 6.436e+003
985.815, 6.404e+003
987.068, 6.505e+003
988.321, 6.425e+003
989.573, 6.464e+003
990.826, 6.514e+003
992.078, 6.497e+003
993.330, 6.543e+003
994.582, 6.572e+003
995.833, 6.581e+003
997.085, 6.913e+003
998.336, 7.040e+003
999.587, 7.503e+003
1000.838, 8.030e+003
1002.088, 7.718e+003
1003.339, 7.346e+003
1004.589, 6.946e+003
1005.839, 6.679e+003
1007.089, 6.582e+003
1008.339, 6.300e+003
1009.588, 6.455e+003
1010.838, 6.388e+003
1012.087, 6.303e+003
1013.336, 6.534e+003
1014.584, 6.329e+003
1015.833, 6.420e+003
1017.081, 6.679e+003
1018.330, 6.624e+003
1019.577, 6.868e+003
1020.825, 6.824e+003
1022.073, 6.750e+003
1023.320, 6.863e+003
1024.567, 6.720e+003
1025.814, 6.745e+003
1027.061, 6.735e+003
1028.308, 6.582e+003
1029.554, 6.645e+003
1030.800, 6.535e+003
1032.046, 6.448e+003
1033.292, 6.567e+003
1034.538, 6.462e+003
1035.783, 6.538e+003
1037.029, 6.552e+003
1038.274, 6.558e+003
1039.519, 6.741e+003
1040.763, 6.596e+003
1042.008, 6.557e+003
1043.252, 6.588e+003
1044.496, 6.455e+003
1045.740, 6.494e+003
1046.984, 6.557e+003
1048.228, 6.457e+003
1049.471, 6.533e+003
1050.714, 6.459e+003
1051.957, 6.477e+003
1053.200, 6.519e+003
1054.442, 6.360e+003
1055.685, 6.549e+003
1056.927, 6.387e+003
1058.169, 6.359e+003
1059.411, 6.487e+003
1060.652, 6.340e+003
1061.894, 6.468e+003
1063.135, 6.377e+003
1064.376, 6.336e+003
1065.617, 6.558e+003
1066.858, 6.416e+003
1068.098, 6.488e+003
1069.339, 6.600e+003
1070.579, 6.483e+003
1071.819, 6.782e+003
1073.058, 6.676e+003
1074.298, 6.664e+003
1075.537, 6.861e+003
1076.776, 6.799e+003
1078.015, 6.977e+003
1079.254, 7.084e+003
1080.493, 6.978e+003
1081.731, 7.272e+003
1082.969, 7.268e+003
1084.207, 7.217e+003
1085.445, 7.355e+003
1086.683, 7.110e+003
1087.920, 7.238e+003
1089.157, 7.304e+003
1090.394, 7.204e+003
1091.631, 7.329e+003
1092.868, 7.349e+003
1094.105, 7.435e+003
1095.341, 7.596e+003
1096.577, 7.649e+003
1097.813, 7.920e+003
1099.049, 8.072e+003
1100.284, 8.099e+003
1101.519, 8.556e+003
1102.755, 8.518e+003
1103.990, 8.803e+003
1105.224, 8.844e+003
1106.459, 8.859e+003
1107.693, 8.931e+003
1108.928, 8.630e+003
1110.162, 8.503e+003
1111.395, 8.365e+003
1112.629, 8.028e+003
1113.863, 7.921e+003
1115.096, 7.735e+003
1116.329, 7.457e+003
1117.562, 7.644e+003
1118.795, 7.350e+003
1120.027, 7.250e+003
1121.259, 7.457e+003
1122.492, 7.209e+003
1123.723, 7.203e+003
1124.955, 7.123e+003
1126.187, 6.983e+003
1127.418, 7.187e+003
1128.649, 6.932e+003
1129.880, 6.983e+003
1131.111, 7.007e+003
1132.342, 6.872e+003
1133.572, 6.967e+003
1134.802, 6.877e+003
1136.033, 6.848e+003
1137.262, 6.951e+003
1138.492, 6.647e+003
1139.722, 6.683e+003
1140.951, 6.774e+003
1142.180, 6.598e+003
1143.409, 6.732e+003
1144.638, 6.670e+003
1145.866, 6.611e+003
1147.095, 6.706e+003
1148.323, 6.608e+003
1149.551, 6.727e+003
1150.779, 6.743e+003
1152.006, 6.620e+003
1153.234, 6.833e+003
1154.461, 6.730e+003
1155.688, 6.662e+003
1156.915, 6.751e+003
1158.141, 6.667e+003
1159.368, 6.864e+003
1160.594, 6.928e+003
1161.820, 6.736e+003
1163.046, 6.900e+003
1164.272, 6.845e+003
1165.498, 6.770e+003
1166.723, 6.917e+003
1167.948, 6.739e+003
1169.173, 6.955e+003
1170.398, 6.973e+003
1171.623, 6.800e+003
1172.847, 7.001e+003
1174.071, 6.947e+003
1175.295, 6.788e+003
1176.519, 7.044e+003
1177.743, 6.878e+003
1178.966, 6.944e+003
1180.190, 7.020e+003
1181.413, 6.842e+003
1182.636, 7.038e+003
1183.858, 6.980e+003
1185.081, 6.881e+003
1186.303, 7.040e+003
1187.526, 6.914e+003
1188.748, 6.963e+003
1189.969, 6.987e+003
1191.191, 6.883e+003
1192.412, 6.882e+003
1193.634, 6.905e+003
1194.855, 6.912e+003
1196.076, 6.938e+003
1197.296, 6.876e+003
1198.517, 6.961e+003
1199.737, 7.077e+003
1200.957, 6.913e+003
1202.177, 7.048e+003
1203.397, 6.936e+003
1204.617, 6.843e+003
1205.836, 7.037e+003
1207.055, 6.876e+003
1208.274, 6.958e+003
1209.493, 6.966e+003
1210.712, 6.878e+003
1211.930, 7.101e+003
1213.148, 7.063e+003
1214.367, 6.973e+003
1215.584, 7.234e+003
1216.802, 7.007e+003
1218.020, 7.065e+003
1219.237, 7.143e+003
1220.454, 6.915e+003
1221.671, 7.054e+003
1222.888, 7.003e+003
1224.105, 7.014e+003
1225.321, 7.075e+003
1226.537, 7.022e+003
1227.753, 7.079e+003
1228.969, 7.134e+003
1230.185, 6.959e+003
1231.400, 7.216e+003
1232.616, 7.259e+003
1233.831, 7.164e+003
1235.046, 7.376e+003
1236.261, 7.353e+003
1237.475, 7.322e+003
1238.689, 7.541e+003
1239.904, 7.275e+003
1241.118, 7.419e+003
1242.332, 7.387e+003
1243.545, 7.267e+003
1244.759, 7.542e+003
1245.972, 7.403e+003
1247.185, 7.369e+003
1248.398, 7.612e+003
1249.611, 7.408e+003
1250.823, 7.478e+003
1252.036, 7.433e+003
1253.248, 7.257e+003
1254.460, 7.440e+003
1255.671, 7.395e+003
1256.883, 7.343e+003
1258.095, 7.545e+003
1259.306, 7.284e+003
1260.517, 7.506e+003
1261.728, 7.632e+003
1262.938, 7.338e+003
1264.149, 7.655e+003
1265.359, 7.566e+003
1266.569, 7.590e+003
1267.779, 7.859e+003
1268.989, 7.669e+003
1270.199, 7.735e+003
1271.408, 7.898e+003
1272.617, 7.580e+003
1273.826, 7.888e+003
1275.035, 7.719e+003
1276.244, 7.667e+003
1277.452, 7.798e+003
1278.661, 7.467e+003
1279.869, 7.465e+003
1281.077, 7.598e+003
1282.285, 7.363e+003
1283.492, 7.483e+003
1284.700, 7.525e+003
1285.907, 7.406e+003
1287.114, 7.602e+003
1288.321, 7.469e+003
1289.527, 7.527e+003
1290.734, 7.708e+003
1291.940, 7.607e+003
1293.146, 7.730e+003
1294.352, 7.794e+003
1295.558, 7.536e+003
1296.763, 7.705e+003
1297.969, 7.682e+003
1299.174, 7.582e+003
1300.379, 7.705e+003
1301.584, 7.566e+003
1302.788, 7.630e+003
1303.993, 7.808e+003
1305.197, 7.652e+003
1306.401, 7.859e+003
1307.605, 7.860e+003
1308.809, 7.758e+003
1310.013, 8.102e+003
1311.216, 7.885e+003
1312.419, 7.838e+003
1313.622, 8.108e+003
1314.825, 7.850e+003
1316.028, 8.014e+003
1317.230, 8.038e+003
1318.432, 7.949e+003
1319.634, 8.169e+003
1320.836, 8.056e+003
1322.038, 7.898e+003
1323.240, 8.032e+003
1324.441, 7.838e+003
1325.642, 7.839e+003
1326.843, 7.764e+003
1328.044, 7.627e+003
1329.245, 7.696e+003
1330.445, 7.585e+003
1331.645, 7.514e+003
1332.845, 7.656e+003
1334.045, 7.471e+003
1335.245, 7.409e+003
1336.445, 7.569e+003
1337.644, 7.455e+003
1338.843, 7.457e+003
1340.042, 7.457e+003
1341.241, 7.363e+003
1342.440, 7.534e+003
1343.638, 7.560e+003
1344.836, 7.515e+003
1346.034, 7.575e+003
1347.232, 7.595e+003
1348.430, 7.460e+003
1349.628, 7.606e+003
1350.825, 7.441e+003
1352.022, 7.603e+003
1353.219, 7.576e+003
1354.416, 7.417e+003
1355.613, 7.585e+003
1356.809, 7.466e+003
1358.005, 7.390e+003
1359.202, 7.566e+003
1360.398, 7.450e+003
1361.593, 7.536e+003
1362.789, 7.613e+003
1363.984, 7.428e+003
1365.179, 7.638e+003
1366.374, 7.644e+003
1367.569, 7.524e+003
1368.764, 7.730e+003
1369.958, 7.751e+003
1371.153, 7.644e+003
1372.347, 7.733e+003
1373.541, 7.660e+003
1374.735, 7.674e+003
1375.928, 7.866e+003
1377.122, 7.691e+003
1378.315, 7.860e+003
1379.508, 7.860e+003
1380.701, 7.733e+003
1381.893, 7.859e+003
1383.086, 7.915e+003
1384.278, 7.786e+003
1385.470, 7.911e+003
1386.662, 7.709e+003
1387.854, 7.781e+003
1389.046, 7.881e+003
1390.237, 7.769e+003
1391.428, 7.865e+003
1392.619, 7.785e+003
1393.810, 7.690e+003
1395.001, 7.822e+003
1396.191, 7.746e+003
1397.382, 7.644e+003
1398.572, 7.833e+003
1399.762, 7.610e+003
1400.952, 7.819e+003
1402.141, 7.836e+003
1403.331, 7.618e+003
1404.520, 7.764e+003
1405.709, 7.816e+003
1406.898, 7.872e+003
1408.087, 7.867e+003
1409.275, 7.782e+003
1410.464, 7.848e+003
1411.652, 7.944e+003
1412.840, 7.820e+003
1414.028, 7.812e+003
1415.215, 7.907e+003
1416.403, 7.788e+003
1417.590, 7.915e+003
1418.777, 7.897e+003
1419.964, 7.839e+003
1421.151, 7.983e+003
1422.338, 7.953e+003
1423.524, 7.890e+003
1424.710, 8.058e+003
1425.896, 7.940e+003
1427.082, 8.055e+003
1428.268, 8.260e+003
1429.453, 8.094e+003
1430.639, 8.314e+003
1431.824, 8.263e+003
1433.009, 8.310e+003
1434.194, 8.564e+003
1435.378, 8.471e+003
1436.563, 8.802e+003
1437.747, 9.111e+003
1438.931, 9.036e+003
1440.115, 9.280e+003
1441.299, 9.590e+003
1442.482, 9.425e+003
1443.666, 9.755e+003
1444.849, 9.719e+003
1446.032, 9.582e+003
1447.215, 1.000e+004
1448.397, 9.917e+003
1449.580, 9.930e+003
1450.762, 1.031e+004
1451.944, 9.965e+003
1453.126, 1.027e+004
1454.308, 1.032e+004
1455.490, 9.914e+003
1456.671, 1.028e+004
1457.852, 1.009e+004
1459.033, 9.995e+003
1460.214, 1.012e+004
1461.395, 9.733e+003
1462.575, 9.617e+003
1463.756, 9.754e+003
1464.936, 9.361e+003
1466.116, 9.350e+003
1467.296, 9.243e+003
1468.475, 9.030e+003
1469.655, 9.040e+003
1470.834, 9.077e+003
1472.013, 8.733e+003
1473.192, 9.017e+003
1474.371, 8.731e+003
1475.550, 8.797e+003
1476.728, 8.820e+003
1477.906, 8.786e+003
1479.084, 8.757e+003
1480.262, 8.865e+003
1481.440, 8.680e+003
1482.617, 8.766e+003
1483.795, 8.819e+003
1484.972, 8.572e+003
1486.149, 8.627e+003
1487.326, 8.418e+003
1488.502, 8.432e+003
1489.679, 8.433e+003
1490.855, 8.306e+003
1492.031, 8.286e+003
1493.207, 8.241e+003
1494.383, 8.190e+003
1495.559, 8.193e+003
1496.734, 8.225e+003
1497.909, 8.086e+003
1499.084, 8.116e+003
1500.259, 8.150e+003
1501.434, 8.093e+003
1502.608, 8.118e+003
1503.783, 8.439e+003
1504.957, 1.910e+002
##END=



