##NAMES=Danburite
##RRUFFID=R040013
##IDEAL CHEMISTRY=CaB_2_Si_2_O_8_
##LOCALITY=Charcas, San Luis Potosi, Mexico
##OWNER=RRUFF
##SOURCE=Marcus Origlieri
##DESCRIPTION=Colorless prismatic single crystal
##STATUS=The identification of this mineral has been confirmed by X-ray diffraction and chemical analysis
##URL=rruff.info/R040013
##MEASURED CHEMISTRY=Ca_1.00_B_2.00_Si_2.00_O_8_
##PIN_ID=M00010
##ORIENTATION=Laser parallel to a* (1 0 0). Fiducial mark perpendicular to laser is parallel to b [0 1 0]
26.288, 8.320e+002
27.694, 8.190e+002
29.099, 8.380e+002
30.504, 8.240e+002
31.909, 8.260e+002
33.313, 8.230e+002
34.717, 8.210e+002
36.121, 7.950e+002
37.525, 7.750e+002
38.929, 8.010e+002
40.332, 7.990e+002
41.735, 7.950e+002
43.138, 7.520e+002
44.541, 7.650e+002
45.943, 7.550e+002
47.345, 7.370e+002
48.747, 7.360e+002
50.149, 7.200e+002
51.551, 7.090e+002
52.952, 7.130e+002
54.353, 6.790e+002
55.754, 6.860e+002
57.155, 6.900e+002
58.555, 6.790e+002
59.955, 6.630e+002
61.355, 6.670e+002
62.755, 6.630e+002
64.154, 6.520e+002
65.553, 6.490e+002
66.952, 6.620e+002
68.351, 6.470e+002
69.750, 6.740e+002
71.148, 6.820e+002
72.546, 6.760e+002
73.944, 6.860e+002
75.342, 6.940e+002
76.739, 6.740e+002
78.136, 6.770e+002
79.533, 6.980e+002
80.930, 7.540e+002
82.327, 7.640e+002
83.723, 7.520e+002
85.119, 7.450e+002
86.515, 7.680e+002
87.910, 7.970e+002
89.306, 8.010e+002
90.701, 8.090e+002
92.096, 8.350e+002
93.490, 8.540e+002
94.885, 8.650e+002
96.279, 8.760e+002
97.673, 8.970e+002
99.067, 9.160e+002
100.461, 9.460e+002
101.854, 9.700e+002
103.247, 9.750e+002
104.640, 1.023e+003
106.032, 1.035e+003
107.425, 1.093e+003
108.817, 1.136e+003
110.209, 1.254e+003
111.601, 2.079e+003
112.992, 4.722e+003
114.384, 2.945e+003
115.775, 1.564e+003
117.166, 1.578e+003
118.556, 1.767e+003
119.947, 2.271e+003
121.337, 3.196e+003
122.727, 4.047e+003
124.116, 4.198e+003
125.506, 4.038e+003
126.895, 4.504e+003
128.284, 4.468e+003
129.673, 3.497e+003
131.062, 2.417e+003
132.450, 1.857e+003
133.838, 1.577e+003
135.226, 1.549e+003
136.614, 1.643e+003
138.001, 1.711e+003
139.388, 1.566e+003
140.775, 1.431e+003
142.162, 1.324e+003
143.549, 1.328e+003
144.935, 1.377e+003
146.321, 1.499e+003
147.707, 1.849e+003
149.093, 2.415e+003
150.478, 2.705e+003
151.863, 2.187e+003
153.248, 1.679e+003
154.633, 1.470e+003
156.018, 1.423e+003
157.402, 1.408e+003
158.786, 1.675e+003
160.170, 1.997e+003
161.554, 2.673e+003
162.937, 4.297e+003
164.320, 5.644e+003
165.703, 4.648e+003
167.086, 2.868e+003
168.469, 1.942e+003
169.851, 1.569e+003
171.233, 1.470e+003
172.615, 1.498e+003
173.996, 1.623e+003
175.378, 1.940e+003
176.759, 2.437e+003
178.140, 3.323e+003
179.521, 4.439e+003
180.901, 4.668e+003
182.281, 3.749e+003
183.662, 2.639e+003
185.041, 2.079e+003
186.421, 1.820e+003
187.800, 1.878e+003
189.180, 1.956e+003
190.558, 2.076e+003
191.937, 2.033e+003
193.316, 1.868e+003
194.694, 1.771e+003
196.072, 1.809e+003
197.450, 2.043e+003
198.827, 2.505e+003
200.205, 3.398e+003
201.582, 4.569e+003
202.959, 5.040e+003
204.336, 4.180e+003
205.712, 3.232e+003
207.088, 2.826e+003
208.465, 3.060e+003
209.840, 3.209e+003
211.216, 2.811e+003
212.591, 2.199e+003
213.967, 1.786e+003
215.341, 1.543e+003
216.716, 1.420e+003
218.091, 1.337e+003
219.465, 1.350e+003
220.839, 1.349e+003
222.213, 1.383e+003
223.586, 1.500e+003
224.960, 1.578e+003
226.333, 1.584e+003
227.706, 1.476e+003
229.079, 1.356e+003
230.451, 1.387e+003
231.823, 1.370e+003
233.195, 1.431e+003
234.567, 1.520e+003
235.939, 1.694e+003
237.310, 1.977e+003
238.682, 2.481e+003
240.052, 3.311e+003
241.423, 4.758e+003
242.794, 6.686e+003
244.164, 7.460e+003
245.534, 6.722e+003
246.904, 4.970e+003
248.274, 3.495e+003
249.643, 2.627e+003
251.012, 2.181e+003
252.381, 1.918e+003
253.750, 1.769e+003
255.118, 1.646e+003
256.487, 1.539e+003
257.855, 1.510e+003
259.223, 1.443e+003
260.590, 1.412e+003
261.958, 1.357e+003
263.325, 1.364e+003
264.692, 1.347e+003
266.059, 1.410e+003
267.425, 1.397e+003
268.791, 1.365e+003
270.158, 1.386e+003
271.523, 1.386e+003
272.889, 1.435e+003
274.255, 1.524e+003
275.620, 1.596e+003
276.985, 1.634e+003
278.350, 1.569e+003
279.714, 1.443e+003
281.078, 1.388e+003
282.443, 1.350e+003
283.806, 1.294e+003
285.170, 1.314e+003
286.534, 1.319e+003
287.897, 1.375e+003
289.260, 1.408e+003
290.623, 1.502e+003
291.985, 1.580e+003
293.348, 1.682e+003
294.710, 1.728e+003
296.072, 1.673e+003
297.433, 1.591e+003
298.795, 1.586e+003
300.156, 1.689e+003
301.517, 1.892e+003
302.878, 2.248e+003
304.239, 2.459e+003
305.599, 2.418e+003
306.959, 2.395e+003
308.319, 2.502e+003
309.679, 2.796e+003
311.038, 2.839e+003
312.398, 2.564e+003
313.757, 2.191e+003
315.116, 1.885e+003
316.474, 1.692e+003
317.833, 1.582e+003
319.191, 1.482e+003
320.549, 1.432e+003
321.907, 1.396e+003
323.264, 1.377e+003
324.622, 1.357e+003
325.979, 1.405e+003
327.336, 1.444e+003
328.692, 1.466e+003
330.049, 1.440e+003
331.405, 1.484e+003
332.761, 1.474e+003
334.117, 1.537e+003
335.473, 1.582e+003
336.828, 1.639e+003
338.183, 1.808e+003
339.538, 2.064e+003
340.893, 2.499e+003
342.247, 3.341e+003
343.602, 4.508e+003
344.956, 6.292e+003
346.310, 7.156e+003
347.663, 6.469e+003
349.017, 4.915e+003
350.370, 3.533e+003
351.723, 2.712e+003
353.076, 2.222e+003
354.428, 1.907e+003
355.780, 1.734e+003
357.133, 1.645e+003
358.484, 1.579e+003
359.836, 1.500e+003
361.188, 1.502e+003
362.539, 1.443e+003
363.890, 1.463e+003
365.241, 1.409e+003
366.591, 1.411e+003
367.942, 1.414e+003
369.292, 1.387e+003
370.642, 1.419e+003
371.992, 1.403e+003
373.341, 1.396e+003
374.691, 1.382e+003
376.040, 1.384e+003
377.388, 1.393e+003
378.737, 1.390e+003
380.086, 1.416e+003
381.434, 1.415e+003
382.782, 1.425e+003
384.130, 1.417e+003
385.477, 1.459e+003
386.825, 1.490e+003
388.172, 1.543e+003
389.519, 1.639e+003
390.865, 1.798e+003
392.212, 1.942e+003
393.558, 2.024e+003
394.904, 1.942e+003
396.250, 1.732e+003
397.596, 1.622e+003
398.941, 1.533e+003
400.286, 1.498e+003
401.631, 1.508e+003
402.976, 1.528e+003
404.321, 1.546e+003
405.665, 1.551e+003
407.009, 1.547e+003
408.353, 1.515e+003
409.697, 1.544e+003
411.040, 1.550e+003
412.384, 1.561e+003
413.727, 1.627e+003
415.070, 1.661e+003
416.412, 1.779e+003
417.755, 1.907e+003
419.097, 2.075e+003
420.439, 2.291e+003
421.781, 2.504e+003
423.122, 2.593e+003
424.464, 2.565e+003
425.805, 2.357e+003
427.146, 2.058e+003
428.486, 1.853e+003
429.827, 1.712e+003
431.167, 1.662e+003
432.507, 1.610e+003
433.847, 1.594e+003
435.187, 1.633e+003
436.526, 1.794e+003
437.865, 2.035e+003
439.204, 2.202e+003
440.543, 2.277e+003
441.882, 2.146e+003
443.220, 1.958e+003
444.558, 1.754e+003
445.896, 1.685e+003
447.234, 1.600e+003
448.572, 1.567e+003
449.909, 1.507e+003
451.246, 1.550e+003
452.583, 1.494e+003
453.919, 1.533e+003
455.256, 1.582e+003
456.592, 1.641e+003
457.928, 1.706e+003
459.264, 1.728e+003
460.600, 1.665e+003
461.935, 1.633e+003
463.270, 1.635e+003
464.605, 1.587e+003
465.940, 1.567e+003
467.274, 1.622e+003
468.609, 1.671e+003
469.943, 1.735e+003
471.277, 1.858e+003
472.610, 2.140e+003
473.944, 2.563e+003
475.277, 3.313e+003
476.610, 4.522e+003
477.943, 5.634e+003
479.275, 5.540e+003
480.608, 4.403e+003
481.940, 3.307e+003
483.272, 2.532e+003
484.604, 2.115e+003
485.935, 1.912e+003
487.267, 1.767e+003
488.598, 1.660e+003
489.929, 1.612e+003
491.260, 1.602e+003
492.590, 1.598e+003
493.920, 1.559e+003
495.250, 1.558e+003
496.580, 1.540e+003
497.910, 1.514e+003
499.239, 1.518e+003
500.569, 1.495e+003
501.898, 1.540e+003
503.226, 1.503e+003
504.555, 1.518e+003
505.883, 1.493e+003
507.212, 1.514e+003
508.540, 1.547e+003
509.867, 1.517e+003
511.195, 1.502e+003
512.522, 1.525e+003
513.849, 1.520e+003
515.176, 1.488e+003
516.503, 1.534e+003
517.829, 1.510e+003
519.156, 1.523e+003
520.482, 1.495e+003
521.808, 1.519e+003
523.133, 1.545e+003
524.459, 1.494e+003
525.784, 1.550e+003
527.109, 1.528e+003
528.434, 1.526e+003
529.758, 1.518e+003
531.083, 1.576e+003
532.407, 1.554e+003
533.731, 1.555e+003
535.055, 1.559e+003
536.378, 1.543e+003
537.701, 1.534e+003
539.025, 1.558e+003
540.348, 1.591e+003
541.670, 1.558e+003
542.993, 1.583e+003
544.315, 1.621e+003
545.637, 1.587e+003
546.959, 1.611e+003
548.281, 1.623e+003
549.602, 1.642e+003
550.923, 1.699e+003
552.244, 1.707e+003
553.565, 1.702e+003
554.886, 1.709e+003
556.206, 1.773e+003
557.526, 1.827e+003
558.846, 1.941e+003
560.166, 2.076e+003
561.486, 2.176e+003
562.805, 2.078e+003
564.124, 1.958e+003
565.443, 1.838e+003
566.762, 1.831e+003
568.080, 1.817e+003
569.399, 1.823e+003
570.717, 1.813e+003
572.035, 1.782e+003
573.352, 1.852e+003
574.670, 1.850e+003
575.987, 1.846e+003
577.304, 1.878e+003
578.621, 1.938e+003
579.938, 1.963e+003
581.254, 1.951e+003
582.570, 2.042e+003
583.886, 2.101e+003
585.202, 2.114e+003
586.518, 2.196e+003
587.833, 2.286e+003
589.148, 2.323e+003
590.463, 2.446e+003
591.778, 2.538e+003
593.093, 2.731e+003
594.407, 2.921e+003
595.721, 3.214e+003
597.035, 3.525e+003
598.349, 4.008e+003
599.662, 4.716e+003
600.976, 5.754e+003
602.289, 7.207e+003
603.602, 9.555e+003
604.914, 1.312e+004
606.227, 1.760e+004
607.539, 2.188e+004
608.851, 2.346e+004
610.163, 2.149e+004
611.475, 1.686e+004
612.786, 1.309e+004
614.097, 9.961e+003
615.408, 7.550e+003
616.719, 6.257e+003
618.030, 5.334e+003
619.340, 4.710e+003
620.651, 4.462e+003
621.961, 4.515e+003
623.270, 4.734e+003
624.580, 5.078e+003
625.889, 5.302e+003
627.199, 5.062e+003
628.507, 4.533e+003
629.816, 3.999e+003
631.125, 3.390e+003
632.433, 3.032e+003
633.741, 2.816e+003
635.049, 2.597e+003
636.357, 2.500e+003
637.664, 2.393e+003
638.972, 2.330e+003
640.279, 2.288e+003
641.586, 2.222e+003
642.893, 2.197e+003
644.199, 2.164e+003
645.505, 2.117e+003
646.811, 2.071e+003
648.117, 2.033e+003
649.423, 2.069e+003
650.728, 2.000e+003
652.034, 1.961e+003
653.339, 1.956e+003
654.644, 1.918e+003
655.948, 1.944e+003
657.253, 1.946e+003
658.557, 1.940e+003
659.861, 1.894e+003
661.165, 1.900e+003
662.468, 1.906e+003
663.772, 1.856e+003
665.075, 1.873e+003
666.378, 1.881e+003
667.681, 1.873e+003
668.983, 1.894e+003
670.286, 1.875e+003
671.588, 1.872e+003
672.890, 1.852e+003
674.192, 1.883e+003
675.493, 1.834e+003
676.795, 1.845e+003
678.096, 1.826e+003
679.397, 1.820e+003
680.697, 1.859e+003
681.998, 1.846e+003
683.298, 1.875e+003
684.598, 1.823e+003
685.898, 1.817e+003
687.198, 1.858e+003
688.498, 1.874e+003
689.797, 1.820e+003
691.096, 1.858e+003
692.395, 1.833e+003
693.694, 1.859e+003
694.992, 1.857e+003
696.290, 1.865e+003
697.589, 1.823e+003
698.886, 1.848e+003
700.184, 1.882e+003
701.482, 1.886e+003
702.779, 1.865e+003
704.076, 1.833e+003
705.373, 1.881e+003
706.669, 1.922e+003
707.966, 1.931e+003
709.262, 1.915e+003
710.558, 1.940e+003
711.854, 1.988e+003
713.150, 2.007e+003
714.445, 2.024e+003
715.740, 2.045e+003
717.035, 2.020e+003
718.330, 1.948e+003
719.625, 1.959e+003
720.919, 1.925e+003
722.214, 1.904e+003
723.508, 1.936e+003
724.801, 1.899e+003
726.095, 1.881e+003
727.388, 1.894e+003
728.682, 1.904e+003
729.975, 1.894e+003
731.267, 1.907e+003
732.560, 1.918e+003
733.852, 1.895e+003
735.145, 1.898e+003
736.437, 1.916e+003
737.728, 1.893e+003
739.020, 1.915e+003
740.311, 1.909e+003
741.603, 1.879e+003
742.894, 1.943e+003
744.184, 1.896e+003
745.475, 1.914e+003
746.765, 1.891e+003
748.055, 1.945e+003
749.345, 1.926e+003
750.635, 1.935e+003
751.925, 1.938e+003
753.214, 1.944e+003
754.503, 1.952e+003
755.792, 1.922e+003
757.081, 1.920e+003
758.370, 1.958e+003
759.658, 1.929e+003
760.946, 1.949e+003
762.234, 1.978e+003
763.522, 1.957e+003
764.809, 1.996e+003
766.097, 2.053e+003
767.384, 2.032e+003
768.671, 2.122e+003
769.958, 2.072e+003
771.244, 2.176e+003
772.530, 2.193e+003
773.817, 2.200e+003
775.102, 2.236e+003
776.388, 2.241e+003
777.674, 2.134e+003
778.959, 2.146e+003
780.244, 2.041e+003
781.529, 2.069e+003
782.814, 2.018e+003
784.098, 1.999e+003
785.383, 2.005e+003
786.667, 1.998e+003
787.951, 2.007e+003
789.235, 1.964e+003
790.518, 1.966e+003
791.801, 1.998e+003
793.084, 1.951e+003
794.367, 1.950e+003
795.650, 1.994e+003
796.933, 1.969e+003
798.215, 1.987e+003
799.497, 1.970e+003
800.779, 1.985e+003
802.061, 1.968e+003
803.342, 1.976e+003
804.624, 2.008e+003
805.905, 2.009e+003
807.186, 2.005e+003
808.466, 2.022e+003
809.747, 1.956e+003
811.027, 1.962e+003
812.307, 2.002e+003
813.587, 1.996e+003
814.867, 2.022e+003
816.146, 1.999e+003
817.426, 2.017e+003
818.705, 1.998e+003
819.984, 1.987e+003
821.263, 2.016e+003
822.541, 1.971e+003
823.819, 2.046e+003
825.098, 2.024e+003
826.375, 2.028e+003
827.653, 2.035e+003
828.931, 2.004e+003
830.208, 2.032e+003
831.485, 2.006e+003
832.762, 2.049e+003
834.039, 2.050e+003
835.315, 2.041e+003
836.592, 2.065e+003
837.868, 2.036e+003
839.144, 2.070e+003
840.420, 2.100e+003
841.695, 2.070e+003
842.970, 2.103e+003
844.246, 2.097e+003
845.521, 2.064e+003
846.795, 2.071e+003
848.070, 2.103e+003
849.344, 2.107e+003
850.618, 2.139e+003
851.892, 2.097e+003
853.166, 2.126e+003
854.440, 2.107e+003
855.713, 2.147e+003
856.986, 2.158e+003
858.259, 2.139e+003
859.532, 2.163e+003
860.804, 2.204e+003
862.077, 2.133e+003
863.349, 2.174e+003
864.621, 2.147e+003
865.893, 2.230e+003
867.164, 2.213e+003
868.436, 2.166e+003
869.707, 2.179e+003
870.978, 2.190e+003
872.248, 2.205e+003
873.519, 2.180e+003
874.789, 2.190e+003
876.060, 2.234e+003
877.330, 2.204e+003
878.599, 2.191e+003
879.869, 2.240e+003
881.138, 2.187e+003
882.408, 2.266e+003
883.677, 2.229e+003
884.945, 2.222e+003
886.214, 2.260e+003
887.482, 2.249e+003
888.751, 2.268e+003
890.019, 2.288e+003
891.287, 2.334e+003
892.554, 2.368e+003
893.822, 2.388e+003
895.089, 2.470e+003
896.356, 2.482e+003
897.623, 2.509e+003
898.889, 2.570e+003
900.156, 2.612e+003
901.422, 2.587e+003
902.688, 2.628e+003
903.954, 2.598e+003
905.220, 2.676e+003
906.485, 2.673e+003
907.750, 2.654e+003
909.015, 2.665e+003
910.280, 2.697e+003
911.545, 2.784e+003
912.809, 2.842e+003
914.074, 2.855e+003
915.338, 3.013e+003
916.602, 2.984e+003
917.865, 3.008e+003
919.129, 3.079e+003
920.392, 3.054e+003
921.655, 3.074e+003
922.918, 3.044e+003
924.181, 2.957e+003
925.443, 2.888e+003
926.706, 2.799e+003
927.968, 2.765e+003
929.230, 2.669e+003
930.491, 2.579e+003
931.753, 2.588e+003
933.014, 2.606e+003
934.276, 2.596e+003
935.536, 2.606e+003
936.797, 2.695e+003
938.058, 2.712e+003
939.318, 2.840e+003
940.578, 2.893e+003
941.838, 3.045e+003
943.098, 3.185e+003
944.358, 3.366e+003
945.617, 3.459e+003
946.876, 3.492e+003
948.135, 3.467e+003
949.394, 3.354e+003
950.653, 3.235e+003
951.911, 3.096e+003
953.169, 2.953e+003
954.427, 2.913e+003
955.685, 2.847e+003
956.943, 2.804e+003
958.200, 2.763e+003
959.458, 2.768e+003
960.715, 2.824e+003
961.971, 2.841e+003
963.228, 2.965e+003
964.485, 3.113e+003
965.741, 3.257e+003
966.997, 3.527e+003
968.253, 3.891e+003
969.508, 4.260e+003
970.764, 4.801e+003
972.019, 4.894e+003
973.274, 4.759e+003
974.529, 4.363e+003
975.784, 3.900e+003
977.039, 3.676e+003
978.293, 3.355e+003
979.547, 3.201e+003
980.801, 3.073e+003
982.055, 2.918e+003
983.308, 2.892e+003
984.562, 2.817e+003
985.815, 2.773e+003
987.068, 2.732e+003
988.321, 2.778e+003
989.573, 2.736e+003
990.826, 2.732e+003
992.078, 2.724e+003
993.330, 2.768e+003
994.582, 2.719e+003
995.833, 2.721e+003
997.085, 2.814e+003
998.336, 2.844e+003
999.587, 2.862e+003
1000.838, 3.004e+003
1002.088, 3.028e+003
1003.339, 3.212e+003
1004.589, 3.437e+003
1005.839, 3.694e+003
1007.089, 3.813e+003
1008.339, 3.723e+003
1009.588, 3.432e+003
1010.838, 3.177e+003
1012.087, 2.898e+003
1013.336, 2.794e+003
1014.584, 2.689e+003
1015.833, 2.680e+003
1017.081, 2.681e+003
1018.330, 2.632e+003
1019.577, 2.630e+003
1020.825, 2.610e+003
1022.073, 2.652e+003
1023.320, 2.624e+003
1024.567, 2.632e+003
1025.814, 2.640e+003
1027.061, 2.611e+003
1028.308, 2.616e+003
1029.554, 2.575e+003
1030.800, 2.573e+003
1032.046, 2.571e+003
1033.292, 2.502e+003
1034.538, 2.518e+003
1035.783, 2.513e+003
1037.029, 2.537e+003
1038.274, 2.541e+003
1039.519, 2.585e+003
1040.763, 2.497e+003
1042.008, 2.554e+003
1043.252, 2.511e+003
1044.496, 2.484e+003
1045.740, 2.481e+003
1046.984, 2.478e+003
1048.228, 2.483e+003
1049.471, 2.511e+003
1050.714, 2.467e+003
1051.957, 2.544e+003
1053.200, 2.483e+003
1054.442, 2.492e+003
1055.685, 2.521e+003
1056.927, 2.452e+003
1058.169, 2.491e+003
1059.411, 2.497e+003
1060.652, 2.550e+003
1061.894, 2.546e+003
1063.135, 2.524e+003
1064.376, 2.560e+003
1065.617, 2.553e+003
1066.858, 2.566e+003
1068.098, 2.533e+003
1069.339, 2.529e+003
1070.579, 2.591e+003
1071.819, 2.603e+003
1073.058, 2.592e+003
1074.298, 2.594e+003
1075.537, 2.617e+003
1076.776, 2.649e+003
1078.015, 2.685e+003
1079.254, 2.684e+003
1080.493, 2.672e+003
1081.731, 2.692e+003
1082.969, 2.649e+003
1084.207, 2.719e+003
1085.445, 2.688e+003
1086.683, 2.730e+003
1087.920, 2.734e+003
1089.157, 2.771e+003
1090.394, 2.811e+003
1091.631, 2.926e+003
1092.868, 2.905e+003
1094.105, 3.018e+003
1095.341, 3.049e+003
1096.577, 3.157e+003
1097.813, 3.254e+003
1099.049, 3.361e+003
1100.284, 3.487e+003
1101.519, 3.555e+003
1102.755, 3.645e+003
1103.990, 3.771e+003
1105.224, 3.749e+003
1106.459, 3.759e+003
1107.693, 3.763e+003
1108.928, 3.637e+003
1110.162, 3.511e+003
1111.395, 3.452e+003
1112.629, 3.306e+003
1113.863, 3.272e+003
1115.096, 3.151e+003
1116.329, 3.081e+003
1117.562, 3.053e+003
1118.795, 2.983e+003
1120.027, 2.971e+003
1121.259, 2.991e+003
1122.492, 2.871e+003
1123.723, 2.888e+003
1124.955, 2.826e+003
1126.187, 2.802e+003
1127.418, 2.782e+003
1128.649, 2.722e+003
1129.880, 2.735e+003
1131.111, 2.697e+003
1132.342, 2.660e+003
1133.572, 2.691e+003
1134.802, 2.691e+003
1136.033, 2.676e+003
1137.262, 2.665e+003
1138.492, 2.605e+003
1139.722, 2.647e+003
1140.951, 2.619e+003
1142.180, 2.613e+003
1143.409, 2.617e+003
1144.638, 2.600e+003
1145.866, 2.588e+003
1147.095, 2.562e+003
1148.323, 2.586e+003
1149.551, 2.603e+003
1150.779, 2.586e+003
1152.006, 2.569e+003
1153.234, 2.594e+003
1154.461, 2.593e+003
1155.688, 2.615e+003
1156.915, 2.607e+003
1158.141, 2.589e+003
1159.368, 2.626e+003
1160.594, 2.668e+003
1161.820, 2.674e+003
1163.046, 2.673e+003
1164.272, 2.641e+003
1165.498, 2.646e+003
1166.723, 2.708e+003
1167.948, 2.682e+003
1169.173, 2.727e+003
1170.398, 2.766e+003
1171.623, 2.775e+003
1172.847, 2.772e+003
1174.071, 2.797e+003
1175.295, 2.777e+003
1176.519, 2.756e+003
1177.743, 2.719e+003
1178.966, 2.729e+003
1180.190, 2.743e+003
1181.413, 2.657e+003
1182.636, 2.736e+003
1183.858, 2.730e+003
1185.081, 2.639e+003
1186.303, 2.688e+003
1187.526, 2.643e+003
1188.748, 2.688e+003
1189.969, 2.724e+003
1191.191, 2.683e+003
1192.412, 2.643e+003
1193.634, 2.644e+003
1194.855, 2.633e+003
1196.076, 2.675e+003
1197.296, 2.671e+003
1198.517, 2.666e+003
1199.737, 2.636e+003
1200.957, 2.663e+003
1202.177, 2.655e+003
1203.397, 2.647e+003
1204.617, 2.679e+003
1205.836, 2.655e+003
1207.055, 2.673e+003
1208.274, 2.694e+003
1209.493, 2.652e+003
1210.712, 2.624e+003
1211.930, 2.688e+003
1213.148, 2.647e+003
1214.367, 2.710e+003
1215.584, 2.708e+003
1216.802, 2.711e+003
1218.020, 2.690e+003
1219.237, 2.697e+003
1220.454, 2.663e+003
1221.671, 2.658e+003
1222.888, 2.672e+003
1224.105, 2.662e+003
1225.321, 2.704e+003
1226.537, 2.662e+003
1227.753, 2.676e+003
1228.969, 2.698e+003
1230.185, 2.671e+003
1231.400, 2.735e+003
1232.616, 2.659e+003
1233.831, 2.678e+003
1235.046, 2.715e+003
1236.261, 2.723e+003
1237.475, 2.687e+003
1238.689, 2.752e+003
1239.904, 2.680e+003
1241.118, 2.726e+003
1242.332, 2.725e+003
1243.545, 2.718e+003
1244.759, 2.707e+003
1245.972, 2.699e+003
1247.185, 2.723e+003
1248.398, 2.759e+003
1249.611, 2.714e+003
1250.823, 2.731e+003
1252.036, 2.731e+003
1253.248, 2.752e+003
1254.460, 2.760e+003
1255.671, 2.740e+003
1256.883, 2.771e+003
1258.095, 2.794e+003
1259.306, 2.708e+003
1260.517, 2.772e+003
1261.728, 2.750e+003
1262.938, 2.700e+003
1264.149, 2.785e+003
1265.359, 2.643e+003
1266.569, 2.719e+003
1267.779, 2.732e+003
1268.989, 2.708e+003
1270.199, 2.691e+003
1271.408, 2.761e+003
1272.617, 2.730e+003
1273.826, 2.733e+003
1275.035, 2.743e+003
1276.244, 2.705e+003
1277.452, 2.692e+003
1278.661, 2.678e+003
1279.869, 2.701e+003
1281.077, 2.770e+003
1282.285, 2.705e+003
1283.492, 2.746e+003
1284.700, 2.727e+003
1285.907, 2.752e+003
1287.114, 2.767e+003
1288.321, 2.739e+003
1289.527, 2.754e+003
1290.734, 2.764e+003
1291.940, 2.752e+003
1293.146, 2.807e+003
1294.352, 2.769e+003
1295.558, 2.758e+003
1296.763, 2.762e+003
1297.969, 2.753e+003
1299.174, 2.764e+003
1300.379, 2.805e+003
1301.584, 2.755e+003
1302.788, 2.741e+003
1303.993, 2.785e+003
1305.197, 2.752e+003
1306.401, 2.827e+003
1307.605, 2.803e+003
1308.809, 2.750e+003
1310.013, 2.772e+003
1311.216, 2.737e+003
1312.419, 2.826e+003
1313.622, 2.816e+003
1314.825, 2.784e+003
1316.028, 2.816e+003
1317.230, 2.827e+003
1318.432, 2.797e+003
1319.634, 2.845e+003
1320.836, 2.871e+003
1322.038, 2.776e+003
1323.240, 2.849e+003
1324.441, 2.854e+003
1325.642, 2.784e+003
1326.843, 2.790e+003
1328.044, 2.807e+003
1329.245, 2.825e+003
1330.445, 2.843e+003
1331.645, 2.824e+003
1332.845, 2.878e+003
1334.045, 2.829e+003
1335.245, 2.819e+003
1336.445, 2.840e+003
1337.644, 2.881e+003
1338.843, 2.846e+003
1340.042, 2.868e+003
1341.241, 2.861e+003
1342.440, 2.931e+003
1343.638, 2.857e+003
1344.836, 2.846e+003
1346.034, 2.854e+003
1347.232, 2.844e+003
1348.430, 2.860e+003
1349.628, 2.875e+003
1350.825, 2.849e+003
1352.022, 2.883e+003
1353.219, 2.860e+003
1354.416, 2.871e+003
1355.613, 2.892e+003
1356.809, 2.928e+003
1358.005, 2.857e+003
1359.202, 2.928e+003
1360.398, 2.888e+003
1361.593, 2.893e+003
1362.789, 2.898e+003
1363.984, 2.911e+003
1365.179, 2.912e+003
1366.374, 2.916e+003
1367.569, 2.928e+003
1368.764, 2.897e+003
1369.958, 2.911e+003
1371.153, 2.890e+003
1372.347, 2.958e+003
1373.541, 2.899e+003
1374.735, 2.917e+003
1375.928, 2.905e+003
1377.122, 2.952e+003
1378.315, 2.901e+003
1379.508, 2.971e+003
1380.701, 2.964e+003
1381.893, 2.982e+003
1383.086, 2.943e+003
1384.278, 2.961e+003
1385.470, 2.983e+003
1386.662, 2.959e+003
1387.854, 2.906e+003
1389.046, 2.953e+003
1390.237, 2.949e+003
1391.428, 2.961e+003
1392.619, 2.934e+003
1393.810, 2.977e+003
1395.001, 2.990e+003
1396.191, 2.964e+003
1397.382, 2.972e+003
1398.572, 2.960e+003
1399.762, 2.922e+003
1400.952, 2.938e+003
1402.141, 2.948e+003
1403.331, 2.976e+003
1404.520, 3.020e+003
1405.709, 2.979e+003
1406.898, 3.023e+003
1408.087, 2.978e+003
1409.275, 3.018e+003
1410.464, 3.067e+003
1411.652, 3.020e+003
1412.840, 2.999e+003
1414.028, 2.996e+003
1415.215, 3.046e+003
1416.403, 2.999e+003
1417.590, 3.052e+003
1418.777, 2.984e+003
1419.964, 3.019e+003
1421.151, 3.014e+003
1422.338, 3.018e+003
1423.524, 3.013e+003
1424.710, 3.119e+003
1425.896, 3.044e+003
1427.082, 3.099e+003
1428.268, 3.097e+003
1429.453, 3.022e+003
1430.639, 3.134e+003
1431.824, 3.085e+003
1433.009, 3.071e+003
1434.194, 3.168e+003
1435.378, 3.119e+003
1436.563, 3.109e+003
1437.747, 3.149e+003
1438.931, 3.104e+003
1440.115, 3.106e+003
1441.299, 3.121e+003
1442.482, 3.164e+003
1443.666, 3.158e+003
1444.849, 3.184e+003
1446.032, 3.133e+003
1447.215, 3.242e+003
1448.397, 3.176e+003
1449.580, 3.188e+003
1450.762, 3.210e+003
1451.944, 3.154e+003
1453.126, 3.205e+003
1454.308, 3.204e+003
1455.490, 3.205e+003
1456.671, 3.253e+003
1457.852, 3.198e+003
1459.033, 3.181e+003
1460.214, 3.226e+003
1461.395, 3.168e+003
1462.575, 3.197e+003
1463.756, 3.213e+003
1464.936, 3.215e+003
1466.116, 3.220e+003
1467.296, 3.181e+003
1468.475, 3.148e+003
1469.655, 3.174e+003
1470.834, 3.201e+003
1472.013, 3.146e+003
1473.192, 3.164e+003
1474.371, 3.105e+003
1475.550, 3.185e+003
1476.728, 3.129e+003
1477.906, 3.172e+003
1479.084, 3.125e+003
1480.262, 3.189e+003
1481.440, 3.177e+003
1482.617, 3.160e+003
1483.795, 3.170e+003
1484.972, 3.204e+003
1486.149, 3.210e+003
1487.326, 3.174e+003
1488.502, 3.167e+003
1489.679, 3.158e+003
1490.855, 3.207e+003
1492.031, 3.138e+003
1493.207, 3.152e+003
1494.383, 3.192e+003
1495.559, 3.200e+003
1496.734, 3.207e+003
1497.909, 3.163e+003
1499.084, 3.186e+003
1500.259, 3.178e+003
1501.434, 3.187e+003
1502.608, 3.183e+003
1503.783, 3.297e+003
1504.957, 1.730e+002
##END=



