##NAMES=Danburite
##RRUFFID=R040013
##IDEAL CHEMISTRY=CaB_2_Si_2_O_8_
##LOCALITY=Charcas, San Luis Potosi, Mexico
##OWNER=RRUFF
##SOURCE=Marcus Origlieri
##DESCRIPTION=Colorless prismatic single crystal
##STATUS=The identification of this mineral has been confirmed by X-ray diffraction and chemical analysis
##URL=rruff.info/R040013
##MEASURED CHEMISTRY=Ca_1.00_B_2.00_Si_2.00_O_8_
##PIN_ID=M00009
##ORIENTATION=Laser parallel to b* (0 1 0). Fiducial mark perpendicular to laser is parallel to -c [0 0 -1]
26.288, 2.077e+003
27.694, 1.990e+003
29.099, 1.977e+003
30.504, 1.954e+003
31.909, 1.945e+003
33.313, 1.954e+003
34.717, 1.862e+003
36.121, 1.920e+003
37.525, 1.858e+003
38.929, 1.863e+003
40.332, 1.826e+003
41.735, 1.808e+003
43.138, 1.795e+003
44.541, 1.802e+003
45.943, 1.807e+003
47.345, 1.784e+003
48.747, 1.774e+003
50.149, 1.764e+003
51.551, 1.730e+003
52.952, 1.710e+003
54.353, 1.784e+003
55.754, 1.817e+003
57.155, 1.895e+003
58.555, 1.872e+003
59.955, 1.852e+003
61.355, 1.787e+003
62.755, 1.729e+003
64.154, 1.658e+003
65.553, 1.658e+003
66.952, 1.608e+003
68.351, 1.615e+003
69.750, 1.571e+003
71.148, 1.559e+003
72.546, 1.489e+003
73.944, 1.403e+003
75.342, 1.396e+003
76.739, 1.366e+003
78.136, 1.384e+003
79.533, 1.374e+003
80.930, 1.394e+003
82.327, 1.438e+003
83.723, 1.502e+003
85.119, 1.610e+003
86.515, 1.710e+003
87.910, 1.782e+003
89.306, 1.912e+003
90.701, 2.107e+003
92.096, 2.219e+003
93.490, 2.466e+003
94.885, 2.616e+003
96.279, 2.752e+003
97.673, 3.090e+003
99.067, 3.127e+003
100.461, 3.340e+003
101.854, 3.392e+003
103.247, 3.473e+003
104.640, 3.608e+003
106.032, 3.556e+003
107.425, 3.766e+003
108.817, 3.770e+003
110.209, 4.674e+003
111.601, 5.952e+003
112.992, 5.092e+003
114.384, 4.530e+003
115.775, 4.132e+003
117.166, 4.212e+003
118.556, 4.093e+003
119.947, 4.061e+003
121.337, 4.074e+003
122.727, 4.119e+003
124.116, 3.945e+003
125.506, 3.726e+003
126.895, 3.648e+003
128.284, 3.500e+003
129.673, 3.462e+003
131.062, 3.421e+003
132.450, 3.401e+003
133.838, 3.347e+003
135.226, 3.267e+003
136.614, 3.323e+003
138.001, 3.223e+003
139.388, 3.270e+003
140.775, 3.192e+003
142.162, 3.212e+003
143.549, 3.191e+003
144.935, 3.187e+003
146.321, 3.228e+003
147.707, 3.150e+003
149.093, 3.192e+003
150.478, 3.182e+003
151.863, 3.173e+003
153.248, 3.220e+003
154.633, 3.152e+003
156.018, 3.200e+003
157.402, 3.168e+003
158.786, 3.241e+003
160.170, 3.292e+003
161.554, 3.329e+003
162.937, 3.574e+003
164.320, 3.729e+003
165.703, 3.811e+003
167.086, 3.631e+003
168.469, 3.590e+003
169.851, 3.698e+003
171.233, 3.879e+003
172.615, 4.381e+003
173.996, 5.323e+003
175.378, 7.145e+003
176.759, 1.008e+004
178.140, 1.542e+004
179.521, 2.324e+004
180.901, 2.716e+004
182.281, 2.296e+004
183.662, 1.459e+004
185.041, 9.013e+003
186.421, 6.191e+003
187.800, 5.096e+003
189.180, 4.712e+003
190.558, 5.025e+003
191.937, 5.319e+003
193.316, 4.980e+003
194.694, 4.323e+003
196.072, 3.723e+003
197.450, 3.503e+003
198.827, 3.403e+003
200.205, 3.288e+003
201.582, 3.260e+003
202.959, 3.279e+003
204.336, 3.380e+003
205.712, 3.420e+003
207.088, 3.684e+003
208.465, 3.974e+003
209.840, 4.055e+003
211.216, 3.946e+003
212.591, 3.612e+003
213.967, 3.382e+003
215.341, 3.149e+003
216.716, 3.149e+003
218.091, 3.161e+003
219.465, 3.148e+003
220.839, 3.288e+003
222.213, 3.486e+003
223.586, 3.999e+003
224.960, 4.590e+003
226.333, 4.641e+003
227.706, 4.189e+003
229.079, 3.569e+003
230.451, 3.305e+003
231.823, 3.180e+003
233.195, 3.189e+003
234.567, 3.171e+003
235.939, 3.223e+003
237.310, 3.413e+003
238.682, 3.612e+003
240.052, 4.091e+003
241.423, 4.783e+003
242.794, 5.821e+003
244.164, 6.508e+003
245.534, 6.193e+003
246.904, 5.316e+003
248.274, 4.473e+003
249.643, 4.028e+003
251.012, 3.668e+003
252.381, 3.518e+003
253.750, 3.428e+003
255.118, 3.358e+003
256.487, 3.322e+003
257.855, 3.200e+003
259.223, 3.272e+003
260.590, 3.243e+003
261.958, 3.180e+003
263.325, 3.187e+003
264.692, 3.113e+003
266.059, 3.196e+003
267.425, 3.111e+003
268.791, 3.131e+003
270.158, 3.131e+003
271.523, 3.083e+003
272.889, 3.108e+003
274.255, 3.039e+003
275.620, 3.091e+003
276.985, 3.024e+003
278.350, 3.051e+003
279.714, 3.041e+003
281.078, 3.028e+003
282.443, 3.129e+003
283.806, 3.087e+003
285.170, 3.138e+003
286.534, 3.260e+003
287.897, 3.426e+003
289.260, 3.607e+003
290.623, 4.011e+003
291.985, 4.466e+003
293.348, 4.903e+003
294.710, 5.051e+003
296.072, 4.695e+003
297.433, 4.169e+003
298.795, 3.850e+003
300.156, 3.509e+003
301.517, 3.529e+003
302.878, 3.520e+003
304.239, 3.702e+003
305.599, 3.971e+003
306.959, 4.449e+003
308.319, 5.131e+003
309.679, 5.794e+003
311.038, 6.196e+003
312.398, 6.035e+003
313.757, 5.312e+003
315.116, 4.668e+003
316.474, 4.110e+003
317.833, 3.796e+003
319.191, 3.540e+003
320.549, 3.415e+003
321.907, 3.330e+003
323.264, 3.301e+003
324.622, 3.340e+003
325.979, 3.355e+003
327.336, 3.407e+003
328.692, 3.489e+003
330.049, 3.468e+003
331.405, 3.426e+003
332.761, 3.388e+003
334.117, 3.433e+003
335.473, 3.462e+003
336.828, 3.574e+003
338.183, 3.841e+003
339.538, 4.210e+003
340.893, 4.901e+003
342.247, 5.982e+003
343.602, 7.844e+003
344.956, 1.050e+004
346.310, 1.239e+004
347.663, 1.206e+004
349.017, 9.566e+003
350.370, 7.077e+003
351.723, 5.434e+003
353.076, 4.516e+003
354.428, 3.959e+003
355.780, 3.663e+003
357.133, 3.485e+003
358.484, 3.320e+003
359.836, 3.277e+003
361.188, 3.142e+003
362.539, 3.134e+003
363.890, 3.116e+003
365.241, 3.044e+003
366.591, 3.034e+003
367.942, 2.986e+003
369.292, 3.013e+003
370.642, 2.952e+003
371.992, 3.023e+003
373.341, 2.948e+003
374.691, 2.974e+003
376.040, 3.006e+003
377.388, 2.991e+003
378.737, 2.989e+003
380.086, 2.998e+003
381.434, 2.951e+003
382.782, 3.034e+003
384.130, 3.018e+003
385.477, 3.072e+003
386.825, 3.040e+003
388.172, 3.062e+003
389.519, 3.141e+003
390.865, 3.114e+003
392.212, 3.119e+003
393.558, 3.099e+003
394.904, 3.081e+003
396.250, 3.130e+003
397.596, 3.044e+003
398.941, 3.070e+003
400.286, 3.041e+003
401.631, 3.042e+003
402.976, 3.028e+003
404.321, 3.043e+003
405.665, 3.047e+003
407.009, 3.038e+003
408.353, 3.047e+003
409.697, 3.124e+003
411.040, 3.058e+003
412.384, 3.129e+003
413.727, 3.160e+003
415.070, 3.211e+003
416.412, 3.232e+003
417.755, 3.383e+003
419.097, 3.517e+003
420.439, 3.653e+003
421.781, 3.783e+003
423.122, 3.865e+003
424.464, 3.818e+003
425.805, 3.687e+003
427.146, 3.542e+003
428.486, 3.372e+003
429.827, 3.243e+003
431.167, 3.164e+003
432.507, 3.176e+003
433.847, 3.219e+003
435.187, 3.341e+003
436.526, 3.456e+003
437.865, 3.786e+003
439.204, 3.965e+003
440.543, 4.026e+003
441.882, 3.899e+003
443.220, 3.658e+003
444.558, 3.390e+003
445.896, 3.253e+003
447.234, 3.252e+003
448.572, 3.264e+003
449.909, 3.169e+003
451.246, 3.251e+003
452.583, 3.261e+003
453.919, 3.394e+003
455.256, 3.456e+003
456.592, 3.726e+003
457.928, 3.983e+003
459.264, 3.922e+003
460.600, 3.737e+003
461.935, 3.568e+003
463.270, 3.528e+003
464.605, 3.499e+003
465.940, 3.534e+003
467.274, 3.713e+003
468.609, 3.790e+003
469.943, 4.089e+003
471.277, 4.464e+003
472.610, 5.229e+003
473.944, 6.584e+003
475.277, 9.012e+003
476.610, 1.315e+004
477.943, 1.773e+004
479.275, 1.910e+004
480.608, 1.633e+004
481.940, 1.153e+004
483.272, 8.083e+003
484.604, 6.106e+003
485.935, 5.096e+003
487.267, 4.476e+003
488.598, 4.134e+003
489.929, 3.908e+003
491.260, 3.743e+003
492.590, 3.656e+003
493.920, 3.592e+003
495.250, 3.490e+003
496.580, 3.489e+003
497.910, 3.411e+003
499.239, 3.486e+003
500.569, 3.370e+003
501.898, 3.368e+003
503.226, 3.362e+003
504.555, 3.342e+003
505.883, 3.340e+003
507.212, 3.361e+003
508.540, 3.392e+003
509.867, 3.415e+003
511.195, 3.339e+003
512.522, 3.426e+003
513.849, 3.357e+003
515.176, 3.376e+003
516.503, 3.458e+003
517.829, 3.407e+003
519.156, 3.446e+003
520.482, 3.413e+003
521.808, 3.389e+003
523.133, 3.411e+003
524.459, 3.437e+003
525.784, 3.386e+003
527.109, 3.382e+003
528.434, 3.440e+003
529.758, 3.388e+003
531.083, 3.378e+003
532.407, 3.459e+003
533.731, 3.428e+003
535.055, 3.434e+003
536.378, 3.398e+003
537.701, 3.352e+003
539.025, 3.465e+003
540.348, 3.398e+003
541.670, 3.443e+003
542.993, 3.448e+003
544.315, 3.472e+003
545.637, 3.480e+003
546.959, 3.469e+003
548.281, 3.505e+003
549.602, 3.513e+003
550.923, 3.511e+003
552.244, 3.572e+003
553.565, 3.572e+003
554.886, 3.703e+003
556.206, 3.781e+003
557.526, 3.972e+003
558.846, 4.221e+003
560.166, 4.375e+003
561.486, 4.581e+003
562.805, 4.390e+003
564.124, 4.168e+003
565.443, 3.964e+003
566.762, 3.806e+003
568.080, 3.902e+003
569.399, 3.865e+003
570.717, 3.937e+003
572.035, 3.861e+003
573.352, 3.868e+003
574.670, 3.884e+003
575.987, 3.830e+003
577.304, 3.946e+003
578.621, 4.016e+003
579.938, 4.021e+003
581.254, 4.149e+003
582.570, 4.230e+003
583.886, 4.445e+003
585.202, 4.453e+003
586.518, 4.539e+003
587.833, 4.697e+003
589.148, 4.760e+003
590.463, 4.984e+003
591.778, 5.166e+003
593.093, 5.364e+003
594.407, 5.678e+003
595.721, 6.126e+003
597.035, 6.712e+003
598.349, 7.484e+003
599.662, 8.616e+003
600.976, 1.011e+004
602.289, 1.243e+004
603.602, 1.613e+004
604.914, 2.144e+004
606.227, 2.912e+004
607.539, 3.692e+004
608.851, 4.145e+004
610.163, 3.962e+004
611.475, 3.247e+004
612.786, 2.533e+004
614.097, 1.933e+004
615.408, 1.468e+004
616.719, 1.222e+004
618.030, 1.040e+004
619.340, 9.305e+003
620.651, 8.662e+003
621.961, 8.433e+003
623.270, 8.837e+003
624.580, 9.369e+003
625.889, 1.023e+004
627.199, 1.016e+004
628.507, 9.280e+003
629.816, 8.405e+003
631.125, 7.147e+003
632.433, 6.459e+003
633.741, 5.857e+003
635.049, 5.467e+003
636.357, 5.398e+003
637.664, 5.163e+003
638.972, 5.118e+003
640.279, 5.067e+003
641.586, 5.042e+003
642.893, 5.087e+003
644.199, 4.969e+003
645.505, 5.098e+003
646.811, 4.973e+003
648.117, 4.881e+003
649.423, 4.970e+003
650.728, 4.772e+003
652.034, 4.800e+003
653.339, 4.672e+003
654.644, 4.568e+003
655.948, 4.492e+003
657.253, 4.286e+003
658.557, 4.239e+003
659.861, 4.126e+003
661.165, 4.007e+003
662.468, 4.040e+003
663.772, 3.923e+003
665.075, 4.001e+003
666.378, 3.946e+003
667.681, 3.894e+003
668.983, 3.972e+003
670.286, 3.932e+003
671.588, 3.978e+003
672.890, 3.855e+003
674.192, 3.950e+003
675.493, 3.857e+003
676.795, 3.832e+003
678.096, 3.822e+003
679.397, 3.803e+003
680.697, 3.765e+003
681.998, 3.732e+003
683.298, 3.724e+003
684.598, 3.670e+003
685.898, 3.709e+003
687.198, 3.683e+003
688.498, 3.732e+003
689.797, 3.758e+003
691.096, 3.702e+003
692.395, 3.683e+003
693.694, 3.737e+003
694.992, 3.733e+003
696.290, 3.695e+003
697.589, 3.765e+003
698.886, 3.737e+003
700.184, 3.737e+003
701.482, 3.709e+003
702.779, 3.739e+003
704.076, 3.726e+003
705.373, 3.665e+003
706.669, 3.746e+003
707.966, 3.745e+003
709.262, 3.671e+003
710.558, 3.766e+003
711.854, 3.715e+003
713.150, 3.722e+003
714.445, 3.773e+003
715.740, 4.012e+003
717.035, 4.829e+003
718.330, 3.952e+003
719.625, 3.801e+003
720.919, 3.777e+003
722.214, 3.761e+003
723.508, 3.874e+003
724.801, 3.852e+003
726.095, 3.849e+003
727.388, 3.900e+003
728.682, 3.830e+003
729.975, 3.982e+003
731.267, 3.945e+003
732.560, 3.864e+003
733.852, 4.014e+003
735.145, 3.861e+003
736.437, 3.995e+003
737.728, 3.868e+003
739.020, 3.914e+003
740.311, 3.944e+003
741.603, 3.880e+003
742.894, 3.921e+003
744.184, 3.947e+003
745.475, 3.904e+003
746.765, 4.032e+003
748.055, 3.914e+003
749.345, 3.991e+003
750.635, 4.038e+003
751.925, 3.972e+003
753.214, 4.058e+003
754.503, 3.961e+003
755.792, 4.031e+003
757.081, 4.015e+003
758.370, 3.981e+003
759.658, 4.066e+003
760.946, 4.102e+003
762.234, 4.138e+003
763.522, 4.103e+003
764.809, 4.128e+003
766.097, 4.199e+003
767.384, 4.212e+003
768.671, 4.374e+003
769.958, 4.314e+003
771.244, 4.339e+003
772.530, 4.467e+003
773.817, 4.344e+003
775.102, 4.405e+003
776.388, 4.346e+003
777.674, 4.162e+003
778.959, 4.237e+003
780.244, 4.161e+003
781.529, 4.130e+003
782.814, 4.181e+003
784.098, 4.053e+003
785.383, 4.153e+003
786.667, 4.167e+003
787.951, 4.194e+003
789.235, 4.218e+003
790.518, 4.199e+003
791.801, 4.271e+003
793.084, 4.280e+003
794.367, 4.225e+003
795.650, 4.324e+003
796.933, 4.187e+003
798.215, 4.293e+003
799.497, 4.285e+003
800.779, 4.248e+003
802.061, 4.294e+003
803.342, 4.216e+003
804.624, 4.283e+003
805.905, 4.243e+003
807.186, 4.201e+003
808.466, 4.325e+003
809.747, 4.249e+003
811.027, 4.275e+003
812.307, 4.362e+003
813.587, 4.268e+003
814.867, 4.349e+003
816.146, 4.301e+003
817.426, 4.391e+003
818.705, 4.399e+003
819.984, 4.316e+003
821.263, 4.443e+003
822.541, 4.377e+003
823.819, 4.382e+003
825.098, 4.437e+003
826.375, 4.475e+003
827.653, 4.529e+003
828.931, 4.460e+003
830.208, 4.531e+003
831.485, 4.592e+003
832.762, 4.505e+003
834.039, 4.615e+003
835.315, 4.556e+003
836.592, 4.592e+003
837.868, 4.723e+003
839.144, 4.631e+003
840.420, 4.706e+003
841.695, 4.805e+003
842.970, 4.788e+003
844.246, 4.915e+003
845.521, 4.784e+003
846.795, 4.876e+003
848.070, 4.998e+003
849.344, 4.853e+003
850.618, 5.021e+003
851.892, 4.982e+003
853.166, 5.035e+003
854.440, 5.223e+003
855.713, 5.121e+003
856.986, 5.458e+003
858.259, 5.460e+003
859.532, 5.521e+003
860.804, 5.614e+003
862.077, 5.365e+003
863.349, 5.508e+003
864.621, 5.399e+003
865.893, 5.269e+003
867.164, 5.357e+003
868.436, 5.184e+003
869.707, 5.219e+003
870.978, 5.151e+003
872.248, 5.084e+003
873.519, 5.155e+003
874.789, 5.063e+003
876.060, 5.136e+003
877.330, 5.137e+003
878.599, 4.990e+003
879.869, 5.129e+003
881.138, 5.024e+003
882.408, 5.035e+003
883.677, 5.154e+003
884.945, 5.003e+003
886.214, 5.072e+003
887.482, 5.134e+003
888.751, 5.117e+003
890.019, 5.255e+003
891.287, 5.178e+003
892.554, 5.423e+003
893.822, 5.369e+003
895.089, 5.523e+003
896.356, 5.663e+003
897.623, 5.593e+003
898.889, 5.575e+003
900.156, 5.551e+003
901.422, 5.387e+003
902.688, 5.462e+003
903.954, 5.316e+003
905.220, 5.249e+003
906.485, 5.337e+003
907.750, 5.182e+003
909.015, 5.342e+003
910.280, 5.290e+003
911.545, 5.210e+003
912.809, 5.246e+003
914.074, 5.104e+003
915.338, 5.298e+003
916.602, 5.837e+003
917.865, 4.959e+003
919.129, 5.046e+003
920.392, 4.830e+003
921.655, 4.802e+003
922.918, 4.921e+003
924.181, 4.857e+003
925.443, 4.921e+003
926.706, 4.877e+003
927.968, 4.889e+003
929.230, 4.956e+003
930.491, 4.825e+003
931.753, 4.934e+003
933.014, 4.913e+003
934.276, 4.859e+003
935.536, 4.980e+003
936.797, 4.928e+003
938.058, 5.014e+003
939.318, 5.008e+003
940.578, 4.994e+003
941.838, 5.132e+003
943.098, 5.118e+003
944.358, 5.165e+003
945.617, 5.384e+003
946.876, 5.278e+003
948.135, 5.446e+003
949.394, 5.431e+003
950.653, 5.338e+003
951.911, 5.374e+003
953.169, 5.230e+003
954.427, 5.260e+003
955.685, 5.176e+003
956.943, 5.077e+003
958.200, 5.215e+003
959.458, 5.027e+003
960.715, 5.110e+003
961.971, 5.162e+003
963.228, 5.142e+003
964.485, 5.273e+003
965.741, 5.289e+003
966.997, 5.408e+003
968.253, 5.654e+003
969.508, 5.856e+003
970.764, 6.339e+003
972.019, 6.464e+003
973.274, 6.342e+003
974.529, 6.111e+003
975.784, 5.691e+003
977.039, 5.492e+003
978.293, 5.304e+003
979.547, 5.166e+003
980.801, 5.230e+003
982.055, 5.100e+003
983.308, 5.168e+003
984.562, 5.196e+003
985.815, 5.146e+003
987.068, 5.336e+003
988.321, 5.269e+003
989.573, 5.273e+003
990.826, 5.323e+003
992.078, 5.266e+003
993.330, 5.415e+003
994.582, 5.443e+003
995.833, 5.418e+003
997.085, 5.640e+003
998.336, 5.847e+003
999.587, 6.083e+003
1000.838, 6.465e+003
1002.088, 6.218e+003
1003.339, 5.915e+003
1004.589, 5.595e+003
1005.839, 5.250e+003
1007.089, 5.256e+003
1008.339, 5.035e+003
1009.588, 5.150e+003
1010.838, 5.094e+003
1012.087, 4.968e+003
1013.336, 5.137e+003
1014.584, 5.056e+003
1015.833, 5.103e+003
1017.081, 5.272e+003
1018.330, 5.248e+003
1019.577, 5.476e+003
1020.825, 5.425e+003
1022.073, 5.315e+003
1023.320, 5.524e+003
1024.567, 5.332e+003
1025.814, 5.330e+003
1027.061, 5.373e+003
1028.308, 5.179e+003
1029.554, 5.281e+003
1030.800, 5.176e+003
1032.046, 5.130e+003
1033.292, 5.238e+003
1034.538, 5.130e+003
1035.783, 5.238e+003
1037.029, 5.295e+003
1038.274, 5.324e+003
1039.519, 5.515e+003
1040.763, 5.405e+003
1042.008, 5.391e+003
1043.252, 5.250e+003
1044.496, 5.063e+003
1045.740, 5.194e+003
1046.984, 5.167e+003
1048.228, 5.096e+003
1049.471, 5.268e+003
1050.714, 5.099e+003
1051.957, 5.185e+003
1053.200, 5.166e+003
1054.442, 5.003e+003
1055.685, 5.212e+003
1056.927, 5.075e+003
1058.169, 5.101e+003
1059.411, 5.138e+003
1060.652, 5.070e+003
1061.894, 5.136e+003
1063.135, 5.140e+003
1064.376, 5.071e+003
1065.617, 5.175e+003
1066.858, 5.118e+003
1068.098, 5.204e+003
1069.339, 5.201e+003
1070.579, 5.172e+003
1071.819, 5.296e+003
1073.058, 5.226e+003
1074.298, 5.287e+003
1075.537, 5.449e+003
1076.776, 5.423e+003
1078.015, 5.582e+003
1079.254, 5.659e+003
1080.493, 5.600e+003
1081.731, 5.784e+003
1082.969, 5.766e+003
1084.207, 5.789e+003
1085.445, 5.882e+003
1086.683, 5.671e+003
1087.920, 5.762e+003
1089.157, 5.774e+003
1090.394, 5.789e+003
1091.631, 5.947e+003
1092.868, 5.890e+003
1094.105, 5.997e+003
1095.341, 6.176e+003
1096.577, 6.109e+003
1097.813, 6.360e+003
1099.049, 6.494e+003
1100.284, 6.639e+003
1101.519, 6.929e+003
1102.755, 6.921e+003
1103.990, 7.179e+003
1105.224, 7.256e+003
1106.459, 7.278e+003
1107.693, 7.342e+003
1108.928, 7.079e+003
1110.162, 6.910e+003
1111.395, 6.846e+003
1112.629, 6.410e+003
1113.863, 6.468e+003
1115.096, 6.358e+003
1116.329, 6.081e+003
1117.562, 6.165e+003
1118.795, 5.963e+003
1120.027, 5.840e+003
1121.259, 5.956e+003
1122.492, 5.746e+003
1123.723, 5.744e+003
1124.955, 5.706e+003
1126.187, 5.580e+003
1127.418, 5.728e+003
1128.649, 5.546e+003
1129.880, 5.534e+003
1131.111, 5.609e+003
1132.342, 5.466e+003
1133.572, 5.558e+003
1134.802, 5.432e+003
1136.033, 5.309e+003
1137.262, 5.424e+003
1138.492, 5.321e+003
1139.722, 5.427e+003
1140.951, 5.400e+003
1142.180, 5.176e+003
1143.409, 5.338e+003
1144.638, 5.324e+003
1145.866, 5.276e+003
1147.095, 5.347e+003
1148.323, 5.240e+003
1149.551, 5.289e+003
1150.779, 5.389e+003
1152.006, 5.222e+003
1153.234, 5.291e+003
1154.461, 5.216e+003
1155.688, 5.278e+003
1156.915, 5.384e+003
1158.141, 5.282e+003
1159.368, 5.337e+003
1160.594, 5.377e+003
1161.820, 5.284e+003
1163.046, 5.396e+003
1164.272, 5.395e+003
1165.498, 5.402e+003
1166.723, 5.513e+003
1167.948, 5.380e+003
1169.173, 5.455e+003
1170.398, 5.518e+003
1171.623, 5.398e+003
1172.847, 5.540e+003
1174.071, 5.512e+003
1175.295, 5.461e+003
1176.519, 5.580e+003
1177.743, 5.433e+003
1178.966, 5.452e+003
1180.190, 5.486e+003
1181.413, 5.403e+003
1182.636, 5.576e+003
1183.858, 5.481e+003
1185.081, 5.414e+003
1186.303, 5.523e+003
1187.526, 5.434e+003
1188.748, 5.497e+003
1189.969, 5.494e+003
1191.191, 5.421e+003
1192.412, 5.449e+003
1193.634, 5.435e+003
1194.855, 5.409e+003
1196.076, 5.468e+003
1197.296, 5.335e+003
1198.517, 5.542e+003
1199.737, 5.540e+003
1200.957, 5.428e+003
1202.177, 5.598e+003
1203.397, 5.481e+003
1204.617, 5.392e+003
1205.836, 5.557e+003
1207.055, 5.332e+003
1208.274, 5.539e+003
1209.493, 5.477e+003
1210.712, 5.478e+003
1211.930, 5.565e+003
1213.148, 5.562e+003
1214.367, 5.591e+003
1215.584, 5.716e+003
1216.802, 5.532e+003
1218.020, 5.562e+003
1219.237, 5.656e+003
1220.454, 5.490e+003
1221.671, 5.582e+003
1222.888, 5.566e+003
1224.105, 5.543e+003
1225.321, 5.699e+003
1226.537, 5.532e+003
1227.753, 5.571e+003
1228.969, 5.640e+003
1230.185, 5.618e+003
1231.400, 5.785e+003
1232.616, 5.755e+003
1233.831, 5.700e+003
1235.046, 5.807e+003
1236.261, 5.744e+003
1237.475, 5.851e+003
1238.689, 5.992e+003
1239.904, 5.798e+003
1241.118, 5.914e+003
1242.332, 5.819e+003
1243.545, 5.780e+003
1244.759, 5.921e+003
1245.972, 5.904e+003
1247.185, 5.891e+003
1248.398, 5.989e+003
1249.611, 5.817e+003
1250.823, 5.879e+003
1252.036, 5.845e+003
1253.248, 5.801e+003
1254.460, 5.862e+003
1255.671, 5.794e+003
1256.883, 5.852e+003
1258.095, 5.957e+003
1259.306, 5.774e+003
1260.517, 5.963e+003
1261.728, 5.989e+003
1262.938, 5.847e+003
1264.149, 6.036e+003
1265.359, 5.968e+003
1266.569, 6.004e+003
1267.779, 6.190e+003
1268.989, 6.028e+003
1270.199, 6.185e+003
1271.408, 6.272e+003
1272.617, 6.066e+003
1273.826, 6.191e+003
1275.035, 6.125e+003
1276.244, 6.094e+003
1277.452, 6.173e+003
1278.661, 5.940e+003
1279.869, 5.913e+003
1281.077, 6.071e+003
1282.285, 5.835e+003
1283.492, 5.974e+003
1284.700, 5.921e+003
1285.907, 5.880e+003
1287.114, 6.017e+003
1288.321, 5.914e+003
1289.527, 5.949e+003
1290.734, 6.090e+003
1291.940, 6.056e+003
1293.146, 6.152e+003
1294.352, 6.181e+003
1295.558, 5.975e+003
1296.763, 6.146e+003
1297.969, 6.031e+003
1299.174, 5.904e+003
1300.379, 6.097e+003
1301.584, 5.912e+003
1302.788, 6.044e+003
1303.993, 6.115e+003
1305.197, 6.001e+003
1306.401, 6.322e+003
1307.605, 6.249e+003
1308.809, 6.195e+003
1310.013, 6.464e+003
1311.216, 6.192e+003
1312.419, 6.308e+003
1313.622, 6.275e+003
1314.825, 6.213e+003
1316.028, 6.384e+003
1317.230, 6.351e+003
1318.432, 6.306e+003
1319.634, 6.489e+003
1320.836, 6.299e+003
1322.038, 6.292e+003
1323.240, 6.362e+003
1324.441, 6.206e+003
1325.642, 6.313e+003
1326.843, 6.219e+003
1328.044, 6.051e+003
1329.245, 6.076e+003
1330.445, 5.973e+003
1331.645, 5.962e+003
1332.845, 6.028e+003
1334.045, 5.819e+003
1335.245, 5.833e+003
1336.445, 5.922e+003
1337.644, 5.842e+003
1338.843, 5.856e+003
1340.042, 5.933e+003
1341.241, 5.836e+003
1342.440, 5.922e+003
1343.638, 5.980e+003
1344.836, 5.821e+003
1346.034, 6.028e+003
1347.232, 5.918e+003
1348.430, 5.916e+003
1349.628, 5.929e+003
1350.825, 5.831e+003
1352.022, 5.952e+003
1353.219, 5.950e+003
1354.416, 5.840e+003
1355.613, 6.004e+003
1356.809, 5.872e+003
1358.005, 5.840e+003
1359.202, 5.922e+003
1360.398, 5.952e+003
1361.593, 5.954e+003
1362.789, 5.988e+003
1363.984, 5.919e+003
1365.179, 6.058e+003
1366.374, 5.974e+003
1367.569, 5.929e+003
1368.764, 6.026e+003
1369.958, 6.004e+003
1371.153, 5.971e+003
1372.347, 6.133e+003
1373.541, 6.028e+003
1374.735, 6.078e+003
1375.928, 6.200e+003
1377.122, 6.117e+003
1378.315, 6.245e+003
1379.508, 6.146e+003
1380.701, 6.177e+003
1381.893, 6.243e+003
1383.086, 6.116e+003
1384.278, 6.165e+003
1385.470, 6.244e+003
1386.662, 6.100e+003
1387.854, 6.153e+003
1389.046, 6.196e+003
1390.237, 6.128e+003
1391.428, 6.166e+003
1392.619, 6.103e+003
1393.810, 6.133e+003
1395.001, 6.194e+003
1396.191, 6.027e+003
1397.382, 6.076e+003
1398.572, 6.090e+003
1399.762, 6.080e+003
1400.952, 6.077e+003
1402.141, 6.097e+003
1403.331, 6.011e+003
1404.520, 6.194e+003
1405.709, 6.130e+003
1406.898, 6.117e+003
1408.087, 6.166e+003
1409.275, 6.106e+003
1410.464, 6.104e+003
1411.652, 6.269e+003
1412.840, 6.167e+003
1414.028, 6.223e+003
1415.215, 6.213e+003
1416.403, 6.158e+003
1417.590, 6.238e+003
1418.777, 6.234e+003
1419.964, 6.178e+003
1421.151, 6.305e+003
1422.338, 6.239e+003
1423.524, 6.343e+003
1424.710, 6.315e+003
1425.896, 6.272e+003
1427.082, 6.398e+003
1428.268, 6.487e+003
1429.453, 6.352e+003
1430.639, 6.587e+003
1431.824, 6.567e+003
1433.009, 6.614e+003
1434.194, 6.845e+003
1435.378, 6.745e+003
1436.563, 6.960e+003
1437.747, 7.247e+003
1438.931, 7.192e+003
1440.115, 7.522e+003
1441.299, 7.642e+003
1442.482, 7.603e+003
1443.666, 7.881e+003
1444.849, 7.655e+003
1446.032, 7.717e+003
1447.215, 8.114e+003
1448.397, 7.940e+003
1449.580, 8.039e+003
1450.762, 8.378e+003
1451.944, 7.996e+003
1453.126, 8.330e+003
1454.308, 8.262e+003
1455.490, 8.118e+003
1456.671, 8.362e+003
1457.852, 8.156e+003
1459.033, 8.046e+003
1460.214, 8.235e+003
1461.395, 7.792e+003
1462.575, 7.763e+003
1463.756, 7.822e+003
1464.936, 7.507e+003
1466.116, 7.562e+003
1467.296, 7.367e+003
1468.475, 7.198e+003
1469.655, 7.246e+003
1470.834, 7.128e+003
1472.013, 7.000e+003
1473.192, 7.216e+003
1474.371, 6.940e+003
1475.550, 7.044e+003
1476.728, 6.946e+003
1477.906, 6.893e+003
1479.084, 6.831e+003
1480.262, 6.999e+003
1481.440, 6.850e+003
1482.617, 6.994e+003
1483.795, 6.866e+003
1484.972, 6.797e+003
1486.149, 6.817e+003
1487.326, 6.758e+003
1488.502, 6.669e+003
1489.679, 6.702e+003
1490.855, 6.535e+003
1492.031, 6.537e+003
1493.207, 6.575e+003
1494.383, 6.421e+003
1495.559, 6.400e+003
1496.734, 6.462e+003
1497.909, 6.323e+003
1499.084, 6.354e+003
1500.259, 6.382e+003
1501.434, 6.368e+003
1502.608, 6.398e+003
1503.783, 6.627e+003
1504.957, 1.860e+002
##END=



