##NAMES=Danburite
##RRUFFID=R040013
##IDEAL CHEMISTRY=CaB_2_Si_2_O_8_
##LOCALITY=Charcas, San Luis Potosi, Mexico
##OWNER=RRUFF
##SOURCE=Marcus Origlieri
##DESCRIPTION=Colorless prismatic single crystal
##STATUS=The identification of this mineral has been confirmed by X-ray diffraction and chemical analysis
##URL=rruff.info/R040013
##MEASURED CHEMISTRY=Ca_1.00_B_2.00_Si_2.00_O_8_
##PIN_ID=M00012
##ORIENTATION=Laser parallel to c* (0 0 1). Fiducial mark perpendicular to laser is parallel to a [1 0 0]
26.288, 2.139e+003
27.694, 2.109e+003
29.099, 2.118e+003
30.504, 2.032e+003
31.909, 2.045e+003
33.313, 2.003e+003
34.717, 1.953e+003
36.121, 1.965e+003
37.525, 1.942e+003
38.929, 1.948e+003
40.332, 1.928e+003
41.735, 1.892e+003
43.138, 1.902e+003
44.541, 1.871e+003
45.943, 1.849e+003
47.345, 1.814e+003
48.747, 1.816e+003
50.149, 1.834e+003
51.551, 1.814e+003
52.952, 1.829e+003
54.353, 1.781e+003
55.754, 1.779e+003
57.155, 1.818e+003
58.555, 1.852e+003
59.955, 1.821e+003
61.355, 1.822e+003
62.755, 1.809e+003
64.154, 1.792e+003
65.553, 1.690e+003
66.952, 1.657e+003
68.351, 1.582e+003
69.750, 1.542e+003
71.148, 1.495e+003
72.546, 1.489e+003
73.944, 1.434e+003
75.342, 1.422e+003
76.739, 1.431e+003
78.136, 1.460e+003
79.533, 1.433e+003
80.930, 1.438e+003
82.327, 1.463e+003
83.723, 1.543e+003
85.119, 1.611e+003
86.515, 1.676e+003
87.910, 1.790e+003
89.306, 1.938e+003
90.701, 1.989e+003
92.096, 2.223e+003
93.490, 2.310e+003
94.885, 2.602e+003
96.279, 2.697e+003
97.673, 2.950e+003
99.067, 3.073e+003
100.461, 3.168e+003
101.854, 3.417e+003
103.247, 3.345e+003
104.640, 3.659e+003
106.032, 3.513e+003
107.425, 3.730e+003
108.817, 3.820e+003
110.209, 4.214e+003
111.601, 7.061e+003
112.992, 1.064e+004
114.384, 5.825e+003
115.775, 5.182e+003
117.166, 6.210e+003
118.556, 6.289e+003
119.947, 6.199e+003
121.337, 7.111e+003
122.727, 8.529e+003
124.116, 9.939e+003
125.506, 8.946e+003
126.895, 7.687e+003
128.284, 7.116e+003
129.673, 6.544e+003
131.062, 5.761e+003
132.450, 4.839e+003
133.838, 4.742e+003
135.226, 4.816e+003
136.614, 5.775e+003
138.001, 6.894e+003
139.388, 7.188e+003
140.775, 6.231e+003
142.162, 4.795e+003
143.549, 4.107e+003
144.935, 3.599e+003
146.321, 3.425e+003
147.707, 3.291e+003
149.093, 3.127e+003
150.478, 3.166e+003
151.863, 3.039e+003
153.248, 3.117e+003
154.633, 3.012e+003
156.018, 3.130e+003
157.402, 3.121e+003
158.786, 3.294e+003
160.170, 3.820e+003
161.554, 4.127e+003
162.937, 5.354e+003
164.320, 7.289e+003
165.703, 8.692e+003
167.086, 7.232e+003
168.469, 5.173e+003
169.851, 4.144e+003
171.233, 3.440e+003
172.615, 3.304e+003
173.996, 3.216e+003
175.378, 3.188e+003
176.759, 3.167e+003
178.140, 3.121e+003
179.521, 3.367e+003
180.901, 3.479e+003
182.281, 3.593e+003
183.662, 3.556e+003
185.041, 3.734e+003
186.421, 4.102e+003
187.800, 4.790e+003
189.180, 6.077e+003
190.558, 7.090e+003
191.937, 6.803e+003
193.316, 5.566e+003
194.694, 4.457e+003
196.072, 3.876e+003
197.450, 3.495e+003
198.827, 3.407e+003
200.205, 3.283e+003
201.582, 3.438e+003
202.959, 3.517e+003
204.336, 3.870e+003
205.712, 4.379e+003
207.088, 5.004e+003
208.465, 6.461e+003
209.840, 8.151e+003
211.216, 8.852e+003
212.591, 7.753e+003
213.967, 5.886e+003
215.341, 4.749e+003
216.716, 3.953e+003
218.091, 3.648e+003
219.465, 3.350e+003
220.839, 3.291e+003
222.213, 3.269e+003
223.586, 3.148e+003
224.960, 3.254e+003
226.333, 3.144e+003
227.706, 3.294e+003
229.079, 3.250e+003
230.451, 3.352e+003
231.823, 3.529e+003
233.195, 3.608e+003
234.567, 3.982e+003
235.939, 4.316e+003
237.310, 5.139e+003
238.682, 6.375e+003
240.052, 8.452e+003
241.423, 1.175e+004
242.794, 1.667e+004
244.164, 2.234e+004
245.534, 2.370e+004
246.904, 1.983e+004
248.274, 1.461e+004
249.643, 1.044e+004
251.012, 7.959e+003
252.381, 6.316e+003
253.750, 5.374e+003
255.118, 4.801e+003
256.487, 4.486e+003
257.855, 4.210e+003
259.223, 3.950e+003
260.590, 3.779e+003
261.958, 3.581e+003
263.325, 3.461e+003
264.692, 3.326e+003
266.059, 3.324e+003
267.425, 3.338e+003
268.791, 3.289e+003
270.158, 3.420e+003
271.523, 3.539e+003
272.889, 3.935e+003
274.255, 4.378e+003
275.620, 5.220e+003
276.985, 6.094e+003
278.350, 6.045e+003
279.714, 5.305e+003
281.078, 4.367e+003
282.443, 3.730e+003
283.806, 3.344e+003
285.170, 3.096e+003
286.534, 3.025e+003
287.897, 2.887e+003
289.260, 2.907e+003
290.623, 2.870e+003
291.985, 2.857e+003
293.348, 2.843e+003
294.710, 2.825e+003
296.072, 2.857e+003
297.433, 2.803e+003
298.795, 2.842e+003
300.156, 2.897e+003
301.517, 2.893e+003
302.878, 2.946e+003
304.239, 2.930e+003
305.599, 3.068e+003
306.959, 3.164e+003
308.319, 3.372e+003
309.679, 3.644e+003
311.038, 3.857e+003
312.398, 3.910e+003
313.757, 3.734e+003
315.116, 3.534e+003
316.474, 3.300e+003
317.833, 3.148e+003
319.191, 3.030e+003
320.549, 2.908e+003
321.907, 2.878e+003
323.264, 2.830e+003
324.622, 2.846e+003
325.979, 2.851e+003
327.336, 2.870e+003
328.692, 2.859e+003
330.049, 2.846e+003
331.405, 2.942e+003
332.761, 2.952e+003
334.117, 3.017e+003
335.473, 3.091e+003
336.828, 3.020e+003
338.183, 3.090e+003
339.538, 3.176e+003
340.893, 3.296e+003
342.247, 3.725e+003
343.602, 4.197e+003
344.956, 5.151e+003
346.310, 6.168e+003
347.663, 6.906e+003
349.017, 6.457e+003
350.370, 5.389e+003
351.723, 4.539e+003
353.076, 3.896e+003
354.428, 3.561e+003
355.780, 3.264e+003
357.133, 3.172e+003
358.484, 3.014e+003
359.836, 2.905e+003
361.188, 2.945e+003
362.539, 2.843e+003
363.890, 2.840e+003
365.241, 2.851e+003
366.591, 2.826e+003
367.942, 2.809e+003
369.292, 2.762e+003
370.642, 2.820e+003
371.992, 2.763e+003
373.341, 2.784e+003
374.691, 2.747e+003
376.040, 2.804e+003
377.388, 2.767e+003
378.737, 2.776e+003
380.086, 2.804e+003
381.434, 2.800e+003
382.782, 2.817e+003
384.130, 2.836e+003
385.477, 2.858e+003
386.825, 2.894e+003
388.172, 2.897e+003
389.519, 2.918e+003
390.865, 2.963e+003
392.212, 2.954e+003
393.558, 2.992e+003
394.904, 2.920e+003
396.250, 2.975e+003
397.596, 2.975e+003
398.941, 2.977e+003
400.286, 3.073e+003
401.631, 3.151e+003
402.976, 3.424e+003
404.321, 3.608e+003
405.665, 3.880e+003
407.009, 3.832e+003
408.353, 3.609e+003
409.697, 3.495e+003
411.040, 3.333e+003
412.384, 3.316e+003
413.727, 3.376e+003
415.070, 3.474e+003
416.412, 3.626e+003
417.755, 3.879e+003
419.097, 4.226e+003
420.439, 4.627e+003
421.781, 5.205e+003
423.122, 5.722e+003
424.464, 5.833e+003
425.805, 5.724e+003
427.146, 5.119e+003
428.486, 4.442e+003
429.827, 4.043e+003
431.167, 3.644e+003
432.507, 3.545e+003
433.847, 3.462e+003
435.187, 3.634e+003
436.526, 3.840e+003
437.865, 4.352e+003
439.204, 5.043e+003
440.543, 5.540e+003
441.882, 5.775e+003
443.220, 5.256e+003
444.558, 4.535e+003
445.896, 4.139e+003
447.234, 3.706e+003
448.572, 3.518e+003
449.909, 3.329e+003
451.246, 3.299e+003
452.583, 3.296e+003
453.919, 3.266e+003
455.256, 3.380e+003
456.592, 3.399e+003
457.928, 3.653e+003
459.264, 3.798e+003
460.600, 3.904e+003
461.935, 4.001e+003
463.270, 3.773e+003
464.605, 3.686e+003
465.940, 3.439e+003
467.274, 3.350e+003
468.609, 3.223e+003
469.943, 3.174e+003
471.277, 3.193e+003
472.610, 3.132e+003
473.944, 3.317e+003
475.277, 3.485e+003
476.610, 3.725e+003
477.943, 4.196e+003
479.275, 4.494e+003
480.608, 4.533e+003
481.940, 4.204e+003
483.272, 3.661e+003
484.604, 3.424e+003
485.935, 3.233e+003
487.267, 3.145e+003
488.598, 3.028e+003
489.929, 3.017e+003
491.260, 2.975e+003
492.590, 2.929e+003
493.920, 2.974e+003
495.250, 2.937e+003
496.580, 2.928e+003
497.910, 2.961e+003
499.239, 2.904e+003
500.569, 2.921e+003
501.898, 2.957e+003
503.226, 2.932e+003
504.555, 2.920e+003
505.883, 2.953e+003
507.212, 2.990e+003
508.540, 2.975e+003
509.867, 3.020e+003
511.195, 2.943e+003
512.522, 3.012e+003
513.849, 3.004e+003
515.176, 2.973e+003
516.503, 3.102e+003
517.829, 3.009e+003
519.156, 3.046e+003
520.482, 3.083e+003
521.808, 3.023e+003
523.133, 3.118e+003
524.459, 3.021e+003
525.784, 3.072e+003
527.109, 3.110e+003
528.434, 3.105e+003
529.758, 3.168e+003
531.083, 3.002e+003
532.407, 3.142e+003
533.731, 3.080e+003
535.055, 3.065e+003
536.378, 3.093e+003
537.701, 3.052e+003
539.025, 3.070e+003
540.348, 3.033e+003
541.670, 3.056e+003
542.993, 3.154e+003
544.315, 3.114e+003
545.637, 3.131e+003
546.959, 3.131e+003
548.281, 3.151e+003
549.602, 3.198e+003
550.923, 3.124e+003
552.244, 3.200e+003
553.565, 3.152e+003
554.886, 3.238e+003
556.206, 3.279e+003
557.526, 3.238e+003
558.846, 3.324e+003
560.166, 3.417e+003
561.486, 3.495e+003
562.805, 3.513e+003
564.124, 3.489e+003
565.443, 3.467e+003
566.762, 3.359e+003
568.080, 3.335e+003
569.399, 3.405e+003
570.717, 3.389e+003
572.035, 3.422e+003
573.352, 3.413e+003
574.670, 3.439e+003
575.987, 3.467e+003
577.304, 3.511e+003
578.621, 3.604e+003
579.938, 3.674e+003
581.254, 3.868e+003
582.570, 3.899e+003
583.886, 3.941e+003
585.202, 3.969e+003
586.518, 4.032e+003
587.833, 4.092e+003
589.148, 4.149e+003
590.463, 4.230e+003
591.778, 4.342e+003
593.093, 4.429e+003
594.407, 4.662e+003
595.721, 4.873e+003
597.035, 5.174e+003
598.349, 5.727e+003
599.662, 6.295e+003
600.976, 7.101e+003
602.289, 8.392e+003
603.602, 1.019e+004
604.914, 1.314e+004
606.227, 1.715e+004
607.539, 2.281e+004
608.851, 2.741e+004
610.163, 2.924e+004
611.475, 2.691e+004
612.786, 2.234e+004
614.097, 1.783e+004
615.408, 1.377e+004
616.719, 1.122e+004
618.030, 9.466e+003
619.340, 8.151e+003
620.651, 7.588e+003
621.961, 7.217e+003
623.270, 7.507e+003
624.580, 7.968e+003
625.889, 8.729e+003
627.199, 9.436e+003
628.507, 9.245e+003
629.816, 8.492e+003
631.125, 7.473e+003
632.433, 6.502e+003
633.741, 5.996e+003
635.049, 5.446e+003
636.357, 5.250e+003
637.664, 4.966e+003
638.972, 4.708e+003
640.279, 4.604e+003
641.586, 4.559e+003
642.893, 4.481e+003
644.199, 4.439e+003
645.505, 4.338e+003
646.811, 4.353e+003
648.117, 4.194e+003
649.423, 4.280e+003
650.728, 4.201e+003
652.034, 4.119e+003
653.339, 4.205e+003
654.644, 3.981e+003
655.948, 3.963e+003
657.253, 3.909e+003
658.557, 3.798e+003
659.861, 3.747e+003
661.165, 3.644e+003
662.468, 3.637e+003
663.772, 3.594e+003
665.075, 3.586e+003
666.378, 3.588e+003
667.681, 3.503e+003
668.983, 3.587e+003
670.286, 3.542e+003
671.588, 3.483e+003
672.890, 3.509e+003
674.192, 3.402e+003
675.493, 3.509e+003
676.795, 3.479e+003
678.096, 3.438e+003
679.397, 3.501e+003
680.697, 3.392e+003
681.998, 3.470e+003
683.298, 3.474e+003
684.598, 3.393e+003
685.898, 3.461e+003
687.198, 3.404e+003
688.498, 3.446e+003
689.797, 3.422e+003
691.096, 3.466e+003
692.395, 3.418e+003
693.694, 3.392e+003
694.992, 3.443e+003
696.290, 3.480e+003
697.589, 3.402e+003
698.886, 3.437e+003
700.184, 3.454e+003
701.482, 3.482e+003
702.779, 3.420e+003
704.076, 3.422e+003
705.373, 3.416e+003
706.669, 3.449e+003
707.966, 3.489e+003
709.262, 3.435e+003
710.558, 3.463e+003
711.854, 3.524e+003
713.150, 3.396e+003
714.445, 3.456e+003
715.740, 3.492e+003
717.035, 3.459e+003
718.330, 3.505e+003
719.625, 3.482e+003
720.919, 3.566e+003
722.214, 3.508e+003
723.508, 3.554e+003
724.801, 3.558e+003
726.095, 3.579e+003
727.388, 3.589e+003
728.682, 3.627e+003
729.975, 3.634e+003
731.267, 3.630e+003
732.560, 3.607e+003
733.852, 3.660e+003
735.145, 3.588e+003
736.437, 3.662e+003
737.728, 3.648e+003
739.020, 3.644e+003
740.311, 3.673e+003
741.603, 3.666e+003
742.894, 3.671e+003
744.184, 3.714e+003
745.475, 3.724e+003
746.765, 3.748e+003
748.055, 3.848e+003
749.345, 3.818e+003
750.635, 3.834e+003
751.925, 3.771e+003
753.214, 3.808e+003
754.503, 3.825e+003
755.792, 3.706e+003
757.081, 3.859e+003
758.370, 3.699e+003
759.658, 3.788e+003
760.946, 3.823e+003
762.234, 3.848e+003
763.522, 3.820e+003
764.809, 3.860e+003
766.097, 3.938e+003
767.384, 3.955e+003
768.671, 3.927e+003
769.958, 4.093e+003
771.244, 4.089e+003
772.530, 4.208e+003
773.817, 4.192e+003
775.102, 4.188e+003
776.388, 4.160e+003
777.674, 4.051e+003
778.959, 4.015e+003
780.244, 3.958e+003
781.529, 3.928e+003
782.814, 4.046e+003
784.098, 3.934e+003
785.383, 3.921e+003
786.667, 3.944e+003
787.951, 3.941e+003
789.235, 4.037e+003
790.518, 4.008e+003
791.801, 3.993e+003
793.084, 4.038e+003
794.367, 4.002e+003
795.650, 3.988e+003
796.933, 3.986e+003
798.215, 3.930e+003
799.497, 3.993e+003
800.779, 3.925e+003
802.061, 3.989e+003
803.342, 3.987e+003
804.624, 3.925e+003
805.905, 3.982e+003
807.186, 3.957e+003
808.466, 4.002e+003
809.747, 3.961e+003
811.027, 3.952e+003
812.307, 4.018e+003
813.587, 3.924e+003
814.867, 3.992e+003
816.146, 3.996e+003
817.426, 4.013e+003
818.705, 4.066e+003
819.984, 4.006e+003
821.263, 3.970e+003
822.541, 4.047e+003
823.819, 4.020e+003
825.098, 4.116e+003
826.375, 4.102e+003
827.653, 4.048e+003
828.931, 4.105e+003
830.208, 4.121e+003
831.485, 4.201e+003
832.762, 4.134e+003
834.039, 4.122e+003
835.315, 4.272e+003
836.592, 4.207e+003
837.868, 4.240e+003
839.144, 4.262e+003
840.420, 4.279e+003
841.695, 4.393e+003
842.970, 4.328e+003
844.246, 4.377e+003
845.521, 4.431e+003
846.795, 4.373e+003
848.070, 4.567e+003
849.344, 4.460e+003
850.618, 4.466e+003
851.892, 4.579e+003
853.166, 4.484e+003
854.440, 4.663e+003
855.713, 4.596e+003
856.986, 4.674e+003
858.259, 4.807e+003
859.532, 4.826e+003
860.804, 4.865e+003
862.077, 4.908e+003
863.349, 4.760e+003
864.621, 4.845e+003
865.893, 4.658e+003
867.164, 4.669e+003
868.436, 4.714e+003
869.707, 4.577e+003
870.978, 4.683e+003
872.248, 4.551e+003
873.519, 4.612e+003
874.789, 4.589e+003
876.060, 4.617e+003
877.330, 4.730e+003
878.599, 4.667e+003
879.869, 4.663e+003
881.138, 4.699e+003
882.408, 4.645e+003
883.677, 4.659e+003
884.945, 4.684e+003
886.214, 4.635e+003
887.482, 4.773e+003
888.751, 4.702e+003
890.019, 4.752e+003
891.287, 4.806e+003
892.554, 4.805e+003
893.822, 4.910e+003
895.089, 4.976e+003
896.356, 5.047e+003
897.623, 5.220e+003
898.889, 5.213e+003
900.156, 5.313e+003
901.422, 5.307e+003
902.688, 5.383e+003
903.954, 5.446e+003
905.220, 5.346e+003
906.485, 5.463e+003
907.750, 5.356e+003
909.015, 5.287e+003
910.280, 5.368e+003
911.545, 5.154e+003
912.809, 5.271e+003
914.074, 5.255e+003
915.338, 5.210e+003
916.602, 5.233e+003
917.865, 5.041e+003
919.129, 5.093e+003
920.392, 5.022e+003
921.655, 4.801e+003
922.918, 4.928e+003
924.181, 4.794e+003
925.443, 4.791e+003
926.706, 4.795e+003
927.968, 4.701e+003
929.230, 4.802e+003
930.491, 4.835e+003
931.753, 4.772e+003
933.014, 4.922e+003
934.276, 4.852e+003
935.536, 4.902e+003
936.797, 4.989e+003
938.058, 4.930e+003
939.318, 5.051e+003
940.578, 5.073e+003
941.838, 5.258e+003
943.098, 5.384e+003
944.358, 5.392e+003
945.617, 5.684e+003
946.876, 5.703e+003
948.135, 5.798e+003
949.394, 5.846e+003
950.653, 5.632e+003
951.911, 5.665e+003
953.169, 5.546e+003
954.427, 5.344e+003
955.685, 5.384e+003
956.943, 5.218e+003
958.200, 5.180e+003
959.458, 5.220e+003
960.715, 5.093e+003
961.971, 5.269e+003
963.228, 5.207e+003
964.485, 5.258e+003
965.741, 5.510e+003
966.997, 5.561e+003
968.253, 5.957e+003
969.508, 6.151e+003
970.764, 6.562e+003
972.019, 7.029e+003
973.274, 7.148e+003
974.529, 7.118e+003
975.784, 6.760e+003
977.039, 6.344e+003
978.293, 6.065e+003
979.547, 5.759e+003
980.801, 5.622e+003
982.055, 5.506e+003
983.308, 5.368e+003
984.562, 5.446e+003
985.815, 5.313e+003
987.068, 5.335e+003
988.321, 5.404e+003
989.573, 5.150e+003
990.826, 5.206e+003
992.078, 5.128e+003
993.330, 5.069e+003
994.582, 5.196e+003
995.833, 5.244e+003
997.085, 5.273e+003
998.336, 5.470e+003
999.587, 5.642e+003
1000.838, 6.151e+003
1002.088, 6.176e+003
1003.339, 6.021e+003
1004.589, 6.171e+003
1005.839, 6.056e+003
1007.089, 6.315e+003
1008.339, 6.272e+003
1009.588, 6.126e+003
1010.838, 6.092e+003
1012.087, 5.716e+003
1013.336, 5.617e+003
1014.584, 5.515e+003
1015.833, 5.328e+003
1017.081, 5.527e+003
1018.330, 5.511e+003
1019.577, 5.589e+003
1020.825, 5.868e+003
1022.073, 5.828e+003
1023.320, 5.990e+003
1024.567, 6.087e+003
1025.814, 6.038e+003
1027.061, 6.212e+003
1028.308, 6.082e+003
1029.554, 5.958e+003
1030.800, 5.951e+003
1032.046, 5.731e+003
1033.292, 5.639e+003
1034.538, 5.418e+003
1035.783, 5.279e+003
1037.029, 5.346e+003
1038.274, 5.146e+003
1039.519, 5.191e+003
1040.763, 5.114e+003
1042.008, 5.090e+003
1043.252, 5.124e+003
1044.496, 5.069e+003
1045.740, 5.058e+003
1046.984, 5.163e+003
1048.228, 5.072e+003
1049.471, 5.153e+003
1050.714, 5.118e+003
1051.957, 5.100e+003
1053.200, 5.167e+003
1054.442, 5.086e+003
1055.685, 5.196e+003
1056.927, 5.137e+003
1058.169, 5.065e+003
1059.411, 5.134e+003
1060.652, 5.167e+003
1061.894, 5.083e+003
1063.135, 5.168e+003
1064.376, 5.141e+003
1065.617, 5.248e+003
1066.858, 5.229e+003
1068.098, 5.113e+003
1069.339, 5.387e+003
1070.579, 5.290e+003
1071.819, 5.429e+003
1073.058, 5.584e+003
1074.298, 5.569e+003
1075.537, 5.781e+003
1076.776, 5.867e+003
1078.015, 5.978e+003
1079.254, 6.142e+003
1080.493, 6.099e+003
1081.731, 6.226e+003
1082.969, 6.258e+003
1084.207, 6.061e+003
1085.445, 6.057e+003
1086.683, 5.996e+003
1087.920, 5.844e+003
1089.157, 5.969e+003
1090.394, 5.978e+003
1091.631, 6.090e+003
1092.868, 6.069e+003
1094.105, 6.102e+003
1095.341, 6.292e+003
1096.577, 6.298e+003
1097.813, 6.440e+003
1099.049, 6.720e+003
1100.284, 6.875e+003
1101.519, 7.098e+003
1102.755, 7.332e+003
1103.990, 7.526e+003
1105.224, 7.833e+003
1106.459, 7.778e+003
1107.693, 7.881e+003
1108.928, 7.775e+003
1110.162, 7.579e+003
1111.395, 7.472e+003
1112.629, 7.166e+003
1113.863, 6.875e+003
1115.096, 6.778e+003
1116.329, 6.505e+003
1117.562, 6.414e+003
1118.795, 6.357e+003
1120.027, 6.173e+003
1121.259, 6.234e+003
1122.492, 6.115e+003
1123.723, 5.915e+003
1124.955, 5.971e+003
1126.187, 5.840e+003
1127.418, 5.867e+003
1128.649, 5.849e+003
1129.880, 5.694e+003
1131.111, 5.754e+003
1132.342, 5.656e+003
1133.572, 5.597e+003
1134.802, 5.678e+003
1136.033, 5.555e+003
1137.262, 5.532e+003
1138.492, 5.492e+003
1139.722, 5.403e+003
1140.951, 5.496e+003
1142.180, 5.470e+003
1143.409, 5.348e+003
1144.638, 5.384e+003
1145.866, 5.308e+003
1147.095, 5.458e+003
1148.323, 5.503e+003
1149.551, 5.365e+003
1150.779, 5.468e+003
1152.006, 5.394e+003
1153.234, 5.428e+003
1154.461, 5.508e+003
1155.688, 5.432e+003
1156.915, 5.571e+003
1158.141, 5.602e+003
1159.368, 5.633e+003
1160.594, 5.765e+003
1161.820, 5.708e+003
1163.046, 5.747e+003
1164.272, 5.890e+003
1165.498, 5.849e+003
1166.723, 6.054e+003
1167.948, 6.087e+003
1169.173, 6.150e+003
1170.398, 6.419e+003
1171.623, 6.410e+003
1172.847, 6.577e+003
1174.071, 6.667e+003
1175.295, 6.548e+003
1176.519, 6.669e+003
1177.743, 6.584e+003
1178.966, 6.439e+003
1180.190, 6.372e+003
1181.413, 6.260e+003
1182.636, 6.136e+003
1183.858, 6.139e+003
1185.081, 5.885e+003
1186.303, 5.956e+003
1187.526, 5.942e+003
1188.748, 5.782e+003
1189.969, 5.888e+003
1191.191, 5.655e+003
1192.412, 5.699e+003
1193.634, 5.764e+003
1194.855, 5.677e+003
1196.076, 5.680e+003
1197.296, 5.642e+003
1198.517, 5.586e+003
1199.737, 5.664e+003
1200.957, 5.718e+003
1202.177, 5.610e+003
1203.397, 5.727e+003
1204.617, 5.547e+003
1205.836, 5.673e+003
1207.055, 5.629e+003
1208.274, 5.574e+003
1209.493, 5.645e+003
1210.712, 5.663e+003
1211.930, 5.631e+003
1213.148, 5.768e+003
1214.367, 5.699e+003
1215.584, 5.699e+003
1216.802, 5.798e+003
1218.020, 5.662e+003
1219.237, 5.790e+003
1220.454, 5.650e+003
1221.671, 5.612e+003
1222.888, 5.677e+003
1224.105, 5.622e+003
1225.321, 5.723e+003
1226.537, 5.692e+003
1227.753, 5.627e+003
1228.969, 5.774e+003
1230.185, 5.684e+003
1231.400, 5.748e+003
1232.616, 5.836e+003
1233.831, 5.701e+003
1235.046, 5.931e+003
1236.261, 5.969e+003
1237.475, 5.858e+003
1238.689, 6.019e+003
1239.904, 5.947e+003
1241.118, 5.931e+003
1242.332, 5.977e+003
1243.545, 5.872e+003
1244.759, 5.868e+003
1245.972, 6.006e+003
1247.185, 5.891e+003
1248.398, 6.122e+003
1249.611, 5.997e+003
1250.823, 5.927e+003
1252.036, 6.078e+003
1253.248, 5.894e+003
1254.460, 5.944e+003
1255.671, 6.028e+003
1256.883, 5.791e+003
1258.095, 6.000e+003
1259.306, 5.933e+003
1260.517, 5.888e+003
1261.728, 6.100e+003
1262.938, 5.972e+003
1264.149, 6.038e+003
1265.359, 6.188e+003
1266.569, 6.101e+003
1267.779, 6.312e+003
1268.989, 6.267e+003
1270.199, 6.132e+003
1271.408, 6.346e+003
1272.617, 6.300e+003
1273.826, 6.192e+003
1275.035, 6.356e+003
1276.244, 6.207e+003
1277.452, 6.225e+003
1278.661, 6.180e+003
1279.869, 5.959e+003
1281.077, 6.189e+003
1282.285, 6.022e+003
1283.492, 5.974e+003
1284.700, 6.122e+003
1285.907, 5.954e+003
1287.114, 6.065e+003
1288.321, 6.077e+003
1289.527, 5.984e+003
1290.734, 6.158e+003
1291.940, 6.132e+003
1293.146, 6.094e+003
1294.352, 6.392e+003
1295.558, 6.127e+003
1296.763, 6.179e+003
1297.969, 6.212e+003
1299.174, 6.009e+003
1300.379, 6.182e+003
1301.584, 6.124e+003
1302.788, 6.025e+003
1303.993, 6.220e+003
1305.197, 6.137e+003
1306.401, 6.189e+003
1307.605, 6.355e+003
1308.809, 6.216e+003
1310.013, 6.416e+003
1311.216, 6.425e+003
1312.419, 6.337e+003
1313.622, 6.430e+003
1314.825, 6.427e+003
1316.028, 6.382e+003
1317.230, 6.556e+003
1318.432, 6.378e+003
1319.634, 6.444e+003
1320.836, 6.582e+003
1322.038, 6.342e+003
1323.240, 6.474e+003
1324.441, 6.368e+003
1325.642, 6.199e+003
1326.843, 6.361e+003
1328.044, 6.150e+003
1329.245, 6.104e+003
1330.445, 6.169e+003
1331.645, 6.039e+003
1332.845, 6.051e+003
1334.045, 6.041e+003
1335.245, 5.901e+003
1336.445, 6.033e+003
1337.644, 6.004e+003
1338.843, 5.936e+003
1340.042, 6.079e+003
1341.241, 5.997e+003
1342.440, 5.978e+003
1343.638, 6.065e+003
1344.836, 6.007e+003
1346.034, 6.060e+003
1347.232, 6.087e+003
1348.430, 5.943e+003
1349.628, 6.046e+003
1350.825, 6.020e+003
1352.022, 6.025e+003
1353.219, 6.073e+003
1354.416, 6.029e+003
1355.613, 6.081e+003
1356.809, 6.090e+003
1358.005, 5.976e+003
1359.202, 6.066e+003
1360.398, 6.042e+003
1361.593, 6.043e+003
1362.789, 6.098e+003
1363.984, 5.965e+003
1365.179, 6.097e+003
1366.374, 6.160e+003
1367.569, 5.982e+003
1368.764, 6.116e+003
1369.958, 6.205e+003
1371.153, 6.028e+003
1372.347, 6.193e+003
1373.541, 6.130e+003
1374.735, 6.147e+003
1375.928, 6.329e+003
1377.122, 6.257e+003
1378.315, 6.196e+003
1379.508, 6.357e+003
1380.701, 6.262e+003
1381.893, 6.306e+003
1383.086, 6.321e+003
1384.278, 6.231e+003
1385.470, 6.327e+003
1386.662, 6.265e+003
1387.854, 6.258e+003
1389.046, 6.390e+003
1390.237, 6.250e+003
1391.428, 6.290e+003
1392.619, 6.377e+003
1393.810, 6.238e+003
1395.001, 6.205e+003
1396.191, 6.196e+003
1397.382, 6.083e+003
1398.572, 6.218e+003
1399.762, 6.203e+003
1400.952, 6.198e+003
1402.141, 6.336e+003
1403.331, 6.212e+003
1404.520, 6.231e+003
1405.709, 6.329e+003
1406.898, 6.184e+003
1408.087, 6.308e+003
1409.275, 6.376e+003
1410.464, 6.265e+003
1411.652, 6.351e+003
1412.840, 6.429e+003
1414.028, 6.326e+003
1415.215, 6.460e+003
1416.403, 6.275e+003
1417.590, 6.394e+003
1418.777, 6.488e+003
1419.964, 6.327e+003
1421.151, 6.462e+003
1422.338, 6.386e+003
1423.524, 6.378e+003
1424.710, 6.492e+003
1425.896, 6.402e+003
1427.082, 6.501e+003
1428.268, 6.662e+003
1429.453, 6.607e+003
1430.639, 6.650e+003
1431.824, 6.664e+003
1433.009, 6.699e+003
1434.194, 6.896e+003
1435.378, 6.960e+003
1436.563, 6.923e+003
1437.747, 7.247e+003
1438.931, 7.350e+003
1440.115, 7.546e+003
1441.299, 7.783e+003
1442.482, 7.651e+003
1443.666, 7.906e+003
1444.849, 8.067e+003
1446.032, 7.887e+003
1447.215, 8.228e+003
1448.397, 8.180e+003
1449.580, 8.042e+003
1450.762, 8.561e+003
1451.944, 8.300e+003
1453.126, 8.222e+003
1454.308, 8.588e+003
1455.490, 8.264e+003
1456.671, 8.330e+003
1457.852, 8.442e+003
1459.033, 8.145e+003
1460.214, 8.223e+003
1461.395, 8.125e+003
1462.575, 7.818e+003
1463.756, 7.934e+003
1464.936, 7.689e+003
1466.116, 7.553e+003
1467.296, 7.587e+003
1468.475, 7.400e+003
1469.655, 7.354e+003
1470.834, 7.370e+003
1472.013, 7.146e+003
1473.192, 7.217e+003
1474.371, 7.093e+003
1475.550, 7.077e+003
1476.728, 7.158e+003
1477.906, 7.106e+003
1479.084, 7.002e+003
1480.262, 7.135e+003
1481.440, 7.072e+003
1482.617, 7.089e+003
1483.795, 7.197e+003
1484.972, 6.983e+003
1486.149, 6.923e+003
1487.326, 7.009e+003
1488.502, 6.845e+003
1489.679, 6.854e+003
1490.855, 6.751e+003
1492.031, 6.662e+003
1493.207, 6.656e+003
1494.383, 6.606e+003
1495.559, 6.623e+003
1496.734, 6.638e+003
1497.909, 6.560e+003
1499.084, 6.524e+003
1500.259, 6.609e+003
1501.434, 6.500e+003
1502.608, 6.528e+003
1503.783, 6.785e+003
1504.957, 1.990e+002
##END=



