##NAMES=Danburite
##RRUFFID=R040013
##IDEAL CHEMISTRY=CaB_2_Si_2_O_8_
##LOCALITY=Charcas, San Luis Potosi, Mexico
##OWNER=RRUFF
##SOURCE=Marcus Origlieri
##DESCRIPTION=Colorless prismatic single crystal
##STATUS=The identification of this mineral has been confirmed by X-ray diffraction and chemical analysis
##URL=rruff.info/R040013
##MEASURED CHEMISTRY=Ca_1.00_B_2.00_Si_2.00_O_8_
##PIN_ID=M00009
##ORIENTATION=Laser parallel to b* (0 1 0). Fiducial mark perpendicular to laser is parallel to -c [0 0 -1]
26.288, 2.185e+003
27.694, 2.167e+003
29.099, 2.103e+003
30.504, 2.113e+003
31.909, 2.049e+003
33.313, 2.038e+003
34.717, 1.999e+003
36.121, 2.005e+003
37.525, 2.004e+003
38.929, 2.007e+003
40.332, 2.017e+003
41.735, 1.975e+003
43.138, 1.902e+003
44.541, 1.946e+003
45.943, 1.867e+003
47.345, 1.878e+003
48.747, 1.814e+003
50.149, 1.804e+003
51.551, 1.800e+003
52.952, 1.767e+003
54.353, 1.714e+003
55.754, 1.703e+003
57.155, 1.712e+003
58.555, 1.691e+003
59.955, 1.604e+003
61.355, 1.574e+003
62.755, 1.543e+003
64.154, 1.509e+003
65.553, 1.447e+003
66.952, 1.424e+003
68.351, 1.401e+003
69.750, 1.400e+003
71.148, 1.321e+003
72.546, 1.333e+003
73.944, 1.297e+003
75.342, 1.275e+003
76.739, 1.280e+003
78.136, 1.266e+003
79.533, 1.258e+003
80.930, 1.277e+003
82.327, 1.294e+003
83.723, 1.342e+003
85.119, 1.381e+003
86.515, 1.427e+003
87.910, 1.498e+003
89.306, 1.552e+003
90.701, 1.654e+003
92.096, 1.710e+003
93.490, 1.819e+003
94.885, 1.932e+003
96.279, 1.975e+003
97.673, 2.152e+003
99.067, 2.179e+003
100.461, 2.291e+003
101.854, 2.361e+003
103.247, 2.428e+003
104.640, 2.521e+003
106.032, 2.528e+003
107.425, 2.655e+003
108.817, 2.717e+003
110.209, 3.099e+003
111.601, 3.262e+003
112.992, 3.582e+003
114.384, 3.916e+003
115.775, 4.035e+003
117.166, 4.318e+003
118.556, 4.864e+003
119.947, 6.481e+003
121.337, 9.383e+003
122.727, 1.251e+004
124.116, 1.308e+004
125.506, 9.753e+003
126.895, 6.598e+003
128.284, 4.684e+003
129.673, 3.747e+003
131.062, 3.215e+003
132.450, 2.970e+003
133.838, 2.817e+003
135.226, 2.732e+003
136.614, 2.732e+003
138.001, 2.656e+003
139.388, 2.675e+003
140.775, 2.606e+003
142.162, 2.557e+003
143.549, 2.535e+003
144.935, 2.505e+003
146.321, 2.535e+003
147.707, 2.515e+003
149.093, 2.495e+003
150.478, 2.517e+003
151.863, 2.484e+003
153.248, 2.512e+003
154.633, 2.440e+003
156.018, 2.506e+003
157.402, 2.661e+003
158.786, 2.905e+003
160.170, 3.289e+003
161.554, 3.818e+003
162.937, 5.444e+003
164.320, 7.311e+003
165.703, 7.648e+003
167.086, 5.533e+003
168.469, 3.998e+003
169.851, 3.221e+003
171.233, 2.889e+003
172.615, 2.828e+003
173.996, 2.702e+003
175.378, 2.835e+003
176.759, 2.970e+003
178.140, 3.312e+003
179.521, 3.840e+003
180.901, 4.406e+003
182.281, 4.489e+003
183.662, 3.862e+003
185.041, 3.380e+003
186.421, 3.077e+003
187.800, 3.081e+003
189.180, 3.228e+003
190.558, 3.484e+003
191.937, 3.795e+003
193.316, 3.702e+003
194.694, 3.388e+003
196.072, 3.143e+003
197.450, 3.029e+003
198.827, 3.084e+003
200.205, 3.093e+003
201.582, 3.408e+003
202.959, 3.910e+003
204.336, 4.889e+003
205.712, 6.357e+003
207.088, 8.881e+003
208.465, 1.298e+004
209.840, 1.599e+004
211.216, 1.533e+004
212.591, 1.114e+004
213.967, 7.601e+003
215.341, 5.551e+003
216.716, 4.481e+003
218.091, 3.803e+003
219.465, 3.609e+003
220.839, 3.586e+003
222.213, 3.574e+003
223.586, 3.772e+003
224.960, 4.170e+003
226.333, 4.316e+003
227.706, 4.150e+003
229.079, 3.965e+003
230.451, 4.015e+003
231.823, 4.256e+003
233.195, 4.626e+003
234.567, 5.455e+003
235.939, 6.683e+003
237.310, 8.992e+003
238.682, 1.281e+004
240.052, 1.894e+004
241.423, 2.844e+004
242.794, 4.197e+004
244.164, 5.066e+004
245.534, 4.646e+004
246.904, 3.453e+004
248.274, 2.274e+004
249.643, 1.530e+004
251.012, 1.095e+004
252.381, 8.269e+003
253.750, 6.627e+003
255.118, 5.587e+003
256.487, 4.834e+003
257.855, 4.350e+003
259.223, 4.027e+003
260.590, 3.714e+003
261.958, 3.510e+003
263.325, 3.442e+003
264.692, 3.204e+003
266.059, 3.223e+003
267.425, 3.119e+003
268.791, 3.052e+003
270.158, 2.986e+003
271.523, 2.902e+003
272.889, 2.883e+003
274.255, 2.848e+003
275.620, 2.842e+003
276.985, 2.833e+003
278.350, 2.764e+003
279.714, 2.740e+003
281.078, 2.720e+003
282.443, 2.785e+003
283.806, 2.712e+003
285.170, 2.737e+003
286.534, 2.801e+003
287.897, 2.838e+003
289.260, 3.022e+003
290.623, 3.138e+003
291.985, 3.465e+003
293.348, 3.597e+003
294.710, 3.814e+003
296.072, 3.625e+003
297.433, 3.286e+003
298.795, 3.130e+003
300.156, 2.920e+003
301.517, 2.858e+003
302.878, 2.808e+003
304.239, 2.824e+003
305.599, 2.906e+003
306.959, 2.976e+003
308.319, 3.145e+003
309.679, 3.355e+003
311.038, 3.377e+003
312.398, 3.366e+003
313.757, 3.227e+003
315.116, 3.009e+003
316.474, 2.914e+003
317.833, 2.806e+003
319.191, 2.700e+003
320.549, 2.694e+003
321.907, 2.618e+003
323.264, 2.632e+003
324.622, 2.700e+003
325.979, 2.696e+003
327.336, 2.781e+003
328.692, 2.756e+003
330.049, 2.757e+003
331.405, 2.763e+003
332.761, 2.673e+003
334.117, 2.672e+003
335.473, 2.651e+003
336.828, 2.689e+003
338.183, 2.740e+003
339.538, 2.803e+003
340.893, 2.900e+003
342.247, 3.057e+003
343.602, 3.527e+003
344.956, 4.029e+003
346.310, 4.393e+003
347.663, 4.449e+003
349.017, 3.998e+003
350.370, 3.543e+003
351.723, 3.159e+003
353.076, 2.965e+003
354.428, 2.852e+003
355.780, 2.748e+003
357.133, 2.751e+003
358.484, 2.697e+003
359.836, 2.665e+003
361.188, 2.611e+003
362.539, 2.652e+003
363.890, 2.672e+003
365.241, 2.606e+003
366.591, 2.690e+003
367.942, 2.598e+003
369.292, 2.668e+003
370.642, 2.633e+003
371.992, 2.649e+003
373.341, 2.630e+003
374.691, 2.631e+003
376.040, 2.647e+003
377.388, 2.639e+003
378.737, 2.650e+003
380.086, 2.734e+003
381.434, 2.679e+003
382.782, 2.693e+003
384.130, 2.696e+003
385.477, 2.762e+003
386.825, 2.754e+003
388.172, 2.705e+003
389.519, 2.784e+003
390.865, 2.823e+003
392.212, 2.790e+003
393.558, 2.804e+003
394.904, 2.868e+003
396.250, 2.897e+003
397.596, 2.900e+003
398.941, 2.962e+003
400.286, 2.982e+003
401.631, 3.011e+003
402.976, 3.086e+003
404.321, 3.115e+003
405.665, 3.143e+003
407.009, 3.233e+003
408.353, 3.270e+003
409.697, 3.425e+003
411.040, 3.501e+003
412.384, 3.683e+003
413.727, 3.942e+003
415.070, 4.275e+003
416.412, 4.682e+003
417.755, 5.402e+003
419.097, 6.235e+003
420.439, 7.318e+003
421.781, 8.491e+003
423.122, 9.379e+003
424.464, 9.116e+003
425.805, 8.235e+003
427.146, 6.748e+003
428.486, 5.554e+003
429.827, 4.666e+003
431.167, 4.157e+003
432.507, 4.026e+003
433.847, 4.213e+003
435.187, 4.678e+003
436.526, 5.679e+003
437.865, 7.318e+003
439.204, 9.102e+003
440.543, 9.996e+003
441.882, 9.231e+003
443.220, 7.408e+003
444.558, 5.941e+003
445.896, 4.987e+003
447.234, 4.283e+003
448.572, 3.777e+003
449.909, 3.527e+003
451.246, 3.350e+003
452.583, 3.246e+003
453.919, 3.204e+003
455.256, 3.230e+003
456.592, 3.292e+003
457.928, 3.407e+003
459.264, 3.431e+003
460.600, 3.289e+003
461.935, 3.121e+003
463.270, 3.023e+003
464.605, 3.002e+003
465.940, 2.898e+003
467.274, 2.980e+003
468.609, 2.902e+003
469.943, 2.882e+003
471.277, 2.882e+003
472.610, 2.887e+003
473.944, 2.983e+003
475.277, 2.964e+003
476.610, 3.054e+003
477.943, 3.082e+003
479.275, 3.111e+003
480.608, 3.061e+003
481.940, 2.969e+003
483.272, 2.907e+003
484.604, 2.821e+003
485.935, 2.860e+003
487.267, 2.863e+003
488.598, 2.808e+003
489.929, 2.822e+003
491.260, 2.782e+003
492.590, 2.840e+003
493.920, 2.853e+003
495.250, 2.787e+003
496.580, 2.827e+003
497.910, 2.831e+003
499.239, 2.822e+003
500.569, 2.827e+003
501.898, 2.849e+003
503.226, 2.812e+003
504.555, 2.818e+003
505.883, 2.858e+003
507.212, 2.848e+003
508.540, 2.871e+003
509.867, 2.880e+003
511.195, 2.870e+003
512.522, 2.853e+003
513.849, 2.843e+003
515.176, 2.961e+003
516.503, 2.886e+003
517.829, 2.929e+003
519.156, 2.921e+003
520.482, 2.958e+003
521.808, 2.927e+003
523.133, 3.010e+003
524.459, 2.923e+003
525.784, 2.952e+003
527.109, 2.945e+003
528.434, 2.891e+003
529.758, 2.910e+003
531.083, 2.925e+003
532.407, 2.944e+003
533.731, 2.902e+003
535.055, 2.946e+003
536.378, 2.938e+003
537.701, 2.987e+003
539.025, 2.986e+003
540.348, 2.968e+003
541.670, 2.987e+003
542.993, 3.005e+003
544.315, 2.998e+003
545.637, 3.028e+003
546.959, 3.014e+003
548.281, 2.976e+003
549.602, 3.051e+003
550.923, 3.045e+003
552.244, 3.095e+003
553.565, 3.021e+003
554.886, 3.130e+003
556.206, 3.150e+003
557.526, 3.109e+003
558.846, 3.124e+003
560.166, 3.226e+003
561.486, 3.245e+003
562.805, 3.181e+003
564.124, 3.210e+003
565.443, 3.231e+003
566.762, 3.183e+003
568.080, 3.312e+003
569.399, 3.328e+003
570.717, 3.375e+003
572.035, 3.404e+003
573.352, 3.370e+003
574.670, 3.394e+003
575.987, 3.401e+003
577.304, 3.440e+003
578.621, 3.535e+003
579.938, 3.562e+003
581.254, 3.639e+003
582.570, 3.662e+003
583.886, 3.835e+003
585.202, 3.952e+003
586.518, 3.985e+003
587.833, 4.117e+003
589.148, 4.250e+003
590.463, 4.428e+003
591.778, 4.577e+003
593.093, 4.869e+003
594.407, 5.232e+003
595.721, 5.599e+003
597.035, 6.129e+003
598.349, 6.876e+003
599.662, 7.994e+003
600.976, 9.637e+003
602.289, 1.168e+004
603.602, 1.518e+004
604.914, 2.047e+004
606.227, 2.792e+004
607.539, 3.597e+004
608.851, 4.022e+004
610.163, 3.972e+004
611.475, 3.282e+004
612.786, 2.592e+004
614.097, 1.996e+004
615.408, 1.505e+004
616.719, 1.235e+004
618.030, 1.042e+004
619.340, 9.260e+003
620.651, 8.884e+003
621.961, 8.929e+003
623.270, 1.021e+004
624.580, 1.170e+004
625.889, 1.369e+004
627.199, 1.440e+004
628.507, 1.300e+004
629.816, 1.111e+004
631.125, 8.938e+003
632.433, 7.583e+003
633.741, 6.629e+003
635.049, 5.817e+003
636.357, 5.431e+003
637.664, 5.003e+003
638.972, 4.837e+003
640.279, 4.646e+003
641.586, 4.544e+003
642.893, 4.491e+003
644.199, 4.381e+003
645.505, 4.309e+003
646.811, 4.268e+003
648.117, 4.144e+003
649.423, 4.131e+003
650.728, 4.039e+003
652.034, 3.933e+003
653.339, 3.927e+003
654.644, 3.841e+003
655.948, 3.804e+003
657.253, 3.695e+003
658.557, 3.636e+003
659.861, 3.620e+003
661.165, 3.573e+003
662.468, 3.558e+003
663.772, 3.488e+003
665.075, 3.540e+003
666.378, 3.530e+003
667.681, 3.486e+003
668.983, 3.486e+003
670.286, 3.517e+003
671.588, 3.486e+003
672.890, 3.542e+003
674.192, 3.472e+003
675.493, 3.492e+003
676.795, 3.419e+003
678.096, 3.359e+003
679.397, 3.372e+003
680.697, 3.326e+003
681.998, 3.419e+003
683.298, 3.404e+003
684.598, 3.392e+003
685.898, 3.386e+003
687.198, 3.350e+003
688.498, 3.358e+003
689.797, 3.366e+003
691.096, 3.370e+003
692.395, 3.386e+003
693.694, 3.369e+003
694.992, 3.338e+003
696.290, 3.388e+003
697.589, 3.344e+003
698.886, 3.374e+003
700.184, 3.383e+003
701.482, 3.376e+003
702.779, 3.358e+003
704.076, 3.378e+003
705.373, 3.328e+003
706.669, 3.348e+003
707.966, 3.366e+003
709.262, 3.360e+003
710.558, 3.395e+003
711.854, 3.389e+003
713.150, 3.322e+003
714.445, 3.390e+003
715.740, 3.359e+003
717.035, 3.387e+003
718.330, 3.383e+003
719.625, 3.414e+003
720.919, 3.423e+003
722.214, 3.399e+003
723.508, 3.396e+003
724.801, 3.399e+003
726.095, 3.404e+003
727.388, 3.478e+003
728.682, 3.408e+003
729.975, 3.487e+003
731.267, 3.545e+003
732.560, 3.457e+003
733.852, 3.498e+003
735.145, 3.486e+003
736.437, 3.490e+003
737.728, 3.496e+003
739.020, 3.425e+003
740.311, 3.534e+003
741.603, 3.489e+003
742.894, 3.474e+003
744.184, 3.551e+003
745.475, 3.527e+003
746.765, 3.560e+003
748.055, 3.532e+003
749.345, 3.552e+003
750.635, 3.626e+003
751.925, 3.508e+003
753.214, 3.610e+003
754.503, 3.569e+003
755.792, 3.568e+003
757.081, 3.630e+003
758.370, 3.610e+003
759.658, 3.679e+003
760.946, 3.673e+003
762.234, 3.715e+003
763.522, 3.829e+003
764.809, 3.794e+003
766.097, 3.904e+003
767.384, 3.962e+003
768.671, 4.139e+003
769.958, 4.222e+003
771.244, 4.364e+003
772.530, 4.533e+003
773.817, 4.467e+003
775.102, 4.358e+003
776.388, 4.213e+003
777.674, 3.983e+003
778.959, 3.884e+003
780.244, 3.853e+003
781.529, 3.738e+003
782.814, 3.727e+003
784.098, 3.620e+003
785.383, 3.659e+003
786.667, 3.601e+003
787.951, 3.626e+003
789.235, 3.681e+003
790.518, 3.606e+003
791.801, 3.691e+003
793.084, 3.635e+003
794.367, 3.629e+003
795.650, 3.722e+003
796.933, 3.602e+003
798.215, 3.663e+003
799.497, 3.700e+003
800.779, 3.621e+003
802.061, 3.655e+003
803.342, 3.609e+003
804.624, 3.646e+003
805.905, 3.654e+003
807.186, 3.638e+003
808.466, 3.685e+003
809.747, 3.574e+003
811.027, 3.648e+003
812.307, 3.678e+003
813.587, 3.698e+003
814.867, 3.696e+003
816.146, 3.663e+003
817.426, 3.660e+003
818.705, 3.697e+003
819.984, 3.709e+003
821.263, 3.700e+003
822.541, 3.652e+003
823.819, 3.646e+003
825.098, 3.713e+003
826.375, 3.686e+003
827.653, 3.725e+003
828.931, 3.750e+003
830.208, 3.763e+003
831.485, 3.817e+003
832.762, 3.833e+003
834.039, 3.766e+003
835.315, 3.742e+003
836.592, 3.803e+003
837.868, 3.813e+003
839.144, 3.857e+003
840.420, 3.891e+003
841.695, 3.932e+003
842.970, 3.936e+003
844.246, 3.891e+003
845.521, 3.914e+003
846.795, 3.936e+003
848.070, 3.963e+003
849.344, 3.947e+003
850.618, 3.997e+003
851.892, 4.008e+003
853.166, 4.054e+003
854.440, 4.075e+003
855.713, 4.114e+003
856.986, 4.228e+003
858.259, 4.309e+003
859.532, 4.187e+003
860.804, 4.294e+003
862.077, 4.260e+003
863.349, 4.217e+003
864.621, 4.236e+003
865.893, 4.203e+003
867.164, 4.233e+003
868.436, 4.235e+003
869.707, 4.194e+003
870.978, 4.256e+003
872.248, 4.189e+003
873.519, 4.275e+003
874.789, 4.160e+003
876.060, 4.208e+003
877.330, 4.298e+003
878.599, 4.208e+003
879.869, 4.284e+003
881.138, 4.276e+003
882.408, 4.292e+003
883.677, 4.370e+003
884.945, 4.313e+003
886.214, 4.382e+003
887.482, 4.457e+003
888.751, 4.548e+003
890.019, 4.620e+003
891.287, 4.687e+003
892.554, 4.797e+003
893.822, 4.972e+003
895.089, 5.159e+003
896.356, 5.361e+003
897.623, 5.483e+003
898.889, 5.592e+003
900.156, 5.717e+003
901.422, 5.676e+003
902.688, 5.687e+003
903.954, 5.565e+003
905.220, 5.427e+003
906.485, 5.274e+003
907.750, 5.110e+003
909.015, 5.006e+003
910.280, 4.849e+003
911.545, 4.761e+003
912.809, 4.604e+003
914.074, 4.498e+003
915.338, 4.482e+003
916.602, 4.510e+003
917.865, 4.353e+003
919.129, 4.373e+003
920.392, 4.303e+003
921.655, 4.279e+003
922.918, 4.246e+003
924.181, 4.178e+003
925.443, 4.274e+003
926.706, 4.153e+003
927.968, 4.170e+003
929.230, 4.173e+003
930.491, 4.088e+003
931.753, 4.207e+003
933.014, 4.153e+003
934.276, 4.137e+003
935.536, 4.135e+003
936.797, 4.133e+003
938.058, 4.069e+003
939.318, 4.106e+003
940.578, 4.119e+003
941.838, 4.174e+003
943.098, 4.143e+003
944.358, 4.146e+003
945.617, 4.188e+003
946.876, 4.150e+003
948.135, 4.204e+003
949.394, 4.202e+003
950.653, 4.148e+003
951.911, 4.227e+003
953.169, 4.233e+003
954.427, 4.272e+003
955.685, 4.246e+003
956.943, 4.236e+003
958.200, 4.321e+003
959.458, 4.316e+003
960.715, 4.337e+003
961.971, 4.429e+003
963.228, 4.497e+003
964.485, 4.661e+003
965.741, 4.829e+003
966.997, 5.082e+003
968.253, 5.535e+003
969.508, 5.940e+003
970.764, 6.646e+003
972.019, 7.063e+003
973.274, 6.978e+003
974.529, 6.613e+003
975.784, 6.109e+003
977.039, 5.764e+003
978.293, 5.317e+003
979.547, 5.113e+003
980.801, 4.985e+003
982.055, 4.836e+003
983.308, 4.793e+003
984.562, 4.744e+003
985.815, 4.630e+003
987.068, 4.738e+003
988.321, 4.706e+003
989.573, 4.637e+003
990.826, 4.608e+003
992.078, 4.668e+003
993.330, 4.689e+003
994.582, 4.757e+003
995.833, 4.713e+003
997.085, 4.811e+003
998.336, 4.861e+003
999.587, 4.935e+003
1000.838, 5.104e+003
1002.088, 4.883e+003
1003.339, 4.806e+003
1004.589, 4.728e+003
1005.839, 4.680e+003
1007.089, 4.687e+003
1008.339, 4.616e+003
1009.588, 4.564e+003
1010.838, 4.524e+003
1012.087, 4.411e+003
1013.336, 4.507e+003
1014.584, 4.434e+003
1015.833, 4.416e+003
1017.081, 4.470e+003
1018.330, 4.462e+003
1019.577, 4.509e+003
1020.825, 4.529e+003
1022.073, 4.494e+003
1023.320, 4.518e+003
1024.567, 4.472e+003
1025.814, 4.503e+003
1027.061, 4.490e+003
1028.308, 4.379e+003
1029.554, 4.464e+003
1030.800, 4.445e+003
1032.046, 4.363e+003
1033.292, 4.449e+003
1034.538, 4.445e+003
1035.783, 4.478e+003
1037.029, 4.581e+003
1038.274, 4.586e+003
1039.519, 4.662e+003
1040.763, 4.700e+003
1042.008, 4.546e+003
1043.252, 4.546e+003
1044.496, 4.430e+003
1045.740, 4.463e+003
1046.984, 4.422e+003
1048.228, 4.433e+003
1049.471, 4.441e+003
1050.714, 4.414e+003
1051.957, 4.433e+003
1053.200, 4.442e+003
1054.442, 4.433e+003
1055.685, 4.421e+003
1056.927, 4.406e+003
1058.169, 4.463e+003
1059.411, 4.467e+003
1060.652, 4.443e+003
1061.894, 4.450e+003
1063.135, 4.480e+003
1064.376, 4.437e+003
1065.617, 4.498e+003
1066.858, 4.540e+003
1068.098, 4.549e+003
1069.339, 4.564e+003
1070.579, 4.546e+003
1071.819, 4.673e+003
1073.058, 4.574e+003
1074.298, 4.651e+003
1075.537, 4.722e+003
1076.776, 4.722e+003
1078.015, 4.843e+003
1079.254, 4.868e+003
1080.493, 4.856e+003
1081.731, 5.006e+003
1082.969, 4.980e+003
1084.207, 5.068e+003
1085.445, 5.085e+003
1086.683, 5.140e+003
1087.920, 5.227e+003
1089.157, 5.263e+003
1090.394, 5.450e+003
1091.631, 5.640e+003
1092.868, 5.741e+003
1094.105, 5.966e+003
1095.341, 6.212e+003
1096.577, 6.430e+003
1097.813, 6.853e+003
1099.049, 7.109e+003
1100.284, 7.446e+003
1101.519, 7.967e+003
1102.755, 8.182e+003
1103.990, 8.676e+003
1105.224, 8.777e+003
1106.459, 8.750e+003
1107.693, 8.888e+003
1108.928, 8.454e+003
1110.162, 8.117e+003
1111.395, 7.831e+003
1112.629, 7.350e+003
1113.863, 7.026e+003
1115.096, 6.761e+003
1116.329, 6.430e+003
1117.562, 6.345e+003
1118.795, 6.012e+003
1120.027, 5.939e+003
1121.259, 5.886e+003
1122.492, 5.628e+003
1123.723, 5.599e+003
1124.955, 5.463e+003
1126.187, 5.395e+003
1127.418, 5.344e+003
1128.649, 5.174e+003
1129.880, 5.184e+003
1131.111, 5.182e+003
1132.342, 5.078e+003
1133.572, 5.004e+003
1134.802, 4.949e+003
1136.033, 4.829e+003
1137.262, 4.926e+003
1138.492, 4.775e+003
1139.722, 4.810e+003
1140.951, 4.778e+003
1142.180, 4.742e+003
1143.409, 4.730e+003
1144.638, 4.737e+003
1145.866, 4.687e+003
1147.095, 4.703e+003
1148.323, 4.632e+003
1149.551, 4.685e+003
1150.779, 4.674e+003
1152.006, 4.657e+003
1153.234, 4.623e+003
1154.461, 4.597e+003
1155.688, 4.668e+003
1156.915, 4.662e+003
1158.141, 4.566e+003
1159.368, 4.656e+003
1160.594, 4.701e+003
1161.820, 4.626e+003
1163.046, 4.671e+003
1164.272, 4.650e+003
1165.498, 4.693e+003
1166.723, 4.663e+003
1167.948, 4.660e+003
1169.173, 4.682e+003
1170.398, 4.676e+003
1171.623, 4.703e+003
1172.847, 4.720e+003
1174.071, 4.717e+003
1175.295, 4.667e+003
1176.519, 4.746e+003
1177.743, 4.692e+003
1178.966, 4.665e+003
1180.190, 4.697e+003
1181.413, 4.703e+003
1182.636, 4.763e+003
1183.858, 4.708e+003
1185.081, 4.658e+003
1186.303, 4.719e+003
1187.526, 4.732e+003
1188.748, 4.710e+003
1189.969, 4.743e+003
1191.191, 4.639e+003
1192.412, 4.712e+003
1193.634, 4.736e+003
1194.855, 4.711e+003
1196.076, 4.694e+003
1197.296, 4.624e+003
1198.517, 4.737e+003
1199.737, 4.722e+003
1200.957, 4.651e+003
1202.177, 4.714e+003
1203.397, 4.643e+003
1204.617, 4.644e+003
1205.836, 4.729e+003
1207.055, 4.670e+003
1208.274, 4.663e+003
1209.493, 4.743e+003
1210.712, 4.729e+003
1211.930, 4.765e+003
1213.148, 4.721e+003
1214.367, 4.738e+003
1215.584, 4.779e+003
1216.802, 4.830e+003
1218.020, 4.699e+003
1219.237, 4.856e+003
1220.454, 4.721e+003
1221.671, 4.758e+003
1222.888, 4.770e+003
1224.105, 4.772e+003
1225.321, 4.791e+003
1226.537, 4.787e+003
1227.753, 4.772e+003
1228.969, 4.774e+003
1230.185, 4.748e+003
1231.400, 4.785e+003
1232.616, 4.828e+003
1233.831, 4.822e+003
1235.046, 4.800e+003
1236.261, 4.901e+003
1237.475, 4.889e+003
1238.689, 4.902e+003
1239.904, 4.814e+003
1241.118, 4.896e+003
1242.332, 4.890e+003
1243.545, 4.911e+003
1244.759, 4.894e+003
1245.972, 4.907e+003
1247.185, 4.831e+003
1248.398, 4.940e+003
1249.611, 4.881e+003
1250.823, 4.819e+003
1252.036, 4.920e+003
1253.248, 4.878e+003
1254.460, 4.890e+003
1255.671, 4.923e+003
1256.883, 4.892e+003
1258.095, 4.950e+003
1259.306, 4.875e+003
1260.517, 4.934e+003
1261.728, 4.958e+003
1262.938, 4.904e+003
1264.149, 4.986e+003
1265.359, 4.913e+003
1266.569, 4.919e+003
1267.779, 5.031e+003
1268.989, 4.986e+003
1270.199, 5.045e+003
1271.408, 5.047e+003
1272.617, 4.963e+003
1273.826, 5.001e+003
1275.035, 4.952e+003
1276.244, 4.966e+003
1277.452, 5.016e+003
1278.661, 4.922e+003
1279.869, 4.918e+003
1281.077, 4.885e+003
1282.285, 4.900e+003
1283.492, 4.925e+003
1284.700, 4.889e+003
1285.907, 4.859e+003
1287.114, 4.946e+003
1288.321, 4.850e+003
1289.527, 4.926e+003
1290.734, 4.957e+003
1291.940, 4.954e+003
1293.146, 5.013e+003
1294.352, 4.985e+003
1295.558, 4.966e+003
1296.763, 4.968e+003
1297.969, 5.003e+003
1299.174, 4.851e+003
1300.379, 5.003e+003
1301.584, 4.957e+003
1302.788, 4.951e+003
1303.993, 5.015e+003
1305.197, 4.960e+003
1306.401, 5.069e+003
1307.605, 5.018e+003
1308.809, 5.026e+003
1310.013, 5.118e+003
1311.216, 5.051e+003
1312.419, 5.074e+003
1313.622, 5.145e+003
1314.825, 5.065e+003
1316.028, 5.064e+003
1317.230, 5.128e+003
1318.432, 5.084e+003
1319.634, 5.204e+003
1320.836, 5.185e+003
1322.038, 5.066e+003
1323.240, 5.100e+003
1324.441, 5.102e+003
1325.642, 5.109e+003
1326.843, 5.109e+003
1328.044, 4.997e+003
1329.245, 5.076e+003
1330.445, 5.022e+003
1331.645, 5.057e+003
1332.845, 5.006e+003
1334.045, 4.987e+003
1335.245, 4.980e+003
1336.445, 5.007e+003
1337.644, 5.058e+003
1338.843, 4.977e+003
1340.042, 4.963e+003
1341.241, 4.993e+003
1342.440, 5.066e+003
1343.638, 4.984e+003
1344.836, 5.052e+003
1346.034, 5.126e+003
1347.232, 5.081e+003
1348.430, 4.973e+003
1349.628, 5.067e+003
1350.825, 5.025e+003
1352.022, 5.009e+003
1353.219, 5.034e+003
1354.416, 5.029e+003
1355.613, 5.106e+003
1356.809, 5.121e+003
1358.005, 5.082e+003
1359.202, 4.991e+003
1360.398, 5.029e+003
1361.593, 5.065e+003
1362.789, 5.087e+003
1363.984, 5.055e+003
1365.179, 5.084e+003
1366.374, 5.146e+003
1367.569, 5.113e+003
1368.764, 5.150e+003
1369.958, 5.063e+003
1371.153, 5.153e+003
1372.347, 5.165e+003
1373.541, 5.141e+003
1374.735, 5.166e+003
1375.928, 5.122e+003
1377.122, 5.143e+003
1378.315, 5.147e+003
1379.508, 5.164e+003
1380.701, 5.201e+003
1381.893, 5.196e+003
1383.086, 5.198e+003
1384.278, 5.198e+003
1385.470, 5.281e+003
1386.662, 5.184e+003
1387.854, 5.197e+003
1389.046, 5.274e+003
1390.237, 5.158e+003
1391.428, 5.199e+003
1392.619, 5.155e+003
1393.810, 5.212e+003
1395.001, 5.255e+003
1396.191, 5.122e+003
1397.382, 5.273e+003
1398.572, 5.224e+003
1399.762, 5.249e+003
1400.952, 5.160e+003
1402.141, 5.243e+003
1403.331, 5.198e+003
1404.520, 5.292e+003
1405.709, 5.250e+003
1406.898, 5.271e+003
1408.087, 5.240e+003
1409.275, 5.292e+003
1410.464, 5.262e+003
1411.652, 5.325e+003
1412.840, 5.293e+003
1414.028, 5.371e+003
1415.215, 5.328e+003
1416.403, 5.328e+003
1417.590, 5.304e+003
1418.777, 5.271e+003
1419.964, 5.297e+003
1421.151, 5.335e+003
1422.338, 5.340e+003
1423.524, 5.398e+003
1424.710, 5.387e+003
1425.896, 5.386e+003
1427.082, 5.381e+003
1428.268, 5.473e+003
1429.453, 5.410e+003
1430.639, 5.473e+003
1431.824, 5.497e+003
1433.009, 5.498e+003
1434.194, 5.606e+003
1435.378, 5.548e+003
1436.563, 5.687e+003
1437.747, 5.809e+003
1438.931, 5.712e+003
1440.115, 5.808e+003
1441.299, 5.862e+003
1442.482, 5.852e+003
1443.666, 5.949e+003
1444.849, 5.961e+003
1446.032, 5.970e+003
1447.215, 6.015e+003
1448.397, 6.000e+003
1449.580, 6.042e+003
1450.762, 6.144e+003
1451.944, 6.039e+003
1453.126, 6.075e+003
1454.308, 6.106e+003
1455.490, 5.994e+003
1456.671, 6.206e+003
1457.852, 6.042e+003
1459.033, 6.029e+003
1460.214, 6.101e+003
1461.395, 5.965e+003
1462.575, 5.859e+003
1463.756, 6.025e+003
1464.936, 5.946e+003
1466.116, 5.916e+003
1467.296, 5.808e+003
1468.475, 5.815e+003
1469.655, 5.810e+003
1470.834, 5.760e+003
1472.013, 5.680e+003
1473.192, 5.778e+003
1474.371, 5.680e+003
1475.550, 5.722e+003
1476.728, 5.736e+003
1477.906, 5.728e+003
1479.084, 5.638e+003
1480.262, 5.801e+003
1481.440, 5.715e+003
1482.617, 5.732e+003
1483.795, 5.687e+003
1484.972, 5.712e+003
1486.149, 5.681e+003
1487.326, 5.632e+003
1488.502, 5.729e+003
1489.679, 5.683e+003
1490.855, 5.581e+003
1492.031, 5.618e+003
1493.207, 5.663e+003
1494.383, 5.554e+003
1495.559, 5.619e+003
1496.734, 5.634e+003
1497.909, 5.595e+003
1499.084, 5.640e+003
1500.259, 5.612e+003
1501.434, 5.627e+003
1502.608, 5.619e+003
1503.783, 5.861e+003
1504.957, 1.820e+002
##END=



