##NAMES=Danburite
##RRUFFID=R040013
##IDEAL CHEMISTRY=CaB_2_Si_2_O_8_
##LOCALITY=Charcas, San Luis Potosi, Mexico
##OWNER=RRUFF
##SOURCE=Marcus Origlieri
##DESCRIPTION=Colorless prismatic single crystal
##STATUS=The identification of this mineral has been confirmed by X-ray diffraction and chemical analysis
##URL=rruff.info/R040013
##MEASURED CHEMISTRY=Ca_1.00_B_2.00_Si_2.00_O_8_
##PIN_ID=M00010
##ORIENTATION=Laser parallel to a* (1 0 0). Fiducial mark perpendicular to laser is parallel to b [0 1 0]
26.288, 1.202e+003
27.694, 1.168e+003
29.099, 1.128e+003
30.504, 1.136e+003
31.909, 1.123e+003
33.313, 1.101e+003
34.717, 1.103e+003
36.121, 1.120e+003
37.525, 1.113e+003
38.929, 1.098e+003
40.332, 1.095e+003
41.735, 1.080e+003
43.138, 1.088e+003
44.541, 1.076e+003
45.943, 1.066e+003
47.345, 1.046e+003
48.747, 1.010e+003
50.149, 1.000e+003
51.551, 9.850e+002
52.952, 9.720e+002
54.353, 9.540e+002
55.754, 9.420e+002
57.155, 9.400e+002
58.555, 8.980e+002
59.955, 8.840e+002
61.355, 9.030e+002
62.755, 8.870e+002
64.154, 8.630e+002
65.553, 8.700e+002
66.952, 8.430e+002
68.351, 8.840e+002
69.750, 8.800e+002
71.148, 9.080e+002
72.546, 9.030e+002
73.944, 8.920e+002
75.342, 8.940e+002
76.739, 8.960e+002
78.136, 9.180e+002
79.533, 9.430e+002
80.930, 9.830e+002
82.327, 1.021e+003
83.723, 1.041e+003
85.119, 1.038e+003
86.515, 1.031e+003
87.910, 1.096e+003
89.306, 1.098e+003
90.701, 1.142e+003
92.096, 1.092e+003
93.490, 1.100e+003
94.885, 1.136e+003
96.279, 1.183e+003
97.673, 1.170e+003
99.067, 1.203e+003
100.461, 1.221e+003
101.854, 1.201e+003
103.247, 1.280e+003
104.640, 1.318e+003
106.032, 1.279e+003
107.425, 1.359e+003
108.817, 1.443e+003
110.209, 1.762e+003
111.601, 4.080e+003
112.992, 5.139e+003
114.384, 2.568e+003
115.775, 1.930e+003
117.166, 2.176e+003
118.556, 2.769e+003
119.947, 4.000e+003
121.337, 6.184e+003
122.727, 8.084e+003
124.116, 8.397e+003
125.506, 8.980e+003
126.895, 1.119e+004
128.284, 1.137e+004
129.673, 8.110e+003
131.062, 4.752e+003
132.450, 2.913e+003
133.838, 2.161e+003
135.226, 1.929e+003
136.614, 1.926e+003
138.001, 1.873e+003
139.388, 1.735e+003
140.775, 1.536e+003
142.162, 1.474e+003
143.549, 1.406e+003
144.935, 1.404e+003
146.321, 1.448e+003
147.707, 1.559e+003
149.093, 1.752e+003
150.478, 1.798e+003
151.863, 1.657e+003
153.248, 1.524e+003
154.633, 1.537e+003
156.018, 1.597e+003
157.402, 1.848e+003
158.786, 2.453e+003
160.170, 3.369e+003
161.554, 5.670e+003
162.937, 1.066e+004
164.320, 1.377e+004
165.703, 1.033e+004
167.086, 5.360e+003
168.469, 2.882e+003
169.851, 1.957e+003
171.233, 1.629e+003
172.615, 1.481e+003
173.996, 1.434e+003
175.378, 1.446e+003
176.759, 1.566e+003
178.140, 1.757e+003
179.521, 2.084e+003
180.901, 2.172e+003
182.281, 1.982e+003
183.662, 1.674e+003
185.041, 1.520e+003
186.421, 1.510e+003
187.800, 1.666e+003
189.180, 1.780e+003
190.558, 1.836e+003
191.937, 1.829e+003
193.316, 1.630e+003
194.694, 1.517e+003
196.072, 1.504e+003
197.450, 1.556e+003
198.827, 1.761e+003
200.205, 2.087e+003
201.582, 2.464e+003
202.959, 2.568e+003
204.336, 2.416e+003
205.712, 2.221e+003
207.088, 2.485e+003
208.465, 2.985e+003
209.840, 3.105e+003
211.216, 2.652e+003
212.591, 2.094e+003
213.967, 1.771e+003
215.341, 1.532e+003
216.716, 1.444e+003
218.091, 1.409e+003
219.465, 1.411e+003
220.839, 1.345e+003
222.213, 1.396e+003
223.586, 1.462e+003
224.960, 1.486e+003
226.333, 1.510e+003
227.706, 1.414e+003
229.079, 1.405e+003
230.451, 1.425e+003
231.823, 1.457e+003
233.195, 1.553e+003
234.567, 1.608e+003
235.939, 1.826e+003
237.310, 2.120e+003
238.682, 2.723e+003
240.052, 3.710e+003
241.423, 5.475e+003
242.794, 7.488e+003
244.164, 8.059e+003
245.534, 6.698e+003
246.904, 4.792e+003
248.274, 3.509e+003
249.643, 2.740e+003
251.012, 2.309e+003
252.381, 2.072e+003
253.750, 1.903e+003
255.118, 1.807e+003
256.487, 1.697e+003
257.855, 1.650e+003
259.223, 1.592e+003
260.590, 1.540e+003
261.958, 1.525e+003
263.325, 1.486e+003
264.692, 1.449e+003
266.059, 1.476e+003
267.425, 1.444e+003
268.791, 1.443e+003
270.158, 1.415e+003
271.523, 1.430e+003
272.889, 1.468e+003
274.255, 1.550e+003
275.620, 1.708e+003
276.985, 1.677e+003
278.350, 1.610e+003
279.714, 1.497e+003
281.078, 1.505e+003
282.443, 1.446e+003
283.806, 1.421e+003
285.170, 1.412e+003
286.534, 1.408e+003
287.897, 1.439e+003
289.260, 1.459e+003
290.623, 1.526e+003
291.985, 1.631e+003
293.348, 1.634e+003
294.710, 1.719e+003
296.072, 1.668e+003
297.433, 1.661e+003
298.795, 1.693e+003
300.156, 1.768e+003
301.517, 1.930e+003
302.878, 2.212e+003
304.239, 2.496e+003
305.599, 2.806e+003
306.959, 3.314e+003
308.319, 3.990e+003
309.679, 4.568e+003
311.038, 4.675e+003
312.398, 4.086e+003
313.757, 3.356e+003
315.116, 2.704e+003
316.474, 2.251e+003
317.833, 2.006e+003
319.191, 1.841e+003
320.549, 1.746e+003
321.907, 1.678e+003
323.264, 1.679e+003
324.622, 1.620e+003
325.979, 1.637e+003
327.336, 1.652e+003
328.692, 1.681e+003
330.049, 1.711e+003
331.405, 1.775e+003
332.761, 1.820e+003
334.117, 1.928e+003
335.473, 1.987e+003
336.828, 2.222e+003
338.183, 2.567e+003
339.538, 3.223e+003
340.893, 4.336e+003
342.247, 6.362e+003
343.602, 9.555e+003
344.956, 1.365e+004
346.310, 1.597e+004
347.663, 1.407e+004
349.017, 9.999e+003
350.370, 6.782e+003
351.723, 4.637e+003
353.076, 3.494e+003
354.428, 2.902e+003
355.780, 2.493e+003
357.133, 2.254e+003
358.484, 2.101e+003
359.836, 1.961e+003
361.188, 1.890e+003
362.539, 1.841e+003
363.890, 1.760e+003
365.241, 1.686e+003
366.591, 1.673e+003
367.942, 1.639e+003
369.292, 1.631e+003
370.642, 1.607e+003
371.992, 1.611e+003
373.341, 1.559e+003
374.691, 1.569e+003
376.040, 1.563e+003
377.388, 1.528e+003
378.737, 1.527e+003
380.086, 1.554e+003
381.434, 1.541e+003
382.782, 1.558e+003
384.130, 1.553e+003
385.477, 1.537e+003
386.825, 1.572e+003
388.172, 1.588e+003
389.519, 1.606e+003
390.865, 1.680e+003
392.212, 1.710e+003
393.558, 1.692e+003
394.904, 1.669e+003
396.250, 1.648e+003
397.596, 1.623e+003
398.941, 1.598e+003
400.286, 1.619e+003
401.631, 1.583e+003
402.976, 1.626e+003
404.321, 1.691e+003
405.665, 1.706e+003
407.009, 1.680e+003
408.353, 1.725e+003
409.697, 1.703e+003
411.040, 1.740e+003
412.384, 1.752e+003
413.727, 1.821e+003
415.070, 1.927e+003
416.412, 2.066e+003
417.755, 2.273e+003
419.097, 2.491e+003
420.439, 2.921e+003
421.781, 3.182e+003
423.122, 3.332e+003
424.464, 3.224e+003
425.805, 2.851e+003
427.146, 2.425e+003
428.486, 2.105e+003
429.827, 1.924e+003
431.167, 1.792e+003
432.507, 1.750e+003
433.847, 1.674e+003
435.187, 1.702e+003
436.526, 1.752e+003
437.865, 1.838e+003
439.204, 1.938e+003
440.543, 1.950e+003
441.882, 1.860e+003
443.220, 1.814e+003
444.558, 1.667e+003
445.896, 1.621e+003
447.234, 1.603e+003
448.572, 1.600e+003
449.909, 1.579e+003
451.246, 1.615e+003
452.583, 1.619e+003
453.919, 1.634e+003
455.256, 1.635e+003
456.592, 1.721e+003
457.928, 1.756e+003
459.264, 1.773e+003
460.600, 1.786e+003
461.935, 1.736e+003
463.270, 1.723e+003
464.605, 1.749e+003
465.940, 1.784e+003
467.274, 1.826e+003
468.609, 1.887e+003
469.943, 2.035e+003
471.277, 2.245e+003
472.610, 2.621e+003
473.944, 3.397e+003
475.277, 4.672e+003
476.610, 6.687e+003
477.943, 8.334e+003
479.275, 8.100e+003
480.608, 6.251e+003
481.940, 4.390e+003
483.272, 3.170e+003
484.604, 2.562e+003
485.935, 2.185e+003
487.267, 2.018e+003
488.598, 1.893e+003
489.929, 1.826e+003
491.260, 1.757e+003
492.590, 1.742e+003
493.920, 1.701e+003
495.250, 1.686e+003
496.580, 1.669e+003
497.910, 1.651e+003
499.239, 1.659e+003
500.569, 1.622e+003
501.898, 1.658e+003
503.226, 1.598e+003
504.555, 1.628e+003
505.883, 1.625e+003
507.212, 1.592e+003
508.540, 1.642e+003
509.867, 1.630e+003
511.195, 1.665e+003
512.522, 1.612e+003
513.849, 1.628e+003
515.176, 1.612e+003
516.503, 1.618e+003
517.829, 1.617e+003
519.156, 1.597e+003
520.482, 1.621e+003
521.808, 1.617e+003
523.133, 1.631e+003
524.459, 1.638e+003
525.784, 1.630e+003
527.109, 1.651e+003
528.434, 1.658e+003
529.758, 1.619e+003
531.083, 1.637e+003
532.407, 1.668e+003
533.731, 1.623e+003
535.055, 1.646e+003
536.378, 1.625e+003
537.701, 1.670e+003
539.025, 1.668e+003
540.348, 1.697e+003
541.670, 1.708e+003
542.993, 1.687e+003
544.315, 1.728e+003
545.637, 1.711e+003
546.959, 1.744e+003
548.281, 1.734e+003
549.602, 1.792e+003
550.923, 1.763e+003
552.244, 1.824e+003
553.565, 1.853e+003
554.886, 1.913e+003
556.206, 1.987e+003
557.526, 2.112e+003
558.846, 2.355e+003
560.166, 2.746e+003
561.486, 2.865e+003
562.805, 2.668e+003
564.124, 2.466e+003
565.443, 2.321e+003
566.762, 2.172e+003
568.080, 2.179e+003
569.399, 2.146e+003
570.717, 2.114e+003
572.035, 2.127e+003
573.352, 2.154e+003
574.670, 2.207e+003
575.987, 2.208e+003
577.304, 2.247e+003
578.621, 2.308e+003
579.938, 2.380e+003
581.254, 2.401e+003
582.570, 2.482e+003
583.886, 2.634e+003
585.202, 2.699e+003
586.518, 2.810e+003
587.833, 2.922e+003
589.148, 3.036e+003
590.463, 3.321e+003
591.778, 3.501e+003
593.093, 3.856e+003
594.407, 4.153e+003
595.721, 4.713e+003
597.035, 5.458e+003
598.349, 6.335e+003
599.662, 7.814e+003
600.976, 9.660e+003
602.289, 1.276e+004
603.602, 1.734e+004
604.914, 2.409e+004
606.227, 3.323e+004
607.539, 4.073e+004
608.851, 4.310e+004
610.163, 3.867e+004
611.475, 2.959e+004
612.786, 2.239e+004
614.097, 1.652e+004
615.408, 1.239e+004
616.719, 9.991e+003
618.030, 8.064e+003
619.340, 6.991e+003
620.651, 6.211e+003
621.961, 5.830e+003
623.270, 5.769e+003
624.580, 5.807e+003
625.889, 6.087e+003
627.199, 5.800e+003
628.507, 5.197e+003
629.816, 4.657e+003
631.125, 4.052e+003
632.433, 3.678e+003
633.741, 3.335e+003
635.049, 3.127e+003
636.357, 3.008e+003
637.664, 2.927e+003
638.972, 2.780e+003
640.279, 2.653e+003
641.586, 2.640e+003
642.893, 2.569e+003
644.199, 2.497e+003
645.505, 2.476e+003
646.811, 2.400e+003
648.117, 2.365e+003
649.423, 2.304e+003
650.728, 2.292e+003
652.034, 2.283e+003
653.339, 2.218e+003
654.644, 2.204e+003
655.948, 2.167e+003
657.253, 2.157e+003
658.557, 2.144e+003
659.861, 2.117e+003
661.165, 2.080e+003
662.468, 2.104e+003
663.772, 2.081e+003
665.075, 2.086e+003
666.378, 2.061e+003
667.681, 2.103e+003
668.983, 2.078e+003
670.286, 2.037e+003
671.588, 2.056e+003
672.890, 2.005e+003
674.192, 2.011e+003
675.493, 2.036e+003
676.795, 1.971e+003
678.096, 2.040e+003
679.397, 1.988e+003
680.697, 2.036e+003
681.998, 1.961e+003
683.298, 1.971e+003
684.598, 1.961e+003
685.898, 1.982e+003
687.198, 1.982e+003
688.498, 2.001e+003
689.797, 1.976e+003
691.096, 2.027e+003
692.395, 1.952e+003
693.694, 2.004e+003
694.992, 1.926e+003
696.290, 2.001e+003
697.589, 1.975e+003
698.886, 1.962e+003
700.184, 1.958e+003
701.482, 1.964e+003
702.779, 2.003e+003
704.076, 1.967e+003
705.373, 1.990e+003
706.669, 1.979e+003
707.966, 1.991e+003
709.262, 1.973e+003
710.558, 2.042e+003
711.854, 1.986e+003
713.150, 2.054e+003
714.445, 2.063e+003
715.740, 2.064e+003
717.035, 2.046e+003
718.330, 2.016e+003
719.625, 2.036e+003
720.919, 1.979e+003
722.214, 1.997e+003
723.508, 1.984e+003
724.801, 1.978e+003
726.095, 1.967e+003
727.388, 1.988e+003
728.682, 1.986e+003
729.975, 1.984e+003
731.267, 1.972e+003
732.560, 1.996e+003
733.852, 1.973e+003
735.145, 1.968e+003
736.437, 2.011e+003
737.728, 1.968e+003
739.020, 2.033e+003
740.311, 2.025e+003
741.603, 1.981e+003
742.894, 1.996e+003
744.184, 1.998e+003
745.475, 1.984e+003
746.765, 1.974e+003
748.055, 1.995e+003
749.345, 2.026e+003
750.635, 1.956e+003
751.925, 1.990e+003
753.214, 2.022e+003
754.503, 2.035e+003
755.792, 2.018e+003
757.081, 2.007e+003
758.370, 2.042e+003
759.658, 2.043e+003
760.946, 2.036e+003
762.234, 2.057e+003
763.522, 2.067e+003
764.809, 2.056e+003
766.097, 2.084e+003
767.384, 2.110e+003
768.671, 2.140e+003
769.958, 2.179e+003
771.244, 2.201e+003
772.530, 2.240e+003
773.817, 2.213e+003
775.102, 2.215e+003
776.388, 2.159e+003
777.674, 2.126e+003
778.959, 2.105e+003
780.244, 2.077e+003
781.529, 2.065e+003
782.814, 2.061e+003
784.098, 2.086e+003
785.383, 2.048e+003
786.667, 2.045e+003
787.951, 2.046e+003
789.235, 2.041e+003
790.518, 1.994e+003
791.801, 2.078e+003
793.084, 2.052e+003
794.367, 2.032e+003
795.650, 2.072e+003
796.933, 2.023e+003
798.215, 2.035e+003
799.497, 2.066e+003
800.779, 2.042e+003
802.061, 2.054e+003
803.342, 2.067e+003
804.624, 2.096e+003
805.905, 2.043e+003
807.186, 2.076e+003
808.466, 2.036e+003
809.747, 2.031e+003
811.027, 2.078e+003
812.307, 2.036e+003
813.587, 2.066e+003
814.867, 2.062e+003
816.146, 2.045e+003
817.426, 2.089e+003
818.705, 2.043e+003
819.984, 2.076e+003
821.263, 2.034e+003
822.541, 2.099e+003
823.819, 2.108e+003
825.098, 2.086e+003
826.375, 2.086e+003
827.653, 2.099e+003
828.931, 2.081e+003
830.208, 2.097e+003
831.485, 2.109e+003
832.762, 2.087e+003
834.039, 2.086e+003
835.315, 2.095e+003
836.592, 2.100e+003
837.868, 2.120e+003
839.144, 2.118e+003
840.420, 2.129e+003
841.695, 2.084e+003
842.970, 2.155e+003
844.246, 2.161e+003
845.521, 2.116e+003
846.795, 2.205e+003
848.070, 2.133e+003
849.344, 2.188e+003
850.618, 2.146e+003
851.892, 2.168e+003
853.166, 2.139e+003
854.440, 2.177e+003
855.713, 2.201e+003
856.986, 2.245e+003
858.259, 2.244e+003
859.532, 2.255e+003
860.804, 2.222e+003
862.077, 2.228e+003
863.349, 2.227e+003
864.621, 2.186e+003
865.893, 2.215e+003
867.164, 2.198e+003
868.436, 2.228e+003
869.707, 2.228e+003
870.978, 2.242e+003
872.248, 2.233e+003
873.519, 2.237e+003
874.789, 2.246e+003
876.060, 2.316e+003
877.330, 2.269e+003
878.599, 2.281e+003
879.869, 2.281e+003
881.138, 2.250e+003
882.408, 2.318e+003
883.677, 2.305e+003
884.945, 2.317e+003
886.214, 2.325e+003
887.482, 2.368e+003
888.751, 2.400e+003
890.019, 2.417e+003
891.287, 2.422e+003
892.554, 2.498e+003
893.822, 2.472e+003
895.089, 2.605e+003
896.356, 2.668e+003
897.623, 2.660e+003
898.889, 2.754e+003
900.156, 2.821e+003
901.422, 2.910e+003
902.688, 2.890e+003
903.954, 2.955e+003
905.220, 3.052e+003
906.485, 3.010e+003
907.750, 3.052e+003
909.015, 3.171e+003
910.280, 3.126e+003
911.545, 3.359e+003
912.809, 3.425e+003
914.074, 3.513e+003
915.338, 3.556e+003
916.602, 3.527e+003
917.865, 3.498e+003
919.129, 3.461e+003
920.392, 3.324e+003
921.655, 3.224e+003
922.918, 3.136e+003
924.181, 3.072e+003
925.443, 3.054e+003
926.706, 2.935e+003
927.968, 2.887e+003
929.230, 2.897e+003
930.491, 2.916e+003
931.753, 2.934e+003
933.014, 2.946e+003
934.276, 3.047e+003
935.536, 3.099e+003
936.797, 3.256e+003
938.058, 3.446e+003
939.318, 3.649e+003
940.578, 4.049e+003
941.838, 4.342e+003
943.098, 4.728e+003
944.358, 5.188e+003
945.617, 5.455e+003
946.876, 5.551e+003
948.135, 5.441e+003
949.394, 5.112e+003
950.653, 4.665e+003
951.911, 4.304e+003
953.169, 3.954e+003
954.427, 3.816e+003
955.685, 3.544e+003
956.943, 3.531e+003
958.200, 3.454e+003
959.458, 3.438e+003
960.715, 3.528e+003
961.971, 3.601e+003
963.228, 3.760e+003
964.485, 4.041e+003
965.741, 4.464e+003
966.997, 5.068e+003
968.253, 5.966e+003
969.508, 6.852e+003
970.764, 7.757e+003
972.019, 8.075e+003
973.274, 7.825e+003
974.529, 6.890e+003
975.784, 5.904e+003
977.039, 5.332e+003
978.293, 4.775e+003
979.547, 4.404e+003
980.801, 4.064e+003
982.055, 3.808e+003
983.308, 3.710e+003
984.562, 3.478e+003
985.815, 3.390e+003
987.068, 3.334e+003
988.321, 3.244e+003
989.573, 3.240e+003
990.826, 3.182e+003
992.078, 3.163e+003
993.330, 3.274e+003
994.582, 3.215e+003
995.833, 3.275e+003
997.085, 3.379e+003
998.336, 3.413e+003
999.587, 3.662e+003
1000.838, 3.848e+003
1002.088, 4.063e+003
1003.339, 4.606e+003
1004.589, 5.173e+003
1005.839, 6.030e+003
1007.089, 6.308e+003
1008.339, 6.058e+003
1009.588, 5.248e+003
1010.838, 4.492e+003
1012.087, 3.918e+003
1013.336, 3.524e+003
1014.584, 3.246e+003
1015.833, 3.125e+003
1017.081, 3.069e+003
1018.330, 2.926e+003
1019.577, 2.948e+003
1020.825, 2.865e+003
1022.073, 2.871e+003
1023.320, 2.849e+003
1024.567, 2.829e+003
1025.814, 2.854e+003
1027.061, 2.804e+003
1028.308, 2.785e+003
1029.554, 2.744e+003
1030.800, 2.647e+003
1032.046, 2.665e+003
1033.292, 2.653e+003
1034.538, 2.644e+003
1035.783, 2.604e+003
1037.029, 2.613e+003
1038.274, 2.611e+003
1039.519, 2.645e+003
1040.763, 2.568e+003
1042.008, 2.570e+003
1043.252, 2.577e+003
1044.496, 2.526e+003
1045.740, 2.510e+003
1046.984, 2.599e+003
1048.228, 2.568e+003
1049.471, 2.585e+003
1050.714, 2.535e+003
1051.957, 2.594e+003
1053.200, 2.546e+003
1054.442, 2.544e+003
1055.685, 2.590e+003
1056.927, 2.598e+003
1058.169, 2.597e+003
1059.411, 2.608e+003
1060.652, 2.624e+003
1061.894, 2.624e+003
1063.135, 2.576e+003
1064.376, 2.607e+003
1065.617, 2.624e+003
1066.858, 2.603e+003
1068.098, 2.629e+003
1069.339, 2.636e+003
1070.579, 2.622e+003
1071.819, 2.657e+003
1073.058, 2.680e+003
1074.298, 2.686e+003
1075.537, 2.693e+003
1076.776, 2.728e+003
1078.015, 2.810e+003
1079.254, 2.726e+003
1080.493, 2.753e+003
1081.731, 2.779e+003
1082.969, 2.794e+003
1084.207, 2.818e+003
1085.445, 2.794e+003
1086.683, 2.864e+003
1087.920, 2.946e+003
1089.157, 2.938e+003
1090.394, 3.008e+003
1091.631, 3.072e+003
1092.868, 3.085e+003
1094.105, 3.266e+003
1095.341, 3.339e+003
1096.577, 3.374e+003
1097.813, 3.574e+003
1099.049, 3.614e+003
1100.284, 3.808e+003
1101.519, 3.961e+003
1102.755, 4.034e+003
1103.990, 4.216e+003
1105.224, 4.252e+003
1106.459, 4.196e+003
1107.693, 4.180e+003
1108.928, 4.032e+003
1110.162, 3.918e+003
1111.395, 3.770e+003
1112.629, 3.608e+003
1113.863, 3.530e+003
1115.096, 3.370e+003
1116.329, 3.242e+003
1117.562, 3.239e+003
1118.795, 3.130e+003
1120.027, 3.234e+003
1121.259, 3.182e+003
1122.492, 3.096e+003
1123.723, 2.979e+003
1124.955, 2.913e+003
1126.187, 2.891e+003
1127.418, 2.920e+003
1128.649, 2.814e+003
1129.880, 2.862e+003
1131.111, 2.784e+003
1132.342, 2.747e+003
1133.572, 2.757e+003
1134.802, 2.722e+003
1136.033, 2.693e+003
1137.262, 2.781e+003
1138.492, 2.633e+003
1139.722, 2.680e+003
1140.951, 2.660e+003
1142.180, 2.688e+003
1143.409, 2.682e+003
1144.638, 2.651e+003
1145.866, 2.683e+003
1147.095, 2.638e+003
1148.323, 2.603e+003
1149.551, 2.607e+003
1150.779, 2.647e+003
1152.006, 2.625e+003
1153.234, 2.678e+003
1154.461, 2.645e+003
1155.688, 2.623e+003
1156.915, 2.638e+003
1158.141, 2.604e+003
1159.368, 2.669e+003
1160.594, 2.606e+003
1161.820, 2.646e+003
1163.046, 2.649e+003
1164.272, 2.633e+003
1165.498, 2.688e+003
1166.723, 2.718e+003
1167.948, 2.693e+003
1169.173, 2.752e+003
1170.398, 2.727e+003
1171.623, 2.790e+003
1172.847, 2.786e+003
1174.071, 2.770e+003
1175.295, 2.776e+003
1176.519, 2.788e+003
1177.743, 2.726e+003
1178.966, 2.807e+003
1180.190, 2.730e+003
1181.413, 2.714e+003
1182.636, 2.775e+003
1183.858, 2.690e+003
1185.081, 2.711e+003
1186.303, 2.692e+003
1187.526, 2.675e+003
1188.748, 2.715e+003
1189.969, 2.687e+003
1191.191, 2.668e+003
1192.412, 2.720e+003
1193.634, 2.637e+003
1194.855, 2.667e+003
1196.076, 2.676e+003
1197.296, 2.657e+003
1198.517, 2.680e+003
1199.737, 2.672e+003
1200.957, 2.681e+003
1202.177, 2.727e+003
1203.397, 2.667e+003
1204.617, 2.647e+003
1205.836, 2.656e+003
1207.055, 2.686e+003
1208.274, 2.735e+003
1209.493, 2.667e+003
1210.712, 2.685e+003
1211.930, 2.725e+003
1213.148, 2.697e+003
1214.367, 2.714e+003
1215.584, 2.722e+003
1216.802, 2.689e+003
1218.020, 2.740e+003
1219.237, 2.688e+003
1220.454, 2.729e+003
1221.671, 2.728e+003
1222.888, 2.737e+003
1224.105, 2.737e+003
1225.321, 2.706e+003
1226.537, 2.689e+003
1227.753, 2.693e+003
1228.969, 2.685e+003
1230.185, 2.692e+003
1231.400, 2.743e+003
1232.616, 2.697e+003
1233.831, 2.709e+003
1235.046, 2.732e+003
1236.261, 2.745e+003
1237.475, 2.715e+003
1238.689, 2.734e+003
1239.904, 2.688e+003
1241.118, 2.753e+003
1242.332, 2.733e+003
1243.545, 2.729e+003
1244.759, 2.761e+003
1245.972, 2.743e+003
1247.185, 2.772e+003
1248.398, 2.770e+003
1249.611, 2.737e+003
1250.823, 2.759e+003
1252.036, 2.794e+003
1253.248, 2.731e+003
1254.460, 2.794e+003
1255.671, 2.740e+003
1256.883, 2.802e+003
1258.095, 2.787e+003
1259.306, 2.777e+003
1260.517, 2.784e+003
1261.728, 2.743e+003
1262.938, 2.729e+003
1264.149, 2.768e+003
1265.359, 2.727e+003
1266.569, 2.744e+003
1267.779, 2.747e+003
1268.989, 2.755e+003
1270.199, 2.736e+003
1271.408, 2.723e+003
1272.617, 2.769e+003
1273.826, 2.761e+003
1275.035, 2.715e+003
1276.244, 2.761e+003
1277.452, 2.779e+003
1278.661, 2.720e+003
1279.869, 2.706e+003
1281.077, 2.698e+003
1282.285, 2.708e+003
1283.492, 2.758e+003
1284.700, 2.705e+003
1285.907, 2.692e+003
1287.114, 2.752e+003
1288.321, 2.639e+003
1289.527, 2.681e+003
1290.734, 2.729e+003
1291.940, 2.731e+003
1293.146, 2.729e+003
1294.352, 2.745e+003
1295.558, 2.735e+003
1296.763, 2.772e+003
1297.969, 2.735e+003
1299.174, 2.735e+003
1300.379, 2.755e+003
1301.584, 2.756e+003
1302.788, 2.746e+003
1303.993, 2.753e+003
1305.197, 2.757e+003
1306.401, 2.794e+003
1307.605, 2.767e+003
1308.809, 2.757e+003
1310.013, 2.800e+003
1311.216, 2.784e+003
1312.419, 2.807e+003
1313.622, 2.811e+003
1314.825, 2.809e+003
1316.028, 2.766e+003
1317.230, 2.787e+003
1318.432, 2.764e+003
1319.634, 2.851e+003
1320.836, 2.787e+003
1322.038, 2.824e+003
1323.240, 2.801e+003
1324.441, 2.793e+003
1325.642, 2.820e+003
1326.843, 2.827e+003
1328.044, 2.861e+003
1329.245, 2.809e+003
1330.445, 2.776e+003
1331.645, 2.820e+003
1332.845, 2.862e+003
1334.045, 2.847e+003
1335.245, 2.864e+003
1336.445, 2.869e+003
1337.644, 2.804e+003
1338.843, 2.826e+003
1340.042, 2.831e+003
1341.241, 2.803e+003
1342.440, 2.838e+003
1343.638, 2.833e+003
1344.836, 2.842e+003
1346.034, 2.850e+003
1347.232, 2.821e+003
1348.430, 2.825e+003
1349.628, 2.844e+003
1350.825, 2.847e+003
1352.022, 2.804e+003
1353.219, 2.842e+003
1354.416, 2.803e+003
1355.613, 2.893e+003
1356.809, 2.825e+003
1358.005, 2.838e+003
1359.202, 2.873e+003
1360.398, 2.850e+003
1361.593, 2.882e+003
1362.789, 2.831e+003
1363.984, 2.840e+003
1365.179, 2.894e+003
1366.374, 2.854e+003
1367.569, 2.834e+003
1368.764, 2.856e+003
1369.958, 2.854e+003
1371.153, 2.848e+003
1372.347, 2.889e+003
1373.541, 2.817e+003
1374.735, 2.882e+003
1375.928, 2.925e+003
1377.122, 2.860e+003
1378.315, 2.931e+003
1379.508, 2.923e+003
1380.701, 2.910e+003
1381.893, 2.935e+003
1383.086, 2.876e+003
1384.278, 2.942e+003
1385.470, 2.911e+003
1386.662, 2.898e+003
1387.854, 2.902e+003
1389.046, 2.915e+003
1390.237, 2.927e+003
1391.428, 2.903e+003
1392.619, 2.896e+003
1393.810, 2.906e+003
1395.001, 2.944e+003
1396.191, 2.899e+003
1397.382, 2.921e+003
1398.572, 2.946e+003
1399.762, 2.892e+003
1400.952, 2.915e+003
1402.141, 2.946e+003
1403.331, 2.937e+003
1404.520, 2.963e+003
1405.709, 2.894e+003
1406.898, 3.005e+003
1408.087, 2.923e+003
1409.275, 2.979e+003
1410.464, 2.951e+003
1411.652, 3.019e+003
1412.840, 2.975e+003
1414.028, 2.962e+003
1415.215, 2.951e+003
1416.403, 2.974e+003
1417.590, 3.036e+003
1418.777, 2.970e+003
1419.964, 3.005e+003
1421.151, 2.977e+003
1422.338, 3.031e+003
1423.524, 2.982e+003
1424.710, 2.998e+003
1425.896, 3.006e+003
1427.082, 2.984e+003
1428.268, 3.020e+003
1429.453, 3.051e+003
1430.639, 3.089e+003
1431.824, 3.031e+003
1433.009, 3.098e+003
1434.194, 3.089e+003
1435.378, 3.028e+003
1436.563, 3.062e+003
1437.747, 3.113e+003
1438.931, 3.061e+003
1440.115, 3.146e+003
1441.299, 3.175e+003
1442.482, 3.176e+003
1443.666, 3.148e+003
1444.849, 3.150e+003
1446.032, 3.154e+003
1447.215, 3.211e+003
1448.397, 3.154e+003
1449.580, 3.132e+003
1450.762, 3.259e+003
1451.944, 3.192e+003
1453.126, 3.183e+003
1454.308, 3.233e+003
1455.490, 3.194e+003
1456.671, 3.177e+003
1457.852, 3.176e+003
1459.033, 3.173e+003
1460.214, 3.228e+003
1461.395, 3.207e+003
1462.575, 3.174e+003
1463.756, 3.245e+003
1464.936, 3.222e+003
1466.116, 3.165e+003
1467.296, 3.184e+003
1468.475, 3.121e+003
1469.655, 3.147e+003
1470.834, 3.125e+003
1472.013, 3.112e+003
1473.192, 3.179e+003
1474.371, 3.111e+003
1475.550, 3.160e+003
1476.728, 3.111e+003
1477.906, 3.189e+003
1479.084, 3.138e+003
1480.262, 3.154e+003
1481.440, 3.129e+003
1482.617, 3.171e+003
1483.795, 3.131e+003
1484.972, 3.093e+003
1486.149, 3.166e+003
1487.326, 3.075e+003
1488.502, 3.152e+003
1489.679, 3.177e+003
1490.855, 3.088e+003
1492.031, 3.116e+003
1493.207, 3.093e+003
1494.383, 3.070e+003
1495.559, 3.109e+003
1496.734, 3.139e+003
1497.909, 3.117e+003
1499.084, 3.064e+003
1500.259, 3.116e+003
1501.434, 3.072e+003
1502.608, 3.130e+003
1503.783, 3.238e+003
1504.957, 1.750e+002
##END=



