##NAMES=Danburite
##RRUFFID=R040013
##IDEAL CHEMISTRY=CaB_2_Si_2_O_8_
##LOCALITY=Charcas, San Luis Potosi, Mexico
##OWNER=RRUFF
##SOURCE=Marcus Origlieri
##DESCRIPTION=Colorless prismatic single crystal
##STATUS=The identification of this mineral has been confirmed by X-ray diffraction and chemical analysis
##URL=rruff.info/R040013
##MEASURED CHEMISTRY=Ca_1.00_B_2.00_Si_2.00_O_8_
##PIN_ID=M00010
##ORIENTATION=Laser parallel to a* (1 0 0). Fiducial mark perpendicular to laser is parallel to b [0 1 0]
26.288, 8.130e+002
27.694, 8.120e+002
29.099, 8.100e+002
30.504, 8.220e+002
31.909, 8.040e+002
33.313, 8.120e+002
34.717, 7.830e+002
36.121, 8.020e+002
37.525, 8.040e+002
38.929, 8.040e+002
40.332, 7.780e+002
41.735, 7.840e+002
43.138, 7.630e+002
44.541, 7.660e+002
45.943, 7.520e+002
47.345, 7.500e+002
48.747, 7.210e+002
50.149, 7.110e+002
51.551, 7.200e+002
52.952, 6.950e+002
54.353, 6.870e+002
55.754, 6.770e+002
57.155, 6.810e+002
58.555, 6.590e+002
59.955, 6.470e+002
61.355, 6.520e+002
62.755, 6.550e+002
64.154, 6.450e+002
65.553, 6.190e+002
66.952, 6.120e+002
68.351, 6.290e+002
69.750, 6.600e+002
71.148, 6.470e+002
72.546, 6.450e+002
73.944, 6.780e+002
75.342, 7.040e+002
76.739, 6.820e+002
78.136, 6.830e+002
79.533, 7.110e+002
80.930, 7.300e+002
82.327, 7.380e+002
83.723, 7.310e+002
85.119, 7.490e+002
86.515, 7.810e+002
87.910, 8.200e+002
89.306, 8.180e+002
90.701, 8.600e+002
92.096, 8.660e+002
93.490, 9.190e+002
94.885, 9.350e+002
96.279, 9.550e+002
97.673, 9.990e+002
99.067, 1.025e+003
100.461, 1.061e+003
101.854, 1.066e+003
103.247, 1.130e+003
104.640, 1.134e+003
106.032, 1.195e+003
107.425, 1.219e+003
108.817, 1.297e+003
110.209, 1.501e+003
111.601, 3.115e+003
112.992, 5.704e+003
114.384, 3.043e+003
115.775, 1.787e+003
117.166, 1.758e+003
118.556, 1.892e+003
119.947, 2.306e+003
121.337, 3.205e+003
122.727, 4.193e+003
124.116, 4.383e+003
125.506, 3.968e+003
126.895, 3.905e+003
128.284, 3.730e+003
129.673, 3.076e+003
131.062, 2.334e+003
132.450, 1.884e+003
133.838, 1.679e+003
135.226, 1.680e+003
136.614, 1.828e+003
138.001, 1.908e+003
139.388, 1.856e+003
140.775, 1.702e+003
142.162, 1.591e+003
143.549, 1.539e+003
144.935, 1.606e+003
146.321, 1.708e+003
147.707, 2.027e+003
149.093, 2.726e+003
150.478, 3.022e+003
151.863, 2.531e+003
153.248, 1.981e+003
154.633, 1.661e+003
156.018, 1.552e+003
157.402, 1.507e+003
158.786, 1.683e+003
160.170, 1.916e+003
161.554, 2.396e+003
162.937, 3.572e+003
164.320, 4.608e+003
165.703, 4.225e+003
167.086, 3.001e+003
168.469, 2.202e+003
169.851, 1.907e+003
171.233, 1.801e+003
172.615, 1.910e+003
173.996, 2.165e+003
175.378, 2.742e+003
176.759, 3.691e+003
178.140, 5.323e+003
179.521, 7.376e+003
180.901, 7.749e+003
182.281, 6.093e+003
183.662, 4.123e+003
185.041, 2.914e+003
186.421, 2.386e+003
187.800, 2.273e+003
189.180, 2.324e+003
190.558, 2.498e+003
191.937, 2.482e+003
193.316, 2.313e+003
194.694, 2.135e+003
196.072, 2.128e+003
197.450, 2.414e+003
198.827, 2.857e+003
200.205, 3.872e+003
201.582, 5.098e+003
202.959, 5.687e+003
204.336, 4.820e+003
205.712, 3.777e+003
207.088, 3.389e+003
208.465, 3.625e+003
209.840, 3.996e+003
211.216, 3.731e+003
212.591, 3.010e+003
213.967, 2.399e+003
215.341, 2.017e+003
216.716, 1.870e+003
218.091, 1.697e+003
219.465, 1.670e+003
220.839, 1.662e+003
222.213, 1.651e+003
223.586, 1.713e+003
224.960, 1.827e+003
226.333, 1.826e+003
227.706, 1.772e+003
229.079, 1.667e+003
230.451, 1.639e+003
231.823, 1.693e+003
233.195, 1.757e+003
234.567, 1.801e+003
235.939, 2.016e+003
237.310, 2.329e+003
238.682, 2.871e+003
240.052, 3.792e+003
241.423, 5.423e+003
242.794, 8.010e+003
244.164, 9.423e+003
245.534, 8.824e+003
246.904, 6.870e+003
248.274, 5.065e+003
249.643, 3.835e+003
251.012, 3.036e+003
252.381, 2.536e+003
253.750, 2.241e+003
255.118, 2.328e+003
256.487, 1.922e+003
257.855, 1.842e+003
259.223, 1.752e+003
260.590, 1.696e+003
261.958, 1.647e+003
263.325, 1.628e+003
264.692, 1.596e+003
266.059, 1.601e+003
267.425, 1.630e+003
268.791, 1.635e+003
270.158, 1.622e+003
271.523, 1.619e+003
272.889, 1.696e+003
274.255, 1.740e+003
275.620, 1.865e+003
276.985, 1.979e+003
278.350, 1.941e+003
279.714, 1.772e+003
281.078, 1.632e+003
282.443, 1.614e+003
283.806, 1.547e+003
285.170, 1.543e+003
286.534, 1.533e+003
287.897, 1.582e+003
289.260, 1.623e+003
290.623, 1.686e+003
291.985, 1.804e+003
293.348, 1.890e+003
294.710, 1.932e+003
296.072, 1.887e+003
297.433, 1.836e+003
298.795, 1.802e+003
300.156, 1.883e+003
301.517, 2.131e+003
302.878, 2.528e+003
304.239, 2.798e+003
305.599, 2.676e+003
306.959, 2.663e+003
308.319, 2.784e+003
309.679, 3.053e+003
311.038, 3.142e+003
312.398, 2.884e+003
313.757, 2.593e+003
315.116, 2.254e+003
316.474, 1.967e+003
317.833, 1.847e+003
319.191, 1.713e+003
320.549, 1.677e+003
321.907, 1.636e+003
323.264, 1.662e+003
324.622, 1.623e+003
325.979, 1.634e+003
327.336, 1.644e+003
328.692, 1.667e+003
330.049, 1.691e+003
331.405, 1.702e+003
332.761, 1.741e+003
334.117, 1.740e+003
335.473, 1.780e+003
336.828, 1.886e+003
338.183, 2.016e+003
339.538, 2.246e+003
340.893, 2.664e+003
342.247, 3.372e+003
343.602, 4.535e+003
344.956, 6.031e+003
346.310, 7.055e+003
347.663, 6.552e+003
349.017, 5.126e+003
350.370, 3.776e+003
351.723, 2.891e+003
353.076, 2.405e+003
354.428, 2.112e+003
355.780, 1.964e+003
357.133, 1.871e+003
358.484, 1.763e+003
359.836, 1.732e+003
361.188, 1.657e+003
362.539, 1.654e+003
363.890, 1.635e+003
365.241, 1.628e+003
366.591, 1.635e+003
367.942, 1.602e+003
369.292, 1.610e+003
370.642, 1.563e+003
371.992, 1.592e+003
373.341, 1.606e+003
374.691, 1.565e+003
376.040, 1.587e+003
377.388, 1.600e+003
378.737, 1.596e+003
380.086, 1.642e+003
381.434, 1.622e+003
382.782, 1.643e+003
384.130, 1.637e+003
385.477, 1.685e+003
386.825, 1.742e+003
388.172, 1.762e+003
389.519, 1.904e+003
390.865, 2.059e+003
392.212, 2.247e+003
393.558, 2.345e+003
394.904, 2.241e+003
396.250, 2.070e+003
397.596, 1.884e+003
398.941, 1.811e+003
400.286, 1.758e+003
401.631, 1.744e+003
402.976, 1.792e+003
404.321, 1.885e+003
405.665, 1.861e+003
407.009, 1.817e+003
408.353, 1.802e+003
409.697, 1.787e+003
411.040, 1.792e+003
412.384, 1.820e+003
413.727, 1.834e+003
415.070, 1.908e+003
416.412, 1.958e+003
417.755, 2.120e+003
419.097, 2.266e+003
420.439, 2.500e+003
421.781, 2.710e+003
423.122, 2.865e+003
424.464, 2.815e+003
425.805, 2.647e+003
427.146, 2.419e+003
428.486, 2.155e+003
429.827, 1.984e+003
431.167, 1.864e+003
432.507, 1.859e+003
433.847, 1.874e+003
435.187, 1.925e+003
436.526, 2.063e+003
437.865, 2.331e+003
439.204, 2.586e+003
440.543, 2.675e+003
441.882, 2.555e+003
443.220, 2.302e+003
444.558, 2.154e+003
445.896, 1.969e+003
447.234, 1.898e+003
448.572, 1.838e+003
449.909, 1.748e+003
451.246, 1.775e+003
452.583, 1.778e+003
453.919, 1.822e+003
455.256, 1.786e+003
456.592, 1.869e+003
457.928, 1.953e+003
459.264, 2.038e+003
460.600, 2.013e+003
461.935, 1.957e+003
463.270, 1.929e+003
464.605, 1.912e+003
465.940, 1.888e+003
467.274, 1.921e+003
468.609, 1.932e+003
469.943, 2.019e+003
471.277, 2.202e+003
472.610, 2.562e+003
473.944, 3.157e+003
475.277, 4.152e+003
476.610, 5.737e+003
477.943, 7.250e+003
479.275, 7.222e+003
480.608, 5.827e+003
481.940, 4.321e+003
483.272, 3.256e+003
484.604, 2.615e+003
485.935, 2.323e+003
487.267, 2.115e+003
488.598, 2.031e+003
489.929, 1.969e+003
491.260, 1.879e+003
492.590, 1.815e+003
493.920, 1.824e+003
495.250, 1.836e+003
496.580, 1.823e+003
497.910, 1.768e+003
499.239, 1.819e+003
500.569, 1.780e+003
501.898, 1.764e+003
503.226, 1.705e+003
504.555, 1.749e+003
505.883, 1.746e+003
507.212, 1.724e+003
508.540, 1.750e+003
509.867, 1.713e+003
511.195, 1.763e+003
512.522, 1.761e+003
513.849, 1.777e+003
515.176, 1.777e+003
516.503, 1.769e+003
517.829, 1.739e+003
519.156, 1.730e+003
520.482, 1.756e+003
521.808, 1.750e+003
523.133, 1.784e+003
524.459, 1.731e+003
525.784, 1.792e+003
527.109, 1.742e+003
528.434, 1.754e+003
529.758, 1.768e+003
531.083, 1.772e+003
532.407, 1.793e+003
533.731, 1.795e+003
535.055, 1.775e+003
536.378, 1.825e+003
537.701, 1.787e+003
539.025, 1.772e+003
540.348, 1.810e+003
541.670, 1.819e+003
542.993, 1.811e+003
544.315, 1.878e+003
545.637, 1.851e+003
546.959, 1.863e+003
548.281, 1.865e+003
549.602, 1.884e+003
550.923, 1.876e+003
552.244, 1.925e+003
553.565, 1.947e+003
554.886, 1.935e+003
556.206, 2.014e+003
557.526, 2.071e+003
558.846, 2.171e+003
560.166, 2.321e+003
561.486, 2.401e+003
562.805, 2.284e+003
564.124, 2.193e+003
565.443, 2.124e+003
566.762, 2.043e+003
568.080, 1.981e+003
569.399, 2.032e+003
570.717, 2.017e+003
572.035, 2.045e+003
573.352, 2.065e+003
574.670, 2.074e+003
575.987, 2.098e+003
577.304, 2.106e+003
578.621, 2.136e+003
579.938, 2.185e+003
581.254, 2.254e+003
582.570, 2.276e+003
583.886, 2.334e+003
585.202, 2.372e+003
586.518, 2.471e+003
587.833, 2.475e+003
589.148, 2.588e+003
590.463, 2.714e+003
591.778, 2.820e+003
593.093, 2.989e+003
594.407, 3.168e+003
595.721, 3.441e+003
597.035, 3.806e+003
598.349, 4.295e+003
599.662, 4.992e+003
600.976, 6.036e+003
602.289, 7.586e+003
603.602, 9.958e+003
604.914, 1.339e+004
606.227, 1.798e+004
607.539, 2.238e+004
608.851, 2.445e+004
610.163, 2.273e+004
611.475, 1.834e+004
612.786, 1.428e+004
614.097, 1.098e+004
615.408, 8.412e+003
616.719, 6.996e+003
618.030, 5.865e+003
619.340, 5.210e+003
620.651, 4.971e+003
621.961, 4.948e+003
623.270, 5.278e+003
624.580, 5.585e+003
625.889, 5.921e+003
627.199, 5.667e+003
628.507, 5.078e+003
629.816, 4.526e+003
631.125, 3.889e+003
632.433, 3.481e+003
633.741, 3.214e+003
635.049, 2.991e+003
636.357, 2.834e+003
637.664, 2.724e+003
638.972, 2.614e+003
640.279, 2.549e+003
641.586, 2.527e+003
642.893, 2.421e+003
644.199, 2.390e+003
645.505, 2.370e+003
646.811, 2.335e+003
648.117, 2.318e+003
649.423, 2.300e+003
650.728, 2.249e+003
652.034, 2.236e+003
653.339, 2.192e+003
654.644, 2.152e+003
655.948, 2.142e+003
657.253, 2.141e+003
658.557, 2.130e+003
659.861, 2.125e+003
661.165, 2.127e+003
662.468, 2.100e+003
663.772, 2.112e+003
665.075, 2.106e+003
666.378, 2.130e+003
667.681, 2.092e+003
668.983, 2.079e+003
670.286, 2.097e+003
671.588, 2.091e+003
672.890, 2.127e+003
674.192, 2.085e+003
675.493, 2.113e+003
676.795, 2.099e+003
678.096, 2.095e+003
679.397, 2.064e+003
680.697, 2.083e+003
681.998, 2.075e+003
683.298, 2.067e+003
684.598, 2.095e+003
685.898, 2.075e+003
687.198, 2.056e+003
688.498, 2.073e+003
689.797, 2.087e+003
691.096, 2.059e+003
692.395, 2.066e+003
693.694, 2.062e+003
694.992, 2.101e+003
696.290, 2.102e+003
697.589, 2.067e+003
698.886, 2.053e+003
700.184, 2.072e+003
701.482, 2.086e+003
702.779, 2.119e+003
704.076, 2.079e+003
705.373, 2.125e+003
706.669, 2.110e+003
707.966, 2.112e+003
709.262, 2.115e+003
710.558, 2.182e+003
711.854, 2.196e+003
713.150, 2.266e+003
714.445, 2.281e+003
715.740, 2.321e+003
717.035, 2.245e+003
718.330, 2.198e+003
719.625, 2.173e+003
720.919, 2.142e+003
722.214, 2.163e+003
723.508, 2.178e+003
724.801, 2.127e+003
726.095, 2.093e+003
727.388, 2.131e+003
728.682, 2.121e+003
729.975, 2.127e+003
731.267, 2.168e+003
732.560, 2.123e+003
733.852, 2.127e+003
735.145, 2.131e+003
736.437, 2.168e+003
737.728, 2.114e+003
739.020, 2.139e+003
740.311, 2.134e+003
741.603, 2.109e+003
742.894, 2.143e+003
744.184, 2.121e+003
745.475, 2.184e+003
746.765, 2.161e+003
748.055, 2.132e+003
749.345, 2.184e+003
750.635, 2.164e+003
751.925, 2.143e+003
753.214, 2.179e+003
754.503, 2.148e+003
755.792, 2.146e+003
757.081, 2.174e+003
758.370, 2.174e+003
759.658, 2.198e+003
760.946, 2.184e+003
762.234, 2.241e+003
763.522, 2.221e+003
764.809, 2.226e+003
766.097, 2.311e+003
767.384, 2.255e+003
768.671, 2.354e+003
769.958, 2.339e+003
771.244, 2.377e+003
772.530, 2.496e+003
773.817, 2.458e+003
775.102, 2.492e+003
776.388, 2.474e+003
777.674, 2.395e+003
778.959, 2.350e+003
780.244, 2.338e+003
781.529, 2.267e+003
782.814, 2.240e+003
784.098, 2.225e+003
785.383, 2.271e+003
786.667, 2.183e+003
787.951, 2.218e+003
789.235, 2.227e+003
790.518, 2.203e+003
791.801, 2.272e+003
793.084, 2.227e+003
794.367, 2.205e+003
795.650, 2.227e+003
796.933, 2.176e+003
798.215, 2.242e+003
799.497, 2.258e+003
800.779, 2.250e+003
802.061, 2.229e+003
803.342, 2.203e+003
804.624, 2.253e+003
805.905, 2.219e+003
807.186, 2.240e+003
808.466, 2.217e+003
809.747, 2.244e+003
811.027, 2.211e+003
812.307, 2.242e+003
813.587, 2.241e+003
814.867, 2.217e+003
816.146, 2.201e+003
817.426, 2.272e+003
818.705, 2.194e+003
819.984, 2.227e+003
821.263, 2.235e+003
822.541, 2.202e+003
823.819, 2.249e+003
825.098, 2.257e+003
826.375, 2.264e+003
827.653, 2.242e+003
828.931, 2.242e+003
830.208, 2.278e+003
831.485, 2.260e+003
832.762, 2.296e+003
834.039, 2.272e+003
835.315, 2.277e+003
836.592, 2.316e+003
837.868, 2.289e+003
839.144, 2.327e+003
840.420, 2.341e+003
841.695, 2.285e+003
842.970, 2.324e+003
844.246, 2.304e+003
845.521, 2.318e+003
846.795, 2.293e+003
848.070, 2.300e+003
849.344, 2.308e+003
850.618, 2.330e+003
851.892, 2.327e+003
853.166, 2.410e+003
854.440, 2.366e+003
855.713, 2.346e+003
856.986, 2.398e+003
858.259, 2.370e+003
859.532, 2.378e+003
860.804, 2.375e+003
862.077, 2.388e+003
863.349, 2.418e+003
864.621, 2.426e+003
865.893, 2.413e+003
867.164, 2.435e+003
868.436, 2.445e+003
869.707, 2.476e+003
870.978, 2.440e+003
872.248, 2.418e+003
873.519, 2.442e+003
874.789, 2.475e+003
876.060, 2.492e+003
877.330, 2.442e+003
878.599, 2.453e+003
879.869, 2.505e+003
881.138, 2.455e+003
882.408, 2.506e+003
883.677, 2.466e+003
884.945, 2.517e+003
886.214, 2.526e+003
887.482, 2.516e+003
888.751, 2.581e+003
890.019, 2.566e+003
891.287, 2.564e+003
892.554, 2.626e+003
893.822, 2.588e+003
895.089, 2.682e+003
896.356, 2.739e+003
897.623, 2.757e+003
898.889, 2.771e+003
900.156, 2.802e+003
901.422, 2.824e+003
902.688, 2.849e+003
903.954, 2.830e+003
905.220, 2.882e+003
906.485, 2.861e+003
907.750, 2.892e+003
909.015, 2.937e+003
910.280, 2.903e+003
911.545, 2.962e+003
912.809, 3.050e+003
914.074, 3.109e+003
915.338, 3.165e+003
916.602, 3.178e+003
917.865, 3.215e+003
919.129, 3.329e+003
920.392, 3.377e+003
921.655, 3.421e+003
922.918, 3.401e+003
924.181, 3.273e+003
925.443, 3.220e+003
926.706, 3.071e+003
927.968, 3.000e+003
929.230, 2.890e+003
930.491, 2.863e+003
931.753, 2.868e+003
933.014, 2.807e+003
934.276, 2.817e+003
935.536, 2.806e+003
936.797, 2.828e+003
938.058, 2.906e+003
939.318, 2.932e+003
940.578, 3.010e+003
941.838, 3.169e+003
943.098, 3.278e+003
944.358, 3.393e+003
945.617, 3.463e+003
946.876, 3.534e+003
948.135, 3.535e+003
949.394, 3.455e+003
950.653, 3.392e+003
951.911, 3.274e+003
953.169, 3.129e+003
954.427, 3.062e+003
955.685, 2.999e+003
956.943, 2.964e+003
958.200, 2.941e+003
959.458, 2.982e+003
960.715, 3.060e+003
961.971, 3.028e+003
963.228, 3.151e+003
964.485, 3.232e+003
965.741, 3.409e+003
966.997, 3.637e+003
968.253, 3.959e+003
969.508, 4.186e+003
970.764, 4.570e+003
972.019, 4.761e+003
973.274, 4.617e+003
974.529, 4.332e+003
975.784, 3.986e+003
977.039, 3.721e+003
978.293, 3.457e+003
979.547, 3.311e+003
980.801, 3.215e+003
982.055, 3.161e+003
983.308, 3.099e+003
984.562, 3.002e+003
985.815, 3.008e+003
987.068, 3.010e+003
988.321, 2.957e+003
989.573, 2.970e+003
990.826, 2.948e+003
992.078, 2.902e+003
993.330, 2.962e+003
994.582, 2.932e+003
995.833, 2.960e+003
997.085, 3.073e+003
998.336, 3.040e+003
999.587, 3.105e+003
1000.838, 3.147e+003
1002.088, 3.213e+003
1003.339, 3.294e+003
1004.589, 3.446e+003
1005.839, 3.629e+003
1007.089, 3.717e+003
1008.339, 3.676e+003
1009.588, 3.452e+003
1010.838, 3.262e+003
1012.087, 3.119e+003
1013.336, 3.031e+003
1014.584, 2.936e+003
1015.833, 2.972e+003
1017.081, 2.908e+003
1018.330, 2.881e+003
1019.577, 2.870e+003
1020.825, 2.916e+003
1022.073, 2.957e+003
1023.320, 2.981e+003
1024.567, 3.029e+003
1025.814, 3.052e+003
1027.061, 3.004e+003
1028.308, 3.017e+003
1029.554, 2.963e+003
1030.800, 2.937e+003
1032.046, 2.908e+003
1033.292, 2.884e+003
1034.538, 2.870e+003
1035.783, 2.869e+003
1037.029, 2.830e+003
1038.274, 2.827e+003
1039.519, 2.915e+003
1040.763, 2.828e+003
1042.008, 2.839e+003
1043.252, 2.835e+003
1044.496, 2.817e+003
1045.740, 2.818e+003
1046.984, 2.779e+003
1048.228, 2.793e+003
1049.471, 2.816e+003
1050.714, 2.772e+003
1051.957, 2.774e+003
1053.200, 2.806e+003
1054.442, 2.790e+003
1055.685, 2.812e+003
1056.927, 2.809e+003
1058.169, 2.817e+003
1059.411, 2.798e+003
1060.652, 2.805e+003
1061.894, 2.807e+003
1063.135, 2.816e+003
1064.376, 2.824e+003
1065.617, 2.860e+003
1066.858, 2.887e+003
1068.098, 2.893e+003
1069.339, 2.857e+003
1070.579, 2.874e+003
1071.819, 2.935e+003
1073.058, 2.930e+003
1074.298, 2.962e+003
1075.537, 2.982e+003
1076.776, 2.986e+003
1078.015, 2.988e+003
1079.254, 3.044e+003
1080.493, 3.019e+003
1081.731, 3.075e+003
1082.969, 3.034e+003
1084.207, 3.070e+003
1085.445, 3.080e+003
1086.683, 3.060e+003
1087.920, 3.127e+003
1089.157, 3.087e+003
1090.394, 3.118e+003
1091.631, 3.215e+003
1092.868, 3.287e+003
1094.105, 3.329e+003
1095.341, 3.415e+003
1096.577, 3.479e+003
1097.813, 3.634e+003
1099.049, 3.734e+003
1100.284, 3.798e+003
1101.519, 3.913e+003
1102.755, 3.939e+003
1103.990, 4.117e+003
1105.224, 4.161e+003
1106.459, 4.147e+003
1107.693, 4.176e+003
1108.928, 4.030e+003
1110.162, 3.949e+003
1111.395, 3.901e+003
1112.629, 3.675e+003
1113.863, 3.628e+003
1115.096, 3.520e+003
1116.329, 3.487e+003
1117.562, 3.481e+003
1118.795, 3.302e+003
1120.027, 3.317e+003
1121.259, 3.338e+003
1122.492, 3.252e+003
1123.723, 3.191e+003
1124.955, 3.152e+003
1126.187, 3.168e+003
1127.418, 3.154e+003
1128.649, 3.056e+003
1129.880, 3.109e+003
1131.111, 3.059e+003
1132.342, 3.051e+003
1133.572, 3.023e+003
1134.802, 2.997e+003
1136.033, 3.023e+003
1137.262, 2.992e+003
1138.492, 2.973e+003
1139.722, 2.997e+003
1140.951, 2.909e+003
1142.180, 2.953e+003
1143.409, 2.950e+003
1144.638, 2.951e+003
1145.866, 2.930e+003
1147.095, 2.944e+003
1148.323, 2.935e+003
1149.551, 2.994e+003
1150.779, 2.929e+003
1152.006, 2.905e+003
1153.234, 2.948e+003
1154.461, 2.946e+003
1155.688, 2.990e+003
1156.915, 2.923e+003
1158.141, 2.937e+003
1159.368, 2.977e+003
1160.594, 2.975e+003
1161.820, 3.007e+003
1163.046, 3.036e+003
1164.272, 2.979e+003
1165.498, 3.038e+003
1166.723, 3.081e+003
1167.948, 3.111e+003
1169.173, 3.153e+003
1170.398, 3.154e+003
1171.623, 3.210e+003
1172.847, 3.235e+003
1174.071, 3.260e+003
1175.295, 3.231e+003
1176.519, 3.202e+003
1177.743, 3.167e+003
1178.966, 3.169e+003
1180.190, 3.150e+003
1181.413, 3.105e+003
1182.636, 3.106e+003
1183.858, 3.122e+003
1185.081, 3.092e+003
1186.303, 3.039e+003
1187.526, 3.003e+003
1188.748, 3.031e+003
1189.969, 3.040e+003
1191.191, 3.050e+003
1192.412, 3.064e+003
1193.634, 2.996e+003
1194.855, 2.998e+003
1196.076, 2.985e+003
1197.296, 3.020e+003
1198.517, 2.999e+003
1199.737, 3.033e+003
1200.957, 3.008e+003
1202.177, 3.022e+003
1203.397, 2.977e+003
1204.617, 2.996e+003
1205.836, 3.022e+003
1207.055, 3.023e+003
1208.274, 3.028e+003
1209.493, 3.022e+003
1210.712, 3.039e+003
1211.930, 2.981e+003
1213.148, 3.034e+003
1214.367, 3.023e+003
1215.584, 3.067e+003
1216.802, 3.020e+003
1218.020, 3.070e+003
1219.237, 3.004e+003
1220.454, 3.023e+003
1221.671, 3.021e+003
1222.888, 3.019e+003
1224.105, 3.045e+003
1225.321, 3.040e+003
1226.537, 3.042e+003
1227.753, 3.023e+003
1228.969, 3.001e+003
1230.185, 3.026e+003
1231.400, 3.052e+003
1232.616, 3.036e+003
1233.831, 3.017e+003
1235.046, 3.037e+003
1236.261, 3.068e+003
1237.475, 3.113e+003
1238.689, 3.056e+003
1239.904, 3.030e+003
1241.118, 3.105e+003
1242.332, 3.066e+003
1243.545, 3.072e+003
1244.759, 3.060e+003
1245.972, 3.062e+003
1247.185, 3.077e+003
1248.398, 3.089e+003
1249.611, 3.098e+003
1250.823, 3.042e+003
1252.036, 3.070e+003
1253.248, 3.074e+003
1254.460, 3.113e+003
1255.671, 3.066e+003
1256.883, 3.099e+003
1258.095, 3.105e+003
1259.306, 3.112e+003
1260.517, 3.102e+003
1261.728, 3.085e+003
1262.938, 3.087e+003
1264.149, 3.108e+003
1265.359, 3.109e+003
1266.569, 3.099e+003
1267.779, 3.092e+003
1268.989, 3.084e+003
1270.199, 3.129e+003
1271.408, 3.136e+003
1272.617, 3.094e+003
1273.826, 3.103e+003
1275.035, 3.053e+003
1276.244, 3.077e+003
1277.452, 3.126e+003
1278.661, 3.116e+003
1279.869, 3.086e+003
1281.077, 3.107e+003
1282.285, 3.042e+003
1283.492, 3.115e+003
1284.700, 3.113e+003
1285.907, 3.107e+003
1287.114, 3.142e+003
1288.321, 3.060e+003
1289.527, 3.122e+003
1290.734, 3.149e+003
1291.940, 3.094e+003
1293.146, 3.127e+003
1294.352, 3.103e+003
1295.558, 3.065e+003
1296.763, 3.159e+003
1297.969, 3.045e+003
1299.174, 3.082e+003
1300.379, 3.161e+003
1301.584, 3.087e+003
1302.788, 3.148e+003
1303.993, 3.126e+003
1305.197, 3.089e+003
1306.401, 3.118e+003
1307.605, 3.156e+003
1308.809, 3.105e+003
1310.013, 3.174e+003
1311.216, 3.136e+003
1312.419, 3.221e+003
1313.622, 3.172e+003
1314.825, 3.161e+003
1316.028, 3.206e+003
1317.230, 3.140e+003
1318.432, 3.168e+003
1319.634, 3.184e+003
1320.836, 3.210e+003
1322.038, 3.160e+003
1323.240, 3.150e+003
1324.441, 3.201e+003
1325.642, 3.245e+003
1326.843, 3.187e+003
1328.044, 3.210e+003
1329.245, 3.173e+003
1330.445, 3.198e+003
1331.645, 3.229e+003
1332.845, 3.210e+003
1334.045, 3.225e+003
1335.245, 3.160e+003
1336.445, 3.209e+003
1337.644, 3.211e+003
1338.843, 3.222e+003
1340.042, 3.228e+003
1341.241, 3.172e+003
1342.440, 3.235e+003
1343.638, 3.259e+003
1344.836, 3.239e+003
1346.034, 3.234e+003
1347.232, 3.239e+003
1348.430, 3.221e+003
1349.628, 3.204e+003
1350.825, 3.235e+003
1352.022, 3.328e+003
1353.219, 3.226e+003
1354.416, 3.294e+003
1355.613, 3.298e+003
1356.809, 3.215e+003
1358.005, 3.281e+003
1359.202, 3.296e+003
1360.398, 3.315e+003
1361.593, 3.310e+003
1362.789, 3.255e+003
1363.984, 3.298e+003
1365.179, 3.339e+003
1366.374, 3.282e+003
1367.569, 3.274e+003
1368.764, 3.308e+003
1369.958, 3.311e+003
1371.153, 3.313e+003
1372.347, 3.337e+003
1373.541, 3.329e+003
1374.735, 3.324e+003
1375.928, 3.373e+003
1377.122, 3.306e+003
1378.315, 3.328e+003
1379.508, 3.376e+003
1380.701, 3.343e+003
1381.893, 3.314e+003
1383.086, 3.305e+003
1384.278, 3.319e+003
1385.470, 3.360e+003
1386.662, 3.336e+003
1387.854, 3.367e+003
1389.046, 3.348e+003
1390.237, 3.396e+003
1391.428, 3.362e+003
1392.619, 3.381e+003
1393.810, 3.401e+003
1395.001, 3.360e+003
1396.191, 3.362e+003
1397.382, 3.375e+003
1398.572, 3.421e+003
1399.762, 3.369e+003
1400.952, 3.403e+003
1402.141, 3.371e+003
1403.331, 3.389e+003
1404.520, 3.452e+003
1405.709, 3.420e+003
1406.898, 3.423e+003
1408.087, 3.385e+003
1409.275, 3.403e+003
1410.464, 3.414e+003
1411.652, 3.442e+003
1412.840, 3.464e+003
1414.028, 3.454e+003
1415.215, 3.433e+003
1416.403, 3.451e+003
1417.590, 3.447e+003
1418.777, 3.447e+003
1419.964, 3.485e+003
1421.151, 3.462e+003
1422.338, 3.424e+003
1423.524, 3.500e+003
1424.710, 3.492e+003
1425.896, 3.442e+003
1427.082, 3.503e+003
1428.268, 3.525e+003
1429.453, 3.504e+003
1430.639, 3.497e+003
1431.824, 3.566e+003
1433.009, 3.495e+003
1434.194, 3.512e+003
1435.378, 3.578e+003
1436.563, 3.554e+003
1437.747, 3.586e+003
1438.931, 3.617e+003
1440.115, 3.585e+003
1441.299, 3.641e+003
1442.482, 3.627e+003
1443.666, 3.642e+003
1444.849, 3.645e+003
1446.032, 3.639e+003
1447.215, 3.639e+003
1448.397, 3.652e+003
1449.580, 3.671e+003
1450.762, 3.692e+003
1451.944, 3.698e+003
1453.126, 3.645e+003
1454.308, 3.693e+003
1455.490, 3.662e+003
1456.671, 3.693e+003
1457.852, 3.590e+003
1459.033, 3.675e+003
1460.214, 3.719e+003
1461.395, 3.592e+003
1462.575, 3.671e+003
1463.756, 3.725e+003
1464.936, 3.678e+003
1466.116, 3.679e+003
1467.296, 3.678e+003
1468.475, 3.646e+003
1469.655, 3.652e+003
1470.834, 3.634e+003
1472.013, 3.625e+003
1473.192, 3.658e+003
1474.371, 3.662e+003
1475.550, 3.693e+003
1476.728, 3.666e+003
1477.906, 3.686e+003
1479.084, 3.622e+003
1480.262, 3.661e+003
1481.440, 3.612e+003
1482.617, 3.658e+003
1483.795, 3.647e+003
1484.972, 3.600e+003
1486.149, 3.620e+003
1487.326, 3.628e+003
1488.502, 3.638e+003
1489.679, 3.671e+003
1490.855, 3.615e+003
1492.031, 3.662e+003
1493.207, 3.649e+003
1494.383, 3.627e+003
1495.559, 3.678e+003
1496.734, 3.716e+003
1497.909, 3.679e+003
1499.084, 3.671e+003
1500.259, 3.675e+003
1501.434, 3.662e+003
1502.608, 3.703e+003
1503.783, 3.768e+003
1504.957, 1.750e+002
##END=



