##NAMES=Danburite
##RRUFFID=R040013
##IDEAL CHEMISTRY=CaB_2_Si_2_O_8_
##LOCALITY=Charcas, San Luis Potosi, Mexico
##OWNER=RRUFF
##SOURCE=Marcus Origlieri
##DESCRIPTION=Colorless prismatic single crystal
##STATUS=The identification of this mineral has been confirmed by X-ray diffraction and chemical analysis
##URL=rruff.info/R040013
##MEASURED CHEMISTRY=Ca_1.00_B_2.00_Si_2.00_O_8_
##PIN_ID=M00009
##ORIENTATION=Laser parallel to b* (0 1 0). Fiducial mark perpendicular to laser is parallel to -c [0 0 -1]
26.288, 1.895e+003
27.694, 1.914e+003
29.099, 1.827e+003
30.504, 1.800e+003
31.909, 1.802e+003
33.313, 1.786e+003
34.717, 1.785e+003
36.121, 1.770e+003
37.525, 1.778e+003
38.929, 1.760e+003
40.332, 1.761e+003
41.735, 1.772e+003
43.138, 1.760e+003
44.541, 1.769e+003
45.943, 1.736e+003
47.345, 1.684e+003
48.747, 1.661e+003
50.149, 1.690e+003
51.551, 1.702e+003
52.952, 1.741e+003
54.353, 1.691e+003
55.754, 1.694e+003
57.155, 1.711e+003
58.555, 1.694e+003
59.955, 1.664e+003
61.355, 1.625e+003
62.755, 1.591e+003
64.154, 1.557e+003
65.553, 1.513e+003
66.952, 1.490e+003
68.351, 1.423e+003
69.750, 1.400e+003
71.148, 1.329e+003
72.546, 1.295e+003
73.944, 1.314e+003
75.342, 1.309e+003
76.739, 1.264e+003
78.136, 1.305e+003
79.533, 1.329e+003
80.930, 1.411e+003
82.327, 1.440e+003
83.723, 1.540e+003
85.119, 1.680e+003
86.515, 1.740e+003
87.910, 1.907e+003
89.306, 1.987e+003
90.701, 2.295e+003
92.096, 2.428e+003
93.490, 2.698e+003
94.885, 2.946e+003
96.279, 3.049e+003
97.673, 3.466e+003
99.067, 3.534e+003
100.461, 3.849e+003
101.854, 3.782e+003
103.247, 3.873e+003
104.640, 4.094e+003
106.032, 3.962e+003
107.425, 4.274e+003
108.817, 4.284e+003
110.209, 5.140e+003
111.601, 7.749e+003
112.992, 8.455e+003
114.384, 6.564e+003
115.775, 5.316e+003
117.166, 4.971e+003
118.556, 4.783e+003
119.947, 5.326e+003
121.337, 6.330e+003
122.727, 7.444e+003
124.116, 7.406e+003
125.506, 5.936e+003
126.895, 4.933e+003
128.284, 4.163e+003
129.673, 3.934e+003
131.062, 3.740e+003
132.450, 3.681e+003
133.838, 3.689e+003
135.226, 3.499e+003
136.614, 3.625e+003
138.001, 3.404e+003
139.388, 3.521e+003
140.775, 3.412e+003
142.162, 3.402e+003
143.549, 3.399e+003
144.935, 3.297e+003
146.321, 3.415e+003
147.707, 3.249e+003
149.093, 3.399e+003
150.478, 3.251e+003
151.863, 3.292e+003
153.248, 3.326e+003
154.633, 3.264e+003
156.018, 3.328e+003
157.402, 3.212e+003
158.786, 3.399e+003
160.170, 3.556e+003
161.554, 3.705e+003
162.937, 4.422e+003
164.320, 5.167e+003
165.703, 5.160e+003
167.086, 4.265e+003
168.469, 3.819e+003
169.851, 3.577e+003
171.233, 3.551e+003
172.615, 3.755e+003
173.996, 3.987e+003
175.378, 4.633e+003
176.759, 5.655e+003
178.140, 7.790e+003
179.521, 1.134e+004
180.901, 1.410e+004
182.281, 1.355e+004
183.662, 9.655e+003
185.041, 6.634e+003
186.421, 5.204e+003
187.800, 4.921e+003
189.180, 5.563e+003
190.558, 6.989e+003
191.937, 8.443e+003
193.316, 7.793e+003
194.694, 6.033e+003
196.072, 4.520e+003
197.450, 3.862e+003
198.827, 3.626e+003
200.205, 3.494e+003
201.582, 3.628e+003
202.959, 3.760e+003
204.336, 4.093e+003
205.712, 4.546e+003
207.088, 5.561e+003
208.465, 7.226e+003
209.840, 8.244e+003
211.216, 7.742e+003
212.591, 5.956e+003
213.967, 4.713e+003
215.341, 4.003e+003
216.716, 3.767e+003
218.091, 3.638e+003
219.465, 3.684e+003
220.839, 4.039e+003
222.213, 4.486e+003
223.586, 5.980e+003
224.960, 7.808e+003
226.333, 8.082e+003
227.706, 6.596e+003
229.079, 4.919e+003
230.451, 4.314e+003
231.823, 3.949e+003
233.195, 4.090e+003
234.567, 4.301e+003
235.939, 4.699e+003
237.310, 5.553e+003
238.682, 6.864e+003
240.052, 9.226e+003
241.423, 1.296e+004
242.794, 1.830e+004
244.164, 2.128e+004
245.534, 1.892e+004
246.904, 1.394e+004
248.274, 9.628e+003
249.643, 7.055e+003
251.012, 5.643e+003
252.381, 4.886e+003
253.750, 4.480e+003
255.118, 4.097e+003
256.487, 4.009e+003
257.855, 3.722e+003
259.223, 3.698e+003
260.590, 3.535e+003
261.958, 3.499e+003
263.325, 3.523e+003
264.692, 3.440e+003
266.059, 3.510e+003
267.425, 3.334e+003
268.791, 3.376e+003
270.158, 3.350e+003
271.523, 3.331e+003
272.889, 3.386e+003
274.255, 3.246e+003
275.620, 3.380e+003
276.985, 3.330e+003
278.350, 3.315e+003
279.714, 3.378e+003
281.078, 3.398e+003
282.443, 3.469e+003
283.806, 3.506e+003
285.170, 3.733e+003
286.534, 3.921e+003
287.897, 4.361e+003
289.260, 5.003e+003
290.623, 5.893e+003
291.985, 7.232e+003
293.348, 8.532e+003
294.710, 8.882e+003
296.072, 7.859e+003
297.433, 6.293e+003
298.795, 5.118e+003
300.156, 4.328e+003
301.517, 4.030e+003
302.878, 3.791e+003
304.239, 3.736e+003
305.599, 3.788e+003
306.959, 3.876e+003
308.319, 4.116e+003
309.679, 4.306e+003
311.038, 4.494e+003
312.398, 4.423e+003
313.757, 4.103e+003
315.116, 3.837e+003
316.474, 3.516e+003
317.833, 3.493e+003
319.191, 3.404e+003
320.549, 3.377e+003
321.907, 3.350e+003
323.264, 3.336e+003
324.622, 3.452e+003
325.979, 3.514e+003
327.336, 3.831e+003
328.692, 4.000e+003
330.049, 4.000e+003
331.405, 3.873e+003
332.761, 3.513e+003
334.117, 3.530e+003
335.473, 3.379e+003
336.828, 3.480e+003
338.183, 3.526e+003
339.538, 3.549e+003
340.893, 3.872e+003
342.247, 4.252e+003
343.602, 4.932e+003
344.956, 5.888e+003
346.310, 6.674e+003
347.663, 6.547e+003
349.017, 5.540e+003
350.370, 4.683e+003
351.723, 3.994e+003
353.076, 3.725e+003
354.428, 3.542e+003
355.780, 3.383e+003
357.133, 3.396e+003
358.484, 3.196e+003
359.836, 3.223e+003
361.188, 3.203e+003
362.539, 3.239e+003
363.890, 3.221e+003
365.241, 3.097e+003
366.591, 3.243e+003
367.942, 3.126e+003
369.292, 3.166e+003
370.642, 3.154e+003
371.992, 3.102e+003
373.341, 3.162e+003
374.691, 3.081e+003
376.040, 3.214e+003
377.388, 3.155e+003
378.737, 3.137e+003
380.086, 3.221e+003
381.434, 3.149e+003
382.782, 3.268e+003
384.130, 3.158e+003
385.477, 3.273e+003
386.825, 3.219e+003
388.172, 3.205e+003
389.519, 3.376e+003
390.865, 3.324e+003
392.212, 3.321e+003
393.558, 3.317e+003
394.904, 3.293e+003
396.250, 3.352e+003
397.596, 3.263e+003
398.941, 3.368e+003
400.286, 3.297e+003
401.631, 3.316e+003
402.976, 3.370e+003
404.321, 3.380e+003
405.665, 3.416e+003
407.009, 3.366e+003
408.353, 3.413e+003
409.697, 3.527e+003
411.040, 3.498e+003
412.384, 3.601e+003
413.727, 3.609e+003
415.070, 3.740e+003
416.412, 3.953e+003
417.755, 4.236e+003
419.097, 4.554e+003
420.439, 4.976e+003
421.781, 5.523e+003
423.122, 5.768e+003
424.464, 5.722e+003
425.805, 5.306e+003
427.146, 4.701e+003
428.486, 4.255e+003
429.827, 3.839e+003
431.167, 3.826e+003
432.507, 3.717e+003
433.847, 3.821e+003
435.187, 4.070e+003
436.526, 4.413e+003
437.865, 5.134e+003
439.204, 5.784e+003
440.543, 6.050e+003
441.882, 5.686e+003
443.220, 4.889e+003
444.558, 4.371e+003
445.896, 4.030e+003
447.234, 3.806e+003
448.572, 3.686e+003
449.909, 3.554e+003
451.246, 3.664e+003
452.583, 3.589e+003
453.919, 3.854e+003
455.256, 4.144e+003
456.592, 4.744e+003
457.928, 5.322e+003
459.264, 5.256e+003
460.600, 4.635e+003
461.935, 4.009e+003
463.270, 3.746e+003
464.605, 3.684e+003
465.940, 3.559e+003
467.274, 3.695e+003
468.609, 3.608e+003
469.943, 3.702e+003
471.277, 3.838e+003
472.610, 3.944e+003
473.944, 4.480e+003
475.277, 5.065e+003
476.610, 6.436e+003
477.943, 7.764e+003
479.275, 8.281e+003
480.608, 7.464e+003
481.940, 5.914e+003
483.272, 4.877e+003
484.604, 4.293e+003
485.935, 3.974e+003
487.267, 3.804e+003
488.598, 3.622e+003
489.929, 3.660e+003
491.260, 3.508e+003
492.590, 3.615e+003
493.920, 3.479e+003
495.250, 3.479e+003
496.580, 3.552e+003
497.910, 3.490e+003
499.239, 3.494e+003
500.569, 3.458e+003
501.898, 3.441e+003
503.226, 3.538e+003
504.555, 3.478e+003
505.883, 3.556e+003
507.212, 3.470e+003
508.540, 3.458e+003
509.867, 3.564e+003
511.195, 3.467e+003
512.522, 3.546e+003
513.849, 3.527e+003
515.176, 3.548e+003
516.503, 3.654e+003
517.829, 3.535e+003
519.156, 3.644e+003
520.482, 3.568e+003
521.808, 3.547e+003
523.133, 3.640e+003
524.459, 3.578e+003
525.784, 3.615e+003
527.109, 3.623e+003
528.434, 3.592e+003
529.758, 3.618e+003
531.083, 3.651e+003
532.407, 3.650e+003
533.731, 3.546e+003
535.055, 3.643e+003
536.378, 3.594e+003
537.701, 3.530e+003
539.025, 3.629e+003
540.348, 3.566e+003
541.670, 3.629e+003
542.993, 3.631e+003
544.315, 3.580e+003
545.637, 3.662e+003
546.959, 3.623e+003
548.281, 3.720e+003
549.602, 3.658e+003
550.923, 3.698e+003
552.244, 3.762e+003
553.565, 3.659e+003
554.886, 3.786e+003
556.206, 3.808e+003
557.526, 3.835e+003
558.846, 3.991e+003
560.166, 4.000e+003
561.486, 4.151e+003
562.805, 4.034e+003
564.124, 3.975e+003
565.443, 4.005e+003
566.762, 3.968e+003
568.080, 4.145e+003
569.399, 4.096e+003
570.717, 4.206e+003
572.035, 4.180e+003
573.352, 4.010e+003
574.670, 4.111e+003
575.987, 4.027e+003
577.304, 4.101e+003
578.621, 4.133e+003
579.938, 4.120e+003
581.254, 4.250e+003
582.570, 4.221e+003
583.886, 4.358e+003
585.202, 4.448e+003
586.518, 4.487e+003
587.833, 4.603e+003
589.148, 4.655e+003
590.463, 4.853e+003
591.778, 4.892e+003
593.093, 5.015e+003
594.407, 5.314e+003
595.721, 5.505e+003
597.035, 6.019e+003
598.349, 6.454e+003
599.662, 7.108e+003
600.976, 8.185e+003
602.289, 9.526e+003
603.602, 1.201e+004
604.914, 1.554e+004
606.227, 2.056e+004
607.539, 2.610e+004
608.851, 2.904e+004
610.163, 2.808e+004
611.475, 2.297e+004
612.786, 1.824e+004
614.097, 1.436e+004
615.408, 1.126e+004
616.719, 9.787e+003
618.030, 8.552e+003
619.340, 7.882e+003
620.651, 7.658e+003
621.961, 7.618e+003
623.270, 8.347e+003
624.580, 9.028e+003
625.889, 1.022e+004
627.199, 1.036e+004
628.507, 9.414e+003
629.816, 8.412e+003
631.125, 7.206e+003
632.433, 6.414e+003
633.741, 5.952e+003
635.049, 5.466e+003
636.357, 5.455e+003
637.664, 5.129e+003
638.972, 5.071e+003
640.279, 5.058e+003
641.586, 4.975e+003
642.893, 5.143e+003
644.199, 4.957e+003
645.505, 5.036e+003
646.811, 4.996e+003
648.117, 4.720e+003
649.423, 4.925e+003
650.728, 4.673e+003
652.034, 4.807e+003
653.339, 4.682e+003
654.644, 4.508e+003
655.948, 4.639e+003
657.253, 4.345e+003
658.557, 4.398e+003
659.861, 4.298e+003
661.165, 4.280e+003
662.468, 4.359e+003
663.772, 4.143e+003
665.075, 4.289e+003
666.378, 4.177e+003
667.681, 4.165e+003
668.983, 4.376e+003
670.286, 4.202e+003
671.588, 4.386e+003
672.890, 4.320e+003
674.192, 4.318e+003
675.493, 4.344e+003
676.795, 4.122e+003
678.096, 4.157e+003
679.397, 4.131e+003
680.697, 4.078e+003
681.998, 4.105e+003
683.298, 4.032e+003
684.598, 4.084e+003
685.898, 4.023e+003
687.198, 4.042e+003
688.498, 4.105e+003
689.797, 4.014e+003
691.096, 4.086e+003
692.395, 3.983e+003
693.694, 4.052e+003
694.992, 4.073e+003
696.290, 4.012e+003
697.589, 4.066e+003
698.886, 4.081e+003
700.184, 3.997e+003
701.482, 4.096e+003
702.779, 4.033e+003
704.076, 4.046e+003
705.373, 4.099e+003
706.669, 4.059e+003
707.966, 4.072e+003
709.262, 4.006e+003
710.558, 4.079e+003
711.854, 4.129e+003
713.150, 4.048e+003
714.445, 4.146e+003
715.740, 4.057e+003
717.035, 4.178e+003
718.330, 4.111e+003
719.625, 4.117e+003
720.919, 4.243e+003
722.214, 4.134e+003
723.508, 4.224e+003
724.801, 4.183e+003
726.095, 4.192e+003
727.388, 4.274e+003
728.682, 4.222e+003
729.975, 4.346e+003
731.267, 4.313e+003
732.560, 4.170e+003
733.852, 4.416e+003
735.145, 4.230e+003
736.437, 4.276e+003
737.728, 4.259e+003
739.020, 4.216e+003
740.311, 4.332e+003
741.603, 4.268e+003
742.894, 4.303e+003
744.184, 4.324e+003
745.475, 4.310e+003
746.765, 4.390e+003
748.055, 4.246e+003
749.345, 4.362e+003
750.635, 4.406e+003
751.925, 4.295e+003
753.214, 4.442e+003
754.503, 4.386e+003
755.792, 4.388e+003
757.081, 4.462e+003
758.370, 4.340e+003
759.658, 4.470e+003
760.946, 4.464e+003
762.234, 4.471e+003
763.522, 4.563e+003
764.809, 4.487e+003
766.097, 4.592e+003
767.384, 4.574e+003
768.671, 4.666e+003
769.958, 4.826e+003
771.244, 4.791e+003
772.530, 4.924e+003
773.817, 4.832e+003
775.102, 4.760e+003
776.388, 4.803e+003
777.674, 4.562e+003
778.959, 4.610e+003
780.244, 4.537e+003
781.529, 4.500e+003
782.814, 4.547e+003
784.098, 4.453e+003
785.383, 4.606e+003
786.667, 4.498e+003
787.951, 4.519e+003
789.235, 4.629e+003
790.518, 4.518e+003
791.801, 4.618e+003
793.084, 4.593e+003
794.367, 4.559e+003
795.650, 4.709e+003
796.933, 4.551e+003
798.215, 4.631e+003
799.497, 4.672e+003
800.779, 4.515e+003
802.061, 4.683e+003
803.342, 4.620e+003
804.624, 4.654e+003
805.905, 4.698e+003
807.186, 4.601e+003
808.466, 4.673e+003
809.747, 4.644e+003
811.027, 4.674e+003
812.307, 4.729e+003
813.587, 4.664e+003
814.867, 4.763e+003
816.146, 4.742e+003
817.426, 4.787e+003
818.705, 4.767e+003
819.984, 4.604e+003
821.263, 4.814e+003
822.541, 4.812e+003
823.819, 4.751e+003
825.098, 4.918e+003
826.375, 4.799e+003
827.653, 4.952e+003
828.931, 4.916e+003
830.208, 4.856e+003
831.485, 5.013e+003
832.762, 4.861e+003
834.039, 4.976e+003
835.315, 4.929e+003
836.592, 4.952e+003
837.868, 4.991e+003
839.144, 5.056e+003
840.420, 5.097e+003
841.695, 5.184e+003
842.970, 5.083e+003
844.246, 5.301e+003
845.521, 5.284e+003
846.795, 5.216e+003
848.070, 5.384e+003
849.344, 5.243e+003
850.618, 5.389e+003
851.892, 5.407e+003
853.166, 5.401e+003
854.440, 5.640e+003
855.713, 5.471e+003
856.986, 5.796e+003
858.259, 5.895e+003
859.532, 5.832e+003
860.804, 6.024e+003
862.077, 5.845e+003
863.349, 5.957e+003
864.621, 5.891e+003
865.893, 5.723e+003
867.164, 5.964e+003
868.436, 5.798e+003
869.707, 5.857e+003
870.978, 5.927e+003
872.248, 5.682e+003
873.519, 5.807e+003
874.789, 5.571e+003
876.060, 5.694e+003
877.330, 5.743e+003
878.599, 5.498e+003
879.869, 5.705e+003
881.138, 5.594e+003
882.408, 5.593e+003
883.677, 5.815e+003
884.945, 5.615e+003
886.214, 5.757e+003
887.482, 5.750e+003
888.751, 5.745e+003
890.019, 6.057e+003
891.287, 5.980e+003
892.554, 6.342e+003
893.822, 6.467e+003
895.089, 6.574e+003
896.356, 6.838e+003
897.623, 6.839e+003
898.889, 6.793e+003
900.156, 6.776e+003
901.422, 6.422e+003
902.688, 6.550e+003
903.954, 6.376e+003
905.220, 6.169e+003
906.485, 6.269e+003
907.750, 5.893e+003
909.015, 5.949e+003
910.280, 5.950e+003
911.545, 5.762e+003
912.809, 5.891e+003
914.074, 5.625e+003
915.338, 5.723e+003
916.602, 5.683e+003
917.865, 5.442e+003
919.129, 5.630e+003
920.392, 5.419e+003
921.655, 5.328e+003
922.918, 5.501e+003
924.181, 5.311e+003
925.443, 5.514e+003
926.706, 5.440e+003
927.968, 5.347e+003
929.230, 5.535e+003
930.491, 5.327e+003
931.753, 5.448e+003
933.014, 5.395e+003
934.276, 5.392e+003
935.536, 5.450e+003
936.797, 5.350e+003
938.058, 5.404e+003
939.318, 5.472e+003
940.578, 5.412e+003
941.838, 5.590e+003
943.098, 5.402e+003
944.358, 5.452e+003
945.617, 5.612e+003
946.876, 5.437e+003
948.135, 5.686e+003
949.394, 5.662e+003
950.653, 5.592e+003
951.911, 5.764e+003
953.169, 5.520e+003
954.427, 5.696e+003
955.685, 5.635e+003
956.943, 5.551e+003
958.200, 5.699e+003
959.458, 5.580e+003
960.715, 5.674e+003
961.971, 5.798e+003
963.228, 5.753e+003
964.485, 5.956e+003
965.741, 6.148e+003
966.997, 6.374e+003
968.253, 6.987e+003
969.508, 7.391e+003
970.764, 8.335e+003
972.019, 8.738e+003
973.274, 8.479e+003
974.529, 8.043e+003
975.784, 7.175e+003
977.039, 6.746e+003
978.293, 6.411e+003
979.547, 6.165e+003
980.801, 6.127e+003
982.055, 5.940e+003
983.308, 5.906e+003
984.562, 5.962e+003
985.815, 5.861e+003
987.068, 6.047e+003
988.321, 5.971e+003
989.573, 5.962e+003
990.826, 6.144e+003
992.078, 6.034e+003
993.330, 6.136e+003
994.582, 6.320e+003
995.833, 6.196e+003
997.085, 6.504e+003
998.336, 6.560e+003
999.587, 6.817e+003
1000.838, 7.339e+003
1002.088, 6.854e+003
1003.339, 6.642e+003
1004.589, 6.243e+003
1005.839, 5.939e+003
1007.089, 5.955e+003
1008.339, 5.750e+003
1009.588, 5.739e+003
1010.838, 5.692e+003
1012.087, 5.604e+003
1013.336, 5.797e+003
1014.584, 5.589e+003
1015.833, 5.626e+003
1017.081, 5.866e+003
1018.330, 5.764e+003
1019.577, 6.001e+003
1020.825, 6.025e+003
1022.073, 5.890e+003
1023.320, 6.108e+003
1024.567, 5.913e+003
1025.814, 5.953e+003
1027.061, 5.952e+003
1028.308, 5.737e+003
1029.554, 5.937e+003
1030.800, 5.807e+003
1032.046, 5.740e+003
1033.292, 5.872e+003
1034.538, 5.756e+003
1035.783, 5.890e+003
1037.029, 6.054e+003
1038.274, 6.118e+003
1039.519, 6.491e+003
1040.763, 6.258e+003
1042.008, 6.166e+003
1043.252, 6.018e+003
1044.496, 5.788e+003
1045.740, 5.832e+003
1046.984, 5.820e+003
1048.228, 5.684e+003
1049.471, 5.805e+003
1050.714, 5.610e+003
1051.957, 5.684e+003
1053.200, 5.858e+003
1054.442, 5.610e+003
1055.685, 5.749e+003
1056.927, 5.705e+003
1058.169, 5.625e+003
1059.411, 5.712e+003
1060.652, 5.556e+003
1061.894, 5.764e+003
1063.135, 5.701e+003
1064.376, 5.618e+003
1065.617, 5.789e+003
1066.858, 5.661e+003
1068.098, 5.639e+003
1069.339, 5.876e+003
1070.579, 5.668e+003
1071.819, 5.937e+003
1073.058, 5.890e+003
1074.298, 5.821e+003
1075.537, 6.067e+003
1076.776, 5.991e+003
1078.015, 6.148e+003
1079.254, 6.217e+003
1080.493, 6.193e+003
1081.731, 6.393e+003
1082.969, 6.353e+003
1084.207, 6.299e+003
1085.445, 6.474e+003
1086.683, 6.331e+003
1087.920, 6.364e+003
1089.157, 6.452e+003
1090.394, 6.329e+003
1091.631, 6.622e+003
1092.868, 6.510e+003
1094.105, 6.606e+003
1095.341, 6.857e+003
1096.577, 6.846e+003
1097.813, 7.294e+003
1099.049, 7.270e+003
1100.284, 7.427e+003
1101.519, 7.839e+003
1102.755, 7.816e+003
1103.990, 8.162e+003
1105.224, 8.312e+003
1106.459, 8.190e+003
1107.693, 8.339e+003
1108.928, 8.041e+003
1110.162, 7.784e+003
1111.395, 7.767e+003
1112.629, 7.409e+003
1113.863, 7.238e+003
1115.096, 7.154e+003
1116.329, 6.775e+003
1117.562, 6.844e+003
1118.795, 6.661e+003
1120.027, 6.550e+003
1121.259, 6.698e+003
1122.492, 6.482e+003
1123.723, 6.476e+003
1124.955, 6.358e+003
1126.187, 6.193e+003
1127.418, 6.430e+003
1128.649, 6.177e+003
1129.880, 6.203e+003
1131.111, 6.296e+003
1132.342, 6.080e+003
1133.572, 6.186e+003
1134.802, 6.078e+003
1136.033, 5.959e+003
1137.262, 6.130e+003
1138.492, 5.985e+003
1139.722, 5.977e+003
1140.951, 5.976e+003
1142.180, 5.824e+003
1143.409, 5.997e+003
1144.638, 5.910e+003
1145.866, 5.856e+003
1147.095, 6.008e+003
1148.323, 5.881e+003
1149.551, 5.936e+003
1150.779, 6.008e+003
1152.006, 5.813e+003
1153.234, 5.968e+003
1154.461, 5.965e+003
1155.688, 5.888e+003
1156.915, 5.994e+003
1158.141, 5.872e+003
1159.368, 5.973e+003
1160.594, 6.025e+003
1161.820, 5.862e+003
1163.046, 6.060e+003
1164.272, 5.911e+003
1165.498, 5.963e+003
1166.723, 6.115e+003
1167.948, 5.927e+003
1169.173, 6.041e+003
1170.398, 6.234e+003
1171.623, 6.021e+003
1172.847, 6.184e+003
1174.071, 6.196e+003
1175.295, 6.089e+003
1176.519, 6.168e+003
1177.743, 6.037e+003
1178.966, 6.089e+003
1180.190, 6.119e+003
1181.413, 6.057e+003
1182.636, 6.168e+003
1183.858, 6.078e+003
1185.081, 5.981e+003
1186.303, 6.201e+003
1187.526, 5.997e+003
1188.748, 6.060e+003
1189.969, 6.170e+003
1191.191, 5.988e+003
1192.412, 6.187e+003
1193.634, 5.994e+003
1194.855, 6.033e+003
1196.076, 6.162e+003
1197.296, 6.018e+003
1198.517, 6.084e+003
1199.737, 6.137e+003
1200.957, 6.052e+003
1202.177, 6.176e+003
1203.397, 6.089e+003
1204.617, 6.075e+003
1205.836, 6.226e+003
1207.055, 5.972e+003
1208.274, 6.178e+003
1209.493, 6.167e+003
1210.712, 6.102e+003
1211.930, 6.278e+003
1213.148, 6.256e+003
1214.367, 6.105e+003
1215.584, 6.301e+003
1216.802, 6.215e+003
1218.020, 6.215e+003
1219.237, 6.339e+003
1220.454, 6.071e+003
1221.671, 6.254e+003
1222.888, 6.193e+003
1224.105, 6.161e+003
1225.321, 6.355e+003
1226.537, 6.138e+003
1227.753, 6.253e+003
1228.969, 6.382e+003
1230.185, 6.148e+003
1231.400, 6.390e+003
1232.616, 6.424e+003
1233.831, 6.293e+003
1235.046, 6.512e+003
1236.261, 6.402e+003
1237.475, 6.490e+003
1238.689, 6.604e+003
1239.904, 6.398e+003
1241.118, 6.533e+003
1242.332, 6.493e+003
1243.545, 6.337e+003
1244.759, 6.450e+003
1245.972, 6.505e+003
1247.185, 6.490e+003
1248.398, 6.644e+003
1249.611, 6.468e+003
1250.823, 6.530e+003
1252.036, 6.518e+003
1253.248, 6.366e+003
1254.460, 6.612e+003
1255.671, 6.547e+003
1256.883, 6.406e+003
1258.095, 6.547e+003
1259.306, 6.422e+003
1260.517, 6.506e+003
1261.728, 6.622e+003
1262.938, 6.441e+003
1264.149, 6.780e+003
1265.359, 6.634e+003
1266.569, 6.690e+003
1267.779, 6.925e+003
1268.989, 6.770e+003
1270.199, 6.737e+003
1271.408, 7.008e+003
1272.617, 6.675e+003
1273.826, 6.921e+003
1275.035, 6.771e+003
1276.244, 6.672e+003
1277.452, 6.910e+003
1278.661, 6.546e+003
1279.869, 6.651e+003
1281.077, 6.785e+003
1282.285, 6.501e+003
1283.492, 6.568e+003
1284.700, 6.686e+003
1285.907, 6.479e+003
1287.114, 6.739e+003
1288.321, 6.558e+003
1289.527, 6.524e+003
1290.734, 6.710e+003
1291.940, 6.628e+003
1293.146, 6.805e+003
1294.352, 6.864e+003
1295.558, 6.640e+003
1296.763, 6.829e+003
1297.969, 6.705e+003
1299.174, 6.595e+003
1300.379, 6.735e+003
1301.584, 6.674e+003
1302.788, 6.707e+003
1303.993, 6.870e+003
1305.197, 6.670e+003
1306.401, 6.882e+003
1307.605, 6.925e+003
1308.809, 6.858e+003
1310.013, 7.131e+003
1311.216, 6.930e+003
1312.419, 6.910e+003
1313.622, 7.107e+003
1314.825, 6.892e+003
1316.028, 7.014e+003
1317.230, 7.113e+003
1318.432, 6.956e+003
1319.634, 7.153e+003
1320.836, 7.040e+003
1322.038, 6.952e+003
1323.240, 7.108e+003
1324.441, 6.842e+003
1325.642, 6.908e+003
1326.843, 6.924e+003
1328.044, 6.702e+003
1329.245, 6.792e+003
1330.445, 6.732e+003
1331.645, 6.672e+003
1332.845, 6.749e+003
1334.045, 6.565e+003
1335.245, 6.515e+003
1336.445, 6.662e+003
1337.644, 6.526e+003
1338.843, 6.619e+003
1340.042, 6.745e+003
1341.241, 6.530e+003
1342.440, 6.739e+003
1343.638, 6.626e+003
1344.836, 6.540e+003
1346.034, 6.686e+003
1347.232, 6.595e+003
1348.430, 6.642e+003
1349.628, 6.714e+003
1350.825, 6.492e+003
1352.022, 6.693e+003
1353.219, 6.642e+003
1354.416, 6.538e+003
1355.613, 6.755e+003
1356.809, 6.614e+003
1358.005, 6.592e+003
1359.202, 6.727e+003
1360.398, 6.576e+003
1361.593, 6.652e+003
1362.789, 6.733e+003
1363.984, 6.545e+003
1365.179, 6.776e+003
1366.374, 6.703e+003
1367.569, 6.612e+003
1368.764, 6.784e+003
1369.958, 6.758e+003
1371.153, 6.780e+003
1372.347, 6.912e+003
1373.541, 6.738e+003
1374.735, 6.806e+003
1375.928, 6.903e+003
1377.122, 6.741e+003
1378.315, 6.972e+003
1379.508, 6.950e+003
1380.701, 6.814e+003
1381.893, 6.921e+003
1383.086, 6.865e+003
1384.278, 6.894e+003
1385.470, 6.982e+003
1386.662, 6.845e+003
1387.854, 6.927e+003
1389.046, 6.966e+003
1390.237, 6.945e+003
1391.428, 6.964e+003
1392.619, 6.910e+003
1393.810, 6.779e+003
1395.001, 6.933e+003
1396.191, 6.737e+003
1397.382, 6.886e+003
1398.572, 6.891e+003
1399.762, 6.772e+003
1400.952, 6.891e+003
1402.141, 6.935e+003
1403.331, 6.873e+003
1404.520, 6.936e+003
1405.709, 6.870e+003
1406.898, 6.938e+003
1408.087, 6.941e+003
1409.275, 6.863e+003
1410.464, 6.953e+003
1411.652, 7.002e+003
1412.840, 6.916e+003
1414.028, 6.971e+003
1415.215, 6.965e+003
1416.403, 6.959e+003
1417.590, 7.079e+003
1418.777, 7.019e+003
1419.964, 6.942e+003
1421.151, 7.038e+003
1422.338, 6.978e+003
1423.524, 7.054e+003
1424.710, 7.220e+003
1425.896, 6.982e+003
1427.082, 7.218e+003
1428.268, 7.284e+003
1429.453, 7.082e+003
1430.639, 7.401e+003
1431.824, 7.352e+003
1433.009, 7.374e+003
1434.194, 7.474e+003
1435.378, 7.382e+003
1436.563, 7.608e+003
1437.747, 7.914e+003
1438.931, 7.710e+003
1440.115, 7.970e+003
1441.299, 8.129e+003
1442.482, 8.139e+003
1443.666, 8.380e+003
1444.849, 8.339e+003
1446.032, 8.278e+003
1447.215, 8.499e+003
1448.397, 8.469e+003
1449.580, 8.506e+003
1450.762, 8.812e+003
1451.944, 8.405e+003
1453.126, 8.763e+003
1454.308, 8.736e+003
1455.490, 8.496e+003
1456.671, 8.689e+003
1457.852, 8.590e+003
1459.033, 8.498e+003
1460.214, 8.607e+003
1461.395, 8.353e+003
1462.575, 8.299e+003
1463.756, 8.394e+003
1464.936, 8.065e+003
1466.116, 8.102e+003
1467.296, 8.023e+003
1468.475, 7.861e+003
1469.655, 7.936e+003
1470.834, 7.887e+003
1472.013, 7.669e+003
1473.192, 7.868e+003
1474.371, 7.582e+003
1475.550, 7.762e+003
1476.728, 7.766e+003
1477.906, 7.692e+003
1479.084, 7.740e+003
1480.262, 7.732e+003
1481.440, 7.691e+003
1482.617, 7.759e+003
1483.795, 7.687e+003
1484.972, 7.647e+003
1486.149, 7.759e+003
1487.326, 7.474e+003
1488.502, 7.495e+003
1489.679, 7.553e+003
1490.855, 7.302e+003
1492.031, 7.424e+003
1493.207, 7.418e+003
1494.383, 7.287e+003
1495.559, 7.364e+003
1496.734, 7.226e+003
1497.909, 7.230e+003
1499.084, 7.327e+003
1500.259, 7.369e+003
1501.434, 7.264e+003
1502.608, 7.355e+003
1503.783, 7.488e+003
1504.957, 1.920e+002
##END=



