##NAMES=Datolite
##RRUFFID=R050033
##IDEAL CHEMISTRY=CaB(SiO_4_)(OH)
##LOCALITY=Westfield, Massachusetts, USA
##OWNER=RRUFF
##SOURCE=University of Arizona Mineral Museum
##DESCRIPTION=Group of pale green single crystals
##STATUS=The identification of this mineral has been confirmed by X-ray diffraction and chemical analysis
##URL=rruff.info/R050033
##MEASURED CHEMISTRY=Ca_1.00_B_1.00_Si_1.00_O_4_(OH) ; trace amounts of Al and Na; B measured and corrected according to stoichiometry;  OH estimated by stoichiometry end charge balance
##PIN_ID=L00153
##ORIENTATION=Laser parallel to -a* (-1 0 0). Fiducial mark perpendicular to laser is parallel to -b [0 -1 0]
52.937, 2368.000
54.335, 2250.000
55.734, 2101.000
57.132, 2087.000
58.530, 2049.000
59.927, 2137.000
61.325, 2067.000
62.722, 2095.000
64.119, 2104.000
65.515, 2021.000
66.912, 2019.000
68.308, 2017.000
69.704, 2029.000
71.100, 2054.564
72.496, 2072.000
73.891, 2122.000
75.287, 2155.000
76.682, 2186.410
78.076, 2256.000
79.471, 2237.000
80.865, 2283.000
82.260, 2324.000
83.653, 2312.000
85.047, 2240.000
86.441, 2129.000
87.834, 2085.000
89.227, 1996.000
90.620, 1928.000
92.013, 1864.000
93.405, 1824.000
94.797, 1810.000
96.189, 1774.000
97.581, 1712.000
98.973, 1742.000
100.364, 1706.000
101.755, 1669.000
103.146, 1686.000
104.537, 1666.000
105.927, 1661.000
107.318, 1644.337
108.708, 1650.367
110.098, 1650.889
111.487, 1646.204
112.877, 1620.696
114.266, 1622.076
115.655, 1612.683
117.044, 1602.847
118.432, 1608.016
119.821, 1585.540
121.209, 1589.000
122.597, 1609.000
123.984, 1589.000
125.372, 1583.000
126.759, 1589.000
128.146, 1674.000
129.533, 1617.000
130.920, 1703.000
132.306, 1832.000
133.692, 1833.000
135.078, 1892.000
136.464, 1758.000
137.850, 1646.000
139.235, 1576.000
140.620, 1566.000
142.005, 1581.000
143.390, 1593.000
144.774, 1645.000
146.159, 1762.000
147.543, 1958.000
148.927, 2300.000
150.310, 2661.000
151.694, 3310.000
153.077, 3809.000
154.460, 4028.000
155.843, 3344.000
157.226, 2810.000
158.608, 2516.000
159.990, 2736.000
161.372, 3316.000
162.754, 4302.000
164.135, 5303.000
165.517, 5903.000
166.898, 5443.000
168.279, 3862.000
169.659, 2877.000
171.040, 2552.000
172.420, 2732.000
173.800, 3298.000
175.180, 4180.000
176.560, 5219.000
177.939, 5498.000
179.318, 4721.000
180.697, 3320.000
182.076, 2372.000
183.455, 1943.000
184.833, 1715.000
186.211, 1640.000
187.589, 1651.000
188.967, 1649.000
190.344, 1805.000
191.722, 1892.000
193.099, 1934.000
194.475, 1760.000
195.852, 1646.000
197.229, 1549.000
198.605, 1526.000
199.981, 1544.000
201.357, 1506.000
202.732, 1522.000
204.108, 1476.000
205.483, 1547.000
206.858, 1562.000
208.233, 1643.000
209.607, 1808.000
210.981, 2083.000
212.356, 2602.000
213.730, 3449.000
215.103, 4878.000
216.477, 6618.000
217.850, 8368.000
219.223, 8589.000
220.596, 6262.000
221.969, 4137.000
223.341, 2850.000
224.713, 2221.000
226.085, 1923.000
227.457, 1867.000
228.829, 1897.000
230.200, 1854.000
231.571, 1860.000
232.942, 1751.000
234.313, 1619.000
235.684, 1537.000
237.054, 1442.000
238.424, 1434.000
239.794, 1408.000
241.164, 1409.000
242.533, 1385.000
243.902, 1398.000
245.272, 1381.000
246.640, 1374.000
248.009, 1403.000
249.378, 1403.000
250.746, 1395.000
252.114, 1392.000
253.482, 1384.000
254.849, 1414.000
256.217, 1383.000
257.584, 1400.000
258.951, 1396.000
260.318, 1441.000
261.684, 1465.000
263.051, 1451.000
264.417, 1501.000
265.783, 1561.000
267.148, 1662.000
268.514, 1821.000
269.879, 1947.000
271.244, 2190.000
272.609, 2331.000
273.974, 2450.000
275.338, 2291.000
276.703, 2173.000
278.067, 2017.000
279.431, 1935.000
280.794, 2004.000
282.158, 2188.000
283.521, 2502.000
284.884, 3028.000
286.247, 4112.000
287.609, 5785.000
288.972, 8103.000
290.334, 11080.000
291.696, 12860.000
293.058, 13050.000
294.419, 10360.000
295.781, 7232.000
297.142, 5146.000
298.503, 3764.000
299.864, 3048.000
301.224, 2615.000
302.584, 2394.000
303.945, 2171.000
305.304, 2064.000
306.664, 1951.000
308.024, 1880.000
309.383, 1859.000
310.742, 1809.000
312.101, 1779.000
313.460, 1776.000
314.818, 1771.000
316.176, 1771.000
317.534, 1777.000
318.892, 1869.000
320.250, 1851.000
321.607, 1958.000
322.964, 2102.000
324.321, 2314.000
325.678, 2735.000
327.035, 3310.000
328.391, 4242.000
329.747, 5019.000
331.103, 5697.000
332.459, 5870.000
333.815, 5352.000
335.170, 4493.000
336.525, 3435.000
337.880, 2694.000
339.235, 2207.000
340.589, 1934.000
341.944, 1768.000
343.298, 1657.000
344.652, 1633.000
346.005, 1600.000
347.359, 1551.000
348.712, 1546.000
350.065, 1518.000
351.418, 1523.000
352.771, 1515.000
354.123, 1502.000
355.475, 1546.000
356.828, 1502.000
358.179, 1575.000
359.531, 1554.000
360.882, 1590.000
362.234, 1610.000
363.585, 1580.000
364.936, 1606.000
366.286, 1585.000
367.637, 1623.000
368.987, 1649.000
370.337, 1696.000
371.687, 1830.000
373.036, 1982.000
374.386, 2297.000
375.735, 2625.000
377.084, 3116.000
378.432, 3350.000
379.781, 3307.000
381.129, 2963.000
382.478, 2490.000
383.825, 2246.000
385.173, 2085.000
386.521, 2011.000
387.868, 2142.000
389.215, 2187.000
390.562, 2420.000
391.909, 2470.000
393.255, 2417.000
394.602, 2261.000
395.948, 2021.000
397.294, 1869.000
398.639, 1700.000
399.985, 1640.000
401.330, 1586.000
402.675, 1583.000
404.020, 1555.000
405.365, 1545.000
406.709, 1533.422
408.054, 1518.000
409.398, 1492.000
410.742, 1523.000
412.085, 1465.000
413.429, 1521.000
414.772, 1467.000
416.115, 1525.000
417.458, 1545.000
418.800, 1548.000
420.143, 1606.000
421.485, 1638.000
422.827, 1729.000
424.169, 1737.000
425.511, 1732.000
426.852, 1715.000
428.193, 1635.000
429.534, 1676.000
430.875, 1608.000
432.216, 1618.000
433.556, 1660.000
434.896, 1672.000
436.236, 1730.000
437.576, 1734.000
438.916, 1809.000
440.255, 1839.000
441.594, 1905.000
442.933, 2014.000
444.272, 2010.000
445.611, 2203.000
446.949, 2297.000
448.287, 2579.000
449.625, 3063.000
450.963, 3724.000
452.300, 4874.000
453.638, 6561.000
454.975, 9025.000
456.312, 11340.000
457.649, 12440.000
458.985, 11550.000
460.321, 8902.000
461.658, 6371.000
462.994, 4619.000
464.329, 3556.000
465.665, 2932.000
467.000, 2554.000
468.335, 2276.000
469.670, 2093.000
471.005, 1993.000
472.340, 1900.000
473.674, 1807.000
475.008, 1762.777
476.342, 1746.000
477.676, 1693.000
479.009, 1685.000
480.342, 1656.000
481.676, 1652.000
483.009, 1632.000
484.341, 1679.000
485.674, 1693.000
487.006, 1748.000
488.338, 1910.000
489.670, 1939.000
491.002, 1946.490
492.333, 1964.000
493.665, 1863.000
494.996, 1776.000
496.327, 1660.000
497.657, 1652.000
498.988, 1624.000
500.318, 1600.000
501.648, 1588.000
502.978, 1566.000
504.308, 1588.000
505.637, 1550.000
506.967, 1544.000
508.296, 1569.000
509.625, 1542.000
510.953, 1584.000
512.282, 1519.000
513.610, 1577.000
514.938, 1573.000
516.266, 1550.000
517.594, 1600.000
518.921, 1571.000
520.249, 1612.000
521.576, 1628.000
522.903, 1634.000
524.229, 1649.203
525.556, 1664.000
526.882, 1655.000
528.208, 1656.000
529.534, 1658.000
530.860, 1667.000
532.185, 1647.000
533.511, 1740.000
534.836, 1686.000
536.161, 1754.000
537.485, 1740.000
538.810, 1758.000
540.134, 1902.000
541.458, 1905.000
542.782, 2044.000
544.106, 2162.000
545.429, 2394.000
546.753, 2763.000
548.076, 3217.000
549.399, 3998.000
550.721, 4999.000
552.044, 6091.000
553.366, 6891.000
554.688, 6584.000
556.010, 5901.000
557.332, 4734.000
558.653, 3842.000
559.975, 3264.000
561.296, 2837.000
562.617, 2606.000
563.937, 2306.000
565.258, 2154.000
566.578, 2049.000
567.898, 1959.000
569.218, 1934.000
570.538, 1808.000
571.858, 1793.000
573.177, 1787.000
574.496, 1728.000
575.815, 1754.000
577.134, 1712.000
578.452, 1753.000
579.771, 1754.000
581.089, 1732.000
582.407, 1742.000
583.724, 1750.000
585.042, 1823.000
586.359, 1898.000
587.676, 1992.000
588.993, 2209.000
590.310, 2325.000
591.627, 2510.000
592.943, 2644.000
594.259, 2566.000
595.575, 2464.000
596.891, 2300.000
598.206, 2226.000
599.522, 2090.000
600.837, 2068.000
602.152, 2037.000
603.467, 1920.000
604.781, 1907.000
606.096, 1860.000
607.410, 1824.000
608.724, 1839.000
610.038, 1775.000
611.351, 1800.000
612.665, 1745.000
613.978, 1773.000
615.291, 1792.000
616.604, 1735.000
617.916, 1802.000
619.229, 1758.000
620.541, 1794.000
621.853, 1863.000
623.165, 1804.000
624.476, 1902.000
625.788, 1867.000
627.099, 1886.000
628.410, 1959.000
629.721, 1867.000
631.032, 1945.000
632.342, 1920.000
633.652, 1925.000
634.962, 1964.000
636.272, 1890.000
637.582, 1968.000
638.891, 1947.000
640.201, 1995.000
641.510, 2050.000
642.818, 2101.000
644.127, 2160.089
645.436, 2174.000
646.744, 2284.000
648.052, 2352.000
649.360, 2421.000
650.668, 2677.000
651.975, 2726.000
653.282, 2976.000
654.590, 3086.000
655.896, 3072.000
657.203, 3159.000
658.510, 3036.000
659.816, 3113.000
661.122, 3155.000
662.428, 3230.000
663.734, 3392.000
665.039, 3487.000
666.345, 3697.000
667.650, 3791.000
668.955, 3738.000
670.260, 3835.000
671.564, 3563.000
672.869, 3530.000
674.173, 3612.000
675.477, 3632.000
676.781, 3941.000
678.084, 4148.000
679.388, 4608.000
680.691, 5143.000
681.994, 5958.000
683.297, 7275.000
684.599, 8963.000
685.902, 11930.000
687.204, 16410.000
688.506, 23800.000
689.808, 35420.000
691.109, 46330.000
692.411, 57130.000
693.712, 54540.000
695.013, 43980.000
696.314, 32740.000
697.615, 21970.000
698.915, 16040.000
700.216, 11900.000
701.516, 9054.000
702.816, 7756.000
704.115, 6311.000
705.415, 5672.000
706.714, 5028.000
708.013, 4400.000
709.312, 4146.000
710.611, 3934.000
711.910, 3553.216
713.208, 3285.000
714.506, 3073.000
715.804, 2963.000
717.102, 2806.000
718.399, 2717.000
719.697, 2595.000
720.994, 2521.000
722.291, 2483.000
723.588, 2377.000
724.884, 2332.000
726.181, 2346.000
727.477, 2250.000
728.773, 2267.000
730.069, 2187.000
731.365, 2195.000
732.660, 2203.000
733.955, 2158.000
735.250, 2191.000
736.545, 2158.000
737.840, 2201.000
739.134, 2279.000
740.429, 2245.000
741.723, 2351.000
743.017, 2287.000
744.310, 2223.000
745.604, 2240.000
746.897, 2116.000
748.190, 2127.000
749.483, 2056.000
750.776, 1998.000
752.069, 2006.000
753.361, 1951.000
754.653, 1998.000
755.945, 1958.000
757.237, 1955.000
758.529, 1978.000
759.820, 1920.000
761.111, 2005.000
762.402, 1943.000
763.693, 1961.000
764.984, 1980.000
766.274, 1967.000
767.564, 1978.000
768.854, 1950.000
770.144, 1892.000
771.434, 1924.000
772.724, 1909.000
774.013, 1955.000
775.302, 1907.000
776.591, 1933.000
777.880, 1970.000
779.168, 1927.000
780.456, 1954.000
781.745, 1937.000
783.033, 1906.000
784.320, 1937.000
785.608, 1890.000
786.895, 1971.000
788.183, 1928.000
789.470, 1938.000
790.756, 1926.000
792.043, 1897.000
793.329, 1946.000
794.616, 1936.000
795.902, 1876.000
797.188, 1965.000
798.473, 1882.000
799.759, 1941.000
801.044, 1968.000
802.329, 1928.000
803.614, 1960.000
804.899, 1942.000
806.183, 1985.000
807.467, 1966.000
808.752, 1920.000
810.036, 1979.000
811.319, 1937.000
812.603, 1982.000
813.886, 2055.000
815.169, 1956.000
816.452, 2057.000
817.735, 2019.000
819.018, 2032.000
820.300, 2135.000
821.583, 2107.000
822.865, 2201.000
824.146, 2234.000
825.428, 2259.000
826.710, 2384.000
827.991, 2345.000
829.272, 2362.000
830.553, 2381.000
831.834, 2245.000
833.114, 2216.000
834.394, 2145.000
835.675, 2145.000
836.955, 2112.000
838.234, 2061.000
839.514, 2161.000
840.793, 2101.000
842.073, 2129.000
843.352, 2193.000
844.630, 2125.000
845.909, 2172.000
847.187, 2169.000
848.466, 2234.000
849.744, 2238.000
851.022, 2253.000
852.299, 2290.000
853.577, 2300.000
854.854, 2385.000
856.131, 2429.000
857.408, 2368.000
858.685, 2497.000
859.961, 2577.000
861.238, 2600.000
862.514, 2767.000
863.790, 2818.000
865.066, 2966.000
866.341, 3032.000
867.617, 3177.000
868.892, 3369.000
870.167, 3487.000
871.442, 3865.000
872.717, 4273.000
873.991, 4658.000
875.265, 5339.000
876.540, 5875.000
877.813, 6622.000
879.087, 7456.000
880.361, 7466.000
881.634, 7764.000
882.907, 7613.000
884.180, 7076.000
885.453, 6596.000
886.726, 5946.000
887.998, 5516.000
889.270, 5015.000
890.542, 4526.000
891.814, 4396.000
893.086, 3991.000
894.357, 3922.000
895.628, 3814.000
896.900, 3604.000
898.170, 3642.000
899.441, 3563.000
900.712, 3655.000
901.982, 3744.000
903.252, 3733.000
904.522, 4054.000
905.792, 4160.000
907.062, 4443.000
908.331, 4876.000
909.600, 5254.000
910.869, 6291.000
912.138, 7389.000
913.407, 8826.000
914.675, 10880.000
915.944, 12760.000
917.212, 14650.000
918.480, 14650.000
919.747, 13040.000
921.015, 11800.000
922.282, 9562.000
923.549, 8103.000
924.816, 6947.000
926.083, 5828.000
927.350, 5590.000
928.616, 5037.000
929.882, 4924.000
931.148, 4938.000
932.414, 4880.000
933.680, 4992.000
934.945, 4978.000
936.211, 4821.000
937.476, 4787.000
938.741, 4482.000
940.005, 4373.000
941.270, 4266.000
942.534, 3948.000
943.799, 3966.000
945.063, 3744.000
946.326, 3626.000
947.590, 3712.000
948.853, 3513.000
950.117, 3618.000
951.380, 3539.000
952.643, 3507.000
953.905, 3556.000
955.168, 3361.000
956.430, 3414.000
957.692, 3296.000
958.954, 3177.000
960.216, 3227.000
961.478, 3121.000
962.739, 3076.000
964.000, 3137.000
965.261, 3018.000
966.522, 3112.000
967.783, 3076.000
969.043, 3089.000
970.303, 3342.000
971.563, 3282.000
972.823, 3522.000
974.083, 3662.000
975.343, 3846.000
976.602, 4312.000
977.861, 4721.000
979.120, 5533.000
980.379, 6587.000
981.638, 7926.000
982.896, 9842.000
984.154, 11250.000
985.412, 11760.000
986.670, 11130.000
987.928, 9383.000
989.185, 7759.000
990.443, 6406.000
991.700, 5269.000
992.957, 4676.000
994.214, 3999.000
995.470, 3714.000
996.727, 3430.000
997.983, 3130.000
999.239, 3063.000
1000.495, 2886.000
1001.750, 2825.000
1003.006, 2812.000
1004.261, 2665.000
1005.516, 2636.000
1006.771, 2497.000
1008.026, 2406.000
1009.280, 2492.000
1010.535, 2442.000
1011.789, 2450.000
1013.043, 2412.000
1014.297, 2343.000
1015.550, 2407.000
1016.804, 2355.000
1018.057, 2322.000
1019.310, 2380.000
1020.563, 2290.000
1021.816, 2369.000
1023.068, 2345.000
1024.321, 2309.000
1025.573, 2352.000
1026.825, 2328.000
1028.077, 2275.000
1029.328, 2347.000
1030.580, 2260.000
1031.831, 2351.000
1033.082, 2290.000
1034.333, 2286.000
1035.584, 2343.000
1036.834, 2277.000
1038.085, 2299.000
1039.335, 2294.000
1040.585, 2236.000
1041.834, 2343.000
1043.084, 2270.000
1044.334, 2297.000
1045.583, 2366.000
1046.832, 2244.000
1048.081, 2355.000
1049.329, 2334.000
1050.578, 2368.000
1051.826, 2395.000
1053.074, 2343.000
1054.322, 2453.000
1055.570, 2455.000
1056.818, 2422.000
1058.065, 2500.000
1059.312, 2470.000
1060.559, 2562.000
1061.806, 2665.000
1063.053, 2620.000
1064.299, 2821.000
1065.546, 2895.000
1066.792, 3081.000
1068.038, 3402.000
1069.284, 3639.000
1070.529, 4217.000
1071.775, 5104.000
1073.020, 6201.000
1074.265, 8749.000
1075.510, 11170.000
1076.754, 13490.000
1077.999, 14210.000
1079.243, 11600.000
1080.487, 9308.000
1081.731, 7140.000
1082.975, 5531.000
1084.219, 4752.000
1085.462, 4033.000
1086.705, 3686.000
1087.948, 3477.000
1089.191, 3129.000
1090.434, 3104.000
1091.676, 2985.000
1092.919, 2865.000
1094.161, 2905.000
1095.403, 2742.000
1096.645, 2784.000
1097.886, 2775.000
1099.128, 2688.000
1100.369, 2731.000
1101.610, 2697.000
1102.851, 2688.000
1104.091, 2703.000
1105.332, 2591.000
1106.572, 2639.000
1107.812, 2696.000
1109.052, 2577.000
1110.292, 2643.000
1111.532, 2611.000
1112.771, 2638.000
1114.010, 2647.000
1115.249, 2550.000
1116.488, 2630.000
1117.727, 2652.000
1118.966, 2551.000
1120.204, 2666.000
1121.442, 2673.000
1122.680, 2664.000
1123.918, 2737.000
1125.155, 2648.000
1126.393, 2775.000
1127.630, 2770.000
1128.867, 2744.000
1130.104, 2858.000
1131.341, 2825.000
1132.577, 2866.000
1133.814, 2990.000
1135.050, 2905.000
1136.286, 3004.000
1137.522, 3060.000
1138.757, 3078.000
1139.993, 3207.000
1141.228, 3192.000
1142.463, 3274.000
1143.698, 3417.000
1144.933, 3401.000
1146.167, 3551.000
1147.402, 3595.000
1148.636, 3679.000
1149.870, 3990.000
1151.104, 3945.000
1152.338, 4110.000
1153.571, 4431.000
1154.804, 4399.000
1156.037, 4882.000
1157.270, 4975.000
1158.503, 5227.000
1159.736, 5851.000
1160.968, 5979.000
1162.200, 6592.000
1163.432, 7007.000
1164.664, 7389.000
1165.896, 8246.000
1167.127, 8772.000
1168.359, 9434.000
1169.590, 10500.000
1170.821, 10670.000
1172.052, 11500.000
1173.282, 11780.000
1174.513, 11250.000
1175.743, 11070.000
1176.973, 10090.000
1178.203, 9098.000
1179.433, 8321.000
1180.662, 7102.000
1181.892, 6411.000
1183.121, 5758.000
1184.350, 5072.000
1185.579, 4877.000
1186.807, 4318.000
1188.036, 4044.000
1189.264, 3945.000
1190.492, 3631.000
1191.720, 3587.000
1192.948, 3472.000
1194.176, 3266.000
1195.403, 3398.000
1196.630, 3190.000
1197.857, 3160.000
1199.084, 3251.000
1200.311, 3151.000
1201.537, 3288.000
1202.764, 3255.000
1203.990, 3170.000
1205.216, 3156.000
1206.442, 3153.000
1207.667, 3026.000
1208.893, 3054.000
1210.118, 2928.000
1211.343, 2894.000
1212.568, 2863.000
1213.793, 2744.000
1215.017, 2748.000
1216.242, 2693.000
1217.466, 2604.000
1218.690, 2632.000
1219.914, 2568.000
1221.137, 2570.000
1222.361, 2518.000
1223.584, 2492.000
1224.807, 2576.000
1226.030, 2467.000
1227.253, 2443.000
1228.476, 2486.000
1229.698, 2394.000
1230.920, 2432.000
1232.142, 2494.000
1233.364, 2349.000
1234.586, 2427.000
1235.808, 2417.000
1237.029, 2379.000
1238.250, 2456.000
1239.471, 2373.000
1240.692, 2352.000
1241.913, 2345.000
1243.133, 2281.000
1244.353, 2408.000
1245.574, 2346.000
1246.794, 2271.000
1248.013, 2373.000
1249.233, 2297.000
1250.452, 2315.000
1251.672, 2350.000
1252.891, 2254.000
1254.110, 2346.000
1255.328, 2321.000
1256.547, 2244.000
1257.765, 2370.000
1258.983, 2313.000
1260.201, 2293.000
1261.419, 2308.000
1262.637, 2263.000
1263.854, 2346.000
1265.072, 2267.000
1266.289, 2302.000
1267.506, 2316.000
1268.723, 2275.000
1269.939, 2307.000
1271.156, 2343.000
1272.372, 2278.000
1273.588, 2311.000
1274.804, 2268.000
1276.020, 2266.000
1277.235, 2326.000
1278.451, 2199.000
1279.666, 2252.000
1280.881, 2315.000
1282.096, 2213.000
1283.310, 2275.000
1284.525, 2317.000
1285.739, 2186.000
1286.953, 2302.000
1288.167, 2225.000
1289.381, 2221.000
1290.595, 2323.000
1291.808, 2217.000
1293.022, 2248.000
1294.235, 2312.000
1295.448, 2182.000
1296.660, 2327.000
1297.873, 2237.000
1299.085, 2166.000
1300.298, 2323.000
1301.510, 2240.000
1302.722, 2232.000
1303.933, 2299.000
1305.145, 2200.000
1306.356, 2259.000
1307.567, 2286.000
1308.778, 2203.000
1309.989, 2347.000
1311.200, 2321.000
1312.410, 2294.000
1313.621, 2387.000
1314.831, 2273.000
1316.041, 2312.000
1317.250, 2345.000
1318.460, 2278.000
1319.670, 2389.000
1320.879, 2364.000
1322.088, 2329.000
1323.297, 2429.000
1324.506, 2308.000
1325.714, 2374.000
1326.922, 2394.000
1328.131, 2334.000
1329.339, 2348.000
1330.547, 2338.000
1331.754, 2273.000
1332.962, 2416.000
1334.169, 2312.000
1335.376, 2262.000
1336.583, 2390.000
1337.790, 2316.000
1338.997, 2302.000
1340.203, 2366.000
1341.410, 2288.000
1342.616, 2356.000
1343.822, 2302.000
1345.028, 2270.000
1346.233, 2364.000
1347.439, 2288.000
1348.644, 2325.000
1349.849, 2379.000
1351.054, 2306.000
1352.259, 2383.000
1353.463, 2321.000
1354.668, 2273.000
1355.872, 2414.000
1357.076, 2353.000
1358.280, 2334.000
1359.483, 2420.000
1360.687, 2270.000
1361.890, 2404.000
1363.094, 2399.000
1364.297, 2365.000
1365.499, 2414.000
1366.702, 2357.000
1367.905, 2309.000
1369.107, 2451.000
1370.309, 2332.000
1371.511, 2377.000
1372.713, 2473.000
1373.914, 2346.000
1375.116, 2350.000
1376.317, 2418.000
1377.518, 2294.000
1378.719, 2402.000
1379.920, 2275.000
1381.121, 2311.000
1382.321, 2442.000
1383.521, 2346.000
1384.721, 2393.000
1385.921, 2452.000
1387.121, 2366.000
1388.321, 2426.000
1389.520, 2442.000
1390.719, 2388.000
1391.918, 2446.000
1393.117, 2377.000
1394.316, 2374.000
1395.514, 2475.000
1396.713, 2372.000
1397.911, 2382.000
1399.109, 2473.000
1400.307, 2318.000
1401.505, 2427.000
1402.702, 2416.000
1403.899, 2359.000
1405.097, 2446.000
1406.294, 2378.000
1407.490, 2328.000
1408.687, 2409.000
1409.884, 2373.000
1411.080, 2381.000
1412.276, 2358.000
1413.472, 2338.000
1414.668, 2422.000
1415.863, 2414.000
1417.059, 2333.000
1418.254, 2406.000
1419.449, 2377.000
1420.644, 2333.000
1421.839, 2490.000
1423.033, 2360.000
1424.228, 2363.000
1425.422, 2410.000
1426.616, 2317.000
1427.810, 2396.000
1429.004, 2380.000
1430.197, 2349.000
1431.391, 2461.000
1432.584, 2425.000
1433.777, 2331.000
1434.970, 2453.000
1436.163, 2356.000
1437.355, 2462.000
1438.548, 2444.000
1439.740, 2350.000
1440.932, 2482.000
1442.124, 2425.000
1443.315, 2369.000
1444.507, 2522.000
1445.698, 2436.000
1446.889, 2455.000
1448.080, 2538.000
1449.271, 2480.000
1450.462, 2474.000
1451.652, 2528.000
1452.843, 2413.000
1454.033, 2591.000
1455.223, 2503.000
1456.413, 2460.000
1457.602, 2556.000
1458.792, 2527.000
1459.981, 2502.000
1461.170, 2584.000
1462.359, 2422.000
1463.548, 2532.000
1464.737, 2570.000
1465.925, 2460.000
1467.113, 2538.000
1468.302, 2546.000
1469.490, 2422.000
1470.677, 2565.000
1471.865, 2496.000
1473.052, 2481.000
1474.240, 2556.000
1475.427, 2487.000
1476.614, 2504.000
1477.800, 2568.000
1478.987, 2424.000
1480.173, 2522.000
1481.360, 2537.000
1482.546, 2441.000
1483.732, 2515.000
1484.917, 2467.000
1486.103, 2469.000
1487.288, 2595.000
1488.474, 2455.000
1489.659, 2477.000
1490.844, 2593.000
1492.028, 2465.000
1493.213, 2510.000
1494.397, 2546.000
1495.582, 2490.000
1496.766, 2553.000
1497.950, 2523.000
1499.133, 2449.000
1500.317, 2582.000
1501.500, 2520.000
1502.683, 2483.000
1503.866, 2604.000
1505.049, 2486.000
1506.232, 2531.000
1507.415, 2575.000
1508.597, 2513.000
1509.779, 2545.000
1510.961, 2548.000
1512.143, 2505.000
1513.325, 2598.000
1514.506, 2575.000
1515.688, 2514.000
1516.869, 2634.000
1518.050, 2550.000
1519.231, 2575.000
1520.411, 2656.000
1521.592, 2510.000
1522.772, 2584.000
1523.952, 2622.000
1525.132, 2502.000
##END=



