##NAMES=Descloizite
##RRUFFID=R050037
##IDEAL CHEMISTRY=Pb^2+^Zn^2+^V^5+^O_4_(OH)
##LOCALITY=Berg Aukas mine, Namibia
##OWNER=RRUFF
##SOURCE=Eugene Schlepp
##DESCRIPTION=Group of brown thin tabular single crystals
##STATUS=The identification of this mineral has been confirmed by X-ray diffraction and chemical analysis
##URL=rruff.info/R050037
##MEASURED CHEMISTRY=Pb_1.00_(Zn_0.98_Cu_0.02_)_Σ=1_((V_0.98_As_0.02_)_Σ=1_O_4_)(OH) ; OH estimated by difference and stoichiometry
##PIN_ID=L00538
##ORIENTATION=Laser parallel to -b* (0 -1 0). Fiducial mark perpendicular to laser is parallel to c [0 0 1]
64.81000, 156.0000
66.04600, 218.0000
67.28200, 183.0000
68.51800, 258.0000
69.75400, 283.0000
70.98900, 283.0000
72.22500, 235.0000
73.46000, 281.0000
74.69500, 253.0000
75.93000, 233.0000
77.16500, 235.0000
78.40000, 317.0000
79.63400, 340.0000
80.86900, 323.0000
82.10300, 315.0000
83.33700, 375.0000
84.57100, 442.0000
85.80500, 471.0000
87.03800, 589.0000
88.27200, 756.0000
89.50500, 945.0000
90.73800, 1279.000
91.97100, 1597.000
93.20400, 2233.000
94.43700, 3188.000
95.67000, 4489.000
96.90200, 6602.000
98.13400, 9445.000
99.36600, 13394.00
100.5980, 18480.00
101.8300, 24826.00
103.0620, 33075.00
104.2930, 43226.00
105.5250, 54086.00
106.7560, 67161.00
107.9870, 80758.00
109.2180, 92591.00
110.4490, 99244.00
111.6790, 98191.00
112.9100, 89473.00
114.1400, 73149.00
115.3700, 56855.00
116.6000, 42992.00
117.8300, 33238.00
119.0600, 26311.00
120.2900, 21514.00
121.5190, 17953.00
122.7480, 15798.00
123.9770, 13924.00
125.2060, 13005.00
126.4350, 12480.00
127.6640, 12237.00
128.8920, 12235.00
130.1210, 12593.00
131.3490, 13405.00
132.5770, 14230.00
133.8050, 15210.00
135.0330, 16128.00
136.2600, 17409.00
137.4880, 18533.00
138.7150, 19645.00
139.9420, 20414.00
141.1690, 21021.00
142.3960, 21175.00
143.6230, 21123.00
144.8490, 20639.00
146.0760, 19916.00
147.3020, 18826.00
148.5280, 17587.00
149.7540, 16341.00
150.9800, 14989.00
152.2050, 13607.00
153.4310, 12407.00
154.6560, 11341.00
155.8810, 10309.00
157.1060, 9555.000
158.3310, 8727.000
159.5560, 8220.000
160.7800, 7682.000
162.0050, 7102.000
163.2290, 6810.000
164.4530, 6475.000
165.6770, 6329.000
166.9010, 5969.000
168.1250, 5831.000
169.3480, 5675.000
170.5720, 5555.000
171.7950, 5468.330
173.0180, 5384.479
174.2410, 5360.000
175.4640, 5312.000
176.6860, 5330.000
177.9090, 5380.000
179.1310, 5531.000
180.3530, 5623.000
181.5750, 5853.000
182.7970, 5996.000
184.0190, 6442.000
185.2400, 6576.000
186.4620, 6745.000
187.6830, 7121.000
188.9040, 7221.000
190.1250, 7166.000
191.3460, 7098.000
192.5660, 6649.000
193.7870, 6162.000
195.0070, 5485.000
196.2270, 5076.000
197.4470, 4603.000
198.6670, 4383.000
199.8870, 4158.000
201.1060, 4098.000
202.3260, 3920.000
203.5450, 3881.000
204.7640, 3830.000
205.9830, 3745.000
207.2020, 3772.000
208.4200, 3750.000
209.6390, 3727.000
210.8570, 3602.000
212.0750, 3619.000
213.2940, 3629.000
214.5110, 3650.000
215.7290, 3646.000
216.9470, 3661.000
218.1640, 3647.000
219.3810, 3661.688
220.5990, 3659.704
221.8150, 3677.000
223.0320, 3669.000
224.2490, 3664.000
225.4650, 3686.000
226.6820, 3613.000
227.8980, 3561.000
229.1140, 3678.000
230.3300, 3675.000
231.5460, 3607.000
232.7610, 3654.000
233.9770, 3695.000
235.1920, 3675.000
236.4070, 3737.000
237.6220, 3721.000
238.8370, 3733.000
240.0520, 3813.000
241.2660, 3815.129
242.4810, 3837.984
243.6950, 3883.000
244.9090, 3862.000
246.1230, 3885.000
247.3370, 3909.000
248.5500, 3989.000
249.7640, 4031.000
250.9770, 4020.000
252.1900, 4015.000
253.4030, 4153.000
254.6160, 4204.000
255.8290, 4281.000
257.0410, 4375.000
258.2530, 4449.000
259.4660, 4552.000
260.6780, 4695.000
261.8900, 4736.000
263.1010, 4919.000
264.3130, 4921.000
265.5250, 5133.000
266.7360, 5237.000
267.9470, 5467.000
269.1580, 5581.000
270.3690, 5808.000
271.5800, 5990.000
272.7900, 6273.000
274.0010, 6612.000
275.2110, 6853.000
276.4210, 7235.000
277.6310, 7487.000
278.8410, 7900.000
280.0500, 8409.000
281.2600, 9045.000
282.4690, 9789.000
283.6780, 10532.00
284.8870, 11435.00
286.0960, 12389.00
287.3050, 13585.00
288.5130, 14966.00
289.7220, 16682.00
290.9300, 18639.00
292.1380, 20779.00
293.3460, 23607.00
294.5540, 26536.00
295.7610, 29598.00
296.9690, 32879.00
298.1760, 36500.00
299.3830, 39391.00
300.5900, 42386.00
301.7970, 44096.00
303.0040, 44657.00
304.2100, 44083.00
305.4170, 42290.00
306.6230, 39502.00
307.8290, 36314.00
309.0350, 33407.00
310.2410, 30581.00
311.4460, 28457.00
312.6520, 27424.00
313.8570, 26639.00
315.0620, 26464.00
316.2670, 26792.00
317.4720, 27467.00
318.6770, 28286.00
319.8810, 29060.00
321.0860, 29886.00
322.2900, 30196.00
323.4940, 30637.00
324.6980, 30289.00
325.9020, 29760.00
327.1050, 29052.00
328.3090, 28633.00
329.5120, 28846.00
330.7150, 29530.00
331.9180, 30604.00
333.1210, 32595.00
334.3240, 35294.00
335.5260, 38705.00
336.7290, 42971.00
337.9310, 47398.00
339.1330, 52124.00
340.3350, 56227.00
341.5370, 59706.00
342.7380, 61252.00
343.9400, 61045.00
345.1410, 59103.00
346.3420, 54551.00
347.5430, 49806.00
348.7440, 43946.00
349.9450, 38561.00
351.1450, 33393.00
352.3460, 29216.00
353.5460, 25407.00
354.7460, 22669.00
355.9460, 20039.00
357.1460, 17994.00
358.3450, 16374.00
359.5450, 15074.00
360.7440, 14013.00
361.9430, 12967.00
363.1420, 12291.00
364.3410, 11701.00
365.5400, 11243.00
366.7380, 10906.00
367.9370, 10429.00
369.1350, 10170.00
370.3330, 9957.000
371.5310, 9699.082
372.7280, 9687.000
373.9260, 9474.000
375.1230, 9444.000
376.3210, 9581.000
377.5180, 9780.000
378.7150, 10019.00
379.9120, 10604.00
381.1080, 10828.00
382.3050, 11384.00
383.5010, 11985.00
384.6970, 12382.00
385.8930, 12713.00
387.0890, 12515.00
388.2850, 12109.00
389.4810, 11149.00
390.6760, 9883.000
391.8710, 8910.000
393.0660, 7669.000
394.2610, 6656.000
395.4560, 5792.000
396.6510, 5305.000
397.8450, 4685.000
399.0400, 4365.000
400.2340, 4094.000
401.4280, 3816.000
402.6220, 3656.000
403.8150, 3464.000
405.0090, 3470.000
406.2020, 3321.000
407.3960, 3194.000
408.5890, 3226.000
409.7820, 3178.000
410.9740, 3289.000
412.1670, 3322.000
413.3600, 3316.000
414.5520, 3341.000
415.7440, 3578.000
416.9360, 3669.000
418.1280, 3805.000
419.3200, 4169.000
420.5110, 4434.000
421.7020, 4896.000
422.8940, 5277.000
424.0850, 5997.000
425.2760, 6583.000
426.4660, 7433.000
427.6570, 8375.000
428.8470, 9532.000
430.0380, 10786.00
431.2280, 12011.00
432.4180, 13299.00
433.6080, 14344.00
434.7970, 15168.00
435.9870, 15404.00
437.1760, 15197.00
438.3650, 14103.00
439.5540, 12804.00
440.7430, 11073.00
441.9320, 9647.000
443.1210, 8291.000
444.3090, 7030.000
445.4970, 6091.000
446.6850, 5337.000
447.8730, 4744.000
449.0610, 4334.000
450.2490, 3988.000
451.4360, 3605.000
452.6240, 3413.000
453.8110, 3169.000
454.9980, 3017.000
456.1850, 2910.000
457.3710, 2826.000
458.5580, 2641.000
459.7440, 2604.000
460.9310, 2574.000
462.1170, 2444.000
463.3030, 2402.361
464.4880, 2231.000
465.6740, 2263.000
466.8590, 2185.000
468.0450, 2150.000
469.2300, 2054.000
470.4150, 2053.000
471.6000, 2057.000
472.7840, 1912.000
473.9690, 1894.000
475.1530, 1931.000
476.3370, 1796.000
477.5210, 1800.000
478.7050, 1827.000
479.8890, 1737.000
481.0730, 1764.000
482.2560, 1719.000
483.4390, 1682.000
484.6220, 1688.000
485.8050, 1753.000
486.9880, 1708.000
488.1710, 1670.000
489.3530, 1590.000
490.5360, 1588.000
491.7180, 1631.000
492.9000, 1571.000
494.0820, 1573.000
495.2630, 1523.000
496.4450, 1523.000
497.6260, 1557.000
498.8080, 1547.000
499.9890, 1534.000
501.1700, 1552.670
502.3500, 1542.000
503.5310, 1556.000
504.7110, 1576.000
505.8920, 1558.000
507.0720, 1540.000
508.2520, 1547.000
509.4320, 1504.000
510.6110, 1504.000
511.7910, 1543.000
512.9700, 1486.000
514.1490, 1508.000
515.3280, 1478.000
516.5070, 1447.000
517.6860, 1514.000
518.8650, 1519.000
520.0430, 1447.000
521.2210, 1457.000
522.3990, 1421.000
523.5770, 1485.000
524.7550, 1537.000
525.9330, 1423.000
527.1100, 1438.000
528.2870, 1433.000
529.4650, 1458.000
530.6420, 1408.000
531.8180, 1395.000
532.9950, 1432.000
534.1720, 1477.000
535.3480, 1475.000
536.5240, 1388.000
537.7000, 1385.000
538.8760, 1444.000
540.0520, 1436.000
541.2270, 1455.000
542.4030, 1447.000
543.5780, 1453.000
544.7530, 1467.000
545.9280, 1459.000
547.1030, 1456.000
548.2780, 1492.000
549.4520, 1434.000
550.6260, 1416.000
551.8010, 1510.000
552.9750, 1482.000
554.1480, 1515.000
555.3220, 1429.000
556.4960, 1453.000
557.6690, 1480.000
558.8420, 1476.000
560.0150, 1484.347
561.1880, 1453.000
562.3610, 1455.000
563.5340, 1466.000
564.7060, 1409.000
565.8780, 1376.000
567.0500, 1363.000
568.2220, 1351.565
569.3940, 1351.901
570.5660, 1361.000
571.7370, 1353.000
572.9090, 1348.000
574.0800, 1310.000
575.2510, 1358.000
576.4220, 1349.000
577.5920, 1357.000
578.7630, 1387.000
579.9330, 1329.000
581.1040, 1314.000
582.2740, 1316.000
583.4440, 1315.000
584.6130, 1348.000
585.7830, 1337.079
586.9520, 1339.037
588.1220, 1329.000
589.2910, 1326.000
590.4600, 1322.100
591.6290, 1316.501
592.7970, 1317.000
593.9660, 1314.000
595.1340, 1320.000
596.3020, 1331.000
597.4700, 1258.000
598.6380, 1258.000
599.8060, 1242.000
600.9730, 1350.000
602.1410, 1327.000
603.3080, 1281.000
604.4750, 1180.000
605.6420, 1258.000
606.8090, 1230.000
607.9750, 1225.000
609.1420, 1238.000
610.3080, 1354.000
611.4740, 1274.000
612.6400, 1301.000
613.8060, 1231.000
614.9720, 1191.000
616.1370, 1206.000
617.3020, 1287.000
618.4680, 1287.000
619.6330, 1244.000
620.7970, 1216.000
621.9620, 1217.000
623.1270, 1243.000
624.2910, 1251.000
625.4550, 1264.444
626.6190, 1197.000
627.7830, 1282.000
628.9470, 1243.000
630.1110, 1227.000
631.2740, 1290.000
632.4370, 1218.000
633.6000, 1306.000
634.7630, 1348.000
635.9260, 1368.000
637.0890, 1401.000
638.2510, 1405.000
639.4140, 1386.000
640.5760, 1416.000
641.7380, 1441.000
642.9000, 1490.000
644.0610, 1554.000
645.2230, 1505.000
646.3840, 1519.000
647.5460, 1456.000
648.7070, 1466.000
649.8670, 1496.000
651.0280, 1510.000
652.1890, 1544.000
653.3490, 1538.000
654.5090, 1583.000
655.6700, 1517.000
656.8300, 1596.000
657.9890, 1563.000
659.1490, 1558.000
660.3080, 1615.000
661.4680, 1639.000
662.6270, 1622.000
663.7860, 1607.000
664.9450, 1593.000
666.1030, 1658.000
667.2620, 1602.000
668.4200, 1605.000
669.5790, 1750.000
670.7370, 1631.000
671.8940, 1783.000
673.0520, 1675.000
674.2100, 1759.000
675.3670, 1786.000
676.5240, 1807.000
677.6810, 1821.000
678.8380, 1834.000
679.9950, 1855.343
681.1520, 1926.000
682.3080, 1911.000
683.4650, 2023.000
684.6210, 2094.000
685.7770, 2081.000
686.9320, 2209.000
688.0880, 2263.000
689.2440, 2245.000
690.3990, 2376.000
691.5540, 2419.000
692.7090, 2584.000
693.8640, 2698.000
695.0190, 2806.323
696.1730, 2836.000
697.3280, 3046.000
698.4820, 3210.000
699.6360, 3320.000
700.7900, 3346.000
701.9440, 3526.000
703.0970, 3780.000
704.2510, 3767.000
705.4040, 3845.000
706.5570, 3903.000
707.7100, 3814.000
708.8630, 3818.000
710.0150, 3689.000
711.1680, 3653.000
712.3200, 3402.000
713.4720, 3334.000
714.6240, 3290.000
715.7760, 3080.000
716.9280, 3067.000
718.0790, 3057.000
719.2310, 3023.000
720.3820, 2902.000
721.5330, 2859.000
722.6840, 2893.000
723.8350, 2847.000
724.9850, 2952.000
726.1360, 2917.000
727.2860, 2960.000
728.4360, 2961.000
729.5860, 3090.000
730.7360, 3023.000
731.8850, 3077.000
733.0350, 3198.000
734.1840, 3219.000
735.3330, 3251.000
736.4820, 3266.000
737.6310, 3422.000
738.7800, 3581.000
739.9280, 3652.000
741.0760, 3741.000
742.2250, 3843.000
743.3730, 4011.000
744.5200, 4238.000
745.6680, 4324.000
746.8160, 4470.000
747.9630, 4828.000
749.1100, 5208.000
750.2570, 5352.000
751.4040, 5696.000
752.5510, 6062.000
753.6980, 6455.000
754.8440, 6947.000
755.9900, 7557.849
757.1360, 8097.000
758.2820, 8965.000
759.4280, 9825.000
760.5740, 10627.00
761.7190, 11969.00
762.8640, 13488.00
764.0100, 15217.00
765.1550, 17701.00
766.2990, 20297.00
767.4440, 23920.00
768.5890, 27983.00
769.7330, 33223.00
770.8770, 38971.00
772.0210, 46158.00
773.1650, 53772.00
774.3090, 62024.00
775.4520, 69257.00
776.5960, 76012.00
777.7390, 80014.00
778.8820, 80567.00
780.0250, 77701.00
781.1670, 71200.00
782.3100, 63661.00
783.4520, 54967.00
784.5950, 46879.00
785.7370, 40320.00
786.8790, 34556.00
788.0210, 30251.00
789.1620, 26421.00
790.3040, 23701.00
791.4450, 21312.00
792.5860, 19486.00
793.7270, 18079.00
794.8680, 16852.00
796.0090, 16056.00
797.1490, 15139.00
798.2890, 14709.00
799.4300, 14000.00
800.5700, 13455.00
801.7090, 12882.00
802.8490, 12656.00
803.9890, 12373.00
805.1280, 12148.00
806.2670, 12013.00
807.4060, 12059.62
808.5450, 12131.00
809.6840, 12449.00
810.8230, 12782.00
811.9610, 13255.00
813.0990, 14273.00
814.2370, 15113.00
815.3750, 16585.00
816.5130, 18167.00
817.6510, 19607.00
818.7880, 21221.00
819.9250, 22005.00
821.0630, 22307.00
822.1990, 21621.00
823.3360, 21066.00
824.4730, 20652.00
825.6090, 20876.00
826.7460, 21253.00
827.8820, 21814.00
829.0180, 22470.00
830.1540, 23873.00
831.2890, 25235.00
832.4250, 27691.00
833.5600, 30902.00
834.6960, 35000.00
835.8310, 40855.00
836.9660, 49005.00
838.1000, 59584.00
839.2350, 74363.00
840.3690, 92806.00
841.5030, 117686.0
842.6380, 148409.0
843.7710, 184852.0
844.9050, 225180.0
846.0390, 266377.0
847.1720, 299292.0
848.3060, 314538.0
849.4390, 304407.0
850.5720, 268425.0
851.7040, 215815.0
852.8370, 163304.0
853.9700, 120665.0
855.1020, 90110.00
856.2340, 68062.00
857.3660, 52453.00
858.4980, 41871.00
859.6300, 34122.00
860.7610, 28424.00
861.8920, 24634.00
863.0240, 21119.00
864.1550, 18734.00
865.2850, 16650.00
866.4160, 15131.00
867.5470, 13729.00
868.6770, 12683.00
869.8070, 11611.00
870.9370, 10904.00
872.0670, 10286.00
873.1970, 9861.000
874.3270, 9603.000
875.4560, 9279.000
876.5850, 9063.000
877.7140, 8873.000
878.8430, 8800.000
879.9720, 8728.000
881.1010, 8550.000
882.2290, 8098.000
883.3570, 7897.000
884.4860, 7527.000
885.6140, 7212.000
886.7410, 6914.000
887.8690, 6653.000
888.9960, 6470.000
890.1240, 6369.000
891.2510, 6319.000
892.3780, 6317.000
893.5050, 6183.000
894.6320, 6091.000
895.7580, 6071.000
896.8840, 5943.000
898.0110, 5913.000
899.1370, 5791.000
900.2620, 5608.000
901.3880, 5488.000
902.5140, 5268.000
903.6390, 5210.000
904.7640, 4993.000
905.8890, 4905.000
907.0140, 4659.000
908.1390, 4521.000
909.2640, 4305.000
910.3880, 4070.000
911.5120, 3963.000
912.6360, 3741.000
913.7600, 3543.000
914.8840, 3474.000
916.0080, 3219.000
917.1310, 3174.000
918.2550, 3076.000
919.3780, 2947.000
920.5010, 2915.000
921.6230, 2789.000
922.7460, 2742.000
923.8690, 2822.000
924.9910, 2763.000
926.1130, 2675.000
927.2350, 2658.000
928.3570, 2545.000
929.4790, 2626.000
930.6000, 2480.000
931.7220, 2523.000
932.8430, 2492.000
933.9640, 2380.000
935.0850, 2376.000
936.2050, 2259.000
937.3260, 2281.000
938.4460, 2229.000
939.5660, 2190.000
940.6870, 2107.000
941.8060, 2058.000
942.9260, 2029.000
944.0460, 1966.000
945.1650, 1910.000
946.2840, 1921.000
947.4040, 1837.000
948.5220, 1783.000
949.6410, 1737.000
950.7600, 1733.000
951.8780, 1705.000
952.9970, 1735.000
954.1150, 1699.000
955.2330, 1695.000
956.3500, 1686.685
957.4680, 1570.000
958.5860, 1629.000
959.7030, 1629.000
960.8200, 1542.000
961.9370, 1549.000
963.0540, 1522.000
964.1710, 1527.000
965.2870, 1506.568
966.4030, 1498.000
967.5200, 1463.000
968.6360, 1495.000
969.7510, 1466.000
970.8670, 1495.000
971.9830, 1491.527
973.0980, 1487.000
974.2130, 1496.000
975.3280, 1493.000
976.4430, 1500.684
977.5580, 1448.000
978.6730, 1443.000
979.7870, 1454.000
980.9010, 1359.000
982.0150, 1447.000
983.1290, 1497.000
984.2430, 1449.000
985.3560, 1438.000
986.4700, 1416.000
987.5830, 1443.000
988.6960, 1382.000
989.8090, 1444.000
990.9220, 1414.000
992.0350, 1460.000
993.1470, 1471.000
994.2590, 1388.000
995.3720, 1462.000
996.4830, 1425.000
997.5950, 1525.000
998.7070, 1440.000
999.8180, 1460.000
1000.930, 1462.000
1002.041, 1463.000
1003.152, 1433.000
1004.263, 1475.000
1005.373, 1404.000
1006.484, 1471.000
1007.594, 1415.000
1008.704, 1451.000
1009.815, 1445.000
1010.924, 1466.000
1012.034, 1462.397
1013.144, 1475.814
1014.253, 1455.000
1015.362, 1498.000
1016.471, 1514.000
1017.580, 1520.000
1018.689, 1457.000
1019.797, 1486.000
1020.906, 1581.000
1022.014, 1484.000
1023.122, 1564.000
1024.230, 1527.000
1025.338, 1424.000
1026.445, 1521.000
1027.553, 1604.000
1028.660, 1530.000
1029.767, 1554.000
1030.874, 1509.000
1031.981, 1545.000
1033.088, 1546.000
1034.194, 1565.000
1035.300, 1570.821
1036.406, 1590.000
1037.512, 1575.000
1038.618, 1518.000
1039.724, 1518.000
1040.829, 1520.000
1041.935, 1503.402
1043.040, 1530.000
1044.145, 1514.000
1045.250, 1568.000
1046.354, 1596.000
1047.459, 1606.195
1048.563, 1584.000
1049.667, 1632.000
1050.771, 1585.000
1051.875, 1569.000
1052.979, 1584.000
1054.082, 1573.000
1055.186, 1609.000
1056.289, 1586.000
1057.392, 1615.000
1058.495, 1623.000
1059.598, 1592.000
1060.700, 1519.000
1061.803, 1545.000
1062.905, 1517.000
1064.007, 1595.000
1065.109, 1488.000
1066.210, 1505.000
1067.312, 1442.000
1068.413, 1514.000
1069.515, 1417.000
1070.616, 1450.000
1071.717, 1533.000
1072.817, 1511.000
1073.918, 1515.000
1075.019, 1462.000
1076.119, 1421.000
1077.219, 1360.000
1078.319, 1489.000
1079.419, 1474.000
1080.518, 1452.000
1081.618, 1444.000
1082.717, 1427.000
1083.816, 1442.000
1084.915, 1423.000
1086.014, 1457.000
1087.113, 1418.000
1088.211, 1409.000
1089.309, 1358.000
1090.408, 1475.000
1091.506, 1453.000
1092.603, 1458.000
1093.701, 1443.000
1094.799, 1435.000
1095.896, 1412.000
1096.993, 1310.000
1098.090, 1400.000
1099.187, 1418.000
1100.284, 1435.000
1101.380, 1335.000
1102.477, 1369.000
1103.573, 1330.000
1104.669, 1312.000
1105.765, 1389.000
1106.860, 1339.000
1107.956, 1354.000
1109.051, 1300.000
1110.147, 1355.000
1111.242, 1398.000
1112.336, 1336.000
1113.431, 1359.000
1114.526, 1367.000
1115.620, 1295.000
1116.714, 1291.000
1117.809, 1253.000
1118.902, 1389.000
1119.996, 1348.000
1121.090, 1380.000
1122.183, 1314.000
1123.277, 1305.000
1124.370, 1340.000
1125.463, 1348.000
1126.555, 1389.000
1127.648, 1390.000
1128.740, 1396.000
1129.833, 1317.000
1130.925, 1370.000
1132.017, 1391.000
1133.109, 1468.000
1134.200, 1394.000
1135.292, 1347.000
1136.383, 1320.000
1137.474, 1360.000
1138.565, 1416.000
1139.656, 1394.000
1140.747, 1375.000
1141.837, 1460.000
1142.927, 1452.000
1144.018, 1445.000
1145.108, 1447.000
1146.197, 1425.000
1147.287, 1416.000
1148.377, 1400.000
1149.466, 1408.000
1150.555, 1397.266
1151.644, 1384.000
1152.733, 1381.000
1153.822, 1358.000
1154.910, 1328.468
1155.999, 1312.222
1157.087, 1317.000
1158.175, 1266.000
1159.263, 1304.000
1160.350, 1292.000
1161.438, 1262.000
1162.525, 1318.000
1163.613, 1269.000
1164.700, 1256.000
1165.787, 1279.000
1166.873, 1275.000
1167.960, 1221.000
1169.046, 1202.000
1170.133, 1283.000
1171.219, 1222.000
1172.305, 1230.000
1173.390, 1135.000
1174.476, 1223.000
1175.561, 1191.000
1176.647, 1269.000
1177.732, 1229.000
1178.817, 1279.000
1179.901, 1320.000
1180.986, 1260.000
1182.070, 1340.000
1183.155, 1289.000
1184.239, 1275.000
1185.323, 1380.000
1186.407, 1361.000
1187.490, 1325.000
1188.574, 1297.000
1189.657, 1348.000
1190.740, 1316.000
1191.823, 1322.000
1192.906, 1323.821
1193.988, 1315.000
1195.071, 1301.000
1196.153, 1302.568
1197.235, 1288.338
1198.317, 1295.000
1199.399, 1268.000
1200.481, 1257.000
1201.562, 1247.000
1202.644, 1223.000
1203.725, 1179.000
1204.806, 1187.000
1205.887, 1231.000
1206.967, 1188.000
1208.048, 1234.000
1209.128, 1231.000
1210.208, 1230.000
1211.289, 1244.000
1212.368, 1206.000
1213.448, 1251.000
1214.528, 1184.000
1215.607, 1137.000
1216.686, 1216.000
1217.765, 1179.000
1218.844, 1152.000
1219.923, 1182.000
1221.001, 1166.000
1222.080, 1174.000
1223.158, 1177.000
1224.236, 1177.000
1225.314, 1177.000
1226.392, 1105.000
1227.469, 1161.000
1228.547, 1189.000
1229.624, 1152.000
1230.701, 1209.000
1231.778, 1148.000
1232.855, 1190.000
1233.931, 1111.000
1235.008, 1169.000
1236.084, 1110.000
1237.160, 1173.000
1238.236, 1169.000
1239.312, 1124.000
1240.387, 1125.000
1241.463, 1161.000
1242.538, 1196.000
1243.613, 1127.000
1244.688, 1161.000
1245.763, 1101.000
1246.837, 1143.000
1247.912, 1075.000
1248.986, 1134.000
1250.060, 1163.000
1251.134, 1151.000
1252.208, 1142.000
1253.282, 1091.000
1254.355, 1072.000
1255.428, 1007.000
1256.501, 1082.000
1257.574, 1089.000
1258.647, 1058.000
1259.720, 1149.000
1260.792, 1069.000
1261.865, 998.0000
1262.937, 1025.000
1264.009, 1050.000
1265.081, 1001.000
1266.152, 1003.000
1267.224, 1012.000
1268.295, 989.0000
1269.366, 995.9998
1270.437, 984.0000
1271.508, 988.0000
1272.579, 977.0000
1273.649, 967.0000
1274.720, 1057.000
1275.790, 971.0000
1276.860, 1065.000
1277.930, 1030.000
1278.999, 1040.000
1280.069, 1033.000
1281.138, 958.0000
1282.208, 1011.000
1283.277, 975.0000
1284.345, 1005.000
1285.414, 1008.000
1286.483, 969.0000
1287.551, 940.0000
1288.619, 913.0000
1289.687, 907.4769
1290.755, 918.0000
1291.823, 917.0000
1292.890, 911.0000
1293.958, 929.0000
1295.025, 934.2977
1296.092, 855.0000
1297.159, 960.0000
1298.226, 960.0000
1299.292, 967.0000
1300.359, 879.0000
1301.425, 920.0000
1302.491, 866.0000
1303.557, 892.0000
1304.623, 970.0000
1305.688, 824.0000
1306.754, 857.0000
1307.819, 861.0000
1308.884, 916.0000
1309.949, 854.0000
1311.014, 897.0000
1312.078, 841.0000
1313.143, 850.0000
1314.207, 863.0000
1315.271, 834.0000
1316.335, 791.0000
1317.399, 807.0000
1318.462, 817.0000
1319.526, 816.0000
1320.589, 877.0000
1321.652, 854.0000
1322.715, 803.0000
1323.778, 836.0000
1324.841, 876.0000
1325.903, 847.0000
1326.965, 854.0000
1328.027, 848.0000
1329.089, 842.0000
1330.151, 833.0000
1331.213, 836.0000
1332.274, 833.0000
1333.336, 822.0000
1334.397, 808.0000
1335.458, 836.0000
1336.518, 841.0000
1337.579, 860.0000
1338.640, 857.0000
1339.700, 812.0000
1340.760, 786.0000
1341.820, 790.0000
1342.880, 781.0132
1343.939, 807.0000
1344.999, 814.0000
1346.058, 816.0000
1347.117, 857.0000
1348.176, 799.0000
1349.235, 891.0000
1350.294, 762.0000
1351.352, 833.0000
1352.411, 799.0000
1353.469, 777.0000
1354.527, 791.0000
1355.585, 780.0000
1356.642, 817.0000
1357.700, 724.0000
1358.757, 798.0000
1359.815, 896.0000
1360.872, 761.0000
1361.928, 824.0000
1362.985, 840.0000
1364.042, 811.0000
1365.098, 795.0000
1366.154, 761.0000
1367.210, 713.0000
1368.266, 877.0000
1369.322, 710.0000
1370.377, 822.0000
1371.433, 801.0000
1372.488, 801.0000
1373.543, 758.0000
1374.598, 812.0000
1375.652, 859.0000
1376.707, 782.0000
1377.761, 843.0000
1378.816, 813.0000
1379.870, 870.0000
1380.924, 825.0000
1381.977, 798.0000
1383.031, 827.0000
1384.084, 844.0000
1385.137, 789.0000
1386.190, 732.0000
1387.243, 847.0000
1388.296, 874.0000
1389.349, 857.0000
1390.401, 897.0000
1391.453, 854.0000
1392.505, 845.0000
1393.557, 798.0000
1394.609, 854.0000
1395.661, 844.0000
1396.712, 807.0000
1397.763, 857.0000
1398.814, 846.0000
1399.865, 835.0000
1400.916, 826.0000
1401.967, 750.0000
1403.017, 835.0000
1404.067, 836.0000
1405.117, 769.0000
1406.167, 812.0000
1407.217, 863.0000
1408.267, 830.0000
1409.316, 853.0000
1410.365, 791.0000
1411.414, 812.0000
1412.463, 767.0000
1413.512, 804.0000
1414.561, 814.0000
1415.609, 835.0000
1416.657, 828.0000
1417.706, 786.0000
1418.754, 726.0000
1419.801, 758.0000
1420.849, 702.0000
1421.896, 780.0000
1422.944, 776.0000
1423.991, 793.0000
1425.038, 754.0000
1426.085, 761.0000
1427.131, 771.0000
1428.178, 732.0000
1429.224, 747.9786
1430.270, 740.7037
1431.316, 750.0000
1432.362, 761.0000
1433.407, 769.0000
1434.453, 820.0000
1435.498, 807.0000
1436.543, 814.0000
1437.588, 774.0000
1438.633, 845.0000
1439.678, 752.0000
1440.722, 763.0000
1441.767, 774.0000
1442.811, 725.0000
1443.855, 746.0000
1444.898, 745.0000
1445.942, 731.0000
1446.986, 753.4312
1448.029, 770.0000
1449.072, 772.0000
1450.115, 770.0000
1451.158, 761.0000
1452.201, 783.0000
1453.243, 760.0000
1454.285, 798.0000
1455.327, 852.0000
1456.369, 799.0000
1457.411, 747.0000
1458.453, 765.0000
1459.494, 709.0000
1460.536, 842.0000
1461.577, 764.0000
1462.618, 824.0000
1463.659, 788.0000
1464.700, 811.0000
1465.740, 799.0000
1466.780, 834.0000
1467.821, 807.0000
1468.861, 840.0000
1469.900, 801.0000
1470.940, 798.0000
1471.980, 795.0000
1473.019, 826.0000
1474.058, 817.0000
1475.097, 881.0000
1476.136, 808.0000
1477.175, 807.0000
1478.213, 851.0000
1479.252, 860.0000
1480.290, 854.0000
1481.328, 835.0000
1482.366, 832.0000
1483.403, 824.0000
1484.441, 820.0000
1485.478, 873.0000
1486.515, 859.0000
1487.552, 845.0000
1488.589, 858.0000
1489.626, 825.0000
1490.663, 856.0000
1491.699, 865.0000
1492.735, 859.1890
1493.771, 870.0272
1494.807, 873.0000
1495.843, 866.0000
1496.878, 890.0000
1497.914, 889.0000
1498.949, 930.0000
1499.984, 910.0000
1501.019, 855.0000
1502.054, 844.0000
1503.088, 873.0000
1504.122, 874.0000
1505.157, 828.0000
1506.191, 883.0000
1507.225, 961.0000
1508.258, 960.0000
1509.292, 925.0000
1510.325, 905.0000
1511.359, 890.0000
1512.392, 946.0000
1513.424, 961.0000
1514.457, 1008.000
1515.490, 994.9813
1516.522, 953.0000
1517.554, 970.0000
1518.586, 978.0000
1519.618, 993.0000
1520.650, 991.0000
1521.682, 1027.000
1522.713, 1045.000
1523.744, 1033.526
1524.775, 1019.000
1525.806, 1005.000
1526.837, 984.0000
1527.868, 957.0000
1528.898, 971.1057
1529.928, 1038.000
1530.958, 1019.000
1531.988, 1050.000
1533.018, 1118.000
1534.048, 1031.000
1535.077, 1031.000
1536.106, 1079.000
1537.135, 1157.000
1538.164, 1052.000
1539.193, 1018.000
1540.222, 1048.000
1541.250, 1090.000
1542.278, 1022.000
1543.306, 1111.000
1544.334, 1166.000
1545.362, 1043.000
1546.390, 1130.000
1547.417, 1130.000
1548.444, 1173.000
1549.471, 1178.000
1550.498, 1170.000
1551.525, 1155.000
1552.552, 1061.000
1553.578, 1136.000
1554.604, 1116.000
1555.630, 1077.000
1556.656, 1118.000
1557.682, 1121.000
1558.708, 1049.000
1559.733, 1054.000
1560.758, 1066.000
1561.784, 1061.000
1562.808, 1047.000
1563.833, 1018.000
1564.858, 1013.000
1565.882, 991.0000
1566.907, 1001.086
1567.931, 1040.000
1568.955, 1034.000
1569.978, 1033.000
1571.002, 1060.000
1572.025, 1023.000
1573.049, 1066.000
1574.072, 1072.000
1575.095, 1075.000
1576.118, 1003.000
1577.140, 1029.000
1578.163, 1072.000
1579.185, 1021.000
##END=



