##NAMES=Descloizite
##RRUFFID=R050037
##IDEAL CHEMISTRY=Pb^2+^Zn^2+^V^5+^O_4_(OH)
##LOCALITY=Berg Aukas mine, Namibia
##OWNER=RRUFF
##SOURCE=Eugene Schlepp
##DESCRIPTION=Group of brown thin tabular single crystals
##STATUS=The identification of this mineral has been confirmed by X-ray diffraction and chemical analysis
##URL=rruff.info/R050037
##MEASURED CHEMISTRY=Pb_1.00_(Zn_0.98_Cu_0.02_)_Σ=1_((V_0.98_As_0.02_)_Σ=1_O_4_)(OH) ; OH estimated by difference and stoichiometry
##PIN_ID=m00197
##ORIENTATION=Laser parallel to c* (0 0 1). Fiducial mark perpendicular to laser is parallel to -a [-1 0 0]
64.81000, 67.00000
66.04600, 127.0000
67.28200, 61.00000
68.51800, 112.0000
69.75400, 159.0000
70.98900, 122.0000
72.22500, 72.00000
73.46000, 157.0000
74.69500, 66.00000
75.93000, 54.00000
77.16500, 75.00000
78.40000, 129.0000
79.63400, 130.0000
80.86900, 149.0000
82.10300, 145.0000
83.33700, 143.0000
84.57100, 190.0000
85.80500, 143.0000
87.03800, 167.0000
88.27200, 220.0000
89.50500, 252.0000
90.73800, 314.0000
91.97100, 335.0000
93.20400, 409.0000
94.43700, 451.0000
95.67000, 505.5729
96.90200, 633.0000
98.13400, 636.0000
99.36600, 737.0000
100.5980, 837.0000
101.8300, 873.0000
103.0620, 982.0000
104.2930, 1110.000
105.5250, 1266.000
106.7560, 1276.000
107.9870, 1363.000
109.2180, 1457.000
110.4490, 1658.000
111.6790, 1762.000
112.9100, 1805.000
114.1400, 1903.000
115.3700, 1999.000
116.6000, 2113.000
117.8300, 2287.000
119.0600, 2278.000
120.2900, 2356.000
121.5190, 2514.000
122.7480, 2532.105
123.9770, 2731.000
125.2060, 2610.000
126.4350, 2434.000
127.6640, 2323.000
128.8920, 2375.000
130.1210, 2402.000
131.3490, 2470.000
132.5770, 2463.000
133.8050, 2513.000
135.0330, 2588.000
136.2600, 2561.000
137.4880, 2581.000
138.7150, 2675.000
139.9420, 2589.000
141.1690, 2613.000
142.3960, 2569.000
143.6230, 2449.000
144.8490, 2437.000
146.0760, 2282.000
147.3020, 2272.000
148.5280, 2043.000
149.7540, 2037.000
150.9800, 1879.000
152.2050, 1780.000
153.4310, 1783.000
154.6560, 1703.000
155.8810, 1725.000
157.1060, 1614.000
158.3310, 1529.000
159.5560, 1565.000
160.7800, 1487.000
162.0050, 1381.000
163.2290, 1475.000
164.4530, 1410.000
165.6770, 1447.000
166.9010, 1467.000
168.1250, 1429.000
169.3480, 1442.000
170.5720, 1413.000
171.7950, 1355.000
173.0180, 1438.000
174.2410, 1409.000
175.4640, 1402.000
176.6860, 1464.000
177.9090, 1333.000
179.1310, 1269.000
180.3530, 1202.000
181.5750, 1300.000
182.7970, 1251.000
184.0190, 1293.000
185.2400, 1215.000
186.4620, 1219.000
187.6830, 1202.000
188.9040, 1244.000
190.1250, 1165.000
191.3460, 1248.000
192.5660, 1232.000
193.7870, 1170.000
195.0070, 1172.000
196.2270, 1219.000
197.4470, 1186.000
198.6670, 1287.000
199.8870, 1190.000
201.1060, 1201.000
202.3260, 1176.000
203.5450, 1236.000
204.7640, 1152.000
205.9830, 1178.000
207.2020, 1263.000
208.4200, 1205.000
209.6390, 1164.000
210.8570, 1171.000
212.0750, 1214.000
213.2940, 1226.000
214.5110, 1143.000
215.7290, 1231.000
216.9470, 1096.000
218.1640, 1179.000
219.3810, 1136.000
220.5990, 1228.000
221.8150, 1157.000
223.0320, 1131.000
224.2490, 1182.000
225.4650, 1174.000
226.6820, 1157.888
227.8980, 1167.897
229.1140, 1110.000
230.3300, 1131.000
231.5460, 1097.000
232.7610, 1042.000
233.9770, 1140.000
235.1920, 1145.000
236.4070, 1181.000
237.6220, 1161.000
238.8370, 1141.000
240.0520, 1142.000
241.2660, 1193.000
242.4810, 1158.000
243.6950, 1183.000
244.9090, 1126.000
246.1230, 1175.000
247.3370, 1144.000
248.5500, 1184.000
249.7640, 1246.000
250.9770, 1195.000
252.1900, 1201.000
253.4030, 1303.000
254.6160, 1222.000
255.8290, 1220.000
257.0410, 1264.000
258.2530, 1301.000
259.4660, 1368.000
260.6780, 1374.000
261.8900, 1312.000
263.1010, 1422.000
264.3130, 1366.000
265.5250, 1438.000
266.7360, 1502.000
267.9470, 1568.000
269.1580, 1476.000
270.3690, 1544.000
271.5800, 1590.000
272.7900, 1715.000
274.0010, 1774.823
275.2110, 1851.000
276.4210, 1954.000
277.6310, 2049.000
278.8410, 2165.743
280.0500, 2135.000
281.2600, 2373.000
282.4690, 2539.000
283.6780, 2660.000
284.8870, 2961.000
286.0960, 3148.000
287.3050, 3555.000
288.5130, 3894.000
289.7220, 4358.000
290.9300, 4830.000
292.1380, 5291.000
293.3460, 5997.000
294.5540, 6644.000
295.7610, 7357.000
296.9690, 8045.000
298.1760, 8717.000
299.3830, 9235.000
300.5900, 9695.000
301.7970, 10041.00
303.0040, 9895.000
304.2100, 9706.000
305.4170, 9354.000
306.6230, 8613.000
307.8290, 7843.000
309.0350, 7174.000
310.2410, 6482.000
311.4460, 5898.023
312.6520, 5378.000
313.8570, 4917.000
315.0620, 4500.000
316.2670, 4208.743
317.4720, 4049.000
318.6770, 3831.000
319.8810, 3758.760
321.0860, 3776.000
322.2900, 3693.000
323.4940, 3819.000
324.6980, 3869.000
325.9020, 3855.000
327.1050, 3921.000
328.3090, 4033.000
329.5120, 4176.000
330.7150, 4352.000
331.9180, 4550.000
333.1210, 4755.000
334.3240, 4961.000
335.5260, 5208.000
336.7290, 5371.000
337.9310, 5613.000
339.1330, 5606.000
340.3350, 5720.000
341.5370, 5692.000
342.7380, 5604.000
343.9400, 5508.000
345.1410, 5168.000
346.3420, 4893.000
347.5430, 4635.000
348.7440, 4304.000
349.9450, 3992.000
351.1450, 3823.000
352.3460, 3548.000
353.5460, 3459.000
354.7460, 3269.000
355.9460, 3189.000
357.1460, 3073.000
358.3450, 2997.000
359.5450, 2984.000
360.7440, 2826.000
361.9430, 2723.000
363.1420, 2578.000
364.3410, 2415.000
365.5400, 2263.000
366.7380, 2126.000
367.9370, 2042.000
369.1350, 1966.000
370.3330, 1853.000
371.5310, 1919.000
372.7280, 1832.000
373.9260, 1802.000
375.1230, 1759.000
376.3210, 1851.000
377.5180, 1803.000
378.7150, 1909.000
379.9120, 1933.000
381.1080, 2012.000
382.3050, 2114.000
383.5010, 2183.000
384.6970, 2223.000
385.8930, 2303.000
387.0890, 2221.000
388.2850, 2210.000
389.4810, 2108.000
390.6760, 1893.000
391.8710, 1870.000
393.0660, 1752.000
394.2610, 1654.000
395.4560, 1575.000
396.6510, 1528.000
397.8450, 1474.000
399.0400, 1397.000
400.2340, 1411.000
401.4280, 1330.000
402.6220, 1290.000
403.8150, 1206.000
405.0090, 1290.000
406.2020, 1338.000
407.3960, 1265.000
408.5890, 1299.000
409.7820, 1299.000
410.9740, 1266.000
412.1670, 1338.000
413.3600, 1251.000
414.5520, 1286.000
415.7440, 1355.000
416.9360, 1410.000
418.1280, 1390.000
419.3200, 1530.000
420.5110, 1528.000
421.7020, 1581.000
422.8940, 1776.000
424.0850, 1756.000
425.2760, 1927.000
426.4660, 2105.000
427.6570, 2190.000
428.8470, 2375.000
430.0380, 2625.000
431.2280, 2810.000
432.4180, 2998.000
433.6080, 3128.000
434.7970, 3250.000
435.9870, 3291.000
437.1760, 3221.000
438.3650, 3083.000
439.5540, 2884.000
440.7430, 2666.000
441.9320, 2460.000
443.1210, 2285.000
444.3090, 2069.000
445.4970, 1912.000
446.6850, 1846.000
447.8730, 1651.000
449.0610, 1662.000
450.2490, 1444.000
451.4360, 1522.000
452.6240, 1433.000
453.8110, 1455.000
454.9980, 1245.000
456.1850, 1379.000
457.3710, 1316.000
458.5580, 1293.000
459.7440, 1319.000
460.9310, 1262.000
462.1170, 1249.000
463.3030, 1276.000
464.4880, 1214.000
465.6740, 1235.000
466.8590, 1221.000
468.0450, 1185.000
469.2300, 1174.000
470.4150, 1204.000
471.6000, 1202.000
472.7840, 1181.636
473.9690, 1085.000
475.1530, 1140.000
476.3370, 1071.000
477.5210, 1064.000
478.7050, 1123.000
479.8890, 1086.000
481.0730, 1079.000
482.2560, 1016.000
483.4390, 932.0000
484.6220, 1031.000
485.8050, 1078.000
486.9880, 1034.000
488.1710, 980.0000
489.3530, 949.0000
490.5360, 965.0000
491.7180, 941.0000
492.9000, 956.0000
494.0820, 983.0000
495.2630, 902.0000
496.4450, 908.0000
497.6260, 916.0000
498.8080, 965.0000
499.9890, 935.0000
501.1700, 917.0000
502.3500, 925.0000
503.5310, 933.0000
504.7110, 940.0000
505.8920, 963.0000
507.0720, 907.0000
508.2520, 946.0000
509.4320, 925.0000
510.6110, 894.0000
511.7910, 929.0000
512.9700, 958.0000
514.1490, 900.0000
515.3280, 887.0000
516.5070, 908.0000
517.6860, 922.0000
518.8650, 926.0000
520.0430, 898.0000
521.2210, 918.0000
522.3990, 857.0000
523.5770, 873.0000
524.7550, 925.0000
525.9330, 864.0000
527.1100, 861.0000
528.2870, 917.0000
529.4650, 934.0000
530.6420, 877.0000
531.8180, 834.0000
532.9950, 897.0000
534.1720, 932.0000
535.3480, 904.0000
536.5240, 927.0000
537.7000, 842.0000
538.8760, 934.0000
540.0520, 847.0000
541.2270, 893.0000
542.4030, 918.0000
543.5780, 883.0000
544.7530, 933.0000
545.9280, 899.0000
547.1030, 886.0000
548.2780, 923.0000
549.4520, 902.0000
550.6260, 858.0000
551.8010, 929.0000
552.9750, 915.0000
554.1480, 922.0000
555.3220, 943.0000
556.4960, 915.0000
557.6690, 906.0000
558.8420, 915.0000
560.0150, 890.0000
561.1880, 925.0000
562.3610, 941.0000
563.5340, 953.0000
564.7060, 962.2040
565.8780, 970.0000
567.0500, 954.0000
568.2220, 942.0000
569.3940, 917.0000
570.5660, 887.0000
571.7370, 875.0000
572.9090, 882.5773
574.0800, 917.0000
575.2510, 936.0000
576.4220, 919.0000
577.5920, 983.0000
578.7630, 983.0000
579.9330, 944.0000
581.1040, 907.0000
582.2740, 974.0000
583.4440, 922.0000
584.6130, 920.0000
585.7830, 856.0000
586.9520, 912.0000
588.1220, 883.0000
589.2910, 994.0000
590.4600, 900.0000
591.6290, 966.0000
592.7970, 888.0000
593.9660, 909.0000
595.1340, 916.0000
596.3020, 930.0000
597.4700, 967.0000
598.6380, 902.0000
599.8060, 933.0000
600.9730, 918.0000
602.1410, 968.0000
603.3080, 956.0000
604.4750, 868.0000
605.6420, 961.0000
606.8090, 909.0000
607.9750, 921.0000
609.1420, 939.0000
610.3080, 973.0000
611.4740, 950.0000
612.6400, 954.0000
613.8060, 914.0000
614.9720, 942.0000
616.1370, 897.0000
617.3020, 916.0000
618.4680, 957.0000
619.6330, 963.0000
620.7970, 927.0000
621.9620, 943.0000
623.1270, 945.0000
624.2910, 968.0000
625.4550, 958.0000
626.6190, 862.0000
627.7830, 971.0000
628.9470, 1035.000
630.1110, 924.0000
631.2740, 963.0000
632.4370, 944.0000
633.6000, 951.0000
634.7630, 961.0000
635.9260, 1033.000
637.0890, 1012.000
638.2510, 1006.000
639.4140, 964.0000
640.5760, 985.0000
641.7380, 947.0000
642.9000, 1037.000
644.0610, 1010.000
645.2230, 981.0000
646.3840, 1041.000
647.5460, 947.0000
648.7070, 963.0000
649.8670, 1033.000
651.0280, 961.0000
652.1890, 1016.000
653.3490, 1051.000
654.5090, 1056.000
655.6700, 1060.000
656.8300, 1067.000
657.9890, 1119.000
659.1490, 1095.000
660.3080, 1133.000
661.4680, 1124.000
662.6270, 1089.000
663.7860, 1146.000
664.9450, 1124.000
666.1030, 1194.000
667.2620, 1114.000
668.4200, 1166.000
669.5790, 1269.000
670.7370, 1220.000
671.8940, 1270.000
673.0520, 1332.000
674.2100, 1362.000
675.3670, 1381.000
676.5240, 1381.000
677.6810, 1429.000
678.8380, 1425.000
679.9950, 1496.022
681.1520, 1551.358
682.3080, 1639.000
683.4650, 1711.000
684.6210, 1786.000
685.7770, 1894.000
686.9320, 1974.280
688.0880, 2094.000
689.2440, 2197.000
690.3990, 2362.000
691.5540, 2553.000
692.7090, 2664.000
693.8640, 2944.000
695.0190, 3053.000
696.1730, 3370.000
697.3280, 3491.000
698.4820, 3862.000
699.6360, 3913.000
700.7900, 4210.000
701.9440, 4470.000
703.0970, 4775.000
704.2510, 4979.000
705.4040, 5089.000
706.5570, 5282.000
707.7100, 5312.000
708.8630, 5326.000
710.0150, 5352.000
711.1680, 5219.000
712.3200, 4947.000
713.4720, 4809.000
714.6240, 4665.000
715.7760, 4241.000
716.9280, 4156.000
718.0790, 3897.000
719.2310, 3776.000
720.3820, 3570.000
721.5330, 3355.000
722.6840, 3279.000
723.8350, 3123.000
724.9850, 2980.000
726.1360, 2959.000
727.2860, 2859.000
728.4360, 2857.000
729.5860, 2790.000
730.7360, 2699.000
731.8850, 2678.000
733.0350, 2651.867
734.1840, 2733.000
735.3330, 2658.000
736.4820, 2714.000
737.6310, 2735.000
738.7800, 2750.000
739.9280, 2740.000
741.0760, 2875.000
742.2250, 2909.000
743.3730, 3033.000
744.5200, 3076.000
745.6680, 3120.000
746.8160, 3334.000
747.9630, 3506.000
749.1100, 3664.000
750.2570, 3692.000
751.4040, 3946.000
752.5510, 4265.000
753.6980, 4416.000
754.8440, 4741.000
755.9900, 4996.000
757.1360, 5551.000
758.2820, 5903.000
759.4280, 6467.000
760.5740, 7129.000
761.7190, 7970.000
762.8640, 8843.000
764.0100, 10060.00
765.1550, 11447.00
766.2990, 13317.00
767.4440, 15482.00
768.5890, 18049.42
769.7330, 20858.00
770.8770, 24304.00
772.0210, 28072.00
773.1650, 32133.00
774.3090, 36077.00
775.4520, 39741.00
776.5960, 42612.00
777.7390, 44223.00
778.8820, 44136.00
780.0250, 43091.00
781.1670, 40095.00
782.3100, 36331.00
783.4520, 32255.00
784.5950, 28398.00
785.7370, 24754.00
786.8790, 21679.00
788.0210, 19046.00
789.1620, 16916.00
790.3040, 15225.00
791.4450, 13698.00
792.5860, 12727.00
793.7270, 11789.00
794.8680, 10867.00
796.0090, 10355.00
797.1490, 9729.000
798.2890, 9321.000
799.4300, 8964.000
800.5700, 8767.000
801.7090, 8621.000
802.8490, 8370.000
803.9890, 8546.000
805.1280, 8557.000
806.2670, 8886.000
807.4060, 9189.000
808.5450, 9788.000
809.6840, 10675.00
810.8230, 11850.00
811.9610, 13377.00
813.0990, 15180.00
814.2370, 17419.00
815.3750, 19536.00
816.5130, 21729.00
817.6510, 23596.00
818.7880, 24648.00
819.9250, 24814.00
821.0630, 23874.00
822.1990, 21690.00
823.3360, 19160.00
824.4730, 16618.00
825.6090, 14803.00
826.7460, 13594.00
827.8820, 12800.00
829.0180, 12347.00
830.1540, 12372.00
831.2890, 12264.00
832.4250, 12913.00
833.5600, 13651.00
834.6960, 14692.00
835.8310, 16306.00
836.9660, 18275.00
838.1000, 21082.00
839.2350, 24681.00
840.3690, 29029.00
841.5030, 34095.00
842.6380, 40359.00
843.7710, 46691.00
844.9050, 52670.00
846.0390, 57660.00
847.1720, 61077.00
848.3060, 60870.00
849.4390, 56003.00
850.5720, 48403.00
851.7040, 39460.00
852.8370, 31006.00
853.9700, 24361.00
855.1020, 19198.00
856.2340, 15720.00
857.3660, 12969.00
858.4980, 11056.00
859.6300, 9522.000
860.7610, 8355.000
861.8920, 7527.000
863.0240, 6845.000
864.1550, 6258.000
865.2850, 5806.000
866.4160, 5378.000
867.5470, 5117.000
868.6770, 4865.000
869.8070, 4588.000
870.9370, 4352.000
872.0670, 4149.000
873.1970, 3971.000
874.3270, 3913.000
875.4560, 3807.000
876.5850, 3615.000
877.7140, 3617.000
878.8430, 3465.000
879.9720, 3549.000
881.1010, 3467.000
882.2290, 3455.000
883.3570, 3401.000
884.4860, 3394.774
885.6140, 3514.000
886.7410, 3432.000
887.8690, 3496.188
888.9960, 3388.000
890.1240, 3543.000
891.2510, 3563.000
892.3780, 3581.000
893.5050, 3617.000
894.6320, 3614.000
895.7580, 3717.000
896.8840, 3499.000
898.0110, 3589.000
899.1370, 3357.000
900.2620, 3281.000
901.3880, 3111.000
902.5140, 2982.000
903.6390, 2720.000
904.7640, 2712.000
905.8890, 2604.000
907.0140, 2402.000
908.1390, 2340.000
909.2640, 2297.000
910.3880, 2196.000
911.5120, 2253.000
912.6360, 2220.000
913.7600, 2217.000
914.8840, 2145.000
916.0080, 2158.000
917.1310, 2189.000
918.2550, 2067.000
919.3780, 2119.000
920.5010, 2061.000
921.6230, 2025.000
922.7460, 2085.000
923.8690, 2020.000
924.9910, 1988.000
926.1130, 1962.000
927.2350, 2003.000
928.3570, 1902.000
929.4790, 2023.000
930.6000, 1806.000
931.7220, 1926.000
932.8430, 1848.000
933.9640, 1819.000
935.0850, 1772.000
936.2050, 1690.000
937.3260, 1763.000
938.4460, 1807.000
939.5660, 1753.000
940.6870, 1757.000
941.8060, 1756.000
942.9260, 1700.000
944.0460, 1719.000
945.1650, 1685.000
946.2840, 1714.000
947.4040, 1619.000
948.5220, 1617.000
949.6410, 1595.000
950.7600, 1584.000
951.8780, 1556.000
952.9970, 1586.000
954.1150, 1562.000
955.2330, 1549.689
956.3500, 1493.000
957.4680, 1518.000
958.5860, 1491.000
959.7030, 1485.000
960.8200, 1491.000
961.9370, 1438.000
963.0540, 1406.000
964.1710, 1478.000
965.2870, 1486.000
966.4030, 1445.000
967.5200, 1455.000
968.6360, 1425.000
969.7510, 1404.000
970.8670, 1418.000
971.9830, 1327.000
973.0980, 1374.000
974.2130, 1312.000
975.3280, 1384.000
976.4430, 1272.000
977.5580, 1301.000
978.6730, 1332.000
979.7870, 1272.000
980.9010, 1241.000
982.0150, 1297.000
983.1290, 1325.000
984.2430, 1314.000
985.3560, 1242.000
986.4700, 1273.000
987.5830, 1280.000
988.6960, 1199.000
989.8090, 1290.000
990.9220, 1311.000
992.0350, 1316.000
993.1470, 1252.000
994.2590, 1241.000
995.3720, 1313.000
996.4830, 1249.000
997.5950, 1335.000
998.7070, 1249.000
999.8180, 1297.000
1000.930, 1246.000
1002.041, 1247.000
1003.152, 1226.000
1004.263, 1316.000
1005.373, 1225.000
1006.484, 1307.000
1007.594, 1237.000
1008.704, 1273.000
1009.815, 1198.000
1010.924, 1247.000
1012.034, 1304.000
1013.144, 1282.000
1014.253, 1273.000
1015.362, 1241.000
1016.471, 1244.000
1017.580, 1305.000
1018.689, 1244.000
1019.797, 1216.000
1020.906, 1340.000
1022.014, 1296.000
1023.122, 1297.000
1024.230, 1290.000
1025.338, 1292.307
1026.445, 1297.000
1027.553, 1324.000
1028.660, 1320.000
1029.767, 1340.000
1030.874, 1279.000
1031.981, 1322.000
1033.088, 1296.000
1034.194, 1287.000
1035.300, 1282.000
1036.406, 1304.000
1037.512, 1356.000
1038.618, 1367.000
1039.724, 1304.000
1040.829, 1295.000
1041.935, 1368.000
1043.040, 1293.000
1044.145, 1354.000
1045.250, 1302.000
1046.354, 1304.000
1047.459, 1287.000
1048.563, 1258.000
1049.667, 1343.000
1050.771, 1300.000
1051.875, 1326.000
1052.979, 1339.000
1054.082, 1316.000
1055.186, 1342.000
1056.289, 1281.000
1057.392, 1312.000
1058.495, 1301.000
1059.598, 1308.000
1060.700, 1258.000
1061.803, 1303.000
1062.905, 1255.000
1064.007, 1311.000
1065.109, 1282.000
1066.210, 1260.000
1067.312, 1311.000
1068.413, 1313.000
1069.515, 1311.293
1070.616, 1252.000
1071.717, 1321.000
1072.817, 1260.000
1073.918, 1290.000
1075.019, 1216.000
1076.119, 1265.000
1077.219, 1149.000
1078.319, 1268.000
1079.419, 1273.000
1080.518, 1150.000
1081.618, 1220.000
1082.717, 1203.000
1083.816, 1209.000
1084.915, 1210.000
1086.014, 1198.844
1087.113, 1206.000
1088.211, 1188.000
1089.309, 1198.000
1090.408, 1203.000
1091.506, 1195.000
1092.603, 1219.000
1093.701, 1184.000
1094.799, 1191.000
1095.896, 1196.000
1096.993, 1148.000
1098.090, 1232.000
1099.187, 1198.000
1100.284, 1270.000
1101.380, 1101.000
1102.477, 1141.000
1103.573, 1115.000
1104.669, 1182.000
1105.765, 1162.000
1106.860, 1191.000
1107.956, 1124.000
1109.051, 1192.000
1110.147, 1155.000
1111.242, 1157.000
1112.336, 1118.000
1113.431, 1168.000
1114.526, 1158.000
1115.620, 1096.000
1116.714, 1140.000
1117.809, 1099.000
1118.902, 1179.000
1119.996, 1163.000
1121.090, 1180.000
1122.183, 1146.000
1123.277, 1096.000
1124.370, 1113.000
1125.463, 1081.941
1126.555, 1140.000
1127.648, 1077.000
1128.740, 1111.000
1129.833, 1141.000
1130.925, 1119.000
1132.017, 1139.000
1133.109, 1153.000
1134.200, 1166.000
1135.292, 1105.000
1136.383, 1098.000
1137.474, 1072.000
1138.565, 1070.785
1139.656, 1080.349
1140.747, 1111.000
1141.837, 1106.000
1142.927, 1166.000
1144.018, 1165.000
1145.108, 1205.000
1146.197, 1074.000
1147.287, 1122.000
1148.377, 1130.000
1149.466, 1166.000
1150.555, 1192.000
1151.644, 1107.000
1152.733, 1113.000
1153.822, 1125.000
1154.910, 1169.000
1155.999, 1166.000
1157.087, 1174.812
1158.175, 1152.000
1159.263, 1149.000
1160.350, 1159.000
1161.438, 1102.000
1162.525, 1127.000
1163.613, 1149.000
1164.700, 1139.000
1165.787, 1221.000
1166.873, 1069.000
1167.960, 1212.000
1169.046, 1115.000
1170.133, 1197.000
1171.219, 1108.000
1172.305, 1149.000
1173.390, 1071.000
1174.476, 1155.000
1175.561, 1113.000
1176.647, 1120.000
1177.732, 1102.000
1178.817, 1120.000
1179.901, 1175.000
1180.986, 1102.000
1182.070, 1063.000
1183.155, 1112.000
1184.239, 1086.000
1185.323, 1147.000
1186.407, 1154.000
1187.490, 1014.000
1188.574, 1118.000
1189.657, 1016.000
1190.740, 1043.000
1191.823, 1111.000
1192.906, 1048.000
1193.988, 1121.000
1195.071, 1064.000
1196.153, 1081.000
1197.235, 1073.000
1198.317, 1093.000
1199.399, 1112.000
1200.481, 1119.000
1201.562, 1111.000
1202.644, 1080.000
1203.725, 1048.000
1204.806, 1052.000
1205.887, 1107.000
1206.967, 1052.000
1208.048, 1081.000
1209.128, 1130.000
1210.208, 1065.000
1211.289, 1130.000
1212.368, 1065.000
1213.448, 1138.000
1214.528, 1103.000
1215.607, 1069.000
1216.686, 1038.000
1217.765, 1081.000
1218.844, 1083.000
1219.923, 1047.000
1221.001, 1084.000
1222.080, 1044.000
1223.158, 1093.000
1224.236, 1108.000
1225.314, 1093.000
1226.392, 1076.000
1227.469, 1053.000
1228.547, 1018.000
1229.624, 1060.000
1230.701, 1104.000
1231.778, 1017.000
1232.855, 1039.000
1233.931, 1021.000
1235.008, 1007.000
1236.084, 1036.000
1237.160, 1022.000
1238.236, 1105.000
1239.312, 1015.000
1240.387, 1077.000
1241.463, 1092.000
1242.538, 1045.000
1243.613, 993.0000
1244.688, 1024.000
1245.763, 996.0000
1246.837, 1009.000
1247.912, 1036.000
1248.986, 1037.000
1250.060, 1050.000
1251.134, 1053.000
1252.208, 1009.000
1253.282, 977.0000
1254.355, 948.0000
1255.428, 969.0000
1256.501, 1002.000
1257.574, 946.0000
1258.647, 981.0000
1259.720, 1048.000
1260.792, 944.0000
1261.865, 1005.000
1262.937, 983.0000
1264.009, 948.0000
1265.081, 875.0000
1266.152, 905.0000
1267.224, 885.0000
1268.295, 947.0000
1269.366, 925.0000
1270.437, 896.0000
1271.508, 863.0000
1272.579, 900.0000
1273.649, 867.0000
1274.720, 920.0000
1275.790, 887.0000
1276.860, 901.0000
1277.930, 868.0000
1278.999, 977.0000
1280.069, 905.0000
1281.138, 883.0000
1282.208, 937.0000
1283.277, 888.0000
1284.345, 904.0000
1285.414, 859.0000
1286.483, 900.0000
1287.551, 890.0000
1288.619, 904.0000
1289.687, 845.0000
1290.755, 853.0000
1291.823, 853.0000
1292.890, 883.0000
1293.958, 898.0000
1295.025, 904.1878
1296.092, 923.2904
1297.159, 928.0000
1298.226, 909.0000
1299.292, 937.0000
1300.359, 852.0000
1301.425, 893.0000
1302.491, 808.0000
1303.557, 824.0000
1304.623, 822.3809
1305.688, 778.0000
1306.754, 833.0000
1307.819, 854.0000
1308.884, 865.0000
1309.949, 810.0000
1311.014, 863.0000
1312.078, 803.0000
1313.143, 836.0000
1314.207, 875.0000
1315.271, 809.0000
1316.335, 834.0000
1317.399, 797.0000
1318.462, 776.0000
1319.526, 831.0000
1320.589, 842.0000
1321.652, 891.0000
1322.715, 788.0000
1323.778, 853.0000
1324.841, 882.0000
1325.903, 831.0000
1326.965, 873.0000
1328.027, 828.0000
1329.089, 820.0000
1330.151, 821.0000
1331.213, 825.0000
1332.274, 815.0000
1333.336, 784.0000
1334.397, 820.0000
1335.458, 815.0000
1336.518, 871.0000
1337.579, 888.0000
1338.640, 860.0000
1339.700, 835.0000
1340.760, 820.0000
1341.820, 834.0000
1342.880, 839.0000
1343.939, 829.0000
1344.999, 848.0000
1346.058, 838.0000
1347.117, 855.0000
1348.176, 858.0000
1349.235, 884.0000
1350.294, 819.0000
1351.352, 826.0000
1352.411, 794.0000
1353.469, 787.0000
1354.527, 866.0000
1355.585, 836.0000
1356.642, 810.0000
1357.700, 798.0000
1358.757, 771.0000
1359.815, 931.0000
1360.872, 782.0000
1361.928, 891.0000
1362.985, 797.0000
1364.042, 892.0000
1365.098, 855.0000
1366.154, 834.0000
1367.210, 870.0000
1368.266, 892.0000
1369.322, 879.1856
1370.377, 870.0000
1371.433, 842.0000
1372.488, 885.0000
1373.543, 813.0000
1374.598, 875.0000
1375.652, 859.0000
1376.707, 861.0000
1377.761, 907.0000
1378.816, 933.0000
1379.870, 922.0000
1380.924, 896.0000
1381.977, 882.0000
1383.031, 891.0000
1384.084, 885.0000
1385.137, 893.0000
1386.190, 876.0000
1387.243, 936.0000
1388.296, 914.0000
1389.349, 906.0000
1390.401, 878.0000
1391.453, 908.0000
1392.505, 933.0000
1393.557, 909.0000
1394.609, 925.0000
1395.661, 934.0000
1396.712, 922.0000
1397.763, 934.0000
1398.814, 949.0000
1399.865, 871.0000
1400.916, 829.0000
1401.967, 833.0000
1403.017, 878.0000
1404.067, 874.0000
1405.117, 861.0000
1406.167, 891.0000
1407.217, 889.0000
1408.267, 891.0000
1409.316, 912.0000
1410.365, 888.0000
1411.414, 879.0000
1412.463, 847.0000
1413.512, 914.0000
1414.561, 878.0000
1415.609, 948.0000
1416.657, 907.0000
1417.706, 890.0000
1418.754, 787.0000
1419.801, 841.0000
1420.849, 853.0000
1421.896, 917.0000
1422.944, 935.0000
1423.991, 898.0000
1425.038, 857.0000
1426.085, 881.0000
1427.131, 845.0000
1428.178, 866.0000
1429.224, 902.0000
1430.270, 863.0000
1431.316, 859.0000
1432.362, 865.0000
1433.407, 895.0000
1434.453, 872.0000
1435.498, 873.0000
1436.543, 868.0000
1437.588, 838.0000
1438.633, 916.0000
1439.678, 908.0000
1440.722, 864.0000
1441.767, 862.0000
1442.811, 837.0000
1443.855, 853.0000
1444.898, 871.0000
1445.942, 839.0000
1446.986, 919.0000
1448.029, 904.0000
1449.072, 876.0000
1450.115, 880.0000
1451.158, 862.0000
1452.201, 896.0000
1453.243, 898.0000
1454.285, 893.0000
1455.327, 938.0000
1456.369, 894.0000
1457.411, 871.0000
1458.453, 896.0000
1459.494, 819.0000
1460.536, 921.0000
1461.577, 842.0000
1462.618, 862.0000
1463.659, 922.0000
1464.700, 887.0000
1465.740, 881.0000
1466.780, 984.0000
1467.821, 870.0000
1468.861, 936.0000
1469.900, 939.0000
1470.940, 905.0000
1471.980, 913.0000
1473.019, 948.0000
1474.058, 924.0000
1475.097, 963.0000
1476.136, 915.0000
1477.175, 965.0000
1478.213, 953.0000
1479.252, 1022.000
1480.290, 1019.000
1481.328, 951.0000
1482.366, 916.0000
1483.403, 939.0000
1484.441, 942.0000
1485.478, 1019.000
1486.515, 976.0000
1487.552, 998.0000
1488.589, 988.0000
1489.626, 963.0000
1490.663, 986.0000
1491.699, 980.0000
1492.735, 983.0000
1493.771, 978.0000
1494.807, 1029.000
1495.843, 981.0000
1496.878, 1072.000
1497.914, 1095.000
1498.949, 1078.000
1499.984, 1029.000
1501.019, 1016.000
1502.054, 1041.000
1503.088, 1108.000
1504.122, 1073.000
1505.157, 1016.000
1506.191, 1057.000
1507.225, 1145.000
1508.258, 1120.000
1509.292, 1176.000
1510.325, 1112.000
1511.359, 1160.000
1512.392, 1222.000
1513.424, 1152.000
1514.457, 1178.000
1515.490, 1138.000
1516.522, 1147.000
1517.554, 1208.000
1518.586, 1201.000
1519.618, 1207.000
1520.650, 1191.000
1521.682, 1256.000
1522.713, 1237.000
1523.744, 1261.000
1524.775, 1233.000
1525.806, 1224.000
1526.837, 1259.000
1527.868, 1200.000
1528.898, 1310.000
1529.928, 1266.000
1530.958, 1214.000
1531.988, 1310.000
1533.018, 1314.000
1534.048, 1252.000
1535.077, 1281.000
1536.106, 1344.000
1537.135, 1369.000
1538.164, 1260.000
1539.193, 1290.000
1540.222, 1259.000
1541.250, 1302.000
1542.278, 1275.000
1543.306, 1268.000
1544.334, 1357.000
1545.362, 1315.000
1546.390, 1321.000
1547.417, 1389.000
1548.444, 1299.000
1549.471, 1371.000
1550.498, 1432.000
1551.525, 1392.000
1552.552, 1438.000
1553.578, 1377.000
1554.604, 1388.000
1555.630, 1311.000
1556.656, 1412.000
1557.682, 1439.000
1558.708, 1370.000
1559.733, 1356.000
1560.758, 1332.000
1561.784, 1348.000
1562.808, 1335.000
1563.833, 1382.000
1564.858, 1427.000
1565.882, 1350.000
1566.907, 1323.000
1567.931, 1350.000
1568.955, 1397.000
1569.978, 1368.000
1571.002, 1399.000
1572.025, 1382.000
1573.049, 1404.000
1574.072, 1371.000
1575.095, 1398.000
1576.118, 1306.000
1577.140, 1353.000
1578.163, 1433.000
1579.185, 1268.000
##END=



