##NAMES=Descloizite
##RRUFFID=R050037
##IDEAL CHEMISTRY=Pb^2+^Zn^2+^V^5+^O_4_(OH)
##LOCALITY=Berg Aukas mine, Namibia
##OWNER=RRUFF
##SOURCE=Eugene Schlepp
##DESCRIPTION=Group of brown thin tabular single crystals
##STATUS=The identification of this mineral has been confirmed by X-ray diffraction and chemical analysis
##URL=rruff.info/R050037
##MEASURED CHEMISTRY=Pb_1.00_(Zn_0.98_Cu_0.02_)_Σ=1_((V_0.98_As_0.02_)_Σ=1_O_4_)(OH) ; OH estimated by difference and stoichiometry
##PIN_ID=m00197
##ORIENTATION=Laser parallel to c* (0 0 1). Fiducial mark perpendicular to laser is parallel to -a [-1 0 0]
64.81000, 96.00000
66.04600, 111.0000
67.28200, 115.0000
68.51800, 145.0000
69.75400, 168.0000
70.98900, 132.0000
72.22500, 82.00000
73.46000, 149.0000
74.69500, 100.0000
75.93000, 115.0000
77.16500, 119.0000
78.40000, 185.0000
79.63400, 145.0000
80.86900, 172.0000
82.10300, 169.0000
83.33700, 205.0000
84.57100, 235.0000
85.80500, 228.0000
87.03800, 267.0000
88.27200, 327.0000
89.50500, 365.0000
90.73800, 457.0000
91.97100, 562.0000
93.20400, 732.0000
94.43700, 840.0000
95.67000, 1059.000
96.90200, 1329.000
98.13400, 1701.000
99.36600, 2138.000
100.5980, 2811.000
101.8300, 3375.000
103.0620, 4312.000
104.2930, 5193.000
105.5250, 6396.000
106.7560, 7303.000
107.9870, 8348.000
109.2180, 8982.000
110.4490, 9265.000
111.6790, 8874.000
112.9100, 8295.000
114.1400, 7188.000
115.3700, 6201.000
116.6000, 5473.000
117.8300, 5206.000
119.0600, 4827.000
120.2900, 4886.000
121.5190, 4825.000
122.7480, 5250.000
123.9770, 5088.000
125.2060, 5125.000
126.4350, 5105.000
127.6640, 5294.836
128.8920, 5511.000
130.1210, 5901.000
131.3490, 6375.000
132.5770, 6905.000
133.8050, 7629.000
135.0330, 8273.000
136.2600, 8888.000
137.4880, 9480.000
138.7150, 9998.000
139.9420, 10570.00
141.1690, 10824.00
142.3960, 10912.00
143.6230, 10773.00
144.8490, 10488.00
146.0760, 10063.00
147.3020, 9638.000
148.5280, 9016.000
149.7540, 8316.000
150.9800, 7555.000
152.2050, 7041.000
153.4310, 6451.000
154.6560, 5870.000
155.8810, 5382.000
157.1060, 4872.000
158.3310, 4478.000
159.5560, 4163.091
160.7800, 3927.000
162.0050, 3698.000
163.2290, 3550.000
164.4530, 3421.000
165.6770, 3214.000
166.9010, 3195.000
168.1250, 3063.000
169.3480, 2873.000
170.5720, 2818.000
171.7950, 2672.000
173.0180, 2743.000
174.2410, 2657.000
175.4640, 2477.000
176.6860, 2583.000
177.9090, 2448.000
179.1310, 2446.000
180.3530, 2412.000
181.5750, 2555.000
182.7970, 2503.000
184.0190, 2724.000
185.2400, 2775.000
186.4620, 2875.000
187.6830, 3061.000
188.9040, 3054.000
190.1250, 3286.000
191.3460, 3261.000
192.5660, 3222.000
193.7870, 3186.000
195.0070, 2967.000
196.2270, 2790.000
197.4470, 2618.000
198.6670, 2478.000
199.8870, 2376.000
201.1060, 2224.000
202.3260, 2134.000
203.5450, 2144.000
204.7640, 2059.000
205.9830, 2020.000
207.2020, 2063.000
208.4200, 1920.000
209.6390, 1868.000
210.8570, 1766.000
212.0750, 1773.000
213.2940, 1811.000
214.5110, 1716.000
215.7290, 1738.000
216.9470, 1680.000
218.1640, 1684.000
219.3810, 1726.000
220.5990, 1747.000
221.8150, 1739.833
223.0320, 1736.445
224.2490, 1704.000
225.4650, 1675.000
226.6820, 1615.000
227.8980, 1552.000
229.1140, 1560.993
230.3300, 1559.569
231.5460, 1586.000
232.7610, 1638.000
233.9770, 1681.000
235.1920, 1752.000
236.4070, 1707.000
237.6220, 1660.000
238.8370, 1641.000
240.0520, 1726.000
241.2660, 1684.000
242.4810, 1734.000
243.6950, 1791.000
244.9090, 1736.000
246.1230, 1721.000
247.3370, 1756.000
248.5500, 1755.000
249.7640, 1697.000
250.9770, 1685.000
252.1900, 1720.000
253.4030, 1700.000
254.6160, 1727.000
255.8290, 1748.000
257.0410, 1780.000
258.2530, 1866.000
259.4660, 1846.000
260.6780, 1898.000
261.8900, 1832.000
263.1010, 1897.000
264.3130, 1916.000
265.5250, 1963.000
266.7360, 1952.000
267.9470, 2067.000
269.1580, 2057.000
270.3690, 2166.000
271.5800, 2247.000
272.7900, 2273.000
274.0010, 2351.000
275.2110, 2445.000
276.4210, 2571.000
277.6310, 2612.000
278.8410, 2675.000
280.0500, 2852.000
281.2600, 3094.000
282.4690, 3319.000
283.6780, 3492.000
284.8870, 3735.000
286.0960, 4181.000
287.3050, 4475.000
288.5130, 4945.000
289.7220, 5366.000
290.9300, 6096.000
292.1380, 6839.000
293.3460, 7604.000
294.5540, 8504.000
295.7610, 9544.000
296.9690, 10467.00
298.1760, 11274.00
299.3830, 12456.00
300.5900, 13102.00
301.7970, 13441.00
303.0040, 13687.00
304.2100, 13073.00
305.4170, 12376.00
306.6230, 11645.00
307.8290, 10483.00
309.0350, 9547.000
310.2410, 8539.000
311.4460, 7778.000
312.6520, 7169.000
313.8570, 6649.000
315.0620, 6235.120
316.2670, 5831.000
317.4720, 5733.000
318.6770, 5683.000
319.8810, 5687.000
321.0860, 5713.000
322.2900, 6007.000
323.4940, 6142.000
324.6980, 6299.000
325.9020, 6683.000
327.1050, 6980.000
328.3090, 7448.000
329.5120, 7902.000
330.7150, 8523.000
331.9180, 9070.000
333.1210, 9803.000
334.3240, 10537.00
335.5260, 11344.00
336.7290, 12041.00
337.9310, 12479.00
339.1330, 12856.00
340.3350, 12997.95
341.5370, 13074.00
342.7380, 12814.00
343.9400, 12430.00
345.1410, 11931.00
346.3420, 10967.00
347.5430, 10307.00
348.7440, 9516.000
349.9450, 9090.000
351.1450, 8419.000
352.3460, 8054.000
353.5460, 7849.000
354.7460, 7715.000
355.9460, 7794.000
357.1460, 7761.000
358.3450, 8111.000
359.5450, 8031.984
360.7440, 7921.057
361.9430, 7862.000
363.1420, 7452.000
364.3410, 6883.000
365.5400, 6471.000
366.7380, 5804.000
367.9370, 5242.000
369.1350, 5174.000
370.3330, 4944.000
371.5310, 4824.000
372.7280, 4902.000
373.9260, 5114.000
375.1230, 5368.000
376.3210, 5764.000
377.5180, 6385.000
378.7150, 7045.000
379.9120, 7925.000
381.1080, 8773.000
382.3050, 9838.000
383.5010, 10860.00
384.6970, 11891.00
385.8930, 12513.00
387.0890, 12835.00
388.2850, 12712.00
389.4810, 11824.00
390.6760, 10678.00
391.8710, 9398.000
393.0660, 8104.000
394.2610, 6926.000
395.4560, 5763.000
396.6510, 4928.000
397.8450, 4194.000
399.0400, 3633.000
400.2340, 3241.000
401.4280, 2819.000
402.6220, 2500.000
403.8150, 2365.000
405.0090, 2219.000
406.2020, 2012.000
407.3960, 1886.000
408.5890, 1844.000
409.7820, 1716.000
410.9740, 1659.000
412.1670, 1592.000
413.3600, 1570.710
414.5520, 1520.377
415.7440, 1588.000
416.9360, 1473.000
418.1280, 1495.000
419.3200, 1523.000
420.5110, 1452.000
421.7020, 1526.000
422.8940, 1591.000
424.0850, 1665.000
425.2760, 1660.000
426.4660, 1719.000
427.6570, 1814.000
428.8470, 1813.000
430.0380, 2021.000
431.2280, 2088.000
432.4180, 2189.000
433.6080, 2282.000
434.7970, 2393.000
435.9870, 2349.000
437.1760, 2333.000
438.3650, 2192.000
439.5540, 2158.000
440.7430, 1928.000
441.9320, 1894.000
443.1210, 1782.000
444.3090, 1565.000
445.4970, 1513.000
446.6850, 1440.000
447.8730, 1325.000
449.0610, 1326.000
450.2490, 1286.000
451.4360, 1289.000
452.6240, 1239.000
453.8110, 1227.000
454.9980, 1196.000
456.1850, 1213.000
457.3710, 1109.000
458.5580, 1140.000
459.7440, 1135.000
460.9310, 1071.000
462.1170, 1110.000
463.3030, 1131.000
464.4880, 1090.000
465.6740, 1096.000
466.8590, 1118.000
468.0450, 1056.000
469.2300, 1068.000
470.4150, 1091.000
471.6000, 1026.000
472.7840, 1003.000
473.9690, 1024.000
475.1530, 1045.000
476.3370, 996.0000
477.5210, 1011.000
478.7050, 1015.000
479.8890, 933.0000
481.0730, 1007.000
482.2560, 901.0000
483.4390, 954.0000
484.6220, 953.0000
485.8050, 978.0000
486.9880, 966.0000
488.1710, 899.0000
489.3530, 877.0000
490.5360, 867.0000
491.7180, 912.0000
492.9000, 889.0000
494.0820, 929.0000
495.2630, 926.9919
496.4450, 845.0000
497.6260, 910.0000
498.8080, 869.0000
499.9890, 815.0000
501.1700, 815.0000
502.3500, 874.0000
503.5310, 886.0000
504.7110, 856.0000
505.8920, 891.0000
507.0720, 855.0000
508.2520, 857.0000
509.4320, 887.0000
510.6110, 823.0000
511.7910, 830.0000
512.9700, 877.0000
514.1490, 826.0000
515.3280, 821.0000
516.5070, 831.0000
517.6860, 885.0000
518.8650, 883.0000
520.0430, 833.0000
521.2210, 842.0000
522.3990, 797.0000
523.5770, 827.0000
524.7550, 884.0000
525.9330, 822.0000
527.1100, 840.0000
528.2870, 807.0000
529.4650, 819.3033
530.6420, 803.0000
531.8180, 858.0000
532.9950, 851.0000
534.1720, 868.0000
535.3480, 855.0000
536.5240, 859.0000
537.7000, 815.0000
538.8760, 849.0000
540.0520, 796.0000
541.2270, 819.0000
542.4030, 808.0000
543.5780, 845.0000
544.7530, 835.7598
545.9280, 816.0000
547.1030, 824.0000
548.2780, 833.0000
549.4520, 814.0000
550.6260, 781.0000
551.8010, 823.0000
552.9750, 818.0000
554.1480, 869.0000
555.3220, 838.0000
556.4960, 834.0000
557.6690, 830.0000
558.8420, 843.0000
560.0150, 832.0000
561.1880, 847.0000
562.3610, 892.0000
563.5340, 856.0000
564.7060, 834.0000
565.8780, 875.0000
567.0500, 856.0000
568.2220, 855.0000
569.3940, 873.0000
570.5660, 833.0000
571.7370, 789.0000
572.9090, 836.0000
574.0800, 826.0000
575.2510, 837.0000
576.4220, 913.0000
577.5920, 842.0000
578.7630, 911.0000
579.9330, 830.0000
581.1040, 852.0000
582.2740, 919.0000
583.4440, 812.0000
584.6130, 849.0000
585.7830, 792.0000
586.9520, 886.0000
588.1220, 839.0000
589.2910, 824.0000
590.4600, 801.0000
591.6290, 851.0000
592.7970, 827.0000
593.9660, 858.0000
595.1340, 863.0000
596.3020, 845.0000
597.4700, 845.0000
598.6380, 810.0000
599.8060, 855.0000
600.9730, 869.0000
602.1410, 894.0000
603.3080, 865.0000
604.4750, 820.0000
605.6420, 838.0000
606.8090, 812.0000
607.9750, 837.0000
609.1420, 774.0000
610.3080, 964.0000
611.4740, 919.0000
612.6400, 882.0000
613.8060, 790.0000
614.9720, 852.0000
616.1370, 832.0000
617.3020, 873.0000
618.4680, 868.0000
619.6330, 871.0000
620.7970, 901.0000
621.9620, 891.0000
623.1270, 878.0000
624.2910, 881.0000
625.4550, 867.0000
626.6190, 810.0000
627.7830, 903.0000
628.9470, 959.0000
630.1110, 815.0000
631.2740, 866.0000
632.4370, 874.0000
633.6000, 902.0000
634.7630, 948.0000
635.9260, 926.0000
637.0890, 956.0000
638.2510, 994.0000
639.4140, 921.0000
640.5760, 945.0000
641.7380, 931.0000
642.9000, 922.0000
644.0610, 944.0000
645.2230, 938.0000
646.3840, 933.9289
647.5460, 937.0000
648.7070, 928.0000
649.8670, 944.0000
651.0280, 962.0000
652.1890, 965.0000
653.3490, 958.0000
654.5090, 1050.000
655.6700, 989.0000
656.8300, 1059.000
657.9890, 1028.000
659.1490, 1061.000
660.3080, 1038.000
661.4680, 1066.000
662.6270, 1021.000
663.7860, 1050.000
664.9450, 1053.000
666.1030, 1152.000
667.2620, 1112.000
668.4200, 1118.000
669.5790, 1184.000
670.7370, 1166.000
671.8940, 1256.000
673.0520, 1157.000
674.2100, 1249.000
675.3670, 1281.000
676.5240, 1337.000
677.6810, 1367.000
678.8380, 1405.000
679.9950, 1494.000
681.1520, 1533.000
682.3080, 1580.000
683.4650, 1725.000
684.6210, 1702.000
685.7770, 1856.000
686.9320, 2027.000
688.0880, 2086.000
689.2440, 2291.000
690.3990, 2430.000
691.5540, 2649.000
692.7090, 2807.000
693.8640, 2966.000
695.0190, 3144.000
696.1730, 3293.000
697.3280, 3392.000
698.4820, 3641.000
699.6360, 3710.000
700.7900, 3828.000
701.9440, 3998.000
703.0970, 4047.000
704.2510, 4044.000
705.4040, 4039.000
706.5570, 4094.000
707.7100, 4048.000
708.8630, 3988.000
710.0150, 3942.000
711.1680, 3779.000
712.3200, 3669.000
713.4720, 3480.000
714.6240, 3289.000
715.7760, 3052.000
716.9280, 2959.000
718.0790, 2789.000
719.2310, 2674.000
720.3820, 2521.000
721.5330, 2464.000
722.6840, 2423.000
723.8350, 2289.000
724.9850, 2259.000
726.1360, 2198.000
727.2860, 2149.000
728.4360, 2141.000
729.5860, 2077.000
730.7360, 2053.000
731.8850, 2056.000
733.0350, 2024.195
734.1840, 2041.000
735.3330, 2023.000
736.4820, 2080.000
737.6310, 2123.000
738.7800, 2181.000
739.9280, 2255.000
741.0760, 2263.000
742.2250, 2269.000
743.3730, 2382.000
744.5200, 2478.000
745.6680, 2495.000
746.8160, 2649.000
747.9630, 2791.000
749.1100, 2932.000
750.2570, 3035.000
751.4040, 3146.000
752.5510, 3314.000
753.6980, 3543.000
754.8440, 3798.000
755.9900, 4080.000
757.1360, 4463.000
758.2820, 4878.000
759.4280, 5294.000
760.5740, 5816.000
761.7190, 6334.000
762.8640, 7252.000
764.0100, 8212.000
765.1550, 9302.000
766.2990, 10898.00
767.4440, 12646.00
768.5890, 14642.00
769.7330, 17255.00
770.8770, 20092.00
772.0210, 23413.00
773.1650, 26986.00
774.3090, 30754.00
775.4520, 33964.00
776.5960, 36778.00
777.7390, 38211.00
778.8820, 38406.00
780.0250, 37218.00
781.1670, 34606.00
782.3100, 31075.00
783.4520, 27520.00
784.5950, 24164.00
785.7370, 21093.00
786.8790, 18212.00
788.0210, 16218.00
789.1620, 14230.00
790.3040, 12908.00
791.4450, 11713.00
792.5860, 10798.00
793.7270, 10003.00
794.8680, 9357.000
796.0090, 8933.000
797.1490, 8496.000
798.2890, 8105.000
799.4300, 7893.000
800.5700, 7586.000
801.7090, 7340.000
802.8490, 7442.000
803.9890, 7252.000
805.1280, 7372.000
806.2670, 7400.000
807.4060, 7616.000
808.5450, 7881.000
809.6840, 8310.000
810.8230, 8946.000
811.9610, 9791.000
813.0990, 10690.00
814.2370, 11766.00
815.3750, 13057.00
816.5130, 14311.00
817.6510, 15505.00
818.7880, 16383.00
819.9250, 16722.00
821.0630, 16345.00
822.1990, 15710.00
823.3360, 14709.00
824.4730, 13907.00
825.6090, 13379.00
826.7460, 13093.00
827.8820, 13135.00
829.0180, 13266.00
830.1540, 13904.00
831.2890, 14509.00
832.4250, 15641.00
833.5600, 17164.00
834.6960, 18899.00
835.8310, 21900.00
836.9660, 25523.00
838.1000, 30393.00
839.2350, 36637.00
840.3690, 45033.00
841.5030, 55178.00
842.6380, 67888.00
843.7710, 81971.00
844.9050, 97797.00
846.0390, 111953.0
847.1720, 122551.0
848.3060, 125526.0
849.4390, 117785.0
850.5720, 102278.0
851.7040, 82588.00
852.8370, 63188.00
853.9700, 48324.00
855.1020, 36811.00
856.2340, 28679.00
857.3660, 22882.00
858.4980, 18766.00
859.6300, 15680.00
860.7610, 13482.00
861.8920, 11823.00
863.0240, 10364.00
864.1550, 9261.000
865.2850, 8348.000
866.4160, 7749.000
867.5470, 6943.000
868.6770, 6541.000
869.8070, 6155.000
870.9370, 5729.000
872.0670, 5384.000
873.1970, 5059.000
874.3270, 4905.000
875.4560, 4819.000
876.5850, 4391.000
877.7140, 4348.273
878.8430, 4150.937
879.9720, 4066.000
881.1010, 3879.000
882.2290, 3734.000
883.3570, 3613.000
884.4860, 3576.000
885.6140, 3495.000
886.7410, 3470.000
887.8690, 3242.000
888.9960, 3256.000
890.1240, 3312.000
891.2510, 3236.000
892.3780, 3335.000
893.5050, 3322.000
894.6320, 3305.000
895.7580, 3377.000
896.8840, 3270.000
898.0110, 3211.000
899.1370, 3159.000
900.2620, 3070.000
901.3880, 2980.000
902.5140, 2852.000
903.6390, 2802.000
904.7640, 2678.000
905.8890, 2585.000
907.0140, 2511.000
908.1390, 2401.624
909.2640, 2362.000
910.3880, 2233.000
911.5120, 2180.000
912.6360, 2141.000
913.7600, 2100.000
914.8840, 2056.508
916.0080, 2025.000
917.1310, 1977.000
918.2550, 1891.000
919.3780, 1849.000
920.5010, 1840.000
921.6230, 1797.000
922.7460, 1805.000
923.8690, 1753.000
924.9910, 1821.000
926.1130, 1684.000
927.2350, 1777.000
928.3570, 1673.000
929.4790, 1766.000
930.6000, 1650.000
931.7220, 1665.000
932.8430, 1656.000
933.9640, 1565.000
935.0850, 1579.000
936.2050, 1505.000
937.3260, 1554.000
938.4460, 1518.000
939.5660, 1459.000
940.6870, 1496.000
941.8060, 1521.000
942.9260, 1492.000
944.0460, 1472.000
945.1650, 1433.000
946.2840, 1407.958
947.4040, 1375.000
948.5220, 1347.000
949.6410, 1362.000
950.7600, 1332.000
951.8780, 1296.000
952.9970, 1319.000
954.1150, 1376.000
955.2330, 1346.000
956.3500, 1287.000
957.4680, 1246.000
958.5860, 1299.000
959.7030, 1242.000
960.8200, 1284.000
961.9370, 1236.000
963.0540, 1295.000
964.1710, 1214.000
965.2870, 1264.000
966.4030, 1177.000
967.5200, 1211.000
968.6360, 1181.000
969.7510, 1227.000
970.8670, 1170.000
971.9830, 1196.000
973.0980, 1164.000
974.2130, 1150.135
975.3280, 1200.000
976.4430, 1142.000
977.5580, 1142.000
978.6730, 1176.000
979.7870, 1165.000
980.9010, 1105.000
982.0150, 1141.000
983.1290, 1149.000
984.2430, 1124.000
985.3560, 1152.000
986.4700, 1120.000
987.5830, 1165.000
988.6960, 1146.868
989.8090, 1123.000
990.9220, 1125.000
992.0350, 1129.000
993.1470, 1106.000
994.2590, 1082.000
995.3720, 1067.000
996.4830, 1174.000
997.5950, 1161.000
998.7070, 1094.000
999.8180, 1146.000
1000.930, 1074.000
1002.041, 1055.000
1003.152, 1051.000
1004.263, 1061.000
1005.373, 1092.000
1006.484, 1099.000
1007.594, 1060.000
1008.704, 1135.000
1009.815, 1070.000
1010.924, 1120.000
1012.034, 1072.000
1013.144, 1067.000
1014.253, 1078.000
1015.362, 1050.000
1016.471, 1093.000
1017.580, 1158.000
1018.689, 1029.000
1019.797, 1044.000
1020.906, 1140.000
1022.014, 1050.000
1023.122, 1110.000
1024.230, 1115.000
1025.338, 1042.000
1026.445, 1101.000
1027.553, 1177.000
1028.660, 1155.000
1029.767, 1140.000
1030.874, 1080.000
1031.981, 1138.000
1033.088, 1184.000
1034.194, 1174.000
1035.300, 1118.000
1036.406, 1111.000
1037.512, 1130.000
1038.618, 1114.000
1039.724, 1086.000
1040.829, 1125.000
1041.935, 1151.000
1043.040, 1053.000
1044.145, 1171.000
1045.250, 1087.000
1046.354, 1118.000
1047.459, 1071.000
1048.563, 1082.000
1049.667, 1109.000
1050.771, 1088.000
1051.875, 1134.000
1052.979, 1115.000
1054.082, 1092.000
1055.186, 1132.000
1056.289, 1085.000
1057.392, 1141.000
1058.495, 1133.000
1059.598, 1089.000
1060.700, 1090.000
1061.803, 1067.000
1062.905, 1129.000
1064.007, 1129.000
1065.109, 1039.000
1066.210, 1133.000
1067.312, 1081.000
1068.413, 1091.000
1069.515, 1091.000
1070.616, 1064.000
1071.717, 1107.000
1072.817, 1120.000
1073.918, 1083.000
1075.019, 1053.000
1076.119, 1070.000
1077.219, 1001.000
1078.319, 1018.304
1079.419, 1029.444
1080.518, 1024.000
1081.618, 1073.000
1082.717, 1087.000
1083.816, 1096.000
1084.915, 1064.000
1086.014, 1016.000
1087.113, 1023.539
1088.211, 1059.000
1089.309, 1024.000
1090.408, 1048.000
1091.506, 1082.000
1092.603, 1036.000
1093.701, 1073.000
1094.799, 1120.000
1095.896, 1045.000
1096.993, 1034.000
1098.090, 1099.000
1099.187, 1085.000
1100.284, 1109.000
1101.380, 1006.000
1102.477, 1070.000
1103.573, 1031.000
1104.669, 1040.000
1105.765, 1013.000
1106.860, 1099.000
1107.956, 1016.000
1109.051, 1064.000
1110.147, 1058.000
1111.242, 1048.000
1112.336, 985.0000
1113.431, 1066.000
1114.526, 994.0000
1115.620, 966.0000
1116.714, 993.0000
1117.809, 960.0000
1118.902, 1065.000
1119.996, 1019.000
1121.090, 1041.000
1122.183, 1003.000
1123.277, 1018.000
1124.370, 1011.000
1125.463, 1024.000
1126.555, 1021.000
1127.648, 982.0000
1128.740, 1039.000
1129.833, 994.0000
1130.925, 940.0000
1132.017, 991.0000
1133.109, 1018.000
1134.200, 1058.000
1135.292, 988.0000
1136.383, 1015.000
1137.474, 988.0000
1138.565, 1009.000
1139.656, 1054.000
1140.747, 982.0000
1141.837, 1034.000
1142.927, 1029.000
1144.018, 1095.000
1145.108, 1061.000
1146.197, 999.0000
1147.287, 989.0000
1148.377, 1014.000
1149.466, 1042.000
1150.555, 1021.000
1151.644, 1020.000
1152.733, 1003.000
1153.822, 1002.157
1154.910, 1029.000
1155.999, 996.0000
1157.087, 1007.000
1158.175, 992.0000
1159.263, 995.0000
1160.350, 1044.000
1161.438, 956.0000
1162.525, 1004.000
1163.613, 1009.000
1164.700, 920.0000
1165.787, 1064.000
1166.873, 958.0000
1167.960, 1003.000
1169.046, 1012.000
1170.133, 1036.000
1171.219, 989.0000
1172.305, 1012.000
1173.390, 926.0000
1174.476, 967.0000
1175.561, 978.0000
1176.647, 1006.000
1177.732, 948.0000
1178.817, 1046.000
1179.901, 1001.000
1180.986, 939.0000
1182.070, 966.0000
1183.155, 983.0000
1184.239, 935.0000
1185.323, 990.0000
1186.407, 997.0000
1187.490, 931.0000
1188.574, 967.0000
1189.657, 952.0000
1190.740, 938.0000
1191.823, 941.0000
1192.906, 920.0000
1193.988, 961.0000
1195.071, 929.0000
1196.153, 930.0000
1197.235, 911.0000
1198.317, 967.0000
1199.399, 981.0000
1200.481, 1006.000
1201.562, 969.0000
1202.644, 956.0000
1203.725, 966.9021
1204.806, 951.0000
1205.887, 968.0000
1206.967, 941.0000
1208.048, 919.0000
1209.128, 922.0000
1210.208, 939.0000
1211.289, 971.0000
1212.368, 958.0000
1213.448, 993.0000
1214.528, 981.0912
1215.607, 969.6885
1216.686, 964.0000
1217.765, 938.0000
1218.844, 930.0000
1219.923, 927.0000
1221.001, 915.0000
1222.080, 960.0000
1223.158, 909.0000
1224.236, 938.0000
1225.314, 912.0000
1226.392, 881.0000
1227.469, 941.0000
1228.547, 926.0000
1229.624, 915.0000
1230.701, 930.0000
1231.778, 864.0000
1232.855, 881.0000
1233.931, 873.0000
1235.008, 852.0000
1236.084, 859.0000
1237.160, 899.0000
1238.236, 924.0000
1239.312, 903.0000
1240.387, 869.0000
1241.463, 910.0000
1242.538, 931.0000
1243.613, 882.0000
1244.688, 889.0000
1245.763, 851.0000
1246.837, 874.0000
1247.912, 888.0000
1248.986, 907.0000
1250.060, 910.0000
1251.134, 887.0000
1252.208, 895.0000
1253.282, 830.0000
1254.355, 868.0000
1255.428, 822.0000
1256.501, 870.0000
1257.574, 842.0000
1258.647, 828.0000
1259.720, 897.0000
1260.792, 897.0000
1261.865, 830.0000
1262.937, 884.0000
1264.009, 826.0000
1265.081, 794.0000
1266.152, 844.0000
1267.224, 821.0000
1268.295, 854.0000
1269.366, 793.0000
1270.437, 857.0000
1271.508, 818.0000
1272.579, 781.0000
1273.649, 788.0000
1274.720, 822.0000
1275.790, 778.0000
1276.860, 894.0000
1277.930, 787.0000
1278.999, 810.0000
1280.069, 834.0000
1281.138, 794.0000
1282.208, 829.0000
1283.277, 794.0000
1284.345, 802.0000
1285.414, 856.0000
1286.483, 790.0000
1287.551, 776.0000
1288.619, 822.0000
1289.687, 762.0000
1290.755, 748.0000
1291.823, 811.0000
1292.890, 794.0000
1293.958, 792.0000
1295.025, 748.0000
1296.092, 705.0000
1297.159, 824.0000
1298.226, 807.0000
1299.292, 861.0000
1300.359, 769.0000
1301.425, 773.0000
1302.491, 801.0000
1303.557, 706.0000
1304.623, 818.0000
1305.688, 744.0000
1306.754, 768.0000
1307.819, 726.0000
1308.884, 790.0000
1309.949, 764.0000
1311.014, 772.0000
1312.078, 782.0000
1313.143, 767.0000
1314.207, 769.7158
1315.271, 749.0000
1316.335, 751.0000
1317.399, 756.5227
1318.462, 774.3519
1319.526, 773.0000
1320.589, 805.0000
1321.652, 810.0000
1322.715, 766.0000
1323.778, 811.0000
1324.841, 803.0000
1325.903, 736.0000
1326.965, 756.0000
1328.027, 801.0000
1329.089, 720.0000
1330.151, 772.0000
1331.213, 748.0000
1332.274, 762.0000
1333.336, 746.0000
1334.397, 702.0000
1335.458, 800.0000
1336.518, 769.0000
1337.579, 800.0000
1338.640, 776.0000
1339.700, 787.0000
1340.760, 724.0000
1341.820, 723.0000
1342.880, 750.0000
1343.939, 741.0000
1344.999, 785.0000
1346.058, 788.0000
1347.117, 783.0000
1348.176, 780.0000
1349.235, 829.0000
1350.294, 801.6158
1351.352, 746.0000
1352.411, 793.0000
1353.469, 765.0000
1354.527, 786.0000
1355.585, 717.0000
1356.642, 783.0000
1357.700, 753.0000
1358.757, 708.0000
1359.815, 855.0000
1360.872, 709.0000
1361.928, 776.0000
1362.985, 767.0000
1364.042, 808.0000
1365.098, 765.0000
1366.154, 775.0000
1367.210, 780.0000
1368.266, 790.0000
1369.322, 790.4725
1370.377, 785.2750
1371.433, 776.0000
1372.488, 783.0000
1373.543, 745.0000
1374.598, 775.0000
1375.652, 786.0000
1376.707, 770.0000
1377.761, 830.0000
1378.816, 805.0000
1379.870, 810.0000
1380.924, 802.0000
1381.977, 774.0000
1383.031, 801.0000
1384.084, 835.0000
1385.137, 802.0000
1386.190, 751.0000
1387.243, 812.0000
1388.296, 847.0000
1389.349, 832.0000
1390.401, 901.0000
1391.453, 852.3765
1392.505, 818.0000
1393.557, 793.0000
1394.609, 827.0000
1395.661, 841.0000
1396.712, 883.0000
1397.763, 869.0000
1398.814, 812.0000
1399.865, 774.0000
1400.916, 773.0000
1401.967, 790.0000
1403.017, 812.0000
1404.067, 826.0000
1405.117, 757.0000
1406.167, 796.0000
1407.217, 793.0000
1408.267, 825.0000
1409.316, 816.0000
1410.365, 799.0000
1411.414, 843.0000
1412.463, 753.0000
1413.512, 840.0000
1414.561, 816.0000
1415.609, 862.0000
1416.657, 766.0000
1417.706, 803.0000
1418.754, 777.0000
1419.801, 818.0000
1420.849, 805.1181
1421.896, 767.0000
1422.944, 803.0000
1423.991, 793.0000
1425.038, 819.0000
1426.085, 785.0000
1427.131, 836.0000
1428.178, 783.0000
1429.224, 810.0000
1430.270, 796.0000
1431.316, 779.0000
1432.362, 763.0000
1433.407, 841.0000
1434.453, 776.0000
1435.498, 841.0000
1436.543, 789.0000
1437.588, 771.0000
1438.633, 831.0000
1439.678, 816.0000
1440.722, 826.0000
1441.767, 808.0000
1442.811, 765.0000
1443.855, 810.0000
1444.898, 805.0000
1445.942, 770.0000
1446.986, 802.0000
1448.029, 822.0000
1449.072, 771.0000
1450.115, 825.0000
1451.158, 761.0000
1452.201, 869.0000
1453.243, 847.0000
1454.285, 792.0000
1455.327, 864.0000
1456.369, 830.0000
1457.411, 801.0000
1458.453, 798.0000
1459.494, 787.9663
1460.536, 794.6262
1461.577, 794.0000
1462.618, 818.0000
1463.659, 820.0000
1464.700, 821.0000
1465.740, 814.0000
1466.780, 854.0000
1467.821, 810.0000
1468.861, 858.0000
1469.900, 835.0000
1470.940, 864.0000
1471.980, 820.0000
1473.019, 855.0000
1474.058, 856.0000
1475.097, 892.0000
1476.136, 855.0000
1477.175, 866.0000
1478.213, 874.0000
1479.252, 879.0000
1480.290, 868.0000
1481.328, 875.0000
1482.366, 825.0000
1483.403, 899.0000
1484.441, 842.0000
1485.478, 924.0000
1486.515, 888.0000
1487.552, 836.0000
1488.589, 898.0000
1489.626, 869.0000
1490.663, 859.0000
1491.699, 857.0000
1492.735, 840.0000
1493.771, 885.0000
1494.807, 897.0000
1495.843, 920.0000
1496.878, 896.0000
1497.914, 857.0000
1498.949, 872.5092
1499.984, 866.4411
1501.019, 882.0000
1502.054, 892.0000
1503.088, 921.0000
1504.122, 933.0000
1505.157, 908.0000
1506.191, 944.0000
1507.225, 941.0000
1508.258, 933.0000
1509.292, 951.0000
1510.325, 937.0000
1511.359, 946.0000
1512.392, 994.0000
1513.424, 975.0000
1514.457, 998.0000
1515.490, 997.0000
1516.522, 1002.000
1517.554, 1022.000
1518.586, 1039.000
1519.618, 1012.000
1520.650, 1018.823
1521.682, 1050.000
1522.713, 1007.000
1523.744, 1018.000
1524.775, 1039.000
1525.806, 960.0000
1526.837, 1011.000
1527.868, 954.0000
1528.898, 1040.000
1529.928, 1047.000
1530.958, 1023.000
1531.988, 1086.000
1533.018, 1084.000
1534.048, 1088.650
1535.077, 1023.000
1536.106, 1077.000
1537.135, 1094.000
1538.164, 1055.000
1539.193, 1077.000
1540.222, 1040.000
1541.250, 1093.000
1542.278, 1051.000
1543.306, 1061.000
1544.334, 1104.000
1545.362, 1081.000
1546.390, 1106.000
1547.417, 1096.000
1548.444, 1104.000
1549.471, 1102.000
1550.498, 1089.502
1551.525, 1138.000
1552.552, 1064.000
1553.578, 1141.000
1554.604, 1136.000
1555.630, 1091.000
1556.656, 1131.000
1557.682, 1185.000
1558.708, 1120.000
1559.733, 1160.000
1560.758, 1101.000
1561.784, 1131.000
1562.808, 1110.000
1563.833, 1098.000
1564.858, 1100.000
1565.882, 1066.000
1566.907, 1131.000
1567.931, 1128.000
1568.955, 1150.000
1569.978, 1112.000
1571.002, 1146.000
1572.025, 1113.000
1573.049, 1113.000
1574.072, 1087.000
1575.095, 1164.000
1576.118, 1142.000
1577.140, 1091.000
1578.163, 1136.000
1579.185, 1062.000
##END=



