##NAMES=Diamond
##RRUFFID=R050204
##IDEAL CHEMISTRY=C
##LOCALITY=Unknown
##OWNER=RRUFF
##SOURCE=Eric Van Valkenburg
##DESCRIPTION=Single crystal, type IIA
##STATUS=The identification of this mineral has been confirmed by single-crystal X-ray diffraction.
##URL=rruff.info/R050204
##PIN_ID=M01891
##ORIENTATION=Laser parallel to a* (1 0 0). Fiducial mark perpendicular to laser is parallel to b [0 1 0]
170.5590, 13978.00
171.7860, 14019.00
173.0130, 14107.00
174.2400, 14060.00
175.4670, 14132.00
176.6930, 14161.00
177.9200, 14153.00
179.1460, 14242.00
180.3720, 14328.00
181.5980, 14199.00
182.8230, 14363.00
184.0490, 14320.00
185.2740, 14573.00
186.5000, 14366.00
187.7250, 14587.00
188.9500, 14457.00
190.1740, 14658.00
191.3990, 14449.00
192.6230, 14686.00
193.8480, 14562.00
195.0720, 14598.00
196.2960, 14647.00
197.5200, 14606.00
198.7430, 14735.00
199.9670, 14708.00
201.1900, 14668.00
202.4130, 14662.00
203.6360, 14749.00
204.8590, 14699.00
206.0820, 14720.00
207.3050, 14939.00
208.5270, 14850.00
209.7490, 14957.00
210.9710, 14954.00
212.1930, 15054.00
213.4150, 15098.00
214.6370, 15073.00
215.8580, 14998.00
217.0790, 15044.00
218.3010, 14909.00
219.5210, 14927.00
220.7420, 15064.00
221.9630, 15271.00
223.1830, 15199.00
224.4040, 15228.00
225.6240, 15026.00
226.8440, 15223.00
228.0640, 15099.00
229.2840, 15154.00
230.5030, 15330.00
231.7230, 15409.00
232.9420, 15427.00
234.1610, 15300.00
235.3800, 15343.00
236.5990, 15273.00
237.8170, 15487.00
239.0360, 15265.00
240.2540, 15390.00
241.4720, 15266.00
242.6900, 15419.00
243.9080, 15384.00
245.1250, 15442.00
246.3430, 15359.00
247.5600, 15515.00
248.7770, 15517.00
249.9940, 15420.00
251.2110, 15624.00
252.4280, 15605.00
253.6450, 15533.00
254.8610, 15614.00
256.0770, 15656.00
257.2930, 15640.00
258.5090, 15769.00
259.7250, 15713.00
260.9400, 15732.00
262.1560, 15643.00
263.3710, 15812.00
264.5860, 15623.00
265.8010, 15839.00
267.0160, 15787.00
268.2310, 15708.00
269.4450, 15737.00
270.6600, 15813.00
271.8740, 15947.00
273.0880, 15896.00
274.3020, 16006.00
275.5150, 16026.00
276.7290, 15775.00
277.9420, 15954.00
279.1550, 16095.00
280.3680, 15902.00
281.5810, 15998.00
282.7940, 16029.00
284.0070, 16053.00
285.2190, 16112.60
286.4310, 16094.00
287.6430, 16137.00
288.8550, 16075.00
290.0670, 15964.00
291.2790, 16182.00
292.4900, 15989.00
293.7020, 16091.00
294.9130, 16062.00
296.1240, 16180.00
297.3350, 16152.00
298.5450, 16198.00
299.7560, 16310.00
300.9660, 16175.00
302.1760, 16266.00
303.3860, 16227.00
304.5960, 16220.00
305.8060, 16421.00
307.0150, 16317.00
308.2250, 16402.00
309.4340, 16365.00
310.6430, 16288.00
311.8520, 16481.00
313.0610, 16571.00
314.2700, 16465.00
315.4780, 16446.00
316.6860, 16543.00
317.8940, 16379.00
319.1020, 16383.00
320.3100, 16627.00
321.5180, 16547.00
322.7250, 16507.00
323.9330, 16643.00
325.1400, 16609.00
326.3470, 16540.00
327.5540, 16609.00
328.7600, 16593.00
329.9670, 16663.00
331.1730, 16644.00
332.3800, 16647.00
333.5860, 16717.00
334.7920, 16851.00
335.9970, 16829.00
337.2030, 16766.00
338.4080, 16696.00
339.6140, 16752.00
340.8190, 16903.00
342.0240, 16773.00
343.2290, 16996.00
344.4330, 16770.00
345.6380, 16885.00
346.8420, 16911.00
348.0460, 17097.00
349.2500, 17039.00
350.4540, 17091.00
351.6580, 16952.00
352.8610, 17074.00
354.0650, 17051.00
355.2680, 16931.00
356.4710, 17150.00
357.6740, 16948.00
358.8760, 17038.00
360.0790, 17066.00
361.2810, 17253.00
362.4840, 17038.00
363.6860, 17182.00
364.8880, 17131.00
366.0900, 17236.00
367.2910, 17018.00
368.4930, 17347.00
369.6940, 17150.00
370.8950, 17203.00
372.0960, 17416.00
373.2970, 17257.00
374.4980, 17424.00
375.6980, 17175.00
376.8980, 17333.00
378.0990, 17328.00
379.2990, 17401.00
380.4980, 17521.00
381.6980, 17435.00
382.8980, 17506.00
384.0970, 17618.00
385.2960, 17538.00
386.4950, 17577.00
387.6940, 17489.00
388.8930, 17593.00
390.0920, 17712.00
391.2900, 17567.00
392.4880, 17654.00
393.6860, 17639.00
394.8840, 17717.00
396.0820, 17738.71
397.2800, 17752.99
398.4770, 17760.00
399.6750, 17768.00
400.8720, 17708.00
402.0690, 17671.00
403.2660, 17775.00
404.4620, 17858.00
405.6590, 17844.00
406.8550, 17880.96
408.0510, 17866.00
409.2480, 17875.00
410.4430, 17987.00
411.6390, 18032.00
412.8350, 17821.00
414.0300, 18105.00
415.2250, 17826.00
416.4200, 18093.00
417.6150, 17831.00
418.8100, 17939.00
420.0050, 17940.00
421.1990, 17939.00
422.3940, 17925.00
423.5880, 17874.00
424.7820, 17805.00
425.9750, 17926.00
427.1690, 18097.00
428.3630, 17989.00
429.5560, 18264.00
430.7490, 18168.00
431.9420, 18039.00
433.1350, 18058.00
434.3280, 18111.00
435.5200, 18138.00
436.7130, 18173.47
437.9050, 18344.00
439.0970, 18216.00
440.2890, 18363.00
441.4810, 18335.00
442.6720, 18245.00
443.8640, 18258.00
445.0550, 18311.00
446.2460, 18379.00
447.4370, 18598.00
448.6280, 18389.00
449.8180, 18470.00
451.0090, 18284.00
452.1990, 18514.00
453.3890, 18568.00
454.5790, 18477.00
455.7690, 18660.00
456.9590, 18610.00
458.1480, 18620.00
459.3380, 18621.00
460.5270, 18631.00
461.7160, 18628.92
462.9050, 18625.49
464.0940, 18629.00
465.2820, 18611.00
466.4700, 18619.00
467.6590, 18610.21
468.8470, 18630.12
470.0350, 18647.00
471.2220, 18637.00
472.4100, 18793.00
473.5970, 18720.00
474.7850, 18796.00
475.9720, 18883.00
477.1590, 18744.00
478.3460, 18909.00
479.5320, 18952.00
480.7190, 18878.00
481.9050, 19013.00
483.0910, 19037.00
484.2770, 18939.00
485.4630, 18997.00
486.6490, 19070.00
487.8340, 19144.00
489.0200, 19133.94
490.2050, 19163.00
491.3900, 19111.00
492.5750, 19161.00
493.7600, 19171.00
494.9440, 19111.00
496.1290, 19093.00
497.3130, 19180.00
498.4970, 19245.00
499.6810, 19335.00
500.8650, 19320.00
502.0480, 19198.00
503.2320, 19383.00
504.4150, 19309.00
505.5980, 19492.00
506.7810, 19507.00
507.9640, 19445.00
509.1460, 19456.00
510.3290, 19430.00
511.5110, 19508.00
512.6930, 19514.00
513.8750, 19441.00
515.0570, 19499.00
516.2390, 19711.00
517.4210, 19589.00
518.6020, 19700.00
519.7830, 19643.00
520.9640, 19523.00
522.1450, 19656.00
523.3260, 19673.00
524.5060, 19705.00
525.6870, 19758.00
526.8670, 19710.00
528.0470, 19627.00
529.2270, 19704.00
530.4070, 19796.00
531.5870, 19886.00
532.7660, 19803.00
533.9450, 19899.00
535.1240, 20096.00
536.3030, 19912.00
537.4820, 19862.00
538.6610, 19752.00
539.8390, 19904.00
541.0180, 19917.00
542.1960, 19952.00
543.3740, 20070.00
544.5520, 20066.00
545.7290, 20116.61
546.9070, 20013.00
548.0840, 20126.00
549.2620, 20134.00
550.4390, 20052.00
551.6160, 20057.00
552.7920, 20082.00
553.9690, 20186.00
555.1450, 20199.00
556.3220, 20118.00
557.4980, 20294.00
558.6740, 20218.00
559.8490, 20214.00
561.0250, 20344.00
562.2000, 20331.14
563.3760, 20266.00
564.5510, 20444.00
565.7260, 20435.00
566.9010, 20472.00
568.0750, 20432.00
569.2500, 20406.00
570.4240, 20558.00
571.5980, 20396.00
572.7720, 20475.00
573.9460, 20344.00
575.1200, 20471.00
576.2930, 20418.00
577.4670, 20603.00
578.6400, 20462.00
579.8130, 20683.00
580.9860, 20511.00
582.1590, 20595.00
583.3310, 20574.00
584.5040, 20641.00
585.6760, 20900.00
586.8480, 20762.00
588.0200, 20756.00
589.1920, 20999.00
590.3630, 20856.00
591.5350, 20881.00
592.7060, 20943.00
593.8770, 20819.00
595.0480, 20885.00
596.2190, 21028.00
597.3900, 21095.00
598.5600, 20969.00
599.7310, 21069.00
600.9010, 21018.00
602.0710, 20990.00
603.2410, 21152.00
604.4100, 20940.00
605.5800, 21036.00
606.7490, 21027.00
607.9190, 21105.00
609.0880, 21245.00
610.2570, 21025.00
611.4250, 21008.00
612.5940, 21145.00
613.7620, 21322.00
614.9310, 21439.00
616.0990, 21282.00
617.2670, 21252.00
618.4340, 21201.00
619.6020, 21368.00
620.7690, 21482.00
621.9370, 21538.00
623.1040, 21613.00
624.2710, 21719.00
625.4380, 21764.00
626.6040, 21589.00
627.7710, 21689.00
628.9370, 21525.00
630.1030, 21674.00
631.2690, 21563.00
632.4350, 21555.00
633.6010, 21547.00
634.7660, 21713.00
635.9320, 21611.00
637.0970, 21923.00
638.2620, 21627.00
639.4270, 21893.00
640.5920, 21669.00
641.7560, 21869.00
642.9210, 21963.00
644.0850, 22037.00
645.2490, 21821.00
646.4130, 21895.00
647.5770, 22033.00
648.7400, 21880.00
649.9040, 22168.00
651.0670, 21996.00
652.2300, 22033.00
653.3930, 22123.00
654.5560, 22016.00
655.7190, 21930.00
656.8810, 22100.00
658.0440, 22007.00
659.2060, 22041.00
660.3680, 22013.00
661.5300, 21924.00
662.6910, 22084.00
663.8530, 22052.00
665.0140, 22057.00
666.1750, 21984.00
667.3360, 22045.06
668.4970, 22093.00
669.6580, 22134.00
670.8190, 22176.00
671.9790, 22189.00
673.1390, 22142.00
674.2990, 22154.00
675.4590, 22181.00
676.6190, 22294.00
677.7790, 22285.00
678.9380, 22469.00
680.0970, 22199.00
681.2570, 22434.00
682.4160, 22390.00
683.5740, 22208.00
684.7330, 22389.00
685.8920, 22155.00
687.0500, 22539.00
688.2080, 22442.00
689.3660, 22437.00
690.5240, 22548.00
691.6820, 22521.00
692.8390, 22403.00
693.9960, 22457.00
695.1540, 22457.05
696.3110, 22575.00
697.4680, 22606.00
698.6240, 22554.00
699.7810, 22732.00
700.9370, 22674.00
702.0940, 22855.00
703.2500, 22739.00
704.4060, 22832.00
705.5610, 22597.00
706.7170, 22785.00
707.8720, 22873.00
709.0280, 22811.00
710.1830, 22907.00
711.3380, 22894.00
712.4920, 22976.00
713.6470, 22931.00
714.8020, 23004.14
715.9560, 23060.00
717.1100, 23077.00
718.2640, 23067.00
719.4180, 23011.00
720.5720, 23025.95
721.7250, 23052.00
722.8780, 23032.00
724.0320, 23050.00
725.1850, 23102.00
726.3380, 23271.00
727.4900, 23173.00
728.6430, 23239.00
729.7950, 23497.00
730.9470, 23186.00
732.1000, 23291.00
733.2510, 23584.00
734.4030, 23387.00
735.5550, 23555.00
736.7060, 23524.31
737.8570, 23529.00
739.0090, 23455.00
740.1600, 23521.00
741.3100, 23509.00
742.4610, 23619.00
743.6110, 23435.00
744.7620, 23623.00
745.9120, 23498.00
747.0620, 23432.00
748.2120, 23689.00
749.3610, 23724.00
750.5110, 23538.00
751.6600, 23585.00
752.8090, 23551.00
753.9580, 23654.00
755.1070, 23693.00
756.2560, 23839.00
757.4050, 23740.00
758.5530, 23966.00
759.7010, 23869.00
760.8490, 23976.00
761.9970, 23838.00
763.1450, 23991.00
764.2920, 24030.00
765.4400, 24048.00
766.5870, 24016.00
767.7340, 24064.47
768.8810, 24062.00
770.0280, 24104.00
771.1740, 24113.00
772.3210, 24101.00
773.4670, 24156.00
774.6130, 24100.00
775.7590, 24200.00
776.9050, 24328.00
778.0510, 24142.00
779.1960, 24093.00
780.3420, 24272.00
781.4870, 24282.00
782.6320, 24380.00
783.7770, 24278.00
784.9210, 24487.00
786.0660, 24565.00
787.2100, 24582.00
788.3540, 24308.00
789.4980, 24418.00
790.6420, 24533.00
791.7860, 24485.00
792.9300, 24783.00
794.0730, 24685.00
795.2160, 24597.00
796.3590, 24738.00
797.5020, 24723.00
798.6450, 24712.00
799.7880, 24787.00
800.9300, 24710.00
802.0720, 24867.00
803.2150, 24799.00
804.3560, 24805.00
805.4980, 24808.00
806.6400, 24757.00
807.7810, 24811.00
808.9230, 24892.00
810.0640, 24930.00
811.2050, 24914.00
812.3460, 25025.00
813.4860, 24950.00
814.6270, 24919.00
815.7670, 24929.00
816.9070, 25140.00
818.0470, 25093.00
819.1870, 25257.00
820.3270, 25153.00
821.4670, 25128.00
822.6060, 25375.00
823.7450, 25414.00
824.8840, 25236.00
826.0230, 25073.00
827.1620, 25429.00
828.3010, 25435.00
829.4390, 25305.00
830.5770, 25405.00
831.7150, 25397.00
832.8530, 25273.00
833.9910, 25333.00
835.1290, 25580.00
836.2660, 25441.00
837.4030, 25740.00
838.5410, 25573.00
839.6780, 25633.00
840.8140, 25624.00
841.9510, 25754.00
843.0870, 25713.00
844.2240, 25952.00
845.3600, 25899.00
846.4960, 25848.00
847.6320, 25772.00
848.7680, 25709.00
849.9030, 25817.00
851.0380, 25812.12
852.1740, 26021.00
853.3090, 25979.00
854.4440, 26007.00
855.5780, 26144.00
856.7130, 26012.00
857.8470, 25969.00
858.9820, 26159.00
860.1160, 26076.00
861.2500, 26269.00
862.3830, 26260.00
863.5170, 26207.00
864.6500, 26396.00
865.7840, 25955.00
866.9170, 26294.00
868.0500, 26078.00
869.1830, 26681.00
870.3150, 26142.00
871.4480, 26230.00
872.5800, 26437.00
873.7120, 26152.00
874.8440, 26273.00
875.9760, 26193.00
877.1080, 26455.00
878.2390, 26551.00
879.3710, 26553.00
880.5020, 26427.00
881.6330, 26542.00
882.7640, 26613.00
883.8940, 26495.00
885.0250, 26678.00
886.1550, 26656.00
887.2850, 26545.00
888.4160, 26499.00
889.5450, 26693.00
890.6750, 26415.00
891.8050, 26813.00
892.9340, 26863.00
894.0630, 26784.00
895.1930, 26575.00
896.3220, 26794.00
897.4500, 26882.00
898.5790, 26908.00
899.7070, 26626.00
900.8360, 26882.00
901.9640, 26951.00
903.0920, 27131.00
904.2200, 26837.00
905.3470, 26896.00
906.4750, 27092.00
907.6020, 26871.00
908.7290, 27085.00
909.8560, 27102.00
910.9830, 27282.00
912.1100, 26983.00
913.2360, 27103.00
914.3630, 27263.00
915.4890, 27147.00
916.6150, 27330.00
917.7410, 27241.00
918.8670, 27127.00
919.9920, 27293.00
921.1180, 27239.00
922.2430, 27341.00
923.3680, 27205.00
924.4930, 27595.00
925.6180, 27407.00
926.7420, 27581.00
927.8670, 27489.00
928.9910, 27431.00
930.1150, 27492.00
931.2390, 27657.00
932.3630, 27408.00
933.4860, 27846.00
934.6100, 27661.00
935.7330, 27598.00
936.8560, 27529.00
937.9790, 27798.00
939.1020, 27687.00
940.2250, 27870.00
941.3470, 27796.00
942.4700, 27822.00
943.5920, 27832.00
944.7140, 27852.04
945.8360, 27818.00
946.9570, 27907.00
948.0790, 28071.00
949.2000, 28026.00
950.3220, 27720.00
951.4430, 28084.00
952.5640, 27922.00
953.6840, 27925.00
954.8050, 28145.00
955.9250, 28293.00
957.0460, 28185.00
958.1660, 28168.00
959.2860, 28185.00
960.4050, 28081.00
961.5250, 28046.00
962.6440, 28064.00
963.7640, 28323.00
964.8830, 28340.00
966.0020, 28281.00
967.1210, 28369.00
968.2390, 28356.00
969.3580, 28271.00
970.4760, 28415.00
971.5940, 28505.00
972.7120, 28316.00
973.8300, 28366.00
974.9480, 28467.00
976.0650, 28341.00
977.1830, 28541.00
978.3000, 28611.00
979.4170, 28752.00
980.5340, 28805.04
981.6500, 28696.00
982.7670, 28846.00
983.8830, 28747.00
985.0000, 28699.00
986.1160, 28770.00
987.2320, 28818.00
988.3470, 28970.00
989.4630, 28871.00
990.5780, 29002.00
991.6940, 28952.00
992.8090, 29013.00
993.9240, 28868.00
995.0380, 28744.00
996.1530, 28926.00
997.2680, 29294.00
998.3820, 29239.00
999.4960, 28982.00
1000.610, 29273.00
1001.724, 29070.00
1002.837, 29082.00
1003.951, 29392.00
1005.064, 28962.00
1006.177, 29203.00
1007.291, 29188.00
1008.403, 29122.00
1009.516, 29336.00
1010.629, 29241.00
1011.741, 29508.00
1012.853, 29573.00
1013.965, 29453.00
1015.077, 29304.00
1016.189, 29543.00
1017.300, 29481.00
1018.412, 29357.00
1019.523, 29441.00
1020.634, 29356.00
1021.745, 29741.00
1022.856, 29591.00
1023.966, 29637.00
1025.077, 29867.00
1026.187, 29685.00
1027.297, 29850.00
1028.407, 29674.00
1029.517, 29934.00
1030.627, 29723.00
1031.736, 29529.00
1032.845, 29845.00
1033.955, 29863.00
1035.064, 29894.00
1036.172, 30135.00
1037.281, 29965.00
1038.390, 29898.00
1039.498, 29942.00
1040.606, 29974.00
1041.714, 29781.00
1042.822, 30046.00
1043.930, 30314.00
1045.037, 30166.00
1046.145, 30319.00
1047.252, 30097.00
1048.359, 30030.00
1049.466, 30253.00
1050.573, 30309.00
1051.679, 30483.00
1052.786, 30401.00
1053.892, 30355.00
1054.998, 30526.00
1056.104, 30542.00
1057.210, 30480.00
1058.315, 30577.00
1059.421, 30462.00
1060.526, 30497.00
1061.631, 30539.00
1062.736, 30666.00
1063.841, 30622.00
1064.946, 30647.00
1066.050, 30651.00
1067.154, 30956.00
1068.258, 30756.00
1069.362, 30931.00
1070.466, 30808.00
1071.570, 30834.00
1072.674, 30922.00
1073.777, 30638.00
1074.880, 31024.00
1075.983, 31009.00
1077.086, 31116.00
1078.189, 30968.00
1079.291, 31061.00
1080.394, 31083.00
1081.496, 31219.00
1082.598, 31096.00
1083.700, 31196.00
1084.802, 31330.00
1085.903, 31249.00
1087.005, 31580.00
1088.106, 31347.00
1089.207, 31434.00
1090.308, 31509.00
1091.409, 31383.00
1092.509, 31332.00
1093.610, 31528.00
1094.710, 31170.00
1095.810, 31501.00
1096.910, 31650.00
1098.010, 31519.00
1099.110, 31626.00
1100.209, 31546.00
1101.309, 31780.00
1102.408, 31595.00
1103.507, 31669.00
1104.606, 31795.00
1105.704, 32012.00
1106.803, 31792.00
1107.901, 31704.00
1108.999, 31928.00
1110.097, 31850.00
1111.195, 31918.00
1112.293, 31729.00
1113.391, 31996.00
1114.488, 31945.00
1115.585, 31886.00
1116.682, 31813.00
1117.779, 31989.00
1118.876, 32179.00
1119.973, 32198.00
1121.069, 32285.00
1122.165, 32113.00
1123.261, 32207.00
1124.357, 32265.00
1125.453, 32308.00
1126.549, 32383.00
1127.644, 32377.00
1128.739, 32504.00
1129.835, 32263.00
1130.930, 32438.00
1132.024, 32385.00
1133.119, 32440.00
1134.214, 32583.00
1135.308, 32520.00
1136.402, 32421.00
1137.496, 32633.00
1138.590, 32291.00
1139.684, 32642.00
1140.777, 32564.00
1141.871, 32425.00
1142.964, 32573.00
1144.057, 32517.02
1145.150, 32832.00
1146.243, 32614.00
1147.335, 32736.00
1148.428, 32826.00
1149.520, 32601.00
1150.612, 32952.00
1151.704, 32876.00
1152.796, 32729.00
1153.887, 33177.00
1154.979, 32691.00
1156.070, 32788.00
1157.161, 33019.00
1158.252, 33195.00
1159.343, 33057.00
1160.433, 33193.00
1161.524, 33212.00
1162.614, 33056.00
1163.704, 33235.00
1164.794, 33383.00
1165.884, 33149.00
1166.974, 33351.00
1168.063, 33272.00
1169.153, 33495.00
1170.242, 33464.00
1171.331, 33372.00
1172.420, 33266.00
1173.508, 33513.00
1174.597, 33484.00
1175.685, 33329.00
1176.774, 34010.00
1177.862, 33523.00
1178.950, 33632.00
1180.037, 33802.00
1181.125, 33672.00
1182.212, 33638.00
1183.300, 33674.00
1184.387, 33725.00
1185.474, 33621.00
1186.560, 33762.00
1187.647, 33981.00
1188.733, 33659.00
1189.820, 33828.00
1190.906, 34007.00
1191.992, 33826.00
1193.078, 33893.00
1194.163, 34251.00
1195.249, 34126.00
1196.334, 34021.00
1197.419, 33985.00
1198.504, 34129.00
1199.589, 34246.00
1200.674, 34220.00
1201.758, 34348.00
1202.843, 34380.96
1203.927, 34244.00
1205.011, 34411.00
1206.095, 34411.00
1207.179, 34273.00
1208.262, 34312.00
1209.345, 34365.00
1210.429, 34325.00
1211.512, 34533.00
1212.595, 34495.00
1213.677, 34683.00
1214.760, 34470.00
1215.842, 34758.00
1216.925, 34910.00
1218.007, 34736.00
1219.089, 34647.00
1220.171, 34637.00
1221.252, 34775.00
1222.334, 34783.00
1223.415, 34813.00
1224.496, 34849.00
1225.577, 35003.00
1226.658, 34861.00
1227.738, 34852.00
1228.819, 35003.00
1229.899, 34885.00
1230.979, 34961.00
1232.060, 35105.00
1233.139, 35077.00
1234.219, 35218.00
1235.299, 35092.00
1236.378, 35337.00
1237.457, 35322.00
1238.536, 35396.00
1239.615, 35457.00
1240.694, 35380.00
1241.772, 35209.00
1242.851, 35636.00
1243.929, 35457.00
1245.007, 35867.00
1246.085, 35865.00
1247.163, 35529.00
1248.240, 35634.00
1249.318, 35433.00
1250.395, 35718.00
1251.472, 35802.00
1252.549, 35680.00
1253.626, 35912.00
1254.703, 35771.00
1255.779, 35892.00
1256.855, 35755.00
1257.931, 35873.00
1259.007, 36136.00
1260.083, 36023.00
1261.159, 35997.00
1262.234, 36041.00
1263.310, 35956.00
1264.385, 36226.00
1265.460, 36227.00
1266.535, 36352.00
1267.610, 36274.00
1268.684, 36412.00
1269.758, 36477.00
1270.833, 36178.00
1271.907, 36438.00
1272.981, 36330.00
1274.054, 36447.00
1275.128, 36650.00
1276.201, 36307.00
1277.275, 36661.00
1278.348, 36573.00
1279.421, 36493.00
1280.493, 36315.00
1281.566, 36301.00
1282.638, 36051.00
1283.711, 36481.00
1284.783, 36512.00
1285.855, 36431.00
1286.927, 36628.00
1287.998, 36662.00
1289.070, 36885.00
1290.141, 36929.00
1291.212, 37108.00
1292.283, 36987.00
1293.354, 36994.00
1294.425, 37083.00
1295.495, 37242.00
1296.566, 37249.93
1297.636, 37401.00
1298.706, 37402.00
1299.776, 37422.00
1300.845, 37603.00
1301.915, 37356.00
1302.984, 37458.00
1304.054, 37246.00
1305.123, 37255.00
1306.191, 37652.00
1307.260, 37607.00
1308.329, 37645.00
1309.397, 37575.00
1310.465, 37758.00
1311.534, 37746.00
1312.602, 37843.00
1313.669, 37923.00
1314.737, 37927.00
1315.804, 38104.00
1316.872, 38162.00
1317.939, 38191.23
1319.006, 38016.00
1320.073, 38288.00
1321.139, 38252.00
1322.206, 38399.00
1323.272, 38707.00
1324.338, 38851.00
1325.404, 39873.00
1326.470, 41486.00
1327.536, 44681.00
1328.601, 48930.00
1329.667, 52415.00
1330.732, 55665.00
1331.797, 57214.00
1332.862, 54979.00
1333.926, 50685.00
1334.991, 46246.00
1336.055, 42644.00
1337.120, 40346.00
1338.184, 39367.00
1339.248, 39024.00
1340.311, 38948.00
1341.375, 38895.00
1342.438, 38751.00
1343.502, 38834.00
1344.565, 38707.00
1345.628, 38864.00
1346.691, 38992.00
1347.753, 38723.00
1348.816, 38892.00
1349.878, 38951.00
1350.940, 38888.00
1352.002, 38675.00
1353.064, 38583.00
1354.126, 38731.00
1355.187, 38608.00
1356.248, 39064.00
1357.310, 38575.00
1358.371, 39058.00
1359.431, 39148.00
1360.492, 38981.00
1361.553, 39056.00
1362.613, 38813.00
1363.673, 38975.00
1364.733, 38874.00
1365.793, 39127.00
1366.853, 38984.00
1367.912, 39141.00
1368.972, 39210.00
1370.031, 39056.00
1371.090, 39027.00
1372.149, 39199.00
1373.208, 39176.00
1374.267, 39053.00
1375.325, 39381.00
1376.383, 39438.00
1377.441, 39068.00
1378.499, 39296.00
1379.557, 39279.00
1380.615, 39400.00
1381.672, 39460.00
1382.730, 39521.00
1383.787, 39529.00
1384.844, 39720.00
1385.901, 39761.00
1386.957, 39416.00
1388.014, 39308.00
1389.070, 39483.00
1390.126, 39547.00
1391.182, 39600.00
1392.238, 39489.00
1393.294, 39378.00
1394.349, 39653.00
1395.405, 39757.00
1396.460, 39561.00
1397.515, 39973.00
1398.570, 39690.00
1399.625, 39876.00
1400.679, 39688.00
1401.734, 39863.00
1402.788, 39758.00
1403.842, 39874.00
1404.896, 40211.00
1405.950, 39872.00
1407.003, 40134.00
1408.057, 39823.00
1409.110, 40046.00
1410.163, 39942.00
1411.216, 40230.00
1412.269, 40094.00
1413.322, 40139.00
1414.374, 40344.00
1415.427, 40090.00
1416.479, 40321.00
1417.531, 40374.00
1418.583, 40109.00
1419.634, 40481.00
1420.686, 40315.00
1421.737, 40431.00
1422.788, 40172.00
1423.839, 40207.00
1424.890, 40652.00
1425.941, 40463.00
1426.992, 40595.00
1428.042, 40986.00
1429.092, 40661.00
1430.142, 40601.00
1431.192, 40602.00
1432.242, 40818.00
1433.291, 40920.00
1434.341, 40973.98
1435.390, 41298.00
1436.439, 41029.00
1437.488, 41096.00
1438.537, 40972.00
1439.586, 41293.00
1440.634, 41397.00
1441.682, 41321.00
1442.731, 41105.00
1443.779, 41320.00
1444.826, 40973.00
1445.874, 41523.00
1446.922, 41589.00
1447.969, 41500.00
1449.016, 41361.00
1450.063, 41482.00
1451.110, 41643.00
1452.157, 41570.00
1453.203, 41556.00
1454.250, 41623.00
1455.296, 41542.00
1456.342, 41846.00
1457.388, 41726.00
1458.433, 41706.00
1459.479, 42009.00
1460.524, 41881.00
1461.570, 41608.00
1462.615, 41998.00
1463.660, 41679.00
1464.705, 42060.00
1465.749, 41897.00
1466.794, 41960.00
1467.838, 41963.00
1468.882, 41852.00
1469.926, 41919.98
1470.970, 41826.00
1472.013, 41935.00
1473.057, 42120.00
1474.100, 42114.00
1475.143, 41978.00
1476.186, 42297.00
1477.229, 42132.00
1478.272, 41686.00
1479.314, 42163.00
1480.357, 42003.00
1481.399, 41957.00
1482.441, 42232.00
1483.483, 42231.00
1484.525, 42118.00
1485.566, 42182.00
1486.608, 42514.00
1487.649, 42087.00
1488.690, 42468.00
1489.731, 42313.00
1490.771, 42651.00
1491.812, 42148.00
1492.853, 42476.00
1493.893, 42450.00
1494.933, 42404.00
1495.973, 42344.00
1497.013, 42372.07
1498.052, 42408.53
1499.092, 42480.00
1500.131, 42525.00
1501.170, 42702.00
1502.209, 42690.00
1503.248, 42758.58
1504.287, 42708.00
1505.325, 42760.00
1506.363, 42815.00
1507.402, 42697.00
1508.440, 42754.00
1509.478, 43006.00
1510.515, 42850.00
1511.553, 42976.00
1512.590, 43020.00
1513.627, 43097.00
1514.664, 43361.00
1515.701, 43118.00
1516.738, 43107.00
1517.775, 43396.00
1518.811, 43368.00
1519.847, 43136.00
1520.883, 43441.00
1521.919, 43544.00
1522.955, 43305.00
1523.991, 43525.00
1525.026, 43635.00
1526.061, 43757.00
1527.096, 43802.00
1528.131, 43612.00
1529.166, 43651.00
1530.201, 43595.00
1531.235, 43826.00
1532.270, 43645.00
1533.304, 43935.00
1534.338, 43654.00
1535.372, 43703.00
1536.405, 44043.00
1537.439, 44055.00
1538.472, 44037.00
1539.505, 43636.00
1540.538, 43814.00
1541.571, 44034.00
1542.604, 44018.00
1543.637, 44458.00
1544.669, 44163.00
1545.701, 44039.00
1546.733, 43933.00
1547.765, 44231.00
1548.797, 44002.00
1549.829, 44478.00
1550.860, 44394.00
1551.891, 44407.00
1552.922, 44376.00
1553.953, 44685.00
1554.984, 44694.00
1556.015, 44272.00
1557.045, 44625.00
1558.076, 44513.00
1559.106, 44420.00
1560.136, 44584.00
1561.165, 44785.00
1562.195, 44581.00
1563.225, 44684.00
1564.254, 44851.00
1565.283, 45046.00
##END=



