##NAMES=Diamond
##RRUFFID=R050204
##IDEAL CHEMISTRY=C
##LOCALITY=Unknown
##OWNER=RRUFF
##SOURCE=Eric Van Valkenburg
##DESCRIPTION=Single crystal, type IIA
##STATUS=The identification of this mineral has been confirmed by single-crystal X-ray diffraction.
##URL=rruff.info/R050204
##PIN_ID=M01891
##ORIENTATION=Laser parallel to a* (1 0 0). Fiducial mark perpendicular to laser is parallel to b [0 1 0]
170.5590, 7903.000
171.7860, 7907.000
173.0130, 7888.000
174.2400, 7914.000
175.4670, 7927.512
176.6930, 7958.000
177.9200, 7998.000
179.1460, 8046.000
180.3720, 8068.306
181.5980, 8107.000
182.8230, 8106.000
184.0490, 8128.000
185.2740, 8115.000
186.5000, 8191.000
187.7250, 8189.000
188.9500, 8225.000
190.1740, 8150.000
191.3990, 8208.000
192.6230, 8124.000
193.8480, 8247.000
195.0720, 8238.000
196.2960, 8387.000
197.5200, 8295.000
198.7430, 8341.000
199.9670, 8425.000
201.1900, 8296.000
202.4130, 8327.000
203.6360, 8411.000
204.8590, 8271.000
206.0820, 8341.000
207.3050, 8310.000
208.5270, 8359.000
209.7490, 8375.000
210.9710, 8398.000
212.1930, 8488.000
213.4150, 8481.000
214.6370, 8569.000
215.8580, 8429.000
217.0790, 8480.000
218.3010, 8554.000
219.5210, 8614.000
220.7420, 8611.000
221.9630, 8608.000
223.1830, 8601.000
224.4040, 8596.000
225.6240, 8583.000
226.8440, 8636.000
228.0640, 8709.000
229.2840, 8704.000
230.5030, 8644.000
231.7230, 8774.000
232.9420, 8698.000
234.1610, 8780.000
235.3800, 8663.000
236.5990, 8814.000
237.8170, 8755.000
239.0360, 8772.000
240.2540, 8731.000
241.4720, 8670.000
242.6900, 8775.000
243.9080, 8801.000
245.1250, 8837.000
246.3430, 8842.000
247.5600, 8857.000
248.7770, 8808.000
249.9940, 8852.000
251.2110, 8932.000
252.4280, 8931.000
253.6450, 8771.000
254.8610, 8899.000
256.0770, 8895.000
257.2930, 9014.000
258.5090, 8994.000
259.7250, 9002.000
260.9400, 8986.000
262.1560, 8968.000
263.3710, 9020.000
264.5860, 8970.000
265.8010, 8962.000
267.0160, 9120.000
268.2310, 8973.000
269.4450, 9118.000
270.6600, 9076.000
271.8740, 9081.000
273.0880, 9080.000
274.3020, 9154.000
275.5150, 9061.000
276.7290, 9104.000
277.9420, 9202.000
279.1550, 9045.000
280.3680, 9208.000
281.5810, 9130.000
282.7940, 9301.000
284.0070, 9118.000
285.2190, 9122.000
286.4310, 9071.000
287.6430, 9177.000
288.8550, 9235.000
290.0670, 9205.000
291.2790, 9330.000
292.4900, 9341.150
293.7020, 9421.000
294.9130, 9389.000
296.1240, 9347.000
297.3350, 9276.000
298.5450, 9273.850
299.7560, 9315.000
300.9660, 9257.000
302.1760, 9257.000
303.3860, 9261.263
304.5960, 9342.000
305.8060, 9358.000
307.0150, 9361.000
308.2250, 9486.000
309.4340, 9382.000
310.6430, 9359.000
311.8520, 9366.000
313.0610, 9417.000
314.2700, 9412.153
315.4780, 9426.446
316.6860, 9454.000
317.8940, 9425.000
319.1020, 9446.000
320.3100, 9427.990
321.5180, 9396.000
322.7250, 9439.000
323.9330, 9469.000
325.1400, 9488.000
326.3470, 9527.000
327.5540, 9655.000
328.7600, 9648.000
329.9670, 9743.000
331.1730, 9713.000
332.3800, 9736.000
333.5860, 9711.000
334.7920, 9757.000
335.9970, 9666.000
337.2030, 9751.000
338.4080, 9676.000
339.6140, 9756.000
340.8190, 9708.000
342.0240, 9851.000
343.2290, 9762.000
344.4330, 9917.000
345.6380, 9834.000
346.8420, 9731.000
348.0460, 9746.000
349.2500, 9813.000
350.4540, 9849.000
351.6580, 9893.000
352.8610, 9908.284
354.0650, 9918.000
355.2680, 9936.000
356.4710, 9852.000
357.6740, 9895.000
358.8760, 9911.000
360.0790, 10002.00
361.2810, 9913.000
362.4840, 9877.000
363.6860, 9918.000
364.8880, 9874.000
366.0900, 10034.00
367.2910, 9900.000
368.4930, 10026.00
369.6940, 10005.00
370.8950, 9990.000
372.0960, 9991.000
373.2970, 10066.00
374.4980, 10071.27
375.6980, 9982.000
376.8980, 10167.00
378.0990, 10101.00
379.2990, 10180.00
380.4980, 10032.00
381.6980, 10184.00
382.8980, 10158.00
384.0970, 10222.00
385.2960, 10228.00
386.4950, 10205.00
387.6940, 10301.00
388.8930, 10246.00
390.0920, 10254.00
391.2900, 10263.00
392.4880, 10113.00
393.6860, 10359.00
394.8840, 10271.00
396.0820, 10336.00
397.2800, 10222.00
398.4770, 10286.00
399.6750, 10254.00
400.8720, 10406.00
402.0690, 10329.00
403.2660, 10464.00
404.4620, 10362.00
405.6590, 10194.00
406.8550, 10492.00
408.0510, 10402.00
409.2480, 10483.00
410.4430, 10513.00
411.6390, 10363.00
412.8350, 10489.00
414.0300, 10579.00
415.2250, 10529.00
416.4200, 10516.00
417.6150, 10649.00
418.8100, 10472.00
420.0050, 10484.00
421.1990, 10423.00
422.3940, 10353.00
423.5880, 10427.00
424.7820, 10485.00
425.9750, 10548.00
427.1690, 10555.99
428.3630, 10529.00
429.5560, 10544.00
430.7490, 10541.00
431.9420, 10517.00
433.1350, 10705.00
434.3280, 10609.00
435.5200, 10511.00
436.7130, 10577.00
437.9050, 10779.00
439.0970, 10863.00
440.2890, 10748.00
441.4810, 10793.00
442.6720, 10679.00
443.8640, 10902.00
445.0550, 10852.00
446.2460, 10842.00
447.4370, 10684.00
448.6280, 10841.00
449.8180, 10761.00
451.0090, 10945.00
452.1990, 10913.00
453.3890, 10958.00
454.5790, 10906.00
455.7690, 11020.00
456.9590, 10961.00
458.1480, 10858.00
459.3380, 10980.00
460.5270, 10934.00
461.7160, 11086.00
462.9050, 11062.00
464.0940, 11082.00
465.2820, 11109.00
466.4700, 10983.00
467.6590, 11194.00
468.8470, 11037.00
470.0350, 11227.00
471.2220, 11094.00
472.4100, 11220.00
473.5970, 11137.00
474.7850, 11083.00
475.9720, 11274.00
477.1590, 11198.00
478.3460, 11152.00
479.5320, 11282.00
480.7190, 11135.00
481.9050, 11192.00
483.0910, 11233.00
484.2770, 11236.00
485.4630, 11294.00
486.6490, 11295.35
487.8340, 11336.70
489.0200, 11310.00
490.2050, 11380.00
491.3900, 11386.00
492.5750, 11341.00
493.7600, 11384.00
494.9440, 11264.00
496.1290, 11422.00
497.3130, 11470.00
498.4970, 11267.00
499.6810, 11496.00
500.8650, 11439.00
502.0480, 11445.00
503.2320, 11517.00
504.4150, 11406.00
505.5980, 11495.00
506.7810, 11553.00
507.9640, 11512.00
509.1460, 11563.00
510.3290, 11615.00
511.5110, 11525.00
512.6930, 11606.00
513.8750, 11508.00
515.0570, 11707.00
516.2390, 11664.00
517.4210, 11584.00
518.6020, 11725.00
519.7830, 11698.00
520.9640, 11675.00
522.1450, 11631.00
523.3260, 11678.00
524.5060, 11745.00
525.6870, 11794.00
526.8670, 11811.00
528.0470, 11803.00
529.2270, 11865.00
530.4070, 11799.00
531.5870, 11745.00
532.7660, 11764.00
533.9450, 11730.00
535.1240, 11753.00
536.3030, 11791.00
537.4820, 11730.00
538.6610, 11834.00
539.8390, 11759.00
541.0180, 11901.00
542.1960, 11990.00
543.3740, 11915.00
544.5520, 11921.00
545.7290, 11938.00
546.9070, 11960.00
548.0840, 11996.00
549.2620, 11944.00
550.4390, 12005.00
551.6160, 12001.00
552.7920, 12048.00
553.9690, 11977.00
555.1450, 12102.00
556.3220, 12006.00
557.4980, 12005.00
558.6740, 12117.00
559.8490, 12062.00
561.0250, 11964.00
562.2000, 12096.00
563.3760, 12306.00
564.5510, 12125.00
565.7260, 12147.00
566.9010, 12106.00
568.0750, 12110.00
569.2500, 12255.00
570.4240, 12244.00
571.5980, 12285.00
572.7720, 12212.00
573.9460, 12317.00
575.1200, 12204.00
576.2930, 12290.00
577.4670, 12251.00
578.6400, 12254.62
579.8130, 12309.77
580.9860, 12311.00
582.1590, 12371.00
583.3310, 12467.00
584.5040, 12457.00
585.6760, 12445.00
586.8480, 12616.00
588.0200, 12547.97
589.1920, 12443.00
590.3630, 12508.00
591.5350, 12536.00
592.7060, 12468.00
593.8770, 12545.00
595.0480, 12578.00
596.2190, 12465.00
597.3900, 12678.00
598.5600, 12504.00
599.7310, 12562.00
600.9010, 12650.00
602.0710, 12606.00
603.2410, 12762.00
604.4100, 12613.00
605.5800, 12772.00
606.7490, 12643.00
607.9190, 12821.00
609.0880, 12602.00
610.2570, 12669.00
611.4250, 12703.00
612.5940, 12745.00
613.7620, 12879.00
614.9310, 12851.00
616.0990, 12904.01
617.2670, 12988.00
618.4340, 12929.00
619.6020, 12939.00
620.7690, 12947.00
621.9370, 13106.00
623.1040, 13164.00
624.2710, 13192.00
625.4380, 13058.00
626.6040, 13148.00
627.7710, 13070.00
628.9370, 13175.00
630.1030, 13139.00
631.2690, 13075.00
632.4350, 13084.00
633.6010, 13101.07
634.7660, 13096.01
635.9320, 13130.38
637.0970, 13124.00
638.2620, 13190.00
639.4270, 13180.00
640.5920, 13201.00
641.7560, 13258.00
642.9210, 13213.00
644.0850, 13224.00
645.2490, 13134.00
646.4130, 13283.00
647.5770, 13256.00
648.7400, 13550.00
649.9040, 13267.00
651.0670, 13411.00
652.2300, 13430.00
653.3930, 13241.00
654.5560, 13284.00
655.7190, 13492.00
656.8810, 13271.00
658.0440, 13383.00
659.2060, 13374.00
660.3680, 13340.00
661.5300, 13440.00
662.6910, 13322.00
663.8530, 13384.00
665.0140, 13305.00
666.1750, 13487.00
667.3360, 13418.00
668.4970, 13347.00
669.6580, 13352.00
670.8190, 13308.07
671.9790, 13528.00
673.1390, 13304.00
674.2990, 13539.00
675.4590, 13605.00
676.6190, 13401.00
677.7790, 13559.00
678.9380, 13477.00
680.0970, 13610.00
681.2570, 13639.00
682.4160, 13740.00
683.5740, 13648.00
684.7330, 13790.00
685.8920, 13671.00
687.0500, 13714.00
688.2080, 13652.00
689.3660, 13621.00
690.5240, 13781.00
691.6820, 13640.00
692.8390, 13737.00
693.9960, 13665.00
695.1540, 13681.79
696.3110, 13626.00
697.4680, 13778.00
698.6240, 13745.00
699.7810, 13894.00
700.9370, 13956.00
702.0940, 13967.00
703.2500, 13963.00
704.4060, 13918.00
705.5610, 13879.00
706.7170, 13896.00
707.8720, 13890.81
709.0280, 13880.52
710.1830, 13932.00
711.3380, 13902.00
712.4920, 13913.00
713.6470, 13985.00
714.8020, 14099.00
715.9560, 14102.00
717.1100, 13933.00
718.2640, 13990.00
719.4180, 14162.00
720.5720, 14257.00
721.7250, 14053.00
722.8780, 14077.00
724.0320, 14090.00
725.1850, 14155.00
726.3380, 14126.00
727.4900, 14162.00
728.6430, 14237.00
729.7950, 14193.00
730.9470, 14294.00
732.1000, 14297.00
733.2510, 14342.00
734.4030, 14305.00
735.5550, 14305.00
736.7060, 14224.00
737.8570, 14459.00
739.0090, 14529.00
740.1600, 14414.00
741.3100, 14405.00
742.4610, 14391.00
743.6110, 14468.00
744.7620, 14441.00
745.9120, 14554.00
747.0620, 14380.00
748.2120, 14421.00
749.3610, 14514.00
750.5110, 14453.00
751.6600, 14521.00
752.8090, 14402.00
753.9580, 14637.00
755.1070, 14537.00
756.2560, 14687.00
757.4050, 14693.00
758.5530, 14596.00
759.7010, 14646.00
760.8490, 14548.00
761.9970, 14762.00
763.1450, 14908.00
764.2920, 14615.00
765.4400, 14798.00
766.5870, 14844.00
767.7340, 14798.00
768.8810, 14822.00
770.0280, 14875.00
771.1740, 14805.00
772.3210, 14875.00
773.4670, 14992.00
774.6130, 14962.00
775.7590, 14966.00
776.9050, 14951.00
778.0510, 14893.00
779.1960, 14801.00
780.3420, 14872.00
781.4870, 14895.00
782.6320, 15078.00
783.7770, 14980.00
784.9210, 15027.00
786.0660, 15100.00
787.2100, 15088.00
788.3540, 15182.00
789.4980, 15073.00
790.6420, 14974.00
791.7860, 15105.00
792.9300, 15187.00
794.0730, 15169.00
795.2160, 15482.00
796.3590, 15221.00
797.5020, 15236.00
798.6450, 15166.00
799.7880, 15374.00
800.9300, 15417.00
802.0720, 15335.00
803.2150, 15316.00
804.3560, 15203.00
805.4980, 15249.74
806.6400, 15313.00
807.7810, 15344.00
808.9230, 15419.00
810.0640, 15494.00
811.2050, 15443.00
812.3460, 15541.00
813.4860, 15614.00
814.6270, 15506.00
815.7670, 15570.00
816.9070, 15471.00
818.0470, 15490.00
819.1870, 15539.00
820.3270, 15733.00
821.4670, 15621.00
822.6060, 15690.00
823.7450, 15707.00
824.8840, 15719.00
826.0230, 15718.00
827.1620, 15604.00
828.3010, 15914.00
829.4390, 15611.00
830.5770, 15872.00
831.7150, 15650.00
832.8530, 15834.00
833.9910, 15854.00
835.1290, 15913.00
836.2660, 15754.00
837.4030, 16055.00
838.5410, 15863.00
839.6780, 15843.00
840.8140, 16015.00
841.9510, 16007.00
843.0870, 15946.00
844.2240, 16076.00
845.3600, 16040.00
846.4960, 16078.00
847.6320, 16132.00
848.7680, 16062.00
849.9030, 15931.00
851.0380, 16237.00
852.1740, 16161.00
853.3090, 16272.00
854.4440, 16372.00
855.5780, 16215.00
856.7130, 16486.00
857.8470, 16340.00
858.9820, 16501.00
860.1160, 16409.00
861.2500, 16321.00
862.3830, 16325.00
863.5170, 16588.00
864.6500, 16351.00
865.7840, 16412.00
866.9170, 16439.00
868.0500, 16349.00
869.1830, 16376.00
870.3150, 16434.00
871.4480, 16411.00
872.5800, 16344.00
873.7120, 16468.00
874.8440, 16441.00
875.9760, 16266.00
877.1080, 16443.00
878.2390, 16551.00
879.3710, 16417.00
880.5020, 16534.00
881.6330, 16554.00
882.7640, 16412.00
883.8940, 16591.00
885.0250, 16569.00
886.1550, 16641.00
887.2850, 16544.00
888.4160, 16534.00
889.5450, 16612.00
890.6750, 16707.00
891.8050, 16546.00
892.9340, 16856.00
894.0630, 16792.00
895.1930, 16824.00
896.3220, 16714.00
897.4500, 16737.00
898.5790, 16785.00
899.7070, 16602.00
900.8360, 16839.00
901.9640, 16819.00
903.0920, 16777.00
904.2200, 16900.00
905.3470, 16751.00
906.4750, 17047.00
907.6020, 16835.00
908.7290, 16874.00
909.8560, 16832.00
910.9830, 17086.00
912.1100, 16920.00
913.2360, 16963.00
914.3630, 17058.00
915.4890, 17037.00
916.6150, 17030.00
917.7410, 16825.00
918.8670, 17093.00
919.9920, 17033.00
921.1180, 17013.00
922.2430, 17176.00
923.3680, 17073.00
924.4930, 17042.00
925.6180, 17144.00
926.7420, 17346.00
927.8670, 17321.94
928.9910, 17392.21
930.1150, 17409.00
931.2390, 17344.00
932.3630, 17388.00
933.4860, 17250.00
934.6100, 17410.00
935.7330, 17267.00
936.8560, 17392.00
937.9790, 17448.00
939.1020, 17309.00
940.2250, 17448.00
941.3470, 17407.00
942.4700, 17421.00
943.5920, 17487.00
944.7140, 17364.00
945.8360, 17371.00
946.9570, 17474.00
948.0790, 17503.00
949.2000, 17617.00
950.3220, 17573.00
951.4430, 17521.00
952.5640, 17423.00
953.6840, 17664.00
954.8050, 17623.00
955.9250, 17633.00
957.0460, 17659.00
958.1660, 17661.00
959.2860, 17682.99
960.4050, 17701.00
961.5250, 17708.00
962.6440, 17699.00
963.7640, 17685.93
964.8830, 17835.00
966.0020, 17801.00
967.1210, 17788.00
968.2390, 17949.00
969.3580, 17970.00
970.4760, 17820.00
971.5940, 18030.00
972.7120, 17853.00
973.8300, 17903.00
974.9480, 17983.00
976.0650, 17970.00
977.1830, 18035.00
978.3000, 17983.00
979.4170, 18073.00
980.5340, 18052.39
981.6500, 17981.00
982.7670, 18076.00
983.8830, 18043.00
985.0000, 18116.00
986.1160, 18035.00
987.2320, 18234.00
988.3470, 18192.00
989.4630, 18230.00
990.5780, 18216.00
991.6940, 18257.00
992.8090, 18210.00
993.9240, 18284.00
995.0380, 18205.00
996.1530, 18182.00
997.2680, 18299.00
998.3820, 18451.00
999.4960, 18419.00
1000.610, 18457.00
1001.724, 18587.00
1002.837, 18501.00
1003.951, 18524.00
1005.064, 18452.00
1006.177, 18453.00
1007.291, 18503.00
1008.403, 18631.00
1009.516, 18637.00
1010.629, 18352.00
1011.741, 18540.00
1012.853, 18495.00
1013.965, 18586.00
1015.077, 18702.00
1016.189, 18721.00
1017.300, 18732.00
1018.412, 18818.00
1019.523, 18938.00
1020.634, 18720.00
1021.745, 18857.00
1022.856, 18978.00
1023.966, 18697.00
1025.077, 18875.00
1026.187, 18892.00
1027.297, 18757.00
1028.407, 18756.00
1029.517, 18765.00
1030.627, 18808.00
1031.736, 19033.00
1032.845, 18873.00
1033.955, 18834.00
1035.064, 19091.00
1036.172, 19033.00
1037.281, 18979.00
1038.390, 19053.00
1039.498, 19021.00
1040.606, 19122.00
1041.714, 19088.00
1042.822, 19206.00
1043.930, 19227.43
1045.037, 19079.00
1046.145, 19252.00
1047.252, 19258.00
1048.359, 19150.00
1049.466, 19255.00
1050.573, 19181.00
1051.679, 19281.00
1052.786, 19236.00
1053.892, 19443.00
1054.998, 19460.00
1056.104, 19451.00
1057.210, 19379.00
1058.315, 19608.00
1059.421, 19555.00
1060.526, 19630.00
1061.631, 19535.00
1062.736, 19649.00
1063.841, 19445.00
1064.946, 19649.00
1066.050, 19617.00
1067.154, 19582.00
1068.258, 19441.00
1069.362, 19603.00
1070.466, 19624.00
1071.570, 19507.00
1072.674, 19623.00
1073.777, 19698.00
1074.880, 19748.00
1075.983, 19704.00
1077.086, 19818.00
1078.189, 19755.00
1079.291, 19776.00
1080.394, 19786.00
1081.496, 19905.00
1082.598, 19766.00
1083.700, 19694.00
1084.802, 19862.00
1085.903, 19932.00
1087.005, 19790.00
1088.106, 19886.00
1089.207, 20050.00
1090.308, 19967.00
1091.409, 19944.00
1092.509, 19997.00
1093.610, 20022.00
1094.710, 19936.00
1095.810, 20040.00
1096.910, 20068.00
1098.010, 20058.55
1099.110, 19990.00
1100.209, 20085.00
1101.309, 20085.00
1102.408, 20105.00
1103.507, 20311.00
1104.606, 20112.00
1105.704, 20364.00
1106.803, 20383.00
1107.901, 20320.00
1108.999, 20420.00
1110.097, 20396.72
1111.195, 20498.00
1112.293, 20396.00
1113.391, 20376.00
1114.488, 20308.00
1115.585, 20470.00
1116.682, 20445.00
1117.779, 20482.00
1118.876, 20241.00
1119.973, 20782.00
1121.069, 20393.00
1122.165, 20501.00
1123.261, 20570.00
1124.357, 20493.00
1125.453, 20777.00
1126.549, 20773.00
1127.644, 20806.00
1128.739, 20932.00
1129.835, 20756.00
1130.930, 20910.00
1132.024, 20633.00
1133.119, 20735.00
1134.214, 20798.00
1135.308, 20734.00
1136.402, 20692.00
1137.496, 20735.00
1138.590, 20855.00
1139.684, 20951.00
1140.777, 20879.00
1141.871, 20869.00
1142.964, 20825.00
1144.057, 20920.00
1145.150, 20840.00
1146.243, 20859.00
1147.335, 20946.00
1148.428, 20875.00
1149.520, 20881.00
1150.612, 20933.00
1151.704, 20961.00
1152.796, 21018.00
1153.887, 21070.00
1154.979, 21085.19
1156.070, 21160.69
1157.161, 21143.00
1158.252, 21270.00
1159.343, 21356.00
1160.433, 21376.00
1161.524, 21214.00
1162.614, 21325.00
1163.704, 21274.00
1164.794, 21240.00
1165.884, 21338.00
1166.974, 21449.00
1168.063, 21471.00
1169.153, 21285.00
1170.242, 21372.00
1171.331, 21375.00
1172.420, 21237.00
1173.508, 21424.00
1174.597, 21448.00
1175.685, 21492.00
1176.774, 21581.74
1177.862, 21535.00
1178.950, 21680.00
1180.037, 21583.00
1181.125, 21611.00
1182.212, 21624.00
1183.300, 21672.00
1184.387, 21556.00
1185.474, 21634.00
1186.560, 21651.00
1187.647, 21780.00
1188.733, 21555.00
1189.820, 21690.00
1190.906, 21576.00
1191.992, 21765.00
1193.078, 21846.00
1194.163, 21656.00
1195.249, 21804.00
1196.334, 21808.00
1197.419, 21766.00
1198.504, 21773.00
1199.589, 21963.00
1200.674, 21864.00
1201.758, 21807.00
1202.843, 21991.00
1203.927, 21992.00
1205.011, 22006.00
1206.095, 21982.00
1207.179, 22188.00
1208.262, 22011.00
1209.345, 22126.00
1210.429, 22007.00
1211.512, 22068.00
1212.595, 22144.00
1213.677, 22210.00
1214.760, 22204.00
1215.842, 21974.00
1216.925, 22308.00
1218.007, 22235.00
1219.089, 22356.00
1220.171, 22503.00
1221.252, 22272.00
1222.334, 22285.00
1223.415, 22358.00
1224.496, 22490.00
1225.577, 22576.00
1226.658, 22363.00
1227.738, 22407.00
1228.819, 22603.00
1229.899, 22445.00
1230.979, 22577.00
1232.060, 22354.00
1233.139, 22666.00
1234.219, 22572.00
1235.299, 22651.00
1236.378, 22762.00
1237.457, 22629.00
1238.536, 22713.00
1239.615, 22786.00
1240.694, 22697.00
1241.772, 22745.00
1242.851, 22630.00
1243.929, 22658.27
1245.007, 22790.00
1246.085, 22672.00
1247.163, 22783.00
1248.240, 22780.00
1249.318, 22757.00
1250.395, 22813.00
1251.472, 22700.00
1252.549, 23007.00
1253.626, 23057.00
1254.703, 22936.00
1255.779, 23105.00
1256.855, 22938.00
1257.931, 23200.00
1259.007, 23183.00
1260.083, 23320.00
1261.159, 23251.00
1262.234, 23230.00
1263.310, 23197.00
1264.385, 23035.00
1265.460, 23237.00
1266.535, 23381.00
1267.610, 23253.00
1268.684, 23427.00
1269.758, 23367.00
1270.833, 23213.00
1271.907, 23479.00
1272.981, 23337.00
1274.054, 23282.00
1275.128, 23534.00
1276.201, 23592.00
1277.275, 23354.00
1278.348, 23309.00
1279.421, 23517.00
1280.493, 23521.00
1281.566, 23484.00
1282.638, 23518.00
1283.711, 23584.00
1284.783, 23630.00
1285.855, 23643.00
1286.927, 23742.00
1287.998, 23761.74
1289.070, 23934.00
1290.141, 23852.00
1291.212, 24024.00
1292.283, 24096.00
1293.354, 24046.00
1294.425, 24185.00
1295.495, 24075.00
1296.566, 23914.00
1297.636, 24048.00
1298.706, 23851.00
1299.776, 23987.00
1300.845, 24088.00
1301.915, 24055.00
1302.984, 24132.00
1304.054, 24171.00
1305.123, 24126.00
1306.191, 24255.00
1307.260, 24277.00
1308.329, 24203.00
1309.397, 24229.00
1310.465, 24392.00
1311.534, 24393.00
1312.602, 24363.00
1313.669, 24619.00
1314.737, 24707.00
1315.804, 24556.00
1316.872, 24543.00
1317.939, 24655.00
1319.006, 24627.00
1320.073, 24814.00
1321.139, 24968.00
1322.206, 25148.00
1323.272, 25467.00
1324.338, 25887.00
1325.404, 26729.00
1326.470, 28907.00
1327.536, 33997.00
1328.601, 40010.00
1329.667, 44819.00
1330.732, 49301.00
1331.797, 50802.00
1332.862, 48060.00
1333.926, 42430.00
1334.991, 36020.00
1336.055, 30686.00
1337.120, 27601.00
1338.184, 26422.00
1339.248, 25591.00
1340.311, 25323.00
1341.375, 25370.00
1342.438, 25288.00
1343.502, 25088.00
1344.565, 25077.00
1345.628, 24993.00
1346.691, 25048.00
1347.753, 24955.00
1348.816, 24906.00
1349.878, 25067.00
1350.940, 25122.00
1352.002, 25099.00
1353.064, 24920.00
1354.126, 25033.00
1355.187, 25054.00
1356.248, 25255.00
1357.310, 25028.00
1358.371, 25141.00
1359.431, 25129.00
1360.492, 25040.00
1361.553, 25091.00
1362.613, 25063.96
1363.673, 25278.00
1364.733, 25120.00
1365.793, 25219.00
1366.853, 25345.00
1367.912, 25326.00
1368.972, 25362.00
1370.031, 25367.94
1371.090, 25488.00
1372.149, 25322.00
1373.208, 25416.00
1374.267, 25385.00
1375.325, 25228.00
1376.383, 25535.00
1377.441, 25390.00
1378.499, 25399.00
1379.557, 25757.00
1380.615, 25474.00
1381.672, 25659.00
1382.730, 25483.00
1383.787, 25386.00
1384.844, 25445.00
1385.901, 25395.00
1386.957, 25651.00
1388.014, 25482.00
1389.070, 25756.00
1390.126, 25787.00
1391.182, 25632.00
1392.238, 25736.00
1393.294, 25681.00
1394.349, 25942.00
1395.405, 25937.00
1396.460, 25691.00
1397.515, 25919.00
1398.570, 25857.00
1399.625, 25868.00
1400.679, 25937.00
1401.734, 25843.00
1402.788, 25899.00
1403.842, 26050.00
1404.896, 25944.00
1405.950, 25849.00
1407.003, 26064.00
1408.057, 26190.00
1409.110, 26191.00
1410.163, 26195.00
1411.216, 26087.00
1412.269, 26204.00
1413.322, 26116.00
1414.374, 26378.00
1415.427, 26433.00
1416.479, 26394.00
1417.531, 26236.00
1418.583, 26362.00
1419.634, 26377.00
1420.686, 26308.00
1421.737, 26460.00
1422.788, 26542.00
1423.839, 26301.00
1424.890, 26521.00
1425.941, 26384.00
1426.992, 26268.00
1428.042, 26633.00
1429.092, 26677.00
1430.142, 26568.00
1431.192, 26739.00
1432.242, 26644.00
1433.291, 26829.00
1434.341, 26939.00
1435.390, 27051.00
1436.439, 27098.75
1437.488, 27025.00
1438.537, 27071.00
1439.586, 27105.24
1440.634, 27142.00
1441.682, 27190.00
1442.731, 27214.00
1443.779, 27214.00
1444.826, 27151.00
1445.874, 27151.00
1446.922, 27419.00
1447.969, 27157.00
1449.016, 27419.00
1450.063, 27352.00
1451.110, 27378.00
1452.157, 27191.00
1453.203, 27473.00
1454.250, 27510.00
1455.296, 27389.00
1456.342, 27488.00
1457.388, 27507.00
1458.433, 27496.00
1459.479, 27265.00
1460.524, 27624.00
1461.570, 27485.00
1462.615, 27424.00
1463.660, 27727.00
1464.705, 27428.00
1465.749, 27670.00
1466.794, 27692.00
1467.838, 27514.00
1468.882, 27299.00
1469.926, 27732.00
1470.970, 27720.00
1472.013, 27729.00
1473.057, 27506.00
1474.100, 27396.00
1475.143, 27573.00
1476.186, 27536.00
1477.229, 27631.00
1478.272, 27547.00
1479.314, 27625.00
1480.357, 27755.00
1481.399, 27691.00
1482.441, 27765.00
1483.483, 27718.00
1484.525, 27775.00
1485.566, 27697.00
1486.608, 27734.97
1487.649, 27797.00
1488.690, 27809.00
1489.731, 27798.00
1490.771, 27904.00
1491.812, 27908.56
1492.853, 27732.00
1493.893, 27988.00
1494.933, 27885.00
1495.973, 27902.00
1497.013, 28041.00
1498.052, 27958.00
1499.092, 28086.00
1500.131, 28230.00
1501.170, 27935.00
1502.209, 27965.00
1503.248, 28024.00
1504.287, 28181.00
1505.325, 28116.00
1506.363, 28169.00
1507.402, 28248.00
1508.440, 28081.00
1509.478, 28341.00
1510.515, 28389.00
1511.553, 28192.00
1512.590, 28282.00
1513.627, 28237.00
1514.664, 28387.00
1515.701, 28366.00
1516.738, 28400.00
1517.775, 28379.00
1518.811, 28394.00
1519.847, 28332.00
1520.883, 28451.00
1521.919, 28309.00
1522.955, 28534.00
1523.991, 28515.00
1525.026, 28595.00
1526.061, 28549.00
1527.096, 28543.00
1528.131, 28525.00
1529.166, 28515.53
1530.201, 28745.00
1531.235, 28604.00
1532.270, 28805.00
1533.304, 29060.00
1534.338, 28681.00
1535.372, 28870.00
1536.405, 28975.00
1537.439, 28754.00
1538.472, 28793.00
1539.505, 29078.00
1540.538, 28939.00
1541.571, 29034.00
1542.604, 29031.00
1543.637, 29162.00
1544.669, 29191.00
1545.701, 29008.00
1546.733, 29095.00
1547.765, 29306.00
1548.797, 29066.00
1549.829, 28896.00
1550.860, 29282.00
1551.891, 29166.00
1552.922, 29235.00
1553.953, 29136.00
1554.984, 29334.00
1556.015, 29277.00
1557.045, 29312.00
1558.076, 29510.00
1559.106, 29409.00
1560.136, 29369.00
1561.165, 29500.00
1562.195, 29538.00
1563.225, 29384.00
1564.254, 29405.00
1565.283, 29609.00
##END=



