##NAMES=Diamond
##RRUFFID=R050204
##IDEAL CHEMISTRY=C
##LOCALITY=Unknown
##OWNER=RRUFF
##SOURCE=Eric Van Valkenburg
##DESCRIPTION=Single crystal, type IIA
##STATUS=The identification of this mineral has been confirmed by single-crystal X-ray diffraction.
##URL=rruff.info/R050204
##PIN_ID=M01891
##ORIENTATION=Laser parallel to a* (1 0 0). Fiducial mark perpendicular to laser is parallel to b [0 1 0]
170.5590, 7649.000
171.7860, 7656.000
173.0130, 7666.823
174.2400, 7806.000
175.4670, 7663.000
176.6930, 7664.000
177.9200, 7630.000
179.1460, 7872.000
180.3720, 7724.000
181.5980, 7880.000
182.8230, 7829.000
184.0490, 7817.000
185.2740, 7891.000
186.5000, 7910.000
187.7250, 7839.000
188.9500, 7976.000
190.1740, 7868.000
191.3990, 8044.000
192.6230, 7968.000
193.8480, 7928.000
195.0720, 7935.000
196.2960, 8017.000
197.5200, 7842.000
198.7430, 8027.000
199.9670, 8128.000
201.1900, 8037.000
202.4130, 8152.000
203.6360, 8051.000
204.8590, 8075.000
206.0820, 8089.000
207.3050, 8156.000
208.5270, 8093.000
209.7490, 8066.000
210.9710, 8170.000
212.1930, 8171.000
213.4150, 8149.000
214.6370, 8086.000
215.8580, 8131.000
217.0790, 8161.000
218.3010, 8140.000
219.5210, 8219.000
220.7420, 8284.000
221.9630, 8167.000
223.1830, 8185.000
224.4040, 8335.000
225.6240, 8302.000
226.8440, 8299.000
228.0640, 8271.000
229.2840, 8316.000
230.5030, 8351.000
231.7230, 8263.000
232.9420, 8473.000
234.1610, 8380.000
235.3800, 8428.000
236.5990, 8383.000
237.8170, 8368.000
239.0360, 8297.000
240.2540, 8490.000
241.4720, 8325.000
242.6900, 8424.000
243.9080, 8361.000
245.1250, 8414.000
246.3430, 8339.000
247.5600, 8522.000
248.7770, 8413.000
249.9940, 8422.000
251.2110, 8573.000
252.4280, 8551.000
253.6450, 8470.000
254.8610, 8533.000
256.0770, 8474.000
257.2930, 8563.000
258.5090, 8667.000
259.7250, 8535.000
260.9400, 8578.000
262.1560, 8576.000
263.3710, 8658.000
264.5860, 8736.000
265.8010, 8557.000
267.0160, 8657.000
268.2310, 8548.000
269.4450, 8659.000
270.6600, 8625.000
271.8740, 8633.000
273.0880, 8719.000
274.3020, 8659.000
275.5150, 8777.000
276.7290, 8739.484
277.9420, 8647.000
279.1550, 8718.000
280.3680, 8700.000
281.5810, 8718.000
282.7940, 8747.000
284.0070, 8719.000
285.2190, 8760.000
286.4310, 8786.000
287.6430, 8830.000
288.8550, 8709.000
290.0670, 8838.000
291.2790, 8759.000
292.4900, 8782.000
293.7020, 8862.000
294.9130, 8787.000
296.1240, 8832.000
297.3350, 8908.000
298.5450, 8932.000
299.7560, 8949.529
300.9660, 8960.000
302.1760, 8934.000
303.3860, 8879.000
304.5960, 8828.000
305.8060, 8958.000
307.0150, 8966.000
308.2250, 8884.000
309.4340, 8977.000
310.6430, 8895.000
311.8520, 9062.000
313.0610, 9002.000
314.2700, 9063.000
315.4780, 8966.000
316.6860, 8950.000
317.8940, 8949.000
319.1020, 8976.000
320.3100, 9025.000
321.5180, 8994.000
322.7250, 9197.000
323.9330, 9090.000
325.1400, 9124.000
326.3470, 9098.000
327.5540, 9028.000
328.7600, 9123.000
329.9670, 9141.000
331.1730, 9155.000
332.3800, 9244.000
333.5860, 9164.000
334.7920, 9150.000
335.9970, 9237.000
337.2030, 9065.000
338.4080, 9233.000
339.6140, 9200.000
340.8190, 9248.000
342.0240, 9245.000
343.2290, 9185.000
344.4330, 9171.000
345.6380, 9269.000
346.8420, 9325.000
348.0460, 9268.000
349.2500, 9321.000
350.4540, 9362.000
351.6580, 9448.000
352.8610, 9212.000
354.0650, 9403.000
355.2680, 9366.000
356.4710, 9514.000
357.6740, 9368.000
358.8760, 9372.000
360.0790, 9259.000
361.2810, 9385.000
362.4840, 9308.000
363.6860, 9307.000
364.8880, 9422.000
366.0900, 9463.000
367.2910, 9450.000
368.4930, 9435.000
369.6940, 9423.000
370.8950, 9424.305
372.0960, 9428.000
373.2970, 9409.000
374.4980, 9493.000
375.6980, 9443.000
376.8980, 9468.000
378.0990, 9648.000
379.2990, 9598.000
380.4980, 9595.000
381.6980, 9509.000
382.8980, 9637.000
384.0970, 9703.000
385.2960, 9659.000
386.4950, 9646.000
387.6940, 9798.000
388.8930, 9557.000
390.0920, 9725.000
391.2900, 9606.000
392.4880, 9764.000
393.6860, 9556.000
394.8840, 9771.000
396.0820, 9723.000
397.2800, 9696.000
398.4770, 9762.000
399.6750, 9745.000
400.8720, 9730.000
402.0690, 9695.000
403.2660, 9714.000
404.4620, 9721.000
405.6590, 9715.000
406.8550, 9813.000
408.0510, 9919.000
409.2480, 9728.000
410.4430, 9847.000
411.6390, 9675.000
412.8350, 9781.000
414.0300, 9838.000
415.2250, 9785.000
416.4200, 9870.000
417.6150, 9878.000
418.8100, 9852.000
420.0050, 9884.000
421.1990, 9856.000
422.3940, 9932.000
423.5880, 9984.000
424.7820, 9835.000
425.9750, 9920.000
427.1690, 9832.000
428.3630, 9954.000
429.5560, 9911.000
430.7490, 9903.000
431.9420, 9958.000
433.1350, 9967.000
434.3280, 9974.000
435.5200, 10061.00
436.7130, 10019.00
437.9050, 10045.00
439.0970, 10035.00
440.2890, 10147.00
441.4810, 10143.00
442.6720, 10150.00
443.8640, 10142.00
445.0550, 10063.00
446.2460, 10067.00
447.4370, 10151.00
448.6280, 10082.00
449.8180, 10009.00
451.0090, 10161.00
452.1990, 10193.00
453.3890, 10186.00
454.5790, 10148.00
455.7690, 10214.00
456.9590, 10235.00
458.1480, 10224.00
459.3380, 10182.00
460.5270, 10163.00
461.7160, 10291.00
462.9050, 10371.00
464.0940, 10337.00
465.2820, 10324.00
466.4700, 10279.00
467.6590, 10361.00
468.8470, 10366.00
470.0350, 10337.00
471.2220, 10293.00
472.4100, 10424.00
473.5970, 10182.00
474.7850, 10355.00
475.9720, 10462.00
477.1590, 10379.00
478.3460, 10500.00
479.5320, 10475.00
480.7190, 10494.00
481.9050, 10598.00
483.0910, 10350.00
484.2770, 10515.00
485.4630, 10515.00
486.6490, 10411.00
487.8340, 10464.00
489.0200, 10514.00
490.2050, 10410.00
491.3900, 10641.00
492.5750, 10544.00
493.7600, 10591.00
494.9440, 10539.00
496.1290, 10521.00
497.3130, 10585.00
498.4970, 10718.00
499.6810, 10661.00
500.8650, 10576.00
502.0480, 10655.00
503.2320, 10830.00
504.4150, 10766.00
505.5980, 10758.00
506.7810, 10748.00
507.9640, 10642.00
509.1460, 10707.00
510.3290, 10780.00
511.5110, 10775.00
512.6930, 10968.00
513.8750, 10783.00
515.0570, 10807.00
516.2390, 10715.00
517.4210, 10820.00
518.6020, 10787.00
519.7830, 10897.00
520.9640, 10800.00
522.1450, 10896.00
523.3260, 10855.00
524.5060, 10949.00
525.6870, 10917.00
526.8670, 10936.00
528.0470, 10876.00
529.2270, 10969.00
530.4070, 10915.00
531.5870, 11028.00
532.7660, 11040.00
533.9450, 10958.00
535.1240, 10927.00
536.3030, 10896.00
537.4820, 10917.42
538.6610, 11011.00
539.8390, 11031.00
541.0180, 11005.00
542.1960, 11106.00
543.3740, 11123.00
544.5520, 11108.00
545.7290, 11200.00
546.9070, 11107.00
548.0840, 11138.00
549.2620, 11102.00
550.4390, 11102.00
551.6160, 11077.00
552.7920, 11176.00
553.9690, 11103.00
555.1450, 11141.00
556.3220, 11197.00
557.4980, 11193.00
558.6740, 11254.00
559.8490, 11246.00
561.0250, 11222.00
562.2000, 11190.00
563.3760, 11272.00
564.5510, 11210.75
565.7260, 11255.00
566.9010, 11182.00
568.0750, 11216.00
569.2500, 11254.00
570.4240, 11223.00
571.5980, 11257.00
572.7720, 11398.00
573.9460, 11461.00
575.1200, 11408.00
576.2930, 11348.00
577.4670, 11360.30
578.6400, 11484.00
579.8130, 11340.00
580.9860, 11450.00
582.1590, 11496.00
583.3310, 11344.00
584.5040, 11505.00
585.6760, 11478.00
586.8480, 11535.00
588.0200, 11593.00
589.1920, 11637.00
590.3630, 11591.00
591.5350, 11493.00
592.7060, 11511.00
593.8770, 11508.00
595.0480, 11708.00
596.2190, 11560.00
597.3900, 11675.00
598.5600, 11532.00
599.7310, 11701.00
600.9010, 11695.00
602.0710, 11741.00
603.2410, 11694.00
604.4100, 11769.00
605.5800, 11810.00
606.7490, 11848.00
607.9190, 11666.00
609.0880, 11897.00
610.2570, 11805.00
611.4250, 11718.00
612.5940, 11883.00
613.7620, 11910.00
614.9310, 11900.00
616.0990, 12085.00
617.2670, 11909.00
618.4340, 12014.00
619.6020, 12020.00
620.7690, 11973.00
621.9370, 11968.00
623.1040, 12044.00
624.2710, 12109.00
625.4380, 12098.00
626.6040, 12096.00
627.7710, 12141.00
628.9370, 12000.00
630.1030, 12047.00
631.2690, 12060.00
632.4350, 12089.00
633.6010, 12109.26
634.7660, 12039.00
635.9320, 12090.00
637.0970, 12158.00
638.2620, 12044.00
639.4270, 12080.00
640.5920, 12251.00
641.7560, 12255.00
642.9210, 12088.00
644.0850, 12227.00
645.2490, 12192.00
646.4130, 12149.00
647.5770, 12286.00
648.7400, 12292.00
649.9040, 12268.00
651.0670, 12268.00
652.2300, 12281.00
653.3930, 12258.00
654.5560, 12386.00
655.7190, 12316.00
656.8810, 12278.00
658.0440, 12204.00
659.2060, 12377.00
660.3680, 12262.00
661.5300, 12223.00
662.6910, 12439.00
663.8530, 12188.00
665.0140, 12176.00
666.1750, 12376.00
667.3360, 12168.00
668.4970, 12433.00
669.6580, 12171.00
670.8190, 12442.00
671.9790, 12467.00
673.1390, 12428.00
674.2990, 12267.00
675.4590, 12553.00
676.6190, 12403.00
677.7790, 12563.00
678.9380, 12290.00
680.0970, 12438.00
681.2570, 12524.00
682.4160, 12332.00
683.5740, 12535.00
684.7330, 12528.00
685.8920, 12500.00
687.0500, 12659.00
688.2080, 12417.00
689.3660, 12504.00
690.5240, 12533.00
691.6820, 12614.00
692.8390, 12605.00
693.9960, 12599.00
695.1540, 12632.00
696.3110, 12436.00
697.4680, 12646.00
698.6240, 12584.00
699.7810, 12678.00
700.9370, 12786.00
702.0940, 12627.00
703.2500, 12766.00
704.4060, 12680.00
705.5610, 12764.00
706.7170, 12785.00
707.8720, 12758.94
709.0280, 12871.00
710.1830, 12757.00
711.3380, 12866.00
712.4920, 12899.00
713.6470, 13036.00
714.8020, 12955.00
715.9560, 12798.00
717.1100, 12739.00
718.2640, 12841.00
719.4180, 12886.00
720.5720, 12723.00
721.7250, 13115.00
722.8780, 12876.00
724.0320, 12977.00
725.1850, 12993.00
726.3380, 13177.00
727.4900, 13083.00
728.6430, 12961.00
729.7950, 13157.00
730.9470, 13131.00
732.1000, 13040.00
733.2510, 13217.00
734.4030, 13215.00
735.5550, 13012.00
736.7060, 13081.00
737.8570, 13145.00
739.0090, 13218.00
740.1600, 13247.00
741.3100, 13198.00
742.4610, 13219.00
743.6110, 13169.00
744.7620, 13227.00
745.9120, 13212.00
747.0620, 13330.00
748.2120, 13259.00
749.3610, 13286.00
750.5110, 13360.00
751.6600, 13207.00
752.8090, 13322.00
753.9580, 13234.00
755.1070, 13465.00
756.2560, 13375.00
757.4050, 13332.00
758.5530, 13396.00
759.7010, 13430.00
760.8490, 13348.00
761.9970, 13457.00
763.1450, 13426.00
764.2920, 13432.00
765.4400, 13529.00
766.5870, 13414.00
767.7340, 13556.00
768.8810, 13674.00
770.0280, 13597.00
771.1740, 13636.00
772.3210, 13642.00
773.4670, 13494.00
774.6130, 13572.00
775.7590, 13709.00
776.9050, 13579.00
778.0510, 13544.00
779.1960, 13735.00
780.3420, 13674.00
781.4870, 13698.90
782.6320, 13679.00
783.7770, 13698.00
784.9210, 13699.00
786.0660, 13758.00
787.2100, 13636.00
788.3540, 13734.00
789.4980, 13833.00
790.6420, 13845.00
791.7860, 13712.00
792.9300, 13838.00
794.0730, 13824.00
795.2160, 13997.00
796.3590, 13876.00
797.5020, 13980.00
798.6450, 13888.00
799.7880, 14051.00
800.9300, 13846.00
802.0720, 13947.00
803.2150, 13873.00
804.3560, 14089.00
805.4980, 14039.00
806.6400, 14111.00
807.7810, 14139.00
808.9230, 14235.00
810.0640, 14105.00
811.2050, 14224.00
812.3460, 14109.00
813.4860, 14297.00
814.6270, 14269.00
815.7670, 14182.00
816.9070, 14253.00
818.0470, 14353.00
819.1870, 14097.00
820.3270, 14191.00
821.4670, 14180.00
822.6060, 14313.00
823.7450, 14414.00
824.8840, 14413.00
826.0230, 14451.24
827.1620, 14312.00
828.3010, 14426.00
829.4390, 14291.00
830.5770, 14292.00
831.7150, 14495.00
832.8530, 14475.00
833.9910, 14353.00
835.1290, 14494.00
836.2660, 14625.00
837.4030, 14477.00
838.5410, 14646.00
839.6780, 14524.00
840.8140, 14617.00
841.9510, 14681.00
843.0870, 14450.00
844.2240, 14505.00
845.3600, 14673.00
846.4960, 14645.00
847.6320, 14688.00
848.7680, 14701.00
849.9030, 14765.00
851.0380, 14828.00
852.1740, 14895.00
853.3090, 14833.00
854.4440, 14858.00
855.5780, 14808.00
856.7130, 14815.00
857.8470, 14937.00
858.9820, 15002.00
860.1160, 15081.00
861.2500, 15028.00
862.3830, 15084.00
863.5170, 15057.30
864.6500, 14958.00
865.7840, 14979.00
866.9170, 15036.00
868.0500, 14952.00
869.1830, 15023.00
870.3150, 15018.83
871.4480, 15095.00
872.5800, 15030.00
873.7120, 14991.00
874.8440, 14946.00
875.9760, 14964.00
877.1080, 14868.00
878.2390, 14925.29
879.3710, 15053.00
880.5020, 15039.00
881.6330, 15028.00
882.7640, 15148.00
883.8940, 14997.00
885.0250, 15154.00
886.1550, 15151.00
887.2850, 15128.00
888.4160, 15143.00
889.5450, 15167.00
890.6750, 15061.00
891.8050, 15310.00
892.9340, 15428.00
894.0630, 15298.00
895.1930, 15167.00
896.3220, 15140.00
897.4500, 15431.00
898.5790, 15278.00
899.7070, 15381.00
900.8360, 15282.00
901.9640, 15144.00
903.0920, 15231.00
904.2200, 15472.00
905.3470, 15467.00
906.4750, 15502.00
907.6020, 15351.00
908.7290, 15398.00
909.8560, 15422.00
910.9830, 15400.53
912.1100, 15359.00
913.2360, 15465.00
914.3630, 15491.00
915.4890, 15544.00
916.6150, 15671.00
917.7410, 15558.00
918.8670, 15601.00
919.9920, 15601.00
921.1180, 15499.00
922.2430, 15679.00
923.3680, 15766.00
924.4930, 15780.00
925.6180, 15657.00
926.7420, 15611.00
927.8670, 15695.00
928.9910, 15668.00
930.1150, 15737.00
931.2390, 15672.00
932.3630, 15849.00
933.4860, 15748.00
934.6100, 15817.00
935.7330, 15788.00
936.8560, 15881.00
937.9790, 15917.00
939.1020, 15925.00
940.2250, 15733.00
941.3470, 15920.00
942.4700, 15873.00
943.5920, 16048.00
944.7140, 15900.00
945.8360, 15815.00
946.9570, 15972.00
948.0790, 16050.00
949.2000, 15859.00
950.3220, 15936.00
951.4430, 16128.00
952.5640, 15978.00
953.6840, 16018.00
954.8050, 15940.00
955.9250, 16081.00
957.0460, 16121.00
958.1660, 16212.00
959.2860, 16105.00
960.4050, 16093.00
961.5250, 16404.00
962.6440, 16327.00
963.7640, 16112.00
964.8830, 16370.00
966.0020, 16216.00
967.1210, 16283.00
968.2390, 16204.00
969.3580, 16420.00
970.4760, 16384.00
971.5940, 16283.00
972.7120, 16339.00
973.8300, 16268.00
974.9480, 16405.00
976.0650, 16381.00
977.1830, 16370.00
978.3000, 16430.00
979.4170, 16349.00
980.5340, 16338.00
981.6500, 16436.00
982.7670, 16517.00
983.8830, 16526.00
985.0000, 16584.97
986.1160, 16603.00
987.2320, 16641.00
988.3470, 16619.00
989.4630, 16660.87
990.5780, 16508.00
991.6940, 16611.00
992.8090, 16661.00
993.9240, 16575.00
995.0380, 16642.00
996.1530, 16753.00
997.2680, 16712.00
998.3820, 16726.00
999.4960, 16838.00
1000.610, 16799.00
1001.724, 16861.00
1002.837, 16858.95
1003.951, 16931.00
1005.064, 16839.00
1006.177, 16811.00
1007.291, 16801.00
1008.403, 16772.05
1009.516, 17008.00
1010.629, 16827.00
1011.741, 16829.00
1012.853, 16979.00
1013.965, 16792.00
1015.077, 16977.00
1016.189, 16953.00
1017.300, 17204.00
1018.412, 17181.00
1019.523, 17009.00
1020.634, 17030.00
1021.745, 17041.00
1022.856, 17152.00
1023.966, 17269.00
1025.077, 17382.00
1026.187, 17148.00
1027.297, 17218.00
1028.407, 17163.00
1029.517, 17159.00
1030.627, 17346.00
1031.736, 17383.00
1032.845, 17346.00
1033.955, 17262.00
1035.064, 17289.00
1036.172, 17350.00
1037.281, 17213.00
1038.390, 17300.00
1039.498, 17407.00
1040.606, 17339.00
1041.714, 17406.00
1042.822, 17426.00
1043.930, 17493.00
1045.037, 17503.14
1046.145, 17486.00
1047.252, 17506.00
1048.359, 17516.00
1049.466, 17478.00
1050.573, 17521.00
1051.679, 17479.00
1052.786, 17512.00
1053.892, 17646.00
1054.998, 17526.00
1056.104, 17595.00
1057.210, 17789.00
1058.315, 17621.00
1059.421, 17531.00
1060.526, 17863.00
1061.631, 17995.00
1062.736, 17968.00
1063.841, 17961.00
1064.946, 17920.00
1066.050, 17781.00
1067.154, 17730.00
1068.258, 17857.00
1069.362, 18024.00
1070.466, 18080.00
1071.570, 17936.00
1072.674, 17912.00
1073.777, 17893.00
1074.880, 18093.00
1075.983, 17929.00
1077.086, 17758.00
1078.189, 17994.00
1079.291, 18034.00
1080.394, 18210.00
1081.496, 18222.00
1082.598, 17994.00
1083.700, 18081.00
1084.802, 18105.00
1085.903, 18211.00
1087.005, 18321.00
1088.106, 18278.00
1089.207, 18182.00
1090.308, 18306.00
1091.409, 18071.00
1092.509, 18222.00
1093.610, 18232.00
1094.710, 18315.00
1095.810, 18175.00
1096.910, 18277.00
1098.010, 18334.00
1099.110, 18438.00
1100.209, 18388.00
1101.309, 18479.00
1102.408, 18431.00
1103.507, 18418.00
1104.606, 18329.00
1105.704, 18596.00
1106.803, 18657.00
1107.901, 18515.00
1108.999, 18702.00
1110.097, 18733.00
1111.195, 18465.00
1112.293, 18500.00
1113.391, 18736.00
1114.488, 18634.00
1115.585, 18615.00
1116.682, 18835.00
1117.779, 18757.00
1118.876, 18807.00
1119.973, 18847.00
1121.069, 18808.00
1122.165, 18715.00
1123.261, 18813.00
1124.357, 18831.00
1125.453, 18895.00
1126.549, 18965.63
1127.644, 18998.00
1128.739, 19055.00
1129.835, 19024.00
1130.930, 18962.00
1132.024, 18968.90
1133.119, 18880.00
1134.214, 18928.00
1135.308, 18939.00
1136.402, 18959.00
1137.496, 18878.00
1138.590, 18987.00
1139.684, 19083.00
1140.777, 18833.00
1141.871, 18976.00
1142.964, 19105.00
1144.057, 18869.00
1145.150, 19244.00
1146.243, 19203.00
1147.335, 19196.00
1148.428, 19114.00
1149.520, 19220.00
1150.612, 19192.96
1151.704, 19139.00
1152.796, 19250.00
1153.887, 19288.00
1154.979, 19334.87
1156.070, 19337.75
1157.161, 19375.00
1158.252, 19330.00
1159.343, 19410.00
1160.433, 19495.00
1161.524, 19335.00
1162.614, 19446.00
1163.704, 19432.00
1164.794, 19430.00
1165.884, 19521.00
1166.974, 19472.00
1168.063, 19460.00
1169.153, 19594.00
1170.242, 19524.00
1171.331, 19495.00
1172.420, 19724.00
1173.508, 19740.00
1174.597, 19582.00
1175.685, 19756.00
1176.774, 19717.00
1177.862, 19923.00
1178.950, 19712.00
1180.037, 19783.00
1181.125, 19720.00
1182.212, 19589.00
1183.300, 19818.00
1184.387, 19623.00
1185.474, 19770.00
1186.560, 19915.00
1187.647, 19836.00
1188.733, 19851.00
1189.820, 19841.00
1190.906, 19945.00
1191.992, 19956.00
1193.078, 19945.00
1194.163, 19913.00
1195.249, 19987.00
1196.334, 20002.00
1197.419, 20016.00
1198.504, 20020.00
1199.589, 19999.00
1200.674, 20041.00
1201.758, 20174.00
1202.843, 20028.00
1203.927, 20214.00
1205.011, 20121.00
1206.095, 20186.00
1207.179, 20268.00
1208.262, 20140.00
1209.345, 20268.00
1210.429, 20447.00
1211.512, 20295.00
1212.595, 20303.00
1213.677, 20281.00
1214.760, 20376.00
1215.842, 20397.00
1216.925, 20552.00
1218.007, 20501.00
1219.089, 20349.00
1220.171, 20612.00
1221.252, 20581.00
1222.334, 20400.00
1223.415, 20501.00
1224.496, 20363.00
1225.577, 20396.00
1226.658, 20461.00
1227.738, 20578.00
1228.819, 20539.00
1229.899, 20667.00
1230.979, 20763.00
1232.060, 20578.00
1233.139, 20880.00
1234.219, 20811.00
1235.299, 20951.00
1236.378, 20949.00
1237.457, 20959.48
1238.536, 20987.39
1239.615, 20959.00
1240.694, 20950.00
1241.772, 20899.00
1242.851, 20902.07
1243.929, 20896.65
1245.007, 20910.00
1246.085, 20904.00
1247.163, 20944.00
1248.240, 20939.00
1249.318, 20949.16
1250.395, 21003.00
1251.472, 20961.00
1252.549, 21031.00
1253.626, 21046.00
1254.703, 21133.00
1255.779, 21175.09
1256.855, 21264.00
1257.931, 21235.00
1259.007, 21340.00
1260.083, 21272.00
1261.159, 21272.00
1262.234, 21270.00
1263.310, 21203.00
1264.385, 21216.00
1265.460, 21316.00
1266.535, 21227.00
1267.610, 21478.00
1268.684, 21533.00
1269.758, 21495.00
1270.833, 21502.00
1271.907, 21526.61
1272.981, 21522.00
1274.054, 21565.00
1275.128, 21542.00
1276.201, 21562.00
1277.275, 21500.00
1278.348, 21647.00
1279.421, 21594.00
1280.493, 21707.00
1281.566, 21462.00
1282.638, 21634.00
1283.711, 21513.00
1284.783, 21685.00
1285.855, 21781.00
1286.927, 21600.00
1287.998, 21826.00
1289.070, 21749.00
1290.141, 21831.00
1291.212, 21996.00
1292.283, 22101.00
1293.354, 22319.00
1294.425, 22222.00
1295.495, 22369.00
1296.566, 22258.00
1297.636, 22140.00
1298.706, 22237.00
1299.776, 22215.00
1300.845, 22108.00
1301.915, 22185.00
1302.984, 22189.00
1304.054, 22296.00
1305.123, 22312.00
1306.191, 22228.00
1307.260, 22407.00
1308.329, 22392.00
1309.397, 22593.00
1310.465, 22619.00
1311.534, 22522.00
1312.602, 22658.00
1313.669, 22472.00
1314.737, 22626.00
1315.804, 22690.00
1316.872, 22852.00
1317.939, 22808.00
1319.006, 22933.00
1320.073, 22810.00
1321.139, 23293.00
1322.206, 23249.00
1323.272, 23815.00
1324.338, 24560.00
1325.404, 25513.00
1326.470, 28324.00
1327.536, 34195.00
1328.601, 42540.00
1329.667, 50085.00
1330.732, 57713.00
1331.797, 60954.00
1332.862, 57064.00
1333.926, 48217.00
1334.991, 38981.00
1336.055, 31145.00
1337.120, 27048.00
1338.184, 25033.00
1339.248, 24265.00
1340.311, 23642.00
1341.375, 23596.00
1342.438, 23390.00
1343.502, 23292.28
1344.565, 23343.00
1345.628, 23323.00
1346.691, 23285.12
1347.753, 23253.57
1348.816, 23247.00
1349.878, 23189.00
1350.940, 23196.00
1352.002, 23302.00
1353.064, 23187.00
1354.126, 23080.00
1355.187, 23095.00
1356.248, 23208.00
1357.310, 23229.00
1358.371, 23120.00
1359.431, 23326.00
1360.492, 23283.00
1361.553, 23181.00
1362.613, 23312.00
1363.673, 23168.00
1364.733, 23302.00
1365.793, 23453.00
1366.853, 23305.00
1367.912, 23260.00
1368.972, 23487.00
1370.031, 23315.00
1371.090, 23608.00
1372.149, 23366.00
1373.208, 23531.00
1374.267, 23409.00
1375.325, 23454.00
1376.383, 23605.00
1377.441, 23486.00
1378.499, 23656.00
1379.557, 23738.00
1380.615, 23576.00
1381.672, 23618.00
1382.730, 23696.00
1383.787, 23597.00
1384.844, 23725.00
1385.901, 23742.00
1386.957, 23797.00
1388.014, 23807.00
1389.070, 23830.00
1390.126, 23785.00
1391.182, 23735.00
1392.238, 23813.00
1393.294, 23691.00
1394.349, 23847.00
1395.405, 23902.00
1396.460, 23927.00
1397.515, 23964.00
1398.570, 23940.00
1399.625, 23963.00
1400.679, 23930.00
1401.734, 24064.00
1402.788, 24040.00
1403.842, 24038.00
1404.896, 23987.00
1405.950, 24003.00
1407.003, 24131.00
1408.057, 24072.00
1409.110, 24216.00
1410.163, 24384.00
1411.216, 24175.00
1412.269, 24193.00
1413.322, 24232.00
1414.374, 24549.00
1415.427, 24374.00
1416.479, 24300.00
1417.531, 24509.00
1418.583, 24420.00
1419.634, 24517.00
1420.686, 24478.00
1421.737, 24488.00
1422.788, 24527.00
1423.839, 24470.00
1424.890, 24636.00
1425.941, 24664.00
1426.992, 24557.00
1428.042, 24836.00
1429.092, 24700.00
1430.142, 24682.00
1431.192, 24901.00
1432.242, 24726.00
1433.291, 24748.00
1434.341, 25124.00
1435.390, 25005.00
1436.439, 24982.00
1437.488, 25212.00
1438.537, 25155.00
1439.586, 25268.00
1440.634, 25481.00
1441.682, 25160.00
1442.731, 25251.00
1443.779, 25344.00
1444.826, 25354.00
1445.874, 25290.00
1446.922, 25297.00
1447.969, 25595.00
1449.016, 25399.00
1450.063, 25574.00
1451.110, 25473.00
1452.157, 25603.00
1453.203, 25548.00
1454.250, 25600.00
1455.296, 25572.00
1456.342, 25489.00
1457.388, 25628.00
1458.433, 25711.00
1459.479, 25633.00
1460.524, 25601.00
1461.570, 25671.00
1462.615, 25562.00
1463.660, 25679.00
1464.705, 25537.00
1465.749, 25818.00
1466.794, 25743.00
1467.838, 25605.00
1468.882, 25899.00
1469.926, 25777.00
1470.970, 25677.00
1472.013, 25596.00
1473.057, 25780.00
1474.100, 25729.00
1475.143, 25727.00
1476.186, 25765.00
1477.229, 25777.00
1478.272, 25716.00
1479.314, 25986.00
1480.357, 25896.00
1481.399, 25853.00
1482.441, 25605.00
1483.483, 25856.00
1484.525, 25742.00
1485.566, 25888.00
1486.608, 25818.00
1487.649, 25804.00
1488.690, 25837.00
1489.731, 25927.00
1490.771, 25853.00
1491.812, 26046.00
1492.853, 26024.00
1493.893, 25819.00
1494.933, 26153.00
1495.973, 26067.00
1497.013, 25953.00
1498.052, 26101.00
1499.092, 26275.00
1500.131, 26011.00
1501.170, 26110.00
1502.209, 26188.00
1503.248, 26174.00
1504.287, 26076.00
1505.325, 26370.00
1506.363, 26208.00
1507.402, 26368.00
1508.440, 26575.00
1509.478, 26408.00
1510.515, 26451.00
1511.553, 26423.00
1512.590, 26410.00
1513.627, 26374.00
1514.664, 26320.00
1515.701, 26436.00
1516.738, 26390.00
1517.775, 26572.00
1518.811, 26578.00
1519.847, 26403.00
1520.883, 26629.00
1521.919, 26565.00
1522.955, 26683.00
1523.991, 26924.00
1525.026, 26738.00
1526.061, 26911.00
1527.096, 26641.00
1528.131, 26797.00
1529.166, 26917.00
1530.201, 27089.00
1531.235, 26891.00
1532.270, 26932.00
1533.304, 26901.00
1534.338, 27058.00
1535.372, 26939.00
1536.405, 27205.00
1537.439, 27157.00
1538.472, 27062.00
1539.505, 27083.00
1540.538, 27339.00
1541.571, 27072.00
1542.604, 27290.00
1543.637, 27029.00
1544.669, 27138.00
1545.701, 27029.00
1546.733, 27185.00
1547.765, 27332.00
1548.797, 27406.00
1549.829, 27317.00
1550.860, 27595.00
1551.891, 27625.00
1552.922, 27286.00
1553.953, 27404.00
1554.984, 27375.00
1556.015, 27595.00
1557.045, 27678.00
1558.076, 27411.00
1559.106, 27588.00
1560.136, 27876.00
1561.165, 27856.00
1562.195, 27649.00
1563.225, 27714.00
1564.254, 27744.00
1565.283, 27831.00
##END=



