##NAMES=Diamond
##RRUFFID=R050204
##IDEAL CHEMISTRY=C
##LOCALITY=Unknown
##OWNER=RRUFF
##SOURCE=Eric Van Valkenburg
##DESCRIPTION=Single crystal, type IIA
##STATUS=The identification of this mineral has been confirmed by single-crystal X-ray diffraction.
##URL=rruff.info/R050204
##PIN_ID=M01891
##ORIENTATION=Laser parallel to a* (1 0 0). Fiducial mark perpendicular to laser is parallel to b [0 1 0]
170.5590, 6299.000
171.7860, 6344.000
173.0130, 6434.000
174.2400, 6389.000
175.4670, 6293.000
176.6930, 6443.000
177.9200, 6388.000
179.1460, 6451.000
180.3720, 6460.000
181.5980, 6452.000
182.8230, 6461.000
184.0490, 6468.000
185.2740, 6545.000
186.5000, 6557.000
187.7250, 6525.000
188.9500, 6578.000
190.1740, 6548.000
191.3990, 6557.000
192.6230, 6551.000
193.8480, 6538.000
195.0720, 6652.000
196.2960, 6579.000
197.5200, 6597.000
198.7430, 6704.000
199.9670, 6641.000
201.1900, 6689.000
202.4130, 6649.000
203.6360, 6601.000
204.8590, 6737.000
206.0820, 6666.000
207.3050, 6821.000
208.5270, 6792.000
209.7490, 6659.000
210.9710, 6748.000
212.1930, 6770.000
213.4150, 6944.000
214.6370, 6798.000
215.8580, 6837.000
217.0790, 6814.000
218.3010, 6738.000
219.5210, 6865.000
220.7420, 6747.000
221.9630, 6859.000
223.1830, 6851.000
224.4040, 6902.000
225.6240, 6856.000
226.8440, 6859.000
228.0640, 6951.000
229.2840, 6865.000
230.5030, 6979.000
231.7230, 7012.000
232.9420, 6896.000
234.1610, 6976.000
235.3800, 6868.000
236.5990, 6987.000
237.8170, 6912.000
239.0360, 6987.000
240.2540, 6958.000
241.4720, 6922.000
242.6900, 6951.000
243.9080, 6933.962
245.1250, 7029.000
246.3430, 6959.000
247.5600, 7016.000
248.7770, 7056.000
249.9940, 6989.000
251.2110, 7021.000
252.4280, 7101.000
253.6450, 7014.000
254.8610, 7123.000
256.0770, 7099.000
257.2930, 7117.000
258.5090, 7153.000
259.7250, 7172.000
260.9400, 7105.000
262.1560, 7139.947
263.3710, 7110.000
264.5860, 7157.000
265.8010, 7165.000
267.0160, 7213.000
268.2310, 7242.000
269.4450, 7199.000
270.6600, 7185.000
271.8740, 7043.000
273.0880, 7279.000
274.3020, 7135.000
275.5150, 7251.000
276.7290, 7214.000
277.9420, 7187.000
279.1550, 7130.000
280.3680, 7224.000
281.5810, 7301.000
282.7940, 7227.000
284.0070, 7292.000
285.2190, 7280.000
286.4310, 7284.000
287.6430, 7240.000
288.8550, 7352.000
290.0670, 7308.000
291.2790, 7344.000
292.4900, 7309.000
293.7020, 7226.000
294.9130, 7312.000
296.1240, 7286.000
297.3350, 7324.000
298.5450, 7339.000
299.7560, 7315.000
300.9660, 7390.000
302.1760, 7318.000
303.3860, 7353.000
304.5960, 7399.000
305.8060, 7405.000
307.0150, 7503.000
308.2250, 7425.000
309.4340, 7403.000
310.6430, 7426.000
311.8520, 7514.000
313.0610, 7584.000
314.2700, 7468.000
315.4780, 7477.000
316.6860, 7405.000
317.8940, 7502.000
319.1020, 7524.000
320.3100, 7634.000
321.5180, 7572.000
322.7250, 7485.000
323.9330, 7524.000
325.1400, 7545.000
326.3470, 7425.000
327.5540, 7517.000
328.7600, 7627.000
329.9670, 7560.000
331.1730, 7711.000
332.3800, 7709.000
333.5860, 7696.000
334.7920, 7514.000
335.9970, 7649.000
337.2030, 7646.000
338.4080, 7688.000
339.6140, 7792.000
340.8190, 7652.000
342.0240, 7739.000
343.2290, 7659.000
344.4330, 7768.000
345.6380, 7810.000
346.8420, 7640.000
348.0460, 7831.000
349.2500, 7745.000
350.4540, 7768.000
351.6580, 7868.000
352.8610, 7736.000
354.0650, 7864.000
355.2680, 7751.000
356.4710, 7767.000
357.6740, 7791.000
358.8760, 7871.000
360.0790, 7808.000
361.2810, 7839.000
362.4840, 7687.000
363.6860, 7836.000
364.8880, 7844.000
366.0900, 7967.000
367.2910, 7775.000
368.4930, 7854.000
369.6940, 7821.000
370.8950, 7807.000
372.0960, 7863.000
373.2970, 7810.000
374.4980, 7824.885
375.6980, 7831.822
376.8980, 7830.000
378.0990, 7860.000
379.2990, 7908.000
380.4980, 7972.000
381.6980, 7983.000
382.8980, 8038.000
384.0970, 8061.000
385.2960, 8013.000
386.4950, 8032.000
387.6940, 7999.000
388.8930, 7998.000
390.0920, 8149.000
391.2900, 8122.000
392.4880, 8110.000
393.6860, 8088.000
394.8840, 8010.000
396.0820, 8049.620
397.2800, 8142.000
398.4770, 8094.000
399.6750, 8163.000
400.8720, 8184.000
402.0690, 8133.000
403.2660, 8126.000
404.4620, 8119.000
405.6590, 8213.000
406.8550, 8073.000
408.0510, 8189.000
409.2480, 8108.000
410.4430, 8142.000
411.6390, 8116.000
412.8350, 8283.000
414.0300, 8098.000
415.2250, 8311.000
416.4200, 8213.000
417.6150, 8142.000
418.8100, 8312.000
420.0050, 8218.000
421.1990, 8258.000
422.3940, 8319.000
423.5880, 8323.000
424.7820, 8285.000
425.9750, 8352.000
427.1690, 8316.000
428.3630, 8303.000
429.5560, 8364.000
430.7490, 8249.000
431.9420, 8444.000
433.1350, 8395.000
434.3280, 8561.000
435.5200, 8402.000
436.7130, 8406.000
437.9050, 8502.000
439.0970, 8307.000
440.2890, 8502.000
441.4810, 8387.000
442.6720, 8417.000
443.8640, 8532.000
445.0550, 8422.000
446.2460, 8338.000
447.4370, 8540.000
448.6280, 8511.000
449.8180, 8456.000
451.0090, 8490.000
452.1990, 8443.000
453.3890, 8473.000
454.5790, 8442.000
455.7690, 8492.000
456.9590, 8617.000
458.1480, 8623.000
459.3380, 8666.000
460.5270, 8603.000
461.7160, 8637.000
462.9050, 8590.000
464.0940, 8689.000
465.2820, 8694.000
466.4700, 8634.000
467.6590, 8571.000
468.8470, 8633.000
470.0350, 8683.000
471.2220, 8674.000
472.4100, 8740.608
473.5970, 8646.000
474.7850, 8786.000
475.9720, 8826.000
477.1590, 8762.000
478.3460, 8705.000
479.5320, 8764.000
480.7190, 8689.000
481.9050, 8665.000
483.0910, 8849.000
484.2770, 8773.000
485.4630, 8846.000
486.6490, 8984.000
487.8340, 8897.000
489.0200, 8987.000
490.2050, 8894.000
491.3900, 8801.000
492.5750, 8890.000
493.7600, 8902.000
494.9440, 8913.000
496.1290, 8867.000
497.3130, 8937.000
498.4970, 8897.000
499.6810, 8998.000
500.8650, 8986.000
502.0480, 9086.000
503.2320, 8927.000
504.4150, 9002.000
505.5980, 8885.000
506.7810, 8944.000
507.9640, 9036.000
509.1460, 9020.000
510.3290, 9086.000
511.5110, 9059.000
512.6930, 9033.000
513.8750, 9050.000
515.0570, 9032.000
516.2390, 9136.000
517.4210, 9087.000
518.6020, 9242.000
519.7830, 9033.000
520.9640, 8946.000
522.1450, 9116.000
523.3260, 9094.000
524.5060, 9055.000
525.6870, 9076.000
526.8670, 9279.000
528.0470, 9226.000
529.2270, 9350.000
530.4070, 9294.000
531.5870, 9150.000
532.7660, 9177.000
533.9450, 9234.000
535.1240, 9183.000
536.3030, 9277.000
537.4820, 9216.000
538.6610, 9313.000
539.8390, 9281.000
541.0180, 9235.000
542.1960, 9319.000
543.3740, 9409.000
544.5520, 9241.000
545.7290, 9306.000
546.9070, 9355.000
548.0840, 9229.000
549.2620, 9268.000
550.4390, 9261.476
551.6160, 9382.000
552.7920, 9293.000
553.9690, 9319.000
555.1450, 9355.000
556.3220, 9421.000
557.4980, 9385.000
558.6740, 9451.000
559.8490, 9485.000
561.0250, 9476.000
562.2000, 9411.000
563.3760, 9555.000
564.5510, 9593.000
565.7260, 9495.000
566.9010, 9456.000
568.0750, 9598.000
569.2500, 9592.000
570.4240, 9575.000
571.5980, 9485.000
572.7720, 9530.000
573.9460, 9601.000
575.1200, 9644.000
576.2930, 9643.000
577.4670, 9604.000
578.6400, 9637.000
579.8130, 9673.000
580.9860, 9703.000
582.1590, 9695.000
583.3310, 9726.000
584.5040, 9692.000
585.6760, 9787.000
586.8480, 9677.000
588.0200, 9749.000
589.1920, 9728.000
590.3630, 9861.000
591.5350, 9690.000
592.7060, 9695.000
593.8770, 9748.000
595.0480, 9802.000
596.2190, 9835.719
597.3900, 9845.000
598.5600, 9907.000
599.7310, 9976.000
600.9010, 9962.000
602.0710, 9992.363
603.2410, 9992.206
604.4100, 9967.000
605.5800, 9947.000
606.7490, 9957.490
607.9190, 9809.000
609.0880, 9959.000
610.2570, 9965.000
611.4250, 9932.000
612.5940, 10051.00
613.7620, 10058.00
614.9310, 10096.00
616.0990, 10000.00
617.2670, 10133.00
618.4340, 10089.00
619.6020, 10166.00
620.7690, 10115.00
621.9370, 10229.00
623.1040, 10307.00
624.2710, 10356.00
625.4380, 10339.80
626.6040, 10303.00
627.7710, 10228.00
628.9370, 10172.00
630.1030, 10094.00
631.2690, 10183.00
632.4350, 10254.00
633.6010, 10309.00
634.7660, 10213.00
635.9320, 10240.00
637.0970, 10280.00
638.2620, 10256.00
639.4270, 10315.00
640.5920, 10333.00
641.7560, 10371.00
642.9210, 10268.00
644.0850, 10275.00
645.2490, 10533.00
646.4130, 10281.00
647.5770, 10451.00
648.7400, 10599.00
649.9040, 10353.00
651.0670, 10524.00
652.2300, 10382.00
653.3930, 10536.00
654.5560, 10400.00
655.7190, 10525.00
656.8810, 10522.00
658.0440, 10464.00
659.2060, 10360.00
660.3680, 10553.00
661.5300, 10541.00
662.6910, 10419.00
663.8530, 10521.00
665.0140, 10533.00
666.1750, 10530.00
667.3360, 10530.00
668.4970, 10479.00
669.6580, 10491.57
670.8190, 10494.00
671.9790, 10486.00
673.1390, 10575.00
674.2990, 10584.00
675.4590, 10597.00
676.6190, 10573.00
677.7790, 10558.00
678.9380, 10664.00
680.0970, 10543.00
681.2570, 10563.00
682.4160, 10562.00
683.5740, 10673.00
684.7330, 10710.00
685.8920, 10568.00
687.0500, 10644.00
688.2080, 10554.00
689.3660, 10705.00
690.5240, 10680.00
691.6820, 10676.00
692.8390, 10658.00
693.9960, 10590.00
695.1540, 10652.00
696.3110, 10793.00
697.4680, 10779.00
698.6240, 10769.00
699.7810, 10729.00
700.9370, 10847.00
702.0940, 10865.00
703.2500, 10821.00
704.4060, 10942.00
705.5610, 10785.00
706.7170, 10814.00
707.8720, 10787.00
709.0280, 10897.00
710.1830, 10823.00
711.3380, 10863.00
712.4920, 10894.00
713.6470, 10975.00
714.8020, 10945.00
715.9560, 11039.00
717.1100, 10915.00
718.2640, 11039.00
719.4180, 10855.00
720.5720, 10989.00
721.7250, 11141.00
722.8780, 11081.00
724.0320, 11037.00
725.1850, 11156.00
726.3380, 11158.00
727.4900, 11158.00
728.6430, 11192.05
729.7950, 11176.00
730.9470, 11224.00
732.1000, 11100.00
733.2510, 11181.00
734.4030, 11087.00
735.5550, 11115.00
736.7060, 11144.00
737.8570, 11205.00
739.0090, 11239.00
740.1600, 11182.00
741.3100, 11223.00
742.4610, 11207.00
743.6110, 11251.00
744.7620, 11278.00
745.9120, 11286.61
747.0620, 11256.00
748.2120, 11327.00
749.3610, 11413.00
750.5110, 11449.00
751.6600, 11393.00
752.8090, 11350.00
753.9580, 11366.00
755.1070, 11270.00
756.2560, 11645.00
757.4050, 11534.00
758.5530, 11434.00
759.7010, 11491.00
760.8490, 11350.00
761.9970, 11424.00
763.1450, 11408.00
764.2920, 11509.00
765.4400, 11449.00
766.5870, 11559.00
767.7340, 11537.00
768.8810, 11509.00
770.0280, 11503.00
771.1740, 11566.00
772.3210, 11549.00
773.4670, 11630.00
774.6130, 11541.00
775.7590, 11708.00
776.9050, 11688.00
778.0510, 11525.00
779.1960, 11760.00
780.3420, 11691.00
781.4870, 11624.00
782.6320, 11701.00
783.7770, 11765.00
784.9210, 11741.14
786.0660, 11754.00
787.2100, 11763.00
788.3540, 11786.00
789.4980, 11817.00
790.6420, 11708.00
791.7860, 11901.00
792.9300, 11914.00
794.0730, 11862.00
795.2160, 11799.00
796.3590, 11956.00
797.5020, 11961.00
798.6450, 11947.00
799.7880, 11878.00
800.9300, 11861.00
802.0720, 11923.00
803.2150, 11984.00
804.3560, 12005.00
805.4980, 12015.00
806.6400, 11921.00
807.7810, 12104.00
808.9230, 12021.00
810.0640, 12077.00
811.2050, 12193.00
812.3460, 12087.00
813.4860, 12276.00
814.6270, 12221.00
815.7670, 12281.00
816.9070, 12061.00
818.0470, 12158.00
819.1870, 12310.00
820.3270, 12284.00
821.4670, 12419.00
822.6060, 12320.00
823.7450, 12382.00
824.8840, 12372.00
826.0230, 12364.00
827.1620, 12277.00
828.3010, 12259.00
829.4390, 12282.00
830.5770, 12274.95
831.7150, 12371.00
832.8530, 12370.00
833.9910, 12334.00
835.1290, 12440.00
836.2660, 12470.00
837.4030, 12472.00
838.5410, 12515.89
839.6780, 12516.18
840.8140, 12544.00
841.9510, 12523.00
843.0870, 12552.00
844.2240, 12545.17
845.3600, 12556.43
846.4960, 12579.00
847.6320, 12592.00
848.7680, 12596.00
849.9030, 12636.00
851.0380, 12644.00
852.1740, 12712.00
853.3090, 12738.00
854.4440, 12925.00
855.5780, 12864.00
856.7130, 12740.00
857.8470, 12932.00
858.9820, 12754.00
860.1160, 12922.00
861.2500, 13019.00
862.3830, 12863.00
863.5170, 12915.00
864.6500, 12800.00
865.7840, 12869.00
866.9170, 12895.00
868.0500, 12869.00
869.1830, 13002.00
870.3150, 12963.28
871.4480, 12774.00
872.5800, 12951.00
873.7120, 12887.00
874.8440, 12844.00
875.9760, 13069.00
877.1080, 12875.00
878.2390, 13026.00
879.3710, 12890.00
880.5020, 12929.00
881.6330, 13006.00
882.7640, 12958.00
883.8940, 13066.00
885.0250, 12845.00
886.1550, 13042.00
887.2850, 12918.00
888.4160, 13000.00
889.5450, 13066.00
890.6750, 13009.00
891.8050, 13137.00
892.9340, 13239.00
894.0630, 13142.00
895.1930, 13086.00
896.3220, 13173.00
897.4500, 13276.00
898.5790, 13040.00
899.7070, 13232.00
900.8360, 13292.00
901.9640, 13147.00
903.0920, 13220.00
904.2200, 13026.00
905.3470, 13132.00
906.4750, 13151.00
907.6020, 13279.00
908.7290, 13299.67
909.8560, 13309.00
910.9830, 13350.00
912.1100, 13312.00
913.2360, 13301.00
914.3630, 13379.00
915.4890, 13353.88
916.6150, 13374.00
917.7410, 13392.00
918.8670, 13380.00
919.9920, 13414.00
921.1180, 13271.00
922.2430, 13449.00
923.3680, 13417.00
924.4930, 13548.00
925.6180, 13434.00
926.7420, 13560.00
927.8670, 13411.00
928.9910, 13479.00
930.1150, 13436.00
931.2390, 13598.00
932.3630, 13540.00
933.4860, 13543.00
934.6100, 13655.00
935.7330, 13577.00
936.8560, 13577.00
937.9790, 13584.00
939.1020, 13647.00
940.2250, 13552.00
941.3470, 13650.00
942.4700, 13638.00
943.5920, 13653.00
944.7140, 13734.00
945.8360, 13681.00
946.9570, 13722.00
948.0790, 13660.00
949.2000, 13752.00
950.3220, 13765.00
951.4430, 13788.00
952.5640, 13878.00
953.6840, 13908.00
954.8050, 13869.00
955.9250, 13877.00
957.0460, 13775.00
958.1660, 13762.00
959.2860, 14000.00
960.4050, 13982.00
961.5250, 13936.00
962.6440, 13994.00
963.7640, 13912.00
964.8830, 13938.00
966.0020, 13967.00
967.1210, 14094.00
968.2390, 13890.00
969.3580, 14080.00
970.4760, 13963.00
971.5940, 14132.00
972.7120, 14149.00
973.8300, 14029.00
974.9480, 14177.00
976.0650, 14142.00
977.1830, 14158.00
978.3000, 14298.00
979.4170, 14183.00
980.5340, 14121.00
981.6500, 14060.00
982.7670, 14196.00
983.8830, 14262.00
985.0000, 14245.00
986.1160, 14326.00
987.2320, 14246.00
988.3470, 14264.00
989.4630, 14297.00
990.5780, 14270.00
991.6940, 14310.00
992.8090, 14478.00
993.9240, 14406.00
995.0380, 14419.00
996.1530, 14319.00
997.2680, 14364.40
998.3820, 14466.00
999.4960, 14492.00
1000.610, 14602.00
1001.724, 14791.00
1002.837, 14658.00
1003.951, 14804.00
1005.064, 14481.00
1006.177, 14516.00
1007.291, 14555.00
1008.403, 14567.00
1009.516, 14529.00
1010.629, 14544.00
1011.741, 14587.00
1012.853, 14621.00
1013.965, 14760.00
1015.077, 14626.00
1016.189, 14610.00
1017.300, 14771.00
1018.412, 14718.00
1019.523, 14654.00
1020.634, 14687.00
1021.745, 14952.00
1022.856, 14817.00
1023.966, 14817.00
1025.077, 14957.00
1026.187, 14886.00
1027.297, 14781.00
1028.407, 14964.00
1029.517, 14851.00
1030.627, 14966.00
1031.736, 14870.00
1032.845, 14943.00
1033.955, 14806.00
1035.064, 14894.00
1036.172, 14975.00
1037.281, 15083.00
1038.390, 15030.00
1039.498, 14999.00
1040.606, 14943.00
1041.714, 14990.00
1042.822, 15012.00
1043.930, 15100.00
1045.037, 15201.00
1046.145, 15121.00
1047.252, 15125.00
1048.359, 15184.00
1049.466, 15243.00
1050.573, 15255.00
1051.679, 15287.00
1052.786, 15225.00
1053.892, 15314.00
1054.998, 15303.00
1056.104, 15282.00
1057.210, 15368.00
1058.315, 15477.00
1059.421, 15290.00
1060.526, 15613.00
1061.631, 15681.00
1062.736, 15324.00
1063.841, 15678.00
1064.946, 15429.00
1066.050, 15387.00
1067.154, 15447.00
1068.258, 15514.00
1069.362, 15339.00
1070.466, 15443.00
1071.570, 15571.00
1072.674, 15542.00
1073.777, 15386.00
1074.880, 15379.00
1075.983, 15538.00
1077.086, 15651.00
1078.189, 15670.00
1079.291, 15732.00
1080.394, 15641.00
1081.496, 15599.00
1082.598, 15616.00
1083.700, 15587.72
1084.802, 15656.00
1085.903, 15634.00
1087.005, 15700.92
1088.106, 15778.00
1089.207, 15767.00
1090.308, 15736.00
1091.409, 15688.00
1092.509, 15686.37
1093.610, 15754.00
1094.710, 15655.00
1095.810, 15814.00
1096.910, 15792.00
1098.010, 15883.00
1099.110, 15990.00
1100.209, 15865.00
1101.309, 16000.00
1102.408, 15854.00
1103.507, 15916.00
1104.606, 15965.00
1105.704, 15897.00
1106.803, 15894.00
1107.901, 15926.00
1108.999, 16214.00
1110.097, 16152.00
1111.195, 16176.00
1112.293, 16176.00
1113.391, 16069.00
1114.488, 16136.00
1115.585, 16102.00
1116.682, 16231.00
1117.779, 16235.82
1118.876, 16177.00
1119.973, 16328.00
1121.069, 16404.00
1122.165, 16495.00
1123.261, 16316.00
1124.357, 16267.00
1125.453, 16489.00
1126.549, 16381.00
1127.644, 16586.00
1128.739, 16549.00
1129.835, 16661.00
1130.930, 16508.00
1132.024, 16458.00
1133.119, 16562.00
1134.214, 16437.00
1135.308, 16359.00
1136.402, 16466.00
1137.496, 16532.00
1138.590, 16581.00
1139.684, 16395.00
1140.777, 16385.00
1141.871, 16453.00
1142.964, 16586.00
1144.057, 16605.00
1145.150, 16516.00
1146.243, 16660.00
1147.335, 16490.00
1148.428, 16578.00
1149.520, 16751.00
1150.612, 16501.00
1151.704, 16667.00
1152.796, 16680.00
1153.887, 16687.00
1154.979, 16737.00
1156.070, 16768.00
1157.161, 16735.00
1158.252, 16937.00
1159.343, 16894.00
1160.433, 16843.00
1161.524, 16819.00
1162.614, 17033.00
1163.704, 16652.00
1164.794, 16931.00
1165.884, 16922.00
1166.974, 16853.00
1168.063, 17003.00
1169.153, 17011.00
1170.242, 16996.00
1171.331, 16934.00
1172.420, 17170.00
1173.508, 17194.00
1174.597, 17254.00
1175.685, 17050.00
1176.774, 17101.00
1177.862, 17007.00
1178.950, 17072.00
1180.037, 17110.00
1181.125, 17218.00
1182.212, 17178.00
1183.300, 17221.00
1184.387, 17125.00
1185.474, 17231.00
1186.560, 17232.00
1187.647, 17113.00
1188.733, 17263.00
1189.820, 17201.00
1190.906, 17208.00
1191.992, 17180.00
1193.078, 17296.00
1194.163, 17306.00
1195.249, 17442.00
1196.334, 17421.00
1197.419, 17480.00
1198.504, 17494.36
1199.589, 17517.00
1200.674, 17450.00
1201.758, 17452.00
1202.843, 17352.00
1203.927, 17525.00
1205.011, 17374.00
1206.095, 17647.00
1207.179, 17616.00
1208.262, 17675.00
1209.345, 17774.00
1210.429, 17625.00
1211.512, 17735.00
1212.595, 17852.00
1213.677, 17688.00
1214.760, 17596.00
1215.842, 17607.00
1216.925, 17798.00
1218.007, 17833.00
1219.089, 17745.00
1220.171, 17906.00
1221.252, 17792.00
1222.334, 17711.00
1223.415, 17956.00
1224.496, 17716.00
1225.577, 17951.00
1226.658, 18047.00
1227.738, 17844.00
1228.819, 17935.00
1229.899, 18023.00
1230.979, 17907.00
1232.060, 18020.00
1233.139, 18184.00
1234.219, 18137.00
1235.299, 18215.00
1236.378, 18139.00
1237.457, 17902.00
1238.536, 18079.00
1239.615, 18136.00
1240.694, 18347.00
1241.772, 18113.00
1242.851, 18125.00
1243.929, 18260.00
1245.007, 18275.00
1246.085, 18212.00
1247.163, 18158.00
1248.240, 18314.00
1249.318, 18311.00
1250.395, 18270.00
1251.472, 18368.77
1252.549, 18333.00
1253.626, 18396.00
1254.703, 18418.00
1255.779, 18297.00
1256.855, 18212.00
1257.931, 18479.00
1259.007, 18574.00
1260.083, 18418.00
1261.159, 18558.00
1262.234, 18533.00
1263.310, 18580.00
1264.385, 18645.00
1265.460, 18608.00
1266.535, 18452.00
1267.610, 18697.00
1268.684, 18597.00
1269.758, 18820.00
1270.833, 18619.00
1271.907, 18757.00
1272.981, 18905.00
1274.054, 18737.00
1275.128, 18721.00
1276.201, 18857.00
1277.275, 18873.00
1278.348, 18767.00
1279.421, 18973.00
1280.493, 18941.00
1281.566, 18941.00
1282.638, 19020.00
1283.711, 18891.00
1284.783, 18893.00
1285.855, 19017.00
1286.927, 18956.00
1287.998, 19088.00
1289.070, 19273.00
1290.141, 19332.00
1291.212, 19321.00
1292.283, 19355.00
1293.354, 19397.22
1294.425, 19468.00
1295.495, 19484.00
1296.566, 19430.00
1297.636, 19470.00
1298.706, 19545.00
1299.776, 19440.00
1300.845, 19437.00
1301.915, 19362.00
1302.984, 19290.00
1304.054, 19331.00
1305.123, 19501.00
1306.191, 19642.00
1307.260, 19646.00
1308.329, 19726.60
1309.397, 19653.00
1310.465, 19797.00
1311.534, 19715.00
1312.602, 19839.00
1313.669, 19887.78
1314.737, 19906.00
1315.804, 19997.00
1316.872, 20018.00
1317.939, 20019.00
1319.006, 20038.00
1320.073, 20287.00
1321.139, 20411.00
1322.206, 20618.00
1323.272, 20897.00
1324.338, 21714.00
1325.404, 22983.00
1326.470, 26067.00
1327.536, 32678.00
1328.601, 40335.00
1329.667, 46171.00
1330.732, 51324.00
1331.797, 52536.00
1332.862, 48940.00
1333.926, 42187.00
1334.991, 34089.00
1336.055, 27376.00
1337.120, 23511.00
1338.184, 22066.00
1339.248, 21187.00
1340.311, 20911.00
1341.375, 20598.00
1342.438, 20494.00
1343.502, 20488.00
1344.565, 20622.00
1345.628, 20324.00
1346.691, 20396.00
1347.753, 20263.00
1348.816, 20201.00
1349.878, 20154.00
1350.940, 20110.00
1352.002, 20280.00
1353.064, 20290.00
1354.126, 20181.00
1355.187, 20531.00
1356.248, 20508.00
1357.310, 20104.00
1358.371, 20517.00
1359.431, 20299.00
1360.492, 20285.00
1361.553, 20332.00
1362.613, 20491.00
1363.673, 20556.00
1364.733, 20518.00
1365.793, 20621.00
1366.853, 20403.00
1367.912, 20645.00
1368.972, 20467.00
1370.031, 20649.00
1371.090, 20716.00
1372.149, 20512.00
1373.208, 20574.00
1374.267, 20626.00
1375.325, 20397.00
1376.383, 20604.00
1377.441, 20577.00
1378.499, 20571.00
1379.557, 20763.00
1380.615, 20647.00
1381.672, 20721.00
1382.730, 20689.00
1383.787, 20800.00
1384.844, 20877.00
1385.901, 20802.00
1386.957, 20769.00
1388.014, 20805.00
1389.070, 20824.00
1390.126, 20839.97
1391.182, 20857.90
1392.238, 20877.00
1393.294, 20864.00
1394.349, 20829.00
1395.405, 20794.00
1396.460, 20920.00
1397.515, 20954.00
1398.570, 20864.00
1399.625, 21015.00
1400.679, 20968.00
1401.734, 20989.00
1402.788, 20896.00
1403.842, 20985.88
1404.896, 21148.00
1405.950, 21096.00
1407.003, 21280.00
1408.057, 21241.00
1409.110, 21313.00
1410.163, 21162.00
1411.216, 21243.00
1412.269, 21200.00
1413.322, 21362.00
1414.374, 21381.00
1415.427, 21382.00
1416.479, 21408.00
1417.531, 21508.00
1418.583, 21295.00
1419.634, 21423.00
1420.686, 21304.00
1421.737, 21505.00
1422.788, 21309.00
1423.839, 21725.00
1424.890, 21599.00
1425.941, 21486.00
1426.992, 21597.00
1428.042, 21616.00
1429.092, 21509.00
1430.142, 21730.00
1431.192, 21812.00
1432.242, 21677.00
1433.291, 21904.00
1434.341, 21812.00
1435.390, 21786.00
1436.439, 22135.00
1437.488, 22181.00
1438.537, 22149.00
1439.586, 22241.00
1440.634, 22311.00
1441.682, 22195.00
1442.731, 22088.00
1443.779, 22043.00
1444.826, 22223.00
1445.874, 22278.00
1446.922, 22220.00
1447.969, 22145.00
1449.016, 22361.00
1450.063, 22174.00
1451.110, 22374.00
1452.157, 22457.00
1453.203, 22498.00
1454.250, 22349.00
1455.296, 22417.00
1456.342, 22191.00
1457.388, 22616.00
1458.433, 22362.00
1459.479, 22471.00
1460.524, 22499.00
1461.570, 22499.00
1462.615, 22533.00
1463.660, 22525.46
1464.705, 22508.86
1465.749, 22495.00
1466.794, 22455.00
1467.838, 22394.00
1468.882, 22364.73
1469.926, 22407.00
1470.970, 22418.00
1472.013, 22305.00
1473.057, 22442.00
1474.100, 22657.00
1475.143, 22737.00
1476.186, 22525.00
1477.229, 22642.00
1478.272, 22613.00
1479.314, 22674.00
1480.357, 22678.00
1481.399, 22651.00
1482.441, 22743.00
1483.483, 22592.00
1484.525, 22563.00
1485.566, 22606.00
1486.608, 22813.00
1487.649, 22795.00
1488.690, 22720.00
1489.731, 22616.00
1490.771, 22721.00
1491.812, 22825.00
1492.853, 22786.00
1493.893, 22675.00
1494.933, 22917.00
1495.973, 22967.00
1497.013, 22726.00
1498.052, 22853.00
1499.092, 22815.00
1500.131, 22971.00
1501.170, 22828.00
1502.209, 22828.00
1503.248, 23100.00
1504.287, 22893.00
1505.325, 23071.00
1506.363, 23101.00
1507.402, 23113.00
1508.440, 22995.00
1509.478, 23203.00
1510.515, 22938.00
1511.553, 23219.00
1512.590, 23116.00
1513.627, 23181.00
1514.664, 23302.00
1515.701, 23251.00
1516.738, 23332.00
1517.775, 23423.00
1518.811, 23402.00
1519.847, 23154.00
1520.883, 23194.00
1521.919, 23283.00
1522.955, 23591.00
1523.991, 23450.00
1525.026, 23558.00
1526.061, 23494.00
1527.096, 23642.00
1528.131, 23575.00
1529.166, 23776.00
1530.201, 23645.00
1531.235, 23505.00
1532.270, 23461.00
1533.304, 23639.00
1534.338, 23635.00
1535.372, 23719.00
1536.405, 23878.00
1537.439, 23730.00
1538.472, 23824.00
1539.505, 24038.00
1540.538, 23882.00
1541.571, 23823.00
1542.604, 23927.00
1543.637, 23968.00
1544.669, 23812.00
1545.701, 23771.00
1546.733, 23853.00
1547.765, 23964.00
1548.797, 24179.00
1549.829, 24232.00
1550.860, 23947.00
1551.891, 24306.00
1552.922, 23984.00
1553.953, 24056.00
1554.984, 24179.00
1556.015, 23989.00
1557.045, 24068.00
1558.076, 24088.74
1559.106, 24166.00
1560.136, 24159.00
1561.165, 24202.00
1562.195, 24205.00
1563.225, 24474.00
1564.254, 24283.00
1565.283, 24380.00
##END=



