##NAMES=Diaspore
##RRUFFID=R060546
##IDEAL CHEMISTRY=AlO(OH)
##LOCALITY=Turkey
##OWNER=RRUFF
##SOURCE=Gemological Institute of America
##DESCRIPTION=Platy transparent pale yellow fragment
##STATUS=The identification of this mineral has been confirmed by X-ray diffraction and chemical analysis
##URL=rruff.info/R060546
##MEASURED CHEMISTRY=(Al_0.99_Fe^3+^_0.01_)_Î£=1_O(OH) ; OH estimated by difference; Fe^3+^ by charge balance
##PIN_ID=L01871
##ORIENTATION=Laser parallel to a* (1 0 0). Fiducial mark perpendicular to laser is parallel to b [0 1 0]
132.8980, 16519.00
134.1270, 16492.00
135.3560, 16691.00
136.5850, 16596.00
137.8140, 16730.00
139.0430, 16890.00
140.2710, 17246.00
141.5000, 17468.00
142.7280, 17706.00
143.9560, 17958.00
145.1840, 18988.00
146.4120, 19620.00
147.6390, 19831.00
148.8670, 19976.00
150.0940, 20482.00
151.3210, 21163.00
152.5490, 21618.00
153.7750, 21258.00
155.0020, 21103.00
156.2290, 20919.00
157.4550, 20748.00
158.6810, 20288.00
159.9080, 19352.00
161.1340, 18807.00
162.3590, 18258.00
163.5850, 17898.00
164.8110, 17948.00
166.0360, 17900.00
167.2610, 17974.00
168.4860, 17782.00
169.7110, 17701.00
170.9360, 17797.00
172.1610, 17897.00
173.3850, 17913.00
174.6100, 18003.29
175.8340, 17981.00
177.0580, 18066.00
178.2820, 18178.00
179.5050, 18094.00
180.7290, 18112.00
181.9520, 18180.00
183.1760, 18252.00
184.3990, 18289.00
185.6220, 18268.00
186.8450, 18315.00
188.0670, 18411.00
189.2900, 18354.00
190.5120, 18443.43
191.7340, 18402.00
192.9560, 18514.00
194.1780, 18628.00
195.4000, 18613.00
196.6220, 18770.00
197.8430, 18638.00
199.0640, 18652.00
200.2860, 18749.00
201.5070, 18794.00
202.7270, 18843.00
203.9480, 18912.00
205.1690, 18776.00
206.3890, 18759.00
207.6090, 18741.00
208.8290, 18761.00
210.0490, 18785.00
211.2690, 18806.25
212.4890, 18855.60
213.7080, 18887.00
214.9280, 18935.00
216.1470, 18955.97
217.3660, 18981.00
218.5850, 19000.00
219.8030, 19027.00
221.0220, 19059.00
222.2400, 18793.00
223.4590, 18969.00
224.6770, 18975.00
225.8950, 19104.00
227.1120, 19273.00
228.3300, 19292.00
229.5480, 19339.00
230.7650, 19288.00
231.9820, 19236.00
233.1990, 19214.00
234.4160, 19447.00
235.6330, 19352.00
236.8490, 19473.00
238.0660, 19518.00
239.2820, 19383.00
240.4980, 19414.00
241.7140, 19533.00
242.9300, 19536.00
244.1460, 19514.00
245.3610, 19627.00
246.5770, 19520.00
247.7920, 19557.00
249.0070, 19673.00
250.2220, 19826.00
251.4370, 19657.00
252.6510, 19693.00
253.8660, 19837.00
255.0800, 19820.00
256.2940, 20025.17
257.5080, 20055.00
258.7220, 20206.00
259.9360, 20155.95
261.1490, 20146.05
262.3630, 19968.00
263.5760, 20055.00
264.7890, 19888.00
266.0020, 19914.00
267.2150, 20448.00
268.4270, 20189.42
269.6400, 20733.00
270.8520, 20092.00
272.0640, 20195.00
273.2760, 20131.00
274.4880, 20193.00
275.7000, 20556.00
276.9120, 20562.00
278.1230, 20615.00
279.3340, 20777.00
280.5450, 20751.00
281.7560, 20812.00
282.9670, 20998.00
284.1780, 21018.00
285.3880, 21248.00
286.5980, 21336.00
287.8090, 21389.00
289.0190, 21391.00
290.2290, 21382.00
291.4380, 21234.00
292.6480, 21145.00
293.8570, 21054.00
295.0670, 20906.00
296.2760, 20887.67
297.4850, 20722.00
298.6930, 20846.00
299.9020, 20908.00
301.1110, 20938.00
302.3190, 20928.00
303.5270, 20692.00
304.7350, 20873.00
305.9430, 20943.00
307.1510, 20701.00
308.3580, 20849.00
309.5660, 21046.00
310.7730, 21023.00
311.9800, 20907.00
313.1870, 21070.00
314.3940, 21240.00
315.6010, 21086.00
316.8070, 21271.00
318.0130, 21664.00
319.2200, 21520.00
320.4260, 21917.00
321.6310, 22454.00
322.8370, 22966.00
324.0430, 23342.00
325.2480, 23683.00
326.4540, 24026.86
327.6590, 24378.00
328.8640, 24534.00
330.0680, 24718.00
331.2730, 24843.68
332.4780, 24677.00
333.6820, 24658.00
334.8860, 24178.00
336.0900, 23665.00
337.2940, 23007.00
338.4980, 22652.00
339.7010, 22329.00
340.9050, 22072.36
342.1080, 22238.00
343.3110, 21921.00
344.5140, 22101.00
345.7170, 22290.00
346.9200, 22010.00
348.1220, 22102.00
349.3240, 22131.00
350.5270, 21964.00
351.7290, 22312.00
352.9310, 22320.00
354.1320, 22341.00
355.3340, 22517.00
356.5350, 23029.00
357.7370, 23490.00
358.9380, 24339.00
360.1390, 25332.00
361.3400, 25750.00
362.5400, 26159.00
363.7410, 26772.00
364.9410, 26941.00
366.1410, 26894.00
367.3410, 26888.00
368.5410, 26554.00
369.7410, 26310.00
370.9400, 26135.00
372.1400, 25429.00
373.3390, 24710.00
374.5380, 23795.00
375.7370, 23497.00
376.9360, 23376.00
378.1350, 23085.00
379.3330, 23008.00
380.5310, 23040.00
381.7300, 22859.00
382.9280, 22982.00
384.1260, 23137.00
385.3230, 23143.00
386.5210, 23246.00
387.7180, 23261.68
388.9160, 23147.00
390.1130, 23243.00
391.3100, 23244.00
392.5060, 23181.00
393.7030, 23485.00
394.9000, 23600.00
396.0960, 23589.00
397.2920, 23641.00
398.4880, 23545.00
399.6840, 23266.00
400.8800, 23522.00
402.0750, 23217.00
403.2710, 23427.00
404.4660, 23529.00
405.6610, 23370.00
406.8560, 23364.00
408.0510, 23399.00
409.2450, 23413.00
410.4400, 23499.00
411.6340, 23618.00
412.8280, 23547.00
414.0220, 23734.00
415.2160, 23707.00
416.4100, 23646.00
417.6030, 23955.00
418.7970, 23829.00
419.9900, 23907.00
421.1830, 23985.00
422.3760, 23928.00
423.5690, 24119.00
424.7610, 24252.00
425.9540, 24202.00
427.1460, 24391.00
428.3380, 24495.00
429.5300, 24726.00
430.7220, 24823.00
431.9140, 25328.00
433.1050, 25720.00
434.2970, 26351.00
435.4880, 27180.00
436.6790, 28933.00
437.8700, 31628.00
439.0610, 36567.00
440.2510, 42247.00
441.4420, 46204.00
442.6320, 48562.00
443.8220, 51778.00
445.0120, 55335.00
446.2020, 57274.00
447.3910, 56758.00
448.5810, 55368.00
449.7700, 53685.00
450.9600, 50070.00
452.1490, 44763.00
453.3370, 39009.00
454.5260, 34102.00
455.7150, 30716.00
456.9030, 28249.00
458.0910, 27273.00
459.2800, 26635.00
460.4670, 26162.00
461.6550, 26120.00
462.8430, 25772.00
464.0300, 25688.00
465.2180, 25472.00
466.4050, 25476.00
467.5920, 25374.00
468.7790, 25306.00
469.9650, 25282.00
471.1520, 25303.00
472.3380, 25285.00
473.5250, 25241.16
474.7110, 25385.00
475.8970, 25213.00
477.0820, 25268.00
478.2680, 25423.00
479.4540, 25581.00
480.6390, 25420.00
481.8240, 25545.00
483.0090, 25676.00
484.1940, 25931.00
485.3780, 25638.00
486.5630, 26016.00
487.7470, 26558.00
488.9320, 27427.00
490.1160, 28900.00
491.3000, 30006.00
492.4830, 30878.00
493.6670, 31684.00
494.8500, 32365.00
496.0340, 33141.00
497.2170, 33209.00
498.4000, 32960.00
499.5820, 32500.00
500.7650, 31875.00
501.9480, 30929.00
503.1300, 29947.00
504.3120, 28501.00
505.4940, 27430.00
506.6760, 26730.00
507.8580, 26295.00
509.0390, 26336.00
510.2210, 25942.00
511.4020, 26033.00
512.5830, 25807.00
513.7640, 25885.00
514.9450, 25928.00
516.1250, 25939.00
517.3060, 26093.00
518.4860, 25997.00
519.6660, 26064.58
520.8460, 25792.00
522.0260, 26038.00
523.2060, 26059.00
524.3850, 25939.00
525.5650, 26103.00
526.7440, 26043.00
527.9230, 26220.00
529.1020, 26124.00
530.2810, 26085.00
531.4590, 26240.00
532.6380, 26374.00
533.8160, 26453.00
534.9940, 26170.00
536.1720, 26258.00
537.3500, 26358.00
538.5270, 26385.00
539.7050, 26519.00
540.8820, 26445.00
542.0590, 26417.00
543.2360, 26606.00
544.4130, 26624.00
545.5900, 26733.00
546.7660, 26742.00
547.9430, 26897.00
549.1190, 27034.00
550.2950, 27107.00
551.4710, 27030.00
552.6470, 27244.00
553.8220, 27325.00
554.9980, 27142.00
556.1730, 27183.00
557.3480, 27138.00
558.5230, 27173.00
559.6980, 27223.00
560.8730, 27158.00
562.0470, 26968.00
563.2220, 27108.00
564.3960, 27257.00
565.5700, 27171.00
566.7440, 27426.00
567.9170, 27392.00
569.0910, 27409.00
570.2640, 27786.00
571.4380, 27855.00
572.6110, 27948.00
573.7840, 28092.00
574.9570, 27899.00
576.1290, 28044.00
577.3020, 28071.00
578.4740, 27919.00
579.6460, 28136.00
580.8180, 27855.00
581.9900, 27943.00
583.1620, 27967.00
584.3330, 27934.00
585.5040, 27956.00
586.6760, 27829.00
587.8470, 28045.00
589.0180, 27588.00
590.1880, 27616.00
591.3590, 27575.00
592.5290, 27807.00
593.7000, 27692.00
594.8700, 27719.00
596.0400, 28084.00
597.2090, 28336.00
598.3790, 28434.00
599.5490, 28481.00
600.7180, 28680.00
601.8870, 29122.00
603.0560, 29333.00
604.2250, 29760.00
605.3940, 29677.00
606.5620, 29926.00
607.7300, 29907.00
608.8990, 29955.00
610.0670, 30167.00
611.2350, 30006.00
612.4020, 29604.00
613.5700, 29496.00
614.7370, 29091.00
615.9050, 29291.00
617.0720, 29061.00
618.2390, 28906.00
619.4060, 28982.00
620.5720, 28834.00
621.7390, 28764.00
622.9050, 28564.00
624.0710, 28487.00
625.2370, 28662.00
626.4030, 28570.00
627.5690, 28713.00
628.7340, 28750.00
629.9000, 28641.00
631.0650, 28856.00
632.2300, 28663.00
633.3950, 28777.00
634.5600, 28899.00
635.7240, 28845.00
636.8890, 28838.00
638.0530, 29013.00
639.2170, 29189.00
640.3810, 29051.00
641.5450, 29285.00
642.7080, 29183.00
643.8720, 29645.00
645.0350, 29559.00
646.1980, 29712.00
647.3610, 29848.00
648.5240, 30043.00
649.6870, 30283.00
650.8490, 30688.00
652.0120, 30807.00
653.1740, 31296.00
654.3360, 31785.00
655.4980, 32705.00
656.6600, 33452.00
657.8210, 34225.00
658.9830, 35343.00
660.1440, 35993.00
661.3050, 36914.00
662.4660, 37631.00
663.6270, 38063.00
664.7870, 38800.00
665.9480, 38324.00
667.1080, 38306.00
668.2680, 37548.00
669.4280, 36886.00
670.5880, 35983.00
671.7480, 35209.00
672.9070, 34503.00
674.0670, 33699.00
675.2260, 33009.00
676.3850, 32434.00
677.5440, 31798.00
678.7030, 31661.00
679.8610, 31361.00
681.0200, 30999.00
682.1780, 31007.00
683.3360, 30905.00
684.4940, 30936.00
685.6520, 30723.00
686.8090, 30438.00
687.9670, 30394.00
689.1240, 30451.00
690.2810, 30350.00
691.4380, 30459.00
692.5950, 30472.12
693.7520, 30416.00
694.9080, 30541.00
696.0650, 30457.00
697.2210, 30402.00
698.3770, 30539.00
699.5330, 30458.00
700.6880, 30516.00
701.8440, 30627.00
702.9990, 30471.00
704.1550, 30519.00
705.3100, 30561.00
706.4650, 30467.00
707.6190, 30569.00
708.7740, 30496.00
709.9290, 30479.00
711.0830, 30463.00
712.2370, 30784.00
713.3910, 30788.00
714.5450, 30674.00
715.6980, 30678.00
716.8520, 30631.00
718.0050, 30646.00
719.1580, 30617.00
720.3110, 30453.00
721.4640, 30705.00
722.6170, 30573.00
723.7700, 30652.00
724.9220, 30982.00
726.0740, 30831.00
727.2260, 30986.00
728.3780, 30835.00
729.5300, 30958.00
730.6810, 30950.00
731.8330, 30845.00
732.9840, 30967.00
734.1350, 31066.00
735.2860, 30800.00
736.4370, 30920.86
737.5880, 30970.00
738.7380, 30874.00
739.8880, 31056.00
741.0390, 31031.00
742.1890, 31060.00
743.3380, 31077.00
744.4880, 31133.00
745.6380, 31096.00
746.7870, 31145.00
747.9360, 31145.38
749.0850, 31015.00
750.2340, 31097.00
751.3830, 31142.00
752.5310, 30992.00
753.6800, 31324.00
754.8280, 31015.00
755.9760, 31269.00
757.1240, 31474.00
758.2720, 31089.00
759.4190, 31451.00
760.5670, 31214.00
761.7140, 31307.00
762.8610, 31597.00
764.0080, 31637.00
765.1550, 31500.00
766.3020, 31453.00
767.4480, 31495.00
768.5950, 31625.00
769.7410, 31532.00
770.8870, 31604.00
772.0330, 31860.00
773.1780, 31827.00
774.3240, 31956.00
775.4690, 32151.00
776.6140, 32067.00
777.7590, 31998.00
778.9040, 32305.00
780.0490, 32538.00
781.1940, 32725.00
782.3380, 32868.83
783.4820, 33013.57
784.6260, 33110.00
785.7700, 33286.00
786.9140, 33541.00
788.0580, 33810.00
789.2010, 33921.00
790.3450, 34043.34
791.4880, 34057.00
792.6310, 34085.00
793.7730, 34005.00
794.9160, 33890.00
796.0590, 33704.00
797.2010, 33563.37
798.3430, 33352.00
799.4850, 33244.00
800.6270, 32955.00
801.7690, 32881.00
802.9100, 32784.00
804.0520, 32782.00
805.1930, 32580.00
806.3340, 32683.00
807.4750, 32510.00
808.6160, 32326.00
809.7560, 32582.00
810.8970, 32579.00
812.0370, 32312.00
813.1770, 32404.00
814.3170, 32279.00
815.4570, 32238.94
816.5960, 32469.00
817.7360, 32272.00
818.8750, 32292.00
820.0140, 32457.00
821.1530, 32447.00
822.2920, 32487.00
823.4310, 32334.00
824.5690, 32445.00
825.7070, 32426.00
826.8460, 32527.00
827.9840, 32589.00
829.1220, 32520.00
830.2590, 32787.00
831.3970, 32663.00
832.5340, 32446.00
833.6710, 32635.00
834.8080, 32747.00
835.9450, 32709.00
837.0820, 32767.00
838.2190, 32747.00
839.3550, 32699.00
840.4910, 32761.34
841.6270, 32680.00
842.7630, 32764.00
843.8990, 32800.00
845.0350, 32651.00
846.1700, 32699.00
847.3060, 32882.00
848.4410, 33216.00
849.5760, 32718.00
850.7100, 32954.00
851.8450, 32849.00
852.9800, 33122.00
854.1140, 33141.00
855.2480, 33057.00
856.3820, 33064.00
857.5160, 33243.00
858.6500, 33382.00
859.7830, 33251.00
860.9170, 33393.00
862.0500, 33273.00
863.1830, 33161.00
864.3160, 33310.00
865.4480, 33373.00
866.5810, 33129.00
867.7130, 33500.00
868.8460, 33449.00
869.9780, 33416.00
871.1100, 33382.00
872.2410, 33372.39
873.3730, 33356.00
874.5050, 33388.00
875.6360, 33487.00
876.7670, 33541.00
877.8980, 33520.00
879.0290, 33548.65
880.1590, 33580.00
881.2900, 33533.00
882.4200, 33566.00
883.5500, 33603.00
884.6800, 33688.00
885.8100, 33642.00
886.9400, 33538.00
888.0690, 33959.00
889.1990, 33886.00
890.3280, 33999.00
891.4570, 33759.00
892.5860, 33758.00
893.7140, 33998.00
894.8430, 33868.00
895.9710, 34195.00
897.1000, 33995.00
898.2280, 34106.00
899.3560, 34121.00
900.4830, 34105.00
901.6110, 34064.00
902.7380, 34263.00
903.8660, 34285.00
904.9930, 34266.00
906.1200, 34473.00
907.2460, 34387.00
908.3730, 34318.00
909.5000, 34503.00
910.6260, 34329.00
911.7520, 34188.00
912.8780, 34452.00
914.0040, 34318.00
915.1290, 34416.00
916.2550, 34550.00
917.3800, 34493.00
918.5050, 34853.00
919.6300, 34811.00
920.7550, 34759.00
921.8800, 34771.00
923.0040, 34704.00
924.1290, 34726.00
925.2530, 34724.11
926.3770, 34826.00
927.5010, 34785.00
928.6250, 34877.00
929.7480, 34989.00
930.8720, 35065.00
931.9950, 34846.00
933.1180, 35016.00
934.2410, 34910.00
935.3640, 34883.00
936.4860, 35048.00
937.6090, 34924.00
938.7310, 35141.00
939.8530, 35167.00
940.9750, 35231.00
942.0970, 35096.00
943.2180, 35235.00
944.3400, 35223.00
945.4610, 35161.00
946.5820, 35184.00
947.7030, 35341.00
948.8240, 35489.00
949.9450, 35430.00
951.0650, 35436.00
952.1860, 35544.00
953.3060, 35589.00
954.4260, 35346.00
955.5460, 35405.00
956.6650, 35641.00
957.7850, 35512.00
958.9040, 35701.00
960.0230, 35630.00
961.1420, 35767.00
962.2610, 35667.00
963.3800, 35793.00
964.4990, 35789.00
965.6170, 35554.00
966.7350, 35746.00
967.8530, 36039.00
968.9710, 35778.00
970.0890, 35849.00
971.2070, 35808.00
972.3240, 36365.00
973.4410, 35955.00
974.5580, 36224.00
975.6750, 36001.00
976.7920, 36374.00
977.9090, 36033.00
979.0250, 36226.00
980.1410, 36353.00
981.2580, 36291.00
982.3740, 36392.00
983.4890, 36352.00
984.6050, 36523.00
985.7200, 36734.00
986.8360, 36388.00
987.9510, 36349.00
989.0660, 36583.00
990.1810, 36544.00
991.2950, 36883.00
992.4100, 37063.00
993.5240, 36543.00
994.6390, 36860.00
995.7530, 36950.00
996.8660, 36757.00
997.9800, 36783.00
999.0940, 36934.00
1000.207, 37037.00
1001.320, 37150.00
1002.433, 37150.91
1003.546, 37082.00
1004.659, 37124.00
1005.772, 37041.00
1006.884, 37069.00
1007.996, 37055.94
1009.108, 37215.00
1010.220, 37030.00
1011.332, 37144.00
1012.444, 37106.00
1013.555, 37118.00
1014.666, 37444.00
1015.777, 37255.00
1016.888, 37469.00
1017.999, 37393.00
1019.110, 37311.00
1020.220, 37489.00
1021.331, 37414.00
1022.441, 37460.00
1023.551, 37485.00
1024.661, 37679.00
1025.770, 37539.00
1026.880, 37586.57
1027.989, 37658.86
1029.098, 37609.00
1030.207, 37667.00
1031.316, 37898.00
1032.425, 37689.00
1033.533, 37796.00
1034.642, 37636.00
1035.750, 37901.00
1036.858, 38101.00
1037.966, 38024.00
1039.073, 38026.00
1040.181, 37992.00
1041.288, 38218.00
1042.396, 38332.00
1043.503, 38620.00
1044.610, 38418.00
1045.716, 38800.00
1046.823, 38628.00
1047.929, 38689.00
1049.036, 38680.00
1050.142, 38532.00
1051.248, 38477.00
1052.353, 38367.00
1053.459, 38395.00
1054.564, 38293.00
1055.670, 38264.00
1056.775, 38460.00
1057.880, 37968.00
1058.985, 38099.00
1060.089, 37911.00
1061.194, 38019.00
1062.298, 38204.00
1063.402, 38164.00
1064.506, 38258.48
1065.610, 38146.00
1066.713, 38307.00
1067.817, 38176.00
1068.920, 38182.00
1070.023, 38265.00
1071.126, 38492.00
1072.229, 38453.00
1073.332, 38526.00
1074.435, 38657.00
1075.537, 38496.00
1076.639, 38404.00
1077.741, 38675.00
1078.843, 38413.00
1079.945, 38659.00
1081.046, 38545.00
1082.148, 38686.00
1083.249, 38617.00
1084.350, 38456.00
1085.451, 38785.00
1086.551, 38621.00
1087.652, 38604.00
1088.752, 38794.00
1089.853, 38732.00
1090.953, 38872.00
1092.053, 38581.00
1093.152, 38573.00
1094.252, 38765.00
1095.351, 38852.00
1096.451, 38957.00
1097.550, 38800.00
1098.649, 38950.00
1099.748, 38840.00
1100.846, 38953.00
1101.945, 38880.00
1103.043, 38927.00
1104.141, 39037.00
1105.239, 39203.00
1106.337, 39059.00
1107.434, 39090.00
1108.532, 38922.00
1109.629, 39027.00
1110.726, 39217.00
1111.823, 38926.00
1112.920, 39087.00
1114.017, 38971.00
1115.113, 39140.00
1116.210, 39304.00
1117.306, 39637.00
1118.402, 39967.00
1119.498, 40470.00
1120.593, 40408.00
1121.689, 40472.00
1122.784, 40850.00
1123.879, 40841.00
1124.974, 40769.00
1126.069, 40536.00
1127.164, 40075.00
1128.259, 39794.00
1129.353, 39815.00
1130.447, 39728.00
1131.541, 39723.00
1132.635, 39698.67
1133.729, 39446.00
1134.822, 39593.00
1135.916, 39734.00
1137.009, 39563.00
1138.102, 39432.00
1139.195, 39585.00
1140.288, 39493.00
1141.380, 39652.00
1142.473, 39472.00
1143.565, 39767.00
1144.657, 39776.00
1145.749, 39677.00
1146.841, 39765.00
1147.932, 39758.51
1149.024, 39891.00
1150.115, 39803.00
1151.206, 39878.00
1152.297, 39834.00
1153.388, 39720.00
1154.479, 40207.00
1155.569, 39824.00
1156.659, 40110.00
1157.750, 39987.00
1158.839, 40062.00
1159.929, 40249.00
1161.019, 40264.00
1162.108, 40318.00
1163.198, 40352.21
1164.287, 40397.64
1165.376, 40413.80
1166.465, 40456.00
1167.553, 40425.00
1168.642, 40358.00
1169.730, 40332.00
1170.818, 40336.00
1171.906, 40436.00
1172.994, 40424.00
1174.082, 40545.00
1175.170, 40707.00
1176.257, 40623.00
1177.344, 40834.00
1178.431, 41081.00
1179.518, 41110.00
1180.605, 41168.00
1181.691, 41551.00
1182.778, 41886.00
1183.864, 42360.00
1184.950, 42732.00
1186.036, 43196.00
1187.122, 44335.00
1188.207, 44750.00
1189.292, 44965.00
1190.378, 44873.00
1191.463, 45269.00
1192.548, 44903.00
1193.632, 44938.00
1194.717, 44882.00
1195.801, 44448.00
1196.886, 43791.00
1197.970, 43273.00
1199.054, 43024.00
1200.137, 42585.00
1201.221, 42332.97
1202.305, 41960.00
1203.388, 41917.00
1204.471, 41823.00
1205.554, 41734.00
1206.637, 41498.00
1207.719, 41220.00
1208.802, 41303.00
1209.884, 41108.00
1210.966, 41372.00
1212.048, 41347.00
1213.130, 41122.00
1214.212, 41352.00
1215.293, 41122.00
1216.374, 41360.00
1217.456, 41056.00
1218.536, 41290.00
1219.617, 41054.00
1220.698, 41297.00
1221.778, 41284.00
1222.859, 41301.00
1223.939, 41357.00
1225.019, 41347.30
1226.099, 41457.00
1227.178, 41412.00
1228.258, 41362.00
1229.337, 41479.00
1230.417, 41462.00
1231.496, 41391.00
1232.574, 41683.00
1233.653, 41477.00
1234.732, 41639.00
1235.810, 41496.00
1236.888, 41251.00
1237.966, 41677.00
1239.044, 41804.00
1240.122, 41477.00
1241.199, 41705.00
1242.277, 41635.00
1243.354, 41611.00
1244.431, 41773.00
1245.508, 41797.00
1246.585, 41804.00
1247.661, 41809.00
1248.738, 41798.00
1249.814, 41637.00
1250.890, 41714.00
1251.966, 41883.00
1253.042, 41779.00
1254.117, 41612.00
1255.193, 41860.00
1256.268, 41790.00
1257.343, 41752.00
1258.418, 41854.00
1259.493, 41822.00
1260.567, 41851.00
1261.642, 41919.48
1262.716, 42099.00
1263.790, 42043.00
1264.864, 42102.00
1265.938, 42175.00
1267.011, 42010.00
1268.085, 41932.00
1269.158, 42045.00
1270.231, 42203.00
1271.304, 42133.00
1272.377, 42124.00
1273.450, 42403.00
1274.522, 42025.00
1275.594, 42129.00
1276.666, 42208.00
1277.738, 42111.00
1278.810, 42473.00
1279.882, 42162.00
1280.953, 42300.00
1282.025, 42069.00
1283.096, 42242.00
1284.167, 42302.00
1285.238, 42062.00
1286.308, 42228.00
1287.379, 42357.00
1288.449, 42768.00
1289.519, 42191.00
1290.589, 42629.00
1291.659, 42490.00
1292.729, 42590.00
1293.798, 42586.00
1294.868, 42490.00
1295.937, 42638.00
1297.006, 42568.00
1298.075, 42572.00
1299.143, 42844.00
1300.212, 42702.00
1301.280, 42515.00
1302.348, 42603.00
1303.416, 42777.00
1304.484, 42962.00
1305.552, 42739.00
1306.620, 42622.00
1307.687, 43008.00
1308.754, 42729.00
1309.821, 43215.00
1310.888, 42897.00
1311.955, 43030.00
1313.021, 42862.00
1314.088, 43112.00
1315.154, 43269.00
1316.220, 42991.00
1317.286, 43339.00
1318.352, 43047.00
1319.417, 43265.00
1320.483, 43382.00
1321.548, 43379.00
1322.613, 43299.00
1323.678, 43297.00
1324.743, 43187.00
1325.807, 43414.00
1326.872, 43211.00
1327.936, 43482.00
1329.000, 43740.00
1330.064, 43427.00
1331.128, 43616.00
1332.191, 43180.00
1333.255, 43554.00
1334.318, 43531.00
1335.381, 43536.00
1336.444, 43600.00
1337.507, 43528.00
1338.569, 43688.00
1339.632, 43713.00
1340.694, 43608.00
1341.756, 43832.00
1342.818, 43986.00
1343.880, 43801.00
1344.941, 43714.00
1346.003, 43979.00
1347.064, 43725.00
1348.125, 43690.00
1349.186, 43965.00
1350.247, 43767.00
1351.308, 43727.00
1352.368, 43747.00
1353.428, 43985.00
1354.489, 43842.00
1355.549, 43897.00
1356.608, 44024.00
1357.668, 44053.00
1358.727, 43829.00
1359.787, 43913.00
1360.846, 44185.00
1361.905, 43841.00
1362.964, 44163.00
1364.022, 44123.00
1365.081, 43999.00
1366.139, 44133.00
1367.197, 44156.00
1368.255, 44153.71
1369.313, 44098.00
1370.371, 44202.00
1371.428, 44171.00
1372.486, 44185.00
1373.543, 44318.00
1374.600, 44132.00
1375.657, 44160.00
1376.713, 44060.00
1377.770, 44316.00
1378.826, 44659.00
1379.882, 44510.00
1380.938, 44663.39
1381.994, 44392.00
1383.050, 44542.00
1384.106, 44392.00
1385.161, 44162.00
1386.216, 44668.00
1387.271, 44693.00
1388.326, 44389.00
1389.381, 44417.00
1390.435, 44747.00
1391.490, 44631.00
1392.544, 44547.00
1393.598, 44707.00
1394.652, 44710.00
1395.705, 44815.00
1396.759, 44797.00
1397.812, 44781.00
1398.866, 45011.00
1399.919, 44685.00
1400.972, 44558.00
1402.024, 44692.00
1403.077, 44827.00
1404.129, 44683.00
1405.181, 44994.00
1406.233, 45073.00
1407.285, 44883.00
1408.337, 45037.00
1409.389, 45216.00
1410.440, 44816.00
1411.491, 45083.00
1412.542, 45004.00
1413.593, 45255.00
1414.644, 45078.00
1415.695, 45153.00
1416.745, 45243.00
1417.795, 45025.00
1418.845, 45055.00
1419.895, 45018.00
1420.945, 45017.00
1421.995, 45174.00
1423.044, 45180.00
1424.093, 45290.00
1425.142, 45370.00
1426.191, 45552.00
1427.240, 45560.24
1428.289, 45569.00
1429.337, 45626.00
1430.385, 45494.00
1431.433, 45539.00
1432.481, 45521.00
1433.529, 45607.00
1434.577, 45767.00
1435.624, 45518.00
1436.672, 45452.00
1437.719, 45781.00
1438.766, 45580.00
1439.812, 45669.00
1440.859, 45948.00
1441.905, 45816.00
1442.952, 45663.00
1443.998, 45887.00
1445.044, 45645.00
1446.090, 45919.00
1447.135, 46114.00
1448.181, 45890.00
1449.226, 45944.00
1450.271, 46258.00
1451.316, 46046.00
1452.361, 45835.00
1453.405, 46249.00
1454.450, 45819.00
1455.494, 45930.00
1456.538, 45961.00
1457.582, 46185.00
1458.626, 46099.00
1459.670, 46186.00
1460.713, 46147.00
1461.757, 46005.00
1462.800, 46517.00
1463.843, 46331.00
1464.886, 46284.00
1465.928, 46137.00
1466.971, 46367.00
1468.013, 46506.00
1469.055, 46244.00
1470.097, 46391.00
1471.139, 46251.00
1472.181, 46195.00
1473.222, 46427.00
1474.263, 46405.00
1475.305, 46367.00
1476.346, 46296.00
1477.386, 46466.00
1478.427, 46700.00
1479.468, 46570.00
1480.508, 46319.00
1481.548, 46468.00
1482.588, 46281.00
1483.628, 46660.00
1484.668, 46607.00
1485.707, 46522.00
1486.747, 46495.00
1487.786, 46529.00
1488.825, 46651.00
1489.864, 46681.00
1490.902, 47023.00
1491.941, 46565.00
1492.979, 46997.00
1494.017, 46567.00
1495.055, 46738.00
1496.093, 46722.00
1497.131, 46826.00
1498.168, 46886.00
1499.206, 46602.00
1500.243, 46907.00
1501.280, 46733.00
1502.317, 47108.00
1503.354, 46988.00
1504.390, 47107.00
1505.426, 47126.64
1506.463, 47038.00
1507.499, 47050.00
1508.535, 46969.00
1509.570, 46931.00
1510.606, 46875.00
1511.641, 47105.00
1512.676, 47153.00
1513.711, 47123.00
1514.746, 47022.00
1515.781, 47222.00
1516.816, 46959.00
1517.850, 47237.00
1518.884, 47167.00
1519.918, 47357.00
1520.952, 47312.00
1521.986, 47252.00
1523.019, 47659.00
1524.053, 47303.00
1525.086, 47111.00
1526.119, 47603.00
1527.152, 47464.00
1528.185, 47248.00
1529.217, 47517.00
1530.250, 47455.00
1531.282, 47260.00
1532.314, 47693.00
1533.346, 47514.00
1534.377, 47808.00
1535.409, 47573.00
1536.440, 47807.00
1537.472, 47749.00
1538.503, 47660.00
1539.534, 47695.00
1540.564, 47666.00
1541.595, 47642.00
1542.625, 47844.00
1543.656, 48083.00
1544.686, 47877.00
1545.716, 47740.00
1546.745, 48084.00
1547.775, 48102.00
1548.804, 47817.00
1549.834, 48037.00
1550.863, 47991.00
1551.892, 48204.00
1552.920, 48014.00
1553.949, 48290.00
1554.977, 48349.00
1556.006, 48071.00
1557.034, 47815.00
1558.062, 48136.00
1559.089, 48096.00
1560.117, 48120.00
1561.144, 47926.00
1562.172, 48023.00
1563.199, 48024.00
1564.226, 48078.00
1565.252, 48170.00
1566.279, 48090.00
1567.305, 48288.00
1568.332, 48179.00
1569.358, 48261.00
1570.384, 49375.00
1571.409, 49825.00
1572.435, 49374.00
##END=



