##NAMES=Diaspore
##RRUFFID=R060287
##IDEAL CHEMISTRY=AlO(OH)
##LOCALITY=Selcuk, Mugla Province, Turkey
##OWNER=RRUFF
##SOURCE=Herb Obodda
##DESCRIPTION=Colorless transparent platy fragment
##STATUS=The identification of this mineral has been confirmed by X-ray diffraction and chemical analysis
##URL=rruff.info/R060287
##MEASURED CHEMISTRY=(Al_0.99_Fe^3+^_0.01_)_Î£=1_O(OH) ; trace amounts of Ti;  OH estimated by difference ; Fe^3+^ by charge balance
##PIN_ID=L01646
##ORIENTATION=Laser parallel to -c* (0 0 -1). Fiducial mark perpendicular to laser is parallel to a [1 0 0]
114.4400, 9707.000
115.6710, 9650.000
116.9030, 9829.000
118.1340, 9961.000
119.3650, 9889.000
120.5960, 10017.00
121.8270, 10162.00
123.0580, 10247.00
124.2880, 10309.00
125.5190, 10405.00
126.7490, 10525.00
127.9790, 10460.00
129.2090, 10695.00
130.4390, 10857.00
131.6680, 11161.00
132.8980, 11580.00
134.1270, 11750.00
135.3560, 12347.00
136.5850, 13018.00
137.8140, 13826.00
139.0430, 14660.00
140.2710, 15241.00
141.5000, 15395.00
142.7280, 14986.00
143.9560, 14893.00
145.1840, 15369.00
146.4120, 15627.00
147.6390, 15367.00
148.8670, 15637.00
150.0940, 16644.00
151.3210, 18358.00
152.5490, 20532.00
153.7750, 21469.00
155.0020, 20881.00
156.2290, 20246.00
157.4550, 19622.00
158.6810, 17919.00
159.9080, 15700.00
161.1340, 13825.00
162.3590, 12621.00
163.5850, 11983.00
164.8110, 11726.00
166.0360, 11479.00
167.2610, 11490.00
168.4860, 11360.00
169.7110, 11379.00
170.9360, 11388.00
172.1610, 11348.87
173.3850, 11339.75
174.6100, 11342.00
175.8340, 11293.00
177.0580, 11273.00
178.2820, 11290.00
179.5050, 11413.00
180.7290, 11318.00
181.9520, 11512.00
183.1760, 11420.00
184.3990, 11433.00
185.6220, 11567.00
186.8450, 11540.00
188.0670, 11474.00
189.2900, 11671.00
190.5120, 11654.00
191.7340, 11673.00
192.9560, 11801.00
194.1780, 11747.00
195.4000, 11754.00
196.6220, 11777.00
197.8430, 11781.00
199.0640, 11797.77
200.2860, 11716.00
201.5070, 11824.00
202.7270, 11778.00
203.9480, 11781.00
205.1690, 11962.00
206.3890, 11926.00
207.6090, 11797.00
208.8290, 11861.00
210.0490, 11791.00
211.2690, 11882.00
212.4890, 11905.00
213.7080, 11874.00
214.9280, 12025.00
216.1470, 11958.00
217.3660, 12008.00
218.5850, 12057.00
219.8030, 12057.00
221.0220, 12006.00
222.2400, 12104.00
223.4590, 12071.00
224.6770, 12109.00
225.8950, 11944.00
227.1120, 12092.00
228.3300, 12141.00
229.5480, 12096.00
230.7650, 12213.00
231.9820, 12137.00
233.1990, 12185.00
234.4160, 12247.00
235.6330, 12262.00
236.8490, 12265.00
238.0660, 12385.00
239.2820, 12398.00
240.4980, 12294.00
241.7140, 12296.00
242.9300, 12372.00
244.1460, 12153.00
245.3610, 12244.00
246.5770, 12446.00
247.7920, 12424.00
249.0070, 12355.00
250.2220, 12539.00
251.4370, 12452.00
252.6510, 12409.00
253.8660, 12428.00
255.0800, 12569.00
256.2940, 12519.00
257.5080, 12606.00
258.7220, 12711.00
259.9360, 12702.99
261.1490, 12876.00
262.3630, 12814.00
263.5760, 12658.00
264.7890, 12797.00
266.0020, 12721.00
267.2150, 12752.00
268.4270, 12779.00
269.6400, 12796.00
270.8520, 12859.00
272.0640, 12838.00
273.2760, 12983.00
274.4880, 12997.00
275.7000, 13241.00
276.9120, 13332.00
278.1230, 13470.00
279.3340, 13526.00
280.5450, 13708.00
281.7560, 13734.00
282.9670, 13827.00
284.1780, 13792.00
285.3880, 14115.00
286.5980, 13934.00
287.8090, 14056.00
289.0190, 13802.00
290.2290, 13917.00
291.4380, 13767.00
292.6480, 13547.00
293.8570, 13428.00
295.0670, 13381.00
296.2760, 13367.00
297.4850, 13228.00
298.6930, 13210.00
299.9020, 13324.00
301.1110, 13293.00
302.3190, 13127.00
303.5270, 13327.00
304.7350, 13291.00
305.9430, 13227.00
307.1510, 13391.00
308.3580, 13357.00
309.5660, 13243.00
310.7730, 13295.00
311.9800, 13543.00
313.1870, 13431.00
314.3940, 13371.00
315.6010, 13495.00
316.8070, 13408.00
318.0130, 13437.00
319.2200, 13432.00
320.4260, 13718.00
321.6310, 13565.00
322.8370, 13898.00
324.0430, 14386.00
325.2480, 14865.00
326.4540, 15727.00
327.6590, 15159.00
328.8640, 15782.00
330.0680, 14525.00
331.2730, 14363.00
332.4780, 14447.00
333.6820, 14243.00
334.8860, 14270.00
336.0900, 14088.00
337.2940, 13971.00
338.4980, 14042.00
339.7010, 13939.00
340.9050, 14003.00
342.1080, 13775.00
343.3110, 13901.00
344.5140, 13822.00
345.7170, 13739.00
346.9200, 13899.00
348.1220, 13878.00
349.3240, 13836.00
350.5270, 13984.00
351.7290, 13879.00
352.9310, 14095.00
354.1320, 13973.00
355.3340, 14127.00
356.5350, 14100.00
357.7370, 14102.00
358.9380, 14192.00
360.1390, 14324.00
361.3400, 14361.00
362.5400, 14594.00
363.7410, 14484.00
364.9410, 14582.00
366.1410, 14748.00
367.3410, 14714.00
368.5410, 14646.00
369.7410, 14649.00
370.9400, 14544.00
372.1400, 14414.00
373.3390, 14593.00
374.5380, 14645.00
375.7370, 14504.00
376.9360, 14406.00
378.1350, 14505.00
379.3330, 14518.00
380.5310, 14644.00
381.7300, 14546.00
382.9280, 14590.00
384.1260, 14729.00
385.3230, 14675.00
386.5210, 14798.00
387.7180, 14762.00
388.9160, 14983.00
390.1130, 15040.00
391.3100, 15077.00
392.5060, 15150.00
393.7030, 15205.00
394.9000, 15317.00
396.0960, 15297.37
397.2920, 15208.00
398.4880, 15262.00
399.6840, 15065.00
400.8800, 15016.00
402.0750, 14982.00
403.2710, 14915.00
404.4660, 14938.66
405.6610, 14818.00
406.8560, 14997.00
408.0510, 15052.00
409.2450, 15107.00
410.4400, 14940.00
411.6340, 15028.00
412.8280, 15003.00
414.0220, 15193.00
415.2160, 15009.00
416.4100, 15189.00
417.6030, 15140.00
418.7970, 15216.00
419.9900, 15241.00
421.1830, 15424.00
422.3760, 15277.00
423.5690, 15519.00
424.7610, 15574.00
425.9540, 15616.00
427.1460, 15809.00
428.3380, 15847.00
429.5300, 16105.00
430.7220, 16299.00
431.9140, 16645.00
433.1050, 16969.00
434.2970, 17489.00
435.4880, 18718.00
436.6790, 19972.00
437.8700, 22566.00
439.0610, 26603.00
440.2510, 31337.00
441.4420, 35089.00
442.6320, 38632.00
443.8220, 44580.00
445.0120, 53600.00
446.2020, 61855.00
447.3910, 65535.00
448.5810, 64818.00
449.7700, 61436.00
450.9600, 54759.00
452.1490, 45527.00
453.3370, 36341.00
454.5260, 28631.00
455.7150, 23933.00
456.9030, 20848.00
458.0910, 19482.00
459.2800, 18369.00
460.4670, 17797.00
461.6550, 17316.00
462.8430, 17175.00
464.0300, 16926.00
465.2180, 16809.00
466.4050, 16735.00
467.5920, 16549.00
468.7790, 16465.00
469.9650, 16387.00
471.1520, 16310.00
472.3380, 16274.00
473.5250, 16211.00
474.7110, 16392.00
475.8970, 16220.00
477.0820, 16305.00
478.2680, 16297.00
479.4540, 16193.00
480.6390, 16184.00
481.8240, 16190.00
483.0090, 16189.00
484.1940, 16283.00
485.3780, 16342.57
486.5630, 16408.00
487.7470, 16546.00
488.9320, 16708.00
490.1160, 16822.00
491.3000, 17093.00
492.4830, 17174.00
493.6670, 17339.00
494.8500, 17723.00
496.0340, 18134.00
497.2170, 18592.00
498.4000, 18635.00
499.5820, 18701.00
500.7650, 18231.00
501.9480, 17937.00
503.1300, 17548.00
504.3120, 17138.00
505.4940, 16911.00
506.6760, 16569.00
507.8580, 16566.00
509.0390, 16519.00
510.2210, 16542.00
511.4020, 16393.00
512.5830, 16546.00
513.7640, 16628.00
514.9450, 16434.00
516.1250, 16624.00
517.3060, 16382.00
518.4860, 16460.00
519.6660, 16517.00
520.8460, 16650.00
522.0260, 16588.00
523.2060, 16614.16
524.3850, 16477.00
525.5650, 16536.00
526.7440, 16621.00
527.9230, 16571.00
529.1020, 16676.00
530.2810, 16535.00
531.4590, 16532.00
532.6380, 16593.00
533.8160, 16610.00
534.9940, 16638.00
536.1720, 16821.00
537.3500, 16625.00
538.5270, 16698.00
539.7050, 16561.00
540.8820, 16672.00
542.0590, 16827.00
543.2360, 16623.00
544.4130, 16767.00
545.5900, 16760.00
546.7660, 16802.00
547.9430, 16855.13
549.1190, 16956.00
550.2950, 16848.00
551.4710, 16937.00
552.6470, 16801.00
553.8220, 16919.00
554.9980, 17034.00
556.1730, 16852.00
557.3480, 16835.00
558.5230, 16974.00
559.6980, 17040.00
560.8730, 16908.00
562.0470, 16984.00
563.2220, 17200.00
564.3960, 17143.00
565.5700, 17194.00
566.7440, 17365.00
567.9170, 17334.00
569.0910, 17401.10
570.2640, 17267.00
571.4380, 17427.00
572.6110, 17409.00
573.7840, 17392.00
574.9570, 17634.00
576.1290, 17780.00
577.3020, 17746.00
578.4740, 17810.00
579.6460, 18001.00
580.8180, 18182.00
581.9900, 18247.00
583.1620, 17970.00
584.3330, 17999.00
585.5040, 17973.00
586.6760, 17788.00
587.8470, 18009.00
589.0180, 17820.00
590.1880, 17832.00
591.3590, 17990.00
592.5290, 17968.00
593.7000, 18158.00
594.8700, 18354.00
596.0400, 18504.00
597.2090, 18838.00
598.3790, 19078.39
599.5490, 19358.44
600.7180, 19719.00
601.8870, 19981.00
603.0560, 20365.00
604.2250, 20732.00
605.3940, 21442.00
606.5620, 21845.00
607.7300, 22069.00
608.8990, 22398.00
610.0670, 22153.00
611.2350, 21956.00
612.4020, 21556.00
613.5700, 21271.00
614.7370, 20801.00
615.9050, 20275.00
617.0720, 19943.00
618.2390, 19566.00
619.4060, 19314.00
620.5720, 19169.00
621.7390, 19006.00
622.9050, 18962.00
624.0710, 18904.98
625.2370, 18793.00
626.4030, 18908.00
627.5690, 18912.00
628.7340, 18944.54
629.9000, 18823.00
631.0650, 18928.00
632.2300, 18804.00
633.3950, 18773.00
634.5600, 18774.00
635.7240, 18853.00
636.8890, 18767.00
638.0530, 18903.00
639.2170, 18922.00
640.3810, 18986.00
641.5450, 19109.00
642.7080, 19073.00
643.8720, 19080.00
645.0350, 18951.00
646.1980, 19108.00
647.3610, 19179.00
648.5240, 19376.00
649.6870, 19406.00
650.8490, 19760.00
652.0120, 19989.00
653.1740, 20003.00
654.3360, 20426.00
655.4980, 20890.00
656.6600, 21357.00
657.8210, 22031.00
658.9830, 22621.00
660.1440, 23416.00
661.3050, 24106.00
662.4660, 24880.00
663.6270, 25504.00
664.7870, 25953.00
665.9480, 26122.00
667.1080, 25889.00
668.2680, 25512.00
669.4280, 25005.00
670.5880, 24238.00
671.7480, 23509.00
672.9070, 22727.00
674.0670, 22058.00
675.2260, 21625.00
676.3850, 21014.00
677.5440, 20781.00
678.7030, 20321.00
679.8610, 19851.00
681.0200, 19973.00
682.1780, 19475.00
683.3360, 19299.00
684.4940, 19492.00
685.6520, 19296.00
686.8090, 19210.00
687.9670, 19202.00
689.1240, 19095.00
690.2810, 19066.00
691.4380, 18963.00
692.5950, 19102.00
693.7520, 18967.00
694.9080, 18907.00
696.0650, 19108.00
697.2210, 18953.00
698.3770, 19102.00
699.5330, 18898.00
700.6880, 18992.00
701.8440, 19070.00
702.9990, 18915.00
704.1550, 19087.00
705.3100, 18970.00
706.4650, 19058.00
707.6190, 19182.00
708.7740, 19069.00
709.9290, 19321.00
711.0830, 19249.00
712.2370, 19158.00
713.3910, 19160.00
714.5450, 19151.00
715.6980, 18977.00
716.8520, 19072.00
718.0050, 19154.00
719.1580, 19056.00
720.3110, 19060.00
721.4640, 19189.00
722.6170, 19246.00
723.7700, 19113.00
724.9220, 19168.00
726.0740, 19167.00
727.2260, 19154.00
728.3780, 19153.00
729.5300, 19220.00
730.6810, 19272.00
731.8330, 19411.00
732.9840, 19159.00
734.1350, 19295.00
735.2860, 19141.00
736.4370, 19277.00
737.5880, 19146.00
738.7380, 19084.00
739.8880, 19300.00
741.0390, 19299.00
742.1890, 19248.00
743.3380, 19332.00
744.4880, 19393.00
745.6380, 19305.00
746.7870, 19311.00
747.9360, 19462.00
749.0850, 19375.00
750.2340, 19298.00
751.3830, 19581.00
752.5310, 19318.00
753.6800, 19789.00
754.8280, 19656.03
755.9760, 19445.00
757.1240, 19612.00
758.2720, 19682.00
759.4190, 19689.00
760.5670, 19718.00
761.7140, 19592.00
762.8610, 19741.00
764.0080, 19659.00
765.1550, 19797.00
766.3020, 19856.00
767.4480, 19713.00
768.5950, 19855.00
769.7410, 19907.00
770.8870, 20096.00
772.0330, 20183.00
773.1780, 20135.00
774.3240, 20283.00
775.4690, 20371.75
776.6140, 20461.00
777.7590, 20670.00
778.9040, 20761.00
780.0490, 20973.00
781.1940, 21199.00
782.3380, 21382.00
783.4820, 21664.00
784.6260, 21910.00
785.7700, 22168.00
786.9140, 22796.00
788.0580, 22943.00
789.2010, 23285.00
790.3450, 23488.00
791.4880, 23592.00
792.6310, 23552.00
793.7730, 23536.00
794.9160, 23320.00
796.0590, 22974.00
797.2010, 22636.00
798.3430, 22367.00
799.4850, 22086.00
800.6270, 21737.00
801.7690, 21349.00
802.9100, 21134.00
804.0520, 20837.00
805.1930, 20837.00
806.3340, 20684.00
807.4750, 20681.00
808.6160, 20567.47
809.7560, 20407.00
810.8970, 20375.00
812.0370, 20293.00
813.1770, 20231.94
814.3170, 20190.34
815.4570, 20094.00
816.5960, 20090.00
817.7360, 20147.00
818.8750, 20085.00
820.0140, 19944.00
821.1530, 20101.00
822.2920, 20116.00
823.4310, 19948.00
824.5690, 19980.00
825.7070, 20019.00
826.8460, 19973.06
827.9840, 20017.00
829.1220, 20007.00
830.2590, 20044.00
831.3970, 20078.00
832.5340, 20003.00
833.6710, 20089.00
834.8080, 20314.00
835.9450, 20096.00
837.0820, 20096.00
838.2190, 19971.00
839.3550, 20177.00
840.4910, 20091.00
841.6270, 20051.00
842.7630, 20038.00
843.8990, 20034.00
845.0350, 20068.42
846.1700, 20149.00
847.3060, 20157.00
848.4410, 20198.00
849.5760, 20205.00
850.7100, 20241.14
851.8450, 20254.74
852.9800, 20314.00
854.1140, 20278.42
855.2480, 20319.61
856.3820, 20325.00
857.5160, 20275.00
858.6500, 20249.00
859.7830, 20168.00
860.9170, 20267.00
862.0500, 20116.00
863.1830, 20225.00
864.3160, 20254.00
865.4480, 20138.00
866.5810, 20115.00
867.7130, 20252.00
868.8460, 20175.00
869.9780, 20444.00
871.1100, 20227.00
872.2410, 20203.00
873.3730, 20196.00
874.5050, 20477.00
875.6360, 20444.00
876.7670, 20359.00
877.8980, 20285.00
879.0290, 20417.00
880.1590, 20551.00
881.2900, 20654.00
882.4200, 20431.00
883.5500, 20419.00
884.6800, 20455.00
885.8100, 20314.00
886.9400, 20588.00
888.0690, 20485.00
889.1990, 20421.00
890.3280, 20555.00
891.4570, 20559.00
892.5860, 20523.00
893.7140, 20397.00
894.8430, 20309.00
895.9710, 20572.00
897.1000, 20723.00
898.2280, 20507.00
899.3560, 20533.00
900.4830, 20528.00
901.6110, 20629.00
902.7380, 20674.00
903.8660, 20701.00
904.9930, 20733.37
906.1200, 20653.00
907.2460, 20738.00
908.3730, 20721.00
909.5000, 20708.00
910.6260, 20819.00
911.7520, 20692.00
912.8780, 20884.00
914.0040, 20632.00
915.1290, 20748.00
916.2550, 20854.00
917.3800, 20642.00
918.5050, 20926.00
919.6300, 21009.00
920.7550, 20926.00
921.8800, 20919.00
923.0040, 20958.00
924.1290, 20930.00
925.2530, 20909.00
926.3770, 20815.00
927.5010, 20896.00
928.6250, 20855.00
929.7480, 20899.00
930.8720, 20987.00
931.9950, 21041.00
933.1180, 21082.00
934.2410, 21047.00
935.3640, 20842.00
936.4860, 20950.00
937.6090, 20934.00
938.7310, 20883.00
939.8530, 20972.16
940.9750, 21106.00
942.0970, 21076.00
943.2180, 21078.00
944.3400, 21142.00
945.4610, 21131.19
946.5820, 21227.00
947.7030, 21160.00
948.8240, 21272.00
949.9450, 21265.00
951.0650, 21042.00
952.1860, 21200.00
953.3060, 21243.00
954.4260, 21223.00
955.5460, 21386.00
956.6650, 21264.00
957.7850, 21097.00
958.9040, 21323.00
960.0230, 20993.00
961.1420, 21253.00
962.2610, 21487.00
963.3800, 21320.00
964.4990, 21210.00
965.6170, 21379.00
966.7350, 21283.00
967.8530, 21456.00
968.9710, 21399.00
970.0890, 21530.00
971.2070, 21614.00
972.3240, 21445.00
973.4410, 21486.00
974.5580, 21550.00
975.6750, 21461.00
976.7920, 21505.00
977.9090, 21435.00
979.0250, 21457.99
980.1410, 21556.00
981.2580, 21454.00
982.3740, 21641.00
983.4890, 21548.00
984.6050, 21751.00
985.7200, 21860.00
986.8360, 22116.00
987.9510, 21953.00
989.0660, 21832.00
990.1810, 21737.00
991.2950, 21834.00
992.4100, 21760.00
993.5240, 21647.00
994.6390, 21818.00
995.7530, 21728.00
996.8660, 21737.00
997.9800, 21942.00
999.0940, 21900.00
1000.207, 22139.00
1001.320, 21991.00
1002.433, 21769.00
1003.546, 21781.00
1004.659, 21718.43
1005.772, 21725.00
1006.884, 21828.00
1007.996, 21780.00
1009.108, 21980.00
1010.220, 21853.00
1011.332, 21938.00
1012.444, 22066.00
1013.555, 21980.00
1014.666, 21792.00
1015.777, 22128.00
1016.888, 21887.00
1017.999, 22094.00
1019.110, 22082.00
1020.220, 22029.00
1021.331, 21979.00
1022.441, 21923.00
1023.551, 22146.00
1024.661, 22270.00
1025.770, 22109.00
1026.880, 21951.00
1027.989, 21997.00
1029.098, 22054.00
1030.207, 22156.00
1031.316, 22148.00
1032.425, 22043.00
1033.533, 22277.00
1034.642, 22249.00
1035.750, 22156.00
1036.858, 22354.00
1037.966, 22329.00
1039.073, 22188.00
1040.181, 22042.00
1041.288, 22267.00
1042.396, 22212.00
1043.503, 22272.00
1044.610, 22262.00
1045.716, 22240.00
1046.823, 22361.00
1047.929, 22346.00
1049.036, 22334.00
1050.142, 22241.00
1051.248, 22334.00
1052.353, 22318.00
1053.459, 22321.00
1054.564, 22354.00
1055.670, 22372.71
1056.775, 22310.00
1057.880, 22458.00
1058.985, 22473.00
1060.089, 22533.00
1061.194, 22223.00
1062.298, 22480.00
1063.402, 22343.00
1064.506, 22533.00
1065.610, 22447.00
1066.713, 22514.00
1067.817, 22418.00
1068.920, 22407.00
1070.023, 22587.00
1071.126, 22514.00
1072.229, 22573.00
1073.332, 22682.00
1074.435, 22636.00
1075.537, 22471.00
1076.639, 22725.00
1077.741, 22598.00
1078.843, 22857.00
1079.945, 22695.00
1081.046, 22848.00
1082.148, 23050.00
1083.249, 23386.00
1084.350, 24259.00
1085.451, 23972.91
1086.551, 24711.00
1087.652, 23663.00
1088.752, 23251.00
1089.853, 22928.00
1090.953, 22863.00
1092.053, 22811.00
1093.152, 22985.00
1094.252, 22707.00
1095.351, 22817.00
1096.451, 22806.00
1097.550, 22888.00
1098.649, 22922.68
1099.748, 22716.00
1100.846, 22997.00
1101.945, 22814.00
1103.043, 22844.00
1104.141, 23066.00
1105.239, 22964.00
1106.337, 22721.00
1107.434, 22877.00
1108.532, 22923.00
1109.629, 22806.00
1110.726, 22880.00
1111.823, 22691.00
1112.920, 22789.00
1114.017, 22837.00
1115.113, 22898.00
1116.210, 23205.00
1117.306, 23247.00
1118.402, 23107.00
1119.498, 23616.00
1120.593, 23678.00
1121.689, 23740.00
1122.784, 23586.00
1123.879, 23570.00
1124.974, 23609.00
1126.069, 23513.00
1127.164, 23363.00
1128.259, 23414.00
1129.353, 23389.00
1130.447, 23126.00
1131.541, 23020.00
1132.635, 23207.00
1133.729, 23186.00
1134.822, 23011.00
1135.916, 23116.00
1137.009, 23188.00
1138.102, 23213.00
1139.195, 23435.00
1140.288, 23270.00
1141.380, 23125.00
1142.473, 23376.00
1143.565, 23318.00
1144.657, 23367.00
1145.749, 23281.00
1146.841, 23232.00
1147.932, 23434.00
1149.024, 23347.00
1150.115, 23366.00
1151.206, 23284.00
1152.297, 23328.00
1153.388, 23336.21
1154.479, 23282.00
1155.569, 23395.00
1156.659, 23443.00
1157.750, 23460.00
1158.839, 23551.00
1159.929, 23502.00
1161.019, 23578.00
1162.108, 23517.00
1163.198, 23602.00
1164.287, 23591.00
1165.376, 23725.00
1166.465, 23622.00
1167.553, 23876.00
1168.642, 23815.00
1169.730, 23857.00
1170.818, 23870.00
1171.906, 23965.00
1172.994, 23759.00
1174.082, 23888.00
1175.170, 24090.00
1176.257, 24356.00
1177.344, 24191.00
1178.431, 24494.00
1179.518, 24597.00
1180.605, 24941.00
1181.691, 25271.00
1182.778, 25542.00
1183.864, 26251.00
1184.950, 26753.00
1186.036, 27410.00
1187.122, 28564.00
1188.207, 29580.00
1189.292, 30510.00
1190.378, 31609.00
1191.463, 32220.00
1192.548, 32847.00
1193.632, 33171.00
1194.717, 32848.00
1195.801, 32489.00
1196.886, 31444.00
1197.970, 30170.00
1199.054, 28983.00
1200.137, 28162.00
1201.221, 27102.00
1202.305, 26405.00
1203.388, 25806.00
1204.471, 25503.00
1205.554, 25255.00
1206.637, 25013.00
1207.719, 24821.83
1208.802, 24645.43
1209.884, 24495.00
1210.966, 24396.00
1212.048, 24238.00
1213.130, 24209.00
1214.212, 24117.00
1215.293, 24380.00
1216.374, 23970.00
1217.456, 24248.00
1218.536, 23960.00
1219.617, 24186.00
1220.698, 24002.00
1221.778, 24026.00
1222.859, 24048.00
1223.939, 23889.00
1225.019, 24060.00
1226.099, 23901.00
1227.178, 24189.00
1228.258, 24117.00
1229.337, 24192.00
1230.417, 24015.00
1231.496, 23865.00
1232.574, 24054.00
1233.653, 24103.00
1234.732, 24100.00
1235.810, 24113.00
1236.888, 24100.00
1237.966, 24120.00
1239.044, 24102.00
1240.122, 24123.47
1241.199, 24117.00
1242.277, 24162.00
1243.354, 24120.00
1244.431, 24137.00
1245.508, 24302.00
1246.585, 24245.00
1247.661, 24255.13
1248.738, 24235.00
1249.814, 24210.00
1250.890, 24134.00
1251.966, 24193.00
1253.042, 24093.00
1254.117, 24191.00
1255.193, 24054.00
1256.268, 23971.00
1257.343, 24118.00
1258.418, 24034.00
1259.493, 24193.00
1260.567, 24022.00
1261.642, 24090.00
1262.716, 24258.00
1263.790, 24214.00
1264.864, 24227.00
1265.938, 24215.00
1267.011, 24230.00
1268.085, 24195.00
1269.158, 24234.00
1270.231, 24385.00
1271.304, 24255.00
1272.377, 24140.00
1273.450, 24348.00
1274.522, 24323.00
1275.594, 24342.00
1276.666, 24333.00
1277.738, 24167.00
1278.810, 24407.00
1279.882, 24165.00
1280.953, 24251.00
1282.025, 24251.00
1283.096, 24193.00
1284.167, 24404.00
1285.238, 24312.00
1286.308, 24552.00
1287.379, 24359.00
1288.449, 24343.00
1289.519, 24364.00
1290.589, 24565.00
1291.659, 24480.00
1292.729, 24537.00
1293.798, 24437.00
1294.868, 24530.00
1295.937, 24590.00
1297.006, 24505.00
1298.075, 24524.00
1299.143, 24517.00
1300.212, 24469.00
1301.280, 24407.00
1302.348, 24496.00
1303.416, 24502.00
1304.484, 24414.00
1305.552, 24499.00
1306.620, 24516.00
1307.687, 24647.00
1308.754, 24652.00
1309.821, 24484.00
1310.888, 24670.00
1311.955, 24631.00
1313.021, 24500.00
1314.088, 24561.00
1315.154, 24778.00
1316.220, 24580.00
1317.286, 24674.00
1318.352, 24855.00
1319.417, 24849.00
1320.483, 24700.00
1321.548, 24774.00
1322.613, 24802.78
1323.678, 24758.00
1324.743, 24906.00
1325.807, 24830.00
1326.872, 24720.00
1327.936, 24947.00
1329.000, 25047.00
1330.064, 24930.00
1331.128, 24801.00
1332.191, 24743.00
1333.255, 24830.00
1334.318, 24906.00
1335.381, 24839.00
1336.444, 24858.00
1337.507, 24986.00
1338.569, 25043.00
1339.632, 24921.00
1340.694, 24964.00
1341.756, 25152.00
1342.818, 24963.00
1343.880, 25301.00
1344.941, 24907.00
1346.003, 24816.00
1347.064, 25098.00
1348.125, 25143.00
1349.186, 25073.00
1350.247, 24984.00
1351.308, 25207.00
1352.368, 25027.00
1353.428, 24982.00
1354.489, 25142.00
1355.549, 24955.00
1356.608, 25235.00
1357.668, 25200.00
1358.727, 25149.00
1359.787, 25175.00
1360.846, 25245.00
1361.905, 24972.00
1362.964, 25136.00
1364.022, 25106.00
1365.081, 25197.00
1366.139, 25068.00
1367.197, 25136.00
1368.255, 25250.00
1369.313, 25064.00
1370.371, 25233.00
1371.428, 25087.00
1372.486, 25514.00
1373.543, 24957.00
1374.600, 24983.00
1375.657, 25258.00
1376.713, 25178.00
1377.770, 25095.00
1378.826, 25105.00
1379.882, 25151.00
1380.938, 25185.00
1381.994, 25239.00
1383.050, 25273.00
1384.106, 25247.00
1385.161, 25204.00
1386.216, 25425.00
1387.271, 25292.00
1388.326, 25305.00
1389.381, 25434.00
1390.435, 25237.00
1391.490, 25196.00
1392.544, 25398.00
1393.598, 25284.00
1394.652, 25237.00
1395.705, 25290.50
1396.759, 25342.00
1397.812, 25310.00
1398.866, 25358.00
1399.919, 25439.00
1400.972, 25482.00
1402.024, 25428.00
1403.077, 25434.00
1404.129, 25420.65
1405.181, 25342.00
1406.233, 25433.00
1407.285, 25461.00
1408.337, 25576.00
1409.389, 25621.00
1410.440, 25624.36
1411.491, 25628.13
1412.542, 25577.00
1413.593, 25596.00
1414.644, 25506.00
1415.695, 25589.00
1416.745, 25498.00
1417.795, 25639.00
1418.845, 25627.00
1419.895, 25384.00
1420.945, 25621.00
1421.995, 25479.00
1423.044, 25451.00
1424.093, 25447.00
1425.142, 25486.00
1426.191, 25515.00
1427.240, 25703.00
1428.289, 25603.00
1429.337, 25678.00
1430.385, 25578.00
1431.433, 25710.00
1432.481, 25865.00
1433.529, 25749.00
1434.577, 25752.00
1435.624, 25686.00
1436.672, 25920.00
1437.719, 25577.00
1438.766, 25844.00
1439.812, 25706.00
1440.859, 26020.00
1441.905, 25989.00
1442.952, 25818.00
1443.998, 26020.00
1445.044, 25887.00
1446.090, 25902.00
1447.135, 25921.00
1448.181, 25960.00
1449.226, 25972.00
1450.271, 25911.00
1451.316, 25902.16
1452.361, 26086.00
1453.405, 25915.00
1454.450, 25829.00
1455.494, 26063.00
1456.538, 25990.00
1457.582, 25978.00
1458.626, 26104.00
1459.670, 26119.00
1460.713, 25862.00
1461.757, 25881.00
1462.800, 26154.00
1463.843, 26234.00
1464.886, 25901.00
1465.928, 26095.00
1466.971, 26056.00
1468.013, 26087.00
1469.055, 26113.00
1470.097, 26056.00
1471.139, 26145.00
1472.181, 26284.00
1473.222, 26191.00
1474.263, 26016.00
1475.305, 26091.00
1476.346, 26168.00
1477.386, 26089.00
1478.427, 26106.00
1479.468, 26027.00
1480.508, 26254.00
1481.548, 26192.00
1482.588, 26198.00
1483.628, 26287.00
1484.668, 26108.00
1485.707, 26082.00
1486.747, 26312.00
1487.786, 26073.00
1488.825, 26164.00
1489.864, 26321.00
1490.902, 26031.00
1491.941, 26198.00
1492.979, 26378.00
1494.017, 26206.00
1495.055, 26273.00
1496.093, 26254.00
1497.131, 26240.00
1498.168, 26336.00
1499.206, 26314.00
1500.243, 26222.00
1501.280, 26350.00
1502.317, 26436.00
1503.354, 26300.00
1504.390, 26268.00
1505.426, 26275.00
1506.463, 26248.00
1507.499, 26429.00
1508.535, 26371.00
1509.570, 26368.00
1510.606, 26355.00
1511.641, 26304.00
1512.676, 26419.00
1513.711, 26426.00
1514.746, 26275.00
1515.781, 26417.00
1516.816, 26307.00
1517.850, 26448.00
1518.884, 26436.00
1519.918, 26431.00
1520.952, 26372.00
1521.986, 26471.00
1523.019, 26481.00
1524.053, 26677.00
1525.086, 26530.00
1526.119, 26489.00
1527.152, 26583.00
1528.185, 26754.00
1529.217, 26567.00
1530.250, 26543.00
1531.282, 26777.00
1532.314, 26853.00
1533.346, 26754.00
1534.377, 26553.00
1535.409, 26671.00
1536.440, 26660.00
1537.472, 26798.00
1538.503, 26514.00
1539.534, 26527.00
1540.564, 26484.00
1541.595, 26643.00
1542.625, 26703.00
1543.656, 26504.00
1544.686, 26676.00
1545.716, 26548.00
1546.745, 26658.00
1547.775, 26674.51
1548.804, 26652.51
1549.834, 26745.00
1550.863, 26683.00
1551.892, 26764.00
1552.920, 26825.00
1553.949, 26837.00
1554.977, 26771.00
1556.006, 27025.00
1557.034, 26660.00
1558.062, 26911.00
1559.089, 27023.00
1560.117, 26851.00
1561.144, 26750.00
1562.172, 26523.00
1563.199, 26986.00
1564.226, 26800.00
1565.252, 26981.00
1566.279, 26759.00
1567.305, 26954.00
1568.332, 26883.00
1569.358, 26955.00
1570.384, 27158.00
1571.409, 26812.00
1572.435, 26953.00
##END=



