##NAMES=Diaspore
##RRUFFID=R060287
##IDEAL CHEMISTRY=AlO(OH)
##LOCALITY=Selcuk, Mugla Province, Turkey
##OWNER=RRUFF
##SOURCE=Herb Obodda
##DESCRIPTION=Colorless transparent platy fragment
##STATUS=The identification of this mineral has been confirmed by X-ray diffraction and chemical analysis
##URL=rruff.info/R060287
##MEASURED CHEMISTRY=(Al_0.99_Fe^3+^_0.01_)_Î£=1_O(OH) ; trace amounts of Ti;  OH estimated by difference ; Fe^3+^ by charge balance
##PIN_ID=L01658
##ORIENTATION=Laser parallel to a* (1 0 0). Fiducial mark perpendicular to laser is parallel to b [0 1 0]
114.4400, 7043.000
115.6710, 7074.000
116.9030, 7269.000
118.1340, 7333.000
119.3650, 7284.000
120.5960, 7427.000
121.8270, 7357.000
123.0580, 7171.000
124.2880, 7416.000
125.5190, 7435.000
126.7490, 7286.000
127.9790, 7323.000
129.2090, 7481.000
130.4390, 7541.000
131.6680, 7606.000
132.8980, 7551.000
134.1270, 7591.000
135.3560, 7560.000
136.5850, 7721.000
137.8140, 7744.000
139.0430, 7905.000
140.2710, 8078.000
141.5000, 8245.000
142.7280, 8237.000
143.9560, 8291.000
145.1840, 8299.000
146.4120, 8293.000
147.6390, 8298.000
148.8670, 8406.000
150.0940, 8381.000
151.3210, 8696.000
152.5490, 8983.000
153.7750, 8895.000
155.0020, 8778.000
156.2290, 8638.000
157.4550, 8589.000
158.6810, 8442.000
159.9080, 8350.000
161.1340, 8336.000
162.3590, 8157.000
163.5850, 8069.000
164.8110, 8124.000
166.0360, 8058.028
167.2610, 8127.000
168.4860, 8129.000
169.7110, 8226.000
170.9360, 8334.000
172.1610, 8224.000
173.3850, 8237.000
174.6100, 8367.000
175.8340, 8170.000
177.0580, 8366.000
178.2820, 8380.000
179.5050, 8397.000
180.7290, 8424.000
181.9520, 8420.000
183.1760, 8522.000
184.3990, 8525.000
185.6220, 8548.072
186.8450, 8501.000
188.0670, 8540.000
189.2900, 8573.000
190.5120, 8503.000
191.7340, 8703.000
192.9560, 8605.000
194.1780, 8666.000
195.4000, 8640.000
196.6220, 8602.000
197.8430, 8691.000
199.0640, 8671.000
200.2860, 8704.000
201.5070, 8688.000
202.7270, 8709.000
203.9480, 8682.000
205.1690, 8844.000
206.3890, 8588.000
207.6090, 8722.000
208.8290, 8553.000
210.0490, 8551.000
211.2690, 8596.000
212.4890, 8672.000
213.7080, 8853.000
214.9280, 8746.000
216.1470, 8631.000
217.3660, 8696.000
218.5850, 8840.000
219.8030, 8642.000
221.0220, 8714.000
222.2400, 8655.000
223.4590, 8773.000
224.6770, 8636.000
225.8950, 8782.000
227.1120, 8723.000
228.3300, 8712.000
229.5480, 8833.000
230.7650, 8675.000
231.9820, 8813.000
233.1990, 8810.000
234.4160, 8858.000
235.6330, 8820.000
236.8490, 8802.000
238.0660, 8813.000
239.2820, 8781.000
240.4980, 8790.000
241.7140, 8822.000
242.9300, 8827.000
244.1460, 8858.000
245.3610, 8875.000
246.5770, 8848.000
247.7920, 8853.000
249.0070, 8981.000
250.2220, 8863.000
251.4370, 8912.000
252.6510, 8924.000
253.8660, 8796.000
255.0800, 8980.000
256.2940, 8853.000
257.5080, 9030.000
258.7220, 9051.000
259.9360, 9067.004
261.1490, 9072.104
262.3630, 9130.000
263.5760, 9011.000
264.7890, 8996.000
266.0020, 9055.000
267.2150, 9050.000
268.4270, 9134.000
269.6400, 9064.000
270.8520, 9091.000
272.0640, 8955.000
273.2760, 8997.000
274.4880, 9063.000
275.7000, 9222.000
276.9120, 9104.000
278.1230, 9168.000
279.3340, 9169.000
280.5450, 9056.000
281.7560, 9224.000
282.9670, 9196.000
284.1780, 9202.000
285.3880, 9221.000
286.5980, 9356.000
287.8090, 9234.000
289.0190, 9178.000
290.2290, 9257.000
291.4380, 9148.000
292.6480, 9363.000
293.8570, 9325.000
295.0670, 9264.000
296.2760, 9347.000
297.4850, 9434.000
298.6930, 9401.000
299.9020, 9425.000
301.1110, 9467.000
302.3190, 9356.000
303.5270, 9460.000
304.7350, 9371.000
305.9430, 9377.000
307.1510, 9480.000
308.3580, 9569.000
309.5660, 9718.000
310.7730, 9607.000
311.9800, 9760.000
313.1870, 9722.000
314.3940, 9857.000
315.6010, 9902.000
316.8070, 9961.000
318.0130, 10152.00
319.2200, 10561.00
320.4260, 11045.00
321.6310, 11774.00
322.8370, 12893.00
324.0430, 13765.00
325.2480, 14813.00
326.4540, 15870.00
327.6590, 17338.00
328.8640, 19324.00
330.0680, 20268.00
331.2730, 19903.00
332.4780, 18600.00
333.6820, 17641.00
334.8860, 16672.00
336.0900, 15352.00
337.2940, 13833.00
338.4980, 12735.00
339.7010, 11864.00
340.9050, 11237.00
342.1080, 10940.00
343.3110, 10773.00
344.5140, 10652.00
345.7170, 10374.00
346.9200, 10396.00
348.1220, 10329.00
349.3240, 10382.00
350.5270, 10426.00
351.7290, 10302.00
352.9310, 10375.00
354.1320, 10421.00
355.3340, 10414.00
356.5350, 10483.00
357.7370, 10448.00
358.9380, 10585.00
360.1390, 10693.00
361.3400, 10630.00
362.5400, 10781.00
363.7410, 10944.00
364.9410, 11180.00
366.1410, 11105.00
367.3410, 11228.00
368.5410, 11010.00
369.7410, 10821.00
370.9400, 10831.00
372.1400, 10757.00
373.3390, 10787.00
374.5380, 10560.00
375.7370, 10560.00
376.9360, 10625.00
378.1350, 10602.00
379.3330, 10681.00
380.5310, 10643.00
381.7300, 10728.00
382.9280, 10707.00
384.1260, 10712.00
385.3230, 10660.00
386.5210, 10789.00
387.7180, 10809.00
388.9160, 10796.00
390.1130, 10918.00
391.3100, 10866.00
392.5060, 10869.00
393.7030, 10847.00
394.9000, 10897.61
396.0960, 10931.00
397.2920, 10995.00
398.4880, 11032.15
399.6840, 11052.00
400.8800, 11106.00
402.0750, 11138.00
403.2710, 11147.00
404.4660, 11065.00
405.6610, 10943.00
406.8560, 11101.00
408.0510, 11191.00
409.2450, 11089.00
410.4400, 11101.00
411.6340, 11199.00
412.8280, 11158.00
414.0220, 11015.00
415.2160, 11258.00
416.4100, 11108.00
417.6030, 11190.00
418.7970, 11190.00
419.9900, 11194.00
421.1830, 11259.00
422.3760, 11418.00
423.5690, 11383.00
424.7610, 11494.00
425.9540, 11624.00
427.1460, 11652.00
428.3380, 11861.26
429.5300, 11886.00
430.7220, 12266.00
431.9140, 12544.00
433.1050, 12816.00
434.2970, 13473.00
435.4880, 14393.00
436.6790, 15716.00
437.8700, 18187.00
439.0610, 22128.00
440.2510, 27290.00
441.4420, 31916.00
442.6320, 35676.00
443.8220, 42557.00
445.0120, 51382.00
446.2020, 58177.00
447.3910, 58580.00
448.5810, 53610.00
449.7700, 47560.00
450.9600, 42314.00
452.1490, 36673.00
453.3370, 30346.00
454.5260, 24203.00
455.7150, 19545.00
456.9030, 16786.00
458.0910, 15281.00
459.2800, 14191.00
460.4670, 13711.00
461.6550, 13419.00
462.8430, 12937.00
464.0300, 12875.00
465.2180, 12698.00
466.4050, 12446.00
467.5920, 12530.00
468.7790, 12264.00
469.9650, 12243.00
471.1520, 12161.00
472.3380, 12184.00
473.5250, 12128.00
474.7110, 12085.00
475.8970, 12076.26
477.0820, 11971.00
478.2680, 12021.00
479.4540, 12068.00
480.6390, 12032.00
481.8240, 12287.00
483.0090, 12467.00
484.1940, 12716.00
485.3780, 13090.00
486.5630, 13655.00
487.7470, 14704.00
488.9320, 16284.00
490.1160, 18770.00
491.3000, 22225.00
492.4830, 25241.00
493.6670, 27772.00
494.8500, 32041.00
496.0340, 38046.00
497.2170, 41945.00
498.4000, 40813.00
499.5820, 37101.00
500.7650, 32898.00
501.9480, 29456.00
503.1300, 25683.00
504.3120, 21638.00
505.4940, 17932.00
506.6760, 15658.00
507.8580, 14168.00
509.0390, 13515.00
510.2210, 13092.00
511.4020, 12805.00
512.5830, 12507.00
513.7640, 12366.00
514.9450, 12187.00
516.1250, 12202.00
517.3060, 12147.00
518.4860, 12155.00
519.6660, 12123.00
520.8460, 12026.00
522.0260, 12066.00
523.2060, 12048.00
524.3850, 12023.00
525.5650, 12123.00
526.7440, 11972.00
527.9230, 12069.00
529.1020, 11991.00
530.2810, 11908.00
531.4590, 11997.00
532.6380, 11990.57
533.8160, 12062.00
534.9940, 12146.00
536.1720, 12080.00
537.3500, 12200.00
538.5270, 12179.00
539.7050, 12036.00
540.8820, 12086.00
542.0590, 12082.00
543.2360, 12256.00
544.4130, 12242.00
545.5900, 12198.00
546.7660, 12347.00
547.9430, 12348.00
549.1190, 12554.00
550.2950, 12626.00
551.4710, 12683.00
552.6470, 12705.00
553.8220, 12571.00
554.9980, 12681.00
556.1730, 12532.00
557.3480, 12634.00
558.5230, 12436.00
559.6980, 12452.00
560.8730, 12369.00
562.0470, 12338.00
563.2220, 12281.00
564.3960, 12247.00
565.5700, 12262.00
566.7440, 12362.00
567.9170, 12385.00
569.0910, 12212.00
570.2640, 12260.00
571.4380, 12166.00
572.6110, 12331.00
573.7840, 12353.00
574.9570, 12306.00
576.1290, 12302.00
577.3020, 12244.00
578.4740, 12381.00
579.6460, 12298.00
580.8180, 12268.00
581.9900, 12345.00
583.1620, 12250.00
584.3330, 12263.00
585.5040, 12233.00
586.6760, 12229.35
587.8470, 12277.00
589.0180, 12270.00
590.1880, 12368.00
591.3590, 12421.00
592.5290, 12406.00
593.7000, 12445.00
594.8700, 12445.00
596.0400, 12413.00
597.2090, 12567.00
598.3790, 12620.00
599.5490, 12622.00
600.7180, 12895.00
601.8870, 12885.00
603.0560, 12970.00
604.2250, 13157.00
605.3940, 13334.00
606.5620, 13502.00
607.7300, 13360.00
608.8990, 13323.00
610.0670, 13441.00
611.2350, 13356.00
612.4020, 13303.00
613.5700, 13126.00
614.7370, 13216.00
615.9050, 13071.00
617.0720, 13150.00
618.2390, 13060.00
619.4060, 13019.00
620.5720, 13026.00
621.7390, 13008.00
622.9050, 12970.00
624.0710, 13050.00
625.2370, 13131.00
626.4030, 13186.00
627.5690, 13178.00
628.7340, 13195.00
629.9000, 13272.00
631.0650, 13303.00
632.2300, 13334.00
633.3950, 13271.00
634.5600, 13375.00
635.7240, 13523.00
636.8890, 13457.00
638.0530, 13653.00
639.2170, 13690.00
640.3810, 13789.00
641.5450, 13822.00
642.7080, 13983.00
643.8720, 14141.00
645.0350, 14474.00
646.1980, 14736.00
647.3610, 14910.00
648.5240, 15203.00
649.6870, 15781.00
650.8490, 16375.00
652.0120, 16853.00
653.1740, 17673.00
654.3360, 18982.00
655.4980, 20239.34
656.6600, 21860.84
657.8210, 23574.00
658.9830, 25598.00
660.1440, 27556.00
661.3050, 29710.00
662.4660, 31478.00
663.6270, 33104.00
664.7870, 34248.00
665.9480, 34205.00
667.1080, 33451.00
668.2680, 32135.00
669.4280, 30664.00
670.5880, 28545.00
671.7480, 26391.00
672.9070, 24440.00
674.0670, 22739.00
675.2260, 21225.00
676.3850, 20089.00
677.5440, 19016.00
678.7030, 18113.00
679.8610, 17371.00
681.0200, 16762.00
682.1780, 16587.00
683.3360, 16013.00
684.4940, 15716.00
685.6520, 15680.00
686.8090, 15441.00
687.9670, 15383.00
689.1240, 15265.00
690.2810, 15282.00
691.4380, 15085.00
692.5950, 15018.00
693.7520, 15214.00
694.9080, 15154.00
696.0650, 15093.00
697.2210, 15116.00
698.3770, 14952.00
699.5330, 14871.00
700.6880, 14840.00
701.8440, 14737.00
702.9990, 14746.00
704.1550, 14764.00
705.3100, 14595.00
706.4650, 14642.00
707.6190, 14682.00
708.7740, 14498.00
709.9290, 14389.00
711.0830, 14267.00
712.2370, 14492.00
713.3910, 14366.00
714.5450, 14376.00
715.6980, 14161.00
716.8520, 14155.00
718.0050, 14241.00
719.1580, 14223.00
720.3110, 14186.00
721.4640, 14094.00
722.6170, 14234.00
723.7700, 14164.06
724.9220, 14217.00
726.0740, 14169.00
727.2260, 14259.00
728.3780, 14278.00
729.5300, 14303.00
730.6810, 14356.00
731.8330, 14352.51
732.9840, 14398.00
734.1350, 14351.79
735.2860, 14339.00
736.4370, 14313.00
737.5880, 14294.81
738.7380, 14274.81
739.8880, 14275.00
741.0390, 14219.00
742.1890, 14217.00
743.3380, 14160.00
744.4880, 14106.00
745.6380, 14216.00
746.7870, 14147.00
747.9360, 14122.00
749.0850, 14195.00
750.2340, 14013.00
751.3830, 13904.00
752.5310, 13996.00
753.6800, 13973.00
754.8280, 13905.00
755.9760, 13972.00
757.1240, 14067.00
758.2720, 13836.00
759.4190, 13955.00
760.5670, 13890.00
761.7140, 13987.00
762.8610, 13925.00
764.0080, 14065.00
765.1550, 13976.00
766.3020, 14115.00
767.4480, 13872.00
768.5950, 13914.00
769.7410, 13922.00
770.8870, 14017.00
772.0330, 14130.00
773.1780, 13938.00
774.3240, 14168.00
775.4690, 14136.00
776.6140, 14006.00
777.7590, 14001.00
778.9040, 13949.28
780.0490, 13950.73
781.1940, 13924.00
782.3380, 13966.00
783.4820, 14026.00
784.6260, 13955.00
785.7700, 14125.00
786.9140, 14062.00
788.0580, 14029.00
789.2010, 14119.00
790.3450, 14062.00
791.4880, 13971.00
792.6310, 13913.00
793.7730, 13958.00
794.9160, 13989.00
796.0590, 13984.00
797.2010, 13972.46
798.3430, 13945.00
799.4850, 13897.00
800.6270, 13907.00
801.7690, 13861.00
802.9100, 13833.00
804.0520, 13849.00
805.1930, 13890.00
806.3340, 13917.00
807.4750, 13830.00
808.6160, 13802.00
809.7560, 13844.00
810.8970, 13819.00
812.0370, 13834.57
813.1770, 13934.00
814.3170, 13821.00
815.4570, 13796.00
816.5960, 13711.00
817.7360, 13912.00
818.8750, 13778.00
820.0140, 13888.00
821.1530, 14015.00
822.2920, 13938.00
823.4310, 13909.00
824.5690, 13904.00
825.7070, 13930.00
826.8460, 13934.00
827.9840, 13863.00
829.1220, 13960.00
830.2590, 13862.00
831.3970, 14040.00
832.5340, 13963.00
833.6710, 13986.00
834.8080, 13893.00
835.9450, 13904.59
837.0820, 13980.00
838.2190, 13908.00
839.3550, 13984.00
840.4910, 13997.00
841.6270, 13867.00
842.7630, 13924.35
843.8990, 14037.00
845.0350, 13891.00
846.1700, 13977.00
847.3060, 13944.00
848.4410, 13928.00
849.5760, 13905.00
850.7100, 14008.00
851.8450, 14032.00
852.9800, 14130.00
854.1140, 13990.00
855.2480, 14107.00
856.3820, 14036.00
857.5160, 14093.00
858.6500, 14083.00
859.7830, 14077.00
860.9170, 14225.00
862.0500, 14182.00
863.1830, 14197.00
864.3160, 14235.00
865.4480, 14118.00
866.5810, 14102.00
867.7130, 14184.00
868.8460, 14057.00
869.9780, 14214.00
871.1100, 14116.00
872.2410, 14098.00
873.3730, 14180.00
874.5050, 14289.00
875.6360, 14303.00
876.7670, 14237.00
877.8980, 14173.00
879.0290, 14173.00
880.1590, 14275.00
881.2900, 14294.00
882.4200, 14299.00
883.5500, 14353.00
884.6800, 14287.00
885.8100, 14249.00
886.9400, 14366.00
888.0690, 14188.00
889.1990, 14392.00
890.3280, 14442.00
891.4570, 14287.00
892.5860, 14166.00
893.7140, 14293.00
894.8430, 14407.00
895.9710, 14228.00
897.1000, 14437.00
898.2280, 14430.00
899.3560, 14362.00
900.4830, 14482.00
901.6110, 14428.00
902.7380, 14569.00
903.8660, 14309.00
904.9930, 14349.00
906.1200, 14397.00
907.2460, 14440.00
908.3730, 14374.00
909.5000, 14488.00
910.6260, 14453.00
911.7520, 14460.00
912.8780, 14523.00
914.0040, 14653.00
915.1290, 14478.00
916.2550, 14390.00
917.3800, 14614.00
918.5050, 14592.00
919.6300, 14623.00
920.7550, 14700.00
921.8800, 14619.00
923.0040, 14697.00
924.1290, 14585.00
925.2530, 14708.00
926.3770, 14684.00
927.5010, 14656.00
928.6250, 14597.00
929.7480, 14591.00
930.8720, 14643.00
931.9950, 14655.00
933.1180, 14779.00
934.2410, 14769.00
935.3640, 14656.00
936.4860, 14672.00
937.6090, 14815.00
938.7310, 14733.00
939.8530, 14576.00
940.9750, 14704.00
942.0970, 14616.00
943.2180, 14723.00
944.3400, 14678.00
945.4610, 14785.00
946.5820, 14758.00
947.7030, 14939.00
948.8240, 14896.00
949.9450, 14896.00
951.0650, 14806.00
952.1860, 14739.00
953.3060, 14870.00
954.4260, 14943.00
955.5460, 15024.00
956.6650, 14931.00
957.7850, 15004.00
958.9040, 14947.00
960.0230, 14832.00
961.1420, 14951.00
962.2610, 15068.00
963.3800, 15019.00
964.4990, 14914.00
965.6170, 15052.00
966.7350, 15000.70
967.8530, 15239.00
968.9710, 15004.00
970.0890, 15136.00
971.2070, 15039.00
972.3240, 15209.00
973.4410, 15046.00
974.5580, 15306.00
975.6750, 15302.00
976.7920, 15195.00
977.9090, 15135.00
979.0250, 15290.00
980.1410, 15242.00
981.2580, 15344.00
982.3740, 15267.00
983.4890, 15445.00
984.6050, 15401.54
985.7200, 15267.00
986.8360, 15406.00
987.9510, 15317.00
989.0660, 15341.00
990.1810, 15352.00
991.2950, 15355.56
992.4100, 15452.99
993.5240, 15437.00
994.6390, 15551.00
995.7530, 15628.00
996.8660, 15451.00
997.9800, 15585.00
999.0940, 15699.00
1000.207, 15676.00
1001.320, 15807.00
1002.433, 15664.00
1003.546, 15896.00
1004.659, 16059.00
1005.772, 15796.00
1006.884, 15679.00
1007.996, 15772.00
1009.108, 15745.00
1010.220, 15784.00
1011.332, 15806.00
1012.444, 15926.00
1013.555, 15803.00
1014.666, 16023.00
1015.777, 15775.00
1016.888, 15678.00
1017.999, 15763.00
1019.110, 15706.00
1020.220, 15882.00
1021.331, 15828.00
1022.441, 15824.00
1023.551, 15890.00
1024.661, 15834.00
1025.770, 15813.14
1026.880, 15740.00
1027.989, 15723.00
1029.098, 15645.00
1030.207, 15634.66
1031.316, 15676.53
1032.425, 15674.00
1033.533, 15783.00
1034.642, 15729.00
1035.750, 15736.00
1036.858, 15733.00
1037.966, 15684.00
1039.073, 15701.00
1040.181, 15932.00
1041.288, 15931.90
1042.396, 16041.35
1043.503, 16063.00
1044.610, 16214.00
1045.716, 16141.00
1046.823, 16242.00
1047.929, 16265.00
1049.036, 16212.00
1050.142, 16025.00
1051.248, 16069.00
1052.353, 15966.00
1053.459, 16122.00
1054.564, 16094.00
1055.670, 15803.00
1056.775, 15841.00
1057.880, 15711.00
1058.985, 15714.00
1060.089, 15751.00
1061.194, 15827.00
1062.298, 15726.00
1063.402, 16002.00
1064.506, 15817.00
1065.610, 15918.00
1066.713, 15797.00
1067.817, 15862.00
1068.920, 15756.00
1070.023, 15879.00
1071.126, 15849.00
1072.229, 16010.00
1073.332, 16027.00
1074.435, 16069.78
1075.537, 16058.00
1076.639, 16087.00
1077.741, 16091.00
1078.843, 15970.00
1079.945, 16038.00
1081.046, 16080.00
1082.148, 15954.00
1083.249, 15956.00
1084.350, 16065.00
1085.451, 16244.00
1086.551, 15955.00
1087.652, 16068.00
1088.752, 16118.00
1089.853, 16079.00
1090.953, 16142.00
1092.053, 16240.00
1093.152, 16152.00
1094.252, 16117.00
1095.351, 15934.00
1096.451, 16039.00
1097.550, 16198.00
1098.649, 16094.00
1099.748, 16036.00
1100.846, 16171.00
1101.945, 16038.00
1103.043, 16170.00
1104.141, 16041.00
1105.239, 16146.00
1106.337, 16108.00
1107.434, 16039.00
1108.532, 16048.00
1109.629, 16158.00
1110.726, 16037.00
1111.823, 16235.00
1112.920, 16103.00
1114.017, 16142.00
1115.113, 16219.43
1116.210, 16295.00
1117.306, 16355.00
1118.402, 16448.00
1119.498, 16564.00
1120.593, 16616.00
1121.689, 16630.00
1122.784, 16751.00
1123.879, 16779.00
1124.974, 16513.00
1126.069, 16798.00
1127.164, 16572.00
1128.259, 16327.00
1129.353, 16240.00
1130.447, 16349.00
1131.541, 16208.00
1132.635, 16272.00
1133.729, 16185.00
1134.822, 16166.00
1135.916, 16181.58
1137.009, 16220.00
1138.102, 16198.00
1139.195, 16133.00
1140.288, 16156.00
1141.380, 16174.00
1142.473, 16244.00
1143.565, 16267.00
1144.657, 16261.00
1145.749, 16302.00
1146.841, 16272.00
1147.932, 16416.00
1149.024, 16324.00
1150.115, 16400.00
1151.206, 16425.00
1152.297, 16347.00
1153.388, 16516.00
1154.479, 16494.00
1155.569, 16479.00
1156.659, 16379.00
1157.750, 16455.00
1158.839, 16408.00
1159.929, 16453.00
1161.019, 16411.00
1162.108, 16425.00
1163.198, 16386.00
1164.287, 16442.00
1165.376, 16480.00
1166.465, 16519.17
1167.553, 16541.38
1168.642, 16618.00
1169.730, 16594.00
1170.818, 16582.00
1171.906, 16656.00
1172.994, 16601.00
1174.082, 16588.00
1175.170, 16733.00
1176.257, 16726.00
1177.344, 16732.00
1178.431, 17088.00
1179.518, 16828.00
1180.605, 17151.00
1181.691, 17429.00
1182.778, 17536.00
1183.864, 18074.00
1184.950, 18519.00
1186.036, 18976.00
1187.122, 19642.00
1188.207, 20255.00
1189.292, 20010.00
1190.378, 19784.00
1191.463, 19588.00
1192.548, 18966.00
1193.632, 18441.00
1194.717, 17939.00
1195.801, 17587.06
1196.886, 17275.00
1197.970, 17073.00
1199.054, 17072.00
1200.137, 16977.00
1201.221, 16698.00
1202.305, 16761.00
1203.388, 16642.00
1204.471, 16720.00
1205.554, 16674.00
1206.637, 16806.00
1207.719, 16713.00
1208.802, 16629.00
1209.884, 16587.00
1210.966, 16574.00
1212.048, 16565.00
1213.130, 16588.00
1214.212, 16556.00
1215.293, 16544.00
1216.374, 16570.46
1217.456, 16654.00
1218.536, 16580.00
1219.617, 16627.00
1220.698, 16556.00
1221.778, 16497.00
1222.859, 16588.00
1223.939, 16380.00
1225.019, 16621.00
1226.099, 16777.00
1227.178, 16712.00
1228.258, 16545.00
1229.337, 16603.00
1230.417, 16814.00
1231.496, 16504.00
1232.574, 16675.00
1233.653, 16680.00
1234.732, 16642.00
1235.810, 16738.00
1236.888, 16832.00
1237.966, 16827.23
1239.044, 16573.00
1240.122, 16838.00
1241.199, 16683.00
1242.277, 16583.00
1243.354, 16847.00
1244.431, 16831.00
1245.508, 16798.00
1246.585, 16935.00
1247.661, 16679.00
1248.738, 16724.00
1249.814, 16786.00
1250.890, 16851.00
1251.966, 16716.00
1253.042, 16779.00
1254.117, 16847.00
1255.193, 16715.00
1256.268, 16727.00
1257.343, 16797.00
1258.418, 16801.00
1259.493, 16743.00
1260.567, 16659.00
1261.642, 16695.00
1262.716, 16801.00
1263.790, 16903.00
1264.864, 16719.00
1265.938, 16876.00
1267.011, 16845.00
1268.085, 16972.00
1269.158, 16970.00
1270.231, 16957.00
1271.304, 16915.00
1272.377, 16944.00
1273.450, 16890.00
1274.522, 17153.00
1275.594, 16963.00
1276.666, 17137.00
1277.738, 16911.00
1278.810, 17089.00
1279.882, 16971.00
1280.953, 16909.00
1282.025, 16858.00
1283.096, 16901.00
1284.167, 16889.00
1285.238, 16855.00
1286.308, 16974.00
1287.379, 16827.00
1288.449, 17026.00
1289.519, 17106.00
1290.589, 16908.00
1291.659, 16947.00
1292.729, 16971.00
1293.798, 17022.00
1294.868, 17069.10
1295.937, 16973.00
1297.006, 17140.00
1298.075, 17069.00
1299.143, 17010.00
1300.212, 17096.00
1301.280, 17094.00
1302.348, 17047.00
1303.416, 17148.00
1304.484, 17133.00
1305.552, 17055.00
1306.620, 16999.00
1307.687, 17072.00
1308.754, 17077.00
1309.821, 16999.00
1310.888, 17212.00
1311.955, 17139.00
1313.021, 17152.00
1314.088, 17276.00
1315.154, 17150.00
1316.220, 17197.00
1317.286, 17014.00
1318.352, 17291.00
1319.417, 17187.00
1320.483, 17118.00
1321.548, 17240.00
1322.613, 17259.00
1323.678, 17100.00
1324.743, 17317.00
1325.807, 17290.00
1326.872, 17450.00
1327.936, 17278.00
1329.000, 17302.00
1330.064, 17268.00
1331.128, 17353.00
1332.191, 17440.00
1333.255, 17402.00
1334.318, 17354.00
1335.381, 17527.00
1336.444, 17416.00
1337.507, 17191.00
1338.569, 17358.00
1339.632, 17363.00
1340.694, 17466.00
1341.756, 17408.00
1342.818, 17537.00
1343.880, 17313.00
1344.941, 17394.00
1346.003, 17439.00
1347.064, 17576.00
1348.125, 17658.00
1349.186, 17546.00
1350.247, 17454.00
1351.308, 17462.00
1352.368, 17334.00
1353.428, 17296.00
1354.489, 17454.00
1355.549, 17455.00
1356.608, 17456.00
1357.668, 17452.00
1358.727, 17446.00
1359.787, 17549.00
1360.846, 17466.00
1361.905, 17336.00
1362.964, 17512.00
1364.022, 17580.00
1365.081, 17452.00
1366.139, 17426.00
1367.197, 17454.00
1368.255, 17571.00
1369.313, 17468.00
1370.371, 17563.00
1371.428, 17483.00
1372.486, 17544.00
1373.543, 17490.00
1374.600, 17595.00
1375.657, 17565.26
1376.713, 17648.00
1377.770, 17531.00
1378.826, 17503.00
1379.882, 17437.00
1380.938, 17537.00
1381.994, 17655.00
1383.050, 17605.00
1384.106, 17528.00
1385.161, 17721.00
1386.216, 17398.00
1387.271, 17611.00
1388.326, 17574.00
1389.381, 17540.00
1390.435, 17698.00
1391.490, 17693.00
1392.544, 17572.00
1393.598, 17650.00
1394.652, 17605.00
1395.705, 17554.00
1396.759, 17595.23
1397.812, 17613.00
1398.866, 17596.00
1399.919, 17631.00
1400.972, 17597.00
1402.024, 17637.00
1403.077, 17623.00
1404.129, 17595.00
1405.181, 17711.00
1406.233, 17577.00
1407.285, 17797.00
1408.337, 17824.00
1409.389, 17591.00
1410.440, 17814.00
1411.491, 17563.00
1412.542, 17759.00
1413.593, 17688.00
1414.644, 17817.00
1415.695, 17786.00
1416.745, 17843.00
1417.795, 17884.00
1418.845, 17673.00
1419.895, 17761.00
1420.945, 17728.00
1421.995, 17731.00
1423.044, 17789.00
1424.093, 17722.00
1425.142, 17792.32
1426.191, 17769.00
1427.240, 17822.00
1428.289, 17841.00
1429.337, 17851.18
1430.385, 17879.59
1431.433, 17871.00
1432.481, 17961.00
1433.529, 17944.00
1434.577, 18092.00
1435.624, 18051.00
1436.672, 18059.84
1437.719, 17992.00
1438.766, 17999.00
1439.812, 17930.00
1440.859, 17867.00
1441.905, 18097.00
1442.952, 18075.00
1443.998, 18109.00
1445.044, 18148.99
1446.090, 18052.00
1447.135, 18123.00
1448.181, 18055.00
1449.226, 18048.00
1450.271, 18068.00
1451.316, 18087.00
1452.361, 18251.00
1453.405, 18038.00
1454.450, 18176.00
1455.494, 17996.00
1456.538, 18121.00
1457.582, 18126.00
1458.626, 18192.00
1459.670, 18155.00
1460.713, 18181.00
1461.757, 18221.30
1462.800, 18188.00
1463.843, 18237.00
1464.886, 18156.00
1465.928, 18020.00
1466.971, 18114.00
1468.013, 18121.00
1469.055, 18291.00
1470.097, 18138.00
1471.139, 18121.00
1472.181, 18122.00
1473.222, 18166.00
1474.263, 18317.00
1475.305, 18147.00
1476.346, 18262.00
1477.386, 18170.00
1478.427, 18139.00
1479.468, 18255.00
1480.508, 18279.00
1481.548, 18303.00
1482.588, 18256.00
1483.628, 18173.00
1484.668, 18174.89
1485.707, 18216.00
1486.747, 18106.00
1487.786, 18245.00
1488.825, 18201.00
1489.864, 18280.00
1490.902, 18197.00
1491.941, 18332.00
1492.979, 18327.00
1494.017, 18166.00
1495.055, 18107.00
1496.093, 18118.00
1497.131, 18299.00
1498.168, 18196.00
1499.206, 18415.00
1500.243, 18165.00
1501.280, 18298.00
1502.317, 18442.00
1503.354, 18369.00
1504.390, 18298.00
1505.426, 18264.00
1506.463, 18234.00
1507.499, 18074.00
1508.535, 18348.00
1509.570, 18408.00
1510.606, 18130.00
1511.641, 18355.00
1512.676, 18411.00
1513.711, 18379.00
1514.746, 18362.00
1515.781, 18346.00
1516.816, 18378.00
1517.850, 18432.00
1518.884, 18358.00
1519.918, 18262.00
1520.952, 18425.00
1521.986, 18254.00
1523.019, 18557.00
1524.053, 18316.00
1525.086, 18355.00
1526.119, 18451.00
1527.152, 18562.00
1528.185, 18474.00
1529.217, 18394.00
1530.250, 18461.00
1531.282, 18422.00
1532.314, 18384.00
1533.346, 18490.00
1534.377, 18454.00
1535.409, 18599.00
1536.440, 18511.00
1537.472, 18529.00
1538.503, 18495.00
1539.534, 18507.17
1540.564, 18360.00
1541.595, 18604.00
1542.625, 18550.00
1543.656, 18681.00
1544.686, 18512.00
1545.716, 18597.00
1546.745, 18522.00
1547.775, 18508.00
1548.804, 18427.00
1549.834, 18614.00
1550.863, 18484.00
1551.892, 18699.00
1552.920, 18650.00
1553.949, 18823.00
1554.977, 18589.00
1556.006, 18744.00
1557.034, 18693.00
1558.062, 18665.00
1559.089, 18513.00
1560.117, 18576.00
1561.144, 18577.00
1562.172, 18628.00
1563.199, 18524.00
1564.226, 18626.00
1565.252, 18813.00
1566.279, 18680.00
1567.305, 18633.00
1568.332, 18521.00
1569.358, 18814.00
1570.384, 18617.00
1571.409, 18753.00
1572.435, 18701.00
##END=



