##NAMES=Diaspore
##RRUFFID=R060287
##IDEAL CHEMISTRY=AlO(OH)
##LOCALITY=Selcuk, Mugla Province, Turkey
##OWNER=RRUFF
##SOURCE=Herb Obodda
##DESCRIPTION=Colorless transparent platy fragment
##STATUS=The identification of this mineral has been confirmed by X-ray diffraction and chemical analysis
##URL=rruff.info/R060287
##MEASURED CHEMISTRY=(Al_0.99_Fe^3+^_0.01_)_Î£=1_O(OH) ; trace amounts of Ti;  OH estimated by difference ; Fe^3+^ by charge balance
##PIN_ID=L01646
##ORIENTATION=Laser parallel to -c* (0 0 -1). Fiducial mark perpendicular to laser is parallel to a [1 0 0]
114.4400, 4515.000
115.6710, 4505.000
116.9030, 4571.000
118.1340, 4621.000
119.3650, 4686.000
120.5960, 4667.000
121.8270, 4617.000
123.0580, 4751.000
124.2880, 4806.000
125.5190, 4910.000
126.7490, 4887.000
127.9790, 4976.000
129.2090, 5006.000
130.4390, 5179.000
131.6680, 5313.000
132.8980, 5385.000
134.1270, 5627.000
135.3560, 5940.000
136.5850, 6335.000
137.8140, 6815.000
139.0430, 7302.000
140.2710, 7888.000
141.5000, 8466.000
142.7280, 8505.000
143.9560, 8822.000
145.1840, 9019.000
146.4120, 9343.000
147.6390, 9222.000
148.8670, 9088.000
150.0940, 9918.000
151.3210, 11730.00
152.5490, 13214.00
153.7750, 13744.00
155.0020, 13792.00
156.2290, 13395.00
157.4550, 12788.00
158.6810, 11504.00
159.9080, 9613.000
161.1340, 7985.000
162.3590, 6590.000
163.5850, 5912.000
164.8110, 5717.000
166.0360, 5505.000
167.2610, 5328.000
168.4860, 5255.000
169.7110, 5267.000
170.9360, 5258.000
172.1610, 5308.000
173.3850, 5202.000
174.6100, 5127.000
175.8340, 5222.000
177.0580, 5188.000
178.2820, 5320.000
179.5050, 5196.000
180.7290, 5196.000
181.9520, 5268.000
183.1760, 5108.000
184.3990, 5173.000
185.6220, 5350.000
186.8450, 5232.000
188.0670, 5222.000
189.2900, 5300.000
190.5120, 5334.000
191.7340, 5346.000
192.9560, 5306.000
194.1780, 5313.000
195.4000, 5380.000
196.6220, 5397.000
197.8430, 5429.000
199.0640, 5335.000
200.2860, 5353.000
201.5070, 5401.000
202.7270, 5341.000
203.9480, 5399.000
205.1690, 5440.000
206.3890, 5449.000
207.6090, 5442.984
208.8290, 5431.649
210.0490, 5369.000
211.2690, 5413.000
212.4890, 5350.000
213.7080, 5427.000
214.9280, 5448.000
216.1470, 5406.000
217.3660, 5445.090
218.5850, 5405.000
219.8030, 5441.000
221.0220, 5467.000
222.2400, 5461.000
223.4590, 5489.000
224.6770, 5486.979
225.8950, 5489.000
227.1120, 5502.000
228.3300, 5491.000
229.5480, 5528.000
230.7650, 5460.000
231.9820, 5504.000
233.1990, 5474.000
234.4160, 5528.000
235.6330, 5438.000
236.8490, 5524.000
238.0660, 5668.000
239.2820, 5601.000
240.4980, 5557.000
241.7140, 5656.000
242.9300, 5520.000
244.1460, 5498.000
245.3610, 5589.000
246.5770, 5652.000
247.7920, 5598.000
249.0070, 5643.000
250.2220, 5726.000
251.4370, 5558.000
252.6510, 5641.000
253.8660, 5599.000
255.0800, 5666.000
256.2940, 5638.000
257.5080, 5692.000
258.7220, 5705.000
259.9360, 5860.000
261.1490, 5916.000
262.3630, 5825.000
263.5760, 5735.000
264.7890, 5739.000
266.0020, 5726.000
267.2150, 5770.000
268.4270, 5714.000
269.6400, 5847.000
270.8520, 5821.000
272.0640, 5855.000
273.2760, 5813.000
274.4880, 5880.000
275.7000, 5947.000
276.9120, 6058.000
278.1230, 6100.000
279.3340, 6248.571
280.5450, 6437.000
281.7560, 6544.000
282.9670, 6684.000
284.1780, 6854.000
285.3880, 7176.000
286.5980, 7379.000
287.8090, 7359.000
289.0190, 7361.000
290.2290, 7208.000
291.4380, 7081.000
292.6480, 6772.000
293.8570, 6550.000
295.0670, 6448.000
296.2760, 6154.000
297.4850, 6138.000
298.6930, 6235.000
299.9020, 6087.000
301.1110, 6085.000
302.3190, 6155.000
303.5270, 6073.000
304.7350, 6134.000
305.9430, 6232.000
307.1510, 6175.000
308.3580, 6255.000
309.5660, 6161.000
310.7730, 6197.000
311.9800, 6290.000
313.1870, 6320.000
314.3940, 6390.000
315.6010, 6567.000
316.8070, 6689.000
318.0130, 6901.000
319.2200, 7176.000
320.4260, 7622.000
321.6310, 8556.000
322.8370, 9336.000
324.0430, 10360.00
325.2480, 11071.00
326.4540, 12012.00
327.6590, 13807.00
328.8640, 15640.00
330.0680, 17039.00
331.2730, 17199.00
332.4780, 16945.00
333.6820, 16205.00
334.8860, 14744.00
336.0900, 12750.00
337.2940, 10786.00
338.4980, 9230.000
339.7010, 8096.000
340.9050, 7501.000
342.1080, 7076.000
343.3110, 6895.000
344.5140, 6797.000
345.7170, 6612.000
346.9200, 6576.000
348.1220, 6534.000
349.3240, 6486.000
350.5270, 6443.000
351.7290, 6424.000
352.9310, 6408.000
354.1320, 6376.000
355.3340, 6399.000
356.5350, 6503.000
357.7370, 6423.000
358.9380, 6463.000
360.1390, 6534.000
361.3400, 6459.000
362.5400, 6561.000
363.7410, 6559.000
364.9410, 6485.000
366.1410, 6542.000
367.3410, 6545.000
368.5410, 6609.000
369.7410, 6505.000
370.9400, 6579.000
372.1400, 6478.000
373.3390, 6533.000
374.5380, 6554.000
375.7370, 6535.000
376.9360, 6610.000
378.1350, 6593.000
379.3330, 6602.000
380.5310, 6528.000
381.7300, 6649.000
382.9280, 6608.000
384.1260, 6663.000
385.3230, 6705.000
386.5210, 6752.190
387.7180, 6787.000
388.9160, 6926.000
390.1130, 7014.000
391.3100, 7160.000
392.5060, 7232.000
393.7030, 7266.995
394.9000, 7335.000
396.0960, 7277.000
397.2920, 7264.000
398.4880, 7233.000
399.6840, 7179.000
400.8800, 6936.000
402.0750, 6910.000
403.2710, 6846.000
404.4660, 6880.000
405.6610, 6770.000
406.8560, 6758.000
408.0510, 6836.000
409.2450, 6950.000
410.4400, 6912.000
411.6340, 6903.000
412.8280, 6995.000
414.0220, 7003.000
415.2160, 6839.000
416.4100, 6963.000
417.6030, 6986.000
418.7970, 6978.000
419.9900, 7053.000
421.1830, 7123.000
422.3760, 7125.000
423.5690, 7323.000
424.7610, 7340.000
425.9540, 7416.000
427.1460, 7538.000
428.3380, 7664.000
429.5300, 7874.000
430.7220, 8175.000
431.9140, 8356.000
433.1050, 8841.000
434.2970, 9362.000
435.4880, 10346.00
436.6790, 11687.00
437.8700, 14230.00
439.0610, 18270.00
440.2510, 23311.00
441.4420, 27566.00
442.6320, 31093.00
443.8220, 37433.00
445.0120, 46638.00
446.2020, 55263.00
447.3910, 58959.00
448.5810, 58808.00
449.7700, 55569.00
450.9600, 49322.00
452.1490, 40597.00
453.3370, 30589.00
454.5260, 22111.00
455.7150, 16360.00
456.9030, 13066.00
458.0910, 11082.00
459.2800, 10049.00
460.4670, 9374.000
461.6550, 8786.000
462.8430, 8616.000
464.0300, 8405.000
465.2180, 8186.000
466.4050, 8042.554
467.5920, 7903.000
468.7790, 7788.000
469.9650, 7713.000
471.1520, 7612.309
472.3380, 7553.396
473.5250, 7493.000
474.7110, 7466.000
475.8970, 7480.000
477.0820, 7482.000
478.2680, 7399.000
479.4540, 7410.526
480.6390, 7278.000
481.8240, 7360.000
483.0090, 7351.000
484.1940, 7316.000
485.3780, 7400.000
486.5630, 7394.000
487.7470, 7390.000
488.9320, 7419.000
490.1160, 7469.000
491.3000, 7564.000
492.4830, 7602.000
493.6670, 7597.000
494.8500, 7727.000
496.0340, 7822.000
497.2170, 8000.000
498.4000, 7818.000
499.5820, 7986.000
500.7650, 8000.000
501.9480, 7765.000
503.1300, 7568.000
504.3120, 7484.000
505.4940, 7553.000
506.6760, 7523.000
507.8580, 7375.000
509.0390, 7349.000
510.2210, 7351.000
511.4020, 7537.000
512.5830, 7457.000
513.7640, 7441.000
514.9450, 7480.000
516.1250, 7367.000
517.3060, 7435.000
518.4860, 7457.000
519.6660, 7425.000
520.8460, 7384.000
522.0260, 7426.000
523.2060, 7375.000
524.3850, 7392.000
525.5650, 7382.000
526.7440, 7418.000
527.9230, 7424.000
529.1020, 7447.000
530.2810, 7330.000
531.4590, 7504.000
532.6380, 7444.000
533.8160, 7382.000
534.9940, 7456.000
536.1720, 7393.000
537.3500, 7431.000
538.5270, 7381.000
539.7050, 7334.000
540.8820, 7437.000
542.0590, 7502.000
543.2360, 7471.000
544.4130, 7386.000
545.5900, 7510.000
546.7660, 7483.000
547.9430, 7499.000
549.1190, 7575.000
550.2950, 7499.000
551.4710, 7497.000
552.6470, 7627.000
553.8220, 7459.000
554.9980, 7501.000
556.1730, 7562.000
557.3480, 7643.000
558.5230, 7560.000
559.6980, 7691.000
560.8730, 7602.000
562.0470, 7626.000
563.2220, 7574.000
564.3960, 7582.255
565.5700, 7616.000
566.7440, 7615.000
567.9170, 7657.000
569.0910, 7678.000
570.2640, 7637.000
571.4380, 7668.000
572.6110, 7750.000
573.7840, 7842.000
574.9570, 7880.000
576.1290, 8035.000
577.3020, 8095.264
578.4740, 8196.149
579.6460, 8258.000
580.8180, 8378.000
581.9900, 8432.000
583.1620, 8489.000
584.3330, 8322.000
585.5040, 8253.000
586.6760, 8197.000
587.8470, 8061.000
589.0180, 7926.000
590.1880, 7908.000
591.3590, 7945.000
592.5290, 7913.000
593.7000, 8020.000
594.8700, 7974.000
596.0400, 8100.000
597.2090, 8062.000
598.3790, 8227.000
599.5490, 8352.000
600.7180, 8350.000
601.8870, 8428.000
603.0560, 8646.000
604.2250, 8794.000
605.3940, 8780.000
606.5620, 9037.000
607.7300, 9073.000
608.8990, 9156.000
610.0670, 9104.000
611.2350, 9008.000
612.4020, 8871.000
613.5700, 8848.000
614.7370, 8637.000
615.9050, 8723.000
617.0720, 8451.000
618.2390, 8475.000
619.4060, 8350.000
620.5720, 8299.000
621.7390, 8403.000
622.9050, 8302.000
624.0710, 8327.000
625.2370, 8344.000
626.4030, 8232.000
627.5690, 8325.000
628.7340, 8411.000
629.9000, 8369.000
631.0650, 8360.000
632.2300, 8422.000
633.3950, 8507.000
634.5600, 8541.000
635.7240, 8501.000
636.8890, 8500.000
638.0530, 8536.000
639.2170, 8501.000
640.3810, 8640.000
641.5450, 8626.000
642.7080, 8687.000
643.8720, 8725.000
645.0350, 8825.000
646.1980, 8774.000
647.3610, 8967.000
648.5240, 9003.000
649.6870, 8982.000
650.8490, 9165.000
652.0120, 9104.000
653.1740, 9205.000
654.3360, 9394.000
655.4980, 9601.000
656.6600, 9853.000
657.8210, 10149.00
658.9830, 10540.00
660.1440, 10886.00
661.3050, 11286.00
662.4660, 11596.00
663.6270, 11948.00
664.7870, 12107.00
665.9480, 12255.00
667.1080, 12087.00
668.2680, 11984.00
669.4280, 11590.00
670.5880, 11186.00
671.7480, 10810.00
672.9070, 10400.00
674.0670, 10093.00
675.2260, 9769.734
676.3850, 9448.000
677.5440, 9259.000
678.7030, 9072.000
679.8610, 8954.000
681.0200, 8852.000
682.1780, 8804.000
683.3360, 8695.000
684.4940, 8684.000
685.6520, 8555.000
686.8090, 8502.000
687.9670, 8513.000
689.1240, 8465.000
690.2810, 8475.000
691.4380, 8482.000
692.5950, 8457.000
693.7520, 8407.000
694.9080, 8459.000
696.0650, 8362.000
697.2210, 8445.000
698.3770, 8470.000
699.5330, 8416.000
700.6880, 8438.000
701.8440, 8484.000
702.9990, 8334.000
704.1550, 8452.000
705.3100, 8281.000
706.4650, 8451.000
707.6190, 8477.000
708.7740, 8410.000
709.9290, 8515.000
711.0830, 8580.000
712.2370, 8654.000
713.3910, 8504.000
714.5450, 8593.000
715.6980, 8533.000
716.8520, 8490.000
718.0050, 8449.000
719.1580, 8436.532
720.3110, 8557.000
721.4640, 8455.000
722.6170, 8510.000
723.7700, 8573.000
724.9220, 8521.000
726.0740, 8695.000
727.2260, 8657.000
728.3780, 8648.000
729.5300, 8570.000
730.6810, 8618.000
731.8330, 8611.000
732.9840, 8610.000
734.1350, 8653.000
735.2860, 8721.000
736.4370, 8670.000
737.5880, 8567.000
738.7380, 8616.000
739.8880, 8619.000
741.0390, 8684.000
742.1890, 8693.000
743.3380, 8714.000
744.4880, 8634.000
745.6380, 8708.000
746.7870, 8674.000
747.9360, 8702.000
749.0850, 8725.000
750.2340, 8684.000
751.3830, 8822.000
752.5310, 8815.000
753.6800, 8814.000
754.8280, 8643.000
755.9760, 8824.000
757.1240, 8797.000
758.2720, 8852.000
759.4190, 8891.000
760.5670, 8922.000
761.7140, 8827.000
762.8610, 8899.000
764.0080, 8952.000
765.1550, 9106.000
766.3020, 9105.074
767.4480, 8956.000
768.5950, 9131.000
769.7410, 9134.000
770.8870, 9101.000
772.0330, 9261.000
773.1780, 9309.000
774.3240, 9373.000
775.4690, 9519.000
776.6140, 9716.000
777.7590, 9830.000
778.9040, 10004.00
780.0490, 10085.00
781.1940, 10165.00
782.3380, 10527.00
783.4820, 10844.00
784.6260, 10921.00
785.7700, 11438.00
786.9140, 11757.00
788.0580, 12110.00
789.2010, 12380.00
790.3450, 12610.00
791.4880, 12856.00
792.6310, 12702.00
793.7730, 12786.00
794.9160, 12431.00
796.0590, 12102.00
797.2010, 11797.00
798.3430, 11462.00
799.4850, 11097.00
800.6270, 10861.00
801.7690, 10510.00
802.9100, 10266.00
804.0520, 10112.00
805.1930, 9967.000
806.3340, 9794.282
807.4750, 9718.000
808.6160, 9542.000
809.7560, 9451.000
810.8970, 9396.000
812.0370, 9442.000
813.1770, 9360.000
814.3170, 9351.000
815.4570, 9446.000
816.5960, 9193.000
817.7360, 9305.000
818.8750, 9136.000
820.0140, 9107.000
821.1530, 9109.000
822.2920, 9253.000
823.4310, 9158.000
824.5690, 9238.000
825.7070, 9173.000
826.8460, 9119.000
827.9840, 9027.000
829.1220, 9095.000
830.2590, 9159.000
831.3970, 8990.000
832.5340, 9028.000
833.6710, 9022.000
834.8080, 9095.000
835.9450, 9131.000
837.0820, 9230.000
838.2190, 9000.000
839.3550, 9043.000
840.4910, 9150.000
841.6270, 9089.000
842.7630, 9147.000
843.8990, 9116.000
845.0350, 9094.000
846.1700, 9080.000
847.3060, 9053.000
848.4410, 9211.000
849.5760, 9003.000
850.7100, 9199.000
851.8450, 9031.000
852.9800, 9227.000
854.1140, 9153.000
855.2480, 9185.000
856.3820, 9107.000
857.5160, 9136.000
858.6500, 9078.000
859.7830, 9104.000
860.9170, 9201.000
862.0500, 9212.000
863.1830, 9124.000
864.3160, 9068.000
865.4480, 9118.000
866.5810, 9245.000
867.7130, 9162.000
868.8460, 9153.000
869.9780, 9174.000
871.1100, 9140.000
872.2410, 9137.000
873.3730, 9133.551
874.5050, 9134.440
875.6360, 9144.000
876.7670, 9171.000
877.8980, 9229.000
879.0290, 9280.000
880.1590, 9310.000
881.2900, 9347.000
882.4200, 9112.000
883.5500, 9203.000
884.6800, 9206.000
885.8100, 9297.000
886.9400, 9258.000
888.0690, 9205.000
889.1990, 9333.000
890.3280, 9261.000
891.4570, 9350.000
892.5860, 9320.000
893.7140, 9308.000
894.8430, 9206.000
895.9710, 9295.000
897.1000, 9293.000
898.2280, 9344.000
899.3560, 9287.000
900.4830, 9322.000
901.6110, 9247.000
902.7380, 9258.591
903.8660, 9344.000
904.9930, 9282.000
906.1200, 9306.000
907.2460, 9376.000
908.3730, 9282.000
909.5000, 9350.000
910.6260, 9438.000
911.7520, 9454.000
912.8780, 9484.000
914.0040, 9405.000
915.1290, 9489.000
916.2550, 9376.000
917.3800, 9387.000
918.5050, 9373.000
919.6300, 9376.995
920.7550, 9387.437
921.8800, 9451.000
923.0040, 9430.000
924.1290, 9470.000
925.2530, 9534.000
926.3770, 9529.000
927.5010, 9460.000
928.6250, 9553.000
929.7480, 9444.000
930.8720, 9431.000
931.9950, 9573.000
933.1180, 9445.000
934.2410, 9538.000
935.3640, 9524.000
936.4860, 9596.000
937.6090, 9606.000
938.7310, 9641.000
939.8530, 9638.526
940.9750, 9620.420
942.0970, 9591.000
943.2180, 9591.000
944.3400, 9533.000
945.4610, 9583.000
946.5820, 9591.000
947.7030, 9666.000
948.8240, 9597.000
949.9450, 9707.000
951.0650, 9499.000
952.1860, 9446.000
953.3060, 9627.000
954.4260, 9586.000
955.5460, 9668.000
956.6650, 9642.000
957.7850, 9748.000
958.9040, 9577.000
960.0230, 9617.000
961.1420, 9511.000
962.2610, 9648.000
963.3800, 9579.000
964.4990, 9712.000
965.6170, 9837.000
966.7350, 9741.000
967.8530, 9681.000
968.9710, 9687.000
970.0890, 9853.000
971.2070, 9729.000
972.3240, 9879.000
973.4410, 9722.000
974.5580, 9680.000
975.6750, 9866.000
976.7920, 9782.000
977.9090, 9878.000
979.0250, 9759.000
980.1410, 9834.000
981.2580, 9855.000
982.3740, 9828.000
983.4890, 9856.000
984.6050, 9871.000
985.7200, 9767.000
986.8360, 10063.00
987.9510, 9959.000
989.0660, 10013.00
990.1810, 9805.000
991.2950, 9914.000
992.4100, 9936.000
993.5240, 9982.000
994.6390, 9923.000
995.7530, 9968.000
996.8660, 9937.000
997.9800, 10057.00
999.0940, 9857.000
1000.207, 10023.00
1001.320, 9985.000
1002.433, 10018.00
1003.546, 10014.00
1004.659, 9999.000
1005.772, 9900.000
1006.884, 9972.000
1007.996, 9911.000
1009.108, 9924.000
1010.220, 10067.00
1011.332, 10095.00
1012.444, 10028.00
1013.555, 9983.000
1014.666, 10031.00
1015.777, 9989.000
1016.888, 10111.00
1017.999, 10254.00
1019.110, 10231.00
1020.220, 10097.00
1021.331, 10190.00
1022.441, 10142.00
1023.551, 9994.000
1024.661, 10181.00
1025.770, 10214.00
1026.880, 10150.00
1027.989, 10178.00
1029.098, 10158.00
1030.207, 10201.00
1031.316, 10171.80
1032.425, 10042.00
1033.533, 10171.00
1034.642, 10058.00
1035.750, 10147.00
1036.858, 10240.00
1037.966, 10275.00
1039.073, 10066.00
1040.181, 10100.00
1041.288, 10127.00
1042.396, 10199.00
1043.503, 10223.00
1044.610, 10234.00
1045.716, 10236.00
1046.823, 10211.00
1047.929, 10316.00
1049.036, 10315.00
1050.142, 10347.00
1051.248, 10313.00
1052.353, 10295.70
1053.459, 10285.00
1054.564, 10235.00
1055.670, 10246.00
1056.775, 10248.00
1057.880, 10306.00
1058.985, 10271.00
1060.089, 10175.00
1061.194, 10232.00
1062.298, 10338.00
1063.402, 10252.00
1064.506, 10327.00
1065.610, 10301.00
1066.713, 10290.00
1067.817, 10464.00
1068.920, 10203.00
1070.023, 10377.00
1071.126, 10419.00
1072.229, 10346.00
1073.332, 10327.00
1074.435, 10328.00
1075.537, 10462.00
1076.639, 10456.00
1077.741, 10364.00
1078.843, 10248.00
1079.945, 10475.00
1081.046, 10521.00
1082.148, 10622.00
1083.249, 10607.00
1084.350, 10854.00
1085.451, 11011.00
1086.551, 11158.00
1087.652, 10908.00
1088.752, 10830.00
1089.853, 10588.00
1090.953, 10506.00
1092.053, 10467.00
1093.152, 10538.00
1094.252, 10479.00
1095.351, 10411.00
1096.451, 10550.00
1097.550, 10556.00
1098.649, 10332.00
1099.748, 10514.00
1100.846, 10477.00
1101.945, 10516.00
1103.043, 10513.00
1104.141, 10575.00
1105.239, 10457.00
1106.337, 10627.00
1107.434, 10453.00
1108.532, 10565.00
1109.629, 10669.00
1110.726, 10506.00
1111.823, 10529.00
1112.920, 10660.00
1114.017, 10682.00
1115.113, 10688.02
1116.210, 10729.00
1117.306, 10654.00
1118.402, 10751.00
1119.498, 10731.00
1120.593, 10877.00
1121.689, 10857.00
1122.784, 10940.00
1123.879, 10950.00
1124.974, 10961.00
1126.069, 10866.00
1127.164, 10779.00
1128.259, 10710.00
1129.353, 10848.00
1130.447, 10700.00
1131.541, 10767.00
1132.635, 10876.00
1133.729, 10648.00
1134.822, 10630.00
1135.916, 10629.00
1137.009, 10635.00
1138.102, 10623.46
1139.195, 10617.00
1140.288, 10612.00
1141.380, 10685.00
1142.473, 10681.00
1143.565, 10761.00
1144.657, 10789.00
1145.749, 10755.00
1146.841, 10744.00
1147.932, 10738.67
1149.024, 10793.00
1150.115, 10738.00
1151.206, 10801.00
1152.297, 10865.00
1153.388, 10808.00
1154.479, 10768.00
1155.569, 10759.00
1156.659, 10841.00
1157.750, 10905.00
1158.839, 10793.00
1159.929, 10756.00
1161.019, 10855.00
1162.108, 10865.00
1163.198, 10931.00
1164.287, 10962.06
1165.376, 10906.00
1166.465, 11009.00
1167.553, 11024.00
1168.642, 11041.00
1169.730, 10975.00
1170.818, 11103.00
1171.906, 11146.00
1172.994, 11109.00
1174.082, 11171.00
1175.170, 11226.00
1176.257, 11313.00
1177.344, 11400.00
1178.431, 11521.25
1179.518, 11655.31
1180.605, 11824.00
1181.691, 12006.00
1182.778, 12226.00
1183.864, 12504.00
1184.950, 12792.00
1186.036, 13254.00
1187.122, 13863.00
1188.207, 14439.00
1189.292, 15268.00
1190.378, 15936.00
1191.463, 16618.00
1192.548, 17035.00
1193.632, 17516.00
1194.717, 17454.00
1195.801, 17018.00
1196.886, 16627.00
1197.970, 15762.00
1199.054, 14823.00
1200.137, 14085.00
1201.221, 13357.00
1202.305, 12924.00
1203.388, 12344.00
1204.471, 12167.00
1205.554, 11949.00
1206.637, 11685.00
1207.719, 11670.00
1208.802, 11582.00
1209.884, 11477.00
1210.966, 11380.00
1212.048, 11349.00
1213.130, 11309.00
1214.212, 11225.00
1215.293, 11345.00
1216.374, 11272.00
1217.456, 11314.00
1218.536, 11325.00
1219.617, 11196.00
1220.698, 11258.00
1221.778, 11198.00
1222.859, 11028.00
1223.939, 11185.00
1225.019, 11193.00
1226.099, 11241.00
1227.178, 11178.00
1228.258, 11251.00
1229.337, 11066.00
1230.417, 11139.00
1231.496, 11244.00
1232.574, 11127.00
1233.653, 11296.00
1234.732, 11246.00
1235.810, 11072.00
1236.888, 11137.00
1237.966, 11232.00
1239.044, 11270.00
1240.122, 11241.00
1241.199, 11281.00
1242.277, 11248.00
1243.354, 11155.00
1244.431, 11103.00
1245.508, 11260.00
1246.585, 11032.00
1247.661, 11138.00
1248.738, 11078.00
1249.814, 11302.00
1250.890, 11107.00
1251.966, 11331.00
1253.042, 11125.00
1254.117, 11234.00
1255.193, 11169.00
1256.268, 11141.00
1257.343, 11232.00
1258.418, 11224.00
1259.493, 11331.00
1260.567, 11246.00
1261.642, 11307.00
1262.716, 11228.00
1263.790, 11226.00
1264.864, 11226.00
1265.938, 11400.00
1267.011, 11283.00
1268.085, 11275.00
1269.158, 11343.00
1270.231, 11277.00
1271.304, 11181.00
1272.377, 11306.00
1273.450, 11310.00
1274.522, 11404.00
1275.594, 11249.00
1276.666, 11311.00
1277.738, 11301.00
1278.810, 11471.00
1279.882, 11256.00
1280.953, 11359.00
1282.025, 11287.00
1283.096, 11295.00
1284.167, 11315.00
1285.238, 11430.00
1286.308, 11310.00
1287.379, 11448.00
1288.449, 11219.00
1289.519, 11372.00
1290.589, 11288.00
1291.659, 11442.00
1292.729, 11477.00
1293.798, 11368.00
1294.868, 11554.00
1295.937, 11484.00
1297.006, 11401.00
1298.075, 11384.00
1299.143, 11331.00
1300.212, 11357.00
1301.280, 11343.00
1302.348, 11364.00
1303.416, 11359.00
1304.484, 11400.00
1305.552, 11410.00
1306.620, 11382.00
1307.687, 11554.00
1308.754, 11506.00
1309.821, 11417.00
1310.888, 11503.00
1311.955, 11363.00
1313.021, 11507.00
1314.088, 11511.00
1315.154, 11571.00
1316.220, 11604.00
1317.286, 11597.70
1318.352, 11618.56
1319.417, 11572.00
1320.483, 11603.00
1321.548, 11564.00
1322.613, 11538.00
1323.678, 11651.00
1324.743, 11501.00
1325.807, 11465.00
1326.872, 11584.00
1327.936, 11619.00
1329.000, 11613.00
1330.064, 11593.00
1331.128, 11622.00
1332.191, 11633.61
1333.255, 11693.00
1334.318, 11679.00
1335.381, 11699.72
1336.444, 11583.00
1337.507, 11701.00
1338.569, 11638.00
1339.632, 11616.00
1340.694, 11690.00
1341.756, 11582.00
1342.818, 11593.00
1343.880, 11689.00
1344.941, 11899.00
1346.003, 11654.00
1347.064, 11688.00
1348.125, 11598.00
1349.186, 11760.00
1350.247, 11720.00
1351.308, 11654.00
1352.368, 11624.00
1353.428, 11746.00
1354.489, 11688.00
1355.549, 11667.00
1356.608, 11618.00
1357.668, 11757.00
1358.727, 11835.00
1359.787, 11787.00
1360.846, 11668.00
1361.905, 11755.00
1362.964, 11807.00
1364.022, 11739.00
1365.081, 11795.00
1366.139, 11824.00
1367.197, 11757.00
1368.255, 11700.00
1369.313, 11858.00
1370.371, 11854.00
1371.428, 11812.00
1372.486, 11751.00
1373.543, 11749.00
1374.600, 11888.00
1375.657, 11689.00
1376.713, 11788.00
1377.770, 11886.00
1378.826, 11817.00
1379.882, 11967.00
1380.938, 11795.00
1381.994, 11924.00
1383.050, 11803.00
1384.106, 11883.00
1385.161, 11762.00
1386.216, 11900.00
1387.271, 11857.00
1388.326, 11876.00
1389.381, 11877.00
1390.435, 11872.00
1391.490, 11773.00
1392.544, 11937.00
1393.598, 11798.00
1394.652, 11886.00
1395.705, 11972.00
1396.759, 12066.00
1397.812, 11928.00
1398.866, 11964.00
1399.919, 12009.00
1400.972, 11840.00
1402.024, 11996.00
1403.077, 11967.00
1404.129, 11840.00
1405.181, 12079.00
1406.233, 11923.00
1407.285, 11869.00
1408.337, 11960.00
1409.389, 11882.00
1410.440, 11872.00
1411.491, 12013.00
1412.542, 12050.00
1413.593, 11917.00
1414.644, 12000.00
1415.695, 11978.00
1416.745, 12127.00
1417.795, 12054.00
1418.845, 11971.00
1419.895, 11944.00
1420.945, 12159.00
1421.995, 12061.00
1423.044, 12106.00
1424.093, 12000.00
1425.142, 11998.00
1426.191, 12007.00
1427.240, 12063.00
1428.289, 12160.00
1429.337, 12032.00
1430.385, 12198.00
1431.433, 12164.00
1432.481, 12252.00
1433.529, 12159.00
1434.577, 12154.00
1435.624, 12161.58
1436.672, 12147.50
1437.719, 12141.00
1438.766, 12198.00
1439.812, 12181.00
1440.859, 12231.00
1441.905, 12293.00
1442.952, 12216.00
1443.998, 12295.00
1445.044, 12221.00
1446.090, 12405.00
1447.135, 12285.00
1448.181, 12191.00
1449.226, 12260.00
1450.271, 12185.00
1451.316, 12361.00
1452.361, 12263.00
1453.405, 12299.00
1454.450, 12279.00
1455.494, 12211.00
1456.538, 12215.00
1457.582, 12282.00
1458.626, 12365.00
1459.670, 12388.00
1460.713, 12292.00
1461.757, 12351.00
1462.800, 12318.00
1463.843, 12340.00
1464.886, 12372.00
1465.928, 12180.00
1466.971, 12272.00
1468.013, 12190.00
1469.055, 12338.00
1470.097, 12210.00
1471.139, 12265.00
1472.181, 12367.00
1473.222, 12379.00
1474.263, 12306.00
1475.305, 12207.00
1476.346, 12264.00
1477.386, 12306.00
1478.427, 12335.00
1479.468, 12342.00
1480.508, 12350.41
1481.548, 12354.00
1482.588, 12322.90
1483.628, 12294.00
1484.668, 12248.00
1485.707, 12239.00
1486.747, 12268.00
1487.786, 12288.00
1488.825, 12426.00
1489.864, 12334.00
1490.902, 12505.00
1491.941, 12391.00
1492.979, 12499.00
1494.017, 12332.00
1495.055, 12373.00
1496.093, 12298.00
1497.131, 12327.00
1498.168, 12416.00
1499.206, 12435.00
1500.243, 12477.00
1501.280, 12457.00
1502.317, 12500.00
1503.354, 12368.00
1504.390, 12401.00
1505.426, 12352.00
1506.463, 12428.00
1507.499, 12499.00
1508.535, 12508.00
1509.570, 12526.00
1510.606, 12535.88
1511.641, 12563.38
1512.676, 12524.00
1513.711, 12563.00
1514.746, 12567.00
1515.781, 12441.00
1516.816, 12619.00
1517.850, 12501.00
1518.884, 12609.00
1519.918, 12516.00
1520.952, 12620.00
1521.986, 12441.00
1523.019, 12426.00
1524.053, 12540.00
1525.086, 12477.00
1526.119, 12589.00
1527.152, 12541.00
1528.185, 12650.00
1529.217, 12651.00
1530.250, 12681.00
1531.282, 12607.00
1532.314, 12636.00
1533.346, 12536.00
1534.377, 12538.00
1535.409, 12636.00
1536.440, 12596.00
1537.472, 12609.00
1538.503, 12645.00
1539.534, 12647.00
1540.564, 12658.55
1541.595, 12562.00
1542.625, 12674.00
1543.656, 12599.00
1544.686, 12618.00
1545.716, 12723.00
1546.745, 12758.00
1547.775, 12633.00
1548.804, 12530.00
1549.834, 12543.00
1550.863, 12714.00
1551.892, 12800.00
1552.920, 12781.00
1553.949, 12726.00
1554.977, 12799.00
1556.006, 12774.00
1557.034, 12630.00
1558.062, 12583.00
1559.089, 12741.00
1560.117, 12606.00
1561.144, 12726.00
1562.172, 12786.00
1563.199, 12785.00
1564.226, 12757.00
1565.252, 12690.00
1566.279, 12758.00
1567.305, 12714.00
1568.332, 12703.00
1569.358, 12679.00
1570.384, 12847.00
1571.409, 12817.00
1572.435, 12829.00
##END=



