##NAMES=Diaspore
##RRUFFID=R060287
##IDEAL CHEMISTRY=AlO(OH)
##LOCALITY=Selcuk, Mugla Province, Turkey
##OWNER=RRUFF
##SOURCE=Herb Obodda
##DESCRIPTION=Colorless transparent platy fragment
##STATUS=The identification of this mineral has been confirmed by X-ray diffraction and chemical analysis
##URL=rruff.info/R060287
##MEASURED CHEMISTRY=(Al_0.99_Fe^3+^_0.01_)_Î£=1_O(OH) ; trace amounts of Ti;  OH estimated by difference ; Fe^3+^ by charge balance
##PIN_ID=L01658
##ORIENTATION=Laser parallel to a* (1 0 0). Fiducial mark perpendicular to laser is parallel to b [0 1 0]
114.4400, 7446.000
115.6710, 7487.000
116.9030, 7652.000
118.1340, 7674.000
119.3650, 7738.000
120.5960, 7786.000
121.8270, 7804.000
123.0580, 7926.000
124.2880, 8034.000
125.5190, 8040.000
126.7490, 8000.000
127.9790, 8199.000
129.2090, 8151.000
130.4390, 8180.000
131.6680, 8273.000
132.8980, 8315.000
134.1270, 8410.000
135.3560, 8461.706
136.5850, 8440.000
137.8140, 8585.000
139.0430, 8679.000
140.2710, 8770.000
141.5000, 8960.000
142.7280, 9232.000
143.9560, 9796.000
145.1840, 10541.00
146.4120, 11213.00
147.6390, 11468.00
148.8670, 11933.00
150.0940, 13157.00
151.3210, 15009.00
152.5490, 16823.00
153.7750, 17653.00
155.0020, 18323.00
156.2290, 19686.00
157.4550, 20068.00
158.6810, 18147.00
159.9080, 14890.00
161.1340, 12212.00
162.3590, 10579.00
163.5850, 9685.000
164.8110, 9415.000
166.0360, 9084.000
167.2610, 9121.000
168.4860, 9049.000
169.7110, 8903.000
170.9360, 8905.000
172.1610, 9015.000
173.3850, 8903.000
174.6100, 8923.000
175.8340, 9049.000
177.0580, 9049.000
178.2820, 9088.000
179.5050, 9056.000
180.7290, 9080.596
181.9520, 9089.000
183.1760, 9054.000
184.3990, 9134.000
185.6220, 9029.000
186.8450, 9108.000
188.0670, 9153.000
189.2900, 9213.000
190.5120, 9072.000
191.7340, 9279.000
192.9560, 9229.000
194.1780, 9325.000
195.4000, 9188.000
196.6220, 9299.000
197.8430, 9242.000
199.0640, 9330.000
200.2860, 9296.000
201.5070, 9286.000
202.7270, 9348.000
203.9480, 9405.000
205.1690, 9320.000
206.3890, 9376.000
207.6090, 9382.000
208.8290, 9245.000
210.0490, 9459.000
211.2690, 9493.000
212.4890, 9430.000
213.7080, 9568.000
214.9280, 9418.000
216.1470, 9508.000
217.3660, 9522.000
218.5850, 9428.000
219.8030, 9458.000
221.0220, 9549.000
222.2400, 9562.000
223.4590, 9585.000
224.6770, 9606.000
225.8950, 9525.000
227.1120, 9551.000
228.3300, 9548.000
229.5480, 9539.000
230.7650, 9663.000
231.9820, 9613.000
233.1990, 9701.000
234.4160, 9714.000
235.6330, 9696.000
236.8490, 9673.000
238.0660, 9697.000
239.2820, 9683.339
240.4980, 9757.000
241.7140, 9724.000
242.9300, 9769.000
244.1460, 9866.000
245.3610, 9721.000
246.5770, 9738.000
247.7920, 9879.000
249.0070, 9917.000
250.2220, 9762.000
251.4370, 9807.000
252.6510, 9878.000
253.8660, 9974.000
255.0800, 9946.000
256.2940, 9872.000
257.5080, 9883.000
258.7220, 10119.00
259.9360, 10287.00
261.1490, 10023.00
262.3630, 10066.00
263.5760, 9943.000
264.7890, 9944.000
266.0020, 10009.00
267.2150, 10005.00
268.4270, 10093.00
269.6400, 10010.00
270.8520, 9925.000
272.0640, 10160.00
273.2760, 10010.00
274.4880, 10076.00
275.7000, 10171.00
276.9120, 10161.00
278.1230, 10105.00
279.3340, 10173.00
280.5450, 10158.00
281.7560, 10205.00
282.9670, 10113.00
284.1780, 10307.00
285.3880, 10108.00
286.5980, 10382.00
287.8090, 10357.00
289.0190, 10434.00
290.2290, 10216.00
291.4380, 10414.00
292.6480, 10281.00
293.8570, 10376.00
295.0670, 10358.00
296.2760, 10261.00
297.4850, 10440.00
298.6930, 10469.00
299.9020, 10303.00
301.1110, 10466.00
302.3190, 10271.00
303.5270, 10370.00
304.7350, 10385.00
305.9430, 10435.00
307.1510, 10401.00
308.3580, 10511.00
309.5660, 10296.00
310.7730, 10559.00
311.9800, 10438.00
313.1870, 10542.00
314.3940, 10540.00
315.6010, 10523.00
316.8070, 10624.00
318.0130, 10669.00
319.2200, 10619.00
320.4260, 10459.00
321.6310, 10702.00
322.8370, 10820.00
324.0430, 10689.00
325.2480, 10788.00
326.4540, 10925.00
327.6590, 11000.00
328.8640, 11095.00
330.0680, 11021.00
331.2730, 11242.00
332.4780, 11438.00
333.6820, 11324.00
334.8860, 11306.00
336.0900, 11225.00
337.2940, 11025.00
338.4980, 11004.00
339.7010, 10989.00
340.9050, 10919.00
342.1080, 10945.00
343.3110, 10956.00
344.5140, 10904.00
345.7170, 11032.00
346.9200, 10885.00
348.1220, 10995.00
349.3240, 10972.00
350.5270, 10934.00
351.7290, 10934.00
352.9310, 11035.00
354.1320, 11125.00
355.3340, 10971.00
356.5350, 10988.00
357.7370, 11140.00
358.9380, 11033.00
360.1390, 11082.00
361.3400, 11240.00
362.5400, 11383.00
363.7410, 11337.00
364.9410, 11319.00
366.1410, 11581.00
367.3410, 11380.00
368.5410, 11429.00
369.7410, 11347.00
370.9400, 11502.00
372.1400, 11558.00
373.3390, 11298.00
374.5380, 11420.00
375.7370, 11325.00
376.9360, 11264.00
378.1350, 11321.00
379.3330, 11243.00
380.5310, 11451.00
381.7300, 11308.00
382.9280, 11378.00
384.1260, 11581.00
385.3230, 11350.00
386.5210, 11428.00
387.7180, 11437.00
388.9160, 11362.00
390.1130, 11444.00
391.3100, 11556.00
392.5060, 11446.00
393.7030, 11573.00
394.9000, 11663.00
396.0960, 11732.00
397.2920, 11612.00
398.4880, 11645.00
399.6840, 11519.00
400.8800, 11657.00
402.0750, 11613.00
403.2710, 11622.00
404.4660, 11582.00
405.6610, 11651.00
406.8560, 11729.00
408.0510, 11730.00
409.2450, 11674.00
410.4400, 11763.00
411.6340, 11834.00
412.8280, 11707.00
414.0220, 11902.00
415.2160, 11835.00
416.4100, 11852.00
417.6030, 11929.00
418.7970, 12023.00
419.9900, 12161.00
421.1830, 12161.46
422.3760, 12051.00
423.5690, 12166.00
424.7610, 12216.00
425.9540, 12186.00
427.1460, 12371.00
428.3380, 12584.00
429.5300, 12749.00
430.7220, 12836.00
431.9140, 13022.00
433.1050, 13409.00
434.2970, 13938.00
435.4880, 14578.00
436.6790, 15732.00
437.8700, 17605.00
439.0610, 20669.00
440.2510, 24428.00
441.4420, 28173.00
442.6320, 31688.00
443.8220, 37770.00
445.0120, 46292.00
446.2020, 53841.00
447.3910, 58646.00
448.5810, 62586.00
449.7700, 64711.00
450.9600, 61133.00
452.1490, 50035.00
453.3370, 37436.00
454.5260, 27620.00
455.7150, 21856.00
456.9030, 18341.00
458.0910, 16425.00
459.2800, 15380.00
460.4670, 14757.00
461.6550, 14034.00
462.8430, 13872.00
464.0300, 13539.00
465.2180, 13424.00
466.4050, 13411.00
467.5920, 13100.00
468.7790, 13149.00
469.9650, 13088.00
471.1520, 13075.00
472.3380, 12999.00
473.5250, 12926.00
474.7110, 12882.00
475.8970, 12771.00
477.0820, 12900.00
478.2680, 12840.00
479.4540, 12923.00
480.6390, 12838.00
481.8240, 12839.00
483.0090, 12777.00
484.1940, 12866.00
485.3780, 12764.00
486.5630, 12851.00
487.7470, 13036.00
488.9320, 13063.00
490.1160, 13329.00
491.3000, 13493.00
492.4830, 13748.00
493.6670, 14023.44
494.8500, 14247.00
496.0340, 14607.00
497.2170, 14852.00
498.4000, 15151.00
499.5820, 15564.00
500.7650, 15304.00
501.9480, 14970.00
503.1300, 14315.00
504.3120, 13683.00
505.4940, 13295.00
506.6760, 13130.00
507.8580, 12861.00
509.0390, 12942.00
510.2210, 12746.00
511.4020, 12742.00
512.5830, 12850.00
513.7640, 12744.00
514.9450, 12937.00
516.1250, 12819.00
517.3060, 12719.00
518.4860, 12698.00
519.6660, 12781.00
520.8460, 12808.00
522.0260, 12799.00
523.2060, 12840.00
524.3850, 12762.00
525.5650, 12977.00
526.7440, 12805.00
527.9230, 12967.00
529.1020, 12951.00
530.2810, 13064.00
531.4590, 12872.00
532.6380, 12845.00
533.8160, 12929.00
534.9940, 12987.00
536.1720, 13107.00
537.3500, 12921.00
538.5270, 13043.00
539.7050, 13105.00
540.8820, 12865.00
542.0590, 12994.00
543.2360, 13057.00
544.4130, 12977.00
545.5900, 13054.00
546.7660, 13089.00
547.9430, 13070.00
549.1190, 13124.00
550.2950, 13142.00
551.4710, 13173.00
552.6470, 13173.00
553.8220, 13201.00
554.9980, 13299.00
556.1730, 13219.00
557.3480, 13437.00
558.5230, 13316.00
559.6980, 13340.00
560.8730, 13215.00
562.0470, 13442.00
563.2220, 13429.00
564.3960, 13472.00
565.5700, 13437.00
566.7440, 13452.00
567.9170, 13502.00
569.0910, 13627.00
570.2640, 13672.00
571.4380, 13696.44
572.6110, 13659.00
573.7840, 13750.00
574.9570, 13639.00
576.1290, 13740.00
577.3020, 13761.00
578.4740, 13678.00
579.6460, 13873.00
580.8180, 14089.00
581.9900, 13926.00
583.1620, 13868.00
584.3330, 13920.00
585.5040, 14085.00
586.6760, 13924.00
587.8470, 13922.00
589.0180, 14064.00
590.1880, 14014.00
591.3590, 14111.00
592.5290, 14331.00
593.7000, 14319.00
594.8700, 14428.00
596.0400, 14621.00
597.2090, 14845.00
598.3790, 15120.00
599.5490, 15391.00
600.7180, 15851.00
601.8870, 16240.00
603.0560, 16632.00
604.2250, 17207.00
605.3940, 17637.00
606.5620, 18105.00
607.7300, 18548.00
608.8990, 18676.00
610.0670, 18899.00
611.2350, 18937.00
612.4020, 18227.00
613.5700, 17933.00
614.7370, 17365.00
615.9050, 16669.00
617.0720, 16285.00
618.2390, 15808.00
619.4060, 15563.00
620.5720, 15413.00
621.7390, 15298.00
622.9050, 14992.00
624.0710, 14915.00
625.2370, 14882.00
626.4030, 14680.00
627.5690, 14795.00
628.7340, 14599.00
629.9000, 14753.00
631.0650, 14675.00
632.2300, 14615.00
633.3950, 14597.00
634.5600, 14617.00
635.7240, 14738.00
636.8890, 14547.00
638.0530, 14399.00
639.2170, 14576.00
640.3810, 14536.00
641.5450, 14719.00
642.7080, 14793.00
643.8720, 14654.00
645.0350, 14727.00
646.1980, 14876.00
647.3610, 14987.00
648.5240, 15088.00
649.6870, 15220.00
650.8490, 15348.00
652.0120, 15565.00
653.1740, 15732.00
654.3360, 16168.00
655.4980, 16581.00
656.6600, 17050.00
657.8210, 17660.00
658.9830, 18532.00
660.1440, 19189.00
661.3050, 19942.00
662.4660, 20816.00
663.6270, 21400.00
664.7870, 21930.00
665.9480, 22512.00
667.1080, 22503.00
668.2680, 22229.00
669.4280, 21698.00
670.5880, 21348.00
671.7480, 20125.00
672.9070, 19441.00
674.0670, 18467.00
675.2260, 17874.00
676.3850, 17349.00
677.5440, 16834.00
678.7030, 16338.00
679.8610, 16150.00
681.0200, 15818.00
682.1780, 15870.00
683.3360, 15464.00
684.4940, 15505.00
685.6520, 15378.00
686.8090, 15184.00
687.9670, 15025.00
689.1240, 15079.00
690.2810, 15096.00
691.4380, 14934.00
692.5950, 15011.00
693.7520, 14998.00
694.9080, 14978.00
696.0650, 15002.00
697.2210, 14987.74
698.3770, 14921.00
699.5330, 14951.00
700.6880, 14985.00
701.8440, 14889.00
702.9990, 14859.00
704.1550, 15027.00
705.3100, 14816.00
706.4650, 15008.00
707.6190, 15016.00
708.7740, 14812.00
709.9290, 14747.00
711.0830, 14762.00
712.2370, 14949.00
713.3910, 14864.00
714.5450, 14786.00
715.6980, 14891.00
716.8520, 14847.00
718.0050, 14863.00
719.1580, 14876.00
720.3110, 14945.00
721.4640, 14887.00
722.6170, 14909.00
723.7700, 14876.00
724.9220, 14929.00
726.0740, 14922.16
727.2260, 14979.00
728.3780, 14944.00
729.5300, 14966.00
730.6810, 14982.00
731.8330, 14924.00
732.9840, 14889.00
734.1350, 15018.00
735.2860, 14963.00
736.4370, 15022.00
737.5880, 15089.00
738.7380, 14890.00
739.8880, 15040.00
741.0390, 15044.00
742.1890, 15117.00
743.3380, 14989.00
744.4880, 15046.00
745.6380, 15221.00
746.7870, 15120.00
747.9360, 14906.00
749.0850, 15075.00
750.2340, 15050.00
751.3830, 15059.00
752.5310, 15108.00
753.6800, 15099.00
754.8280, 15113.00
755.9760, 15119.00
757.1240, 15111.00
758.2720, 15242.00
759.4190, 15238.00
760.5670, 15275.00
761.7140, 15232.00
762.8610, 15242.00
764.0080, 15246.10
765.1550, 15186.00
766.3020, 15254.00
767.4480, 15234.00
768.5950, 15240.00
769.7410, 15199.00
770.8870, 15224.76
772.0330, 15276.00
773.1780, 15286.00
774.3240, 15340.00
775.4690, 15421.00
776.6140, 15315.00
777.7590, 15271.00
778.9040, 15491.00
780.0490, 15352.00
781.1940, 15416.00
782.3380, 15472.00
783.4820, 15587.00
784.6260, 15614.00
785.7700, 15574.00
786.9140, 15621.00
788.0580, 15683.00
789.2010, 15603.00
790.3450, 15645.00
791.4880, 15621.00
792.6310, 15710.00
793.7730, 15647.00
794.9160, 15523.00
796.0590, 15554.41
797.2010, 15581.00
798.3430, 15515.00
799.4850, 15487.00
800.6270, 15511.00
801.7690, 15429.00
802.9100, 15458.00
804.0520, 15406.00
805.1930, 15477.00
806.3340, 15392.00
807.4750, 15346.00
808.6160, 15278.00
809.7560, 15430.00
810.8970, 15436.00
812.0370, 15470.00
813.1770, 15480.42
814.3170, 15443.00
815.4570, 15402.00
816.5960, 15305.00
817.7360, 15209.00
818.8750, 15308.00
820.0140, 15453.00
821.1530, 15404.00
822.2920, 15483.00
823.4310, 15488.95
824.5690, 15354.00
825.7070, 15471.00
826.8460, 15403.00
827.9840, 15369.00
829.1220, 15368.00
830.2590, 15462.00
831.3970, 15475.00
832.5340, 15567.00
833.6710, 15498.00
834.8080, 15314.00
835.9450, 15398.00
837.0820, 15389.00
838.2190, 15359.00
839.3550, 15524.00
840.4910, 15483.00
841.6270, 15570.00
842.7630, 15597.00
843.8990, 15635.00
845.0350, 15525.00
846.1700, 15519.00
847.3060, 15519.00
848.4410, 15532.00
849.5760, 15583.00
850.7100, 15522.00
851.8450, 15657.00
852.9800, 15598.00
854.1140, 15632.00
855.2480, 15608.00
856.3820, 15529.00
857.5160, 15605.00
858.6500, 15599.00
859.7830, 15637.00
860.9170, 15559.00
862.0500, 15638.00
863.1830, 15795.00
864.3160, 15698.00
865.4480, 15779.00
866.5810, 15731.00
867.7130, 15619.00
868.8460, 15645.00
869.9780, 15757.00
871.1100, 15842.00
872.2410, 15728.00
873.3730, 15742.00
874.5050, 15712.00
875.6360, 15806.00
876.7670, 15883.00
877.8980, 15763.00
879.0290, 15725.00
880.1590, 15824.00
881.2900, 15787.00
882.4200, 15754.00
883.5500, 15945.00
884.6800, 15947.00
885.8100, 16035.00
886.9400, 15816.00
888.0690, 15798.00
889.1990, 15730.00
890.3280, 15789.00
891.4570, 15929.00
892.5860, 15879.00
893.7140, 15837.00
894.8430, 16029.00
895.9710, 15935.00
897.1000, 16088.00
898.2280, 15901.00
899.3560, 15938.00
900.4830, 16064.00
901.6110, 15879.00
902.7380, 15932.00
903.8660, 16012.00
904.9930, 15994.00
906.1200, 15898.00
907.2460, 16102.00
908.3730, 15976.00
909.5000, 15991.00
910.6260, 16113.00
911.7520, 16034.00
912.8780, 16033.00
914.0040, 15889.00
915.1290, 16015.00
916.2550, 16091.00
917.3800, 16263.00
918.5050, 16158.00
919.6300, 16273.00
920.7550, 16160.00
921.8800, 16126.00
923.0040, 15952.00
924.1290, 16112.00
925.2530, 16218.00
926.3770, 16211.00
927.5010, 16207.00
928.6250, 16157.00
929.7480, 16149.00
930.8720, 16133.00
931.9950, 16097.00
933.1180, 16176.00
934.2410, 16177.00
935.3640, 16295.00
936.4860, 16221.00
937.6090, 16193.00
938.7310, 16119.00
939.8530, 16114.89
940.9750, 16132.00
942.0970, 16132.00
943.2180, 16271.00
944.3400, 16340.00
945.4610, 16330.00
946.5820, 16140.00
947.7030, 16237.00
948.8240, 16252.00
949.9450, 16248.00
951.0650, 16283.00
952.1860, 16276.54
953.3060, 16349.00
954.4260, 16271.00
955.5460, 16336.00
956.6650, 16321.00
957.7850, 16320.00
958.9040, 16330.00
960.0230, 16421.00
961.1420, 16373.00
962.2610, 16510.00
963.3800, 16442.00
964.4990, 16439.00
965.6170, 16428.00
966.7350, 16390.58
967.8530, 16565.00
968.9710, 16402.00
970.0890, 16356.00
971.2070, 16483.00
972.3240, 16353.00
973.4410, 16644.00
974.5580, 16534.00
975.6750, 16525.00
976.7920, 16395.00
977.9090, 16645.00
979.0250, 16557.00
980.1410, 16707.00
981.2580, 16655.00
982.3740, 16541.00
983.4890, 16637.00
984.6050, 16780.00
985.7200, 16625.00
986.8360, 16718.00
987.9510, 16716.00
989.0660, 16660.00
990.1810, 16802.00
991.2950, 16643.00
992.4100, 16636.00
993.5240, 16853.00
994.6390, 16792.00
995.7530, 16738.00
996.8660, 16727.00
997.9800, 16753.00
999.0940, 16839.00
1000.207, 16727.00
1001.320, 16871.00
1002.433, 16934.00
1003.546, 16933.00
1004.659, 16888.00
1005.772, 16891.00
1006.884, 16963.00
1007.996, 16807.00
1009.108, 16896.00
1010.220, 16675.00
1011.332, 16805.00
1012.444, 16960.00
1013.555, 16814.00
1014.666, 16964.00
1015.777, 16910.00
1016.888, 16895.00
1017.999, 17119.00
1019.110, 17071.00
1020.220, 16940.00
1021.331, 16944.00
1022.441, 17014.00
1023.551, 16968.00
1024.661, 16996.00
1025.770, 17034.00
1026.880, 17091.00
1027.989, 17048.00
1029.098, 16963.00
1030.207, 16987.02
1031.316, 16959.77
1032.425, 16962.00
1033.533, 16946.00
1034.642, 16950.00
1035.750, 16886.00
1036.858, 16941.32
1037.966, 16966.00
1039.073, 17052.00
1040.181, 16956.00
1041.288, 17051.00
1042.396, 17093.00
1043.503, 17027.00
1044.610, 17053.00
1045.716, 17082.82
1046.823, 17174.00
1047.929, 17185.00
1049.036, 17194.00
1050.142, 17290.00
1051.248, 17197.00
1052.353, 17366.00
1053.459, 17246.00
1054.564, 17150.00
1055.670, 17294.00
1056.775, 17114.00
1057.880, 17303.00
1058.985, 17174.00
1060.089, 17182.00
1061.194, 17171.00
1062.298, 17171.00
1063.402, 17222.00
1064.506, 17186.00
1065.610, 17260.00
1066.713, 17205.00
1067.817, 17230.00
1068.920, 17312.00
1070.023, 17271.00
1071.126, 17279.00
1072.229, 17118.00
1073.332, 17368.00
1074.435, 17236.00
1075.537, 17355.00
1076.639, 17198.00
1077.741, 17192.00
1078.843, 17423.00
1079.945, 17446.00
1081.046, 17337.00
1082.148, 17439.71
1083.249, 17278.00
1084.350, 17417.00
1085.451, 17400.00
1086.551, 17362.00
1087.652, 17350.00
1088.752, 17513.00
1089.853, 17527.00
1090.953, 17299.00
1092.053, 17442.00
1093.152, 17298.00
1094.252, 17586.00
1095.351, 17457.00
1096.451, 17524.00
1097.550, 17391.00
1098.649, 17346.00
1099.748, 17446.00
1100.846, 17518.00
1101.945, 17595.00
1103.043, 17548.00
1104.141, 17543.00
1105.239, 17528.00
1106.337, 17408.00
1107.434, 17306.00
1108.532, 17487.00
1109.629, 17571.00
1110.726, 17491.00
1111.823, 17590.00
1112.920, 17489.00
1114.017, 17679.00
1115.113, 17596.00
1116.210, 17702.00
1117.306, 17681.00
1118.402, 17771.00
1119.498, 17947.00
1120.593, 18021.00
1121.689, 18097.00
1122.784, 17968.00
1123.879, 17775.00
1124.974, 17869.00
1126.069, 17974.00
1127.164, 17764.00
1128.259, 17897.00
1129.353, 17865.00
1130.447, 17785.00
1131.541, 17666.00
1132.635, 17697.00
1133.729, 17638.00
1134.822, 17775.00
1135.916, 17672.00
1137.009, 17720.00
1138.102, 17726.00
1139.195, 17595.00
1140.288, 17711.00
1141.380, 17678.84
1142.473, 17781.00
1143.565, 17730.00
1144.657, 17811.00
1145.749, 17839.00
1146.841, 17702.00
1147.932, 17939.00
1149.024, 17801.00
1150.115, 17693.00
1151.206, 17576.00
1152.297, 17738.00
1153.388, 17929.00
1154.479, 17876.00
1155.569, 17998.00
1156.659, 17941.00
1157.750, 17899.00
1158.839, 17922.00
1159.929, 17702.00
1161.019, 17975.00
1162.108, 17762.00
1163.198, 18015.00
1164.287, 18042.00
1165.376, 18116.00
1166.465, 18100.00
1167.553, 18099.00
1168.642, 17850.00
1169.730, 18162.00
1170.818, 18170.00
1171.906, 17987.00
1172.994, 18148.00
1174.082, 18263.00
1175.170, 18186.00
1176.257, 18012.00
1177.344, 18133.00
1178.431, 18337.00
1179.518, 18348.00
1180.605, 18582.00
1181.691, 18644.00
1182.778, 18873.00
1183.864, 19050.00
1184.950, 19441.00
1186.036, 19970.00
1187.122, 20392.00
1188.207, 21232.00
1189.292, 21151.00
1190.378, 21253.00
1191.463, 21396.00
1192.548, 20873.00
1193.632, 20441.00
1194.717, 20241.00
1195.801, 19663.00
1196.886, 19399.00
1197.970, 19194.00
1199.054, 18882.00
1200.137, 18671.00
1201.221, 18550.00
1202.305, 18422.00
1203.388, 18387.00
1204.471, 18324.00
1205.554, 18371.00
1206.637, 18382.00
1207.719, 18426.00
1208.802, 18490.00
1209.884, 18265.00
1210.966, 18257.00
1212.048, 18143.00
1213.130, 18133.00
1214.212, 18104.00
1215.293, 18323.00
1216.374, 18169.00
1217.456, 18229.00
1218.536, 18344.00
1219.617, 18225.00
1220.698, 18311.00
1221.778, 18249.00
1222.859, 18234.00
1223.939, 18158.00
1225.019, 18240.00
1226.099, 18390.00
1227.178, 18269.00
1228.258, 18289.00
1229.337, 18152.00
1230.417, 18290.00
1231.496, 18344.00
1232.574, 18247.00
1233.653, 18266.00
1234.732, 18288.00
1235.810, 18210.00
1236.888, 18569.00
1237.966, 18297.00
1239.044, 18482.00
1240.122, 18324.00
1241.199, 18321.00
1242.277, 18362.00
1243.354, 18344.00
1244.431, 18221.00
1245.508, 18388.00
1246.585, 18262.00
1247.661, 18188.00
1248.738, 18338.00
1249.814, 18360.00
1250.890, 18324.00
1251.966, 18301.00
1253.042, 18230.00
1254.117, 18420.00
1255.193, 18379.00
1256.268, 18419.00
1257.343, 18346.00
1258.418, 18372.06
1259.493, 18343.83
1260.567, 18386.00
1261.642, 18346.00
1262.716, 18338.00
1263.790, 18446.00
1264.864, 18402.00
1265.938, 18484.00
1267.011, 18513.00
1268.085, 18452.00
1269.158, 18442.00
1270.231, 18524.00
1271.304, 18510.00
1272.377, 18443.00
1273.450, 18367.00
1274.522, 18558.00
1275.594, 18407.00
1276.666, 18553.00
1277.738, 18449.00
1278.810, 18390.00
1279.882, 18454.00
1280.953, 18430.72
1282.025, 18482.00
1283.096, 18516.00
1284.167, 18541.00
1285.238, 18586.00
1286.308, 18521.00
1287.379, 18322.00
1288.449, 18670.00
1289.519, 18492.00
1290.589, 18622.00
1291.659, 18473.00
1292.729, 18304.00
1293.798, 18586.00
1294.868, 18510.00
1295.937, 18344.00
1297.006, 18389.00
1298.075, 18411.00
1299.143, 18430.00
1300.212, 18449.00
1301.280, 18584.00
1302.348, 18645.00
1303.416, 18550.00
1304.484, 18645.00
1305.552, 18568.00
1306.620, 18552.00
1307.687, 18608.00
1308.754, 18729.00
1309.821, 18736.00
1310.888, 18684.00
1311.955, 18514.00
1313.021, 18835.00
1314.088, 18872.00
1315.154, 18687.00
1316.220, 18795.00
1317.286, 18679.00
1318.352, 18885.00
1319.417, 18695.00
1320.483, 18693.00
1321.548, 18869.00
1322.613, 18841.00
1323.678, 18960.00
1324.743, 18887.00
1325.807, 18915.00
1326.872, 18887.00
1327.936, 18909.00
1329.000, 18940.00
1330.064, 18867.00
1331.128, 18865.00
1332.191, 18974.00
1333.255, 18887.00
1334.318, 18960.00
1335.381, 18971.00
1336.444, 19023.93
1337.507, 19016.25
1338.569, 19119.00
1339.632, 18997.00
1340.694, 18885.00
1341.756, 18891.00
1342.818, 18966.00
1343.880, 18956.00
1344.941, 19071.00
1346.003, 18877.00
1347.064, 18832.00
1348.125, 19111.00
1349.186, 18908.00
1350.247, 18925.00
1351.308, 18966.00
1352.368, 18923.00
1353.428, 18907.00
1354.489, 18947.00
1355.549, 19028.00
1356.608, 18917.00
1357.668, 18948.00
1358.727, 18827.00
1359.787, 18968.00
1360.846, 19020.00
1361.905, 18850.00
1362.964, 18906.00
1364.022, 19062.00
1365.081, 18900.00
1366.139, 18929.00
1367.197, 18872.00
1368.255, 19063.00
1369.313, 18943.00
1370.371, 19039.00
1371.428, 18972.00
1372.486, 18905.00
1373.543, 19079.00
1374.600, 19162.00
1375.657, 18999.00
1376.713, 19035.00
1377.770, 19106.00
1378.826, 19105.00
1379.882, 18935.00
1380.938, 19232.00
1381.994, 19016.00
1383.050, 19031.00
1384.106, 19328.00
1385.161, 19135.00
1386.216, 19125.00
1387.271, 19154.00
1388.326, 19060.00
1389.381, 19028.00
1390.435, 18963.00
1391.490, 19002.83
1392.544, 19223.00
1393.598, 19115.00
1394.652, 19214.00
1395.705, 19268.00
1396.759, 19008.00
1397.812, 19328.00
1398.866, 19391.00
1399.919, 19108.00
1400.972, 19226.00
1402.024, 19201.00
1403.077, 19189.00
1404.129, 19279.00
1405.181, 19157.00
1406.233, 19194.00
1407.285, 19260.00
1408.337, 19367.00
1409.389, 19240.00
1410.440, 19128.00
1411.491, 19255.00
1412.542, 19289.00
1413.593, 19139.00
1414.644, 19146.00
1415.695, 19184.00
1416.745, 19231.00
1417.795, 19319.00
1418.845, 19370.00
1419.895, 19329.00
1420.945, 19285.00
1421.995, 19364.00
1423.044, 19416.00
1424.093, 19375.00
1425.142, 19419.00
1426.191, 19403.00
1427.240, 19406.17
1428.289, 19433.00
1429.337, 19415.00
1430.385, 19400.00
1431.433, 19404.00
1432.481, 19298.00
1433.529, 19317.00
1434.577, 19545.00
1435.624, 19438.00
1436.672, 19449.00
1437.719, 19251.00
1438.766, 19500.00
1439.812, 19395.00
1440.859, 19467.00
1441.905, 19353.00
1442.952, 19420.00
1443.998, 19276.00
1445.044, 19290.00
1446.090, 19378.00
1447.135, 19625.00
1448.181, 19500.00
1449.226, 19578.00
1450.271, 19548.00
1451.316, 19573.00
1452.361, 19691.00
1453.405, 19696.00
1454.450, 19736.00
1455.494, 19701.00
1456.538, 19666.00
1457.582, 19582.00
1458.626, 19617.00
1459.670, 19607.00
1460.713, 19606.00
1461.757, 19650.00
1462.800, 19739.00
1463.843, 19717.00
1464.886, 19698.00
1465.928, 19580.00
1466.971, 19479.00
1468.013, 19733.00
1469.055, 19575.00
1470.097, 19689.00
1471.139, 19561.00
1472.181, 19529.00
1473.222, 19617.00
1474.263, 19665.00
1475.305, 19569.00
1476.346, 19723.00
1477.386, 19782.00
1478.427, 19746.00
1479.468, 19679.00
1480.508, 19582.00
1481.548, 19714.00
1482.588, 19674.00
1483.628, 19589.00
1484.668, 19725.00
1485.707, 19790.00
1486.747, 19650.00
1487.786, 19709.00
1488.825, 19839.00
1489.864, 19618.00
1490.902, 19820.00
1491.941, 19599.00
1492.979, 19763.00
1494.017, 19775.00
1495.055, 19734.00
1496.093, 19790.00
1497.131, 19750.00
1498.168, 19891.00
1499.206, 19727.00
1500.243, 19714.00
1501.280, 19819.00
1502.317, 19777.00
1503.354, 19760.00
1504.390, 19733.00
1505.426, 19760.00
1506.463, 19682.00
1507.499, 19969.00
1508.535, 19941.00
1509.570, 19954.00
1510.606, 19855.00
1511.641, 19783.00
1512.676, 19897.00
1513.711, 19843.00
1514.746, 19912.00
1515.781, 20139.00
1516.816, 19871.00
1517.850, 19963.00
1518.884, 19835.00
1519.918, 19965.00
1520.952, 19876.00
1521.986, 20108.00
1523.019, 20050.00
1524.053, 19990.00
1525.086, 19965.00
1526.119, 19962.67
1527.152, 19858.00
1528.185, 20012.00
1529.217, 19989.00
1530.250, 20042.00
1531.282, 19958.00
1532.314, 19936.00
1533.346, 20191.00
1534.377, 20094.00
1535.409, 19972.00
1536.440, 19885.00
1537.472, 20108.00
1538.503, 20113.00
1539.534, 20017.00
1540.564, 20179.00
1541.595, 20122.00
1542.625, 20120.00
1543.656, 20114.00
1544.686, 20147.00
1545.716, 20221.00
1546.745, 20187.00
1547.775, 20138.00
1548.804, 20231.00
1549.834, 20101.00
1550.863, 20034.00
1551.892, 20118.00
1552.920, 20097.00
1553.949, 20270.00
1554.977, 20236.00
1556.006, 20232.00
1557.034, 20195.00
1558.062, 20204.00
1559.089, 20219.00
1560.117, 20186.00
1561.144, 20240.00
1562.172, 20143.00
1563.199, 20273.00
1564.226, 20354.00
1565.252, 20180.00
1566.279, 20204.00
1567.305, 20160.00
1568.332, 20276.00
1569.358, 20103.00
1570.384, 20265.00
1571.409, 20324.00
1572.435, 20311.00
##END=



