##NAMES=Diaspore
##RRUFFID=R060546
##IDEAL CHEMISTRY=AlO(OH)
##LOCALITY=Turkey
##OWNER=RRUFF
##SOURCE=Gemological Institute of America
##DESCRIPTION=Platy transparent pale yellow fragment
##STATUS=The identification of this mineral has been confirmed by X-ray diffraction and chemical analysis
##URL=rruff.info/R060546
##MEASURED CHEMISTRY=(Al_0.99_Fe^3+^_0.01_)_Î£=1_O(OH) ; OH estimated by difference; Fe^3+^ by charge balance
##PIN_ID=L01635
##ORIENTATION=Laser parallel to c* (0 0 1). Fiducial mark perpendicular to laser is parallel to a [1 0 0]
132.8980, 5043.000
134.1270, 5144.000
135.3560, 5007.000
136.5850, 5115.000
137.8140, 5185.000
139.0430, 5259.000
140.2710, 5394.000
141.5000, 5532.000
142.7280, 5794.000
143.9560, 6272.000
145.1840, 6923.000
146.4120, 7654.000
147.6390, 8116.000
148.8670, 8337.000
150.0940, 9254.000
151.3210, 11068.00
152.5490, 13359.00
153.7750, 15237.00
155.0020, 15536.00
156.2290, 15697.54
157.4550, 14131.00
158.6810, 13600.00
159.9080, 11409.00
161.1340, 9080.000
162.3590, 7070.000
163.5850, 6141.000
164.8110, 5697.000
166.0360, 5417.000
167.2610, 5413.000
168.4860, 5229.000
169.7110, 5193.000
170.9360, 5202.000
172.1610, 5165.000
173.3850, 5217.000
174.6100, 5194.000
175.8340, 5080.000
177.0580, 5162.000
178.2820, 5066.000
179.5050, 5197.000
180.7290, 5149.000
181.9520, 5215.000
183.1760, 5255.000
184.3990, 5197.000
185.6220, 5146.000
186.8450, 5166.000
188.0670, 5178.000
189.2900, 5155.000
190.5120, 5139.000
191.7340, 5157.000
192.9560, 5228.000
194.1780, 5232.000
195.4000, 5206.000
196.6220, 5157.000
197.8430, 5196.000
199.0640, 5240.000
200.2860, 5244.000
201.5070, 5247.000
202.7270, 5218.000
203.9480, 5240.000
205.1690, 5257.000
206.3890, 5283.000
207.6090, 5241.000
208.8290, 5244.000
210.0490, 5273.000
211.2690, 5259.000
212.4890, 5277.376
213.7080, 5313.000
214.9280, 5300.000
216.1470, 5288.000
217.3660, 5304.000
218.5850, 5233.000
219.8030, 5284.000
221.0220, 5348.000
222.2400, 5338.000
223.4590, 5242.000
224.6770, 5349.000
225.8950, 5313.000
227.1120, 5387.000
228.3300, 5377.000
229.5480, 5281.000
230.7650, 5384.000
231.9820, 5392.000
233.1990, 5362.000
234.4160, 5304.000
235.6330, 5327.195
236.8490, 5311.333
238.0660, 5353.000
239.2820, 5341.000
240.4980, 5378.000
241.7140, 5415.000
242.9300, 5397.000
244.1460, 5536.000
245.3610, 5560.000
246.5770, 5517.000
247.7920, 5471.000
249.0070, 5438.000
250.2220, 5400.000
251.4370, 5459.000
252.6510, 5500.000
253.8660, 5548.000
255.0800, 5440.000
256.2940, 5468.000
257.5080, 5573.000
258.7220, 5467.000
259.9360, 5603.000
261.1490, 5659.000
262.3630, 5588.000
263.5760, 5501.000
264.7890, 5495.000
266.0020, 5625.000
267.2150, 5586.000
268.4270, 5543.000
269.6400, 5503.000
270.8520, 5532.000
272.0640, 5621.000
273.2760, 5558.000
274.4880, 5587.000
275.7000, 5550.000
276.9120, 5645.000
278.1230, 5693.000
279.3340, 5709.000
280.5450, 5822.000
281.7560, 5818.000
282.9670, 5838.000
284.1780, 5952.000
285.3880, 6095.000
286.5980, 6328.000
287.8090, 6320.000
289.0190, 6549.000
290.2290, 6400.000
291.4380, 6314.000
292.6480, 6102.000
293.8570, 5996.000
295.0670, 5827.000
296.2760, 5772.000
297.4850, 5646.000
298.6930, 5533.000
299.9020, 5668.000
301.1110, 5646.000
302.3190, 5583.000
303.5270, 5605.000
304.7350, 5694.000
305.9430, 5703.000
307.1510, 5707.762
308.3580, 5661.000
309.5660, 5705.000
310.7730, 5584.000
311.9800, 5624.000
313.1870, 5713.000
314.3940, 5799.000
315.6010, 5685.000
316.8070, 5711.000
318.0130, 5698.000
319.2200, 5689.000
320.4260, 5765.000
321.6310, 5793.000
322.8370, 5912.000
324.0430, 5867.000
325.2480, 5870.000
326.4540, 5978.000
327.6590, 6022.000
328.8640, 6277.000
330.0680, 6361.000
331.2730, 6455.000
332.4780, 6414.000
333.6820, 6418.000
334.8860, 6398.000
336.0900, 6228.000
337.2940, 6108.000
338.4980, 6151.000
339.7010, 5965.000
340.9050, 5958.000
342.1080, 5888.000
343.3110, 5985.000
344.5140, 5972.000
345.7170, 5954.000
346.9200, 5899.000
348.1220, 6018.000
349.3240, 5895.000
350.5270, 5927.000
351.7290, 5852.000
352.9310, 6003.000
354.1320, 6049.000
355.3340, 5973.000
356.5350, 5945.000
357.7370, 5954.000
358.9380, 5970.273
360.1390, 5971.000
361.3400, 6098.000
362.5400, 6108.000
363.7410, 6221.000
364.9410, 6272.458
366.1410, 6282.000
367.3410, 6376.000
368.5410, 6415.000
369.7410, 6448.000
370.9400, 6446.000
372.1400, 6269.000
373.3390, 6205.000
374.5380, 6243.000
375.7370, 6120.000
376.9360, 6160.000
378.1350, 6082.000
379.3330, 6072.000
380.5310, 6098.000
381.7300, 6130.000
382.9280, 6140.000
384.1260, 6156.650
385.3230, 6167.654
386.5210, 6193.000
387.7180, 6186.000
388.9160, 6244.000
390.1130, 6270.000
391.3100, 6380.000
392.5060, 6496.000
393.7030, 6529.000
394.9000, 6560.694
396.0960, 6643.000
397.2920, 6550.000
398.4880, 6475.000
399.6840, 6474.000
400.8800, 6437.000
402.0750, 6387.000
403.2710, 6287.000
404.4660, 6323.000
405.6610, 6363.000
406.8560, 6318.000
408.0510, 6377.000
409.2450, 6257.000
410.4400, 6293.000
411.6340, 6346.000
412.8280, 6371.000
414.0220, 6408.000
415.2160, 6458.000
416.4100, 6456.000
417.6030, 6476.000
418.7970, 6446.000
419.9900, 6522.000
421.1830, 6556.000
422.3760, 6682.000
423.5690, 6682.000
424.7610, 6734.000
425.9540, 6834.000
427.1460, 6902.000
428.3380, 7047.000
429.5300, 7192.000
430.7220, 7538.000
431.9140, 7557.000
433.1050, 7938.000
434.2970, 8381.000
435.4880, 9065.000
436.6790, 10225.00
437.8700, 12129.00
439.0610, 14979.00
440.2510, 18790.00
441.4420, 22977.00
442.6320, 26399.00
443.8220, 31732.00
445.0120, 40622.00
446.2020, 50197.00
447.3910, 57851.00
448.5810, 58712.00
449.7700, 55855.00
450.9600, 52215.00
452.1490, 44932.00
453.3370, 34630.00
454.5260, 24895.00
455.7150, 17928.00
456.9030, 13667.00
458.0910, 11482.00
459.2800, 10112.00
460.4670, 9281.000
461.6550, 8662.000
462.8430, 8303.000
464.0300, 8099.000
465.2180, 7784.000
466.4050, 7720.000
467.5920, 7608.000
468.7790, 7504.000
469.9650, 7430.000
471.1520, 7381.000
472.3380, 7272.000
473.5250, 7301.000
474.7110, 7168.000
475.8970, 7196.000
477.0820, 7131.000
478.2680, 6990.000
479.4540, 7134.000
480.6390, 7061.000
481.8240, 7062.000
483.0090, 7035.000
484.1940, 7075.000
485.3780, 7063.000
486.5630, 7144.000
487.7470, 7250.000
488.9320, 7278.000
490.1160, 7491.000
491.3000, 7731.000
492.4830, 7836.000
493.6670, 8261.000
494.8500, 8323.000
496.0340, 8642.000
497.2170, 9148.000
498.4000, 9445.000
499.5820, 9337.000
500.7650, 9149.000
501.9480, 8892.000
503.1300, 8400.000
504.3120, 7921.000
505.4940, 7518.000
506.6760, 7254.000
507.8580, 7086.000
509.0390, 6961.000
510.2210, 6952.000
511.4020, 6856.771
512.5830, 6834.965
513.7640, 6794.000
514.9450, 6823.000
516.1250, 6809.000
517.3060, 6849.000
518.4860, 6873.000
519.6660, 6836.000
520.8460, 6939.000
522.0260, 6946.000
523.2060, 6825.000
524.3850, 6889.000
525.5650, 6859.000
526.7440, 6936.000
527.9230, 6904.000
529.1020, 6992.000
530.2810, 6874.000
531.4590, 7003.000
532.6380, 6987.000
533.8160, 7060.000
534.9940, 6906.000
536.1720, 7009.000
537.3500, 6983.000
538.5270, 6972.000
539.7050, 6963.000
540.8820, 6935.000
542.0590, 7000.000
543.2360, 7018.000
544.4130, 6984.000
545.5900, 6926.000
546.7660, 6986.000
547.9430, 7029.000
549.1190, 6994.000
550.2950, 7000.000
551.4710, 7132.000
552.6470, 7170.000
553.8220, 7137.000
554.9980, 7110.000
556.1730, 7186.000
557.3480, 7104.000
558.5230, 7203.000
559.6980, 7202.000
560.8730, 7289.000
562.0470, 7262.000
563.2220, 7329.000
564.3960, 7431.000
565.5700, 7305.000
566.7440, 7350.000
567.9170, 7320.000
569.0910, 7359.000
570.2640, 7372.000
571.4380, 7400.000
572.6110, 7515.000
573.7840, 7456.000
574.9570, 7591.000
576.1290, 7676.000
577.3020, 7608.000
578.4740, 7843.000
579.6460, 8032.000
580.8180, 8178.000
581.9900, 8248.154
583.1620, 8241.000
584.3330, 8258.000
585.5040, 8166.000
586.6760, 8080.000
587.8470, 8063.576
589.0180, 8028.430
590.1880, 8010.000
591.3590, 8029.000
592.5290, 8068.000
593.7000, 8077.000
594.8700, 8226.000
596.0400, 8418.000
597.2090, 8510.000
598.3790, 8856.000
599.5490, 9112.000
600.7180, 9417.000
601.8870, 9787.000
603.0560, 10151.00
604.2250, 10732.00
605.3940, 11155.00
606.5620, 11681.00
607.7300, 12075.00
608.8990, 12398.00
610.0670, 12316.00
611.2350, 12055.00
612.4020, 11851.00
613.5700, 11323.00
614.7370, 10822.00
615.9050, 10374.00
617.0720, 9800.000
618.2390, 9594.000
619.4060, 9271.000
620.5720, 9003.000
621.7390, 8992.000
622.9050, 8861.000
624.0710, 8830.000
625.2370, 8766.000
626.4030, 8803.000
627.5690, 8603.000
628.7340, 8495.000
629.9000, 8446.000
631.0650, 8488.000
632.2300, 8397.000
633.3950, 8412.000
634.5600, 8210.000
635.7240, 8175.000
636.8890, 8220.000
638.0530, 8195.000
639.2170, 8303.000
640.3810, 8333.000
641.5450, 8441.000
642.7080, 8510.000
643.8720, 8628.000
645.0350, 8676.000
646.1980, 8734.000
647.3610, 8847.000
648.5240, 8980.000
649.6870, 9148.000
650.8490, 9256.000
652.0120, 9483.000
653.1740, 9689.000
654.3360, 10010.60
655.4980, 10371.00
656.6600, 10816.00
657.8210, 11358.00
658.9830, 11935.00
660.1440, 12636.00
661.3050, 13345.00
662.4660, 14219.00
663.6270, 14745.00
664.7870, 15412.00
665.9480, 15722.00
667.1080, 15773.00
668.2680, 15460.00
669.4280, 14866.00
670.5880, 14377.00
671.7480, 13329.00
672.9070, 12733.00
674.0670, 11739.00
675.2260, 11265.00
676.3850, 10544.00
677.5440, 10095.00
678.7030, 9831.000
679.8610, 9438.000
681.0200, 9231.000
682.1780, 8976.000
683.3360, 8901.000
684.4940, 8732.000
685.6520, 8530.000
686.8090, 8567.000
687.9670, 8319.000
689.1240, 8267.000
690.2810, 8281.000
691.4380, 8256.000
692.5950, 8264.000
693.7520, 8205.000
694.9080, 8197.000
696.0650, 8156.000
697.2210, 8149.000
698.3770, 8127.000
699.5330, 8089.000
700.6880, 8007.000
701.8440, 8136.000
702.9990, 8062.000
704.1550, 8090.000
705.3100, 8218.000
706.4650, 8155.000
707.6190, 8147.000
708.7740, 8181.000
709.9290, 8143.000
711.0830, 8153.928
712.2370, 8129.000
713.3910, 8107.000
714.5450, 8080.000
715.6980, 8097.079
716.8520, 8060.000
718.0050, 8135.000
719.1580, 8102.000
720.3110, 8107.000
721.4640, 8134.000
722.6170, 8030.000
723.7700, 8187.000
724.9220, 8097.000
726.0740, 8190.000
727.2260, 8147.000
728.3780, 8173.000
729.5300, 8103.000
730.6810, 8235.000
731.8330, 8303.000
732.9840, 8229.000
734.1350, 8251.000
735.2860, 8302.000
736.4370, 8259.000
737.5880, 8378.000
738.7380, 8282.000
739.8880, 8264.000
741.0390, 8263.000
742.1890, 8297.000
743.3380, 8326.000
744.4880, 8306.000
745.6380, 8349.000
746.7870, 8271.000
747.9360, 8308.000
749.0850, 8271.000
750.2340, 8256.000
751.3830, 8285.000
752.5310, 8432.000
753.6800, 8399.000
754.8280, 8414.000
755.9760, 8466.000
757.1240, 8439.000
758.2720, 8427.000
759.4190, 8456.000
760.5670, 8514.000
761.7140, 8446.000
762.8610, 8385.000
764.0080, 8592.000
765.1550, 8545.000
766.3020, 8522.000
767.4480, 8642.000
768.5950, 8652.986
769.7410, 8792.000
770.8870, 8806.000
772.0330, 8944.000
773.1780, 9027.000
774.3240, 9050.000
775.4690, 9237.000
776.6140, 9217.000
777.7590, 9476.000
778.9040, 9596.000
780.0490, 9733.000
781.1940, 10125.00
782.3380, 10317.00
783.4820, 10402.00
784.6260, 10954.00
785.7700, 11238.00
786.9140, 11605.00
788.0580, 12127.00
789.2010, 12488.00
790.3450, 12816.00
791.4880, 13050.00
792.6310, 13321.00
793.7730, 13120.00
794.9160, 12961.00
796.0590, 12629.00
797.2010, 12135.00
798.3430, 11751.00
799.4850, 11485.00
800.6270, 10847.00
801.7690, 10686.00
802.9100, 10148.00
804.0520, 9960.000
805.1930, 9750.000
806.3340, 9591.000
807.4750, 9324.000
808.6160, 9240.000
809.7560, 9109.000
810.8970, 9131.000
812.0370, 8928.000
813.1770, 8718.000
814.3170, 8735.000
815.4570, 8799.000
816.5960, 8803.000
817.7360, 8705.000
818.8750, 8662.000
820.0140, 8758.000
821.1530, 8565.000
822.2920, 8558.000
823.4310, 8646.000
824.5690, 8654.000
825.7070, 8626.000
826.8460, 8572.000
827.9840, 8608.000
829.1220, 8533.000
830.2590, 8516.000
831.3970, 8468.000
832.5340, 8535.000
833.6710, 8481.000
834.8080, 8486.000
835.9450, 8593.000
837.0820, 8462.000
838.2190, 8591.000
839.3550, 8722.000
840.4910, 8589.000
841.6270, 8402.000
842.7630, 8657.000
843.8990, 8400.000
845.0350, 8493.000
846.1700, 8475.000
847.3060, 8572.000
848.4410, 8597.000
849.5760, 8592.000
850.7100, 8644.000
851.8450, 8528.000
852.9800, 8648.000
854.1140, 8469.000
855.2480, 8645.000
856.3820, 8533.000
857.5160, 8733.000
858.6500, 8623.000
859.7830, 8635.000
860.9170, 8730.000
862.0500, 8805.000
863.1830, 8657.000
864.3160, 8630.000
865.4480, 8722.000
866.5810, 8716.000
867.7130, 8670.000
868.8460, 8686.000
869.9780, 8641.000
871.1100, 8578.000
872.2410, 8623.000
873.3730, 8609.000
874.5050, 8611.000
875.6360, 8685.000
876.7670, 8568.000
877.8980, 8537.000
879.0290, 8528.000
880.1590, 8553.000
881.2900, 8667.000
882.4200, 8528.000
883.5500, 8637.000
884.6800, 8527.000
885.8100, 8597.000
886.9400, 8571.000
888.0690, 8702.000
889.1990, 8612.000
890.3280, 8678.000
891.4570, 8570.000
892.5860, 8601.000
893.7140, 8685.000
894.8430, 8557.000
895.9710, 8693.000
897.1000, 8631.000
898.2280, 8599.000
899.3560, 8579.000
900.4830, 8512.000
901.6110, 8706.000
902.7380, 8715.000
903.8660, 8720.000
904.9930, 8680.000
906.1200, 8589.000
907.2460, 8815.000
908.3730, 8671.000
909.5000, 8797.000
910.6260, 8758.000
911.7520, 8743.000
912.8780, 8714.000
914.0040, 8749.000
915.1290, 8641.000
916.2550, 8590.000
917.3800, 8675.000
918.5050, 8709.000
919.6300, 8738.000
920.7550, 8705.000
921.8800, 8764.000
923.0040, 8780.000
924.1290, 8637.000
925.2530, 8877.000
926.3770, 8773.000
927.5010, 8829.000
928.6250, 8726.000
929.7480, 8694.000
930.8720, 8727.000
931.9950, 8803.000
933.1180, 8755.000
934.2410, 8712.000
935.3640, 8864.000
936.4860, 8703.000
937.6090, 8829.000
938.7310, 8624.000
939.8530, 8886.000
940.9750, 8628.000
942.0970, 8775.000
943.2180, 8931.000
944.3400, 8753.000
945.4610, 8821.000
946.5820, 8609.000
947.7030, 8765.000
948.8240, 8796.000
949.9450, 8865.000
951.0650, 8768.000
952.1860, 8784.000
953.3060, 8757.000
954.4260, 8809.000
955.5460, 8803.736
956.6650, 8831.000
957.7850, 8845.000
958.9040, 8882.000
960.0230, 8940.000
961.1420, 8959.000
962.2610, 8871.000
963.3800, 8878.000
964.4990, 8936.000
965.6170, 9002.000
966.7350, 8841.000
967.8530, 8889.000
968.9710, 8894.000
970.0890, 8903.000
971.2070, 8856.000
972.3240, 8983.000
973.4410, 8879.000
974.5580, 8961.000
975.6750, 9044.000
976.7920, 8829.000
977.9090, 8904.000
979.0250, 8967.000
980.1410, 8963.000
981.2580, 9014.891
982.3740, 9009.000
983.4890, 9033.000
984.6050, 9032.000
985.7200, 8985.000
986.8360, 9073.000
987.9510, 9034.000
989.0660, 9133.000
990.1810, 9181.000
991.2950, 9146.000
992.4100, 9092.000
993.5240, 9124.000
994.6390, 9069.000
995.7530, 9107.000
996.8660, 9275.000
997.9800, 9161.000
999.0940, 9344.000
1000.207, 9230.000
1001.320, 9310.000
1002.433, 9408.000
1003.546, 9569.000
1004.659, 9501.000
1005.772, 9607.000
1006.884, 9494.000
1007.996, 9277.000
1009.108, 9204.000
1010.220, 9241.000
1011.332, 9347.000
1012.444, 9254.000
1013.555, 9039.000
1014.666, 9290.000
1015.777, 9253.000
1016.888, 9080.000
1017.999, 9222.000
1019.110, 9277.000
1020.220, 9285.000
1021.331, 9334.000
1022.441, 9313.000
1023.551, 9261.000
1024.661, 9290.811
1025.770, 9281.152
1026.880, 9303.000
1027.989, 9316.000
1029.098, 9343.000
1030.207, 9369.000
1031.316, 9290.000
1032.425, 9306.000
1033.533, 9189.000
1034.642, 9335.000
1035.750, 9282.000
1036.858, 9291.000
1037.966, 9224.000
1039.073, 9271.000
1040.181, 9282.000
1041.288, 9330.000
1042.396, 9289.000
1043.503, 9347.000
1044.610, 9377.000
1045.716, 9335.000
1046.823, 9345.000
1047.929, 9472.000
1049.036, 9360.000
1050.142, 9418.000
1051.248, 9273.000
1052.353, 9342.000
1053.459, 9323.000
1054.564, 9444.000
1055.670, 9332.000
1056.775, 9291.000
1057.880, 9286.000
1058.985, 9236.000
1060.089, 9406.000
1061.194, 9340.000
1062.298, 9414.000
1063.402, 9451.000
1064.506, 9384.000
1065.610, 9353.000
1066.713, 9390.000
1067.817, 9347.000
1068.920, 9417.000
1070.023, 9407.000
1071.126, 9463.000
1072.229, 9478.828
1073.332, 9496.345
1074.435, 9504.000
1075.537, 9553.000
1076.639, 9550.000
1077.741, 9613.000
1078.843, 9520.000
1079.945, 9521.000
1081.046, 9540.000
1082.148, 9621.000
1083.249, 9602.000
1084.350, 9718.000
1085.451, 9638.000
1086.551, 9679.875
1087.652, 9611.000
1088.752, 9655.000
1089.853, 9636.000
1090.953, 9547.000
1092.053, 9601.000
1093.152, 9550.000
1094.252, 9498.000
1095.351, 9585.000
1096.451, 9512.000
1097.550, 9602.000
1098.649, 9613.000
1099.748, 9551.000
1100.846, 9611.000
1101.945, 9513.000
1103.043, 9546.000
1104.141, 9576.000
1105.239, 9522.000
1106.337, 9585.000
1107.434, 9589.000
1108.532, 9537.000
1109.629, 9766.000
1110.726, 9663.000
1111.823, 9645.000
1112.920, 9587.000
1114.017, 9731.000
1115.113, 9704.000
1116.210, 9776.000
1117.306, 9877.000
1118.402, 9969.828
1119.498, 9971.000
1120.593, 10205.00
1121.689, 10348.00
1122.784, 10373.33
1123.879, 10288.00
1124.974, 10256.00
1126.069, 10147.00
1127.164, 10000.00
1128.259, 9881.000
1129.353, 9757.000
1130.447, 9807.000
1131.541, 9811.000
1132.635, 9856.000
1133.729, 9759.000
1134.822, 9794.000
1135.916, 9851.000
1137.009, 9694.000
1138.102, 9821.000
1139.195, 9696.000
1140.288, 9764.000
1141.380, 9862.000
1142.473, 9756.000
1143.565, 9705.000
1144.657, 9810.000
1145.749, 9791.000
1146.841, 9773.000
1147.932, 9814.000
1149.024, 9774.809
1150.115, 9757.000
1151.206, 9731.000
1152.297, 9810.000
1153.388, 9787.000
1154.479, 9954.000
1155.569, 9859.000
1156.659, 9988.000
1157.750, 9914.000
1158.839, 9935.000
1159.929, 9970.000
1161.019, 10145.00
1162.108, 10041.00
1163.198, 10191.00
1164.287, 10150.00
1165.376, 10152.00
1166.465, 10239.00
1167.553, 10213.00
1168.642, 10226.00
1169.730, 10383.00
1170.818, 10315.00
1171.906, 10389.00
1172.994, 10427.00
1174.082, 10522.00
1175.170, 10689.00
1176.257, 10755.00
1177.344, 10936.00
1178.431, 11077.00
1179.518, 11292.00
1180.605, 11435.00
1181.691, 11814.00
1182.778, 12226.00
1183.864, 12846.00
1184.950, 13548.00
1186.036, 14482.00
1187.122, 15457.00
1188.207, 16676.00
1189.292, 17948.00
1190.378, 19093.00
1191.463, 20542.00
1192.548, 21191.00
1193.632, 22161.00
1194.717, 22544.00
1195.801, 21969.00
1196.886, 20745.00
1197.970, 19019.00
1199.054, 17227.00
1200.137, 15678.00
1201.221, 14481.00
1202.305, 13515.00
1203.388, 12550.00
1204.471, 12278.00
1205.554, 11921.00
1206.637, 11415.00
1207.719, 11263.00
1208.802, 10921.00
1209.884, 10842.00
1210.966, 10613.00
1212.048, 10663.00
1213.130, 10524.00
1214.212, 10506.00
1215.293, 10397.00
1216.374, 10337.00
1217.456, 10412.00
1218.536, 10245.00
1219.617, 10325.00
1220.698, 10306.00
1221.778, 10232.00
1222.859, 10265.00
1223.939, 10187.00
1225.019, 10117.00
1226.099, 10182.00
1227.178, 10125.00
1228.258, 10067.00
1229.337, 10085.00
1230.417, 10184.00
1231.496, 10127.00
1232.574, 10136.00
1233.653, 10166.00
1234.732, 10130.00
1235.810, 10165.00
1236.888, 10146.00
1237.966, 10196.00
1239.044, 10219.00
1240.122, 10221.00
1241.199, 10300.00
1242.277, 10165.00
1243.354, 10170.00
1244.431, 10054.00
1245.508, 10205.00
1246.585, 10092.00
1247.661, 10217.00
1248.738, 10208.00
1249.814, 10143.00
1250.890, 10230.00
1251.966, 10179.00
1253.042, 10252.00
1254.117, 10203.00
1255.193, 10075.00
1256.268, 10205.00
1257.343, 10106.00
1258.418, 10240.00
1259.493, 10154.00
1260.567, 10114.00
1261.642, 10127.00
1262.716, 10238.00
1263.790, 10044.00
1264.864, 10231.00
1265.938, 10270.00
1267.011, 10293.00
1268.085, 10084.00
1269.158, 10353.00
1270.231, 10258.00
1271.304, 10264.00
1272.377, 10339.29
1273.450, 10383.00
1274.522, 10358.00
1275.594, 10321.00
1276.666, 10311.00
1277.738, 10284.00
1278.810, 10243.00
1279.882, 10181.00
1280.953, 10339.00
1282.025, 10366.00
1283.096, 10119.00
1284.167, 10250.00
1285.238, 10128.00
1286.308, 10279.00
1287.379, 10266.00
1288.449, 10215.00
1289.519, 10251.00
1290.589, 10136.00
1291.659, 10263.00
1292.729, 10335.00
1293.798, 10290.00
1294.868, 10325.00
1295.937, 10382.00
1297.006, 10458.00
1298.075, 10278.00
1299.143, 10265.00
1300.212, 10212.00
1301.280, 10216.00
1302.348, 10307.00
1303.416, 10355.00
1304.484, 10334.00
1305.552, 10526.00
1306.620, 10410.00
1307.687, 10455.00
1308.754, 10313.00
1309.821, 10419.00
1310.888, 10469.00
1311.955, 10635.00
1313.021, 10408.00
1314.088, 10426.00
1315.154, 10486.00
1316.220, 10428.00
1317.286, 10550.00
1318.352, 10525.29
1319.417, 10377.00
1320.483, 10535.00
1321.548, 10452.00
1322.613, 10441.00
1323.678, 10561.00
1324.743, 10493.00
1325.807, 10499.00
1326.872, 10521.00
1327.936, 10461.11
1329.000, 10393.00
1330.064, 10380.00
1331.128, 10367.00
1332.191, 10316.00
1333.255, 10412.00
1334.318, 10410.00
1335.381, 10444.00
1336.444, 10317.00
1337.507, 10292.00
1338.569, 10321.00
1339.632, 10331.00
1340.694, 10277.00
1341.756, 10405.00
1342.818, 10333.00
1343.880, 10407.00
1344.941, 10392.00
1346.003, 10362.00
1347.064, 10443.00
1348.125, 10407.00
1349.186, 10334.00
1350.247, 10385.00
1351.308, 10415.00
1352.368, 10465.00
1353.428, 10338.00
1354.489, 10384.00
1355.549, 10462.00
1356.608, 10347.00
1357.668, 10204.00
1358.727, 10426.00
1359.787, 10479.00
1360.846, 10380.00
1361.905, 10265.00
1362.964, 10403.00
1364.022, 10292.28
1365.081, 10428.60
1366.139, 10507.91
1367.197, 10533.29
1368.255, 10343.19
1369.313, 10431.34
1370.371, 10407.97
1371.428, 10380.03
1372.486, 10507.34
1373.543, 10348.58
1374.600, 10473.42
1375.657, 10485.05
1376.713, 10548.49
1377.770, 10499.73
1378.826, 10485.63
1379.882, 10583.76
1380.938, 10619.74
1381.994, 10498.26
1383.050, 10480.00
1384.106, 10469.00
1385.161, 10554.00
1386.216, 10469.00
1387.271, 10451.00
1388.326, 10657.00
1389.381, 10493.00
1390.435, 10594.00
1391.490, 10455.00
1392.544, 10455.00
1393.598, 10554.00
1394.652, 10598.00
1395.705, 10579.00
1396.759, 10569.01
1397.812, 10639.00
1398.866, 10534.00
1399.919, 10465.00
1400.972, 10622.00
1402.024, 10440.00
1403.077, 10516.00
1404.129, 10573.00
1405.181, 10578.00
1406.233, 10593.87
1407.285, 10647.00
1408.337, 10513.00
1409.389, 10590.00
1410.440, 10448.00
1411.491, 10572.00
1412.542, 10462.00
1413.593, 10571.00
1414.644, 10503.00
1415.695, 10587.00
1416.745, 10601.00
1417.795, 10582.44
1418.845, 10557.00
1419.895, 10588.00
1420.945, 10549.00
1421.995, 10590.00
1423.044, 10499.00
1424.093, 10587.00
1425.142, 10682.00
1426.191, 10566.00
1427.240, 10731.00
1428.289, 10656.00
1429.337, 10787.00
1430.385, 10792.00
1431.433, 10714.00
1432.481, 10684.00
1433.529, 10696.00
1434.577, 10728.00
1435.624, 10772.00
1436.672, 10841.00
1437.719, 10869.00
1438.766, 10959.00
1439.812, 10981.00
1440.859, 10833.00
1441.905, 10998.00
1442.952, 11103.00
1443.998, 10999.00
1445.044, 11158.00
1446.090, 11120.00
1447.135, 11246.00
1448.181, 11087.00
1449.226, 11188.00
1450.271, 11142.00
1451.316, 11250.00
1452.361, 11302.00
1453.405, 11270.00
1454.450, 11161.00
1455.494, 11072.00
1456.538, 11242.00
1457.582, 11157.00
1458.626, 11312.00
1459.670, 11165.00
1460.713, 11172.00
1461.757, 11237.00
1462.800, 11199.00
1463.843, 11266.00
1464.886, 11048.00
1465.928, 11157.00
1466.971, 11089.00
1468.013, 11118.00
1469.055, 11047.00
1470.097, 11026.00
1471.139, 11025.00
1472.181, 11098.00
1473.222, 11057.00
1474.263, 11053.43
1475.305, 11045.00
1476.346, 11013.00
1477.386, 10995.00
1478.427, 11021.11
1479.468, 10954.00
1480.508, 10951.00
1481.548, 10973.00
1482.588, 10880.00
1483.628, 10935.46
1484.668, 10925.00
1485.707, 10940.00
1486.747, 10955.00
1487.786, 10947.46
1488.825, 10878.00
1489.864, 10917.00
1490.902, 10907.00
1491.941, 10834.00
1492.979, 10835.00
1494.017, 10877.00
1495.055, 10872.00
1496.093, 10862.98
1497.131, 10954.00
1498.168, 10851.00
1499.206, 10872.00
1500.243, 10926.00
1501.280, 11020.00
1502.317, 10968.34
1503.354, 10953.00
1504.390, 10889.00
1505.426, 10833.00
1506.463, 10790.00
1507.499, 10820.00
1508.535, 10799.00
1509.570, 11019.00
1510.606, 10971.00
1511.641, 10957.00
1512.676, 10911.00
1513.711, 10899.00
1514.746, 10840.00
1515.781, 10857.00
1516.816, 10885.00
1517.850, 11076.00
1518.884, 10804.00
1519.918, 10890.00
1520.952, 11067.00
1521.986, 10971.00
1523.019, 10797.00
1524.053, 10875.00
1525.086, 10967.00
1526.119, 10951.00
1527.152, 10920.00
1528.185, 10963.00
1529.217, 10974.00
1530.250, 10935.00
1531.282, 11063.00
1532.314, 11053.00
1533.346, 11049.00
1534.377, 10941.00
1535.409, 11055.00
1536.440, 11018.00
1537.472, 10943.00
1538.503, 11183.00
1539.534, 11097.00
1540.564, 11081.00
1541.595, 11124.00
1542.625, 10933.00
1543.656, 11133.00
1544.686, 11154.00
1545.716, 11057.00
1546.745, 11244.00
1547.775, 11120.00
1548.804, 11076.00
1549.834, 11181.00
1550.863, 11118.00
1551.892, 11068.00
1552.920, 11123.00
1553.949, 11245.00
1554.977, 11110.00
1556.006, 11190.00
1557.034, 11172.00
1558.062, 11186.00
1559.089, 11186.00
1560.117, 11117.00
1561.144, 11159.96
1562.172, 11068.00
1563.199, 11171.00
1564.226, 11187.00
1565.252, 11138.00
1566.279, 11188.14
1567.305, 11302.00
1568.332, 11210.00
1569.358, 11215.00
1570.384, 11267.00
1571.409, 11123.00
1572.435, 11169.00
##END=



