##NAMES=Diaspore
##RRUFFID=R060287
##IDEAL CHEMISTRY=AlO(OH)
##LOCALITY=Selcuk, Mugla Province, Turkey
##OWNER=RRUFF
##SOURCE=Herb Obodda
##DESCRIPTION=Colorless transparent platy fragment
##STATUS=The identification of this mineral has been confirmed by X-ray diffraction and chemical analysis
##URL=rruff.info/R060287
##MEASURED CHEMISTRY=(Al_0.99_Fe^3+^_0.01_)_Î£=1_O(OH) ; trace amounts of Ti;  OH estimated by difference ; Fe^3+^ by charge balance
##PIN_ID=L01646
##ORIENTATION=Laser parallel to -c* (0 0 -1). Fiducial mark perpendicular to laser is parallel to a [1 0 0]
114.4400, 8922.000
115.6710, 9087.000
116.9030, 9193.000
118.1340, 9311.000
119.3650, 9260.000
120.5960, 9484.000
121.8270, 9485.000
123.0580, 9589.000
124.2880, 9753.000
125.5190, 9968.000
126.7490, 9980.000
127.9790, 10235.00
129.2090, 10625.00
130.4390, 10920.00
131.6680, 11517.00
132.8980, 12110.00
134.1270, 12727.00
135.3560, 13812.00
136.5850, 15322.00
137.8140, 17265.00
139.0430, 19381.00
140.2710, 21466.00
141.5000, 23103.00
142.7280, 23143.00
143.9560, 22354.00
145.1840, 20967.00
146.4120, 19602.00
147.6390, 18265.00
148.8670, 17153.00
150.0940, 17315.00
151.3210, 18012.00
152.5490, 18483.00
153.7750, 18445.00
155.0020, 17892.00
156.2290, 17071.00
157.4550, 16247.00
158.6810, 14972.00
159.9080, 13464.00
161.1340, 12254.00
162.3590, 11314.00
163.5850, 10787.00
164.8110, 10549.00
166.0360, 10406.00
167.2610, 10323.00
168.4860, 10264.00
169.7110, 10298.00
170.9360, 10311.00
172.1610, 10163.00
173.3850, 10081.00
174.6100, 10189.00
175.8340, 10218.00
177.0580, 10136.00
178.2820, 10177.00
179.5050, 10121.00
180.7290, 10127.00
181.9520, 10163.00
183.1760, 10157.00
184.3990, 10273.00
185.6220, 10128.00
186.8450, 10157.00
188.0670, 10262.00
189.2900, 10257.00
190.5120, 10247.00
191.7340, 10386.00
192.9560, 10287.00
194.1780, 10555.00
195.4000, 10594.00
196.6220, 10499.00
197.8430, 10479.00
199.0640, 10458.00
200.2860, 10389.00
201.5070, 10491.00
202.7270, 10543.00
203.9480, 10442.00
205.1690, 10410.00
206.3890, 10315.00
207.6090, 10383.00
208.8290, 10230.00
210.0490, 10436.00
211.2690, 10359.00
212.4890, 10503.00
213.7080, 10521.00
214.9280, 10502.00
216.1470, 10392.00
217.3660, 10480.00
218.5850, 10398.00
219.8030, 10459.00
221.0220, 10590.00
222.2400, 10519.00
223.4590, 10504.00
224.6770, 10411.00
225.8950, 10570.00
227.1120, 10588.00
228.3300, 10539.00
229.5480, 10629.00
230.7650, 10570.00
231.9820, 10700.00
233.1990, 10532.00
234.4160, 10701.00
235.6330, 10702.00
236.8490, 10713.00
238.0660, 10825.00
239.2820, 10691.00
240.4980, 10814.00
241.7140, 10714.00
242.9300, 10740.00
244.1460, 10859.00
245.3610, 10827.00
246.5770, 10769.00
247.7920, 10813.00
249.0070, 10826.00
250.2220, 10888.00
251.4370, 10848.00
252.6510, 10885.00
253.8660, 10933.00
255.0800, 10979.00
256.2940, 11026.51
257.5080, 11104.00
258.7220, 11136.00
259.9360, 11135.20
261.1490, 11204.33
262.3630, 11177.00
263.5760, 11149.00
264.7890, 11233.00
266.0020, 11088.00
267.2150, 11293.00
268.4270, 11264.00
269.6400, 11315.00
270.8520, 11240.00
272.0640, 11368.00
273.2760, 11469.00
274.4880, 11671.00
275.7000, 11871.87
276.9120, 12076.65
278.1230, 12371.00
279.3340, 12620.00
280.5450, 12903.00
281.7560, 13321.00
282.9670, 13452.00
284.1780, 14032.00
285.3880, 14472.00
286.5980, 15007.00
287.8090, 14988.00
289.0190, 14866.00
290.2290, 14329.00
291.4380, 13996.00
292.6480, 13333.00
293.8570, 12956.00
295.0670, 12465.00
296.2760, 12165.00
297.4850, 11985.00
298.6930, 11874.00
299.9020, 11814.00
301.1110, 11771.00
302.3190, 11805.00
303.5270, 11703.00
304.7350, 11860.00
305.9430, 11708.00
307.1510, 11714.00
308.3580, 11923.00
309.5660, 11951.00
310.7730, 11929.00
311.9800, 12003.00
313.1870, 11950.00
314.3940, 12001.00
315.6010, 12139.00
316.8070, 12427.00
318.0130, 12481.00
319.2200, 12709.00
320.4260, 13509.00
321.6310, 14150.00
322.8370, 15098.00
324.0430, 15723.00
325.2480, 16310.00
326.4540, 17104.00
327.6590, 17968.00
328.8640, 19156.00
330.0680, 19558.00
331.2730, 19669.00
332.4780, 19347.00
333.6820, 18485.00
334.8860, 17395.00
336.0900, 16136.00
337.2940, 14851.00
338.4980, 13921.00
339.7010, 13295.00
340.9050, 13015.00
342.1080, 12673.00
343.3110, 12658.00
344.5140, 12444.00
345.7170, 12378.00
346.9200, 12379.00
348.1220, 12270.00
349.3240, 12359.00
350.5270, 12443.00
351.7290, 12418.00
352.9310, 12341.00
354.1320, 12232.00
355.3340, 12428.00
356.5350, 12502.00
357.7370, 12510.00
358.9380, 12362.00
360.1390, 12394.00
361.3400, 12603.00
362.5400, 12534.00
363.7410, 12614.00
364.9410, 12732.00
366.1410, 12593.00
367.3410, 12779.00
368.5410, 12779.00
369.7410, 12860.00
370.9400, 12746.00
372.1400, 12757.00
373.3390, 12881.00
374.5380, 12721.00
375.7370, 12798.00
376.9360, 12874.00
378.1350, 12976.00
379.3330, 13029.00
380.5310, 12934.00
381.7300, 12946.00
382.9280, 13123.00
384.1260, 13203.00
385.3230, 13350.00
386.5210, 13621.00
387.7180, 13762.00
388.9160, 13784.00
390.1130, 14192.00
391.3100, 14350.00
392.5060, 14700.00
393.7030, 14668.00
394.9000, 15001.00
396.0960, 14772.00
397.2920, 14571.00
398.4880, 14449.00
399.6840, 13995.00
400.8800, 13866.00
402.0750, 13635.00
403.2710, 13575.00
404.4660, 13490.00
405.6610, 13421.00
406.8560, 13346.00
408.0510, 13451.00
409.2450, 13207.00
410.4400, 13374.00
411.6340, 13319.00
412.8280, 13330.00
414.0220, 13302.00
415.2160, 13346.44
416.4100, 13388.98
417.6030, 13447.00
418.7970, 13542.00
419.9900, 13570.00
421.1830, 13691.44
422.3760, 13594.00
423.5690, 13771.00
424.7610, 13871.00
425.9540, 13765.00
427.1460, 13921.00
428.3380, 14176.00
429.5300, 14304.00
430.7220, 14573.00
431.9140, 14875.00
433.1050, 15428.00
434.2970, 16185.00
435.4880, 17159.00
436.6790, 19300.00
437.8700, 22389.00
439.0610, 27205.00
440.2510, 32760.00
441.4420, 36802.00
442.6320, 40137.00
443.8220, 45830.00
445.0120, 53091.00
446.2020, 58486.00
447.3910, 60244.00
448.5810, 58921.00
449.7700, 54726.00
450.9600, 48398.00
452.1490, 40511.00
453.3370, 32696.00
454.5260, 26089.00
455.7150, 21408.00
456.9030, 18833.00
458.0910, 17206.00
459.2800, 16245.00
460.4670, 15691.00
461.6550, 15310.00
462.8430, 15009.00
464.0300, 15001.00
465.2180, 14703.00
466.4050, 14574.00
467.5920, 14545.00
468.7790, 14473.00
469.9650, 14314.00
471.1520, 14323.00
472.3380, 14199.00
473.5250, 14220.00
474.7110, 14102.00
475.8970, 14184.00
477.0820, 14159.00
478.2680, 14056.00
479.4540, 13979.00
480.6390, 14084.00
481.8240, 14134.00
483.0090, 14144.00
484.1940, 14045.00
485.3780, 14254.00
486.5630, 14132.00
487.7470, 14286.00
488.9320, 14276.00
490.1160, 14517.00
491.3000, 14643.00
492.4830, 14582.00
493.6670, 14753.00
494.8500, 14897.00
496.0340, 14915.00
497.2170, 15157.00
498.4000, 15113.00
499.5820, 15120.00
500.7650, 15101.00
501.9480, 14872.00
503.1300, 14869.00
504.3120, 14740.00
505.4940, 14768.00
506.6760, 14619.00
507.8580, 14762.00
509.0390, 14781.00
510.2210, 14948.00
511.4020, 14879.00
512.5830, 14886.00
513.7640, 14999.00
514.9450, 15070.00
516.1250, 14725.00
517.3060, 14930.00
518.4860, 14752.00
519.6660, 14781.00
520.8460, 14743.00
522.0260, 14750.00
523.2060, 14844.00
524.3850, 14837.00
525.5650, 14836.00
526.7440, 14797.00
527.9230, 14754.00
529.1020, 14839.00
530.2810, 14807.42
531.4590, 14620.00
532.6380, 14827.00
533.8160, 14646.00
534.9940, 14613.00
536.1720, 14847.00
537.3500, 14682.00
538.5270, 14607.00
539.7050, 14511.00
540.8820, 14778.00
542.0590, 14708.00
543.2360, 14765.00
544.4130, 14767.00
545.5900, 14682.00
546.7660, 14729.00
547.9430, 14859.00
549.1190, 14981.00
550.2950, 14888.00
551.4710, 14947.00
552.6470, 14966.00
553.8220, 14862.00
554.9980, 14865.00
556.1730, 14945.00
557.3480, 15026.00
558.5230, 15023.00
559.6980, 14940.00
560.8730, 14851.00
562.0470, 14984.00
563.2220, 15004.00
564.3960, 15007.52
565.5700, 15061.00
566.7440, 15075.00
567.9170, 15195.00
569.0910, 15299.00
570.2640, 15335.82
571.4380, 15336.00
572.6110, 15463.00
573.7840, 15562.00
574.9570, 15663.00
576.1290, 15827.00
577.3020, 15893.00
578.4740, 16148.00
579.6460, 16418.00
580.8180, 16654.00
581.9900, 16838.00
583.1620, 16653.00
584.3330, 16445.00
585.5040, 16213.00
586.6760, 16129.00
587.8470, 15770.00
589.0180, 15717.00
590.1880, 15481.00
591.3590, 15490.00
592.5290, 15656.00
593.7000, 15551.00
594.8700, 15801.00
596.0400, 15650.00
597.2090, 15902.00
598.3790, 16019.00
599.5490, 16168.00
600.7180, 16341.00
601.8870, 16419.00
603.0560, 16615.00
604.2250, 16637.00
605.3940, 16719.00
606.5620, 16945.00
607.7300, 17112.00
608.8990, 17091.00
610.0670, 17067.00
611.2350, 17083.00
612.4020, 17029.00
613.5700, 16892.00
614.7370, 16727.00
615.9050, 16520.00
617.0720, 16621.00
618.2390, 17272.00
619.4060, 16821.47
620.5720, 17253.00
621.7390, 16454.00
622.9050, 16483.00
624.0710, 16450.00
625.2370, 16654.00
626.4030, 16708.00
627.5690, 16661.00
628.7340, 16913.00
629.9000, 16910.00
631.0650, 16947.00
632.2300, 17281.00
633.3950, 17204.00
634.5600, 17434.00
635.7240, 17432.00
636.8890, 17569.00
638.0530, 17579.00
639.2170, 17534.00
640.3810, 17523.00
641.5450, 17549.94
642.7080, 17625.00
643.8720, 17573.00
645.0350, 17673.00
646.1980, 17610.00
647.3610, 17694.00
648.5240, 17821.00
649.6870, 17666.00
650.8490, 17712.00
652.0120, 17583.00
653.1740, 17528.00
654.3360, 17705.00
655.4980, 18033.00
656.6600, 18204.00
657.8210, 18543.00
658.9830, 18844.00
660.1440, 19179.00
661.3050, 19679.00
662.4660, 19894.00
663.6270, 20117.00
664.7870, 20342.00
665.9480, 20339.00
667.1080, 20132.00
668.2680, 19876.00
669.4280, 19633.70
670.5880, 19194.00
671.7480, 18902.00
672.9070, 18486.00
674.0670, 17972.00
675.2260, 17845.00
676.3850, 17530.81
677.5440, 17382.00
678.7030, 17225.00
679.8610, 17105.00
681.0200, 17066.00
682.1780, 16934.00
683.3360, 16726.00
684.4940, 16844.00
685.6520, 16942.00
686.8090, 16896.00
687.9670, 16677.00
689.1240, 16766.00
690.2810, 16654.00
691.4380, 16843.00
692.5950, 17004.00
693.7520, 16869.00
694.9080, 16917.00
696.0650, 16797.00
697.2210, 16673.00
698.3770, 16678.00
699.5330, 16823.00
700.6880, 16684.00
701.8440, 16797.00
702.9990, 16720.00
704.1550, 16870.00
705.3100, 16814.00
706.4650, 16801.00
707.6190, 17044.00
708.7740, 17026.00
709.9290, 16950.00
711.0830, 17076.00
712.2370, 17249.00
713.3910, 17172.09
714.5450, 17166.00
715.6980, 17121.00
716.8520, 17132.00
718.0050, 17076.00
719.1580, 17150.00
720.3110, 17261.00
721.4640, 17160.00
722.6170, 17080.00
723.7700, 17086.00
724.9220, 17293.00
726.0740, 17210.00
727.2260, 17116.00
728.3780, 17399.00
729.5300, 17273.00
730.6810, 17067.00
731.8330, 17370.00
732.9840, 17080.00
734.1350, 17201.00
735.2860, 17141.00
736.4370, 17250.00
737.5880, 17335.00
738.7380, 17341.00
739.8880, 17376.00
741.0390, 17337.00
742.1890, 17440.00
743.3380, 17390.00
744.4880, 17349.00
745.6380, 17561.00
746.7870, 17483.00
747.9360, 17498.00
749.0850, 17533.00
750.2340, 17499.00
751.3830, 17372.00
752.5310, 17463.00
753.6800, 17567.00
754.8280, 17808.00
755.9760, 17715.00
757.1240, 17913.00
758.2720, 17689.00
759.4190, 17757.00
760.5670, 17740.00
761.7140, 17888.00
762.8610, 17835.00
764.0080, 17938.00
765.1550, 18106.00
766.3020, 18168.00
767.4480, 18155.00
768.5950, 18222.00
769.7410, 18326.00
770.8870, 18589.00
772.0330, 18644.00
773.1780, 18853.00
774.3240, 18917.00
775.4690, 19128.00
776.6140, 19643.00
777.7590, 19771.00
778.9040, 20071.00
780.0490, 20658.00
781.1940, 20941.00
782.3380, 21670.00
783.4820, 22106.00
784.6260, 22709.00
785.7700, 23491.00
786.9140, 24151.00
788.0580, 24962.00
789.2010, 25401.00
790.3450, 25778.00
791.4880, 25833.00
792.6310, 25813.00
793.7730, 25778.00
794.9160, 25072.00
796.0590, 24396.00
797.2010, 23739.00
798.3430, 23087.00
799.4850, 22477.00
800.6270, 21832.00
801.7690, 21072.00
802.9100, 20746.00
804.0520, 20292.00
805.1930, 19808.00
806.3340, 19835.00
807.4750, 19568.00
808.6160, 19166.00
809.7560, 19093.00
810.8970, 19051.00
812.0370, 18907.00
813.1770, 18805.00
814.3170, 18805.00
815.4570, 18692.00
816.5960, 18733.00
817.7360, 18696.35
818.8750, 18627.00
820.0140, 18693.00
821.1530, 18615.00
822.2920, 18633.00
823.4310, 18522.00
824.5690, 18584.00
825.7070, 18429.00
826.8460, 18551.00
827.9840, 18569.00
829.1220, 18490.00
830.2590, 18583.00
831.3970, 18484.00
832.5340, 18385.00
833.6710, 18325.00
834.8080, 18240.83
835.9450, 18375.00
837.0820, 18214.00
838.2190, 18351.00
839.3550, 18588.00
840.4910, 18544.00
841.6270, 18526.00
842.7630, 18483.00
843.8990, 18349.00
845.0350, 18441.00
846.1700, 18467.00
847.3060, 18602.00
848.4410, 18688.00
849.5760, 18668.00
850.7100, 18565.00
851.8450, 18628.00
852.9800, 18575.72
854.1140, 18509.00
855.2480, 18577.00
856.3820, 18625.00
857.5160, 18685.20
858.6500, 18630.00
859.7830, 18786.00
860.9170, 18635.00
862.0500, 18719.00
863.1830, 18718.00
864.3160, 18754.00
865.4480, 18608.00
866.5810, 18598.00
867.7130, 18628.00
868.8460, 18630.00
869.9780, 18703.00
871.1100, 18731.00
872.2410, 18818.00
873.3730, 18692.00
874.5050, 18815.00
875.6360, 18696.00
876.7670, 18863.00
877.8980, 18829.00
879.0290, 18771.00
880.1590, 18749.00
881.2900, 18806.00
882.4200, 18687.00
883.5500, 18734.00
884.6800, 18947.00
885.8100, 18760.00
886.9400, 18863.00
888.0690, 18732.00
889.1990, 18888.00
890.3280, 18960.00
891.4570, 19111.00
892.5860, 18962.00
893.7140, 18770.00
894.8430, 18963.00
895.9710, 18962.00
897.1000, 18860.00
898.2280, 19049.00
899.3560, 19141.00
900.4830, 19039.00
901.6110, 19087.00
902.7380, 18968.00
903.8660, 19012.00
904.9930, 19034.78
906.1200, 19124.00
907.2460, 19094.00
908.3730, 19210.00
909.5000, 19178.00
910.6260, 19089.00
911.7520, 19170.00
912.8780, 19172.00
914.0040, 19215.00
915.1290, 19249.00
916.2550, 19302.00
917.3800, 19326.34
918.5050, 19360.00
919.6300, 19400.00
920.7550, 19448.00
921.8800, 19528.00
923.0040, 19511.00
924.1290, 19509.00
925.2530, 19422.00
926.3770, 19360.00
927.5010, 19549.00
928.6250, 19432.00
929.7480, 19320.00
930.8720, 19387.00
931.9950, 19634.00
933.1180, 19511.00
934.2410, 19621.00
935.3640, 19458.00
936.4860, 19503.00
937.6090, 19445.00
938.7310, 19575.00
939.8530, 19681.00
940.9750, 19682.00
942.0970, 19615.00
943.2180, 19588.00
944.3400, 19639.00
945.4610, 19663.00
946.5820, 19703.00
947.7030, 19693.00
948.8240, 19697.60
949.9450, 19788.00
951.0650, 19691.00
952.1860, 19744.00
953.3060, 19788.00
954.4260, 19734.00
955.5460, 19818.00
956.6650, 19687.00
957.7850, 19891.00
958.9040, 19908.00
960.0230, 19952.00
961.1420, 19907.00
962.2610, 19942.00
963.3800, 19835.00
964.4990, 19962.00
965.6170, 19997.00
966.7350, 19887.00
967.8530, 19840.00
968.9710, 19959.00
970.0890, 20040.00
971.2070, 20177.00
972.3240, 20077.00
973.4410, 20001.00
974.5580, 20032.00
975.6750, 20061.00
976.7920, 20212.00
977.9090, 20225.00
979.0250, 20310.00
980.1410, 20181.00
981.2580, 20291.00
982.3740, 20415.00
983.4890, 20521.00
984.6050, 20713.00
985.7200, 20945.00
986.8360, 21056.00
987.9510, 20863.00
989.0660, 20718.00
990.1810, 20706.00
991.2950, 20604.00
992.4100, 20491.00
993.5240, 20586.00
994.6390, 20444.00
995.7530, 20492.00
996.8660, 20494.00
997.9800, 20566.00
999.0940, 20658.00
1000.207, 20682.00
1001.320, 20794.00
1002.433, 20716.00
1003.546, 20637.00
1004.659, 20633.00
1005.772, 20660.00
1006.884, 20579.00
1007.996, 20702.00
1009.108, 20685.00
1010.220, 20616.00
1011.332, 20674.00
1012.444, 20704.00
1013.555, 20705.00
1014.666, 20732.00
1015.777, 20697.00
1016.888, 20917.00
1017.999, 20721.00
1019.110, 20670.00
1020.220, 20885.00
1021.331, 20828.00
1022.441, 20796.00
1023.551, 20873.00
1024.661, 20801.00
1025.770, 20932.00
1026.880, 20937.00
1027.989, 20954.48
1029.098, 20949.00
1030.207, 20990.00
1031.316, 20915.00
1032.425, 20897.00
1033.533, 20935.00
1034.642, 20948.00
1035.750, 20929.00
1036.858, 20874.00
1037.966, 21122.00
1039.073, 21246.00
1040.181, 21047.00
1041.288, 21150.00
1042.396, 21000.00
1043.503, 21051.58
1044.610, 21316.00
1045.716, 21131.00
1046.823, 21319.00
1047.929, 21317.00
1049.036, 21294.00
1050.142, 21177.00
1051.248, 21236.00
1052.353, 21214.00
1053.459, 21133.00
1054.564, 21308.00
1055.670, 21198.00
1056.775, 21273.00
1057.880, 21256.00
1058.985, 21279.00
1060.089, 21242.00
1061.194, 21301.00
1062.298, 21313.77
1063.402, 21325.86
1064.506, 21348.00
1065.610, 21392.00
1066.713, 21335.00
1067.817, 21413.00
1068.920, 21431.00
1070.023, 21653.00
1071.126, 21413.00
1072.229, 21621.00
1073.332, 21733.00
1074.435, 21583.00
1075.537, 21785.00
1076.639, 21622.00
1077.741, 21733.00
1078.843, 21757.00
1079.945, 21961.00
1081.046, 21889.00
1082.148, 21862.00
1083.249, 22208.00
1084.350, 22651.00
1085.451, 23162.00
1086.551, 23610.00
1087.652, 22917.00
1088.752, 22577.00
1089.853, 22295.00
1090.953, 21903.00
1092.053, 21798.00
1093.152, 21929.00
1094.252, 21793.00
1095.351, 21807.00
1096.451, 21784.00
1097.550, 21710.00
1098.649, 21761.00
1099.748, 21748.04
1100.846, 21800.00
1101.945, 21831.00
1103.043, 21781.00
1104.141, 21891.00
1105.239, 21959.00
1106.337, 21711.00
1107.434, 21694.00
1108.532, 21856.00
1109.629, 21824.00
1110.726, 21980.00
1111.823, 21947.00
1112.920, 21908.00
1114.017, 22111.00
1115.113, 22091.00
1116.210, 22190.00
1117.306, 22298.00
1118.402, 22434.00
1119.498, 22565.00
1120.593, 22693.00
1121.689, 22757.31
1122.784, 22795.69
1123.879, 22825.00
1124.974, 22743.00
1126.069, 22683.00
1127.164, 22528.00
1128.259, 22471.00
1129.353, 22380.00
1130.447, 22183.00
1131.541, 22197.00
1132.635, 22287.00
1133.729, 22185.00
1134.822, 22248.00
1135.916, 22141.00
1137.009, 22036.00
1138.102, 22377.00
1139.195, 22402.00
1140.288, 22431.00
1141.380, 22207.00
1142.473, 22522.00
1143.565, 22360.00
1144.657, 22219.00
1145.749, 22496.00
1146.841, 22519.00
1147.932, 22244.00
1149.024, 22432.00
1150.115, 22678.00
1151.206, 22542.00
1152.297, 22588.00
1153.388, 22573.00
1154.479, 22589.00
1155.569, 22714.00
1156.659, 22698.00
1157.750, 22689.00
1158.839, 22764.00
1159.929, 22663.00
1161.019, 22636.00
1162.108, 22814.00
1163.198, 22597.00
1164.287, 22784.00
1165.376, 22853.00
1166.465, 22902.00
1167.553, 22942.00
1168.642, 23098.00
1169.730, 22914.00
1170.818, 23009.00
1171.906, 23280.00
1172.994, 23145.00
1174.082, 23409.00
1175.170, 23316.00
1176.257, 23519.00
1177.344, 23758.00
1178.431, 23818.00
1179.518, 23843.00
1180.605, 24121.00
1181.691, 24511.00
1182.778, 24894.00
1183.864, 25449.00
1184.950, 26067.00
1186.036, 26676.00
1187.122, 27936.00
1188.207, 29032.00
1189.292, 29968.00
1190.378, 31278.00
1191.463, 32517.00
1192.548, 33413.00
1193.632, 34039.00
1194.717, 33941.00
1195.801, 33151.00
1196.886, 32132.00
1197.970, 30453.00
1199.054, 29354.00
1200.137, 27910.00
1201.221, 26735.00
1202.305, 26092.00
1203.388, 25338.00
1204.471, 24903.00
1205.554, 24557.00
1206.637, 24450.00
1207.719, 24242.00
1208.802, 24055.00
1209.884, 23780.00
1210.966, 23714.00
1212.048, 23581.02
1213.130, 23707.00
1214.212, 23564.00
1215.293, 23450.00
1216.374, 23688.00
1217.456, 23525.00
1218.536, 23625.00
1219.617, 23549.00
1220.698, 23626.00
1221.778, 23584.92
1222.859, 23567.41
1223.939, 23508.00
1225.019, 23522.00
1226.099, 23489.00
1227.178, 23463.00
1228.258, 23587.00
1229.337, 23614.00
1230.417, 23699.00
1231.496, 23782.00
1232.574, 23553.00
1233.653, 23602.00
1234.732, 23481.00
1235.810, 23482.00
1236.888, 23569.00
1237.966, 23525.00
1239.044, 23416.00
1240.122, 23447.00
1241.199, 23459.00
1242.277, 23501.00
1243.354, 23596.00
1244.431, 23599.00
1245.508, 23486.00
1246.585, 23512.00
1247.661, 23423.00
1248.738, 23457.00
1249.814, 23433.09
1250.890, 23496.00
1251.966, 23439.00
1253.042, 23503.00
1254.117, 23561.00
1255.193, 23431.00
1256.268, 23499.00
1257.343, 23598.00
1258.418, 23517.00
1259.493, 23586.00
1260.567, 23532.00
1261.642, 23764.00
1262.716, 23710.00
1263.790, 23580.00
1264.864, 23888.00
1265.938, 23735.74
1267.011, 24118.00
1268.085, 23781.00
1269.158, 23810.00
1270.231, 24012.00
1271.304, 23921.00
1272.377, 24001.00
1273.450, 23857.00
1274.522, 23948.00
1275.594, 23756.00
1276.666, 23759.00
1277.738, 23874.00
1278.810, 23910.00
1279.882, 23827.00
1280.953, 23871.10
1282.025, 23861.00
1283.096, 23865.00
1284.167, 23959.00
1285.238, 24061.00
1286.308, 24034.00
1287.379, 24104.00
1288.449, 23963.00
1289.519, 23966.00
1290.589, 23994.00
1291.659, 24113.00
1292.729, 24243.00
1293.798, 24152.00
1294.868, 24108.00
1295.937, 24355.00
1297.006, 24220.00
1298.075, 24130.00
1299.143, 24185.00
1300.212, 24320.00
1301.280, 24122.00
1302.348, 24240.00
1303.416, 24378.00
1304.484, 24173.00
1305.552, 24438.00
1306.620, 24493.00
1307.687, 24384.00
1308.754, 24243.00
1309.821, 24545.00
1310.888, 24376.00
1311.955, 24583.00
1313.021, 24344.00
1314.088, 24586.00
1315.154, 24517.00
1316.220, 24256.00
1317.286, 24538.00
1318.352, 24613.00
1319.417, 24448.00
1320.483, 24669.00
1321.548, 24639.00
1322.613, 24602.00
1323.678, 24489.00
1324.743, 24539.00
1325.807, 24468.00
1326.872, 24667.00
1327.936, 24726.00
1329.000, 24708.00
1330.064, 24661.00
1331.128, 24769.00
1332.191, 24970.00
1333.255, 24622.00
1334.318, 24544.00
1335.381, 24830.00
1336.444, 24771.00
1337.507, 24880.00
1338.569, 24586.00
1339.632, 24687.00
1340.694, 24701.00
1341.756, 24848.00
1342.818, 24587.00
1343.880, 24804.00
1344.941, 24741.00
1346.003, 24966.00
1347.064, 24675.00
1348.125, 24938.00
1349.186, 25066.00
1350.247, 24842.00
1351.308, 24871.00
1352.368, 24999.00
1353.428, 25123.00
1354.489, 24895.00
1355.549, 25069.00
1356.608, 25137.00
1357.668, 25117.00
1358.727, 24825.00
1359.787, 24918.00
1360.846, 24934.00
1361.905, 25189.00
1362.964, 24964.00
1364.022, 25068.00
1365.081, 25151.00
1366.139, 24956.00
1367.197, 24861.00
1368.255, 24848.17
1369.313, 24820.13
1370.371, 24893.00
1371.428, 24967.00
1372.486, 25001.17
1373.543, 25199.00
1374.600, 25079.00
1375.657, 25118.00
1376.713, 25192.00
1377.770, 25048.00
1378.826, 25153.00
1379.882, 25100.00
1380.938, 25081.00
1381.994, 25437.00
1383.050, 25378.00
1384.106, 25255.00
1385.161, 25447.00
1386.216, 25342.00
1387.271, 25192.00
1388.326, 25529.00
1389.381, 25299.00
1390.435, 25407.00
1391.490, 25441.00
1392.544, 25369.00
1393.598, 25475.00
1394.652, 25514.00
1395.705, 25362.00
1396.759, 25273.00
1397.812, 25465.00
1398.866, 25515.00
1399.919, 25547.00
1400.972, 25445.00
1402.024, 25545.00
1403.077, 25493.37
1404.129, 25356.00
1405.181, 25511.00
1406.233, 25395.00
1407.285, 25498.00
1408.337, 25449.00
1409.389, 25612.00
1410.440, 25395.00
1411.491, 25742.00
1412.542, 25612.00
1413.593, 25555.00
1414.644, 25791.00
1415.695, 25678.00
1416.745, 25583.00
1417.795, 25802.00
1418.845, 25835.00
1419.895, 25879.00
1420.945, 25821.00
1421.995, 25842.00
1423.044, 25847.00
1424.093, 25866.73
1425.142, 25764.00
1426.191, 25987.00
1427.240, 25966.00
1428.289, 26107.26
1429.337, 25848.00
1430.385, 26180.00
1431.433, 26185.00
1432.481, 25989.00
1433.529, 26147.00
1434.577, 26206.00
1435.624, 26171.00
1436.672, 26105.00
1437.719, 26246.00
1438.766, 26223.00
1439.812, 26183.00
1440.859, 26258.00
1441.905, 26310.00
1442.952, 26428.00
1443.998, 26223.00
1445.044, 26324.00
1446.090, 26401.00
1447.135, 26152.00
1448.181, 26479.00
1449.226, 26480.00
1450.271, 26590.00
1451.316, 26378.00
1452.361, 26375.00
1453.405, 26443.00
1454.450, 26414.00
1455.494, 26475.00
1456.538, 26484.68
1457.582, 26499.60
1458.626, 26477.00
1459.670, 26551.00
1460.713, 26469.00
1461.757, 26510.00
1462.800, 26428.00
1463.843, 26408.00
1464.886, 26535.00
1465.928, 26543.00
1466.971, 26429.00
1468.013, 26514.00
1469.055, 26462.00
1470.097, 26497.00
1471.139, 26543.00
1472.181, 26462.00
1473.222, 26422.58
1474.263, 26310.00
1475.305, 26346.00
1476.346, 26414.00
1477.386, 26626.00
1478.427, 26526.00
1479.468, 26680.00
1480.508, 26550.00
1481.548, 26587.00
1482.588, 26413.00
1483.628, 26477.00
1484.668, 26718.00
1485.707, 26402.00
1486.747, 26546.00
1487.786, 26640.00
1488.825, 26397.00
1489.864, 26615.00
1490.902, 26516.00
1491.941, 26608.00
1492.979, 26673.00
1494.017, 26622.00
1495.055, 26543.00
1496.093, 26701.00
1497.131, 26667.00
1498.168, 26694.00
1499.206, 26664.00
1500.243, 26650.00
1501.280, 26613.49
1502.317, 26649.00
1503.354, 26565.00
1504.390, 26588.00
1505.426, 26682.00
1506.463, 26808.00
1507.499, 26656.00
1508.535, 26980.00
1509.570, 26852.00
1510.606, 26808.00
1511.641, 26702.00
1512.676, 26858.00
1513.711, 26852.00
1514.746, 26966.00
1515.781, 27041.00
1516.816, 26913.00
1517.850, 26850.00
1518.884, 27068.00
1519.918, 27034.00
1520.952, 26881.00
1521.986, 26943.00
1523.019, 26952.00
1524.053, 26946.00
1525.086, 27139.00
1526.119, 27073.00
1527.152, 27094.00
1528.185, 27062.00
1529.217, 26898.00
1530.250, 27053.00
1531.282, 27221.00
1532.314, 27341.00
1533.346, 27062.00
1534.377, 26951.00
1535.409, 26930.00
1536.440, 27219.00
1537.472, 27248.00
1538.503, 27337.00
1539.534, 27280.00
1540.564, 27091.00
1541.595, 27205.00
1542.625, 27142.00
1543.656, 27165.00
1544.686, 27387.00
1545.716, 27229.00
1546.745, 27241.00
1547.775, 27243.00
1548.804, 27069.00
1549.834, 27450.00
1550.863, 27621.00
1551.892, 27538.00
1552.920, 27621.00
1553.949, 27534.00
1554.977, 27429.00
1556.006, 27469.00
1557.034, 27511.00
1558.062, 27533.00
1559.089, 27469.00
1560.117, 27713.00
1561.144, 27683.00
1562.172, 27410.00
1563.199, 27581.00
1564.226, 27496.00
1565.252, 27635.00
1566.279, 27780.00
1567.305, 27725.00
1568.332, 27544.00
1569.358, 27895.00
1570.384, 27650.00
1571.409, 27634.00
1572.435, 27945.00
##END=



