##NAMES=Diaspore
##RRUFFID=R060287
##IDEAL CHEMISTRY=AlO(OH)
##LOCALITY=Selcuk, Mugla Province, Turkey
##OWNER=RRUFF
##SOURCE=Herb Obodda
##DESCRIPTION=Colorless transparent platy fragment
##STATUS=The identification of this mineral has been confirmed by X-ray diffraction and chemical analysis
##URL=rruff.info/R060287
##MEASURED CHEMISTRY=(Al_0.99_Fe^3+^_0.01_)_Î£=1_O(OH) ; trace amounts of Ti;  OH estimated by difference ; Fe^3+^ by charge balance
##PIN_ID=L01658
##ORIENTATION=Laser parallel to a* (1 0 0). Fiducial mark perpendicular to laser is parallel to b [0 1 0]
114.4400, 7200.000
115.6710, 7432.000
116.9030, 7618.000
118.1340, 7611.000
119.3650, 7530.000
120.5960, 7573.000
121.8270, 7590.000
123.0580, 7592.000
124.2880, 7650.272
125.5190, 7755.000
126.7490, 7761.000
127.9790, 7758.000
129.2090, 7835.000
130.4390, 7841.000
131.6680, 7844.000
132.8980, 7902.613
134.1270, 8044.000
135.3560, 8023.000
136.5850, 8069.000
137.8140, 8214.000
139.0430, 8260.000
140.2710, 8398.000
141.5000, 8556.000
142.7280, 8803.000
143.9560, 9269.000
145.1840, 9852.000
146.4120, 10257.00
147.6390, 10717.00
148.8670, 10987.00
150.0940, 11919.00
151.3210, 13431.00
152.5490, 15091.00
153.7750, 16158.00
155.0020, 16216.00
156.2290, 16615.00
157.4550, 16701.00
158.6810, 15184.00
159.9080, 13193.00
161.1340, 11365.00
162.3590, 9856.000
163.5850, 9091.000
164.8110, 8873.000
166.0360, 8758.000
167.2610, 8714.000
168.4860, 8607.000
169.7110, 8654.000
170.9360, 8636.000
172.1610, 8649.000
173.3850, 8677.000
174.6100, 8669.000
175.8340, 8682.000
177.0580, 8632.000
178.2820, 8639.000
179.5050, 8643.000
180.7290, 8761.000
181.9520, 8670.000
183.1760, 8772.000
184.3990, 8830.000
185.6220, 8721.000
186.8450, 8795.000
188.0670, 8757.000
189.2900, 8830.000
190.5120, 8779.000
191.7340, 8761.000
192.9560, 8881.000
194.1780, 8775.000
195.4000, 8813.000
196.6220, 8884.000
197.8430, 8944.000
199.0640, 8865.000
200.2860, 9018.000
201.5070, 9066.000
202.7270, 8965.000
203.9480, 9016.000
205.1690, 8945.000
206.3890, 8963.000
207.6090, 8983.000
208.8290, 8987.000
210.0490, 8947.000
211.2690, 8992.000
212.4890, 9017.000
213.7080, 8958.000
214.9280, 9012.000
216.1470, 8968.000
217.3660, 9022.000
218.5850, 8948.000
219.8030, 9053.000
221.0220, 9099.000
222.2400, 9011.000
223.4590, 9089.000
224.6770, 9066.000
225.8950, 9085.000
227.1120, 9027.000
228.3300, 9115.000
229.5480, 9183.000
230.7650, 9099.000
231.9820, 9154.000
233.1990, 9100.000
234.4160, 9220.000
235.6330, 9205.000
236.8490, 9219.000
238.0660, 9070.000
239.2820, 9180.000
240.4980, 9165.000
241.7140, 9235.000
242.9300, 9234.000
244.1460, 9255.000
245.3610, 9228.000
246.5770, 9260.000
247.7920, 9268.000
249.0070, 9189.000
250.2220, 9266.000
251.4370, 9288.000
252.6510, 9351.000
253.8660, 9325.000
255.0800, 9364.000
256.2940, 9481.000
257.5080, 9396.000
258.7220, 9508.000
259.9360, 9503.930
261.1490, 9698.000
262.3630, 9515.000
263.5760, 9397.000
264.7890, 9365.000
266.0020, 9452.000
267.2150, 9429.000
268.4270, 9443.000
269.6400, 9547.000
270.8520, 9464.000
272.0640, 9460.000
273.2760, 9515.000
274.4880, 9566.000
275.7000, 9478.000
276.9120, 9477.000
278.1230, 9613.000
279.3340, 9651.000
280.5450, 9766.000
281.7560, 9606.000
282.9670, 9776.000
284.1780, 9735.000
285.3880, 9757.000
286.5980, 9873.000
287.8090, 9838.000
289.0190, 9923.000
290.2290, 9953.000
291.4380, 9775.000
292.6480, 9856.000
293.8570, 9899.000
295.0670, 9796.000
296.2760, 9959.000
297.4850, 9957.000
298.6930, 9852.000
299.9020, 9781.000
301.1110, 9878.000
302.3190, 9947.000
303.5270, 9845.000
304.7350, 9748.000
305.9430, 9917.000
307.1510, 9833.000
308.3580, 9909.000
309.5660, 10072.00
310.7730, 9987.000
311.9800, 9984.000
313.1870, 9829.000
314.3940, 10062.00
315.6010, 9940.000
316.8070, 10110.00
318.0130, 10162.00
319.2200, 10232.00
320.4260, 10485.00
321.6310, 10627.00
322.8370, 10916.16
324.0430, 11391.00
325.2480, 11621.00
326.4540, 12143.00
327.6590, 12679.00
328.8640, 13398.00
330.0680, 13758.00
331.2730, 13852.00
332.4780, 13873.00
333.6820, 13721.00
334.8860, 13396.00
336.0900, 12817.00
337.2940, 12038.00
338.4980, 11489.00
339.7010, 11237.00
340.9050, 11022.00
342.1080, 10715.00
343.3110, 10601.00
344.5140, 10662.00
345.7170, 10548.00
346.9200, 10630.00
348.1220, 10675.00
349.3240, 10658.00
350.5270, 10639.00
351.7290, 10603.00
352.9310, 10682.00
354.1320, 10725.00
355.3340, 10728.00
356.5350, 10932.00
357.7370, 10985.00
358.9380, 11259.00
360.1390, 11525.00
361.3400, 11668.00
362.5400, 12120.00
363.7410, 12675.00
364.9410, 13316.00
366.1410, 13981.00
367.3410, 13906.00
368.5410, 13973.00
369.7410, 13812.00
370.9400, 13319.00
372.1400, 12829.00
373.3390, 12297.00
374.5380, 11773.00
375.7370, 11305.00
376.9360, 11196.00
378.1350, 11110.00
379.3330, 10986.00
380.5310, 10983.00
381.7300, 10999.00
382.9280, 11000.00
384.1260, 11029.00
385.3230, 11043.00
386.5210, 11051.00
387.7180, 10935.00
388.9160, 10994.00
390.1130, 10972.00
391.3100, 10910.00
392.5060, 11085.00
393.7030, 11199.00
394.9000, 11228.00
396.0960, 11200.00
397.2920, 11185.00
398.4880, 11212.00
399.6840, 11063.00
400.8800, 11189.00
402.0750, 11165.00
403.2710, 11287.00
404.4660, 11127.00
405.6610, 11171.00
406.8560, 11149.00
408.0510, 11296.00
409.2450, 11319.00
410.4400, 11221.00
411.6340, 11234.00
412.8280, 11418.00
414.0220, 11453.00
415.2160, 11401.00
416.4100, 11239.00
417.6030, 11506.00
418.7970, 11457.00
419.9900, 11496.00
421.1830, 11549.00
422.3760, 11673.00
423.5690, 11571.00
424.7610, 11703.00
425.9540, 11769.00
427.1460, 11987.00
428.3380, 12115.00
429.5300, 12243.00
430.7220, 12189.00
431.9140, 12706.00
433.1050, 12981.00
434.2970, 13504.00
435.4880, 14320.00
436.6790, 15483.00
437.8700, 17607.00
439.0610, 20934.00
440.2510, 25423.00
441.4420, 30058.00
442.6320, 33726.00
443.8220, 40431.00
445.0120, 49585.00
446.2020, 58752.00
447.3910, 63265.00
448.5810, 64587.00
449.7700, 64165.00
450.9600, 59874.00
452.1490, 50741.00
453.3370, 39098.00
454.5260, 29333.00
455.7150, 22636.00
456.9030, 18775.00
458.0910, 16517.00
459.2800, 15274.00
460.4670, 14382.00
461.6550, 13949.00
462.8430, 13622.00
464.0300, 13175.00
465.2180, 13175.00
466.4050, 12955.00
467.5920, 12749.00
468.7790, 12693.00
469.9650, 12655.00
471.1520, 12554.00
472.3380, 12441.00
473.5250, 12474.00
474.7110, 12486.00
475.8970, 12406.95
477.0820, 12390.00
478.2680, 12321.00
479.4540, 12303.00
480.6390, 12303.00
481.8240, 12390.00
483.0090, 12455.00
484.1940, 12476.00
485.3780, 12733.00
486.5630, 12823.00
487.7470, 13200.00
488.9320, 13912.00
490.1160, 14683.00
491.3000, 15587.00
492.4830, 16704.00
493.6670, 17787.00
494.8500, 19130.00
496.0340, 21140.00
497.2170, 22742.00
498.4000, 23500.00
499.5820, 23309.00
500.7650, 22686.00
501.9480, 21242.00
503.1300, 19376.00
504.3120, 16867.00
505.4940, 14976.00
506.6760, 13912.00
507.8580, 13214.00
509.0390, 12865.00
510.2210, 12642.00
511.4020, 12522.00
512.5830, 12553.00
513.7640, 12338.00
514.9450, 12317.00
516.1250, 12280.00
517.3060, 12218.00
518.4860, 12185.00
519.6660, 12271.00
520.8460, 12210.00
522.0260, 12298.00
523.2060, 12209.00
524.3850, 12195.00
525.5650, 12197.00
526.7440, 12100.00
527.9230, 12320.00
529.1020, 12215.00
530.2810, 12521.00
531.4590, 12489.00
532.6380, 12436.00
533.8160, 12419.00
534.9940, 12435.00
536.1720, 12342.00
537.3500, 12314.00
538.5270, 12426.00
539.7050, 12310.00
540.8820, 12502.00
542.0590, 12421.00
543.2360, 12522.00
544.4130, 12485.00
545.5900, 12499.00
546.7660, 12580.00
547.9430, 12545.00
549.1190, 12668.00
550.2950, 12605.00
551.4710, 12707.00
552.6470, 12612.00
553.8220, 12708.00
554.9980, 12649.00
556.1730, 12812.00
557.3480, 12789.00
558.5230, 12772.00
559.6980, 12688.00
560.8730, 12791.00
562.0470, 12759.00
563.2220, 12736.00
564.3960, 12871.00
565.5700, 12772.00
566.7440, 12830.00
567.9170, 12956.00
569.0910, 12971.00
570.2640, 13111.00
571.4380, 13165.00
572.6110, 13245.00
573.7840, 13333.46
574.9570, 13340.00
576.1290, 13445.00
577.3020, 13440.00
578.4740, 13412.00
579.6460, 13467.00
580.8180, 13364.00
581.9900, 13275.00
583.1620, 13371.00
584.3330, 13240.00
585.5040, 13208.00
586.6760, 13210.00
587.8470, 13279.00
589.0180, 13271.00
590.1880, 13302.00
591.3590, 13307.00
592.5290, 13391.00
593.7000, 13545.00
594.8700, 13573.00
596.0400, 13837.00
597.2090, 13983.00
598.3790, 14096.00
599.5490, 14401.00
600.7180, 14696.00
601.8870, 15017.00
603.0560, 15369.00
604.2250, 15764.00
605.3940, 16269.00
606.5620, 16760.00
607.7300, 16846.00
608.8990, 17313.00
610.0670, 17306.00
611.2350, 17253.00
612.4020, 16863.00
613.5700, 16584.00
614.7370, 16018.00
615.9050, 15731.00
617.0720, 15213.00
618.2390, 14965.00
619.4060, 14771.00
620.5720, 14550.00
621.7390, 14304.00
622.9050, 14142.00
624.0710, 14075.00
625.2370, 13956.79
626.4030, 13930.14
627.5690, 13900.00
628.7340, 13910.00
629.9000, 13899.90
631.0650, 13882.63
632.2300, 13899.00
633.3950, 13877.00
634.5600, 13846.00
635.7240, 13893.00
636.8890, 14024.00
638.0530, 13983.00
639.2170, 14131.00
640.3810, 14167.00
641.5450, 14050.00
642.7080, 14185.00
643.8720, 14316.00
645.0350, 14443.00
646.1980, 14632.00
647.3610, 14778.00
648.5240, 15026.00
649.6870, 15063.00
650.8490, 15476.00
652.0120, 15687.00
653.1740, 16339.00
654.3360, 16877.00
655.4980, 17659.00
656.6600, 18550.00
657.8210, 19483.00
658.9830, 20449.00
660.1440, 22140.00
661.3050, 23257.00
662.4660, 24595.00
663.6270, 25778.00
664.7870, 26675.00
665.9480, 27218.00
667.1080, 27198.00
668.2680, 26695.00
669.4280, 25858.00
670.5880, 24538.00
671.7480, 23284.00
672.9070, 21809.00
674.0670, 20474.00
675.2260, 19478.00
676.3850, 18617.00
677.5440, 17803.00
678.7030, 17257.00
679.8610, 16647.00
681.0200, 16284.00
682.1780, 15768.00
683.3360, 15517.00
684.4940, 15434.00
685.6520, 15170.00
686.8090, 15245.00
687.9670, 14969.00
689.1240, 15012.00
690.2810, 14876.00
691.4380, 14729.00
692.5950, 14888.00
693.7520, 14889.00
694.9080, 14736.00
696.0650, 14778.00
697.2210, 14542.00
698.3770, 14656.00
699.5330, 14761.00
700.6880, 14686.00
701.8440, 14583.00
702.9990, 14629.00
704.1550, 14560.00
705.3100, 14518.00
706.4650, 14581.00
707.6190, 14453.00
708.7740, 14457.00
709.9290, 14473.00
711.0830, 14475.00
712.2370, 14533.00
713.3910, 14381.00
714.5450, 14416.00
715.6980, 14575.00
716.8520, 14402.00
718.0050, 14527.00
719.1580, 14325.00
720.3110, 14523.00
721.4640, 14545.00
722.6170, 14331.00
723.7700, 14469.00
724.9220, 14485.00
726.0740, 14490.00
727.2260, 14605.00
728.3780, 14624.00
729.5300, 14517.00
730.6810, 14384.00
731.8330, 14539.00
732.9840, 14500.00
734.1350, 14690.00
735.2860, 14534.00
736.4370, 14523.00
737.5880, 14597.00
738.7380, 14465.00
739.8880, 14532.00
741.0390, 14512.00
742.1890, 14578.00
743.3380, 14648.00
744.4880, 14558.00
745.6380, 14537.00
746.7870, 14664.00
747.9360, 14584.00
749.0850, 14494.00
750.2340, 14589.00
751.3830, 14460.00
752.5310, 14601.00
753.6800, 14565.00
754.8280, 14679.00
755.9760, 14672.33
757.1240, 14558.00
758.2720, 14677.00
759.4190, 14588.00
760.5670, 14621.00
761.7140, 14461.00
762.8610, 14763.00
764.0080, 14684.00
765.1550, 14669.00
766.3020, 14448.00
767.4480, 14716.00
768.5950, 14733.00
769.7410, 14808.00
770.8870, 14753.00
772.0330, 14721.00
773.1780, 14747.00
774.3240, 14629.00
775.4690, 14797.00
776.6140, 14780.00
777.7590, 14858.00
778.9040, 14815.00
780.0490, 14886.00
781.1940, 14895.00
782.3380, 14993.00
783.4820, 14991.00
784.6260, 14945.00
785.7700, 14890.00
786.9140, 15095.00
788.0580, 15098.00
789.2010, 15146.00
790.3450, 15193.00
791.4880, 15165.24
792.6310, 15213.00
793.7730, 15130.00
794.9160, 15058.00
796.0590, 15058.00
797.2010, 15125.00
798.3430, 14952.00
799.4850, 14825.00
800.6270, 14970.00
801.7690, 14878.00
802.9100, 14697.00
804.0520, 14792.00
805.1930, 14790.00
806.3340, 14803.00
807.4750, 14844.00
808.6160, 14707.00
809.7560, 14794.00
810.8970, 14795.31
812.0370, 14735.00
813.1770, 14823.00
814.3170, 14763.00
815.4570, 14646.00
816.5960, 14802.00
817.7360, 14758.00
818.8750, 14674.00
820.0140, 14720.00
821.1530, 14697.00
822.2920, 14745.00
823.4310, 14666.00
824.5690, 14574.00
825.7070, 14634.00
826.8460, 14610.49
827.9840, 14470.00
829.1220, 14724.00
830.2590, 14761.00
831.3970, 14902.00
832.5340, 14720.00
833.6710, 14840.00
834.8080, 14754.00
835.9450, 14760.00
837.0820, 14771.00
838.2190, 14751.00
839.3550, 14726.00
840.4910, 14644.00
841.6270, 14803.00
842.7630, 14718.00
843.8990, 14807.00
845.0350, 14728.00
846.1700, 14934.00
847.3060, 14792.00
848.4410, 14680.00
849.5760, 15028.00
850.7100, 14693.00
851.8450, 14901.00
852.9800, 14928.00
854.1140, 15001.00
855.2480, 14915.00
856.3820, 14850.00
857.5160, 14887.00
858.6500, 14977.00
859.7830, 14850.00
860.9170, 14973.00
862.0500, 14857.00
863.1830, 14887.00
864.3160, 14935.00
865.4480, 14980.00
866.5810, 15063.00
867.7130, 14910.00
868.8460, 15024.00
869.9780, 14924.00
871.1100, 15059.00
872.2410, 14989.00
873.3730, 15079.00
874.5050, 15103.90
875.6360, 15256.00
876.7670, 15121.00
877.8980, 15100.00
879.0290, 15022.00
880.1590, 15018.00
881.2900, 15195.00
882.4200, 15062.00
883.5500, 15114.00
884.6800, 15284.00
885.8100, 15100.00
886.9400, 15075.00
888.0690, 15227.00
889.1990, 15131.00
890.3280, 15241.00
891.4570, 15230.00
892.5860, 15164.00
893.7140, 15347.00
894.8430, 15119.00
895.9710, 15160.00
897.1000, 15185.00
898.2280, 15294.00
899.3560, 15167.00
900.4830, 15278.00
901.6110, 15206.00
902.7380, 15216.55
903.8660, 15434.00
904.9930, 15243.00
906.1200, 15355.00
907.2460, 15393.00
908.3730, 15495.00
909.5000, 15506.58
910.6260, 15527.76
911.7520, 15503.00
912.8780, 15552.00
914.0040, 15515.00
915.1290, 15581.00
916.2550, 15583.00
917.3800, 15582.05
918.5050, 15586.95
919.6300, 15583.00
920.7550, 15576.80
921.8800, 15568.36
923.0040, 15551.00
924.1290, 15541.00
925.2530, 15511.00
926.3770, 15492.00
927.5010, 15502.91
928.6250, 15521.00
929.7480, 15527.00
930.8720, 15554.45
931.9950, 15561.48
933.1180, 15591.00
934.2410, 15634.00
935.3640, 15665.00
936.4860, 15719.00
937.6090, 15627.00
938.7310, 15546.00
939.8530, 15692.00
940.9750, 15744.00
942.0970, 15679.00
943.2180, 15742.00
944.3400, 15771.00
945.4610, 15606.00
946.5820, 15911.00
947.7030, 15610.00
948.8240, 15739.00
949.9450, 15857.00
951.0650, 15696.00
952.1860, 15818.00
953.3060, 15697.00
954.4260, 15751.00
955.5460, 15806.00
956.6650, 15855.00
957.7850, 15834.00
958.9040, 15757.00
960.0230, 15890.00
961.1420, 15788.00
962.2610, 15809.00
963.3800, 15855.00
964.4990, 15847.00
965.6170, 15911.00
966.7350, 15822.00
967.8530, 15857.00
968.9710, 15812.00
970.0890, 15957.00
971.2070, 16163.00
972.3240, 16045.00
973.4410, 15890.00
974.5580, 16077.00
975.6750, 15992.00
976.7920, 16044.00
977.9090, 16127.00
979.0250, 16164.00
980.1410, 16099.00
981.2580, 16181.00
982.3740, 16135.00
983.4890, 16146.00
984.6050, 16198.00
985.7200, 16218.00
986.8360, 16145.00
987.9510, 16181.00
989.0660, 16215.00
990.1810, 16057.00
991.2950, 16342.00
992.4100, 16245.00
993.5240, 16329.00
994.6390, 16185.00
995.7530, 16345.00
996.8660, 16290.00
997.9800, 16283.35
999.0940, 16326.00
1000.207, 16317.00
1001.320, 16365.00
1002.433, 16484.00
1003.546, 16490.00
1004.659, 16544.61
1005.772, 16486.00
1006.884, 16593.00
1007.996, 16639.00
1009.108, 16647.00
1010.220, 16766.00
1011.332, 16518.00
1012.444, 16572.00
1013.555, 16320.00
1014.666, 16735.00
1015.777, 16632.00
1016.888, 16669.00
1017.999, 16839.00
1019.110, 16755.00
1020.220, 16607.00
1021.331, 16617.00
1022.441, 16675.00
1023.551, 16649.00
1024.661, 16830.00
1025.770, 16778.00
1026.880, 16593.00
1027.989, 16585.00
1029.098, 16720.00
1030.207, 16582.00
1031.316, 16689.00
1032.425, 16768.00
1033.533, 16860.00
1034.642, 16677.00
1035.750, 16795.00
1036.858, 16705.00
1037.966, 16645.00
1039.073, 16747.00
1040.181, 16803.00
1041.288, 16821.00
1042.396, 17019.00
1043.503, 17151.00
1044.610, 17057.00
1045.716, 17156.00
1046.823, 17301.00
1047.929, 17191.00
1049.036, 17098.00
1050.142, 17184.00
1051.248, 16910.00
1052.353, 16873.00
1053.459, 16925.00
1054.564, 16659.00
1055.670, 16782.00
1056.775, 16788.00
1057.880, 16776.00
1058.985, 16732.00
1060.089, 16734.00
1061.194, 16817.00
1062.298, 16893.00
1063.402, 16986.00
1064.506, 17017.30
1065.610, 16949.00
1066.713, 16995.00
1067.817, 16926.00
1068.920, 16732.00
1070.023, 17035.00
1071.126, 16952.00
1072.229, 17075.00
1073.332, 16759.00
1074.435, 16979.00
1075.537, 16904.00
1076.639, 16987.00
1077.741, 16958.00
1078.843, 16979.00
1079.945, 17106.00
1081.046, 17222.00
1082.148, 17243.00
1083.249, 16961.00
1084.350, 17057.00
1085.451, 17149.00
1086.551, 16902.00
1087.652, 17048.00
1088.752, 17064.00
1089.853, 17204.00
1090.953, 17122.00
1092.053, 16965.00
1093.152, 17027.00
1094.252, 17225.00
1095.351, 17006.00
1096.451, 17309.00
1097.550, 17135.00
1098.649, 17131.00
1099.748, 17131.00
1100.846, 17057.00
1101.945, 16907.00
1103.043, 17037.00
1104.141, 17277.00
1105.239, 17149.00
1106.337, 17115.00
1107.434, 16984.00
1108.532, 17162.00
1109.629, 17221.00
1110.726, 17160.00
1111.823, 17273.00
1112.920, 17291.00
1114.017, 17252.00
1115.113, 17309.00
1116.210, 17356.00
1117.306, 17428.00
1118.402, 17451.00
1119.498, 17538.18
1120.593, 17677.00
1121.689, 17683.00
1122.784, 17705.00
1123.879, 17743.00
1124.974, 17506.00
1126.069, 17763.00
1127.164, 17559.00
1128.259, 17625.00
1129.353, 17505.00
1130.447, 17404.00
1131.541, 17466.00
1132.635, 17363.00
1133.729, 17320.00
1134.822, 17381.00
1135.916, 17263.00
1137.009, 17289.00
1138.102, 17370.00
1139.195, 17287.00
1140.288, 17406.00
1141.380, 17348.00
1142.473, 17307.00
1143.565, 17330.00
1144.657, 17502.00
1145.749, 17432.00
1146.841, 17482.00
1147.932, 17379.00
1149.024, 17448.00
1150.115, 17468.00
1151.206, 17464.00
1152.297, 17440.00
1153.388, 17400.00
1154.479, 17411.00
1155.569, 17550.00
1156.659, 17594.00
1157.750, 17578.00
1158.839, 17515.00
1159.929, 17552.00
1161.019, 17524.00
1162.108, 17537.00
1163.198, 17593.15
1164.287, 17577.00
1165.376, 17677.00
1166.465, 17830.00
1167.553, 17801.00
1168.642, 17891.12
1169.730, 17697.00
1170.818, 17930.00
1171.906, 17826.00
1172.994, 17778.00
1174.082, 17795.00
1175.170, 17972.00
1176.257, 17993.00
1177.344, 18132.00
1178.431, 18072.00
1179.518, 18193.00
1180.605, 18270.00
1181.691, 18532.00
1182.778, 18800.00
1183.864, 19084.00
1184.950, 19609.00
1186.036, 20109.00
1187.122, 20844.00
1188.207, 21293.00
1189.292, 21855.00
1190.378, 22058.00
1191.463, 21746.00
1192.548, 21191.00
1193.632, 20781.00
1194.717, 20266.00
1195.801, 19737.00
1196.886, 19238.00
1197.970, 18829.00
1199.054, 18829.00
1200.137, 18424.00
1201.221, 18431.00
1202.305, 18189.00
1203.388, 18304.00
1204.471, 17983.00
1205.554, 18099.00
1206.637, 18150.00
1207.719, 18023.00
1208.802, 17952.00
1209.884, 18057.00
1210.966, 17845.00
1212.048, 17915.00
1213.130, 18010.00
1214.212, 17875.00
1215.293, 17981.00
1216.374, 17788.00
1217.456, 17962.00
1218.536, 18006.00
1219.617, 18026.00
1220.698, 18021.00
1221.778, 17981.60
1222.859, 18026.00
1223.939, 17944.00
1225.019, 17945.00
1226.099, 18126.00
1227.178, 17862.00
1228.258, 17980.00
1229.337, 17991.00
1230.417, 17893.00
1231.496, 18022.00
1232.574, 17963.00
1233.653, 17931.00
1234.732, 18056.00
1235.810, 18145.00
1236.888, 18069.00
1237.966, 18116.00
1239.044, 18133.00
1240.122, 18126.00
1241.199, 18015.00
1242.277, 18106.00
1243.354, 18097.00
1244.431, 17996.00
1245.508, 18082.00
1246.585, 18047.00
1247.661, 18049.00
1248.738, 18084.34
1249.814, 17971.00
1250.890, 18137.00
1251.966, 18016.00
1253.042, 18068.00
1254.117, 18019.00
1255.193, 17975.00
1256.268, 18102.00
1257.343, 18234.00
1258.418, 18131.00
1259.493, 18153.00
1260.567, 18054.00
1261.642, 18106.00
1262.716, 18083.00
1263.790, 18146.00
1264.864, 18305.00
1265.938, 18199.00
1267.011, 18228.00
1268.085, 18158.00
1269.158, 18143.55
1270.231, 18186.95
1271.304, 18120.00
1272.377, 18246.00
1273.450, 18245.00
1274.522, 18203.00
1275.594, 18236.00
1276.666, 18372.00
1277.738, 18276.00
1278.810, 18363.00
1279.882, 18307.00
1280.953, 18189.00
1282.025, 18328.00
1283.096, 18185.00
1284.167, 18169.00
1285.238, 18224.00
1286.308, 18305.00
1287.379, 18290.00
1288.449, 18403.00
1289.519, 18327.00
1290.589, 18283.00
1291.659, 18305.00
1292.729, 18463.00
1293.798, 18332.00
1294.868, 18392.00
1295.937, 18398.00
1297.006, 18252.00
1298.075, 18153.00
1299.143, 18220.00
1300.212, 18290.00
1301.280, 18309.00
1302.348, 18251.00
1303.416, 18279.00
1304.484, 18343.00
1305.552, 18302.00
1306.620, 18397.00
1307.687, 18381.00
1308.754, 18460.00
1309.821, 18458.95
1310.888, 18430.00
1311.955, 18447.00
1313.021, 18473.00
1314.088, 18448.00
1315.154, 18502.00
1316.220, 18528.38
1317.286, 18552.00
1318.352, 18623.00
1319.417, 18755.00
1320.483, 18819.00
1321.548, 18824.36
1322.613, 18616.00
1323.678, 18753.00
1324.743, 18727.00
1325.807, 18604.00
1326.872, 18636.00
1327.936, 18665.00
1329.000, 18617.03
1330.064, 18653.55
1331.128, 18611.00
1332.191, 18671.00
1333.255, 18693.00
1334.318, 18706.00
1335.381, 18758.00
1336.444, 18599.00
1337.507, 18692.00
1338.569, 18714.00
1339.632, 18722.00
1340.694, 18875.00
1341.756, 19014.00
1342.818, 18711.00
1343.880, 18712.00
1344.941, 18879.00
1346.003, 18915.00
1347.064, 18952.00
1348.125, 18838.00
1349.186, 18858.00
1350.247, 18718.00
1351.308, 18950.00
1352.368, 18780.00
1353.428, 18926.00
1354.489, 18849.00
1355.549, 18971.00
1356.608, 18767.00
1357.668, 18863.00
1358.727, 19008.00
1359.787, 18911.00
1360.846, 18964.00
1361.905, 18836.00
1362.964, 18847.00
1364.022, 18842.00
1365.081, 18858.00
1366.139, 18893.34
1367.197, 18881.00
1368.255, 18927.00
1369.313, 18979.00
1370.371, 18885.00
1371.428, 18899.00
1372.486, 18936.00
1373.543, 18940.00
1374.600, 18988.00
1375.657, 18972.49
1376.713, 19007.05
1377.770, 18955.00
1378.826, 19047.00
1379.882, 19064.00
1380.938, 19066.00
1381.994, 19152.00
1383.050, 19042.00
1384.106, 18960.00
1385.161, 19179.00
1386.216, 18992.00
1387.271, 19051.00
1388.326, 19170.00
1389.381, 19047.00
1390.435, 19097.00
1391.490, 19057.00
1392.544, 19093.00
1393.598, 19008.00
1394.652, 19005.45
1395.705, 19003.00
1396.759, 18971.00
1397.812, 18951.00
1398.866, 18975.63
1399.919, 18991.54
1400.972, 19076.00
1402.024, 19101.00
1403.077, 19076.00
1404.129, 19184.00
1405.181, 19210.00
1406.233, 19273.00
1407.285, 19209.00
1408.337, 19304.00
1409.389, 19198.67
1410.440, 19412.00
1411.491, 19024.00
1412.542, 19115.00
1413.593, 19072.00
1414.644, 19339.00
1415.695, 19171.00
1416.745, 19161.00
1417.795, 19153.00
1418.845, 19128.00
1419.895, 19193.00
1420.945, 19187.58
1421.995, 19354.00
1423.044, 19266.00
1424.093, 19275.00
1425.142, 19375.00
1426.191, 19256.00
1427.240, 19469.00
1428.289, 19368.00
1429.337, 19390.00
1430.385, 19437.00
1431.433, 19507.00
1432.481, 19419.00
1433.529, 19529.00
1434.577, 19342.00
1435.624, 19538.00
1436.672, 19412.00
1437.719, 19500.00
1438.766, 19482.00
1439.812, 19606.00
1440.859, 19568.00
1441.905, 19454.00
1442.952, 19378.00
1443.998, 19459.00
1445.044, 19436.31
1446.090, 19578.00
1447.135, 19524.00
1448.181, 19629.00
1449.226, 19630.00
1450.271, 19667.00
1451.316, 19605.00
1452.361, 19429.00
1453.405, 19676.00
1454.450, 19606.00
1455.494, 19437.00
1456.538, 19534.00
1457.582, 19535.00
1458.626, 19745.00
1459.670, 19627.00
1460.713, 19669.00
1461.757, 19739.00
1462.800, 19725.00
1463.843, 19652.00
1464.886, 19716.00
1465.928, 19640.00
1466.971, 19761.00
1468.013, 19640.00
1469.055, 19591.00
1470.097, 19623.00
1471.139, 19739.00
1472.181, 19669.00
1473.222, 19700.00
1474.263, 19692.00
1475.305, 19592.00
1476.346, 19734.00
1477.386, 19801.00
1478.427, 19651.00
1479.468, 19781.00
1480.508, 19669.00
1481.548, 19824.00
1482.588, 19747.00
1483.628, 19680.00
1484.668, 19813.00
1485.707, 19836.00
1486.747, 19729.00
1487.786, 19856.00
1488.825, 19837.44
1489.864, 19996.00
1490.902, 19960.00
1491.941, 19913.00
1492.979, 20076.00
1494.017, 19944.00
1495.055, 19914.00
1496.093, 19916.00
1497.131, 19804.00
1498.168, 19991.00
1499.206, 19849.00
1500.243, 19929.00
1501.280, 19849.00
1502.317, 19897.00
1503.354, 19778.00
1504.390, 19854.00
1505.426, 19918.00
1506.463, 20097.00
1507.499, 19856.00
1508.535, 20034.00
1509.570, 20092.00
1510.606, 19955.00
1511.641, 20083.00
1512.676, 20032.00
1513.711, 19962.00
1514.746, 20132.00
1515.781, 20041.00
1516.816, 20059.00
1517.850, 20162.00
1518.884, 19934.00
1519.918, 19791.00
1520.952, 20103.00
1521.986, 19877.00
1523.019, 19910.00
1524.053, 20192.00
1525.086, 19933.00
1526.119, 20052.00
1527.152, 19975.00
1528.185, 20252.00
1529.217, 20010.00
1530.250, 19925.00
1531.282, 20156.00
1532.314, 19991.00
1533.346, 20071.00
1534.377, 20009.00
1535.409, 20031.00
1536.440, 20183.00
1537.472, 20300.00
1538.503, 20175.00
1539.534, 20135.00
1540.564, 19984.00
1541.595, 20275.00
1542.625, 20244.00
1543.656, 20238.00
1544.686, 20215.00
1545.716, 20130.00
1546.745, 20320.00
1547.775, 20328.00
1548.804, 20284.00
1549.834, 20382.00
1550.863, 20228.00
1551.892, 20216.00
1552.920, 20347.00
1553.949, 20412.00
1554.977, 20254.00
1556.006, 20423.00
1557.034, 20345.00
1558.062, 20191.00
1559.089, 20372.00
1560.117, 20276.00
1561.144, 20255.00
1562.172, 20414.00
1563.199, 20390.00
1564.226, 20198.00
1565.252, 20294.00
1566.279, 20192.00
1567.305, 20273.00
1568.332, 20205.00
1569.358, 20160.00
1570.384, 20397.00
1571.409, 20482.00
1572.435, 20431.00
##END=



