##NAMES=Diaspore
##RRUFFID=R060546
##IDEAL CHEMISTRY=AlO(OH)
##LOCALITY=Turkey
##OWNER=RRUFF
##SOURCE=Gemological Institute of America
##DESCRIPTION=Platy transparent pale yellow fragment
##STATUS=The identification of this mineral has been confirmed by X-ray diffraction and chemical analysis
##URL=rruff.info/R060546
##MEASURED CHEMISTRY=(Al_0.99_Fe^3+^_0.01_)_Î£=1_O(OH) ; OH estimated by difference; Fe^3+^ by charge balance
##PIN_ID=L01871
##ORIENTATION=Laser parallel to a* (1 0 0). Fiducial mark perpendicular to laser is parallel to b [0 1 0]
132.8980, 8068.000
134.1270, 8147.000
135.3560, 8091.000
136.5850, 8251.000
137.8140, 8278.000
139.0430, 8500.000
140.2710, 8505.000
141.5000, 8638.000
142.7280, 9004.000
143.9560, 9457.000
145.1840, 10122.00
146.4120, 10681.00
147.6390, 10825.00
148.8670, 11333.00
150.0940, 12680.00
151.3210, 14587.00
152.5490, 17020.00
153.7750, 17179.00
155.0020, 14935.00
156.2290, 13368.00
157.4550, 12292.00
158.6810, 11489.00
159.9080, 10719.00
161.1340, 10019.00
162.3590, 9560.054
163.5850, 9148.000
164.8110, 8937.000
166.0360, 8837.000
167.2610, 8854.000
168.4860, 8759.000
169.7110, 8841.000
170.9360, 8731.000
172.1610, 8937.000
173.3850, 8833.000
174.6100, 8857.000
175.8340, 8841.000
177.0580, 8857.000
178.2820, 8834.000
179.5050, 8793.000
180.7290, 8945.000
181.9520, 8833.000
183.1760, 8964.000
184.3990, 9035.000
185.6220, 8979.000
186.8450, 9027.000
188.0670, 9084.000
189.2900, 9128.000
190.5120, 9006.000
191.7340, 9051.000
192.9560, 9039.000
194.1780, 9105.000
195.4000, 9182.000
196.6220, 9134.000
197.8430, 9179.000
199.0640, 9173.000
200.2860, 9323.000
201.5070, 9189.000
202.7270, 9257.000
203.9480, 9308.000
205.1690, 9187.000
206.3890, 9268.000
207.6090, 9286.000
208.8290, 9276.000
210.0490, 9238.000
211.2690, 9289.000
212.4890, 9336.000
213.7080, 9332.000
214.9280, 9337.000
216.1470, 9415.000
217.3660, 9385.000
218.5850, 9289.000
219.8030, 9389.000
221.0220, 9429.000
222.2400, 9367.000
223.4590, 9587.000
224.6770, 9421.000
225.8950, 9403.000
227.1120, 9381.000
228.3300, 9482.000
229.5480, 9403.000
230.7650, 9525.000
231.9820, 9469.000
233.1990, 9550.000
234.4160, 9601.000
235.6330, 9452.000
236.8490, 9634.000
238.0660, 9780.000
239.2820, 9594.000
240.4980, 9658.000
241.7140, 9655.000
242.9300, 9724.000
244.1460, 9717.000
245.3610, 9812.000
246.5770, 9707.000
247.7920, 9729.000
249.0070, 9626.000
250.2220, 9800.000
251.4370, 9753.000
252.6510, 9845.000
253.8660, 9875.000
255.0800, 9861.000
256.2940, 9777.000
257.5080, 9989.000
258.7220, 9970.000
259.9360, 10099.00
261.1490, 10149.00
262.3630, 10128.59
263.5760, 9890.000
264.7890, 10048.00
266.0020, 10083.00
267.2150, 9957.000
268.4270, 10062.00
269.6400, 10012.00
270.8520, 10049.00
272.0640, 10158.00
273.2760, 10183.00
274.4880, 10176.00
275.7000, 10296.00
276.9120, 10248.00
278.1230, 10504.00
279.3340, 10508.00
280.5450, 10729.00
281.7560, 10975.00
282.9670, 11023.00
284.1780, 11703.00
285.3880, 12074.00
286.5980, 12147.00
287.8090, 12451.00
289.0190, 12010.00
290.2290, 11611.00
291.4380, 11334.00
292.6480, 11090.00
293.8570, 10971.00
295.0670, 10712.00
296.2760, 10466.00
297.4850, 10451.00
298.6930, 10467.00
299.9020, 10525.00
301.1110, 10494.00
302.3190, 10447.00
303.5270, 10414.00
304.7350, 10317.00
305.9430, 10432.00
307.1510, 10462.00
308.3580, 10472.00
309.5660, 10606.00
310.7730, 10544.00
311.9800, 10445.00
313.1870, 10479.00
314.3940, 10465.88
315.6010, 10595.00
316.8070, 10523.00
318.0130, 10634.00
319.2200, 10643.00
320.4260, 10767.00
321.6310, 10915.00
322.8370, 11103.00
324.0430, 11184.00
325.2480, 11290.00
326.4540, 11594.00
327.6590, 11899.00
328.8640, 12205.00
330.0680, 12434.00
331.2730, 12223.00
332.4780, 12069.00
333.6820, 11854.00
334.8860, 11689.00
336.0900, 11414.00
337.2940, 11199.00
338.4980, 11108.00
339.7010, 11087.00
340.9050, 11185.00
342.1080, 10972.00
343.3110, 11040.00
344.5140, 10981.00
345.7170, 10928.00
346.9200, 10926.00
348.1220, 11012.00
349.3240, 11072.00
350.5270, 11022.00
351.7290, 11083.00
352.9310, 11094.53
354.1320, 11057.64
355.3340, 11122.00
356.5350, 11099.00
357.7370, 11066.00
358.9380, 11306.00
360.1390, 11218.00
361.3400, 11200.00
362.5400, 11234.00
363.7410, 11530.00
364.9410, 11384.00
366.1410, 11504.00
367.3410, 11420.00
368.5410, 11380.00
369.7410, 11517.00
370.9400, 11364.00
372.1400, 11368.00
373.3390, 11412.00
374.5380, 11291.00
375.7370, 11380.00
376.9360, 11263.00
378.1350, 11230.00
379.3330, 11401.00
380.5310, 11250.00
381.7300, 11360.00
382.9280, 11404.00
384.1260, 11410.00
385.3230, 11409.00
386.5210, 11467.00
387.7180, 11539.79
388.9160, 11662.00
390.1130, 11786.00
391.3100, 11958.00
392.5060, 12179.00
393.7030, 12163.20
394.9000, 12293.00
396.0960, 12092.00
397.2920, 12132.00
398.4880, 11971.00
399.6840, 11800.00
400.8800, 11790.00
402.0750, 11726.00
403.2710, 11862.00
404.4660, 11868.00
405.6610, 11812.00
406.8560, 11602.00
408.0510, 11771.00
409.2450, 11639.00
410.4400, 11761.00
411.6340, 11849.00
412.8280, 11676.00
414.0220, 11947.00
415.2160, 11957.00
416.4100, 11912.00
417.6030, 11985.00
418.7970, 12078.00
419.9900, 11918.00
421.1830, 11970.00
422.3760, 11963.00
423.5690, 12237.00
424.7610, 12332.00
425.9540, 12328.00
427.1460, 12417.00
428.3380, 12577.00
429.5300, 12607.00
430.7220, 12909.00
431.9140, 13084.00
433.1050, 13561.00
434.2970, 13996.00
435.4880, 14651.00
436.6790, 16034.00
437.8700, 17904.00
439.0610, 21157.00
440.2510, 24843.00
441.4420, 28296.00
442.6320, 32145.00
443.8220, 39003.00
445.0120, 48546.00
446.2020, 57134.00
447.3910, 56755.00
448.5810, 48926.00
449.7700, 40762.00
450.9600, 34413.00
452.1490, 29419.00
453.3370, 24204.00
454.5260, 20430.00
455.7150, 17451.00
456.9030, 15742.00
458.0910, 14786.00
459.2800, 14309.00
460.4670, 13688.00
461.6550, 13446.00
462.8430, 13309.00
464.0300, 13148.00
465.2180, 13047.00
466.4050, 12965.00
467.5920, 12982.00
468.7790, 12830.00
469.9650, 12866.00
471.1520, 12796.00
472.3380, 12889.00
473.5250, 12819.00
474.7110, 12625.00
475.8970, 12667.00
477.0820, 12742.00
478.2680, 12795.00
479.4540, 12781.00
480.6390, 12656.00
481.8240, 12764.00
483.0090, 12762.00
484.1940, 12899.00
485.3780, 12797.00
486.5630, 12812.00
487.7470, 12829.00
488.9320, 13059.00
490.1160, 13110.00
491.3000, 13270.00
492.4830, 13352.00
493.6670, 13447.00
494.8500, 13832.00
496.0340, 14310.00
497.2170, 14513.00
498.4000, 14403.00
499.5820, 14099.00
500.7650, 13659.00
501.9480, 13538.00
503.1300, 13415.00
504.3120, 13104.00
505.4940, 13040.00
506.6760, 12958.00
507.8580, 12946.00
509.0390, 12990.00
510.2210, 12999.00
511.4020, 12935.90
512.5830, 12960.00
513.7640, 12821.00
514.9450, 12758.00
516.1250, 12759.00
517.3060, 12860.00
518.4860, 12796.00
519.6660, 12934.00
520.8460, 12941.00
522.0260, 12972.00
523.2060, 13124.00
524.3850, 13014.00
525.5650, 12965.00
526.7440, 13045.00
527.9230, 12986.00
529.1020, 13161.00
530.2810, 13227.00
531.4590, 13071.00
532.6380, 12925.00
533.8160, 13144.00
534.9940, 12984.00
536.1720, 13127.00
537.3500, 13097.00
538.5270, 13089.00
539.7050, 13120.00
540.8820, 13135.00
542.0590, 13275.00
543.2360, 13182.00
544.4130, 13217.00
545.5900, 13112.00
546.7660, 13170.00
547.9430, 13320.00
549.1190, 13203.00
550.2950, 13362.00
551.4710, 13331.00
552.6470, 13349.00
553.8220, 13307.00
554.9980, 13396.00
556.1730, 13404.00
557.3480, 13345.00
558.5230, 13607.00
559.6980, 13330.00
560.8730, 13378.00
562.0470, 13438.00
563.2220, 13593.00
564.3960, 13590.00
565.5700, 13554.00
566.7440, 13534.00
567.9170, 13475.00
569.0910, 13427.00
570.2640, 13603.00
571.4380, 13451.00
572.6110, 13682.00
573.7840, 13734.00
574.9570, 13954.00
576.1290, 14027.00
577.3020, 14067.00
578.4740, 14128.00
579.6460, 14213.00
580.8180, 14614.00
581.9900, 14729.00
583.1620, 14735.00
584.3330, 14381.00
585.5040, 14464.00
586.6760, 14177.00
587.8470, 14202.00
589.0180, 13959.00
590.1880, 14157.00
591.3590, 14177.00
592.5290, 14105.00
593.7000, 14142.00
594.8700, 14393.00
596.0400, 14288.00
597.2090, 14597.00
598.3790, 14839.00
599.5490, 14651.00
600.7180, 15225.00
601.8870, 15503.00
603.0560, 15876.00
604.2250, 16302.00
605.3940, 16441.00
606.5620, 16791.00
607.7300, 16881.00
608.8990, 17055.00
610.0670, 16729.00
611.2350, 16664.00
612.4020, 16264.00
613.5700, 15690.00
614.7370, 15497.00
615.9050, 15319.00
617.0720, 15004.00
618.2390, 14974.00
619.4060, 14763.00
620.5720, 14675.00
621.7390, 14634.00
622.9050, 14685.00
624.0710, 14517.00
625.2370, 14570.00
626.4030, 14542.00
627.5690, 14500.00
628.7340, 14393.00
629.9000, 14424.00
631.0650, 14459.00
632.2300, 14500.00
633.3950, 14492.97
634.5600, 14514.91
635.7240, 14484.00
636.8890, 14547.00
638.0530, 14567.00
639.2170, 14637.00
640.3810, 14714.00
641.5450, 14659.00
642.7080, 14687.00
643.8720, 14801.00
645.0350, 15041.00
646.1980, 15059.00
647.3610, 15294.00
648.5240, 15193.00
649.6870, 15379.00
650.8490, 15412.00
652.0120, 15433.00
653.1740, 15616.00
654.3360, 15949.00
655.4980, 16246.00
656.6600, 16579.00
657.8210, 17010.00
658.9830, 17556.00
660.1440, 17953.00
661.3050, 18441.00
662.4660, 18990.00
663.6270, 19391.00
664.7870, 19514.00
665.9480, 19644.00
667.1080, 19327.00
668.2680, 19004.00
669.4280, 18326.00
670.5880, 17922.00
671.7480, 17405.00
672.9070, 17164.00
674.0670, 16675.00
675.2260, 16381.00
676.3850, 15963.00
677.5440, 15993.00
678.7030, 15618.00
679.8610, 15526.00
681.0200, 15336.00
682.1780, 15197.00
683.3360, 15130.00
684.4940, 15129.00
685.6520, 15173.00
686.8090, 14939.00
687.9670, 15080.00
689.1240, 15004.00
690.2810, 15095.00
691.4380, 15064.00
692.5950, 14972.00
693.7520, 14930.00
694.9080, 14930.00
696.0650, 15111.00
697.2210, 14900.00
698.3770, 14937.00
699.5330, 14920.00
700.6880, 14794.00
701.8440, 15029.00
702.9990, 15031.00
704.1550, 15022.00
705.3100, 14783.00
706.4650, 15051.00
707.6190, 14974.00
708.7740, 15133.00
709.9290, 14927.00
711.0830, 15061.00
712.2370, 14990.00
713.3910, 15137.00
714.5450, 15137.00
715.6980, 15147.00
716.8520, 15023.00
718.0050, 15263.00
719.1580, 15100.00
720.3110, 15101.00
721.4640, 15190.00
722.6170, 15053.00
723.7700, 15200.00
724.9220, 15123.00
726.0740, 15096.00
727.2260, 15062.00
728.3780, 15145.00
729.5300, 15164.00
730.6810, 15102.00
731.8330, 15272.00
732.9840, 15148.00
734.1350, 15048.00
735.2860, 15308.00
736.4370, 15275.00
737.5880, 15159.00
738.7380, 15295.00
739.8880, 15328.00
741.0390, 15252.00
742.1890, 15367.00
743.3380, 15248.00
744.4880, 15260.00
745.6380, 15294.00
746.7870, 15401.00
747.9360, 15399.24
749.0850, 15308.00
750.2340, 15455.00
751.3830, 15411.00
752.5310, 15432.00
753.6800, 15508.00
754.8280, 15441.00
755.9760, 15473.00
757.1240, 15332.00
758.2720, 15642.00
759.4190, 15584.00
760.5670, 15626.00
761.7140, 15551.00
762.8610, 15507.00
764.0080, 15808.00
765.1550, 15764.00
766.3020, 15785.00
767.4480, 15682.00
768.5950, 15919.00
769.7410, 15853.00
770.8870, 15932.00
772.0330, 16110.00
773.1780, 16235.00
774.3240, 16281.00
775.4690, 16392.00
776.6140, 16576.00
777.7590, 16533.00
778.9040, 16877.00
780.0490, 17133.00
781.1940, 17201.00
782.3380, 17478.00
783.4820, 17908.00
784.6260, 18260.00
785.7700, 18347.00
786.9140, 18921.00
788.0580, 19208.00
789.2010, 19686.00
790.3450, 19780.00
791.4880, 19835.00
792.6310, 19776.00
793.7730, 19657.00
794.9160, 19153.00
796.0590, 18975.00
797.2010, 18547.00
798.3430, 18367.00
799.4850, 17828.00
800.6270, 17687.00
801.7690, 17257.00
802.9100, 16995.00
804.0520, 16723.00
805.1930, 16585.29
806.3340, 16617.00
807.4750, 16432.00
808.6160, 16392.00
809.7560, 16288.00
810.8970, 16199.50
812.0370, 16159.00
813.1770, 16076.00
814.3170, 16083.00
815.4570, 16063.00
816.5960, 16021.00
817.7360, 16073.00
818.8750, 16161.00
820.0140, 15982.00
821.1530, 16037.00
822.2920, 16092.00
823.4310, 15938.00
824.5690, 16002.00
825.7070, 16016.00
826.8460, 16049.00
827.9840, 16140.00
829.1220, 16042.00
830.2590, 16056.00
831.3970, 16147.00
832.5340, 15997.00
833.6710, 16076.00
834.8080, 15878.00
835.9450, 15982.00
837.0820, 15942.00
838.2190, 15871.00
839.3550, 16014.00
840.4910, 15890.00
841.6270, 16008.00
842.7630, 15996.00
843.8990, 16019.00
845.0350, 16186.00
846.1700, 16105.00
847.3060, 15941.00
848.4410, 16187.00
849.5760, 16087.00
850.7100, 16059.00
851.8450, 16087.00
852.9800, 16030.00
854.1140, 16085.00
855.2480, 16062.86
856.3820, 16176.00
857.5160, 16124.00
858.6500, 16057.00
859.7830, 16233.00
860.9170, 16108.00
862.0500, 16104.00
863.1830, 16217.00
864.3160, 16125.00
865.4480, 16216.00
866.5810, 16194.00
867.7130, 16049.00
868.8460, 16286.00
869.9780, 16257.00
871.1100, 16262.00
872.2410, 16122.00
873.3730, 16197.00
874.5050, 16298.00
875.6360, 16205.00
876.7670, 16308.00
877.8980, 16269.00
879.0290, 16193.00
880.1590, 16143.00
881.2900, 16333.00
882.4200, 16202.00
883.5500, 16284.00
884.6800, 16335.00
885.8100, 16251.00
886.9400, 16335.00
888.0690, 16362.00
889.1990, 16296.00
890.3280, 16312.00
891.4570, 16347.00
892.5860, 16329.00
893.7140, 16420.00
894.8430, 16277.00
895.9710, 16323.00
897.1000, 16452.00
898.2280, 16396.00
899.3560, 16529.00
900.4830, 16545.00
901.6110, 16488.00
902.7380, 16344.00
903.8660, 16541.00
904.9930, 16459.00
906.1200, 16590.00
907.2460, 16393.00
908.3730, 16434.00
909.5000, 16647.00
910.6260, 16522.00
911.7520, 16576.00
912.8780, 16787.00
914.0040, 16511.00
915.1290, 16442.00
916.2550, 16656.00
917.3800, 16693.00
918.5050, 16514.00
919.6300, 16650.00
920.7550, 16732.00
921.8800, 16470.00
923.0040, 16679.00
924.1290, 16592.00
925.2530, 16696.00
926.3770, 16630.00
927.5010, 16580.00
928.6250, 16686.00
929.7480, 16695.00
930.8720, 16741.00
931.9950, 16732.00
933.1180, 16785.00
934.2410, 16797.00
935.3640, 16699.00
936.4860, 16537.00
937.6090, 16551.00
938.7310, 16681.00
939.8530, 16673.00
940.9750, 16744.00
942.0970, 16719.00
943.2180, 16745.00
944.3400, 16799.00
945.4610, 16829.00
946.5820, 16874.16
947.7030, 16890.00
948.8240, 16914.00
949.9450, 16939.00
951.0650, 16852.00
952.1860, 16920.00
953.3060, 16976.00
954.4260, 16884.00
955.5460, 17043.00
956.6650, 17010.00
957.7850, 17007.00
958.9040, 16980.00
960.0230, 17005.00
961.1420, 17020.00
962.2610, 17031.00
963.3800, 17000.00
964.4990, 17111.00
965.6170, 17148.00
966.7350, 17078.00
967.8530, 17014.00
968.9710, 17028.00
970.0890, 17052.00
971.2070, 17042.02
972.3240, 17095.55
973.4410, 17056.00
974.5580, 17186.00
975.6750, 17161.00
976.7920, 17188.00
977.9090, 17327.00
979.0250, 17202.00
980.1410, 17248.00
981.2580, 17346.00
982.3740, 17439.00
983.4890, 17314.00
984.6050, 17354.00
985.7200, 17289.00
986.8360, 17436.00
987.9510, 17343.00
989.0660, 17360.00
990.1810, 17424.00
991.2950, 17311.00
992.4100, 17297.00
993.5240, 17306.00
994.6390, 17309.00
995.7530, 17327.34
996.8660, 17601.00
997.9800, 17416.00
999.0940, 17462.00
1000.207, 17591.00
1001.320, 17409.00
1002.433, 17557.00
1003.546, 17549.00
1004.659, 17298.00
1005.772, 17391.00
1006.884, 17418.00
1007.996, 17542.00
1009.108, 17655.00
1010.220, 17530.00
1011.332, 17554.00
1012.444, 17487.00
1013.555, 17461.00
1014.666, 17585.00
1015.777, 17465.00
1016.888, 17538.00
1017.999, 17626.00
1019.110, 17542.00
1020.220, 17626.00
1021.331, 17513.00
1022.441, 17581.00
1023.551, 17504.00
1024.661, 17773.00
1025.770, 17727.00
1026.880, 17688.00
1027.989, 17571.00
1029.098, 17727.00
1030.207, 17722.00
1031.316, 17606.00
1032.425, 17722.00
1033.533, 17639.00
1034.642, 17733.00
1035.750, 17499.00
1036.858, 17775.00
1037.966, 17857.00
1039.073, 17770.00
1040.181, 17649.00
1041.288, 17879.00
1042.396, 17815.00
1043.503, 17957.00
1044.610, 17980.15
1045.716, 17965.00
1046.823, 17992.00
1047.929, 17885.00
1049.036, 17853.00
1050.142, 17835.00
1051.248, 17887.00
1052.353, 18017.00
1053.459, 17738.00
1054.564, 18004.00
1055.670, 17932.00
1056.775, 17911.00
1057.880, 18059.00
1058.985, 17939.00
1060.089, 17709.00
1061.194, 17867.00
1062.298, 17889.00
1063.402, 17992.00
1064.506, 18034.00
1065.610, 17908.00
1066.713, 18089.00
1067.817, 18012.00
1068.920, 18016.00
1070.023, 18044.00
1071.126, 18145.00
1072.229, 18001.00
1073.332, 18017.00
1074.435, 18174.00
1075.537, 18006.00
1076.639, 18124.00
1077.741, 17899.00
1078.843, 18043.00
1079.945, 18103.00
1081.046, 18144.00
1082.148, 17938.00
1083.249, 18091.00
1084.350, 18057.00
1085.451, 18078.00
1086.551, 18285.00
1087.652, 17990.00
1088.752, 18318.00
1089.853, 18238.00
1090.953, 18112.00
1092.053, 18352.00
1093.152, 18182.00
1094.252, 18094.00
1095.351, 18243.00
1096.451, 18300.00
1097.550, 18237.00
1098.649, 18216.00
1099.748, 18228.25
1100.846, 18124.00
1101.945, 18234.00
1103.043, 18164.00
1104.141, 18185.00
1105.239, 18200.84
1106.337, 18294.00
1107.434, 18199.00
1108.532, 18241.00
1109.629, 18238.00
1110.726, 18365.00
1111.823, 18330.00
1112.920, 18294.00
1114.017, 18286.00
1115.113, 18534.00
1116.210, 18435.00
1117.306, 18520.00
1118.402, 18680.00
1119.498, 18662.00
1120.593, 18734.00
1121.689, 18844.00
1122.784, 18816.00
1123.879, 18848.20
1124.974, 18800.00
1126.069, 18778.00
1127.164, 18711.00
1128.259, 18590.00
1129.353, 18562.00
1130.447, 18507.00
1131.541, 18491.00
1132.635, 18450.00
1133.729, 18532.00
1134.822, 18494.00
1135.916, 18486.00
1137.009, 18528.00
1138.102, 18476.00
1139.195, 18497.25
1140.288, 18505.27
1141.380, 18502.00
1142.473, 18546.00
1143.565, 18560.00
1144.657, 18559.21
1145.749, 18565.00
1146.841, 18562.00
1147.932, 18568.00
1149.024, 18583.69
1150.115, 18477.00
1151.206, 18655.00
1152.297, 18635.00
1153.388, 18654.00
1154.479, 18783.00
1155.569, 18669.00
1156.659, 18725.00
1157.750, 18742.00
1158.839, 18735.00
1159.929, 18970.00
1161.019, 18844.00
1162.108, 18858.00
1163.198, 18743.00
1164.287, 18705.00
1165.376, 18892.00
1166.465, 18817.00
1167.553, 18931.00
1168.642, 19029.00
1169.730, 18957.00
1170.818, 18959.00
1171.906, 19085.00
1172.994, 19080.00
1174.082, 19236.00
1175.170, 19149.00
1176.257, 19244.00
1177.344, 19294.00
1178.431, 19487.00
1179.518, 19674.34
1180.605, 19869.55
1181.691, 20133.00
1182.778, 20420.00
1183.864, 20596.00
1184.950, 21012.00
1186.036, 21561.00
1187.122, 22339.00
1188.207, 22892.00
1189.292, 23517.00
1190.378, 23992.00
1191.463, 24426.00
1192.548, 24606.00
1193.632, 24768.00
1194.717, 24465.00
1195.801, 23922.00
1196.886, 23228.00
1197.970, 22297.00
1199.054, 21661.00
1200.137, 21314.00
1201.221, 20673.00
1202.305, 20431.00
1203.388, 20120.00
1204.471, 19775.00
1205.554, 19766.00
1206.637, 19625.00
1207.719, 19519.00
1208.802, 19561.00
1209.884, 19381.00
1210.966, 19322.00
1212.048, 19198.00
1213.130, 19365.00
1214.212, 19331.00
1215.293, 19443.00
1216.374, 19227.00
1217.456, 19358.00
1218.536, 19255.00
1219.617, 19124.00
1220.698, 19064.00
1221.778, 19123.00
1222.859, 19218.00
1223.939, 19230.00
1225.019, 19251.22
1226.099, 19106.00
1227.178, 19241.00
1228.258, 19196.00
1229.337, 19195.00
1230.417, 19235.00
1231.496, 19216.00
1232.574, 19228.26
1233.653, 19171.00
1234.732, 19262.00
1235.810, 19113.00
1236.888, 19187.00
1237.966, 19350.00
1239.044, 19163.00
1240.122, 19206.00
1241.199, 19314.00
1242.277, 19228.00
1243.354, 19291.00
1244.431, 19193.00
1245.508, 19190.00
1246.585, 19223.00
1247.661, 19267.00
1248.738, 19327.00
1249.814, 19369.00
1250.890, 19245.00
1251.966, 19238.00
1253.042, 19469.00
1254.117, 19324.00
1255.193, 19139.00
1256.268, 19414.00
1257.343, 19323.00
1258.418, 19380.00
1259.493, 19246.00
1260.567, 19249.00
1261.642, 19329.00
1262.716, 19286.00
1263.790, 19400.00
1264.864, 19409.00
1265.938, 19464.00
1267.011, 19342.00
1268.085, 19292.00
1269.158, 19352.00
1270.231, 19232.00
1271.304, 19281.00
1272.377, 19606.00
1273.450, 19406.00
1274.522, 19615.00
1275.594, 19606.00
1276.666, 19408.00
1277.738, 19562.00
1278.810, 19331.00
1279.882, 19307.00
1280.953, 19327.00
1282.025, 19392.00
1283.096, 19405.00
1284.167, 19392.00
1285.238, 19556.00
1286.308, 19565.00
1287.379, 19481.00
1288.449, 19481.00
1289.519, 19618.00
1290.589, 19566.00
1291.659, 19531.00
1292.729, 19465.00
1293.798, 19414.00
1294.868, 19690.00
1295.937, 19557.00
1297.006, 19745.00
1298.075, 19592.00
1299.143, 19527.00
1300.212, 19638.00
1301.280, 19630.00
1302.348, 19426.00
1303.416, 19791.00
1304.484, 19440.00
1305.552, 19626.00
1306.620, 19649.00
1307.687, 19633.00
1308.754, 19631.00
1309.821, 19718.00
1310.888, 19542.00
1311.955, 19925.00
1313.021, 19633.00
1314.088, 19940.00
1315.154, 19843.00
1316.220, 19659.00
1317.286, 19850.00
1318.352, 19918.00
1319.417, 19696.00
1320.483, 19795.00
1321.548, 19713.00
1322.613, 19883.00
1323.678, 19786.00
1324.743, 19827.00
1325.807, 19862.00
1326.872, 19797.00
1327.936, 19961.00
1329.000, 19886.00
1330.064, 19909.00
1331.128, 19880.00
1332.191, 19731.00
1333.255, 19977.00
1334.318, 20067.00
1335.381, 19993.00
1336.444, 19931.00
1337.507, 19773.00
1338.569, 19789.89
1339.632, 19804.00
1340.694, 19782.00
1341.756, 20026.00
1342.818, 20046.00
1343.880, 20136.00
1344.941, 20021.00
1346.003, 20058.00
1347.064, 20039.00
1348.125, 19961.00
1349.186, 19984.00
1350.247, 20002.00
1351.308, 20004.00
1352.368, 20106.00
1353.428, 20027.00
1354.489, 19966.00
1355.549, 20148.00
1356.608, 19928.00
1357.668, 20099.00
1358.727, 20228.00
1359.787, 20108.00
1360.846, 20099.00
1361.905, 19933.00
1362.964, 20060.00
1364.022, 20183.00
1365.081, 20197.00
1366.139, 19997.00
1367.197, 20140.00
1368.255, 20133.00
1369.313, 20018.00
1370.371, 20137.00
1371.428, 20126.00
1372.486, 20157.00
1373.543, 20190.00
1374.600, 20175.00
1375.657, 20159.00
1376.713, 20125.00
1377.770, 20085.00
1378.826, 20228.00
1379.882, 20089.00
1380.938, 20068.00
1381.994, 20223.00
1383.050, 20183.00
1384.106, 20286.00
1385.161, 20209.00
1386.216, 20113.00
1387.271, 20184.00
1388.326, 20131.06
1389.381, 20302.00
1390.435, 20198.00
1391.490, 20234.00
1392.544, 20379.00
1393.598, 20269.00
1394.652, 20276.00
1395.705, 20356.00
1396.759, 20155.00
1397.812, 20255.00
1398.866, 20125.00
1399.919, 20168.04
1400.972, 20343.00
1402.024, 20353.00
1403.077, 20346.00
1404.129, 20611.00
1405.181, 20506.00
1406.233, 20366.00
1407.285, 20502.00
1408.337, 20401.00
1409.389, 20421.00
1410.440, 20509.00
1411.491, 20382.00
1412.542, 20351.00
1413.593, 20491.00
1414.644, 20527.00
1415.695, 20707.00
1416.745, 20299.00
1417.795, 20461.00
1418.845, 20558.00
1419.895, 20378.00
1420.945, 20552.00
1421.995, 20529.00
1423.044, 20559.00
1424.093, 20410.00
1425.142, 20487.00
1426.191, 20523.00
1427.240, 20497.00
1428.289, 20630.00
1429.337, 20592.00
1430.385, 20528.00
1431.433, 20649.00
1432.481, 20527.00
1433.529, 20478.00
1434.577, 20540.00
1435.624, 20525.00
1436.672, 20635.00
1437.719, 20521.00
1438.766, 20688.00
1439.812, 20702.00
1440.859, 20611.00
1441.905, 20908.00
1442.952, 20517.00
1443.998, 20766.00
1445.044, 20612.00
1446.090, 20662.00
1447.135, 20901.00
1448.181, 20635.00
1449.226, 20757.00
1450.271, 20729.00
1451.316, 20929.00
1452.361, 20884.00
1453.405, 20849.00
1454.450, 20730.00
1455.494, 20787.00
1456.538, 20972.00
1457.582, 20867.00
1458.626, 20807.00
1459.670, 20935.00
1460.713, 20828.00
1461.757, 20931.00
1462.800, 20765.00
1463.843, 20852.00
1464.886, 20859.00
1465.928, 20669.00
1466.971, 20937.00
1468.013, 20986.00
1469.055, 20687.00
1470.097, 20846.00
1471.139, 20941.00
1472.181, 20764.00
1473.222, 20789.00
1474.263, 20938.00
1475.305, 20964.00
1476.346, 20880.00
1477.386, 21117.00
1478.427, 20723.00
1479.468, 20995.00
1480.508, 20908.00
1481.548, 20908.00
1482.588, 20875.00
1483.628, 20893.54
1484.668, 20865.00
1485.707, 20941.00
1486.747, 21003.00
1487.786, 20969.00
1488.825, 20820.00
1489.864, 20988.50
1490.902, 21226.00
1491.941, 21190.00
1492.979, 21012.00
1494.017, 21007.00
1495.055, 21012.00
1496.093, 21151.00
1497.131, 21007.00
1498.168, 21121.00
1499.206, 21060.00
1500.243, 21189.00
1501.280, 21044.00
1502.317, 21102.00
1503.354, 21376.00
1504.390, 20983.00
1505.426, 21205.00
1506.463, 21219.00
1507.499, 21042.00
1508.535, 21365.00
1509.570, 21183.00
1510.606, 21211.00
1511.641, 21172.00
1512.676, 21057.00
1513.711, 21288.00
1514.746, 21191.00
1515.781, 21185.00
1516.816, 21154.00
1517.850, 21183.00
1518.884, 21393.00
1519.918, 21200.00
1520.952, 21094.00
1521.986, 21390.00
1523.019, 21127.00
1524.053, 21316.00
1525.086, 21090.00
1526.119, 21371.00
1527.152, 21246.00
1528.185, 21227.00
1529.217, 21321.00
1530.250, 21378.00
1531.282, 21315.00
1532.314, 21388.00
1533.346, 21257.00
1534.377, 21359.00
1535.409, 21359.00
1536.440, 21381.00
1537.472, 21333.00
1538.503, 21600.00
1539.534, 21453.00
1540.564, 21192.00
1541.595, 21434.00
1542.625, 21378.00
1543.656, 21486.00
1544.686, 21443.00
1545.716, 21524.00
1546.745, 21513.00
1547.775, 21368.00
1548.804, 21656.00
1549.834, 21679.00
1550.863, 21501.00
1551.892, 21431.00
1552.920, 21458.30
1553.949, 21432.11
1554.977, 21498.00
1556.006, 21603.00
1557.034, 21602.00
1558.062, 21581.03
1559.089, 21770.00
1560.117, 21453.00
1561.144, 21520.00
1562.172, 21463.00
1563.199, 21634.00
1564.226, 21707.00
1565.252, 21647.00
1566.279, 21689.00
1567.305, 21657.00
1568.332, 21665.00
1569.358, 21750.00
1570.384, 21406.00
1571.409, 21622.00
1572.435, 21687.00
##END=



