##NAMES=Diopside
##RRUFFID=R050406
##IDEAL CHEMISTRY=CaMgSi_2_O_6_
##LOCALITY=unknown
##OWNER=RRUFF
##SOURCE=University of Arizona Mineral Museum
##DESCRIPTION=Brownish gray massive
##STATUS=The identification of this mineral has been confirmed by X-ray diffraction and chemical analysis
##URL=rruff.info/R050406
##MEASURED CHEMISTRY=(Ca_0.95_Na_0.05_)(Mg_0.75_Fe^2+^_0.18_Fe^3+^_0.05_Al_0.01_Ti_0.01_Mn^2+^_0.01_)(Si_0.98_Al_0.02_)_2_O_6_
##PIN_ID=M00086
##ORIENTATION=Laser parallel to c* (0 0 1). Fiducial mark perpendicular to laser is parallel to a [1 0 0]
116.9030, 6554.000
118.1340, 6406.000
119.3650, 6317.000
120.5960, 6278.000
121.8270, 6362.000
123.0580, 6435.000
124.2880, 6385.000
125.5190, 6276.000
126.7490, 6264.000
127.9790, 6321.000
129.2090, 6427.000
130.4390, 6483.000
131.6680, 6558.000
132.8980, 6588.000
134.1270, 6642.000
135.3560, 6706.000
136.5850, 6720.000
137.8140, 6997.000
139.0430, 7139.000
140.2710, 7329.000
141.5000, 7181.000
142.7280, 7148.000
143.9560, 7211.000
145.1840, 7073.000
146.4120, 7091.000
147.6390, 7001.000
148.8670, 6944.000
150.0940, 7018.000
151.3210, 6974.617
152.5490, 6954.000
153.7750, 6976.000
155.0020, 6978.000
156.2290, 6989.299
157.4550, 7108.000
158.6810, 7039.000
159.9080, 7085.000
161.1340, 7147.000
162.3590, 7402.000
163.5850, 7453.000
164.8110, 7595.000
166.0360, 7782.000
167.2610, 7782.000
168.4860, 7817.698
169.7110, 7690.000
170.9360, 7746.000
172.1610, 7639.000
173.3850, 7605.000
174.6100, 7519.000
175.8340, 7552.000
177.0580, 7598.000
178.2820, 7781.000
179.5050, 7793.000
180.7290, 7893.000
181.9520, 8099.000
183.1760, 8231.000
184.3990, 8187.000
185.6220, 8206.000
186.8450, 8176.000
188.0670, 8305.000
189.2900, 8413.000
190.5120, 8522.000
191.7340, 8767.000
192.9560, 9167.000
194.1780, 9307.000
195.4000, 9461.000
196.6220, 9266.000
197.8430, 9129.000
199.0640, 9070.000
200.2860, 8846.000
201.5070, 8678.000
202.7270, 8430.000
203.9480, 8053.000
205.1690, 8025.000
206.3890, 7695.000
207.6090, 7651.000
208.8290, 7625.000
210.0490, 7601.000
211.2690, 7614.000
212.4890, 7611.305
213.7080, 7630.000
214.9280, 7660.000
216.1470, 7685.000
217.3660, 7753.000
218.5850, 7581.000
219.8030, 7645.000
221.0220, 7709.000
222.2400, 7794.000
223.4590, 7864.000
224.6770, 7976.000
225.8950, 8046.000
227.1120, 8103.671
228.3300, 8089.000
229.5480, 8223.000
230.7650, 8222.000
231.9820, 8322.000
233.1990, 8204.000
234.4160, 8247.000
235.6330, 8269.000
236.8490, 8246.000
238.0660, 8281.000
239.2820, 8249.000
240.4980, 8211.000
241.7140, 8273.000
242.9300, 8215.000
244.1460, 8389.000
245.3610, 8432.000
246.5770, 8428.000
247.7920, 8438.000
249.0070, 8487.000
250.2220, 8732.000
251.4370, 8823.000
252.6510, 8848.000
253.8660, 8924.000
255.0800, 8996.000
256.2940, 9050.000
257.5080, 9071.753
258.7220, 9033.361
259.9360, 9040.349
261.1490, 8866.000
262.3630, 8736.000
263.5760, 8580.000
264.7890, 8527.000
266.0020, 8453.000
267.2150, 8413.637
268.4270, 8403.107
269.6400, 8372.000
270.8520, 8367.737
272.0640, 8357.000
273.2760, 8369.000
274.4880, 8352.632
275.7000, 8361.000
276.9120, 8322.000
278.1230, 8376.000
279.3340, 8382.000
280.5450, 8426.000
281.7560, 8367.000
282.9670, 8451.000
284.1780, 8557.000
285.3880, 8530.000
286.5980, 8621.000
287.8090, 8662.000
289.0190, 8721.000
290.2290, 8858.000
291.4380, 8881.000
292.6480, 9019.000
293.8570, 9075.000
295.0670, 9221.000
296.2760, 9378.000
297.4850, 9607.000
298.6930, 9670.000
299.9020, 9818.000
301.1110, 10093.00
302.3190, 10126.00
303.5270, 10322.00
304.7350, 10439.00
305.9430, 10549.00
307.1510, 10585.00
308.3580, 10879.00
309.5660, 11000.00
310.7730, 11297.00
311.9800, 11783.00
313.1870, 12191.00
314.3940, 12778.00
315.6010, 13300.00
316.8070, 13958.00
318.0130, 14781.00
319.2200, 15728.00
320.4260, 16983.00
321.6310, 18169.00
322.8370, 18992.00
324.0430, 20007.00
325.2480, 20290.00
326.4540, 20095.00
327.6590, 19757.00
328.8640, 19108.00
330.0680, 18092.00
331.2730, 17193.00
332.4780, 16205.00
333.6820, 15329.00
334.8860, 14654.00
336.0900, 14081.00
337.2940, 13698.00
338.4980, 13106.00
339.7010, 12900.00
340.9050, 12597.00
342.1080, 12235.00
343.3110, 12201.00
344.5140, 12206.00
345.7170, 12242.00
346.9200, 12302.16
348.1220, 12435.34
349.3240, 12594.42
350.5270, 12827.00
351.7290, 13064.00
352.9310, 13399.00
354.1320, 13765.00
355.3340, 14148.00
356.5350, 14477.00
357.7370, 14426.00
358.9380, 14083.00
360.1390, 13896.00
361.3400, 13480.00
362.5400, 13113.00
363.7410, 12730.00
364.9410, 12505.00
366.1410, 12231.00
367.3410, 11966.00
368.5410, 11981.00
369.7410, 12029.00
370.9400, 11730.00
372.1400, 11924.00
373.3390, 12094.00
374.5380, 12067.00
375.7370, 12368.00
376.9360, 12914.00
378.1350, 13195.00
379.3330, 13536.00
380.5310, 14281.00
381.7300, 15124.00
382.9280, 16047.00
384.1260, 17034.00
385.3230, 18329.00
386.5210, 19681.00
387.7180, 21120.00
388.9160, 22534.00
390.1130, 23475.00
391.3100, 23836.00
392.5060, 23926.00
393.7030, 23071.00
394.9000, 21566.00
396.0960, 19954.00
397.2920, 18366.00
398.4880, 16717.00
399.6840, 15495.00
400.8800, 14328.00
402.0750, 13377.00
403.2710, 12584.00
404.4660, 12049.00
405.6610, 11562.00
406.8560, 11246.00
408.0510, 10837.00
409.2450, 10620.00
410.4400, 10508.00
411.6340, 10294.00
412.8280, 10065.00
414.0220, 10244.00
415.2160, 10100.00
416.4100, 10091.00
417.6030, 9970.000
418.7970, 9907.000
419.9900, 9889.000
421.1830, 10000.00
422.3760, 9943.000
423.5690, 9884.107
424.7610, 9857.366
425.9540, 9759.000
427.1460, 9684.000
428.3380, 9658.360
429.5300, 9612.250
430.7220, 9597.000
431.9140, 9595.000
433.1050, 9571.000
434.2970, 9595.000
435.4880, 9513.000
436.6790, 9538.000
437.8700, 9534.825
439.0610, 9453.000
440.2510, 9572.000
441.4420, 9553.000
442.6320, 9601.251
443.8220, 9561.000
445.0120, 9610.000
446.2020, 9613.657
447.3910, 9616.222
448.5810, 9660.000
449.7700, 9663.000
450.9600, 9730.000
452.1490, 9817.000
453.3370, 9885.000
454.5260, 9895.000
455.7150, 10032.00
456.9030, 10532.00
458.0910, 10797.00
459.2800, 10913.00
460.4670, 11102.85
461.6550, 10974.00
462.8430, 11092.73
464.0300, 10778.00
465.2180, 10520.00
466.4050, 10456.00
467.5920, 10413.00
468.7790, 10288.00
469.9650, 10235.00
471.1520, 10236.00
472.3380, 10198.00
473.5250, 10212.00
474.7110, 10093.00
475.8970, 10138.00
477.0820, 10044.00
478.2680, 9992.000
479.4540, 10071.00
480.6390, 9901.000
481.8240, 10001.00
483.0090, 9955.000
484.1940, 10049.00
485.3780, 9900.000
486.5630, 10026.00
487.7470, 10093.00
488.9320, 9957.000
490.1160, 9996.000
491.3000, 10055.00
492.4830, 10047.00
493.6670, 10034.00
494.8500, 10105.00
496.0340, 10107.19
497.2170, 10063.00
498.4000, 10122.00
499.5820, 10126.00
500.7650, 10019.00
501.9480, 10200.00
503.1300, 10137.00
504.3120, 10147.00
505.4940, 10325.00
506.6760, 10290.00
507.8580, 10289.00
509.0390, 10447.00
510.2210, 10587.00
511.4020, 10743.00
512.5830, 10683.00
513.7640, 10755.00
514.9450, 10791.00
516.1250, 10941.00
517.3060, 10888.00
518.4860, 10864.00
519.6660, 10893.00
520.8460, 10857.00
522.0260, 10868.00
523.2060, 10844.00
524.3850, 10943.00
525.5650, 11028.00
526.7440, 11144.00
527.9230, 11042.00
529.1020, 11121.00
530.2810, 11177.00
531.4590, 11191.00
532.6380, 11287.00
533.8160, 11259.00
534.9940, 11195.00
536.1720, 11017.00
537.3500, 11131.00
538.5270, 10952.00
539.7050, 11147.00
540.8820, 11095.00
542.0590, 11252.00
543.2360, 11143.00
544.4130, 11077.00
545.5900, 11079.00
546.7660, 11223.00
547.9430, 11392.00
549.1190, 11599.00
550.2950, 11520.00
551.4710, 11719.00
552.6470, 11896.00
553.8220, 12353.00
554.9980, 12543.00
556.1730, 12899.00
557.3480, 13548.00
558.5230, 13937.00
559.6980, 14185.00
560.8730, 14028.46
562.0470, 13749.00
563.2220, 13237.00
564.3960, 12763.00
565.5700, 12224.00
566.7440, 11972.00
567.9170, 11609.00
569.0910, 11295.00
570.2640, 11277.00
571.4380, 11007.00
572.6110, 10986.00
573.7840, 10859.00
574.9570, 10862.00
576.1290, 10811.00
577.3020, 10687.00
578.4740, 10566.00
579.6460, 10533.00
580.8180, 10642.00
581.9900, 10580.00
583.1620, 10483.00
584.3330, 10527.00
585.5040, 10353.00
586.6760, 10360.00
587.8470, 10262.00
589.0180, 10256.00
590.1880, 10356.00
591.3590, 10374.00
592.5290, 10361.16
593.7000, 10173.00
594.8700, 10326.00
596.0400, 10198.00
597.2090, 10191.00
598.3790, 10170.00
599.5490, 10114.00
600.7180, 10087.00
601.8870, 10210.00
603.0560, 10246.00
604.2250, 10360.00
605.3940, 10181.00
606.5620, 10354.00
607.7300, 10173.00
608.8990, 10364.00
610.0670, 10222.00
611.2350, 10356.00
612.4020, 10351.00
613.5700, 10415.00
614.7370, 10410.00
615.9050, 10456.00
617.0720, 10477.00
618.2390, 10400.00
619.4060, 10381.00
620.5720, 10417.63
621.7390, 10547.00
622.9050, 10508.00
624.0710, 10593.00
625.2370, 10665.00
626.4030, 10708.00
627.5690, 10773.00
628.7340, 10824.00
629.9000, 10863.27
631.0650, 10902.00
632.2300, 10968.00
633.3950, 11052.00
634.5600, 11169.00
635.7240, 11198.00
636.8890, 11262.00
638.0530, 11383.00
639.2170, 11436.00
640.3810, 11675.00
641.5450, 11758.00
642.7080, 11791.00
643.8720, 11845.00
645.0350, 12168.00
646.1980, 12288.00
647.3610, 12589.00
648.5240, 12736.00
649.6870, 13008.00
650.8490, 13402.00
652.0120, 13830.00
653.1740, 14412.00
654.3360, 14855.00
655.4980, 15534.00
656.6600, 16753.00
657.8210, 17795.00
658.9830, 19264.00
660.1440, 21088.00
661.3050, 23328.00
662.4660, 25614.00
663.6270, 28462.00
664.7870, 31177.00
665.9480, 33832.00
667.1080, 35251.00
668.2680, 35859.00
669.4280, 34571.00
670.5880, 32493.00
671.7480, 29745.00
672.9070, 26907.00
674.0670, 24164.00
675.2260, 21607.00
676.3850, 19822.00
677.5440, 18050.00
678.7030, 16763.00
679.8610, 16012.00
681.0200, 15081.00
682.1780, 14469.00
683.3360, 14055.00
684.4940, 13529.00
685.6520, 13073.00
686.8090, 12878.00
687.9670, 12732.00
689.1240, 12319.00
690.2810, 12216.00
691.4380, 12351.00
692.5950, 12070.00
693.7520, 12001.00
694.9080, 11821.00
696.0650, 11754.00
697.2210, 11687.00
698.3770, 11703.00
699.5330, 11531.00
700.6880, 11555.00
701.8440, 11603.00
702.9990, 11468.00
704.1550, 11443.00
705.3100, 11468.00
706.4650, 11392.00
707.6190, 11515.00
708.7740, 11388.00
709.9290, 11277.00
711.0830, 11382.00
712.2370, 11341.00
713.3910, 11328.00
714.5450, 11183.00
715.6980, 11306.00
716.8520, 11226.00
718.0050, 11292.00
719.1580, 11294.00
720.3110, 11292.00
721.4640, 11262.00
722.6170, 11151.00
723.7700, 11278.00
724.9220, 11269.00
726.0740, 11316.00
727.2260, 11170.00
728.3780, 11234.00
729.5300, 11300.00
730.6810, 11250.00
731.8330, 11379.00
732.9840, 11244.00
734.1350, 11085.00
735.2860, 11210.00
736.4370, 11221.00
737.5880, 11163.00
738.7380, 11219.00
739.8880, 11298.00
741.0390, 11296.00
742.1890, 11224.00
743.3380, 11303.00
744.4880, 11312.00
745.6380, 11335.00
746.7870, 11346.00
747.9360, 11343.00
749.0850, 11366.00
750.2340, 11369.00
751.3830, 11364.00
752.5310, 11357.00
753.6800, 11452.00
754.8280, 11380.00
755.9760, 11403.00
757.1240, 11480.00
758.2720, 11339.00
759.4190, 11494.00
760.5670, 11498.00
761.7140, 11579.00
762.8610, 11554.00
764.0080, 11627.00
765.1550, 11597.00
766.3020, 11696.00
767.4480, 11608.00
768.5950, 11474.00
769.7410, 11731.00
770.8870, 11739.00
772.0330, 11822.00
773.1780, 11755.00
774.3240, 11720.00
775.4690, 11653.00
776.6140, 11775.00
777.7590, 11836.00
778.9040, 11769.00
780.0490, 11731.00
781.1940, 11923.00
782.3380, 11948.00
783.4820, 11875.00
784.6260, 11747.00
785.7700, 11744.00
786.9140, 11885.00
788.0580, 11849.00
789.2010, 11982.00
790.3450, 11788.00
791.4880, 11939.00
792.6310, 11797.00
793.7730, 11784.00
794.9160, 11954.00
796.0590, 11972.00
797.2010, 11926.00
798.3430, 11951.00
799.4850, 11920.00
800.6270, 11919.00
801.7690, 12004.00
802.9100, 12011.00
804.0520, 12024.89
805.1930, 12055.39
806.3340, 12034.00
807.4750, 12051.00
808.6160, 12056.00
809.7560, 12001.00
810.8970, 12030.00
812.0370, 12103.00
813.1770, 12105.00
814.3170, 11862.00
815.4570, 12081.00
816.5960, 12018.00
817.7360, 12255.00
818.8750, 12259.00
820.0140, 12251.00
821.1530, 12132.00
822.2920, 12199.00
823.4310, 12295.00
824.5690, 12280.00
825.7070, 12335.30
826.8460, 12306.00
827.9840, 12346.00
829.1220, 12306.00
830.2590, 12249.00
831.3970, 12225.00
832.5340, 12349.00
833.6710, 12407.00
834.8080, 12346.00
835.9450, 12307.00
837.0820, 12428.00
838.2190, 12296.00
839.3550, 12358.00
840.4910, 12471.00
841.6270, 12368.00
842.7630, 12501.00
843.8990, 12467.00
845.0350, 12633.00
846.1700, 12574.00
847.3060, 12623.00
848.4410, 12587.00
849.5760, 12708.00
850.7100, 12794.00
851.8450, 12852.00
852.9800, 13121.00
854.1140, 13191.00
855.2480, 13426.00
856.3820, 13411.00
857.5160, 13354.00
858.6500, 13504.00
859.7830, 13437.00
860.9170, 13457.00
862.0500, 13422.00
863.1830, 13425.00
864.3160, 13473.00
865.4480, 13608.00
866.5810, 13356.00
867.7130, 13395.00
868.8460, 13553.00
869.9780, 13503.00
871.1100, 13548.00
872.2410, 13640.00
873.3730, 13516.00
874.5050, 13674.00
875.6360, 13830.00
876.7670, 13829.00
877.8980, 13708.00
879.0290, 13754.00
880.1590, 13830.00
881.2900, 13965.00
882.4200, 13937.00
883.5500, 14147.00
884.6800, 14140.08
885.8100, 14102.00
886.9400, 14205.00
888.0690, 14173.00
889.1990, 14213.00
890.3280, 14296.00
891.4570, 14251.00
892.5860, 14252.00
893.7140, 14242.00
894.8430, 14252.00
895.9710, 14331.00
897.1000, 14392.00
898.2280, 14419.00
899.3560, 14466.00
900.4830, 14435.00
901.6110, 14519.00
902.7380, 14500.00
903.8660, 14449.00
904.9930, 14520.00
906.1200, 14465.00
907.2460, 14415.00
908.3730, 14465.00
909.5000, 14432.00
910.6260, 14356.00
911.7520, 14469.00
912.8780, 14365.00
914.0040, 14427.00
915.1290, 14336.00
916.2550, 14425.00
917.3800, 14175.00
918.5050, 14303.00
919.6300, 14210.00
920.7550, 14333.00
921.8800, 14482.00
923.0040, 14224.00
924.1290, 14292.00
925.2530, 14216.00
926.3770, 14226.00
927.5010, 14238.00
928.6250, 14238.00
929.7480, 14238.00
930.8720, 14252.00
931.9950, 14241.00
933.1180, 14234.00
934.2410, 14335.00
935.3640, 14273.00
936.4860, 14285.00
937.6090, 14222.00
938.7310, 14216.63
939.8530, 14259.00
940.9750, 14194.00
942.0970, 14280.00
943.2180, 14274.00
944.3400, 14159.00
945.4610, 14260.00
946.5820, 14314.00
947.7030, 14385.00
948.8240, 14488.00
949.9450, 14539.00
951.0650, 14453.00
952.1860, 14704.00
953.3060, 14652.00
954.4260, 14791.00
955.5460, 14870.00
956.6650, 15027.00
957.7850, 15040.00
958.9040, 15171.00
960.0230, 15153.00
961.1420, 15265.00
962.2610, 15430.00
963.3800, 15498.00
964.4990, 15471.00
965.6170, 15460.00
966.7350, 15802.00
967.8530, 15739.00
968.9710, 15975.00
970.0890, 15846.00
971.2070, 16077.00
972.3240, 16152.00
973.4410, 16105.00
974.5580, 16176.00
975.6750, 16371.00
976.7920, 16480.00
977.9090, 16603.20
979.0250, 16628.00
980.1410, 16827.00
981.2580, 16895.00
982.3740, 16952.00
983.4890, 17178.00
984.6050, 17331.00
985.7200, 17319.00
986.8360, 17481.00
987.9510, 17601.00
989.0660, 17804.00
990.1810, 17921.00
991.2950, 18121.00
992.4100, 18386.00
993.5240, 18565.00
994.6390, 18955.00
995.7530, 19477.00
996.8660, 20093.00
997.9800, 20790.00
999.0940, 21642.00
1000.207, 22559.00
1001.320, 23830.00
1002.433, 25249.00
1003.546, 26639.00
1004.659, 29147.00
1005.772, 31362.00
1006.884, 34736.00
1007.996, 38397.00
1009.108, 42883.00
1010.220, 47566.00
1011.332, 53243.00
1012.444, 58169.00
1013.555, 61397.00
1014.666, 62203.00
1015.777, 60398.00
1016.888, 56049.00
1017.999, 50129.00
1019.110, 43887.00
1020.220, 38019.00
1021.331, 33297.00
1022.441, 29929.00
1023.551, 27199.00
1024.661, 25111.00
1025.770, 23590.00
1026.880, 22267.00
1027.989, 21532.00
1029.098, 20771.00
1030.207, 20119.00
1031.316, 19731.00
1032.425, 19388.00
1033.533, 19307.00
1034.642, 18844.00
1035.750, 18848.00
1036.858, 18591.00
1037.966, 18688.00
1039.073, 18547.00
1040.181, 18584.00
1041.288, 18658.00
1042.396, 18795.00
1043.503, 18766.00
1044.610, 18852.00
1045.716, 18975.00
1046.823, 18867.00
1047.929, 18868.00
1049.036, 18759.00
1050.142, 18393.00
1051.248, 18134.00
1052.353, 17912.00
1053.459, 17651.00
1054.564, 17508.00
1055.670, 17412.00
1056.775, 17163.00
1057.880, 17041.00
1058.985, 16856.00
1060.089, 16866.00
1061.194, 16616.00
1062.298, 16690.00
1063.402, 16512.00
1064.506, 16602.00
1065.610, 16440.00
1066.713, 16200.00
1067.817, 16355.00
1068.920, 16121.00
1070.023, 16097.00
1071.126, 16057.00
1072.229, 16089.00
1073.332, 15972.00
1074.435, 15993.00
1075.537, 16059.00
1076.639, 15897.00
1077.741, 15973.00
1078.843, 15898.00
1079.945, 15992.00
1081.046, 15829.00
1082.148, 15785.00
1083.249, 15854.00
1084.350, 15856.00
1085.451, 15888.00
1086.551, 16002.00
1087.652, 15942.00
1088.752, 15732.00
1089.853, 15827.00
1090.953, 15803.00
1092.053, 15894.00
1093.152, 15813.00
1094.252, 15731.00
1095.351, 15835.00
1096.451, 15758.00
1097.550, 15732.00
1098.649, 15730.00
1099.748, 15747.00
1100.846, 15800.00
1101.945, 15792.29
1103.043, 15694.00
1104.141, 15861.00
1105.239, 15708.00
1106.337, 15838.00
1107.434, 15895.00
1108.532, 15897.00
1109.629, 15828.00
1110.726, 15774.00
1111.823, 15808.00
1112.920, 15846.00
1114.017, 15874.00
1115.113, 15863.00
1116.210, 15842.00
1117.306, 15704.00
1118.402, 16050.00
1119.498, 15943.00
1120.593, 15980.00
1121.689, 16209.00
1122.784, 16065.00
1123.879, 16166.00
1124.974, 16021.00
1126.069, 16153.00
1127.164, 16037.00
1128.259, 16039.00
1129.353, 16063.00
1130.447, 15990.00
1131.541, 15963.24
1132.635, 16023.00
1133.729, 15843.00
1134.822, 15914.00
1135.916, 15872.00
1137.009, 15999.00
1138.102, 15786.00
1139.195, 15873.00
1140.288, 15990.00
1141.380, 15992.00
1142.473, 15835.00
1143.565, 15650.00
1144.657, 15885.00
1145.749, 15962.00
1146.841, 15874.00
1147.932, 15750.00
1149.024, 15883.00
1150.115, 15814.00
1151.206, 15856.00
1152.297, 15815.00
1153.388, 15782.06
1154.479, 15724.00
1155.569, 15693.00
1156.659, 15698.00
1157.750, 15621.00
1158.839, 15604.00
1159.929, 15555.00
1161.019, 15656.00
1162.108, 15540.00
1163.198, 15673.00
1164.287, 15609.00
1165.376, 15661.00
1166.465, 15619.00
1167.553, 15646.00
1168.642, 15661.62
1169.730, 15699.00
1170.818, 15698.00
1171.906, 15659.00
1172.994, 15677.00
1174.082, 15768.00
1175.170, 15694.00
1176.257, 15826.00
1177.344, 15651.00
1178.431, 15661.00
1179.518, 15583.00
1180.605, 15782.00
1181.691, 15827.00
1182.778, 15740.00
1183.864, 15734.00
1184.950, 15660.00
1186.036, 15800.00
1187.122, 15792.00
1188.207, 15795.00
1189.292, 15879.00
1190.378, 15875.00
1191.463, 15871.00
1192.548, 15798.00
1193.632, 15772.00
1194.717, 15817.54
1195.801, 16048.00
1196.886, 15944.00
1197.970, 15979.00
1199.054, 16076.00
1200.137, 16024.00
1201.221, 15888.00
1202.305, 15979.00
1203.388, 16096.00
1204.471, 15919.00
1205.554, 15967.00
1206.637, 16158.00
1207.719, 15965.00
1208.802, 16053.00
1209.884, 15977.00
1210.966, 15936.00
1212.048, 16154.00
1213.130, 16032.00
1214.212, 15982.00
1215.293, 16205.00
1216.374, 16023.00
1217.456, 16090.00
1218.536, 16305.00
1219.617, 16234.00
1220.698, 16207.00
1221.778, 16118.00
1222.859, 16265.00
1223.939, 16279.00
1225.019, 16086.00
1226.099, 16278.00
1227.178, 16382.00
1228.258, 16257.00
1229.337, 16335.00
1230.417, 16148.00
1231.496, 16310.00
1232.574, 16360.00
1233.653, 16392.00
1234.732, 16392.00
1235.810, 16542.00
1236.888, 16356.00
1237.966, 16372.00
1239.044, 16302.00
1240.122, 16380.00
1241.199, 16307.00
1242.277, 16363.00
1243.354, 16510.00
1244.431, 16431.00
1245.508, 16535.00
1246.585, 16515.00
1247.661, 16608.00
1248.738, 16495.00
1249.814, 16431.00
1250.890, 16557.00
1251.966, 16484.00
1253.042, 16507.00
1254.117, 16527.00
1255.193, 16565.00
1256.268, 16574.80
1257.343, 16582.75
1258.418, 16603.00
1259.493, 16608.00
1260.567, 16621.00
1261.642, 16690.00
1262.716, 16722.00
1263.790, 16800.00
1264.864, 16793.20
1265.938, 16722.00
1267.011, 16778.00
1268.085, 16689.00
1269.158, 16672.00
1270.231, 16582.00
1271.304, 16813.00
1272.377, 16850.00
1273.450, 16724.00
1274.522, 16613.00
1275.594, 16840.00
1276.666, 16942.00
1277.738, 16839.00
1278.810, 16810.00
1279.882, 16964.00
1280.953, 17031.00
1282.025, 16896.00
1283.096, 16738.00
1284.167, 16912.00
1285.238, 16869.00
1286.308, 16955.00
1287.379, 16832.00
1288.449, 16836.00
1289.519, 17074.00
1290.589, 16866.00
1291.659, 16994.00
1292.729, 16878.00
1293.798, 17002.00
1294.868, 16999.00
1295.937, 16881.00
1297.006, 16983.00
1298.075, 16953.00
1299.143, 17116.00
1300.212, 17025.00
1301.280, 17039.00
1302.348, 17113.00
1303.416, 17122.00
1304.484, 17091.00
1305.552, 17091.00
1306.620, 17169.00
1307.687, 17056.00
1308.754, 17044.00
1309.821, 17064.00
1310.888, 17223.00
1311.955, 17039.00
1313.021, 17119.00
1314.088, 17272.00
1315.154, 17250.00
1316.220, 17335.59
1317.286, 17241.00
1318.352, 17341.00
1319.417, 17373.00
1320.483, 17230.00
1321.548, 17323.00
1322.613, 17487.00
1323.678, 17337.00
1324.743, 17443.00
1325.807, 17548.00
1326.872, 17478.00
1327.936, 17518.00
1329.000, 17569.00
1330.064, 17533.00
1331.128, 17581.00
1332.191, 17427.00
1333.255, 17545.00
1334.318, 17510.00
1335.381, 17515.00
1336.444, 17721.00
1337.507, 17546.00
1338.569, 17730.00
1339.632, 17742.00
1340.694, 17688.00
1341.756, 17706.00
1342.818, 17652.00
1343.880, 17750.00
1344.941, 17731.00
1346.003, 17540.00
1347.064, 17623.00
1348.125, 17646.00
1349.186, 17681.00
1350.247, 17702.00
1351.308, 17720.00
1352.368, 17765.00
1353.428, 17725.00
1354.489, 17783.00
1355.549, 17901.00
1356.608, 17872.00
1357.668, 17739.00
1358.727, 17807.00
1359.787, 17855.00
1360.846, 17933.00
1361.905, 17907.56
1362.964, 17881.00
1364.022, 17850.00
1365.081, 17930.00
1366.139, 17917.00
1367.197, 17793.00
1368.255, 17865.00
1369.313, 18055.00
1370.371, 18033.00
1371.428, 17870.00
1372.486, 18038.00
1373.543, 18003.00
1374.600, 17884.00
1375.657, 17974.00
1376.713, 17871.00
1377.770, 17921.00
1378.826, 17861.00
1379.882, 17911.00
1380.938, 18027.00
1381.994, 18004.00
1383.050, 18036.00
1384.106, 18021.00
1385.161, 18130.00
1386.216, 18085.00
1387.271, 18162.00
1388.326, 18300.00
1389.381, 18173.00
1390.435, 18242.00
1391.490, 18201.24
1392.544, 18280.00
1393.598, 18126.00
1394.652, 18178.00
1395.705, 18183.00
1396.759, 18209.00
1397.812, 18276.00
1398.866, 18281.66
1399.919, 18307.56
1400.972, 18323.00
1402.024, 18325.00
1403.077, 18324.00
1404.129, 18319.00
1405.181, 18371.00
1406.233, 18418.00
1407.285, 18442.00
1408.337, 18384.00
1409.389, 18347.00
1410.440, 18288.00
1411.491, 18428.00
1412.542, 18542.00
1413.593, 18563.00
1414.644, 18489.00
1415.695, 18522.00
1416.745, 18535.00
1417.795, 18442.00
1418.845, 18480.80
1419.895, 18355.00
1420.945, 18498.00
1421.995, 18592.00
1423.044, 18662.00
1424.093, 18515.00
1425.142, 18535.00
1426.191, 18579.00
1427.240, 18657.00
1428.289, 18582.00
1429.337, 18583.00
1430.385, 18655.00
1431.433, 18564.00
1432.481, 18631.00
1433.529, 18669.00
1434.577, 18683.09
1435.624, 18705.25
1436.672, 18770.00
1437.719, 18733.00
1438.766, 18744.00
1439.812, 18811.00
1440.859, 18713.00
1441.905, 18865.00
1442.952, 18846.00
1443.998, 18846.00
1445.044, 18664.00
1446.090, 18740.00
1447.135, 18714.00
1448.181, 18832.00
1449.226, 18743.00
1450.271, 19060.00
1451.316, 18674.00
1452.361, 18906.00
1453.405, 19041.00
1454.450, 18965.00
1455.494, 19049.00
1456.538, 19002.00
1457.582, 18980.00
1458.626, 18981.00
1459.670, 18981.00
1460.713, 19004.00
1461.757, 19077.00
1462.800, 19125.00
1463.843, 19078.00
1464.886, 18999.00
1465.928, 19006.00
1466.971, 18970.00
1468.013, 18953.00
1469.055, 18992.99
1470.097, 19261.00
1471.139, 19093.00
1472.181, 19183.00
1473.222, 19270.00
1474.263, 19068.00
1475.305, 19273.00
1476.346, 19397.00
1477.386, 19787.00
1478.427, 19474.00
1479.468, 19189.00
1480.508, 19499.00
1481.548, 19309.00
1482.588, 19360.00
1483.628, 19269.00
1484.668, 19394.00
1485.707, 19395.00
1486.747, 19401.00
1487.786, 19436.00
1488.825, 19468.00
1489.864, 19619.00
1490.902, 19557.00
1491.941, 19500.00
1492.979, 19762.00
1494.017, 19398.00
1495.055, 19509.00
1496.093, 19326.00
1497.131, 19536.00
1498.168, 19492.00
1499.206, 19632.00
1500.243, 19605.00
1501.280, 19602.00
1502.317, 19628.00
1503.354, 19748.00
1504.390, 19459.00
1505.426, 19745.00
1506.463, 19743.00
1507.499, 19546.00
1508.535, 19712.00
1509.570, 19747.00
1510.606, 19636.00
1511.641, 19566.00
1512.676, 19726.00
1513.711, 19755.00
1514.746, 19764.00
1515.781, 19768.00
1516.816, 19754.07
1517.850, 19766.10
1518.884, 19707.00
1519.918, 19798.00
1520.952, 19792.00
1521.986, 19855.00
1523.019, 19662.00
1524.053, 19923.00
1525.086, 19795.00
1526.119, 19911.00
1527.152, 19855.00
1528.185, 19836.00
1529.217, 19989.00
1530.250, 20068.00
1531.282, 19943.00
1532.314, 20152.00
1533.346, 19880.00
1534.377, 19923.00
1535.409, 20060.00
1536.440, 20143.00
1537.472, 20038.00
1538.503, 20029.00
1539.534, 20138.00
1540.564, 20118.00
1541.595, 19999.00
1542.625, 20251.00
1543.656, 20274.00
1544.686, 20384.00
1545.716, 20270.00
1546.745, 20201.00
1547.775, 20252.00
1548.804, 20393.00
1549.834, 20159.00
1550.863, 20476.00
1551.892, 20422.00
1552.920, 20558.00
1553.949, 20431.00
1554.977, 20549.00
1556.006, 20399.00
1557.034, 20298.00
1558.062, 20214.00
1559.089, 20406.00
1560.117, 20311.00
1561.144, 20302.00
1562.172, 20415.00
1563.199, 20356.00
1564.226, 20453.00
1565.252, 20468.00
1566.279, 20532.00
1567.305, 20620.00
1568.332, 20478.00
1569.358, 20560.00
1570.384, 20682.00
1571.409, 20467.00
1572.435, 20738.00
##END=



