##NAMES=Diopside
##RRUFFID=R050406
##IDEAL CHEMISTRY=CaMgSi_2_O_6_
##LOCALITY=unknown
##OWNER=RRUFF
##SOURCE=University of Arizona Mineral Museum
##DESCRIPTION=Brownish gray massive
##STATUS=The identification of this mineral has been confirmed by X-ray diffraction and chemical analysis
##URL=rruff.info/R050406
##MEASURED CHEMISTRY=(Ca_0.95_Na_0.05_)(Mg_0.75_Fe^2+^_0.18_Fe^3+^_0.05_Al_0.01_Ti_0.01_Mn^2+^_0.01_)(Si_0.98_Al_0.02_)_2_O_6_
##PIN_ID=M00407
##ORIENTATION=Laser parallel to a* (1 0 0). Fiducial mark perpendicular to laser is parallel to b [0 1 0]
116.9030, 6748.000
118.1340, 6915.000
119.3650, 7008.000
120.5960, 6892.000
121.8270, 6787.000
123.0580, 7022.000
124.2880, 6933.000
125.5190, 6975.000
126.7490, 7008.000
127.9790, 7243.000
129.2090, 7385.000
130.4390, 7682.000
131.6680, 7938.000
132.8980, 8234.000
134.1270, 8704.000
135.3560, 9074.000
136.5850, 9360.000
137.8140, 9380.000
139.0430, 9313.000
140.2710, 9068.000
141.5000, 8579.000
142.7280, 8286.000
143.9560, 7930.000
145.1840, 7736.000
146.4120, 7722.000
147.6390, 7481.000
148.8670, 7390.000
150.0940, 7526.000
151.3210, 7424.000
152.5490, 7416.000
153.7750, 7414.000
155.0020, 7366.000
156.2290, 7441.000
157.4550, 7425.000
158.6810, 7490.000
159.9080, 7598.000
161.1340, 7707.000
162.3590, 7862.000
163.5850, 8017.000
164.8110, 7846.000
166.0360, 7916.000
167.2610, 7759.000
168.4860, 7943.000
169.7110, 7987.000
170.9360, 8019.000
172.1610, 8038.000
173.3850, 8230.000
174.6100, 8407.000
175.8340, 8553.000
177.0580, 8647.784
178.2820, 8654.219
179.5050, 8698.000
180.7290, 8555.000
181.9520, 8379.000
183.1760, 8279.000
184.3990, 8242.000
185.6220, 8216.000
186.8450, 8173.000
188.0670, 8203.000
189.2900, 8131.000
190.5120, 8223.000
191.7340, 8185.955
192.9560, 8232.000
194.1780, 8220.000
195.4000, 8234.000
196.6220, 8351.000
197.8430, 8320.000
199.0640, 8305.000
200.2860, 8448.000
201.5070, 8425.000
202.7270, 8539.000
203.9480, 8407.000
205.1690, 8323.000
206.3890, 8366.000
207.6090, 8415.000
208.8290, 8455.000
210.0490, 8496.000
211.2690, 8577.000
212.4890, 8768.000
213.7080, 8729.000
214.9280, 8803.000
216.1470, 9023.000
217.3660, 8996.000
218.5850, 9249.000
219.8030, 9125.000
221.0220, 9320.000
222.2400, 9388.000
223.4590, 9499.000
224.6770, 9531.000
225.8950, 9661.000
227.1120, 9697.000
228.3300, 9815.000
229.5480, 9736.000
230.7650, 9691.000
231.9820, 9638.000
233.1990, 9289.000
234.4160, 9215.000
235.6330, 9122.000
236.8490, 9113.000
238.0660, 8979.000
239.2820, 8924.000
240.4980, 8849.000
241.7140, 8888.000
242.9300, 8974.000
244.1460, 8924.000
245.3610, 8906.000
246.5770, 8888.000
247.7920, 9066.000
249.0070, 8978.000
250.2220, 8931.000
251.4370, 9078.000
252.6510, 8843.000
253.8660, 8954.000
255.0800, 8837.000
256.2940, 9006.000
257.5080, 8983.000
258.7220, 8913.720
259.9360, 8909.000
261.1490, 8772.000
262.3630, 8667.000
263.5760, 8612.000
264.7890, 8549.000
266.0020, 8494.000
267.2150, 8471.000
268.4270, 8489.000
269.6400, 8464.000
270.8520, 8530.000
272.0640, 8505.000
273.2760, 8448.000
274.4880, 8494.000
275.7000, 8538.000
276.9120, 8543.000
278.1230, 8586.000
279.3340, 8638.000
280.5450, 8781.000
281.7560, 8824.000
282.9670, 8934.000
284.1780, 8988.000
285.3880, 9108.166
286.5980, 9243.000
287.8090, 9366.000
289.0190, 9525.000
290.2290, 9682.000
291.4380, 9779.000
292.6480, 9997.000
293.8570, 10160.00
295.0670, 10426.00
296.2760, 10651.00
297.4850, 10842.00
298.6930, 11131.00
299.9020, 11282.00
301.1110, 11672.00
302.3190, 11909.00
303.5270, 12447.00
304.7350, 12758.00
305.9430, 13355.00
307.1510, 13971.00
308.3580, 14786.00
309.5660, 15566.00
310.7730, 16726.00
311.9800, 17927.00
313.1870, 19222.00
314.3940, 20988.00
315.6010, 22776.00
316.8070, 24319.00
318.0130, 25564.00
319.2200, 26756.00
320.4260, 27203.00
321.6310, 27051.00
322.8370, 26362.00
324.0430, 25291.00
325.2480, 23925.00
326.4540, 22514.00
327.6590, 21278.00
328.8640, 19739.00
330.0680, 18746.00
331.2730, 17619.00
332.4780, 16701.00
333.6820, 15924.00
334.8860, 15351.00
336.0900, 14810.00
337.2940, 14419.00
338.4980, 14052.96
339.7010, 13752.00
340.9050, 13560.00
342.1080, 13326.00
343.3110, 13217.00
344.5140, 13361.00
345.7170, 13489.00
346.9200, 13451.00
348.1220, 13785.00
349.3240, 13766.00
350.5270, 14036.00
351.7290, 14106.00
352.9310, 14304.00
354.1320, 14287.00
355.3340, 14188.00
356.5350, 14171.00
357.7370, 14101.00
358.9380, 14077.00
360.1390, 13980.07
361.3400, 13852.00
362.5400, 13809.00
363.7410, 13879.00
364.9410, 13874.00
366.1410, 13953.00
367.3410, 14015.00
368.5410, 14209.00
369.7410, 14354.00
370.9400, 14863.00
372.1400, 15108.00
373.3390, 15713.00
374.5380, 16720.00
375.7370, 17813.00
376.9360, 18928.00
378.1350, 20491.00
379.3330, 22122.00
380.5310, 24247.00
381.7300, 26339.00
382.9280, 28344.00
384.1260, 30367.00
385.3230, 32095.00
386.5210, 32665.00
387.7180, 31825.00
388.9160, 30533.00
390.1130, 28131.00
391.3100, 25798.00
392.5060, 23429.00
393.7030, 21055.00
394.9000, 18900.00
396.0960, 17098.00
397.2920, 15834.00
398.4880, 14595.00
399.6840, 13534.00
400.8800, 12789.00
402.0750, 12090.70
403.2710, 11730.00
404.4660, 11285.00
405.6610, 11011.00
406.8560, 10939.00
408.0510, 10563.00
409.2450, 10560.00
410.4400, 10378.00
411.6340, 10258.00
412.8280, 10299.00
414.0220, 10049.00
415.2160, 10094.00
416.4100, 9894.000
417.6030, 10095.00
418.7970, 9879.000
419.9900, 9848.000
421.1830, 9810.000
422.3760, 9807.000
423.5690, 9703.000
424.7610, 9644.000
425.9540, 9593.000
427.1460, 9558.000
428.3380, 9427.000
429.5300, 9516.000
430.7220, 9410.000
431.9140, 9454.000
433.1050, 9380.000
434.2970, 9416.000
435.4880, 9318.000
436.6790, 9492.000
437.8700, 9457.000
439.0610, 9452.000
440.2510, 9367.000
441.4420, 9318.000
442.6320, 9320.062
443.8220, 9478.000
445.0120, 9372.000
446.2020, 9380.000
447.3910, 9519.000
448.5810, 9450.000
449.7700, 9438.000
450.9600, 9482.000
452.1490, 9605.000
453.3370, 9491.000
454.5260, 9677.000
455.7150, 9594.000
456.9030, 9726.000
458.0910, 9773.000
459.2800, 9745.000
460.4670, 9770.000
461.6550, 9788.000
462.8430, 9758.832
464.0300, 9795.179
465.2180, 9719.000
466.4050, 9799.000
467.5920, 9792.000
468.7790, 9719.000
469.9650, 9717.000
471.1520, 9694.000
472.3380, 9666.580
473.5250, 9650.000
474.7110, 9650.000
475.8970, 9750.000
477.0820, 9779.000
478.2680, 9658.000
479.4540, 9656.000
480.6390, 9791.000
481.8240, 9836.000
483.0090, 9862.000
484.1940, 9912.000
485.3780, 9819.000
486.5630, 9712.000
487.7470, 9800.000
488.9320, 9863.000
490.1160, 9712.000
491.3000, 9807.000
492.4830, 9977.000
493.6670, 9832.000
494.8500, 9940.000
496.0340, 9907.000
497.2170, 9950.000
498.4000, 10031.00
499.5820, 9942.000
500.7650, 10012.00
501.9480, 10155.00
503.1300, 10173.00
504.3120, 10204.00
505.4940, 10418.00
506.6760, 10444.00
507.8580, 10429.00
509.0390, 10584.00
510.2210, 10811.00
511.4020, 10956.00
512.5830, 10938.00
513.7640, 10926.00
514.9450, 11135.00
516.1250, 11108.00
517.3060, 11266.00
518.4860, 11342.00
519.6660, 11565.00
520.8460, 11647.00
522.0260, 11892.00
523.2060, 11946.00
524.3850, 12091.00
525.5650, 12126.00
526.7440, 12206.00
527.9230, 12268.00
529.1020, 12056.00
530.2810, 11883.00
531.4590, 11660.00
532.6380, 11547.00
533.8160, 11341.00
534.9940, 11315.00
536.1720, 11231.00
537.3500, 11050.00
538.5270, 11124.00
539.7050, 10998.14
540.8820, 11033.00
542.0590, 10928.00
543.2360, 10845.00
544.4130, 10901.00
545.5900, 10769.00
546.7660, 10883.00
547.9430, 10819.00
549.1190, 10903.00
550.2950, 10906.00
551.4710, 10874.00
552.6470, 10826.00
553.8220, 10852.00
554.9980, 10984.00
556.1730, 10964.00
557.3480, 10945.00
558.5230, 10737.00
559.6980, 10836.00
560.8730, 10670.00
562.0470, 10759.00
563.2220, 10831.00
564.3960, 10805.00
565.5700, 10932.00
566.7440, 10681.00
567.9170, 10638.00
569.0910, 10679.00
570.2640, 10604.00
571.4380, 10630.00
572.6110, 10498.00
573.7840, 10526.00
574.9570, 10545.00
576.1290, 10450.00
577.3020, 10449.00
578.4740, 10340.00
579.6460, 10340.00
580.8180, 10231.00
581.9900, 10257.00
583.1620, 10278.00
584.3330, 10239.00
585.5040, 10262.00
586.6760, 10203.00
587.8470, 10055.00
589.0180, 10138.00
590.1880, 10007.00
591.3590, 10076.00
592.5290, 10039.00
593.7000, 10134.00
594.8700, 10037.00
596.0400, 9986.000
597.2090, 10005.00
598.3790, 9994.000
599.5490, 9980.000
600.7180, 9949.000
601.8870, 9976.931
603.0560, 10021.00
604.2250, 10026.00
605.3940, 10082.00
606.5620, 10103.00
607.7300, 10222.00
608.8990, 10184.00
610.0670, 10116.00
611.2350, 10147.00
612.4020, 10254.00
613.5700, 10220.00
614.7370, 10137.00
615.9050, 10284.00
617.0720, 10282.00
618.2390, 10283.00
619.4060, 10392.00
620.5720, 10434.00
621.7390, 10253.00
622.9050, 10501.00
624.0710, 10512.00
625.2370, 10515.00
626.4030, 10682.00
627.5690, 10677.00
628.7340, 10626.00
629.9000, 10799.00
631.0650, 10811.00
632.2300, 10736.00
633.3950, 11069.00
634.5600, 11070.00
635.7240, 10904.00
636.8890, 11169.00
638.0530, 11318.00
639.2170, 11321.00
640.3810, 11554.00
641.5450, 11569.00
642.7080, 11757.00
643.8720, 12066.00
645.0350, 12199.00
646.1980, 12474.00
647.3610, 12618.00
648.5240, 13199.00
649.6870, 13611.00
650.8490, 14114.00
652.0120, 14702.00
653.1740, 15613.00
654.3360, 16676.00
655.4980, 17956.00
656.6600, 19477.00
657.8210, 21485.00
658.9830, 23523.00
660.1440, 25656.00
661.3050, 27716.00
662.4660, 29778.00
663.6270, 31115.00
664.7870, 31422.00
665.9480, 30479.00
667.1080, 29012.00
668.2680, 26859.00
669.4280, 24732.00
670.5880, 22576.00
671.7480, 20717.00
672.9070, 19085.00
674.0670, 17600.00
675.2260, 16436.00
676.3850, 15580.00
677.5440, 14978.00
678.7030, 14373.00
679.8610, 13862.00
681.0200, 13412.00
682.1780, 13117.00
683.3360, 12879.00
684.4940, 12644.00
685.6520, 12439.98
686.8090, 12246.00
687.9670, 12114.00
689.1240, 11968.00
690.2810, 11879.00
691.4380, 11834.00
692.5950, 11824.00
693.7520, 11778.00
694.9080, 11758.40
696.0650, 11648.00
697.2210, 11713.00
698.3770, 11616.00
699.5330, 11586.00
700.6880, 11734.00
701.8440, 11587.00
702.9990, 11402.00
704.1550, 11747.00
705.3100, 11487.00
706.4650, 11547.00
707.6190, 11518.00
708.7740, 11492.00
709.9290, 11371.00
711.0830, 11425.00
712.2370, 11267.00
713.3910, 11304.00
714.5450, 11387.00
715.6980, 11175.00
716.8520, 11307.00
718.0050, 11372.00
719.1580, 11379.00
720.3110, 11326.00
721.4640, 11260.00
722.6170, 11212.00
723.7700, 11349.00
724.9220, 11211.00
726.0740, 11188.00
727.2260, 11277.00
728.3780, 11181.00
729.5300, 11276.00
730.6810, 11144.00
731.8330, 11138.00
732.9840, 11166.00
734.1350, 11116.72
735.2860, 11102.00
736.4370, 11129.00
737.5880, 11120.50
738.7380, 11250.00
739.8880, 11184.00
741.0390, 11259.00
742.1890, 11349.00
743.3380, 11361.00
744.4880, 11344.00
745.6380, 11416.00
746.7870, 11410.00
747.9360, 11396.00
749.0850, 11232.00
750.2340, 11406.00
751.3830, 11363.00
752.5310, 11304.00
753.6800, 11445.00
754.8280, 11451.00
755.9760, 11388.00
757.1240, 11369.00
758.2720, 11429.00
759.4190, 11417.00
760.5670, 11443.00
761.7140, 11403.00
762.8610, 11411.00
764.0080, 11407.00
765.1550, 11450.00
766.3020, 11482.00
767.4480, 11535.00
768.5950, 11593.00
769.7410, 11565.00
770.8870, 11737.00
772.0330, 11661.00
773.1780, 11607.00
774.3240, 11517.00
775.4690, 11571.00
776.6140, 11618.00
777.7590, 11662.00
778.9040, 11725.00
780.0490, 11661.00
781.1940, 11779.00
782.3380, 11713.00
783.4820, 11717.00
784.6260, 11719.00
785.7700, 11885.00
786.9140, 11826.00
788.0580, 11760.00
789.2010, 11887.00
790.3450, 11790.00
791.4880, 11936.00
792.6310, 11704.00
793.7730, 11761.00
794.9160, 11959.00
796.0590, 11784.00
797.2010, 11739.00
798.3430, 11971.00
799.4850, 11860.00
800.6270, 12057.00
801.7690, 11969.00
802.9100, 11773.00
804.0520, 12017.00
805.1930, 11880.00
806.3340, 11875.00
807.4750, 11971.00
808.6160, 11988.00
809.7560, 11950.00
810.8970, 12022.00
812.0370, 12068.00
813.1770, 12125.00
814.3170, 12072.00
815.4570, 12083.00
816.5960, 12081.00
817.7360, 12102.00
818.8750, 12111.26
820.0140, 12133.73
821.1530, 12141.00
822.2920, 12169.00
823.4310, 12185.00
824.5690, 12166.00
825.7070, 12281.00
826.8460, 12301.00
827.9840, 12275.00
829.1220, 12329.00
830.2590, 12290.06
831.3970, 12288.43
832.5340, 12258.00
833.6710, 12280.00
834.8080, 12312.00
835.9450, 12364.00
837.0820, 12222.00
838.2190, 12423.00
839.3550, 12417.00
840.4910, 12358.00
841.6270, 12536.00
842.7630, 12600.00
843.8990, 12666.00
845.0350, 12582.00
846.1700, 12716.00
847.3060, 12842.00
848.4410, 12987.00
849.5760, 13060.00
850.7100, 13198.77
851.8450, 13417.00
852.9800, 13453.00
854.1140, 13647.00
855.2480, 13821.00
856.3820, 13730.00
857.5160, 13615.00
858.6500, 13733.00
859.7830, 13705.00
860.9170, 13556.00
862.0500, 13499.00
863.1830, 13457.00
864.3160, 13446.00
865.4480, 13323.00
866.5810, 13392.00
867.7130, 13514.00
868.8460, 13412.00
869.9780, 13577.00
871.1100, 13453.00
872.2410, 13508.00
873.3730, 13624.00
874.5050, 13475.00
875.6360, 13637.00
876.7670, 13754.00
877.8980, 13563.00
879.0290, 13770.00
880.1590, 13718.00
881.2900, 13819.00
882.4200, 14004.00
883.5500, 13856.00
884.6800, 13958.00
885.8100, 14013.00
886.9400, 13988.00
888.0690, 14119.00
889.1990, 14102.00
890.3280, 14143.00
891.4570, 14081.00
892.5860, 14041.00
893.7140, 14030.46
894.8430, 13964.00
895.9710, 14004.00
897.1000, 14063.00
898.2280, 14130.00
899.3560, 14109.00
900.4830, 14119.00
901.6110, 14063.00
902.7380, 14136.00
903.8660, 13969.00
904.9930, 13986.00
906.1200, 13989.00
907.2460, 14065.00
908.3730, 13982.00
909.5000, 14044.92
910.6260, 14062.00
911.7520, 14120.00
912.8780, 14056.00
914.0040, 14132.00
915.1290, 14025.00
916.2550, 14075.00
917.3800, 14227.00
918.5050, 14162.00
919.6300, 14182.00
920.7550, 14171.00
921.8800, 14109.00
923.0040, 14095.00
924.1290, 14064.00
925.2530, 14060.00
926.3770, 14043.49
927.5010, 14122.00
928.6250, 14045.00
929.7480, 14031.00
930.8720, 14079.00
931.9950, 14188.00
933.1180, 14107.00
934.2410, 14200.00
935.3640, 14135.00
936.4860, 14080.00
937.6090, 14176.00
938.7310, 14049.00
939.8530, 14262.00
940.9750, 14108.00
942.0970, 14246.00
943.2180, 14195.00
944.3400, 14202.00
945.4610, 14111.00
946.5820, 14176.00
947.7030, 14243.00
948.8240, 14306.00
949.9450, 14504.00
951.0650, 14371.00
952.1860, 14555.00
953.3060, 14600.00
954.4260, 14582.00
955.5460, 14751.00
956.6650, 14831.00
957.7850, 14890.00
958.9040, 14820.00
960.0230, 14902.00
961.1420, 15082.00
962.2610, 15103.00
963.3800, 15268.00
964.4990, 15133.00
965.6170, 15289.00
966.7350, 15324.00
967.8530, 15389.00
968.9710, 15522.00
970.0890, 15438.00
971.2070, 15669.00
972.3240, 15728.00
973.4410, 15877.00
974.5580, 15739.00
975.6750, 16045.00
976.7920, 16010.00
977.9090, 16219.00
979.0250, 16201.00
980.1410, 16354.00
981.2580, 16530.00
982.3740, 16767.00
983.4890, 16929.00
984.6050, 17011.00
985.7200, 17090.00
986.8360, 17403.00
987.9510, 17741.00
989.0660, 18008.00
990.1810, 18415.00
991.2950, 18691.00
992.4100, 19364.00
993.5240, 19844.00
994.6390, 20453.00
995.7530, 21229.00
996.8660, 22362.00
997.9800, 23562.00
999.0940, 24833.00
1000.207, 26617.00
1001.320, 28436.00
1002.433, 30819.00
1003.546, 34307.00
1004.659, 37702.00
1005.772, 42180.00
1006.884, 47547.00
1007.996, 53213.00
1009.108, 58413.00
1010.220, 62573.00
1011.332, 64669.00
1012.444, 64113.00
1013.555, 61068.00
1014.666, 55870.00
1015.777, 49430.00
1016.888, 43742.00
1017.999, 38265.00
1019.110, 33788.00
1020.220, 30229.00
1021.331, 27250.00
1022.441, 25229.00
1023.551, 23576.00
1024.661, 22461.00
1025.770, 21513.00
1026.880, 20842.00
1027.989, 20284.98
1029.098, 19796.36
1030.207, 19613.00
1031.316, 19261.00
1032.425, 18982.00
1033.533, 18990.00
1034.642, 18667.00
1035.750, 18847.00
1036.858, 18681.00
1037.966, 18587.00
1039.073, 18714.00
1040.181, 18734.00
1041.288, 18637.00
1042.396, 18583.00
1043.503, 18584.00
1044.610, 18348.00
1045.716, 18419.00
1046.823, 18160.00
1047.929, 18067.00
1049.036, 17845.00
1050.142, 17806.00
1051.248, 17681.00
1052.353, 17345.00
1053.459, 17425.00
1054.564, 17404.00
1055.670, 17255.00
1056.775, 17012.00
1057.880, 17108.00
1058.985, 16899.00
1060.089, 16881.00
1061.194, 16784.00
1062.298, 16841.00
1063.402, 16612.00
1064.506, 16732.00
1065.610, 16568.00
1066.713, 16606.00
1067.817, 16641.00
1068.920, 16535.00
1070.023, 16290.00
1071.126, 16243.00
1072.229, 16182.00
1073.332, 16055.62
1074.435, 16336.00
1075.537, 15936.00
1076.639, 16135.00
1077.741, 16166.00
1078.843, 16075.00
1079.945, 15893.00
1081.046, 16103.00
1082.148, 15875.00
1083.249, 15941.00
1084.350, 15981.00
1085.451, 16035.00
1086.551, 16151.00
1087.652, 16160.00
1088.752, 15927.00
1089.853, 16029.00
1090.953, 15834.00
1092.053, 15907.00
1093.152, 16007.00
1094.252, 16054.00
1095.351, 15915.00
1096.451, 15944.00
1097.550, 15904.00
1098.649, 15951.00
1099.748, 15938.24
1100.846, 15949.00
1101.945, 15951.00
1103.043, 15913.00
1104.141, 15944.00
1105.239, 15907.00
1106.337, 15932.00
1107.434, 15842.00
1108.532, 15918.00
1109.629, 16016.00
1110.726, 15897.00
1111.823, 15856.00
1112.920, 15919.00
1114.017, 16021.00
1115.113, 16093.00
1116.210, 16272.00
1117.306, 16292.00
1118.402, 16397.84
1119.498, 16653.00
1120.593, 16521.00
1121.689, 16726.00
1122.784, 16748.00
1123.879, 16840.00
1124.974, 16663.00
1126.069, 16672.00
1127.164, 16454.00
1128.259, 16371.00
1129.353, 16369.00
1130.447, 16148.00
1131.541, 16058.00
1132.635, 16022.00
1133.729, 16086.00
1134.822, 15898.00
1135.916, 15950.00
1137.009, 15941.00
1138.102, 15989.00
1139.195, 15888.00
1140.288, 15900.00
1141.380, 15795.00
1142.473, 15671.00
1143.565, 15910.00
1144.657, 15775.00
1145.749, 15842.00
1146.841, 15837.00
1147.932, 15680.00
1149.024, 15661.00
1150.115, 15698.00
1151.206, 15786.00
1152.297, 15778.00
1153.388, 15622.00
1154.479, 15545.00
1155.569, 15602.00
1156.659, 15489.00
1157.750, 15759.00
1158.839, 15643.00
1159.929, 15664.00
1161.019, 15572.00
1162.108, 15502.00
1163.198, 15470.00
1164.287, 15647.00
1165.376, 15663.00
1166.465, 15512.00
1167.553, 15711.00
1168.642, 15604.00
1169.730, 15523.00
1170.818, 15746.00
1171.906, 15678.00
1172.994, 15695.00
1174.082, 15669.00
1175.170, 15574.00
1176.257, 15624.57
1177.344, 15713.00
1178.431, 15665.00
1179.518, 15716.00
1180.605, 15738.00
1181.691, 15683.00
1182.778, 15809.00
1183.864, 15811.00
1184.950, 15767.00
1186.036, 15904.00
1187.122, 15847.00
1188.207, 15934.00
1189.292, 15733.00
1190.378, 15901.00
1191.463, 15898.00
1192.548, 15883.00
1193.632, 15989.00
1194.717, 15939.00
1195.801, 15853.00
1196.886, 15930.00
1197.970, 15959.00
1199.054, 16013.00
1200.137, 15976.00
1201.221, 16112.00
1202.305, 15960.00
1203.388, 16104.00
1204.471, 15943.00
1205.554, 15952.00
1206.637, 16167.00
1207.719, 16060.00
1208.802, 16071.00
1209.884, 16213.00
1210.966, 15889.00
1212.048, 16028.00
1213.130, 16106.00
1214.212, 16159.00
1215.293, 16194.00
1216.374, 16147.00
1217.456, 16174.00
1218.536, 16014.00
1219.617, 16166.00
1220.698, 16133.00
1221.778, 16273.00
1222.859, 16237.00
1223.939, 16364.00
1225.019, 16292.00
1226.099, 16275.00
1227.178, 16302.00
1228.258, 16407.00
1229.337, 16417.00
1230.417, 16331.00
1231.496, 16384.00
1232.574, 16366.00
1233.653, 16355.00
1234.732, 16342.00
1235.810, 16354.00
1236.888, 16367.00
1237.966, 16435.00
1239.044, 16496.00
1240.122, 16466.00
1241.199, 16571.00
1242.277, 16562.00
1243.354, 16455.00
1244.431, 16391.00
1245.508, 16373.00
1246.585, 16445.00
1247.661, 16578.00
1248.738, 16466.00
1249.814, 16611.00
1250.890, 16435.00
1251.966, 16702.00
1253.042, 16536.00
1254.117, 16412.00
1255.193, 16602.00
1256.268, 16712.00
1257.343, 16662.00
1258.418, 16548.00
1259.493, 16613.00
1260.567, 16595.00
1261.642, 16571.00
1262.716, 16775.00
1263.790, 16743.00
1264.864, 16780.00
1265.938, 16915.00
1267.011, 16856.00
1268.085, 16820.00
1269.158, 16883.00
1270.231, 16871.00
1271.304, 16876.00
1272.377, 16819.00
1273.450, 16914.00
1274.522, 16758.00
1275.594, 16867.00
1276.666, 17025.00
1277.738, 16995.00
1278.810, 16895.00
1279.882, 16889.00
1280.953, 16863.00
1282.025, 16922.00
1283.096, 16914.11
1284.167, 16928.00
1285.238, 16948.00
1286.308, 16952.00
1287.379, 16958.00
1288.449, 16991.27
1289.519, 16980.00
1290.589, 17041.00
1291.659, 16983.00
1292.729, 16968.00
1293.798, 16986.00
1294.868, 16997.32
1295.937, 16941.00
1297.006, 17012.00
1298.075, 17097.00
1299.143, 16963.00
1300.212, 17153.00
1301.280, 17104.00
1302.348, 17096.00
1303.416, 17283.00
1304.484, 17167.00
1305.552, 17394.00
1306.620, 17194.00
1307.687, 17109.00
1308.754, 17274.00
1309.821, 17306.00
1310.888, 17270.00
1311.955, 17196.00
1313.021, 17248.00
1314.088, 17325.00
1315.154, 17418.00
1316.220, 17205.00
1317.286, 17372.00
1318.352, 17352.00
1319.417, 17518.00
1320.483, 17439.00
1321.548, 17456.00
1322.613, 17402.00
1323.678, 17436.78
1324.743, 17442.00
1325.807, 17494.00
1326.872, 17584.00
1327.936, 17556.00
1329.000, 17672.00
1330.064, 17511.00
1331.128, 17599.00
1332.191, 17671.00
1333.255, 17540.00
1334.318, 17767.00
1335.381, 17636.00
1336.444, 17684.00
1337.507, 17804.00
1338.569, 17647.00
1339.632, 17680.00
1340.694, 17701.00
1341.756, 17820.00
1342.818, 17785.38
1343.880, 17818.00
1344.941, 17746.90
1346.003, 17743.00
1347.064, 17682.00
1348.125, 17807.00
1349.186, 17611.00
1350.247, 17889.00
1351.308, 17727.00
1352.368, 17712.00
1353.428, 17859.00
1354.489, 17828.00
1355.549, 17936.00
1356.608, 17920.00
1357.668, 17835.00
1358.727, 17972.00
1359.787, 18053.00
1360.846, 18074.00
1361.905, 17971.00
1362.964, 18003.00
1364.022, 18070.00
1365.081, 17965.00
1366.139, 18176.00
1367.197, 17924.00
1368.255, 18093.00
1369.313, 18030.00
1370.371, 18159.00
1371.428, 18099.00
1372.486, 18109.00
1373.543, 18104.00
1374.600, 18104.00
1375.657, 18073.00
1376.713, 18014.00
1377.770, 18087.00
1378.826, 18214.00
1379.882, 18098.00
1380.938, 18247.00
1381.994, 18154.00
1383.050, 18243.00
1384.106, 18222.00
1385.161, 18130.00
1386.216, 18289.00
1387.271, 18310.00
1388.326, 18145.00
1389.381, 18351.00
1390.435, 18198.00
1391.490, 18230.00
1392.544, 18119.00
1393.598, 18269.00
1394.652, 18311.00
1395.705, 18290.00
1396.759, 18232.00
1397.812, 18302.00
1398.866, 18440.00
1399.919, 18445.00
1400.972, 18335.00
1402.024, 18256.00
1403.077, 18342.00
1404.129, 18325.00
1405.181, 18429.00
1406.233, 18446.00
1407.285, 18443.00
1408.337, 18394.00
1409.389, 18455.00
1410.440, 18427.76
1411.491, 18347.00
1412.542, 18452.00
1413.593, 18439.00
1414.644, 18498.00
1415.695, 18655.00
1416.745, 18438.00
1417.795, 18614.00
1418.845, 18564.00
1419.895, 18843.00
1420.945, 18492.00
1421.995, 18432.00
1423.044, 18643.00
1424.093, 18670.00
1425.142, 18642.00
1426.191, 18704.00
1427.240, 18663.00
1428.289, 18491.00
1429.337, 18671.00
1430.385, 18687.00
1431.433, 18525.00
1432.481, 18578.00
1433.529, 18500.00
1434.577, 18679.00
1435.624, 18623.00
1436.672, 18710.00
1437.719, 18682.00
1438.766, 18748.00
1439.812, 18832.00
1440.859, 18803.60
1441.905, 18780.00
1442.952, 18800.00
1443.998, 18898.00
1445.044, 18907.00
1446.090, 18839.00
1447.135, 18963.00
1448.181, 18718.00
1449.226, 18776.00
1450.271, 18913.00
1451.316, 18905.00
1452.361, 18777.00
1453.405, 18895.00
1454.450, 18940.00
1455.494, 18806.00
1456.538, 18945.00
1457.582, 19146.00
1458.626, 18947.00
1459.670, 19068.00
1460.713, 18975.00
1461.757, 18979.00
1462.800, 18984.00
1463.843, 19046.00
1464.886, 19051.00
1465.928, 19160.00
1466.971, 19154.00
1468.013, 19180.00
1469.055, 19025.00
1470.097, 19192.00
1471.139, 19127.00
1472.181, 18999.00
1473.222, 19085.00
1474.263, 19257.00
1475.305, 19162.00
1476.346, 19175.00
1477.386, 19304.00
1478.427, 19318.00
1479.468, 19209.00
1480.508, 19296.00
1481.548, 19485.00
1482.588, 19369.00
1483.628, 19432.00
1484.668, 19403.00
1485.707, 19237.00
1486.747, 19137.00
1487.786, 19423.00
1488.825, 19528.00
1489.864, 19388.00
1490.902, 19450.00
1491.941, 19506.00
1492.979, 19422.00
1494.017, 19517.00
1495.055, 19509.00
1496.093, 19525.00
1497.131, 19479.00
1498.168, 19522.00
1499.206, 19522.89
1500.243, 19540.00
1501.280, 19576.00
1502.317, 19614.00
1503.354, 19674.10
1504.390, 19633.00
1505.426, 19720.00
1506.463, 19625.00
1507.499, 19564.00
1508.535, 19505.00
1509.570, 19652.00
1510.606, 19748.00
1511.641, 19872.00
1512.676, 19870.62
1513.711, 19832.00
1514.746, 19828.00
1515.781, 19730.00
1516.816, 19698.00
1517.850, 19739.00
1518.884, 19869.00
1519.918, 19732.00
1520.952, 19587.00
1521.986, 19836.00
1523.019, 19712.00
1524.053, 19817.00
1525.086, 19830.00
1526.119, 19719.00
1527.152, 19839.00
1528.185, 19994.00
1529.217, 19812.00
1530.250, 19971.00
1531.282, 19805.00
1532.314, 20075.00
1533.346, 19998.00
1534.377, 20010.00
1535.409, 20050.00
1536.440, 19847.00
1537.472, 19955.00
1538.503, 20151.00
1539.534, 19959.00
1540.564, 19959.00
1541.595, 20170.00
1542.625, 19984.00
1543.656, 19976.00
1544.686, 20183.00
1545.716, 20136.00
1546.745, 20261.00
1547.775, 20307.75
1548.804, 20343.88
1549.834, 20397.00
1550.863, 20409.00
1551.892, 20481.52
1552.920, 20427.00
1553.949, 20533.00
1554.977, 20416.00
1556.006, 20393.00
1557.034, 20514.00
1558.062, 20527.00
1559.089, 20196.00
1560.117, 20394.00
1561.144, 20563.00
1562.172, 20266.00
1563.199, 20378.00
1564.226, 20230.00
1565.252, 20397.00
1566.279, 20269.00
1567.305, 20557.00
1568.332, 20431.00
1569.358, 20446.00
1570.384, 20415.00
1571.409, 20565.00
1572.435, 20567.00
##END=



