##NAMES=Diopside
##RRUFFID=R050496
##IDEAL CHEMISTRY=CaMgSi_2_O_6_
##LOCALITY=New City Quarry, Riverside, Riverside County, Calfornia, USA
##OWNER=RRUFF
##SOURCE=California Institute of Technology
##DESCRIPTION=Aggregate of light green irregular grains
##STATUS=The identification of this mineral has been confirmed by X-ray diffraction and chemical analysis
##URL=rruff.info/R050496
##MEASURED CHEMISTRY=Ca(Mg_0.66_Fe_0.33_Mn_0.01_)(Si_0.95_Al_0.05_)_2_O_6_
##PIN_ID=M01175
##ORIENTATION=Laser parallel to c* (0 0 1). Fiducial mark perpendicular to laser is parallel to -a [-1 0 0]
125.3850, 8127.000
126.6170, 8072.000
127.8490, 8079.000
129.0810, 8018.000
130.3130, 8033.000
131.5450, 8087.000
132.7770, 8085.000
134.0080, 8122.000
135.2390, 8034.000
136.4710, 8132.000
137.7020, 8189.000
138.9320, 8128.000
140.1630, 8223.222
141.3930, 8230.558
142.6240, 8266.000
143.8540, 8297.000
145.0840, 8226.000
146.3140, 8245.000
147.5440, 8265.000
148.7730, 8231.000
150.0020, 8261.000
151.2320, 8206.000
152.4610, 8278.000
153.6900, 8311.000
154.9180, 8309.000
156.1470, 8246.000
157.3750, 8323.000
158.6040, 8379.000
159.8320, 8506.000
161.0600, 8542.000
162.2870, 8543.000
163.5150, 8718.000
164.7420, 8655.000
165.9700, 8770.000
167.1970, 8662.000
168.4240, 8532.000
169.6510, 8676.000
170.8770, 8588.000
172.1040, 8666.000
173.3300, 8595.000
174.5560, 8517.000
175.7820, 8649.000
177.0080, 8633.000
178.2340, 8590.000
179.4590, 8687.000
180.6850, 8702.000
181.9100, 8743.000
183.1350, 8805.000
184.3600, 8773.000
185.5850, 8865.000
186.8090, 8751.000
188.0340, 8954.000
189.2580, 8909.000
190.4820, 9031.000
191.7060, 8921.000
192.9300, 8771.550
194.1530, 9001.235
195.3770, 9133.220
196.6000, 9172.742
197.8230, 8842.891
199.0460, 8990.009
200.2690, 8945.979
201.4910, 8894.106
202.7140, 9108.355
203.9360, 8832.224
205.1580, 9042.248
206.3800, 9058.207
207.6020, 9162.984
208.8240, 9075.435
210.0450, 9047.282
211.2670, 9211.526
212.4880, 9269.236
213.7090, 9159.540
214.9300, 9269.959
216.1510, 8987.103
217.3710, 9049.345
218.5920, 9260.489
219.8120, 9160.458
221.0320, 9274.387
222.2520, 9306.828
223.4720, 8968.941
224.6910, 9152.000
225.9110, 9117.000
227.1300, 9218.000
228.3490, 9064.000
229.5680, 9371.000
230.7870, 9260.000
232.0050, 9338.000
233.2240, 9151.000
234.4420, 9229.000
235.6600, 9241.000
236.8780, 9385.000
238.0960, 9276.000
239.3140, 9335.000
240.5310, 9341.000
241.7490, 9263.000
242.9660, 9338.000
244.1830, 9268.000
245.4000, 9375.000
246.6160, 9338.000
247.8330, 9450.000
249.0490, 9420.000
250.2660, 9430.000
251.4820, 9458.000
252.6980, 9421.000
253.9130, 9465.000
255.1290, 9367.000
256.3440, 9461.000
257.5600, 9488.000
258.7750, 9500.000
259.9900, 9429.000
261.2040, 9540.000
262.4190, 9327.000
263.6330, 9421.000
264.8480, 9294.000
266.0620, 9264.000
267.2760, 9304.000
268.4900, 9342.000
269.7030, 9457.000
270.9170, 9312.000
272.1300, 9407.000
273.3430, 9344.000
274.5560, 9354.000
275.7690, 9362.000
276.9820, 9404.000
278.1940, 9435.000
279.4070, 9460.922
280.6190, 9600.000
281.8310, 9513.000
283.0430, 9590.000
284.2550, 9598.000
285.4660, 9519.000
286.6770, 9614.000
287.8890, 9601.000
289.1000, 9751.000
290.3110, 9871.000
291.5210, 9818.000
292.7320, 9870.000
293.9420, 10017.00
295.1530, 10236.00
296.3630, 10253.00
297.5730, 10249.00
298.7830, 10229.00
299.9920, 10275.00
301.2020, 10483.00
302.4110, 10527.00
303.6200, 10705.00
304.8290, 10664.00
306.0380, 10740.00
307.2470, 10869.00
308.4550, 10879.00
309.6630, 11185.00
310.8720, 11238.00
312.0800, 11400.00
313.2880, 11701.00
314.4950, 11999.00
315.7030, 12348.00
316.9100, 12582.00
318.1170, 12831.00
319.3240, 13036.00
320.5310, 13455.00
321.7380, 13477.00
322.9450, 13673.00
324.1510, 13755.00
325.3570, 13670.00
326.5630, 13415.00
327.7690, 13320.00
328.9750, 13092.00
330.1810, 12667.00
331.3860, 12497.00
332.5910, 12502.00
333.7960, 12210.00
335.0010, 12163.00
336.2060, 11902.00
337.4110, 11766.00
338.6150, 11926.00
339.8200, 11687.00
341.0240, 11872.00
342.2280, 11697.00
343.4320, 11854.00
344.6350, 11903.00
345.8390, 11958.00
347.0420, 12061.00
348.2450, 12186.56
349.4480, 12641.00
350.6510, 12555.00
351.8540, 12810.00
353.0560, 13131.00
354.2590, 13182.00
355.4610, 13020.00
356.6630, 12912.00
357.8650, 12680.00
359.0670, 12603.00
360.2680, 12217.00
361.4700, 12261.00
362.6710, 11880.00
363.8720, 11858.00
365.0730, 11591.00
366.2740, 11580.00
367.4740, 11468.00
368.6750, 11536.00
369.8750, 11387.00
371.0750, 11461.00
372.2750, 11624.00
373.4750, 11568.00
374.6740, 11621.00
375.8740, 11962.00
377.0730, 12167.00
378.2720, 12215.00
379.4710, 12666.00
380.6700, 13005.00
381.8690, 13516.00
383.0670, 14001.00
384.2660, 14539.00
385.4640, 15033.00
386.6620, 15516.00
387.8600, 15823.00
389.0570, 15916.00
390.2550, 15690.00
391.4520, 15447.00
392.6490, 14830.00
393.8460, 14285.00
395.0430, 13696.00
396.2400, 13115.00
397.4370, 12572.00
398.6330, 12213.00
399.8290, 11700.00
401.0250, 11513.00
402.2210, 11270.00
403.4170, 11115.00
404.6130, 10919.00
405.8080, 10840.00
407.0030, 10791.00
408.1980, 10682.00
409.3930, 10686.00
410.5880, 10734.00
411.7830, 10652.00
412.9770, 10464.00
414.1720, 10615.00
415.3660, 10528.00
416.5600, 10672.00
417.7530, 10544.00
418.9470, 10598.00
420.1410, 10558.00
421.3340, 10491.00
422.5270, 10534.00
423.7200, 10518.33
424.9130, 10586.00
426.1060, 10547.00
427.2980, 10591.00
428.4900, 10572.00
429.6830, 10518.00
430.8750, 10534.00
432.0670, 10516.57
433.2580, 10582.00
434.4500, 10545.00
435.6410, 10571.00
436.8320, 10642.00
438.0240, 10631.00
439.2140, 10572.00
440.4050, 10537.00
441.5960, 10632.00
442.7860, 10683.00
443.9760, 10685.00
445.1670, 10755.00
446.3560, 10721.00
447.5460, 10791.00
448.7360, 10824.00
449.9250, 10835.38
451.1150, 10783.00
452.3040, 10861.00
453.4930, 10911.00
454.6810, 10874.00
455.8700, 11025.00
457.0590, 11120.00
458.2470, 10971.00
459.4350, 11008.00
460.6230, 10943.00
461.8110, 10925.00
462.9980, 11047.00
464.1860, 10989.00
465.3730, 11113.00
466.5600, 11049.00
467.7470, 10913.00
468.9340, 11075.00
470.1210, 10939.00
471.3080, 10953.00
472.4940, 11031.00
473.6800, 10973.00
474.8660, 11032.00
476.0520, 11028.00
477.2380, 11006.00
478.4230, 11059.00
479.6090, 11083.00
480.7940, 11109.00
481.9790, 11155.00
483.1640, 11220.00
484.3490, 11073.00
485.5330, 11196.00
486.7180, 11157.00
487.9020, 11223.00
489.0860, 11229.00
490.2700, 11227.00
491.4540, 11097.00
492.6370, 11259.00
493.8210, 11144.00
495.0040, 11219.00
496.1870, 11205.00
497.3700, 11172.00
498.5530, 11254.00
499.7360, 11116.00
500.9180, 11310.00
502.1000, 11346.00
503.2830, 11311.00
504.4650, 11447.00
505.6460, 11509.00
506.8280, 11482.00
508.0100, 11493.00
509.1910, 11555.00
510.3720, 11627.00
511.5530, 11559.00
512.7340, 11631.00
513.9150, 11633.00
515.0950, 11616.00
516.2760, 11727.00
517.4560, 11773.00
518.6360, 11867.00
519.8160, 11817.00
520.9950, 11783.00
522.1750, 11777.00
523.3540, 11880.00
524.5340, 11859.00
525.7130, 11965.00
526.8920, 12009.00
528.0700, 12024.26
529.2490, 12075.13
530.4270, 12039.00
531.6060, 12113.00
532.7840, 12057.00
533.9620, 12063.00
535.1390, 12098.00
536.3170, 12053.00
537.4940, 12037.00
538.6720, 12054.00
539.8490, 11935.00
541.0260, 12041.00
542.2030, 11960.00
543.3790, 12198.00
544.5560, 11944.00
545.7320, 12353.00
546.9080, 12197.00
548.0840, 12247.00
549.2600, 12197.00
550.4360, 12379.00
551.6110, 12371.00
552.7860, 12529.00
553.9620, 12635.00
555.1370, 12819.00
556.3110, 13000.00
557.4860, 13025.00
558.6610, 13081.00
559.8350, 13064.00
561.0090, 12907.00
562.1830, 12794.00
563.3570, 12739.00
564.5310, 12457.00
565.7040, 12505.00
566.8780, 12238.00
568.0510, 12240.00
569.2240, 12161.00
570.3970, 12204.00
571.5700, 12238.00
572.7420, 12160.00
573.9150, 12054.00
575.0870, 12026.00
576.2590, 12002.00
577.4310, 11859.00
578.6030, 11954.00
579.7740, 11970.00
580.9460, 11887.00
582.1170, 11811.00
583.2880, 11797.00
584.4590, 11732.00
585.6300, 11715.00
586.8010, 11696.00
587.9710, 11523.00
589.1410, 11504.00
590.3110, 11547.00
591.4810, 11595.00
592.6510, 11461.00
593.8210, 11575.00
594.9900, 11628.00
596.1600, 11547.00
597.3290, 11421.00
598.4980, 11487.00
599.6670, 11555.00
600.8350, 11499.00
602.0040, 11546.00
603.1720, 11612.00
604.3400, 11696.00
605.5080, 11776.00
606.6760, 11659.00
607.8440, 11659.00
609.0120, 11754.00
610.1790, 11866.00
611.3460, 11834.00
612.5130, 11658.00
613.6800, 11848.00
614.8470, 11868.00
616.0130, 11682.00
617.1800, 11824.00
618.3460, 11943.00
619.5120, 11865.00
620.6780, 11967.00
621.8440, 12047.00
623.0090, 11980.00
624.1750, 12085.00
625.3400, 12066.00
626.5050, 12098.00
627.6700, 12140.25
628.8350, 12210.00
629.9990, 12169.00
631.1640, 12280.00
632.3280, 12245.00
633.4920, 12352.00
634.6560, 12333.00
635.8200, 12518.00
636.9840, 12379.00
638.1470, 12402.00
639.3100, 12528.00
640.4730, 12506.00
641.6360, 12761.00
642.7990, 12735.00
643.9620, 12902.00
645.1240, 13005.00
646.2870, 13172.00
647.4490, 13059.00
648.6110, 13257.00
649.7730, 13489.00
650.9340, 13631.00
652.0960, 14030.00
653.2570, 14316.00
654.4180, 14561.00
655.5790, 15180.00
656.7400, 15762.00
657.9010, 16486.00
659.0620, 17183.00
660.2220, 17894.00
661.3820, 18977.00
662.5420, 20002.00
663.7020, 20887.00
664.8620, 21505.00
666.0210, 21537.00
667.1810, 20965.00
668.3400, 20493.00
669.4990, 19623.00
670.6580, 18683.00
671.8170, 17752.00
672.9750, 16778.00
674.1340, 16054.00
675.2920, 15496.00
676.4500, 14859.00
677.6080, 14465.00
678.7660, 14272.00
679.9230, 14078.00
681.0810, 13783.00
682.2380, 13699.00
683.3950, 13533.00
684.5520, 13261.00
685.7090, 13227.00
686.8660, 13128.00
688.0220, 13050.00
689.1780, 13058.00
690.3340, 13034.00
691.4900, 12890.00
692.6460, 12983.00
693.8020, 12892.00
694.9570, 12770.00
696.1130, 12776.00
697.2680, 12789.00
698.4230, 12798.00
699.5780, 12703.00
700.7320, 12672.00
701.8870, 12608.00
703.0410, 12651.00
704.1950, 12727.00
705.3490, 12701.00
706.5030, 12624.00
707.6570, 12656.00
708.8110, 12599.00
709.9640, 12541.00
711.1170, 12722.00
712.2700, 12527.00
713.4230, 12879.00
714.5760, 12656.00
715.7280, 12737.00
716.8810, 12768.00
718.0330, 12572.00
719.1850, 12690.00
720.3370, 12566.00
721.4890, 12765.00
722.6400, 12573.00
723.7920, 12502.00
724.9430, 12775.00
726.0940, 12692.00
727.2450, 12698.00
728.3960, 12725.00
729.5460, 12717.00
730.6970, 12804.00
731.8470, 12770.00
732.9970, 12774.00
734.1470, 12830.00
735.2970, 12739.00
736.4460, 12828.00
737.5960, 12889.00
738.7450, 12859.00
739.8940, 12918.00
741.0430, 12957.00
742.1920, 12765.00
743.3410, 12940.00
744.4890, 13019.00
745.6370, 12841.00
746.7850, 12999.00
747.9330, 12796.00
749.0810, 13030.00
750.2290, 13086.00
751.3760, 12957.00
752.5240, 12985.00
753.6710, 13178.00
754.8180, 13164.00
755.9650, 13093.00
757.1110, 13202.00
758.2580, 13136.00
759.4040, 13225.00
760.5510, 13193.00
761.6970, 13268.00
762.8420, 13230.00
763.9880, 13344.00
765.1340, 13349.00
766.2790, 13343.00
767.4240, 13404.00
768.5690, 13342.00
769.7140, 13377.92
770.8590, 13415.00
772.0030, 13402.00
773.1480, 13377.00
774.2920, 13396.68
775.4360, 13581.00
776.5800, 13532.00
777.7240, 13507.00
778.8670, 13651.00
780.0110, 13484.00
781.1540, 13592.00
782.2970, 13655.00
783.4400, 13461.00
784.5830, 13701.00
785.7250, 13566.00
786.8680, 13676.00
788.0100, 13699.00
789.1520, 13765.00
790.2940, 13853.00
791.4360, 13594.00
792.5780, 13716.00
793.7190, 13675.00
794.8600, 13743.00
796.0010, 13734.00
797.1420, 13799.00
798.2830, 13661.00
799.4240, 13720.00
800.5640, 13571.00
801.7050, 13835.00
802.8450, 13752.00
803.9850, 13749.00
805.1250, 13709.00
806.2640, 13606.00
807.4040, 13828.00
808.5430, 13823.00
809.6820, 13796.00
810.8210, 13859.00
811.9600, 13796.00
813.0990, 13870.54
814.2370, 13816.00
815.3760, 14005.00
816.5140, 14019.00
817.6520, 14116.00
818.7900, 14106.00
819.9270, 14060.00
821.0650, 14163.00
822.2020, 14284.00
823.3390, 14277.00
824.4760, 14388.00
825.6130, 14309.00
826.7500, 14047.00
827.8870, 14165.00
829.0230, 14061.00
830.1590, 14267.00
831.2950, 14043.00
832.4310, 14157.00
833.5670, 14149.00
834.7030, 13976.00
835.8380, 14087.00
836.9730, 13982.00
838.1080, 14079.00
839.2430, 14056.00
840.3780, 14064.00
841.5130, 14094.00
842.6470, 14113.10
843.7810, 14170.00
844.9150, 14218.00
846.0490, 14220.00
847.1830, 14327.00
848.3170, 14447.00
849.4500, 14542.00
850.5830, 14495.00
851.7160, 14607.00
852.8490, 14699.00
853.9820, 14654.00
855.1150, 14981.00
856.2470, 14818.00
857.3800, 14908.00
858.5120, 15147.00
859.6440, 14818.00
860.7760, 15120.00
861.9070, 14874.00
863.0390, 14827.00
864.1700, 14697.00
865.3010, 14790.00
866.4320, 14776.00
867.5630, 14638.00
868.6940, 14840.00
869.8240, 14889.00
870.9540, 14841.00
872.0850, 14699.00
873.2150, 14749.00
874.3450, 14703.00
875.4740, 14672.00
876.6040, 14808.00
877.7330, 14834.00
878.8620, 14774.00
879.9910, 14944.00
881.1200, 14740.00
882.2490, 14852.00
883.3770, 14838.00
884.5060, 14749.00
885.6340, 14913.00
886.7620, 15030.00
887.8900, 14871.00
889.0180, 14967.00
890.1450, 15008.00
891.2730, 14948.00
892.4000, 15161.00
893.5270, 14907.00
894.6540, 15215.00
895.7810, 14926.00
896.9070, 15115.00
898.0340, 15003.00
899.1600, 15131.00
900.2860, 15173.00
901.4120, 15080.00
902.5380, 15021.00
903.6630, 15066.84
904.7890, 15148.00
905.9140, 15161.00
907.0390, 15240.00
908.1640, 15360.00
909.2890, 15244.00
910.4130, 15215.00
911.5380, 15258.00
912.6620, 15339.00
913.7860, 15292.00
914.9100, 15182.00
916.0340, 15375.00
917.1580, 15379.00
918.2810, 15592.00
919.4040, 15460.00
920.5280, 15355.00
921.6510, 15544.00
922.7730, 15382.00
923.8960, 15441.00
925.0180, 15268.00
926.1410, 15589.00
927.2630, 15611.00
928.3850, 15549.00
929.5070, 15358.00
930.6280, 15538.00
931.7500, 15679.00
932.8710, 15616.00
933.9920, 15518.00
935.1130, 15707.00
936.2340, 15501.00
937.3550, 15524.00
938.4760, 15621.00
939.5960, 15566.00
940.7160, 15600.00
941.8360, 15680.00
942.9560, 15662.00
944.0760, 15586.00
945.1950, 15800.00
946.3150, 15749.00
947.4340, 15625.00
948.5530, 15694.00
949.6720, 15662.13
950.7900, 15853.00
951.9090, 15813.00
953.0270, 15824.00
954.1460, 16106.00
955.2640, 16066.00
956.3820, 16003.00
957.4990, 16167.00
958.6170, 16027.00
959.7340, 16318.00
960.8520, 16255.00
961.9690, 16170.00
963.0860, 16210.00
964.2020, 16363.00
965.3190, 16351.00
966.4350, 16496.00
967.5520, 16638.00
968.6680, 16541.00
969.7840, 16322.00
970.8990, 16636.00
972.0150, 16569.00
973.1310, 16752.00
974.2460, 16573.00
975.3610, 16749.00
976.4760, 16594.00
977.5910, 16729.00
978.7050, 16841.00
979.8200, 16867.00
980.9340, 16682.00
982.0480, 16933.00
983.1620, 17082.00
984.2760, 16882.00
985.3900, 17078.00
986.5030, 17405.00
987.6160, 17258.00
988.7300, 17406.00
989.8430, 17590.00
990.9550, 17741.00
992.0680, 17904.00
993.1810, 17957.00
994.2930, 18365.00
995.4050, 18613.00
996.5170, 19060.00
997.6290, 19289.00
998.7410, 19635.00
999.8520, 20388.00
1000.964, 20767.00
1002.075, 21425.00
1003.186, 22345.00
1004.297, 23433.00
1005.407, 24547.50
1006.518, 25867.00
1007.628, 27312.00
1008.738, 28764.00
1009.848, 30561.00
1010.958, 32023.00
1012.068, 32866.00
1013.178, 32947.00
1014.287, 31681.00
1015.396, 30100.00
1016.505, 28018.00
1017.614, 26078.00
1018.723, 24180.00
1019.831, 22669.00
1020.940, 21673.00
1022.048, 20756.00
1023.156, 20061.00
1024.264, 19558.00
1025.372, 19226.00
1026.479, 18963.00
1027.587, 18558.00
1028.694, 18607.00
1029.801, 18395.00
1030.908, 18404.00
1032.015, 18312.00
1033.121, 18296.00
1034.228, 18180.00
1035.334, 18164.00
1036.440, 18230.00
1037.546, 18195.00
1038.652, 18265.00
1039.758, 18269.79
1040.863, 18276.00
1041.968, 18290.00
1043.074, 18311.00
1044.178, 18300.54
1045.283, 18384.00
1046.388, 18166.00
1047.492, 18174.00
1048.597, 18020.00
1049.701, 18177.00
1050.805, 17772.00
1051.909, 17983.00
1053.012, 17818.00
1054.116, 17791.00
1055.219, 17540.00
1056.322, 17524.00
1057.425, 17444.00
1058.528, 17426.00
1059.631, 17302.00
1060.733, 17335.51
1061.836, 17387.00
1062.938, 17368.00
1064.040, 17285.00
1065.142, 17270.00
1066.243, 17361.00
1067.345, 17297.00
1068.446, 17341.00
1069.547, 17321.84
1070.648, 17289.99
1071.749, 17261.00
1072.850, 17258.00
1073.951, 17207.00
1075.051, 17244.00
1076.151, 17108.00
1077.251, 17294.00
1078.351, 17308.00
1079.451, 17296.00
1080.550, 17163.00
1081.650, 17325.00
1082.749, 17247.00
1083.848, 17346.00
1084.947, 17530.00
1086.046, 17403.00
1087.144, 17425.00
1088.243, 17522.00
1089.341, 17354.00
1090.439, 17514.00
1091.537, 17404.00
1092.635, 17415.00
1093.732, 17411.00
1094.830, 17431.00
1095.927, 17387.00
1097.024, 17499.00
1098.121, 17425.00
1099.218, 17581.00
1100.314, 17492.00
1101.411, 17441.00
1102.507, 17602.00
1103.603, 17520.00
1104.699, 17531.00
1105.795, 17549.00
1106.890, 17553.00
1107.986, 17455.00
1109.081, 17583.00
1110.176, 17560.00
1111.271, 17717.00
1112.366, 17675.00
1113.461, 17745.00
1114.555, 17785.00
1115.649, 17676.00
1116.744, 17687.00
1117.838, 17650.71
1118.931, 17567.00
1120.025, 17661.00
1121.119, 17692.00
1122.212, 17863.00
1123.305, 17821.00
1124.398, 17761.00
1125.491, 17893.00
1126.584, 17723.00
1127.676, 17874.00
1128.768, 17881.00
1129.861, 17773.00
1130.953, 17926.00
1132.044, 17947.00
1133.136, 17714.93
1134.228, 17945.99
1135.319, 18079.32
1136.410, 18120.21
1137.501, 17791.71
1138.592, 17940.19
1139.683, 17897.52
1140.773, 17847.01
1141.864, 18062.62
1142.954, 17787.84
1144.044, 17999.23
1145.134, 18016.54
1146.224, 18122.68
1147.313, 18036.48
1148.402, 18009.69
1149.492, 18175.29
1150.581, 18234.35
1151.670, 18126.01
1152.758, 18237.78
1153.847, 17956.28
1154.935, 18019.88
1156.024, 18232.38
1157.112, 18133.70
1158.200, 18248.98
1159.287, 18282.77
1160.375, 17946.24
1161.462, 18253.74
1162.550, 18282.72
1163.637, 18025.71
1164.724, 18311.14
1165.810, 18093.55
1166.897, 18055.51
1167.983, 18152.58
1169.070, 18108.80
1170.156, 18287.10
1171.242, 18251.45
1172.327, 18196.67
1173.413, 18225.33
1174.499, 18017.60
1175.584, 18248.40
1176.669, 18418.00
1177.754, 18270.00
1178.839, 18346.00
1179.923, 18379.00
1181.008, 18299.00
1182.092, 18386.00
1183.176, 18474.00
1184.260, 18463.00
1185.344, 18482.00
1186.428, 18534.00
1187.511, 18350.00
1188.595, 18407.00
1189.678, 18530.00
1190.761, 18408.00
1191.843, 18593.00
1192.926, 18447.00
1194.009, 18377.00
1195.091, 18591.00
1196.173, 18583.00
1197.255, 18662.00
1198.337, 18679.00
1199.419, 18680.00
1200.500, 18679.61
1201.582, 18680.59
1202.663, 18619.00
1203.744, 18698.00
1204.825, 18672.00
1205.905, 18737.00
1206.986, 18748.00
1208.066, 18676.00
1209.146, 18700.00
1210.226, 18758.00
1211.306, 18781.00
1212.386, 18764.00
1213.466, 18936.00
1214.545, 18744.00
1215.624, 18810.00
1216.703, 18932.00
1217.782, 18851.00
1218.861, 18838.00
1219.939, 19032.00
1221.018, 18949.00
1222.096, 18938.00
1223.174, 18981.00
1224.252, 19030.00
1225.330, 19041.79
1226.407, 18943.00
1227.485, 19085.00
1228.562, 19090.00
1229.639, 19082.00
1230.716, 19185.00
1231.793, 19009.00
1232.869, 19177.00
1233.946, 19054.00
1235.022, 19213.00
1236.098, 19177.00
1237.174, 19122.00
1238.250, 19381.00
1239.325, 19212.00
1240.401, 19212.00
1241.476, 19285.00
1242.551, 19079.00
1243.626, 19412.00
1244.701, 19337.00
1245.776, 19451.00
1246.850, 19291.00
1247.924, 19330.00
1248.999, 19319.00
1250.073, 19415.00
1251.146, 19422.00
1252.220, 19423.53
1253.293, 19433.00
1254.367, 19409.00
1255.440, 19407.00
1256.513, 19402.00
1257.586, 19403.64
1258.658, 19442.40
1259.731, 19418.00
1260.803, 19483.00
1261.875, 19490.00
1262.947, 19398.00
1264.019, 19305.00
1265.091, 19506.00
1266.162, 19457.00
1267.234, 19732.00
1268.305, 19845.00
1269.376, 19834.00
1270.447, 19687.00
1271.517, 19755.00
1272.588, 19681.00
1273.658, 19933.00
1274.729, 19909.00
1275.799, 19836.00
1276.868, 19660.00
1277.938, 19962.00
1279.008, 19815.00
1280.077, 19844.00
1281.146, 19753.00
1282.215, 19734.00
1283.284, 19971.00
1284.353, 19956.00
1285.421, 19998.00
1286.490, 19894.00
1287.558, 19926.91
1288.626, 19838.00
1289.694, 19937.00
1290.762, 19808.00
1291.829, 19838.00
1292.897, 20004.00
1293.964, 19669.00
1295.031, 19875.00
1296.098, 19845.00
1297.165, 20011.00
1298.231, 20108.00
1299.298, 19917.00
1300.364, 19976.00
1301.430, 20068.00
1302.496, 20036.00
1303.562, 19993.00
1304.627, 20194.00
1305.693, 20056.00
1306.758, 20314.00
1307.823, 20189.00
1308.888, 20005.00
1309.953, 20340.00
1311.018, 20254.00
1312.082, 20487.00
1313.146, 20412.00
1314.210, 20237.00
1315.274, 20364.00
1316.338, 20241.00
1317.402, 20411.00
1318.465, 20448.00
1319.529, 20529.00
1320.592, 20636.00
1321.655, 20389.00
1322.718, 20451.00
1323.780, 20401.00
1324.843, 20671.00
1325.905, 20603.00
1326.967, 20585.00
1328.029, 20505.00
1329.091, 20608.00
1330.153, 20309.00
1331.214, 20536.00
1332.275, 20422.00
1333.337, 20353.00
1334.398, 20566.00
1335.458, 20678.00
1336.519, 20399.00
1337.580, 20376.00
1338.640, 20494.00
1339.700, 20669.00
1340.760, 20606.00
1341.820, 20744.00
1342.880, 20601.00
1343.939, 20543.00
1344.999, 20765.00
1346.058, 20705.00
1347.117, 20794.00
1348.176, 20744.00
1349.235, 20863.00
1350.293, 20870.00
1351.351, 20877.00
1352.410, 20908.00
1353.468, 20913.00
1354.526, 20882.00
1355.583, 20993.00
1356.641, 20874.00
1357.698, 20956.00
1358.756, 21243.00
1359.813, 21072.00
1360.869, 21262.00
1361.926, 21262.56
1362.983, 21166.00
1364.039, 21223.00
1365.095, 21312.00
1366.152, 21201.00
1367.207, 21353.00
1368.263, 21331.00
1369.319, 21529.00
1370.374, 21183.00
1371.430, 21305.00
1372.485, 21328.00
1373.540, 21304.00
1374.594, 21491.00
1375.649, 21329.00
1376.703, 21326.00
1377.758, 21224.00
1378.812, 21334.00
1379.866, 21366.00
1380.920, 21295.00
1381.973, 21457.00
1383.027, 21410.00
1384.080, 21554.00
1385.133, 21474.00
1386.186, 21467.00
1387.239, 21346.00
1388.291, 21522.00
1389.344, 21477.00
1390.396, 21378.00
1391.448, 21460.00
1392.500, 21418.00
1393.552, 21477.00
1394.604, 21429.00
1395.655, 21569.00
1396.707, 21818.00
1397.758, 21710.00
1398.809, 21771.00
1399.860, 21829.00
1400.910, 21544.00
1401.961, 21600.00
1403.011, 21706.00
1404.061, 21790.00
1405.111, 21804.00
1406.161, 21646.00
1407.211, 21800.00
1408.260, 21840.00
1409.310, 22015.00
1410.359, 21753.00
1411.408, 21908.00
1412.457, 21750.00
1413.506, 21719.00
1414.554, 21916.00
1415.603, 21965.00
1416.651, 22027.00
1417.699, 22052.00
1418.747, 21968.00
1419.794, 22037.00
1420.842, 21888.00
1421.889, 21968.00
1422.937, 21911.00
1423.984, 21900.00
1425.031, 21835.00
1426.077, 21845.72
1427.124, 21816.00
1428.170, 21917.00
1429.217, 22098.00
1430.263, 22263.00
1431.309, 22218.00
1432.354, 22191.00
1433.400, 22238.00
1434.445, 22019.00
1435.491, 22212.00
1436.536, 22116.00
1437.581, 22178.00
1438.625, 22294.00
1439.670, 22218.00
1440.714, 22238.00
1441.759, 22295.00
1442.803, 22434.00
1443.847, 22387.00
1444.890, 22419.00
1445.934, 22362.00
1446.978, 22467.00
1448.021, 22468.00
1449.064, 22385.00
1450.107, 22500.53
1451.150, 22276.00
1452.192, 22586.00
1453.235, 22455.00
1454.277, 22389.00
1455.319, 22571.00
1456.361, 22419.00
1457.403, 22528.00
1458.445, 22344.00
1459.486, 22477.00
1460.528, 22588.00
1461.569, 22474.00
1462.610, 22548.00
1463.651, 22519.00
1464.691, 22648.00
1465.732, 22698.00
1466.772, 22775.00
1467.812, 22688.00
1468.852, 22706.00
1469.892, 22718.00
1470.932, 22635.00
1471.971, 22656.00
1473.011, 22664.00
1474.050, 22842.00
1475.089, 22797.00
1476.128, 22794.00
1477.166, 22716.00
1478.205, 22728.00
1479.243, 22968.00
1480.282, 22818.00
1481.320, 22945.00
1482.357, 22897.00
1483.395, 23121.00
1484.433, 22887.00
1485.470, 22951.00
1486.507, 23177.00
1487.544, 23105.00
1488.581, 23146.00
1489.618, 22954.00
1490.655, 23239.00
1491.691, 22945.00
1492.727, 23060.00
1493.763, 23046.00
1494.799, 23132.00
1495.835, 23082.00
1496.871, 23189.00
1497.906, 23172.00
1498.941, 23240.00
1499.976, 23180.00
1501.011, 23147.00
1502.046, 23383.00
1503.081, 23140.00
1504.115, 23387.00
1505.149, 23163.00
1506.183, 23359.00
1507.217, 23381.00
1508.251, 23296.00
1509.285, 23587.00
1510.318, 23390.00
1511.352, 23152.00
1512.385, 23514.00
1513.418, 23311.00
1514.450, 23401.00
1515.483, 23392.00
1516.516, 23439.00
1517.548, 23424.00
1518.580, 23420.00
1519.612, 23559.00
1520.644, 23414.00
1521.675, 23648.00
1522.707, 23515.00
1523.738, 23574.00
1524.769, 23525.00
1525.800, 23651.00
1526.831, 23756.00
1527.862, 23711.00
1528.892, 23720.00
1529.923, 23666.00
1530.953, 23598.00
1531.983, 23631.00
1533.013, 23761.00
1534.042, 23605.00
1535.072, 23813.00
1536.101, 23767.00
1537.131, 23653.00
1538.160, 23799.00
1539.188, 23622.00
1540.217, 23705.00
1541.246, 23761.00
1542.274, 23906.00
1543.302, 23690.00
1544.330, 23997.00
1545.358, 23832.00
1546.386, 24012.00
1547.413, 23959.00
1548.441, 23924.00
1549.468, 23984.00
1550.495, 23953.00
1551.522, 23976.52
1552.549, 23923.00
1553.575, 24061.00
1554.602, 24045.00
1555.628, 24193.00
1556.654, 24029.00
1557.680, 23787.00
1558.706, 24031.00
1559.731, 24104.00
1560.757, 23921.00
1561.782, 24135.00
1562.807, 24173.00
1563.832, 24316.00
1564.857, 24093.00
1565.881, 24134.00
1566.906, 24173.00
1567.930, 24113.00
1568.954, 24125.00
1569.978, 24157.00
1571.002, 24235.00
1572.025, 24173.00
1573.049, 24201.00
1574.072, 24057.00
1575.095, 24273.00
1576.118, 24281.00
1577.141, 24414.00
##END=



