##NAMES=Diopside
##RRUFFID=R050406
##IDEAL CHEMISTRY=CaMgSi_2_O_6_
##LOCALITY=unknown
##OWNER=RRUFF
##SOURCE=University of Arizona Mineral Museum
##DESCRIPTION=Brownish gray massive
##STATUS=The identification of this mineral has been confirmed by X-ray diffraction and chemical analysis
##URL=rruff.info/R050406
##MEASURED CHEMISTRY=(Ca_0.95_Na_0.05_)(Mg_0.75_Fe^2+^_0.18_Fe^3+^_0.05_Al_0.01_Ti_0.01_Mn^2+^_0.01_)(Si_0.98_Al_0.02_)_2_O_6_
##PIN_ID=M00191
##ORIENTATION=Laser parallel to -b* (0 -1 0). Fiducial mark perpendicular to laser is parallel to c [0 0 1]
116.9030, 8384.000
118.1340, 8448.000
119.3650, 8423.000
120.5960, 8572.000
121.8270, 8862.000
123.0580, 9528.000
124.2880, 9913.000
125.5190, 10518.00
126.7490, 11609.00
127.9790, 12742.00
129.2090, 14177.00
130.4390, 14944.00
131.6680, 15290.00
132.8980, 15247.00
134.1270, 15458.00
135.3560, 15293.00
136.5850, 14979.00
137.8140, 14892.00
139.0430, 14786.00
140.2710, 14184.00
141.5000, 13524.00
142.7280, 12570.00
143.9560, 11738.00
145.1840, 10974.00
146.4120, 10176.00
147.6390, 9556.000
148.8670, 9111.000
150.0940, 8928.000
151.3210, 8750.000
152.5490, 8526.000
153.7750, 8447.000
155.0020, 8244.000
156.2290, 8096.000
157.4550, 8033.000
158.6810, 7986.000
159.9080, 7949.000
161.1340, 7988.000
162.3590, 8139.000
163.5850, 8150.095
164.8110, 8236.307
166.0360, 8325.000
167.2610, 8428.000
168.4860, 8574.000
169.7110, 8624.574
170.9360, 8749.000
172.1610, 8722.000
173.3850, 8697.000
174.6100, 8670.000
175.8340, 8713.000
177.0580, 8712.000
178.2820, 8738.000
179.5050, 8766.000
180.7290, 8784.000
181.9520, 8704.000
183.1760, 8681.000
184.3990, 8817.000
185.6220, 8713.000
186.8450, 8841.000
188.0670, 8690.000
189.2900, 8687.000
190.5120, 8713.000
191.7340, 8773.000
192.9560, 8738.000
194.1780, 8793.000
195.4000, 8899.000
196.6220, 8846.000
197.8430, 8741.000
199.0640, 8663.000
200.2860, 8816.000
201.5070, 8903.000
202.7270, 8670.000
203.9480, 8529.000
205.1690, 8130.000
206.3890, 8056.000
207.6090, 7933.000
208.8290, 7883.000
210.0490, 8074.000
211.2690, 8144.000
212.4890, 8260.000
213.7080, 8233.000
214.9280, 8148.000
216.1470, 8128.000
217.3660, 8351.000
218.5850, 8355.000
219.8030, 8571.000
221.0220, 8697.000
222.2400, 8968.000
223.4590, 8941.000
224.6770, 9049.000
225.8950, 9074.000
227.1120, 8917.000
228.3300, 9088.000
229.5480, 9013.000
230.7650, 9064.000
231.9820, 9013.000
233.1990, 8999.000
234.4160, 8997.000
235.6330, 8985.000
236.8490, 8978.000
238.0660, 8978.000
239.2820, 8970.000
240.4980, 8915.000
241.7140, 9017.000
242.9300, 8996.000
244.1460, 9129.000
245.3610, 9185.000
246.5770, 9190.000
247.7920, 9226.000
249.0070, 9297.000
250.2220, 9181.000
251.4370, 9269.000
252.6510, 9262.000
253.8660, 9158.000
255.0800, 9177.000
256.2940, 9225.000
257.5080, 9910.000
258.7220, 9458.926
259.9360, 9859.000
261.1490, 8991.000
262.3630, 8705.000
263.5760, 8619.000
264.7890, 8568.000
266.0020, 8491.000
267.2150, 8400.000
268.4270, 8426.000
269.6400, 8428.000
270.8520, 8351.000
272.0640, 8314.000
273.2760, 8411.000
274.4880, 8538.000
275.7000, 8530.000
276.9120, 8489.000
278.1230, 8559.000
279.3340, 8569.000
280.5450, 8475.000
281.7560, 8587.000
282.9670, 8639.000
284.1780, 8817.000
285.3880, 8773.000
286.5980, 8905.000
287.8090, 9031.000
289.0190, 9122.000
290.2290, 8981.000
291.4380, 9150.000
292.6480, 9260.210
293.8570, 9440.000
295.0670, 9615.000
296.2760, 9891.000
297.4850, 10068.00
298.6930, 10200.00
299.9020, 10480.00
301.1110, 10974.00
302.3190, 11185.00
303.5270, 11621.00
304.7350, 12030.00
305.9430, 12424.00
307.1510, 13137.00
308.3580, 13940.00
309.5660, 14862.00
310.7730, 15601.00
311.9800, 16519.00
313.1870, 17527.00
314.3940, 18452.00
315.6010, 19104.00
316.8070, 19635.00
318.0130, 19937.00
319.2200, 20165.06
320.4260, 19964.00
321.6310, 20033.00
322.8370, 19810.00
324.0430, 19160.00
325.2480, 18800.00
326.4540, 18201.00
327.6590, 17540.00
328.8640, 16828.00
330.0680, 16125.00
331.2730, 15504.00
332.4780, 14716.00
333.6820, 14303.00
334.8860, 13990.00
336.0900, 13814.00
337.2940, 13579.54
338.4980, 13365.00
339.7010, 13390.00
340.9050, 13427.00
342.1080, 13543.00
343.3110, 13794.00
344.5140, 13803.00
345.7170, 14166.00
346.9200, 14350.00
348.1220, 14739.00
349.3240, 14974.00
350.5270, 14929.00
351.7290, 15069.00
352.9310, 15103.00
354.1320, 15111.00
355.3340, 15002.00
356.5350, 15014.00
357.7370, 14743.00
358.9380, 14583.00
360.1390, 14497.00
361.3400, 14123.00
362.5400, 13795.00
363.7410, 13633.00
364.9410, 13400.00
366.1410, 13237.00
367.3410, 12934.00
368.5410, 13099.00
369.7410, 13119.00
370.9400, 13280.00
372.1400, 13556.00
373.3390, 13958.84
374.5380, 14380.00
375.7370, 15062.00
376.9360, 15847.00
378.1350, 16543.00
379.3330, 17571.00
380.5310, 18100.00
381.7300, 19214.00
382.9280, 19128.00
384.1260, 19494.00
385.3230, 19424.00
386.5210, 19109.00
387.7180, 18842.00
388.9160, 18458.00
390.1130, 17620.00
391.3100, 17105.00
392.5060, 16166.00
393.7030, 15364.00
394.9000, 14381.00
396.0960, 13432.00
397.2920, 12818.00
398.4880, 12110.00
399.6840, 11423.00
400.8800, 10932.00
402.0750, 10636.00
403.2710, 10401.00
404.4660, 10170.00
405.6610, 9950.000
406.8560, 9809.000
408.0510, 9610.000
409.2450, 9573.000
410.4400, 9535.000
411.6340, 9457.000
412.8280, 9368.000
414.0220, 9344.000
415.2160, 9270.000
416.4100, 9181.000
417.6030, 9212.000
418.7970, 9193.000
419.9900, 9198.000
421.1830, 9158.000
422.3760, 9004.000
423.5690, 9014.000
424.7610, 8993.000
425.9540, 8991.000
427.1460, 9022.000
428.3380, 8907.000
429.5300, 8927.000
430.7220, 8930.000
431.9140, 8935.000
433.1050, 8915.000
434.2970, 8824.000
435.4880, 9023.000
436.6790, 8834.000
437.8700, 8921.000
439.0610, 8942.000
440.2510, 8933.000
441.4420, 8909.000
442.6320, 8828.000
443.8220, 8926.000
445.0120, 9039.000
446.2020, 8915.000
447.3910, 9029.000
448.5810, 9162.000
449.7700, 9137.000
450.9600, 9154.000
452.1490, 9189.000
453.3370, 9287.000
454.5260, 9372.000
455.7150, 9314.000
456.9030, 9363.000
458.0910, 9339.000
459.2800, 9387.000
460.4670, 9262.000
461.6550, 9267.000
462.8430, 9291.000
464.0300, 9243.000
465.2180, 9300.000
466.4050, 9215.000
467.5920, 9242.000
468.7790, 9203.000
469.9650, 9139.000
471.1520, 9078.000
472.3380, 9158.000
473.5250, 9204.000
474.7110, 9181.000
475.8970, 9119.000
477.0820, 9125.000
478.2680, 9265.000
479.4540, 9173.000
480.6390, 9259.000
481.8240, 9257.000
483.0090, 9180.000
484.1940, 9299.000
485.3780, 9389.000
486.5630, 9299.000
487.7470, 9511.000
488.9320, 9487.000
490.1160, 9572.000
491.3000, 9773.000
492.4830, 9986.000
493.6670, 10215.00
494.8500, 10431.00
496.0340, 10940.00
497.2170, 11353.00
498.4000, 11605.00
499.5820, 11689.00
500.7650, 12029.00
501.9480, 11852.00
503.1300, 11854.00
504.3120, 12029.00
505.4940, 11892.00
506.6760, 11867.00
507.8580, 11733.00
509.0390, 11457.00
510.2210, 11213.00
511.4020, 10995.00
512.5830, 10875.00
513.7640, 10618.00
514.9450, 10541.00
516.1250, 10433.00
517.3060, 10306.00
518.4860, 10573.00
519.6660, 10306.00
520.8460, 10530.00
522.0260, 10460.00
523.2060, 10371.00
524.3850, 10539.00
525.5650, 10722.00
526.7440, 10632.00
527.9230, 10606.00
529.1020, 10695.00
530.2810, 10729.00
531.4590, 10678.00
532.6380, 10685.00
533.8160, 10677.00
534.9940, 10636.00
536.1720, 10731.00
537.3500, 10771.00
538.5270, 10680.00
539.7050, 10782.00
540.8820, 10599.00
542.0590, 10669.00
543.2360, 10695.00
544.4130, 10718.00
545.5900, 10701.00
546.7660, 10769.00
547.9430, 10961.00
549.1190, 10805.00
550.2950, 10945.00
551.4710, 11080.00
552.6470, 11039.00
553.8220, 10974.00
554.9980, 10875.00
556.1730, 11014.00
557.3480, 10888.00
558.5230, 10803.00
559.6980, 10768.00
560.8730, 10656.00
562.0470, 10579.00
563.2220, 10533.00
564.3960, 10396.00
565.5700, 10431.00
566.7440, 10366.00
567.9170, 10311.00
569.0910, 10363.00
570.2640, 10156.00
571.4380, 10029.00
572.6110, 10107.00
573.7840, 10049.00
574.9570, 10007.00
576.1290, 9892.000
577.3020, 9858.000
578.4740, 9782.000
579.6460, 9684.000
580.8180, 9669.000
581.9900, 9695.000
583.1620, 9511.000
584.3330, 9443.000
585.5040, 9594.000
586.6760, 9564.000
587.8470, 9351.000
589.0180, 9526.000
590.1880, 9322.000
591.3590, 9280.000
592.5290, 9455.000
593.7000, 10367.00
594.8700, 10404.00
596.0400, 11250.00
597.2090, 10389.00
598.3790, 9231.000
599.5490, 9253.000
600.7180, 9339.000
601.8870, 9274.000
603.0560, 9296.000
604.2250, 9256.000
605.3940, 9384.000
606.5620, 9359.000
607.7300, 9466.000
608.8990, 9452.000
610.0670, 9452.000
611.2350, 9559.000
612.4020, 9642.000
613.5700, 9599.000
614.7370, 9793.000
615.9050, 9806.000
617.0720, 9916.000
618.2390, 9980.000
619.4060, 10112.00
620.5720, 10073.00
621.7390, 10096.00
622.9050, 10280.00
624.0710, 10437.00
625.2370, 10424.00
626.4030, 10668.00
627.5690, 10746.00
628.7340, 10879.00
629.9000, 11080.00
631.0650, 11178.00
632.2300, 11382.00
633.3950, 11527.00
634.5600, 11610.00
635.7240, 11912.00
636.8890, 12124.00
638.0530, 12450.00
639.2170, 12793.00
640.3810, 13220.00
641.5450, 13492.00
642.7080, 14127.00
643.8720, 14692.00
645.0350, 15400.00
646.1980, 16211.00
647.3610, 17359.00
648.5240, 18672.00
649.6870, 20403.00
650.8490, 22420.00
652.0120, 25087.00
653.1740, 28147.00
654.3360, 32124.00
655.4980, 36817.00
656.6600, 41451.00
657.8210, 46251.00
658.9830, 50330.00
660.1440, 53485.00
661.3050, 55253.00
662.4660, 56448.00
663.6270, 56190.00
664.7870, 54955.00
665.9480, 52778.00
667.1080, 49941.00
668.2680, 46739.00
669.4280, 42699.00
670.5880, 38123.00
671.7480, 35265.00
672.9070, 30064.00
674.0670, 27726.00
675.2260, 23879.00
676.3850, 21526.00
677.5440, 19270.00
678.7030, 17932.00
679.8610, 16760.00
681.0200, 15640.00
682.1780, 14921.00
683.3360, 14256.00
684.4940, 13623.00
685.6520, 13206.00
686.8090, 12804.00
687.9670, 12345.00
689.1240, 12131.00
690.2810, 11895.00
691.4380, 11711.00
692.5950, 11433.00
693.7520, 11269.00
694.9080, 11093.00
696.0650, 10985.00
697.2210, 11011.00
698.3770, 10773.00
699.5330, 10653.00
700.6880, 10775.00
701.8440, 10518.00
702.9990, 10564.00
704.1550, 10407.00
705.3100, 10416.00
706.4650, 10336.00
707.6190, 10242.00
708.7740, 10213.00
709.9290, 10076.00
711.0830, 10088.00
712.2370, 9915.000
713.3910, 10037.00
714.5450, 9779.000
715.6980, 9950.000
716.8520, 9808.000
718.0050, 9879.000
719.1580, 9729.000
720.3110, 9881.000
721.4640, 9852.000
722.6170, 9763.000
723.7700, 9719.000
724.9220, 9727.000
726.0740, 9775.000
727.2260, 9616.000
728.3780, 9703.000
729.5300, 9804.000
730.6810, 9583.000
731.8330, 9663.000
732.9840, 9654.000
734.1350, 9671.000
735.2860, 9660.000
736.4370, 9537.000
737.5880, 9519.000
738.7380, 9592.000
739.8880, 9691.000
741.0390, 9693.000
742.1890, 9744.000
743.3380, 9789.000
744.4880, 9699.000
745.6380, 9734.000
746.7870, 9609.000
747.9360, 9743.000
749.0850, 9724.000
750.2340, 9726.000
751.3830, 9609.000
752.5310, 9773.000
753.6800, 9734.000
754.8280, 9771.000
755.9760, 9813.000
757.1240, 9919.000
758.2720, 9908.000
759.4190, 9802.000
760.5670, 9889.000
761.7140, 9947.000
762.8610, 10032.00
764.0080, 10031.74
765.1550, 10123.00
766.3020, 9999.000
767.4480, 9994.000
768.5950, 9939.000
769.7410, 9989.000
770.8870, 10035.00
772.0330, 10101.00
773.1780, 9992.000
774.3240, 9921.000
775.4690, 9961.000
776.6140, 10005.00
777.7590, 10181.00
778.9040, 10008.00
780.0490, 10013.00
781.1940, 10217.00
782.3380, 10130.00
783.4820, 10136.00
784.6260, 10079.00
785.7700, 10112.00
786.9140, 10155.00
788.0580, 9993.000
789.2010, 10096.00
790.3450, 10236.00
791.4880, 10180.00
792.6310, 10085.00
793.7730, 10174.00
794.9160, 10338.00
796.0590, 10140.00
797.2010, 10219.00
798.3430, 10107.00
799.4850, 10098.00
800.6270, 10095.00
801.7690, 10315.00
802.9100, 10202.00
804.0520, 10202.00
805.1930, 10269.00
806.3340, 10207.00
807.4750, 10232.00
808.6160, 10269.00
809.7560, 10186.00
810.8970, 10295.00
812.0370, 10330.00
813.1770, 10382.00
814.3170, 10382.00
815.4570, 10501.00
816.5960, 10450.00
817.7360, 10590.00
818.8750, 10599.00
820.0140, 10558.00
821.1530, 10757.00
822.2920, 10671.00
823.4310, 10670.00
824.5690, 10629.00
825.7070, 10741.00
826.8460, 10792.00
827.9840, 10764.00
829.1220, 10646.00
830.2590, 10761.00
831.3970, 10794.00
832.5340, 10868.00
833.6710, 10901.26
834.8080, 10863.00
835.9450, 10966.00
837.0820, 10993.00
838.2190, 11074.00
839.3550, 11160.00
840.4910, 11259.00
841.6270, 11475.00
842.7630, 11749.00
843.8990, 11893.00
845.0350, 12368.00
846.1700, 12780.00
847.3060, 13487.00
848.4410, 13785.00
849.5760, 14252.00
850.7100, 14657.00
851.8450, 14871.00
852.9800, 15000.00
854.1140, 15069.00
855.2480, 14992.00
856.3820, 15022.00
857.5160, 14580.00
858.6500, 14406.00
859.7830, 14117.00
860.9170, 13972.00
862.0500, 13560.00
863.1830, 13348.00
864.3160, 13056.00
865.4480, 12998.00
866.5810, 12706.00
867.7130, 12680.00
868.8460, 12741.00
869.9780, 12676.00
871.1100, 12624.04
872.2410, 12470.00
873.3730, 12502.00
874.5050, 12467.00
875.6360, 12508.00
876.7670, 12411.00
877.8980, 12497.00
879.0290, 12500.47
880.1590, 12477.14
881.2900, 12545.00
882.4200, 12461.00
883.5500, 12406.00
884.6800, 12388.00
885.8100, 12460.00
886.9400, 12582.00
888.0690, 12462.00
889.1990, 12534.00
890.3280, 12530.00
891.4570, 12337.00
892.5860, 12636.00
893.7140, 12563.00
894.8430, 12497.00
895.9710, 12412.00
897.1000, 12435.00
898.2280, 12585.00
899.3560, 12402.00
900.4830, 12530.00
901.6110, 12394.00
902.7380, 12418.00
903.8660, 12358.00
904.9930, 12289.00
906.1200, 12265.00
907.2460, 12234.00
908.3730, 12207.90
909.5000, 12192.55
910.6260, 12191.00
911.7520, 12188.00
912.8780, 12204.00
914.0040, 12254.00
915.1290, 12180.00
916.2550, 12082.00
917.3800, 12091.00
918.5050, 12238.00
919.6300, 12114.00
920.7550, 12252.00
921.8800, 12153.00
923.0040, 12203.00
924.1290, 12285.00
925.2530, 12149.00
926.3770, 12176.00
927.5010, 12252.00
928.6250, 12405.00
929.7480, 12199.00
930.8720, 12215.00
931.9950, 12293.00
933.1180, 12214.00
934.2410, 12132.00
935.3640, 12200.00
936.4860, 12233.00
937.6090, 12236.00
938.7310, 12333.00
939.8530, 12026.00
940.9750, 12215.00
942.0970, 12097.00
943.2180, 12068.00
944.3400, 12168.00
945.4610, 12328.00
946.5820, 12321.00
947.7030, 12356.00
948.8240, 12344.00
949.9450, 12463.00
951.0650, 12543.00
952.1860, 12633.00
953.3060, 12733.77
954.4260, 12818.00
955.5460, 12932.00
956.6650, 12948.00
957.7850, 13062.00
958.9040, 12966.00
960.0230, 13013.00
961.1420, 12972.00
962.2610, 13062.00
963.3800, 13204.00
964.4990, 13218.00
965.6170, 13292.00
966.7350, 13362.00
967.8530, 13575.00
968.9710, 13464.00
970.0890, 13468.00
971.2070, 13735.00
972.3240, 13638.00
973.4410, 13790.00
974.5580, 13871.00
975.6750, 13910.00
976.7920, 13915.00
977.9090, 14176.00
979.0250, 14247.00
980.1410, 14246.00
981.2580, 14415.00
982.3740, 14654.00
983.4890, 14836.00
984.6050, 15075.00
985.7200, 15336.00
986.8360, 15591.00
987.9510, 15901.00
989.0660, 16332.00
990.1810, 16729.00
991.2950, 17257.00
992.4100, 17874.00
993.5240, 18610.00
994.6390, 19578.70
995.7530, 20504.00
996.8660, 21999.00
997.9800, 23573.00
999.0940, 25352.00
1000.207, 27956.00
1001.320, 30590.00
1002.433, 34259.00
1003.546, 38596.00
1004.659, 43428.00
1005.772, 49210.00
1006.884, 54070.00
1007.996, 58438.00
1009.108, 60716.00
1010.220, 61516.00
1011.332, 60349.00
1012.444, 58524.00
1013.555, 55288.00
1014.666, 51249.00
1015.777, 46245.00
1016.888, 41546.00
1017.999, 36674.00
1019.110, 32619.00
1020.220, 28827.00
1021.331, 26449.00
1022.441, 24339.00
1023.551, 22789.00
1024.661, 21233.00
1025.770, 20512.00
1026.880, 19897.00
1027.989, 19208.00
1029.098, 18740.00
1030.207, 18516.00
1031.316, 18191.00
1032.425, 18138.00
1033.533, 18010.00
1034.642, 17847.00
1035.750, 17893.00
1036.858, 18189.00
1037.966, 18141.00
1039.073, 18332.00
1040.181, 18421.00
1041.288, 18330.00
1042.396, 18260.00
1043.503, 18253.00
1044.610, 18083.00
1045.716, 17650.00
1046.823, 17515.00
1047.929, 17123.00
1049.036, 16664.00
1050.142, 16386.00
1051.248, 15920.00
1052.353, 15734.00
1053.459, 15482.00
1054.564, 15241.01
1055.670, 15095.70
1056.775, 14849.00
1057.880, 14749.00
1058.985, 14487.00
1060.089, 14203.00
1061.194, 14220.00
1062.298, 14104.00
1063.402, 14126.00
1064.506, 13895.00
1065.610, 13845.00
1066.713, 13760.00
1067.817, 13757.00
1068.920, 13693.00
1070.023, 13662.27
1071.126, 13579.00
1072.229, 13562.00
1073.332, 13564.00
1074.435, 13428.00
1075.537, 13428.00
1076.639, 13398.00
1077.741, 13466.00
1078.843, 13288.00
1079.945, 13446.00
1081.046, 13359.00
1082.148, 13348.00
1083.249, 13359.00
1084.350, 13375.00
1085.451, 13444.00
1086.551, 13320.00
1087.652, 13199.00
1088.752, 13204.00
1089.853, 13250.00
1090.953, 13273.00
1092.053, 13187.00
1093.152, 13164.00
1094.252, 13105.00
1095.351, 13162.00
1096.451, 13084.00
1097.550, 13063.00
1098.649, 13196.00
1099.748, 12972.00
1100.846, 13086.00
1101.945, 13096.00
1103.043, 13050.00
1104.141, 12959.00
1105.239, 13014.00
1106.337, 13015.00
1107.434, 12990.00
1108.532, 13123.00
1109.629, 12984.00
1110.726, 13113.00
1111.823, 13058.00
1112.920, 13119.00
1114.017, 12918.00
1115.113, 13258.00
1116.210, 13245.00
1117.306, 13153.00
1118.402, 13323.00
1119.498, 13245.00
1120.593, 13335.00
1121.689, 13369.00
1122.784, 13261.00
1123.879, 13208.00
1124.974, 13390.00
1126.069, 13354.00
1127.164, 13326.00
1128.259, 13389.00
1129.353, 13046.00
1130.447, 13032.00
1131.541, 12901.00
1132.635, 12999.00
1133.729, 12728.00
1134.822, 12861.00
1135.916, 12876.00
1137.009, 12791.00
1138.102, 12880.00
1139.195, 12876.00
1140.288, 12809.00
1141.380, 12759.00
1142.473, 12720.47
1143.565, 12594.00
1144.657, 12639.00
1145.749, 12561.00
1146.841, 12556.00
1147.932, 12441.00
1149.024, 12363.00
1150.115, 12402.00
1151.206, 12415.00
1152.297, 12286.00
1153.388, 12315.00
1154.479, 12274.00
1155.569, 12264.00
1156.659, 12288.00
1157.750, 12309.00
1158.839, 12139.00
1159.929, 12323.00
1161.019, 12123.00
1162.108, 12043.00
1163.198, 12089.00
1164.287, 12130.00
1165.376, 12149.00
1166.465, 12144.00
1167.553, 12162.00
1168.642, 12162.86
1169.730, 12175.52
1170.818, 12177.00
1171.906, 12203.00
1172.994, 12233.26
1174.082, 12250.23
1175.170, 12243.00
1176.257, 12241.00
1177.344, 12247.00
1178.431, 12150.00
1179.518, 12079.00
1180.605, 12223.00
1181.691, 12302.00
1182.778, 12192.00
1183.864, 12197.00
1184.950, 12275.00
1186.036, 12229.00
1187.122, 12285.00
1188.207, 12147.00
1189.292, 12197.00
1190.378, 12207.57
1191.463, 12177.00
1192.548, 12171.00
1193.632, 12364.00
1194.717, 12134.00
1195.801, 11953.00
1196.886, 12191.00
1197.970, 12167.00
1199.054, 12296.00
1200.137, 12304.00
1201.221, 12219.00
1202.305, 12208.00
1203.388, 12161.00
1204.471, 12245.00
1205.554, 12119.00
1206.637, 12286.00
1207.719, 12286.00
1208.802, 12328.00
1209.884, 12222.00
1210.966, 12248.00
1212.048, 12352.00
1213.130, 12262.00
1214.212, 12247.00
1215.293, 12244.00
1216.374, 12331.00
1217.456, 12431.00
1218.536, 12346.00
1219.617, 12357.00
1220.698, 12405.00
1221.778, 12368.00
1222.859, 12447.00
1223.939, 12385.00
1225.019, 12465.00
1226.099, 12299.00
1227.178, 12294.00
1228.258, 12352.00
1229.337, 12326.00
1230.417, 12343.00
1231.496, 12412.00
1232.574, 12405.08
1233.653, 12497.00
1234.732, 12434.00
1235.810, 12491.00
1236.888, 12469.00
1237.966, 12608.00
1239.044, 12531.00
1240.122, 12609.00
1241.199, 12640.00
1242.277, 12496.00
1243.354, 12699.00
1244.431, 12469.00
1245.508, 12630.00
1246.585, 12617.00
1247.661, 12627.00
1248.738, 12506.00
1249.814, 12668.00
1250.890, 12577.00
1251.966, 12705.00
1253.042, 12677.00
1254.117, 12579.00
1255.193, 12665.00
1256.268, 12667.00
1257.343, 12613.89
1258.418, 12486.00
1259.493, 12562.00
1260.567, 12554.00
1261.642, 12593.00
1262.716, 12497.00
1263.790, 12852.00
1264.864, 12639.00
1265.938, 12789.00
1267.011, 12778.00
1268.085, 12757.00
1269.158, 12686.00
1270.231, 12896.00
1271.304, 12675.00
1272.377, 12775.00
1273.450, 12830.00
1274.522, 12736.00
1275.594, 12733.00
1276.666, 12874.00
1277.738, 12799.00
1278.810, 12770.00
1279.882, 12948.00
1280.953, 12906.00
1282.025, 12692.00
1283.096, 12858.00
1284.167, 12803.00
1285.238, 12820.00
1286.308, 12906.00
1287.379, 12902.00
1288.449, 12917.00
1289.519, 12818.00
1290.589, 12865.00
1291.659, 12728.00
1292.729, 12937.00
1293.798, 12802.00
1294.868, 12878.00
1295.937, 13017.00
1297.006, 13074.00
1298.075, 12862.00
1299.143, 12847.00
1300.212, 12855.00
1301.280, 13055.00
1302.348, 13010.00
1303.416, 13014.96
1304.484, 12846.00
1305.552, 12925.00
1306.620, 13044.00
1307.687, 13019.00
1308.754, 13013.00
1309.821, 12998.00
1310.888, 12983.00
1311.955, 13103.00
1313.021, 13129.00
1314.088, 13159.83
1315.154, 13097.00
1316.220, 13158.00
1317.286, 13239.00
1318.352, 13111.00
1319.417, 13207.00
1320.483, 13376.00
1321.548, 13171.00
1322.613, 13138.00
1323.678, 13229.00
1324.743, 13243.00
1325.807, 13252.00
1326.872, 13296.00
1327.936, 13270.00
1329.000, 13209.00
1330.064, 13208.00
1331.128, 13277.00
1332.191, 13226.70
1333.255, 13234.12
1334.318, 13203.00
1335.381, 13202.00
1336.444, 13185.75
1337.507, 13192.00
1338.569, 13254.00
1339.632, 13255.00
1340.694, 13348.00
1341.756, 13277.00
1342.818, 13379.00
1343.880, 13404.00
1344.941, 13213.00
1346.003, 13362.00
1347.064, 13308.00
1348.125, 13281.00
1349.186, 13451.00
1350.247, 13222.00
1351.308, 13400.00
1352.368, 13442.00
1353.428, 13377.00
1354.489, 13399.00
1355.549, 13536.00
1356.608, 13374.00
1357.668, 13337.00
1358.727, 13423.00
1359.787, 13356.00
1360.846, 13342.00
1361.905, 13488.00
1362.964, 13433.00
1364.022, 13462.00
1365.081, 13466.60
1366.139, 13268.00
1367.197, 13409.00
1368.255, 13354.00
1369.313, 13301.00
1370.371, 13416.00
1371.428, 13385.00
1372.486, 13228.00
1373.543, 13421.00
1374.600, 13536.00
1375.657, 13430.00
1376.713, 13639.00
1377.770, 13518.17
1378.826, 13555.00
1379.882, 13482.00
1380.938, 13340.00
1381.994, 13581.00
1383.050, 13430.00
1384.106, 13500.00
1385.161, 13468.00
1386.216, 13431.00
1387.271, 13612.00
1388.326, 13312.00
1389.381, 13397.00
1390.435, 13378.00
1391.490, 13551.00
1392.544, 13389.00
1393.598, 13555.00
1394.652, 13559.00
1395.705, 13486.00
1396.759, 13503.00
1397.812, 13515.00
1398.866, 13502.00
1399.919, 13462.00
1400.972, 13480.64
1402.024, 13511.00
1403.077, 13506.00
1404.129, 13576.00
1405.181, 13630.00
1406.233, 13521.00
1407.285, 13593.00
1408.337, 13557.00
1409.389, 13454.00
1410.440, 13507.00
1411.491, 13512.00
1412.542, 13518.00
1413.593, 13588.00
1414.644, 13587.00
1415.695, 13552.00
1416.745, 13504.00
1417.795, 13516.00
1418.845, 13537.00
1419.895, 13531.39
1420.945, 13663.00
1421.995, 13562.00
1423.044, 13655.00
1424.093, 13676.00
1425.142, 13649.00
1426.191, 13595.00
1427.240, 13689.00
1428.289, 13608.00
1429.337, 13648.00
1430.385, 13729.00
1431.433, 13613.00
1432.481, 13590.00
1433.529, 13527.00
1434.577, 13567.00
1435.624, 13675.00
1436.672, 13651.00
1437.719, 13692.00
1438.766, 13733.00
1439.812, 13740.00
1440.859, 13809.00
1441.905, 13758.00
1442.952, 13803.00
1443.998, 13922.00
1445.044, 13864.00
1446.090, 13960.00
1447.135, 13951.51
1448.181, 14007.00
1449.226, 13953.00
1450.271, 13877.00
1451.316, 13893.00
1452.361, 13833.00
1453.405, 13940.00
1454.450, 13940.00
1455.494, 13883.00
1456.538, 13870.00
1457.582, 13880.25
1458.626, 13836.83
1459.670, 13924.00
1460.713, 13824.00
1461.757, 13861.00
1462.800, 13935.00
1463.843, 13895.00
1464.886, 13849.00
1465.928, 13914.00
1466.971, 13976.00
1468.013, 13866.00
1469.055, 13826.00
1470.097, 13917.00
1471.139, 13868.00
1472.181, 13884.00
1473.222, 13848.00
1474.263, 13908.00
1475.305, 13964.00
1476.346, 13834.00
1477.386, 13897.00
1478.427, 13944.00
1479.468, 13893.00
1480.508, 13962.30
1481.548, 13960.00
1482.588, 14031.00
1483.628, 13994.00
1484.668, 14039.00
1485.707, 13934.00
1486.747, 14018.00
1487.786, 13936.00
1488.825, 13897.00
1489.864, 13972.00
1490.902, 14026.00
1491.941, 14086.00
1492.979, 14060.00
1494.017, 14070.00
1495.055, 14078.88
1496.093, 13992.00
1497.131, 14069.00
1498.168, 14047.00
1499.206, 14028.00
1500.243, 14137.00
1501.280, 14101.00
1502.317, 14005.00
1503.354, 14033.00
1504.390, 14029.00
1505.426, 13971.00
1506.463, 13974.00
1507.499, 13975.06
1508.535, 13985.46
1509.570, 14024.00
1510.606, 14060.00
1511.641, 14135.00
1512.676, 14203.00
1513.711, 14050.00
1514.746, 14105.00
1515.781, 14111.00
1516.816, 14209.00
1517.850, 14134.00
1518.884, 14054.00
1519.918, 14070.00
1520.952, 14012.00
1521.986, 14129.00
1523.019, 14129.00
1524.053, 14155.00
1525.086, 14105.00
1526.119, 14313.00
1527.152, 14201.00
1528.185, 14306.00
1529.217, 14335.00
1530.250, 14234.00
1531.282, 14254.00
1532.314, 14252.00
1533.346, 14280.00
1534.377, 14248.00
1535.409, 14362.00
1536.440, 14365.00
1537.472, 14387.00
1538.503, 14346.00
1539.534, 14365.00
1540.564, 14360.20
1541.595, 14336.00
1542.625, 14353.00
1543.656, 14413.27
1544.686, 14395.00
1545.716, 14472.00
1546.745, 14370.00
1547.775, 14252.00
1548.804, 14318.00
1549.834, 14315.00
1550.863, 14625.00
1551.892, 14743.00
1552.920, 14785.00
1553.949, 14794.00
1554.977, 14832.00
1556.006, 14736.34
1557.034, 14629.00
1558.062, 14474.00
1559.089, 14476.00
1560.117, 14436.01
1561.144, 14514.00
1562.172, 14494.00
1563.199, 14484.00
1564.226, 14563.00
1565.252, 14386.00
1566.279, 14598.00
1567.305, 14264.00
1568.332, 14597.00
1569.358, 14605.00
1570.384, 14499.00
1571.409, 14561.00
1572.435, 14557.00
##END=



