##NAMES=Diopside
##RRUFFID=R060171
##IDEAL CHEMISTRY=CaMgSi_2_O_6_
##LOCALITY=Jeffrey mine, Asbestos, Quebec, Canada
##OWNER=RRUFF
##SOURCE=Guy Ouellet
##DESCRIPTION=Yellowish-brown tabular crystals associated with vesuvianite, R060170
##STATUS=The identification of this mineral has been confirmed by X-ray diffraction and chemical analysis
##URL=rruff.info/R060171
##MEASURED CHEMISTRY=Ca_1.00_(Mg_0.98_Mn_0.02_)_Î£=1_Si_2.00_O_6_
##PIN_ID=M00055
##ORIENTATION=Laser parallel to c* (0 0 1). Fiducial mark perpendicular to laser is parallel to a [1 0 0]
123.0580, 5267.000
124.2880, 5274.000
125.5190, 5339.000
126.7490, 5406.000
127.9790, 5497.000
129.2090, 5501.000
130.4390, 5559.000
131.6680, 5683.000
132.8980, 5640.000
134.1270, 5709.000
135.3560, 5728.000
136.5850, 5796.000
137.8140, 5936.000
139.0430, 5973.000
140.2710, 6037.000
141.5000, 5966.000
142.7280, 5995.000
143.9560, 6016.000
145.1840, 5911.000
146.4120, 5900.000
147.6390, 5918.000
148.8670, 5896.000
150.0940, 5970.000
151.3210, 5887.000
152.5490, 6015.000
153.7750, 6064.000
155.0020, 6165.000
156.2290, 6105.000
157.4550, 6204.000
158.6810, 6199.000
159.9080, 6305.000
161.1340, 6453.000
162.3590, 6530.000
163.5850, 6595.000
164.8110, 6653.000
166.0360, 6623.000
167.2610, 6535.000
168.4860, 6501.000
169.7110, 6552.000
170.9360, 6582.000
172.1610, 6588.000
173.3850, 6611.000
174.6100, 6747.000
175.8340, 6840.000
177.0580, 7049.000
178.2820, 7179.000
179.5050, 7339.000
180.7290, 7335.990
181.9520, 7379.000
183.1760, 7208.000
184.3990, 7112.000
185.6220, 6919.000
186.8450, 6914.000
188.0670, 6775.000
189.2900, 6854.000
190.5120, 6929.000
191.7340, 7071.000
192.9560, 7194.000
194.1780, 7137.000
195.4000, 7146.000
196.6220, 6920.000
197.8430, 6867.000
199.0640, 6850.000
200.2860, 6768.000
201.5070, 6632.000
202.7270, 6591.000
203.9480, 6536.000
205.1690, 6494.000
206.3890, 6491.000
207.6090, 6473.000
208.8290, 6495.000
210.0490, 6546.000
211.2690, 6502.000
212.4890, 6577.000
213.7080, 6641.000
214.9280, 6730.000
216.1470, 6739.000
217.3660, 6775.000
218.5850, 6908.000
219.8030, 6994.000
221.0220, 7149.000
222.2400, 7432.000
223.4590, 7428.000
224.6770, 7724.000
225.8950, 7971.000
227.1120, 8124.000
228.3300, 8303.000
229.5480, 8552.000
230.7650, 8377.000
231.9820, 8479.000
233.1990, 8318.000
234.4160, 8112.000
235.6330, 7927.000
236.8490, 7457.000
238.0660, 7356.000
239.2820, 7186.000
240.4980, 7214.000
241.7140, 7165.000
242.9300, 7098.000
244.1460, 7166.000
245.3610, 7189.000
246.5770, 7279.000
247.7920, 7284.000
249.0070, 7382.000
250.2220, 7447.000
251.4370, 7560.000
252.6510, 7600.000
253.8660, 7650.000
255.0800, 7638.000
256.2940, 7570.000
257.5080, 7519.000
258.7220, 7467.000
259.9360, 7164.000
261.1490, 7199.000
262.3630, 7098.000
263.5760, 6930.000
264.7890, 7134.000
266.0020, 6988.000
267.2150, 7098.000
268.4270, 7102.000
269.6400, 7047.000
270.8520, 7073.000
272.0640, 7114.000
273.2760, 7057.000
274.4880, 7160.000
275.7000, 7063.000
276.9120, 7105.000
278.1230, 7050.000
279.3340, 7075.000
280.5450, 7099.008
281.7560, 7194.000
282.9670, 7147.000
284.1780, 7240.000
285.3880, 7238.000
286.5980, 7236.000
287.8090, 7300.000
289.0190, 7427.000
290.2290, 7534.000
291.4380, 7610.000
292.6480, 7622.000
293.8570, 7734.000
295.0670, 7813.000
296.2760, 7986.000
297.4850, 8308.000
298.6930, 8524.000
299.9020, 8624.000
301.1110, 8920.000
302.3190, 8962.000
303.5270, 9137.000
304.7350, 9264.000
305.9430, 9352.000
307.1510, 9654.000
308.3580, 10045.00
309.5660, 10640.00
310.7730, 11372.00
311.9800, 12398.00
313.1870, 13541.00
314.3940, 14769.00
315.6010, 15899.00
316.8070, 16821.00
318.0130, 18368.00
319.2200, 19805.00
320.4260, 21238.00
321.6310, 22203.00
322.8370, 22603.00
324.0430, 21413.00
325.2480, 19745.00
326.4540, 17589.00
327.6590, 15261.00
328.8640, 13449.00
330.0680, 12132.00
331.2730, 10908.00
332.4780, 10084.00
333.6820, 9523.000
334.8860, 9143.000
336.0900, 8842.000
337.2940, 8819.000
338.4980, 8690.000
339.7010, 8573.000
340.9050, 8596.000
342.1080, 8671.000
343.3110, 8773.000
344.5140, 8862.000
345.7170, 9011.000
346.9200, 9386.000
348.1220, 9594.000
349.3240, 9965.000
350.5270, 10317.00
351.7290, 10865.00
352.9310, 11164.00
354.1320, 11520.00
355.3340, 11308.00
356.5350, 11282.00
357.7370, 10830.00
358.9380, 10332.00
360.1390, 9839.000
361.3400, 9617.000
362.5400, 9229.000
363.7410, 9001.000
364.9410, 9026.000
366.1410, 8918.000
367.3410, 8851.000
368.5410, 8922.000
369.7410, 9069.000
370.9400, 9285.000
372.1400, 9232.000
373.3390, 9541.000
374.5380, 9943.000
375.7370, 10393.00
376.9360, 11173.00
378.1350, 12273.00
379.3330, 13525.00
380.5310, 15005.00
381.7300, 16587.00
382.9280, 18077.00
384.1260, 19820.00
385.3230, 21669.00
386.5210, 23417.00
387.7180, 24852.00
388.9160, 25403.00
390.1130, 24411.00
391.3100, 22558.00
392.5060, 20304.00
393.7030, 18081.00
394.9000, 15772.00
396.0960, 13767.00
397.2920, 12390.00
398.4880, 11313.00
399.6840, 10480.00
400.8800, 9810.000
402.0750, 9529.000
403.2710, 9205.000
404.4660, 9072.000
405.6610, 8840.000
406.8560, 8801.000
408.0510, 8549.000
409.2450, 8452.000
410.4400, 8507.000
411.6340, 8504.000
412.8280, 8301.000
414.0220, 8447.000
415.2160, 8348.000
416.4100, 8324.000
417.6030, 8305.000
418.7970, 8312.000
419.9900, 8287.000
421.1830, 8299.695
422.3760, 8277.723
423.5690, 8291.000
424.7610, 8252.000
425.9540, 8181.000
427.1460, 8187.000
428.3380, 8257.000
429.5300, 8298.000
430.7220, 8212.000
431.9140, 8213.000
433.1050, 8173.000
434.2970, 8164.000
435.4880, 8132.000
436.6790, 8183.000
437.8700, 8211.000
439.0610, 8251.000
440.2510, 8304.000
441.4420, 8321.000
442.6320, 8309.000
443.8220, 8287.000
445.0120, 8296.000
446.2020, 8281.000
447.3910, 8268.000
448.5810, 8254.000
449.7700, 8388.000
450.9600, 8305.000
452.1490, 8470.000
453.3370, 8579.000
454.5260, 8481.000
455.7150, 8602.000
456.9030, 8635.000
458.0910, 8777.000
459.2800, 8944.000
460.4670, 8947.000
461.6550, 8898.000
462.8430, 8969.000
464.0300, 8913.000
465.2180, 8853.000
466.4050, 8837.000
467.5920, 8694.000
468.7790, 8703.000
469.9650, 8487.000
471.1520, 8558.000
472.3380, 8460.000
473.5250, 8318.000
474.7110, 8446.000
475.8970, 8438.000
477.0820, 8375.000
478.2680, 8504.000
479.4540, 8462.000
480.6390, 8458.000
481.8240, 8437.000
483.0090, 8501.000
484.1940, 8422.000
485.3780, 8304.000
486.5630, 8432.000
487.7470, 8422.000
488.9320, 8479.000
490.1160, 8489.000
491.3000, 8551.000
492.4830, 8500.000
493.6670, 8468.000
494.8500, 8521.000
496.0340, 8496.000
497.2170, 8558.000
498.4000, 8595.000
499.5820, 8645.000
500.7650, 8681.000
501.9480, 8599.000
503.1300, 8746.000
504.3120, 8731.000
505.4940, 8651.000
506.6760, 8778.000
507.8580, 8784.000
509.0390, 8853.000
510.2210, 8882.000
511.4020, 8918.362
512.5830, 9063.000
513.7640, 8993.000
514.9450, 9025.000
516.1250, 9057.000
517.3060, 9205.000
518.4860, 9292.000
519.6660, 9389.958
520.8460, 9633.000
522.0260, 9645.000
523.2060, 9832.000
524.3850, 10051.00
525.5650, 10047.00
526.7440, 10107.00
527.9230, 10332.00
529.1020, 10351.00
530.2810, 10165.00
531.4590, 9981.000
532.6380, 9801.000
533.8160, 9604.000
534.9940, 9494.000
536.1720, 9327.000
537.3500, 9216.000
538.5270, 9137.263
539.7050, 9170.000
540.8820, 9074.000
542.0590, 9069.000
543.2360, 9189.000
544.4130, 9078.000
545.5900, 9328.000
546.7660, 9381.000
547.9430, 9553.000
549.1190, 9869.000
550.2950, 9972.000
551.4710, 10226.00
552.6470, 10617.00
553.8220, 11048.00
554.9980, 11532.00
556.1730, 11738.00
557.3480, 11704.00
558.5230, 11726.00
559.6980, 11373.00
560.8730, 10900.00
562.0470, 10552.00
563.2220, 10159.00
564.3960, 9797.000
565.5700, 9532.000
566.7440, 9413.000
567.9170, 9412.000
569.0910, 9169.000
570.2640, 9146.000
571.4380, 9163.000
572.6110, 9181.000
573.7840, 9199.000
574.9570, 9109.000
576.1290, 9068.000
577.3020, 9059.000
578.4740, 9070.000
579.6460, 9175.000
580.8180, 9056.000
581.9900, 9107.000
583.1620, 9036.000
584.3330, 9152.000
585.5040, 9149.000
586.6760, 9170.000
587.8470, 9098.000
589.0180, 9176.000
590.1880, 9178.000
591.3590, 9220.000
592.5290, 9222.742
593.7000, 9197.000
594.8700, 9220.000
596.0400, 9133.000
597.2090, 9152.000
598.3790, 9248.000
599.5490, 9219.000
600.7180, 9145.000
601.8870, 9216.000
603.0560, 9290.000
604.2250, 9266.000
605.3940, 9305.000
606.5620, 9198.000
607.7300, 9210.000
608.8990, 9308.000
610.0670, 9185.000
611.2350, 9263.000
612.4020, 9301.000
613.5700, 9290.000
614.7370, 9341.000
615.9050, 9349.000
617.0720, 9369.134
618.2390, 9394.000
619.4060, 9417.000
620.5720, 9467.000
621.7390, 9506.000
622.9050, 9533.000
624.0710, 9477.000
625.2370, 9538.000
626.4030, 9636.000
627.5690, 9521.000
628.7340, 9631.000
629.9000, 9699.000
631.0650, 9551.000
632.2300, 9788.000
633.3950, 9833.000
634.5600, 9747.000
635.7240, 9718.000
636.8890, 9812.000
638.0530, 9853.000
639.2170, 9930.000
640.3810, 9942.000
641.5450, 10144.00
642.7080, 10114.00
643.8720, 10269.00
645.0350, 10406.00
646.1980, 10642.00
647.3610, 10851.00
648.5240, 10925.00
649.6870, 11368.00
650.8490, 11650.00
652.0120, 12106.00
653.1740, 12779.00
654.3360, 13453.00
655.4980, 14472.00
656.6600, 15614.00
657.8210, 16832.00
658.9830, 18365.00
660.1440, 19915.00
661.3050, 21515.00
662.4660, 22758.00
663.6270, 23809.00
664.7870, 24168.00
665.9480, 23542.00
667.1080, 22432.00
668.2680, 20664.00
669.4280, 18874.00
670.5880, 17210.00
671.7480, 15786.00
672.9070, 14613.79
674.0670, 13476.00
675.2260, 12838.00
676.3850, 12109.00
677.5440, 11633.00
678.7030, 11504.00
679.8610, 11183.00
681.0200, 10873.00
682.1780, 10803.00
683.3360, 10625.00
684.4940, 10420.00
685.6520, 10381.00
686.8090, 10359.00
687.9670, 10228.00
689.1240, 10168.00
690.2810, 10085.00
691.4380, 10087.00
692.5950, 10196.00
693.7520, 10010.00
694.9080, 10077.00
696.0650, 10063.00
697.2210, 9967.000
698.3770, 10161.00
699.5330, 9933.000
700.6880, 9897.000
701.8440, 9842.000
702.9990, 9927.000
704.1550, 9833.000
705.3100, 9968.000
706.4650, 10137.00
707.6190, 9903.000
708.7740, 9852.000
709.9290, 9933.000
711.0830, 9985.000
712.2370, 9938.000
713.3910, 9900.000
714.5450, 9923.000
715.6980, 9922.000
716.8520, 9979.000
718.0050, 9962.000
719.1580, 9981.910
720.3110, 9937.000
721.4640, 10014.00
722.6170, 9985.000
723.7700, 10036.00
724.9220, 9955.000
726.0740, 10070.00
727.2260, 9915.000
728.3780, 9909.000
729.5300, 10076.00
730.6810, 9925.000
731.8330, 9909.000
732.9840, 10067.00
734.1350, 10058.00
735.2860, 10035.00
736.4370, 10063.00
737.5880, 9950.000
738.7380, 10089.00
739.8880, 9994.000
741.0390, 10002.00
742.1890, 10099.00
743.3380, 10051.00
744.4880, 10017.00
745.6380, 10123.00
746.7870, 10083.00
747.9360, 10219.00
749.0850, 10131.00
750.2340, 10080.00
751.3830, 10005.00
752.5310, 10185.00
753.6800, 10013.00
754.8280, 10098.00
755.9760, 10207.00
757.1240, 10035.00
758.2720, 10193.00
759.4190, 10217.00
760.5670, 10148.00
761.7140, 10087.00
762.8610, 10129.00
764.0080, 10220.00
765.1550, 10139.00
766.3020, 10312.00
767.4480, 10227.00
768.5950, 10239.00
769.7410, 10140.00
770.8870, 10152.00
772.0330, 10338.00
773.1780, 10333.00
774.3240, 10315.00
775.4690, 10283.00
776.6140, 10329.00
777.7590, 10323.93
778.9040, 10330.00
780.0490, 10342.00
781.1940, 10398.00
782.3380, 10352.00
783.4820, 10339.00
784.6260, 10314.00
785.7700, 10407.00
786.9140, 10307.00
788.0580, 10381.00
789.2010, 10346.00
790.3450, 10309.00
791.4880, 10388.00
792.6310, 10472.00
793.7730, 10418.00
794.9160, 10474.00
796.0590, 10408.00
797.2010, 10363.00
798.3430, 10355.00
799.4850, 10423.00
800.6270, 10518.00
801.7690, 10512.00
802.9100, 10472.00
804.0520, 10510.00
805.1930, 10501.00
806.3340, 10436.00
807.4750, 10448.00
808.6160, 10478.00
809.7560, 10491.00
810.8970, 10563.00
812.0370, 10547.00
813.1770, 10591.00
814.3170, 10553.00
815.4570, 10443.00
816.5960, 10692.00
817.7360, 10639.00
818.8750, 10552.00
820.0140, 10616.00
821.1530, 10459.00
822.2920, 10594.00
823.4310, 10655.00
824.5690, 10602.00
825.7070, 10612.00
826.8460, 10583.00
827.9840, 10670.00
829.1220, 10610.00
830.2590, 10688.00
831.3970, 10665.00
832.5340, 10676.00
833.6710, 10610.00
834.8080, 10696.00
835.9450, 10775.00
837.0820, 10673.00
838.2190, 10773.00
839.3550, 10748.00
840.4910, 10841.00
841.6270, 10776.00
842.7630, 10825.00
843.8990, 10897.00
845.0350, 10987.00
846.1700, 11006.00
847.3060, 11120.00
848.4410, 11221.00
849.5760, 11341.00
850.7100, 11592.00
851.8450, 11639.00
852.9800, 11511.00
854.1140, 11596.00
855.2480, 11411.00
856.3820, 11424.00
857.5160, 11334.00
858.6500, 11162.00
859.7830, 11011.00
860.9170, 11025.00
862.0500, 11118.00
863.1830, 10960.00
864.3160, 11065.00
865.4480, 10942.00
866.5810, 11072.00
867.7130, 11122.00
868.8460, 10957.00
869.9780, 11004.00
871.1100, 11057.00
872.2410, 11118.00
873.3730, 11148.19
874.5050, 11156.20
875.6360, 11175.00
876.7670, 11164.00
877.8980, 11093.00
879.0290, 11140.00
880.1590, 11082.00
881.2900, 11223.00
882.4200, 11194.00
883.5500, 11150.00
884.6800, 11173.00
885.8100, 11059.00
886.9400, 11212.00
888.0690, 11061.00
889.1990, 11258.00
890.3280, 11176.00
891.4570, 11248.00
892.5860, 11266.00
893.7140, 11223.00
894.8430, 11228.00
895.9710, 11217.00
897.1000, 11293.00
898.2280, 11361.00
899.3560, 11166.00
900.4830, 11284.00
901.6110, 11224.00
902.7380, 11285.00
903.8660, 11316.00
904.9930, 11375.00
906.1200, 11367.44
907.2460, 11288.00
908.3730, 11329.00
909.5000, 11291.00
910.6260, 11239.00
911.7520, 11275.00
912.8780, 11516.00
914.0040, 11544.00
915.1290, 11315.00
916.2550, 11512.00
917.3800, 11435.00
918.5050, 11438.00
919.6300, 11569.00
920.7550, 11371.00
921.8800, 11565.00
923.0040, 11391.00
924.1290, 11320.00
925.2530, 11576.00
926.3770, 11376.00
927.5010, 11639.00
928.6250, 11464.00
929.7480, 11669.00
930.8720, 11557.00
931.9950, 11618.00
933.1180, 11599.00
934.2410, 11538.00
935.3640, 11578.00
936.4860, 11544.00
937.6090, 11654.00
938.7310, 11687.00
939.8530, 11531.00
940.9750, 11728.00
942.0970, 11501.00
943.2180, 11704.00
944.3400, 11619.00
945.4610, 11772.00
946.5820, 11713.00
947.7030, 11809.00
948.8240, 11700.00
949.9450, 11808.00
951.0650, 11879.00
952.1860, 11790.00
953.3060, 11848.00
954.4260, 11941.00
955.5460, 12037.00
956.6650, 11901.00
957.7850, 11996.63
958.9040, 11931.00
960.0230, 11996.00
961.1420, 12038.00
962.2610, 11993.00
963.3800, 12019.00
964.4990, 12083.00
965.6170, 11947.00
966.7350, 12102.00
967.8530, 12061.00
968.9710, 12055.00
970.0890, 12080.00
971.2070, 12113.00
972.3240, 12186.00
973.4410, 12232.00
974.5580, 12354.00
975.6750, 12272.00
976.7920, 12387.00
977.9090, 12356.00
979.0250, 12432.00
980.1410, 12495.00
981.2580, 12506.00
982.3740, 12719.00
983.4890, 12745.00
984.6050, 12799.95
985.7200, 12767.00
986.8360, 12884.00
987.9510, 12961.00
989.0660, 13045.00
990.1810, 13161.00
991.2950, 13395.00
992.4100, 13730.00
993.5240, 13860.00
994.6390, 13956.00
995.7530, 14509.00
996.8660, 14836.00
997.9800, 15124.00
999.0940, 16087.00
1000.207, 16798.00
1001.320, 18182.00
1002.433, 19855.00
1003.546, 22226.00
1004.659, 25821.00
1005.772, 30219.00
1006.884, 36097.00
1007.996, 42207.00
1009.108, 48593.00
1010.220, 54356.00
1011.332, 58181.00
1012.444, 58629.00
1013.555, 55115.00
1014.666, 48973.00
1015.777, 41573.00
1016.888, 34519.00
1017.999, 28796.00
1019.110, 24471.00
1020.220, 21448.00
1021.331, 19423.00
1022.441, 17717.00
1023.551, 16866.00
1024.661, 16139.00
1025.770, 15705.00
1026.880, 15127.00
1027.989, 14969.00
1029.098, 14718.00
1030.207, 14603.00
1031.316, 14426.00
1032.425, 14421.00
1033.533, 14249.00
1034.642, 14241.00
1035.750, 14012.00
1036.858, 14148.00
1037.966, 14336.00
1039.073, 14494.00
1040.181, 14896.00
1041.288, 14995.00
1042.396, 15633.00
1043.503, 16130.00
1044.610, 16609.00
1045.716, 16837.00
1046.823, 17016.00
1047.929, 16907.00
1049.036, 16453.00
1050.142, 15916.00
1051.248, 15334.00
1052.353, 14750.00
1053.459, 14408.94
1054.564, 13935.00
1055.670, 13820.00
1056.775, 13624.00
1057.880, 13476.80
1058.985, 13346.00
1060.089, 13238.00
1061.194, 13203.00
1062.298, 13157.00
1063.402, 13080.00
1064.506, 13064.00
1065.610, 12968.00
1066.713, 13103.00
1067.817, 13049.00
1068.920, 13156.00
1070.023, 13074.00
1071.126, 13159.00
1072.229, 13005.00
1073.332, 13058.00
1074.435, 12919.00
1075.537, 13082.00
1076.639, 13081.00
1077.741, 13103.00
1078.843, 13132.00
1079.945, 13152.71
1081.046, 13175.86
1082.148, 13208.00
1083.249, 13226.00
1084.350, 13239.00
1085.451, 13277.82
1086.551, 13237.52
1087.652, 13256.00
1088.752, 13169.00
1089.853, 13145.00
1090.953, 13133.00
1092.053, 13166.00
1093.152, 13185.00
1094.252, 13228.00
1095.351, 13172.00
1096.451, 13143.00
1097.550, 13116.00
1098.649, 13168.00
1099.748, 13156.80
1100.846, 13329.00
1101.945, 13179.00
1103.043, 13342.00
1104.141, 13324.00
1105.239, 13128.00
1106.337, 13265.00
1107.434, 13340.00
1108.532, 13366.00
1109.629, 13331.00
1110.726, 13348.00
1111.823, 13454.00
1112.920, 13464.00
1114.017, 13475.00
1115.113, 13420.00
1116.210, 13509.00
1117.306, 13467.00
1118.402, 13594.00
1119.498, 13595.00
1120.593, 13658.00
1121.689, 13504.00
1122.784, 13548.00
1123.879, 13554.00
1124.974, 13595.00
1126.069, 13587.00
1127.164, 13475.00
1128.259, 13576.00
1129.353, 13623.00
1130.447, 13734.00
1131.541, 13555.00
1132.635, 13541.00
1133.729, 13587.00
1134.822, 13748.00
1135.916, 13512.00
1137.009, 13644.00
1138.102, 13574.00
1139.195, 13784.00
1140.288, 13855.00
1141.380, 13749.00
1142.473, 13702.00
1143.565, 13694.00
1144.657, 13908.00
1145.749, 13838.00
1146.841, 13855.00
1147.932, 13714.00
1149.024, 13728.00
1150.115, 13799.00
1151.206, 13790.00
1152.297, 13762.00
1153.388, 13890.00
1154.479, 13959.00
1155.569, 13814.00
1156.659, 13856.00
1157.750, 13804.00
1158.839, 13743.00
1159.929, 13906.00
1161.019, 13813.00
1162.108, 13825.00
1163.198, 13881.00
1164.287, 13844.00
1165.376, 13937.00
1166.465, 13929.00
1167.553, 14047.00
1168.642, 14056.00
1169.730, 14081.00
1170.818, 14068.62
1171.906, 14109.00
1172.994, 14015.00
1174.082, 13943.00
1175.170, 13994.00
1176.257, 14158.00
1177.344, 14101.00
1178.431, 14139.00
1179.518, 14061.00
1180.605, 14144.00
1181.691, 14089.00
1182.778, 14178.00
1183.864, 14300.00
1184.950, 14185.00
1186.036, 14143.00
1187.122, 14152.00
1188.207, 14250.00
1189.292, 14257.00
1190.378, 14293.00
1191.463, 14307.00
1192.548, 14230.00
1193.632, 14310.00
1194.717, 14225.00
1195.801, 14370.00
1196.886, 14431.00
1197.970, 14208.00
1199.054, 14234.00
1200.137, 14298.00
1201.221, 14239.00
1202.305, 14485.00
1203.388, 14539.00
1204.471, 14495.00
1205.554, 14370.00
1206.637, 14559.00
1207.719, 14501.00
1208.802, 14579.00
1209.884, 14531.00
1210.966, 14543.00
1212.048, 14625.00
1213.130, 14605.00
1214.212, 14672.51
1215.293, 14667.59
1216.374, 14726.00
1217.456, 14662.00
1218.536, 14574.00
1219.617, 14572.00
1220.698, 14471.00
1221.778, 14623.00
1222.859, 14592.19
1223.939, 14710.00
1225.019, 14729.00
1226.099, 14666.00
1227.178, 14853.00
1228.258, 14755.00
1229.337, 14782.00
1230.417, 14920.00
1231.496, 14871.00
1232.574, 14849.00
1233.653, 14784.00
1234.732, 14833.87
1235.810, 14839.00
1236.888, 14958.00
1237.966, 14952.00
1239.044, 15052.00
1240.122, 15007.00
1241.199, 14974.00
1242.277, 15156.00
1243.354, 14852.00
1244.431, 15180.00
1245.508, 15032.00
1246.585, 14861.00
1247.661, 15099.00
1248.738, 15152.00
1249.814, 15162.00
1250.890, 15091.00
1251.966, 15121.00
1253.042, 15116.94
1254.117, 15207.00
1255.193, 15131.00
1256.268, 15148.00
1257.343, 15122.00
1258.418, 15106.95
1259.493, 15155.00
1260.567, 15162.00
1261.642, 15175.00
1262.716, 15339.00
1263.790, 15222.00
1264.864, 15290.00
1265.938, 15417.00
1267.011, 15394.00
1268.085, 15507.00
1269.158, 15551.00
1270.231, 15438.00
1271.304, 15290.00
1272.377, 15581.00
1273.450, 15492.00
1274.522, 15585.00
1275.594, 15435.00
1276.666, 15485.00
1277.738, 15509.00
1278.810, 15486.00
1279.882, 15513.00
1280.953, 15730.00
1282.025, 15428.00
1283.096, 15704.00
1284.167, 15667.00
1285.238, 15636.00
1286.308, 15500.00
1287.379, 15528.00
1288.449, 15643.00
1289.519, 15613.00
1290.589, 15767.00
1291.659, 15712.00
1292.729, 15739.00
1293.798, 15725.00
1294.868, 15642.00
1295.937, 15921.00
1297.006, 15785.00
1298.075, 15739.00
1299.143, 15898.00
1300.212, 15813.00
1301.280, 15815.00
1302.348, 15832.00
1303.416, 15715.00
1304.484, 15838.00
1305.552, 16043.00
1306.620, 15846.00
1307.687, 15937.00
1308.754, 16126.00
1309.821, 16043.00
1310.888, 16085.00
1311.955, 16102.00
1313.021, 16031.00
1314.088, 16062.00
1315.154, 16128.00
1316.220, 16034.00
1317.286, 16243.00
1318.352, 16246.00
1319.417, 16147.00
1320.483, 16066.00
1321.548, 16125.00
1322.613, 16324.00
1323.678, 16389.00
1324.743, 16308.00
1325.807, 16271.00
1326.872, 16073.00
1327.936, 16334.00
1329.000, 16367.00
1330.064, 16268.00
1331.128, 16519.00
1332.191, 16333.00
1333.255, 16331.00
1334.318, 16531.00
1335.381, 16340.00
1336.444, 16479.00
1337.507, 16516.00
1338.569, 16372.00
1339.632, 16471.00
1340.694, 16598.00
1341.756, 16455.00
1342.818, 16833.00
1343.880, 16451.00
1344.941, 16653.00
1346.003, 16506.00
1347.064, 16719.00
1348.125, 16678.00
1349.186, 16667.00
1350.247, 16707.00
1351.308, 16536.00
1352.368, 16755.00
1353.428, 16876.00
1354.489, 16731.00
1355.549, 16664.00
1356.608, 16649.00
1357.668, 16696.00
1358.727, 16736.00
1359.787, 16745.00
1360.846, 16783.07
1361.905, 16784.00
1362.964, 16796.00
1364.022, 16876.00
1365.081, 16812.00
1366.139, 16950.00
1367.197, 16838.00
1368.255, 16794.00
1369.313, 16880.00
1370.371, 16830.00
1371.428, 16958.00
1372.486, 17109.00
1373.543, 17069.00
1374.600, 16949.00
1375.657, 17135.00
1376.713, 16951.00
1377.770, 16874.00
1378.826, 17071.00
1379.882, 17013.00
1380.938, 16993.00
1381.994, 16957.00
1383.050, 16955.78
1384.106, 16990.01
1385.161, 17011.00
1386.216, 17078.00
1387.271, 17195.00
1388.326, 17216.00
1389.381, 17039.00
1390.435, 17115.00
1391.490, 17019.00
1392.544, 17121.00
1393.598, 17126.00
1394.652, 17107.00
1395.705, 17358.00
1396.759, 17271.00
1397.812, 17374.00
1398.866, 17202.00
1399.919, 17182.00
1400.972, 17285.00
1402.024, 17182.00
1403.077, 17292.00
1404.129, 17345.00
1405.181, 17339.00
1406.233, 17378.00
1407.285, 17346.00
1408.337, 17372.00
1409.389, 17199.00
1410.440, 17229.00
1411.491, 17272.16
1412.542, 17336.00
1413.593, 17398.00
1414.644, 17469.00
1415.695, 17461.00
1416.745, 17698.00
1417.795, 17568.00
1418.845, 17669.00
1419.895, 17581.00
1420.945, 17712.00
1421.995, 17543.00
1423.044, 17688.00
1424.093, 17695.00
1425.142, 17533.00
1426.191, 17509.00
1427.240, 17633.00
1428.289, 17704.00
1429.337, 17636.00
1430.385, 17832.00
1431.433, 17643.00
1432.481, 17701.00
1433.529, 17903.00
1434.577, 17778.00
1435.624, 17813.00
1436.672, 17664.00
1437.719, 17686.00
1438.766, 17861.00
1439.812, 17915.00
1440.859, 17950.00
1441.905, 17703.00
1442.952, 17909.00
1443.998, 18060.00
1445.044, 17804.00
1446.090, 17883.00
1447.135, 18073.00
1448.181, 17967.00
1449.226, 17986.00
1450.271, 17934.00
1451.316, 17926.00
1452.361, 17957.00
1453.405, 18084.00
1454.450, 18111.00
1455.494, 17973.00
1456.538, 17997.00
1457.582, 18249.00
1458.626, 18037.00
1459.670, 18152.00
1460.713, 17977.00
1461.757, 18205.00
1462.800, 18087.00
1463.843, 18096.00
1464.886, 18157.00
1465.928, 18252.00
1466.971, 18173.00
1468.013, 18237.50
1469.055, 18265.00
1470.097, 18238.00
1471.139, 18212.00
1472.181, 18177.96
1473.222, 18224.00
1474.263, 18265.00
1475.305, 18358.00
1476.346, 18489.00
1477.386, 18436.00
1478.427, 18269.00
1479.468, 18253.00
1480.508, 18422.00
1481.548, 18471.00
1482.588, 18495.00
1483.628, 18561.00
1484.668, 18639.00
1485.707, 18622.00
1486.747, 18415.00
1487.786, 18624.00
1488.825, 18542.00
1489.864, 18600.00
1490.902, 18661.00
1491.941, 18618.00
1492.979, 18734.00
1494.017, 18822.00
1495.055, 18727.00
1496.093, 18643.00
1497.131, 18573.00
1498.168, 18775.00
1499.206, 18885.00
1500.243, 18796.00
1501.280, 18746.00
1502.317, 18769.00
1503.354, 18839.00
1504.390, 18893.00
1505.426, 18803.00
1506.463, 18904.00
1507.499, 18949.00
1508.535, 18758.00
1509.570, 18911.00
1510.606, 19018.00
1511.641, 18969.00
1512.676, 19018.00
1513.711, 18863.00
1514.746, 18962.00
1515.781, 18970.00
1516.816, 19019.00
1517.850, 19038.00
1518.884, 18977.00
1519.918, 19106.00
1520.952, 19052.00
1521.986, 18958.00
1523.019, 19154.00
1524.053, 19279.00
1525.086, 19135.00
1526.119, 19186.00
1527.152, 19292.00
1528.185, 19357.00
1529.217, 19264.00
1530.250, 19382.00
1531.282, 19273.00
1532.314, 19142.00
1533.346, 19157.00
1534.377, 19270.00
1535.409, 19377.00
1536.440, 19307.00
1537.472, 19400.00
1538.503, 19307.00
1539.534, 19309.00
1540.564, 19447.00
1541.595, 19395.00
1542.625, 19459.71
1543.656, 19484.00
1544.686, 19490.00
1545.716, 19513.48
1546.745, 19592.00
1547.775, 19538.00
1548.804, 19502.00
1549.834, 19550.00
1550.863, 19697.00
1551.892, 19792.00
1552.920, 19741.00
1553.949, 19708.00
1554.977, 19645.00
1556.006, 19781.00
1557.034, 19727.00
1558.062, 19834.00
1559.089, 19679.00
1560.117, 19823.00
1561.144, 19734.00
1562.172, 19825.00
1563.199, 19816.00
1564.226, 19929.00
1565.252, 19758.00
1566.279, 19845.00
1567.305, 19996.00
1568.332, 19911.00
1569.358, 20010.00
1570.384, 19991.00
1571.409, 20059.00
1572.435, 19993.00
##END=



