##NAMES=Diopside
##RRUFFID=R060085
##IDEAL CHEMISTRY=CaMgSi_2_O_6_
##LOCALITY=Tyrol, Austria
##OWNER=RRUFF
##SOURCE=University of Arizona Mineral Museum
##DESCRIPTION=Brownish-green massive
##STATUS=The identification of this mineral has been confirmed by X-ray diffraction and chemical analysis
##URL=rruff.info/R060085
##MEASURED CHEMISTRY=(Ca_0.97_Na_0.03_)_Σ=1_(Mg_0.79_Fe^2+^_0.10_Fe^3+^_0.04_Al_0.04_Ti_0.02_Cr_0.01_)_Σ=1_(Si_1.90_Al_0.10_)_Σ=2_O_6_
##PIN_ID=M01980
##ORIENTATION=Laser parallel to -b* (0 -1 0). Fiducial mark perpendicular to laser is parallel to c [0 0 1]
126.6170, 14533.00
127.8490, 14689.00
129.0810, 14894.00
130.3130, 15075.00
131.5450, 15346.65
132.7770, 15625.00
134.0080, 15940.00
135.2390, 16230.00
136.4710, 16566.00
137.7020, 16875.00
138.9320, 17019.00
140.1630, 17171.00
141.3930, 17129.69
142.6240, 17127.00
143.8540, 16829.00
145.0840, 16606.00
146.3140, 16303.00
147.5440, 15965.00
148.7730, 15831.00
150.0020, 15720.00
151.2320, 15494.00
152.4610, 15592.00
153.6900, 15477.00
154.9180, 15351.00
156.1470, 15255.00
157.3750, 15310.00
158.6040, 15271.00
159.8320, 15304.00
161.0600, 15386.00
162.2870, 15315.00
163.5150, 15329.00
164.7420, 15291.00
165.9700, 15455.00
167.1970, 15487.00
168.4240, 15254.00
169.6510, 15484.00
170.8770, 15361.00
172.1040, 15496.00
173.3300, 15596.00
174.5560, 15427.00
175.7820, 15484.00
177.0080, 15403.00
178.2340, 15626.00
179.4590, 15648.00
180.6850, 15755.00
181.9100, 15753.00
183.1350, 15801.00
184.3600, 15906.00
185.5850, 15772.00
186.8090, 15794.00
188.0340, 15894.00
189.2580, 15920.00
190.4820, 15867.00
191.7060, 16004.80
192.9300, 15955.00
194.1530, 16200.00
195.3770, 16335.00
196.6000, 16433.79
197.8230, 16519.00
199.0460, 16490.00
200.2690, 16557.00
201.4910, 16448.00
202.7140, 16553.00
203.9360, 16406.00
205.1580, 16389.00
206.3800, 16223.00
207.6020, 16256.00
208.8240, 16234.00
210.0450, 16260.27
211.2670, 16376.00
212.4880, 16385.00
213.7090, 16449.00
214.9300, 16472.00
216.1510, 16392.00
217.3710, 16516.00
218.5920, 16376.00
219.8120, 16534.00
221.0320, 16652.00
222.2520, 16565.00
223.4720, 16729.00
224.6910, 16768.00
225.9110, 16633.00
227.1300, 16802.00
228.3490, 16892.00
229.5680, 16874.00
230.7870, 16930.00
232.0050, 17002.00
233.2240, 17101.00
234.4420, 17110.23
235.6600, 17097.00
236.8780, 17188.00
238.0960, 17178.00
239.3140, 17310.00
240.5310, 17298.00
241.7490, 17167.00
242.9660, 17292.00
244.1830, 17213.00
245.4000, 17301.00
246.6160, 17270.00
247.8330, 17324.00
249.0490, 17453.00
250.2660, 17339.00
251.4820, 17638.00
252.6980, 17510.00
253.9130, 17606.00
255.1290, 17779.00
256.3440, 17750.00
257.5600, 17804.00
258.7750, 17696.00
259.9900, 17436.00
261.2040, 17625.00
262.4190, 17412.00
263.6330, 17424.00
264.8480, 17495.00
266.0620, 17441.00
267.2760, 17450.00
268.4900, 17493.51
269.7030, 17527.00
270.9170, 17518.00
272.1300, 17614.00
273.3430, 17523.00
274.5560, 17546.35
275.7690, 17508.00
276.9820, 17544.00
278.1940, 17659.00
279.4070, 17750.00
280.6190, 17666.00
281.8310, 17778.00
283.0430, 17786.00
284.2550, 17913.00
285.4660, 17931.00
286.6770, 17961.00
287.8890, 17972.00
289.1000, 17996.00
290.3110, 18028.42
291.5210, 18046.27
292.7320, 18108.00
293.9420, 18103.00
295.1530, 18166.00
296.3630, 18214.00
297.5730, 18236.00
298.7830, 18257.00
299.9920, 18282.13
301.2020, 18363.00
302.4110, 18357.00
303.6200, 18467.00
304.8290, 18602.00
306.0380, 18670.00
307.2470, 18547.00
308.4550, 18906.00
309.6630, 19121.00
310.8720, 18891.00
312.0800, 19180.00
313.2880, 19493.00
314.4950, 19503.00
315.7030, 19600.00
316.9100, 20060.00
318.1170, 19819.00
319.3240, 20197.00
320.5310, 20310.00
321.7380, 20745.00
322.9450, 21039.00
324.1510, 21494.00
325.3570, 21668.00
326.5630, 21648.00
327.7690, 21682.00
328.9750, 21685.00
330.1810, 21434.00
331.3860, 21523.00
332.5910, 21284.00
333.7960, 21003.00
335.0010, 20712.00
336.2060, 20487.00
337.4110, 20594.00
338.6150, 20286.00
339.8200, 20336.00
341.0240, 20238.00
342.2280, 20143.00
343.4320, 20164.00
344.6350, 20016.00
345.8390, 20100.00
347.0420, 19973.00
348.2450, 20315.00
349.4480, 20084.00
350.6510, 20379.00
351.8540, 20186.00
353.0560, 20410.00
354.2590, 20510.00
355.4610, 20550.00
356.6630, 20780.00
357.8650, 21049.00
359.0670, 20833.00
360.2680, 21002.00
361.4700, 21018.00
362.6710, 20929.00
363.8720, 20934.00
365.0730, 20903.00
366.2740, 20800.00
367.4740, 20911.00
368.6750, 20784.00
369.8750, 20585.00
371.0750, 20666.00
372.2750, 20551.00
373.4750, 20603.00
374.6740, 20605.00
375.8740, 20489.00
377.0730, 20797.00
378.2720, 20708.00
379.4710, 20627.00
380.6700, 20800.00
381.8690, 20916.00
383.0670, 21237.00
384.2660, 21188.00
385.4640, 21114.00
386.6620, 21606.00
387.8600, 21927.00
389.0570, 22296.00
390.2550, 22618.00
391.4520, 22867.00
392.6490, 23161.00
393.8460, 23195.00
395.0430, 23227.00
396.2400, 22871.00
397.4370, 22784.00
398.6330, 22408.00
399.8290, 22131.00
401.0250, 21586.00
402.2210, 21420.00
403.4170, 21124.00
404.6130, 20951.00
405.8080, 20882.00
407.0030, 20771.00
408.1980, 20645.00
409.3930, 20574.00
410.5880, 20513.00
411.7830, 20452.00
412.9770, 20480.00
414.1720, 20417.00
415.3660, 20342.00
416.5600, 20525.00
417.7530, 20259.00
418.9470, 20440.00
420.1410, 20402.00
421.3340, 20288.00
422.5270, 20489.00
423.7200, 20463.00
424.9130, 20529.00
426.1060, 20305.00
427.2980, 20447.00
428.4900, 20404.00
429.6830, 20358.00
430.8750, 20606.00
432.0670, 20479.00
433.2580, 20546.00
434.4500, 20562.00
435.6410, 20528.00
436.8320, 20586.00
438.0240, 20543.00
439.2140, 20657.00
440.4050, 20860.00
441.5960, 20596.00
442.7860, 20811.00
443.9760, 20524.00
445.1670, 20800.00
446.3560, 20583.00
447.5460, 20575.00
448.7360, 20754.00
449.9250, 20868.00
451.1150, 20903.93
452.3040, 20846.00
453.4930, 20966.00
454.6810, 21003.00
455.8700, 20925.00
457.0590, 21091.00
458.2470, 21226.00
459.4350, 21000.00
460.6230, 21019.00
461.8110, 21149.00
462.9980, 20968.00
464.1860, 21248.00
465.3730, 21285.00
466.5600, 21236.00
467.7470, 21211.00
468.9340, 21272.00
470.1210, 21267.00
471.3080, 21253.00
472.4940, 21311.00
473.6800, 21230.00
474.8660, 21183.00
476.0520, 21363.00
477.2380, 21303.00
478.4230, 21329.00
479.6090, 21410.00
480.7940, 21491.00
481.9790, 21509.00
483.1640, 21358.00
484.3490, 21486.00
485.5330, 21416.00
486.7180, 21518.00
487.9020, 21612.00
489.0860, 21434.00
490.2700, 21729.00
491.4540, 21658.00
492.6370, 21807.00
493.8210, 21572.00
495.0040, 21817.00
496.1870, 21985.00
497.3700, 21912.45
498.5530, 22039.81
499.7360, 21881.00
500.9180, 22059.00
502.1000, 21909.00
503.2830, 21914.00
504.4650, 22247.00
505.6460, 22261.00
506.8280, 22339.00
508.0100, 22569.00
509.1910, 22795.00
510.3720, 22870.00
511.5530, 22714.00
512.7340, 22888.00
513.9150, 22610.00
515.0950, 22531.00
516.2760, 22344.00
517.4560, 22751.00
518.6360, 22640.00
519.8160, 22525.00
520.9950, 22305.00
522.1750, 22449.00
523.3540, 22445.00
524.5340, 22597.00
525.7130, 22651.00
526.8920, 22506.00
528.0700, 22510.00
529.2490, 22937.00
530.4270, 22788.00
531.6060, 22766.00
532.7840, 23171.00
533.9620, 22978.00
535.1390, 23108.00
536.3170, 23106.00
537.4940, 22854.00
538.6720, 22941.00
539.8490, 23066.00
541.0260, 22925.00
542.2030, 23355.00
543.3790, 23199.00
544.5560, 23134.00
545.7320, 23401.00
546.9080, 23225.00
548.0840, 23066.00
549.2600, 23308.00
550.4360, 23244.00
551.6110, 23090.00
552.7860, 23266.00
553.9620, 23052.00
555.1370, 23194.00
556.3110, 23309.00
557.4860, 23085.00
558.6610, 23139.00
559.8350, 23138.00
561.0090, 23257.00
562.1830, 23288.00
563.3570, 23257.00
564.5310, 23089.00
565.7040, 23241.00
566.8780, 23207.00
568.0510, 23205.00
569.2240, 23323.00
570.3970, 23235.00
571.5700, 23213.00
572.7420, 23210.00
573.9150, 23252.00
575.0870, 23295.00
576.2590, 23368.00
577.4310, 23191.00
578.6030, 23251.00
579.7740, 23308.00
580.9460, 23052.00
582.1170, 23489.00
583.2880, 23356.00
584.4590, 23411.00
585.6300, 23183.00
586.8010, 23172.00
587.9710, 23454.00
589.1410, 23458.00
590.3110, 23550.00
591.4810, 23374.00
592.6510, 23458.00
593.8210, 23258.00
594.9900, 23450.00
596.1600, 23364.00
597.3290, 23348.00
598.4980, 23339.00
599.6670, 23506.00
600.8350, 23331.00
602.0040, 23360.00
603.1720, 23247.00
604.3400, 23386.00
605.5080, 23369.80
606.6760, 23498.00
607.8440, 23460.00
609.0120, 23461.00
610.1790, 23516.00
611.3460, 23592.00
612.5130, 23751.00
613.6800, 23683.00
614.8470, 23599.00
616.0130, 23725.00
617.1800, 23543.00
618.3460, 23743.00
619.5120, 23750.00
620.6780, 23795.00
621.8440, 24005.00
623.0090, 23941.00
624.1750, 23907.00
625.3400, 24048.00
626.5050, 24250.00
627.6700, 24086.00
628.8350, 24015.00
629.9990, 24307.00
631.1640, 24255.00
632.3280, 24424.00
633.4920, 24369.00
634.6560, 24408.00
635.8200, 24462.00
636.9840, 24740.00
638.1470, 24697.00
639.3100, 24863.00
640.4730, 24849.00
641.6360, 24933.00
642.7990, 25018.00
643.9620, 25239.00
645.1240, 25250.00
646.2870, 25348.00
647.4490, 25389.00
648.6110, 25448.00
649.7730, 25953.00
650.9340, 26171.00
652.0960, 26360.00
653.2570, 26891.00
654.4180, 27105.00
655.5790, 27547.00
656.7400, 28048.00
657.9010, 28652.00
659.0620, 29512.00
660.2220, 30566.00
661.3820, 31780.00
662.5420, 33203.00
663.7020, 34762.00
664.8620, 36387.00
666.0210, 37754.00
667.1810, 38473.00
668.3400, 38728.00
669.4990, 37945.00
670.6580, 37521.00
671.8170, 36005.00
672.9750, 34221.00
674.1340, 32780.00
675.2920, 31556.00
676.4500, 30638.00
677.6080, 29867.00
678.7660, 29188.00
679.9230, 28506.00
681.0810, 28243.00
682.2380, 27902.00
683.3950, 27501.00
684.5520, 27259.00
685.7090, 27016.00
686.8660, 26990.00
688.0220, 26548.00
689.1780, 26549.00
690.3340, 26426.00
691.4900, 26220.00
692.6460, 26100.00
693.8020, 26003.96
694.9570, 25863.67
696.1130, 25897.00
697.2680, 25720.00
698.4230, 25763.00
699.5780, 25847.00
700.7320, 25802.00
701.8870, 25842.00
703.0410, 25816.00
704.1950, 25779.00
705.3490, 25732.00
706.5030, 25662.00
707.6570, 25660.03
708.8110, 25452.00
709.9640, 25651.00
711.1170, 25846.00
712.2700, 25874.00
713.4230, 25743.00
714.5760, 25630.00
715.7280, 25822.00
716.8810, 25674.00
718.0330, 25622.00
719.1850, 25715.00
720.3370, 25694.00
721.4890, 25860.00
722.6400, 25809.78
723.7920, 25880.00
724.9430, 25750.00
726.0940, 25794.00
727.2450, 25739.00
728.3960, 25860.00
729.5460, 25965.00
730.6970, 25801.00
731.8470, 25865.00
732.9970, 25903.00
734.1470, 26063.00
735.2970, 25964.00
736.4460, 25883.00
737.5960, 26059.00
738.7450, 25867.00
739.8940, 26054.00
741.0430, 25808.00
742.1920, 25889.00
743.3410, 25932.00
744.4890, 26030.00
745.6370, 26287.00
746.7850, 26124.00
747.9330, 26299.00
749.0810, 26050.00
750.2290, 26153.00
751.3760, 26212.00
752.5240, 26471.00
753.6710, 26434.35
754.8180, 26319.00
755.9650, 26451.00
757.1110, 26360.00
758.2580, 26350.00
759.4040, 26428.00
760.5510, 26457.00
761.6970, 26503.10
762.8420, 26525.41
763.9880, 26608.00
765.1340, 26579.00
766.2790, 26621.00
767.4240, 26716.00
768.5690, 26542.00
769.7140, 26760.00
770.8590, 26814.00
772.0030, 26700.00
773.1480, 26718.00
774.2920, 26532.00
775.4360, 26597.00
776.5800, 26896.00
777.7240, 26839.00
778.8670, 26986.00
780.0110, 26904.00
781.1540, 27028.00
782.2970, 26781.00
783.4400, 26969.00
784.5830, 26845.00
785.7250, 27053.00
786.8680, 27176.00
788.0100, 26877.00
789.1520, 27072.00
790.2940, 26912.00
791.4360, 27082.00
792.5780, 27194.00
793.7190, 27195.00
794.8600, 27244.00
796.0010, 27285.54
797.1420, 27123.00
798.2830, 27333.00
799.4240, 27422.00
800.5640, 27435.00
801.7050, 27307.00
802.8450, 27332.00
803.9850, 27368.00
805.1250, 27447.00
806.2640, 27312.00
807.4040, 27435.00
808.5430, 27389.00
809.6820, 27627.00
810.8210, 27844.00
811.9600, 27534.00
813.0990, 27643.00
814.2370, 27599.00
815.3760, 27611.00
816.5140, 27729.58
817.6520, 27709.00
818.7900, 27887.00
819.9270, 27979.00
821.0650, 27927.00
822.2020, 27949.00
823.3390, 28134.00
824.4760, 27863.00
825.6130, 27936.00
826.7500, 28123.00
827.8870, 28078.00
829.0230, 28154.10
830.1590, 28288.00
831.2950, 28175.00
832.4310, 28198.00
833.5670, 28193.00
834.7030, 28427.00
835.8380, 28084.00
836.9730, 28213.00
838.1080, 28019.00
839.2430, 28287.00
840.3780, 28345.00
841.5130, 28478.00
842.6470, 28328.00
843.7810, 28277.00
844.9150, 28469.00
846.0490, 28474.00
847.1830, 28518.00
848.3170, 28396.00
849.4500, 28675.00
850.5830, 28932.00
851.7160, 28713.00
852.8490, 29083.00
853.9820, 29070.00
855.1150, 29456.00
856.2470, 29464.00
857.3800, 29547.00
858.5120, 29712.00
859.6440, 29725.56
860.7760, 29861.00
861.9070, 29791.00
863.0390, 29883.00
864.1700, 29801.00
865.3010, 29797.00
866.4320, 29880.00
867.5630, 29715.00
868.6940, 29682.00
869.8240, 29638.00
870.9540, 29673.00
872.0850, 29387.00
873.2150, 29382.00
874.3450, 29489.00
875.4740, 29399.00
876.6040, 29641.00
877.7330, 29650.00
878.8620, 29435.00
879.9910, 29321.00
881.1200, 29169.00
882.2490, 29356.00
883.3770, 29426.00
884.5060, 29377.00
885.6340, 29700.00
886.7620, 29516.00
887.8900, 29392.00
889.0180, 29596.00
890.1450, 29491.00
891.2730, 29553.00
892.4000, 29577.00
893.5270, 29398.00
894.6540, 29467.00
895.7810, 29656.00
896.9070, 29761.00
898.0340, 29506.00
899.1600, 29488.00
900.2860, 29617.00
901.4120, 29593.00
902.5380, 29780.00
903.6630, 29630.00
904.7890, 29745.00
905.9140, 29727.00
907.0390, 29823.00
908.1640, 29870.00
909.2890, 29816.00
910.4130, 29866.00
911.5380, 29971.00
912.6620, 29962.00
913.7860, 29940.00
914.9100, 30080.00
916.0340, 29892.00
917.1580, 29932.00
918.2810, 30211.00
919.4040, 30188.00
920.5280, 30117.00
921.6510, 29974.00
922.7730, 30293.00
923.8960, 30199.00
925.0180, 30358.00
926.1410, 30183.00
927.2630, 30360.00
928.3850, 30367.00
929.5070, 30327.00
930.6280, 30348.00
931.7500, 30540.00
932.8710, 30413.00
933.9920, 30397.00
935.1130, 30448.00
936.2340, 30328.00
937.3550, 30400.39
938.4760, 30531.00
939.5960, 30481.00
940.7160, 30449.00
941.8360, 30510.00
942.9560, 30589.00
944.0760, 30690.00
945.1950, 30624.00
946.3150, 30626.00
947.4340, 30651.98
948.5530, 30687.74
949.6720, 30673.00
950.7900, 30811.00
951.9090, 30847.00
953.0270, 30863.00
954.1460, 31098.00
955.2640, 31019.00
956.3820, 30853.00
957.4990, 31140.00
958.6170, 31112.00
959.7340, 31115.00
960.8520, 31157.00
961.9690, 31203.00
963.0860, 31334.00
964.2020, 31295.00
965.3190, 31405.00
966.4350, 31352.00
967.5520, 31657.00
968.6680, 31318.00
969.7840, 31422.00
970.8990, 31739.00
972.0150, 31759.00
973.1310, 31743.00
974.2460, 31741.00
975.3610, 31653.00
976.4760, 31586.00
977.5910, 31988.00
978.7050, 32037.00
979.8200, 31957.00
980.9340, 32076.00
982.0480, 32003.00
983.1620, 32331.00
984.2760, 32344.00
985.3900, 32285.00
986.5030, 32800.00
987.6160, 32557.00
988.7300, 32788.00
989.8430, 32817.00
990.9550, 33107.00
992.0680, 33378.00
993.1810, 33363.00
994.2930, 33635.00
995.4050, 34005.00
996.5170, 34117.00
997.6290, 34323.00
998.7410, 34727.00
999.8520, 35172.00
1000.964, 35497.00
1002.075, 35690.00
1003.186, 36312.00
1004.297, 36819.00
1005.407, 37207.00
1006.518, 37999.00
1007.628, 38834.00
1008.738, 39776.00
1009.848, 40863.00
1010.958, 41492.00
1012.068, 42220.00
1013.178, 42443.00
1014.287, 42639.00
1015.396, 41766.00
1016.505, 40786.00
1017.614, 39491.00
1018.723, 38445.00
1019.831, 37229.00
1020.940, 36595.00
1022.048, 35552.00
1023.156, 35572.00
1024.264, 34859.00
1025.372, 34801.00
1026.479, 34392.00
1027.587, 34119.00
1028.694, 34293.00
1029.801, 34163.00
1030.908, 34086.00
1032.015, 34078.00
1033.121, 33980.00
1034.228, 34143.00
1035.334, 33903.00
1036.440, 34090.00
1037.546, 33943.00
1038.652, 33943.00
1039.758, 34122.00
1040.863, 33836.00
1041.968, 34117.00
1043.074, 34181.00
1044.178, 34314.00
1045.283, 34277.00
1046.388, 34410.00
1047.492, 34499.00
1048.597, 34199.00
1049.701, 34293.00
1050.805, 34023.00
1051.909, 34233.00
1053.012, 34099.00
1054.116, 33979.00
1055.219, 33845.00
1056.322, 33986.00
1057.425, 33902.00
1058.528, 33915.00
1059.631, 33899.00
1060.733, 33833.00
1061.836, 33889.00
1062.938, 33763.00
1064.040, 33759.30
1065.142, 33869.00
1066.243, 33722.09
1067.345, 33742.00
1068.446, 33811.00
1069.547, 33703.00
1070.648, 33598.00
1071.749, 33567.00
1072.850, 33621.85
1073.951, 33721.00
1075.051, 33732.00
1076.151, 33838.00
1077.251, 33843.20
1078.351, 33856.24
1079.451, 33893.00
1080.550, 33860.00
1081.650, 33944.00
1082.749, 33980.00
1083.848, 33953.00
1084.947, 33933.00
1086.046, 34069.00
1087.144, 34125.00
1088.243, 34217.00
1089.341, 34229.20
1090.439, 34207.00
1091.537, 34187.00
1092.635, 34143.00
1093.732, 34192.89
1094.830, 34149.00
1095.927, 34296.00
1097.024, 34304.00
1098.121, 34356.00
1099.218, 34311.00
1100.314, 34320.00
1101.411, 34392.00
1102.507, 34308.00
1103.603, 34333.00
1104.699, 34536.00
1105.795, 34490.00
1106.890, 34404.00
1107.986, 34611.00
1109.081, 34494.00
1110.176, 34449.00
1111.271, 34847.00
1112.366, 34778.00
1113.461, 34628.00
1114.555, 34811.00
1115.649, 34849.00
1116.744, 34804.00
1117.838, 34764.00
1118.931, 34714.00
1120.025, 34714.00
1121.119, 34928.00
1122.212, 34542.00
1123.305, 34778.00
1124.398, 34905.00
1125.491, 34781.00
1126.584, 34860.00
1127.676, 35055.00
1128.768, 34848.00
1129.861, 35044.00
1130.953, 34933.00
1132.044, 34780.00
1133.136, 35130.00
1134.228, 35082.00
1135.319, 34897.00
1136.410, 35128.00
1137.501, 35130.00
1138.592, 35143.00
1139.683, 35147.00
1140.773, 35153.79
1141.864, 35170.85
1142.954, 35159.00
1144.044, 35206.00
1145.134, 35196.00
1146.224, 35214.79
1147.313, 35196.00
1148.402, 35318.00
1149.492, 35427.00
1150.581, 35270.00
1151.670, 35770.00
1152.758, 35500.00
1153.847, 35544.00
1154.935, 35704.00
1156.024, 35446.00
1157.112, 35574.00
1158.200, 35298.00
1159.287, 35688.00
1160.375, 35521.00
1161.462, 35654.00
1162.550, 35843.00
1163.637, 35589.00
1164.724, 35779.00
1165.810, 35530.00
1166.897, 35818.00
1167.983, 35778.00
1169.070, 35738.00
1170.156, 35939.00
1171.242, 35807.00
1172.327, 36138.00
1173.413, 36015.00
1174.499, 36060.00
1175.584, 36140.00
1176.669, 35964.00
1177.754, 36191.00
1178.839, 35892.00
1179.923, 36363.00
1181.008, 36359.00
1182.092, 36411.00
1183.176, 36128.00
1184.260, 36331.00
1185.344, 36179.00
1186.428, 36272.00
1187.511, 36298.00
1188.595, 36549.00
1189.678, 36346.00
1190.761, 36307.00
1191.843, 36457.00
1192.926, 36374.00
1194.009, 36433.00
1195.091, 36607.00
1196.173, 36630.00
1197.255, 36692.00
1198.337, 36731.00
1199.419, 36720.00
1200.500, 36514.00
1201.582, 36640.00
1202.663, 36720.00
1203.744, 37100.00
1204.825, 36959.00
1205.905, 36823.00
1206.986, 36831.00
1208.066, 36742.00
1209.146, 36918.00
1210.226, 36889.23
1211.306, 37031.00
1212.386, 36947.00
1213.466, 37139.00
1214.545, 37113.00
1215.624, 37074.00
1216.703, 37361.00
1217.782, 37361.00
1218.861, 37252.00
1219.939, 37324.00
1221.018, 37347.00
1222.096, 37588.00
1223.174, 37530.00
1224.252, 37486.00
1225.330, 37208.00
1226.407, 37388.00
1227.485, 37455.00
1228.562, 37735.00
1229.639, 37716.00
1230.716, 37536.00
1231.793, 37664.00
1232.869, 37546.00
1233.946, 37496.00
1235.022, 37671.00
1236.098, 37663.00
1237.174, 37848.00
1238.250, 37593.00
1239.325, 37879.00
1240.401, 37683.00
1241.476, 37820.00
1242.551, 37564.00
1243.626, 37856.00
1244.701, 37809.00
1245.776, 37849.00
1246.850, 37928.00
1247.924, 38249.00
1248.999, 38218.82
1250.073, 37966.00
1251.146, 38292.00
1252.220, 38262.00
1253.293, 38197.00
1254.367, 38327.00
1255.440, 38117.00
1256.513, 38405.00
1257.586, 38145.00
1258.658, 38309.00
1259.731, 38213.00
1260.803, 38350.00
1261.875, 38481.00
1262.947, 38481.00
1264.019, 38337.00
1265.091, 38595.00
1266.162, 38477.00
1267.234, 38578.00
1268.305, 38557.00
1269.376, 38530.00
1270.447, 38464.00
1271.517, 38677.00
1272.588, 38564.00
1273.658, 38518.00
1274.729, 38959.00
1275.799, 38975.00
1276.868, 38628.00
1277.938, 38715.00
1279.008, 38946.00
1280.077, 38925.00
1281.146, 38937.00
1282.215, 38971.00
1283.284, 39100.00
1284.353, 38716.00
1285.421, 38989.00
1286.490, 38893.00
1287.558, 39019.00
1288.626, 39144.00
1289.694, 38932.00
1290.762, 39041.00
1291.829, 39053.00
1292.897, 39206.00
1293.964, 38954.00
1295.031, 39070.00
1296.098, 38947.00
1297.165, 38939.00
1298.231, 39112.36
1299.298, 39117.11
1300.364, 39362.00
1301.430, 39439.00
1302.496, 39346.00
1303.562, 39700.00
1304.627, 39407.00
1305.693, 39607.00
1306.758, 39683.00
1307.823, 39544.00
1308.888, 39725.00
1309.953, 39637.00
1311.018, 39766.00
1312.082, 39849.00
1313.146, 39730.00
1314.210, 39894.00
1315.274, 39788.00
1316.338, 39841.00
1317.402, 39865.00
1318.465, 39843.00
1319.529, 40265.00
1320.592, 40014.00
1321.655, 40099.00
1322.718, 39890.00
1323.780, 40261.00
1324.843, 40201.00
1325.905, 40240.00
1326.967, 40233.00
1328.029, 40004.00
1329.091, 40093.00
1330.153, 40301.00
1331.214, 40128.00
1332.275, 40270.00
1333.337, 40301.00
1334.398, 40222.00
1335.458, 40446.00
1336.519, 40300.00
1337.580, 40383.00
1338.640, 40332.00
1339.700, 40294.00
1340.760, 40268.00
1341.820, 40281.00
1342.880, 40716.00
1343.939, 40201.00
1344.999, 40883.00
1346.058, 40892.00
1347.117, 40819.00
1348.176, 40712.00
1349.235, 40724.00
1350.293, 40754.09
1351.351, 40882.00
1352.410, 40900.00
1353.468, 41038.00
1354.526, 41085.00
1355.583, 41052.00
1356.641, 41042.00
1357.698, 41328.00
1358.756, 41258.00
1359.813, 41174.00
1360.869, 41589.00
1361.926, 41360.00
1362.983, 41487.00
1364.039, 41458.00
1365.095, 41290.00
1366.152, 41416.00
1367.207, 41579.00
1368.263, 41505.00
1369.319, 41508.00
1370.374, 41677.00
1371.430, 41589.00
1372.485, 41653.00
1373.540, 41520.00
1374.594, 41523.00
1375.649, 41438.00
1376.703, 41503.38
1377.758, 41579.00
1378.812, 41584.00
1379.866, 41855.00
1380.920, 41715.00
1381.973, 41825.00
1383.027, 41712.00
1384.080, 41703.00
1385.133, 42054.00
1386.186, 41709.00
1387.239, 41880.00
1388.291, 41932.00
1389.344, 41734.00
1390.396, 42237.00
1391.448, 41944.00
1392.500, 42079.00
1393.552, 42081.00
1394.604, 42138.00
1395.655, 42216.00
1396.707, 42178.38
1397.758, 42290.00
1398.809, 42126.00
1399.860, 42302.00
1400.910, 42281.00
1401.961, 42161.00
1403.011, 42482.00
1404.061, 42529.00
1405.111, 42547.00
1406.161, 42345.00
1407.211, 42429.00
1408.260, 42607.00
1409.310, 42553.00
1410.359, 42819.00
1411.408, 42651.00
1412.457, 42726.00
1413.506, 42644.00
1414.554, 42680.00
1415.603, 42814.00
1416.651, 42723.00
1417.699, 42812.00
1418.747, 42729.00
1419.794, 42805.75
1420.842, 42912.00
1421.889, 42907.00
1422.937, 43015.00
1423.984, 42979.00
1425.031, 43191.00
1426.077, 43206.00
1427.124, 43224.33
1428.170, 43247.55
1429.217, 43218.00
1430.263, 43188.00
1431.309, 43153.00
1432.354, 43168.00
1433.400, 43144.11
1434.445, 43237.00
1435.491, 43145.00
1436.536, 43166.08
1437.581, 43194.80
1438.625, 43136.00
1439.670, 43320.00
1440.714, 43391.00
1441.759, 43507.00
1442.803, 43367.00
1443.847, 43503.00
1444.890, 43530.00
1445.934, 43324.00
1446.978, 43717.00
1448.021, 43696.00
1449.064, 43570.00
1450.107, 43778.00
1451.150, 43923.00
1452.192, 43586.00
1453.235, 43821.00
1454.277, 43521.00
1455.319, 44035.00
1456.361, 43946.00
1457.403, 43933.00
1458.445, 44050.00
1459.486, 43804.00
1460.528, 44151.00
1461.569, 44219.00
1462.610, 44092.00
1463.651, 44110.00
1464.691, 44073.00
1465.732, 44442.00
1466.772, 43945.00
1467.812, 44229.00
1468.852, 44399.00
1469.892, 44045.00
1470.932, 44434.00
1471.971, 44290.00
1473.011, 44367.00
1474.050, 44384.00
1475.089, 44369.00
1476.128, 44600.00
1477.166, 44399.00
1478.205, 44519.00
1479.243, 44526.00
1480.282, 44746.00
1481.320, 44965.00
1482.357, 44618.00
1483.395, 44708.00
1484.433, 44819.00
1485.470, 44711.00
1486.507, 44719.00
1487.544, 44652.00
1488.581, 45044.00
1489.618, 44910.00
1490.655, 44832.00
1491.691, 45231.00
1492.727, 44695.00
1493.763, 44934.00
1494.799, 45181.00
1495.835, 45177.00
1496.871, 45045.00
1497.906, 45146.00
1498.941, 45282.00
1499.976, 45302.00
1501.011, 45344.80
1502.046, 45253.00
1503.081, 45365.00
1504.115, 45289.00
1505.149, 45337.00
1506.183, 45360.00
1507.217, 45353.00
1508.251, 45497.00
1509.285, 45362.00
1510.318, 45487.00
1511.352, 45579.00
1512.385, 45462.00
1513.418, 45444.00
1514.450, 45267.00
1515.483, 45400.00
1516.516, 45803.00
1517.548, 45560.00
1518.580, 45673.00
1519.612, 45501.00
1520.644, 45906.00
1521.675, 45677.00
1522.707, 45761.00
1523.738, 45753.00
1524.769, 45678.00
1525.800, 45871.00
1526.831, 45855.00
1527.862, 45958.00
1528.892, 45989.00
1529.923, 45850.00
1530.953, 46121.00
1531.983, 46075.00
1533.013, 46207.00
1534.042, 46115.00
1535.072, 46066.00
1536.101, 46291.00
1537.131, 46112.00
1538.160, 46401.00
1539.188, 46206.00
1540.217, 46192.00
1541.246, 46395.00
1542.274, 46511.00
1543.302, 46262.00
1544.330, 46621.00
1545.358, 46441.00
1546.386, 46331.00
1547.413, 46507.00
1548.441, 46590.00
1549.468, 46553.00
1550.495, 46573.00
1551.522, 46495.00
1552.549, 46853.00
1553.575, 46514.00
1554.602, 46916.00
1555.628, 46318.00
1556.654, 46745.00
1557.680, 46648.00
1558.706, 46890.00
1559.731, 47014.00
1560.757, 46696.00
1561.782, 47047.00
1562.807, 47288.00
1563.832, 46783.00
1564.857, 46778.00
1565.881, 47141.00
1566.906, 46479.00
1567.930, 47380.00
1568.954, 47094.00
1569.978, 47224.00
1571.002, 47050.00
1572.025, 47349.00
1573.049, 47112.00
1574.072, 47322.00
1575.095, 47114.00
1576.118, 47455.00
1577.141, 47508.00
##END=



