##NAMES=Diopside
##RRUFFID=R060861
##IDEAL CHEMISTRY=CaMgSi_2_O_6_
##LOCALITY=Red Mountain Volcano, NW of Flagstaff, Arizona, USA
##OWNER=RRUFF
##SOURCE=Jennifer Sano
##DESCRIPTION=Worn brown fragment
##STATUS=The identification of this mineral has been confirmed by X-ray diffraction and chemical analysis
##URL=rruff.info/R060861
##MEASURED CHEMISTRY=(Ca_0.72_Fe^2+^_0.23_Na_0.05_)_Σ=1_(Mg_0.80_Al_0.15_Ti_0.03_Fe^3+^_0.02_)_Σ=1_(Si_1.82_Al_0.18_)_Σ=2_O_6_
##PIN_ID=M01599
##ORIENTATION=Laser parallel to (1 0 1). Fiducial mark perpendicular to laser is parallel to b [0 1 0]
174.7000, 12140.00
175.9330, 12380.00
177.1660, 12500.00
178.3990, 12686.00
179.6310, 12696.00
180.8640, 12761.00
182.0960, 12842.00
183.3280, 13041.00
184.5600, 13152.00
185.7910, 13337.00
187.0220, 13445.24
188.2540, 13669.00
189.4840, 13608.00
190.7150, 13819.00
191.9460, 13804.00
193.1760, 14000.00
194.4060, 14058.00
195.6360, 13941.00
196.8660, 14063.00
198.0960, 13887.00
199.3250, 14076.00
200.5540, 14222.00
201.7830, 14219.00
203.0120, 14199.00
204.2400, 13782.00
205.4690, 13486.00
206.6970, 13050.00
207.9250, 13076.00
209.1530, 13256.00
210.3800, 13368.00
211.6080, 13503.02
212.8350, 13667.00
214.0620, 13819.00
215.2880, 14026.00
216.5150, 14199.00
217.7410, 14430.00
218.9680, 14681.00
220.1940, 14815.76
221.4190, 15039.00
222.6450, 15105.00
223.8700, 15201.00
225.0960, 15321.00
226.3210, 15341.56
227.5450, 15377.72
228.7700, 15354.00
229.9940, 15315.00
231.2190, 15214.00
232.4430, 15118.80
233.6660, 14784.00
234.8900, 14812.00
236.1140, 14648.00
237.3370, 14393.00
238.5600, 14375.00
239.7830, 14106.00
241.0050, 14093.00
242.2280, 13936.00
243.4500, 13923.00
244.6720, 13883.00
245.8940, 13917.00
247.1160, 13779.00
248.3370, 13720.00
249.5580, 13575.00
250.7790, 13530.00
252.0000, 13660.00
253.2210, 13627.00
254.4410, 13652.00
255.6620, 13596.00
256.8820, 13587.00
258.1020, 13670.00
259.3210, 13631.21
260.5410, 13489.49
261.7600, 13552.00
262.9790, 13190.00
264.1980, 12919.00
265.4170, 12911.00
266.6360, 12792.00
267.8540, 12891.00
269.0720, 12829.00
270.2900, 12544.00
271.5080, 12615.00
272.7260, 12619.00
273.9430, 12648.00
275.1600, 12719.63
276.3770, 12689.00
277.5940, 12846.00
278.8100, 12933.00
280.0270, 12981.00
281.2430, 13180.00
282.4590, 13267.00
283.6750, 13376.00
284.8910, 13562.00
286.1060, 13761.00
287.3210, 13953.00
288.5360, 14142.00
289.7510, 14499.00
290.9660, 14750.00
292.1800, 14998.00
293.3950, 15324.00
294.6090, 15582.00
295.8230, 15847.00
297.0360, 16226.00
298.2500, 16590.00
299.4630, 16864.00
300.6760, 17113.00
301.8890, 17755.00
303.1020, 18078.99
304.3150, 18725.00
305.5270, 18952.00
306.7390, 19724.00
307.9510, 20040.00
309.1630, 20555.00
310.3750, 21187.00
311.5860, 21844.00
312.7970, 22523.00
314.0080, 23405.00
315.2190, 24134.59
316.4300, 25026.00
317.6400, 25781.00
318.8510, 26475.00
320.0610, 27308.00
321.2710, 28104.00
322.4800, 28782.00
323.6900, 29686.00
324.8990, 30434.00
326.1080, 31148.00
327.3170, 31738.00
328.5260, 32197.00
329.7340, 32506.00
330.9430, 32771.00
332.1510, 32779.00
333.3590, 32912.38
334.5670, 32724.32
335.7740, 32794.00
336.9820, 32345.00
338.1890, 31964.00
339.3960, 32031.00
340.6030, 31169.89
341.8100, 30652.00
343.0160, 29674.00
344.2220, 29618.00
345.4280, 28865.00
346.6340, 28539.00
347.8400, 27881.00
349.0460, 27453.00
350.2510, 27129.00
351.4560, 26755.00
352.6610, 26526.00
353.8660, 26084.00
355.0700, 25994.00
356.2750, 25808.00
357.4790, 25434.00
358.6830, 25286.00
359.8870, 24959.00
361.0910, 24986.00
362.2940, 24713.00
363.4970, 24433.00
364.7000, 24354.00
365.9030, 24073.00
367.1060, 24145.00
368.3080, 23791.00
369.5110, 23567.00
370.7130, 23874.00
371.9150, 23728.00
373.1170, 23644.00
374.3180, 23891.53
375.5200, 24106.00
376.7210, 24285.00
377.9220, 24783.00
379.1230, 25125.00
380.3230, 25657.00
381.5240, 26225.00
382.7240, 27008.00
383.9240, 27834.00
385.1240, 28768.00
386.3240, 29839.00
387.5230, 30911.00
388.7230, 31882.00
389.9220, 33063.00
391.1210, 33940.00
392.3200, 34707.00
393.5180, 35193.00
394.7170, 35467.00
395.9150, 35722.00
397.1130, 35199.00
398.3110, 35014.00
399.5080, 34225.00
400.7060, 33012.00
401.9030, 31536.00
403.1000, 30132.00
404.2970, 28367.00
405.4940, 26625.00
406.6910, 24776.00
407.8870, 23221.00
409.0830, 21861.00
410.2790, 20523.00
411.4750, 19097.00
412.6710, 18049.00
413.8660, 16972.00
415.0610, 16243.00
416.2560, 15523.00
417.4510, 14964.00
418.6460, 14441.00
419.8410, 13762.00
421.0350, 13318.00
422.2290, 13186.00
423.4230, 12772.00
424.6170, 12631.00
425.8100, 12183.00
427.0040, 12145.00
428.1970, 12069.00
429.3900, 11797.82
430.5830, 11480.00
431.7760, 11458.00
432.9680, 11350.00
434.1610, 11221.00
435.3530, 11011.00
436.5450, 11019.00
437.7360, 10908.00
438.9280, 10813.00
440.1190, 10537.00
441.3110, 10641.00
442.5020, 10490.00
443.6930, 10368.00
444.8830, 10383.00
446.0740, 10147.00
447.2640, 10286.00
448.4540, 10258.00
449.6440, 10206.00
450.8340, 10281.00
452.0240, 10247.00
453.2130, 10265.17
454.4020, 10281.31
455.5910, 10295.00
456.7800, 10270.00
457.9690, 10290.00
459.1570, 10238.00
460.3460, 10263.97
461.5340, 10400.00
462.7220, 10312.00
463.9090, 10312.00
465.0970, 10373.00
466.2840, 10240.00
467.4720, 10478.00
468.6590, 10373.00
469.8460, 10419.00
471.0320, 10486.00
472.2190, 10450.00
473.4050, 10359.00
474.5910, 10366.00
475.7770, 10336.00
476.9630, 10220.00
478.1490, 10197.00
479.3340, 10155.50
480.5190, 10127.09
481.7040, 10106.00
482.8890, 10116.00
484.0740, 10101.00
485.2580, 10092.00
486.4430, 10121.10
487.6270, 10257.00
488.8110, 10169.00
489.9950, 10172.00
491.1780, 10174.00
492.3620, 10103.00
493.5450, 10168.00
494.7280, 10084.00
495.9110, 10116.00
497.0940, 10114.00
498.2760, 10153.00
499.4590, 10165.00
500.6410, 10182.87
501.8230, 10192.20
503.0050, 10217.00
504.1860, 10232.00
505.3680, 10241.00
506.5490, 10337.39
507.7300, 10439.00
508.9110, 10617.00
510.0920, 10696.00
511.2730, 10771.00
512.4530, 10940.00
513.6330, 10965.00
514.8130, 11104.00
515.9930, 11139.00
517.1730, 11333.00
518.3520, 11515.00
519.5320, 11535.00
520.7110, 11788.00
521.8900, 11727.00
523.0690, 12095.00
524.2470, 12180.49
525.4260, 12310.00
526.6040, 12503.00
527.7820, 12606.00
528.9600, 12776.00
530.1380, 12775.00
531.3150, 12976.00
532.4930, 13040.00
533.6700, 13167.00
534.8470, 13054.00
536.0240, 13071.00
537.2000, 12984.00
538.3770, 13020.00
539.5530, 12959.00
540.7290, 12785.00
541.9050, 12689.00
543.0810, 12710.00
544.2570, 12698.00
545.4320, 12485.00
546.6080, 12370.00
547.7830, 12337.00
548.9580, 12445.00
550.1320, 12409.00
551.3070, 12357.00
552.4810, 12398.00
553.6550, 12386.00
554.8300, 12277.00
556.0030, 12203.00
557.1770, 12444.00
558.3510, 12221.00
559.5240, 12194.00
560.6970, 12154.00
561.8700, 11978.00
563.0430, 11732.00
564.2160, 11711.00
565.3880, 11438.00
566.5600, 11145.00
567.7320, 11011.00
568.9040, 10878.00
570.0760, 10727.00
571.2480, 10565.49
572.4190, 10346.00
573.5900, 10209.00
574.7610, 10113.00
575.9320, 9912.000
577.1030, 9809.000
578.2740, 9649.000
579.4440, 9323.000
580.6140, 9306.000
581.7840, 9042.000
582.9540, 8978.000
584.1240, 8771.000
585.2930, 8441.000
586.4630, 8372.000
587.6320, 8161.000
588.8010, 8001.000
589.9700, 7932.000
591.1380, 7738.000
592.3070, 7725.000
593.4750, 7493.306
594.6430, 7294.000
595.8110, 7055.000
596.9790, 7003.000
598.1460, 6763.000
599.3140, 6819.000
600.4810, 6721.000
601.6480, 6781.000
602.8150, 6727.250
603.9820, 6550.000
605.1480, 6635.000
606.3150, 6535.000
607.4810, 6462.000
608.6470, 6519.000
609.8130, 6522.000
610.9790, 6664.000
612.1440, 6652.000
613.3100, 6580.000
614.4750, 6707.000
615.6400, 6728.000
616.8050, 6709.000
617.9690, 6780.000
619.1340, 6816.000
620.2980, 6836.332
621.4620, 6996.000
622.6260, 6940.000
623.7900, 7028.000
624.9540, 7174.000
626.1170, 7189.000
627.2810, 7279.000
628.4440, 7452.000
629.6070, 7524.000
630.7690, 7708.000
631.9320, 7834.000
633.0950, 7955.000
634.2570, 8164.000
635.4190, 8190.000
636.5810, 8398.000
637.7430, 8700.000
638.9040, 8945.000
640.0660, 9290.000
641.2270, 9624.000
642.3880, 9965.000
643.5490, 10327.00
644.7100, 10815.00
645.8700, 11312.00
647.0310, 11829.00
648.1910, 12640.00
649.3510, 13283.00
650.5110, 14163.00
651.6710, 15064.00
652.8300, 16267.00
653.9900, 17474.00
655.1490, 18955.00
656.3080, 20404.00
657.4670, 22262.00
658.6250, 23970.00
659.7840, 25877.00
660.9420, 27763.00
662.1010, 29997.00
663.2590, 31458.00
664.4170, 33183.00
665.5740, 34484.00
666.7320, 35141.00
667.8890, 35365.00
669.0460, 34954.00
670.2030, 33733.00
671.3600, 32371.00
672.5170, 30734.00
673.6740, 29075.00
674.8300, 26825.00
675.9860, 24877.00
677.1420, 22939.00
678.2980, 21186.00
679.4540, 19662.00
680.6090, 18223.00
681.7650, 16775.00
682.9200, 15983.00
684.0750, 14876.00
685.2300, 14021.00
686.3840, 13172.00
687.5390, 12586.00
688.6930, 11890.00
689.8470, 11509.00
691.0010, 10972.00
692.1550, 10416.00
693.3090, 10052.00
694.4620, 10004.00
695.6160, 9672.000
696.7690, 9357.000
697.9220, 9292.000
699.0750, 8990.000
700.2280, 8880.000
701.3800, 8666.000
702.5320, 8489.000
703.6850, 8371.000
704.8370, 8188.000
705.9880, 8190.000
707.1400, 8022.000
708.2920, 7972.000
709.4430, 7766.000
710.5940, 7793.000
711.7450, 7682.000
712.8960, 7652.000
714.0470, 7493.000
715.1970, 7490.000
716.3480, 7300.000
717.4980, 7403.000
718.6480, 7105.000
719.7980, 7220.000
720.9470, 7257.000
722.0970, 7056.000
723.2460, 7115.000
724.3960, 7033.000
725.5450, 6926.000
726.6940, 6917.000
727.8420, 6916.000
728.9910, 6824.000
730.1390, 6724.000
731.2870, 6816.000
732.4350, 6806.000
733.5830, 6891.000
734.7310, 6887.871
735.8790, 6810.000
737.0260, 6895.000
738.1730, 6840.000
739.3200, 6859.000
740.4670, 6916.005
741.6140, 7094.000
742.7610, 6989.000
743.9070, 7011.000
745.0530, 6979.000
746.1990, 7162.000
747.3450, 7229.000
748.4910, 7332.000
749.6370, 7311.000
750.7820, 7427.000
751.9270, 7491.000
753.0720, 7575.000
754.2170, 7684.000
755.3620, 7684.000
756.5070, 7880.000
757.6510, 8031.000
758.7950, 8009.000
759.9400, 8181.000
761.0840, 8213.000
762.2270, 8404.000
763.3710, 8461.000
764.5140, 8434.000
765.6580, 8576.000
766.8010, 8744.000
767.9440, 8807.000
769.0870, 8735.000
770.2290, 8879.000
771.3720, 8901.000
772.5140, 8927.000
773.6560, 9051.000
774.7990, 9039.000
775.9400, 9081.000
777.0820, 9115.000
778.2240, 9225.000
779.3650, 9144.000
780.5060, 9337.000
781.6470, 9242.000
782.7880, 9383.000
783.9290, 9395.000
785.0690, 9353.000
786.2100, 9319.000
787.3500, 9440.000
788.4900, 9465.000
789.6300, 9470.252
790.7700, 9476.000
791.9090, 9470.000
793.0490, 9519.000
794.1880, 9493.000
795.3270, 9663.000
796.4660, 9627.000
797.6050, 9724.000
798.7440, 9702.000
799.8820, 9785.000
801.0200, 9896.000
802.1590, 9907.000
803.2970, 9971.000
804.4340, 10078.00
805.5720, 9980.000
806.7100, 10156.00
807.8470, 10064.00
808.9840, 10157.00
810.1210, 10433.00
811.2580, 10392.00
812.3950, 10614.00
813.5310, 10566.00
814.6680, 10623.00
815.8040, 10858.00
816.9400, 10689.00
818.0760, 10752.00
819.2120, 10844.00
820.3470, 10919.00
821.4830, 10899.00
822.6180, 10871.00
823.7530, 11053.00
824.8880, 10924.00
826.0230, 11014.00
827.1580, 10928.00
828.2920, 11094.00
829.4270, 10869.00
830.5610, 11016.00
831.6950, 10967.00
832.8290, 10891.00
833.9620, 10791.00
835.0960, 10934.00
836.2290, 10791.00
837.3620, 10797.00
838.4950, 10948.00
839.6280, 10813.00
840.7610, 10759.00
841.8940, 10814.00
843.0260, 10744.00
844.1580, 10774.00
845.2910, 10787.00
846.4230, 10846.00
847.5540, 10850.72
848.6860, 11028.00
849.8170, 10939.00
850.9490, 11051.00
852.0800, 11228.00
853.2110, 11350.00
854.3420, 11473.00
855.4730, 11432.00
856.6030, 11443.00
857.7340, 11564.66
858.8640, 11681.00
859.9940, 11788.00
861.1240, 11902.85
862.2540, 12012.95
863.3830, 12127.00
864.5130, 12208.00
865.6420, 12289.71
866.7710, 12372.75
867.9000, 12417.00
869.0290, 12489.00
870.1570, 12540.00
871.2860, 12558.00
872.4140, 12642.00
873.5430, 12585.00
874.6710, 12636.00
875.7980, 12666.00
876.9260, 12628.00
878.0540, 12749.00
879.1810, 12673.00
880.3080, 12755.00
881.4360, 12772.00
882.5630, 12687.00
883.6890, 12776.00
884.8160, 12727.00
885.9420, 12877.00
887.0690, 12789.00
888.1950, 12815.90
889.3210, 12683.00
890.4470, 12769.00
891.5730, 12762.00
892.6980, 12683.00
893.8240, 12914.00
894.9490, 12854.00
896.0740, 12825.42
897.1990, 12861.00
898.3240, 12679.00
899.4480, 12839.00
900.5730, 12753.00
901.6970, 12781.00
902.8210, 12886.00
903.9450, 12876.00
905.0690, 12889.98
906.1930, 12891.56
907.3160, 12869.00
908.4400, 12910.00
909.5630, 12921.00
910.6860, 12921.14
911.8090, 12868.00
912.9320, 12970.00
914.0550, 13030.00
915.1770, 13142.00
916.2990, 12923.00
917.4210, 13013.00
918.5440, 13113.00
919.6650, 13274.00
920.7870, 13341.00
921.9090, 13440.00
923.0300, 13386.00
924.1510, 13479.00
925.2720, 13478.00
926.3930, 13502.00
927.5140, 13571.00
928.6350, 13574.00
929.7550, 13637.83
930.8760, 13649.00
931.9960, 13725.00
933.1160, 13790.00
934.2360, 13791.00
935.3550, 13914.00
936.4750, 13847.00
937.5940, 13889.00
938.7140, 13991.00
939.8330, 14094.00
940.9520, 13986.00
942.0710, 14187.00
943.1890, 14234.00
944.3080, 14341.00
945.4260, 14461.00
946.5440, 14629.00
947.6620, 14841.00
948.7800, 14914.00
949.8980, 14982.00
951.0160, 15186.00
952.1330, 15469.00
953.2500, 15618.00
954.3680, 15871.00
955.4850, 15974.00
956.6010, 16289.00
957.7180, 16516.00
958.8350, 16700.00
959.9510, 17073.00
961.0670, 17176.00
962.1830, 17403.00
963.2990, 17865.00
964.4150, 17940.00
965.5310, 18441.00
966.6460, 18620.00
967.7620, 19017.00
968.8770, 19456.00
969.9920, 20043.00
971.1070, 20310.00
972.2210, 20820.00
973.3360, 21096.00
974.4500, 21546.00
975.5650, 22282.00
976.6790, 22604.00
977.7930, 23309.00
978.9070, 23816.00
980.0200, 24607.00
981.1340, 25294.00
982.2470, 26061.00
983.3610, 26839.00
984.4740, 27585.00
985.5870, 28632.00
986.6990, 29674.00
987.8120, 31127.00
988.9250, 32097.00
990.0370, 33527.00
991.1490, 35114.00
992.2610, 36565.00
993.3730, 38110.00
994.4850, 40012.00
995.5960, 41671.00
996.7080, 43403.00
997.8190, 45282.00
998.9300, 47096.00
1000.041, 49185.00
1001.152, 50740.00
1002.263, 52402.00
1003.373, 53389.00
1004.484, 54502.00
1005.594, 55101.00
1006.704, 55209.00
1007.814, 54784.00
1008.924, 54055.00
1010.034, 52971.00
1011.143, 51234.00
1012.253, 49385.00
1013.362, 47306.00
1014.471, 44759.00
1015.580, 42145.00
1016.689, 39786.00
1017.797, 37508.00
1018.906, 35165.00
1020.014, 33092.00
1021.122, 31227.00
1022.230, 29761.00
1023.338, 28341.00
1024.446, 26702.00
1025.554, 25742.00
1026.661, 24631.00
1027.768, 23863.00
1028.875, 23227.00
1029.983, 22464.00
1031.089, 22119.00
1032.196, 21436.00
1033.303, 21031.00
1034.409, 20519.00
1035.515, 20284.00
1036.622, 19629.00
1037.728, 19581.00
1038.833, 19249.00
1039.939, 18777.00
1041.045, 18517.00
1042.150, 18063.00
1043.255, 17848.00
1044.360, 17450.54
1045.465, 17246.00
1046.570, 16686.00
1047.675, 16328.00
1048.779, 15879.00
1049.884, 15728.00
1050.988, 15351.00
1052.092, 15079.00
1053.196, 14786.00
1054.300, 14414.00
1055.404, 14109.00
1056.507, 13830.27
1057.610, 13538.00
1058.714, 13281.00
1059.817, 13085.00
1060.920, 12790.00
1062.022, 12704.00
1063.125, 12402.24
1064.228, 12230.81
1065.330, 11908.00
1066.432, 11796.00
1067.534, 11609.00
1068.636, 11285.00
1069.738, 11376.00
1070.840, 11351.00
1071.941, 10861.00
1073.042, 10922.00
1074.144, 10783.00
1075.245, 10720.00
1076.346, 10511.00
1077.446, 10376.00
1078.547, 10443.00
1079.647, 10246.00
1080.748, 10293.00
1081.848, 10114.00
1082.948, 10010.00
1084.048, 10045.00
1085.148, 9994.000
1086.247, 9796.000
1087.347, 9753.000
1088.446, 9756.000
1089.545, 9712.000
1090.644, 9627.000
1091.743, 9524.000
1092.842, 9423.000
1093.940, 9562.000
1095.039, 9421.000
1096.137, 9355.000
1097.235, 9333.000
1098.333, 9229.000
1099.431, 9106.000
1100.529, 9185.000
1101.627, 9110.000
1102.724, 9139.000
1103.822, 9034.000
1104.919, 9035.000
1106.016, 8938.000
1107.113, 8872.000
1108.209, 8912.000
1109.306, 8824.000
1110.402, 8855.000
1111.499, 8797.000
1112.595, 8825.000
1113.691, 8730.000
1114.787, 8588.000
1115.883, 8636.000
1116.978, 8560.361
1118.074, 8630.141
1119.169, 8567.000
1120.264, 8774.000
1121.359, 8864.000
1122.454, 8858.000
1123.549, 8483.000
1124.644, 8277.000
1125.738, 8071.000
1126.832, 7696.000
1127.927, 7524.000
1129.021, 7400.000
1130.115, 7353.000
1131.208, 7241.000
1132.302, 7140.000
1133.396, 6969.000
1134.489, 6847.000
1135.582, 6789.000
1136.675, 6610.000
1137.768, 6535.000
1138.861, 6495.000
1139.954, 6401.000
1141.046, 6284.000
1142.138, 6214.000
1143.231, 6125.000
1144.323, 6041.000
1145.415, 5931.000
1146.507, 5927.000
1147.598, 5877.000
1148.690, 5795.000
1149.781, 5771.000
1150.872, 5741.000
1151.964, 5631.000
1153.054, 5650.000
1154.145, 5593.648
1155.236, 5561.567
1156.327, 5553.000
1157.417, 5505.000
1158.507, 5518.000
1159.597, 5472.000
1160.687, 5520.000
1161.777, 5495.551
1162.867, 5546.000
1163.956, 5467.403
1165.046, 5450.000
1166.135, 5403.000
1167.224, 5424.000
1168.313, 5407.000
1169.402, 5371.000
1170.491, 5309.000
1171.580, 5280.000
1172.668, 5340.000
1173.756, 5275.000
1174.845, 5282.000
1175.933, 5357.000
1177.020, 5282.000
1178.108, 5242.000
1179.196, 5197.000
1180.283, 5209.000
1181.371, 5277.000
1182.458, 5168.000
1183.545, 5244.000
1184.632, 5190.000
1185.719, 5206.000
1186.805, 5162.000
1187.892, 5205.000
1188.978, 5254.000
1190.065, 5259.000
1191.151, 5175.000
1192.237, 5198.000
1193.323, 5077.000
1194.408, 5128.000
1195.494, 5236.000
1196.579, 5019.000
1197.664, 5198.000
1198.750, 5166.000
1199.835, 5135.000
1200.919, 5097.000
1202.004, 5054.000
1203.089, 5160.000
1204.173, 5098.000
1205.258, 5167.000
1206.342, 5086.000
1207.426, 5133.000
1208.510, 5136.000
1209.594, 5119.549
1210.677, 5121.927
1211.761, 5115.000
1212.844, 5119.000
1213.927, 5099.000
1215.010, 5175.000
1216.093, 5141.040
1217.176, 5147.573
1218.259, 5135.000
1219.341, 5113.000
1220.424, 5131.000
1221.506, 5089.000
1222.588, 5035.000
1223.670, 5109.000
1224.752, 5055.000
1225.834, 5194.000
1226.915, 5059.000
1227.997, 5123.000
1229.078, 5090.000
1230.159, 5114.000
1231.240, 5163.000
1232.321, 5155.000
1233.402, 5132.000
1234.483, 5057.000
1235.563, 5144.000
1236.644, 5088.000
1237.724, 5091.000
1238.804, 5100.000
1239.884, 5075.000
1240.964, 5114.000
1242.044, 5171.000
1243.123, 5106.000
1244.203, 5107.000
1245.282, 5056.000
1246.361, 5168.000
1247.440, 5070.000
1248.519, 5094.000
1249.598, 5079.000
1250.676, 5054.000
1251.755, 5088.000
1252.833, 5017.000
1253.911, 5129.000
1254.989, 5172.000
1256.067, 5092.000
1257.145, 5107.000
1258.223, 5053.000
1259.300, 5052.000
1260.378, 5046.000
1261.455, 5051.000
1262.532, 5125.000
1263.609, 5029.000
1264.686, 5113.000
1265.763, 5050.000
1266.840, 5157.000
1267.916, 5045.000
1268.992, 5073.000
1270.069, 5180.000
1271.145, 5086.000
1272.221, 5023.000
1273.296, 5059.000
1274.372, 5029.754
1275.448, 5137.000
1276.523, 5117.000
1277.598, 5148.000
1278.673, 5285.000
1279.749, 5061.000
1280.823, 5056.000
1281.898, 4989.000
1282.973, 5081.000
1284.047, 5167.000
1285.122, 5140.000
1286.196, 5087.000
1287.270, 5187.000
1288.344, 5090.142
1289.418, 5099.131
1290.491, 5071.000
1291.565, 5068.000
1292.638, 5255.000
1293.712, 5295.000
1294.785, 5195.000
1295.858, 5026.000
1296.931, 5084.000
1298.003, 5103.000
1299.076, 5159.000
1300.149, 5134.000
1301.221, 5096.000
1302.293, 5108.000
1303.365, 5129.000
1304.437, 5032.000
1305.509, 5080.000
1306.581, 5167.000
1307.652, 5090.000
1308.724, 5130.000
1309.795, 5168.000
1310.866, 5150.000
1311.937, 5136.000
1313.008, 5166.000
1314.079, 5145.000
1315.150, 5146.000
1316.220, 5071.000
1317.291, 5138.000
1318.361, 5216.000
1319.431, 5172.000
1320.501, 5236.000
1321.571, 5171.000
1322.641, 5221.000
1323.710, 5182.000
1324.780, 5198.000
1325.849, 5274.000
1326.918, 5173.000
1327.987, 5159.000
1329.056, 5164.000
1330.125, 5229.000
1331.194, 5175.000
1332.263, 5198.000
1333.331, 5223.000
1334.399, 5273.000
1335.467, 5263.628
1336.535, 5199.000
1337.603, 5245.000
1338.671, 5264.000
1339.739, 5233.000
1340.806, 5259.000
1341.874, 5258.359
1342.941, 5203.000
1344.008, 5259.000
1345.075, 5293.000
1346.142, 5264.242
1347.209, 5219.000
1348.275, 5229.000
1349.342, 5249.000
1350.408, 5319.000
1351.475, 5312.000
1352.541, 5143.000
1353.607, 5262.000
1354.673, 5197.000
1355.738, 5180.000
1356.804, 5288.000
1357.869, 5285.000
1358.935, 5265.000
1360.000, 5210.000
1361.065, 5200.000
1362.130, 5197.000
1363.195, 5166.000
1364.259, 5182.000
1365.324, 5280.000
1366.388, 5162.000
1367.453, 5228.000
1368.517, 5275.000
1369.581, 5177.000
1370.645, 5232.000
1371.709, 5159.000
1372.772, 5137.000
1373.836, 5260.000
1374.899, 5212.000
1375.963, 5272.000
1377.026, 5260.856
1378.089, 5142.000
1379.152, 5181.000
1380.214, 5184.000
1381.277, 5076.000
1382.340, 5213.000
1383.402, 5128.000
1384.464, 5164.000
1385.526, 5160.000
1386.588, 5088.000
1387.650, 5200.000
1388.712, 5251.000
1389.774, 5150.000
1390.835, 5200.000
1391.896, 5254.000
1392.958, 5146.000
1394.019, 5185.000
1395.080, 5148.000
1396.141, 5210.000
1397.201, 5210.000
1398.262, 5222.000
1399.323, 5232.729
1400.383, 5155.000
1401.443, 5197.000
1402.503, 5177.000
1403.563, 5099.000
1404.623, 5128.000
1405.683, 5237.000
1406.742, 5122.000
1407.802, 5182.000
1408.861, 5146.000
1409.920, 5195.000
1410.980, 5158.000
1412.039, 5175.000
1413.097, 5173.000
1414.156, 5134.000
1415.215, 5233.000
1416.273, 5199.868
1417.331, 5204.700
1418.390, 5201.000
1419.448, 5171.000
1420.506, 5143.743
1421.564, 5096.000
1422.621, 5110.000
1423.679, 5057.000
1424.736, 5145.000
1425.794, 5219.000
1426.851, 5134.000
1427.908, 5202.000
1428.965, 5202.000
1430.022, 5146.000
1431.079, 5161.000
1432.135, 5162.000
1433.192, 5158.000
1434.248, 5130.000
1435.304, 5131.000
1436.360, 5106.000
1437.416, 5169.000
1438.472, 5197.000
1439.528, 5201.000
1440.583, 5213.000
1441.639, 5218.000
1442.694, 5112.000
1443.749, 5083.000
1444.804, 5205.000
1445.859, 5092.000
1446.914, 5177.000
1447.969, 5069.000
1449.024, 5120.000
1450.078, 5138.017
1451.132, 5268.000
1452.187, 5155.000
1453.241, 5220.000
1454.295, 5146.000
1455.349, 5198.000
1456.402, 5087.000
1457.456, 5244.000
1458.509, 5247.000
1459.563, 5217.000
1460.616, 5186.000
1461.669, 5174.000
1462.722, 5161.461
1463.775, 5138.062
1464.828, 5174.000
1465.880, 5122.000
1466.933, 5166.027
1467.985, 5209.000
1469.037, 5159.000
1470.090, 5198.000
1471.142, 5254.000
1472.193, 5257.000
1473.245, 5261.000
1474.297, 5240.000
1475.348, 5253.000
1476.400, 5214.000
1477.451, 5172.000
1478.502, 5298.000
1479.553, 5156.000
1480.604, 5173.000
1481.655, 5116.000
1482.706, 5240.000
1483.756, 5273.000
1484.807, 5228.000
1485.857, 5266.000
1486.907, 5215.000
1487.957, 5118.000
1489.007, 5146.000
1490.057, 5186.000
1491.106, 5200.000
1492.156, 5229.000
1493.205, 5305.000
1494.255, 5361.000
1495.304, 5296.000
1496.353, 5266.000
1497.402, 5217.000
1498.451, 5206.000
1499.500, 5183.000
1500.548, 5258.000
1501.597, 5228.000
1502.645, 5336.000
1503.693, 5251.000
1504.741, 5209.000
1505.789, 5278.000
1506.837, 5239.000
1507.885, 5295.000
1508.932, 5296.000
1509.980, 5277.000
1511.027, 5230.000
1512.075, 5348.000
1513.122, 5336.000
1514.169, 5344.000
1515.216, 5271.000
1516.262, 5330.000
1517.309, 5397.000
1518.356, 5303.000
1519.402, 5273.279
1520.448, 5372.569
1521.495, 5428.819
1522.541, 5444.339
1523.587, 5297.144
1524.632, 5360.061
1525.678, 5338.774
1526.724, 5314.036
1527.769, 5406.525
1528.814, 5282.996
1529.860, 5373.627
1530.905, 5378.769
1531.950, 5423.036
1532.995, 5382.580
1534.039, 5368.292
1535.084, 5366.000
1536.128, 5395.000
1537.173, 5366.000
1538.217, 5397.000
1539.261, 5337.000
1540.305, 5361.000
1541.349, 5351.000
1542.393, 5320.000
1543.436, 5449.000
1544.480, 5311.011
1545.523, 5410.941
1546.567, 5467.832
1547.610, 5483.992
1548.653, 5337.437
1549.696, 5400.995
1550.739, 5380.349
1551.781, 5356.249
1552.824, 5449.379
1553.867, 5326.491
1554.909, 5417.761
1555.951, 5423.542
1556.993, 5468.449
1558.035, 5428.632
1559.077, 5414.984
1560.119, 5486.087
1561.161, 5510.262
1562.202, 5460.691
1563.243, 5508.084
1564.285, 5382.234
1565.326, 5406.000
##END=



