##NAMES=Diopside
##RRUFFID=R060171
##IDEAL CHEMISTRY=CaMgSi_2_O_6_
##LOCALITY=Jeffrey mine, Asbestos, Quebec, Canada
##OWNER=RRUFF
##SOURCE=Guy Ouellet
##DESCRIPTION=Yellowish-brown tabular crystals associated with vesuvianite, R060170
##STATUS=The identification of this mineral has been confirmed by X-ray diffraction and chemical analysis
##URL=rruff.info/R060171
##MEASURED CHEMISTRY=Ca_1.00_(Mg_0.98_Mn_0.02_)_Î£=1_Si_2.00_O_6_
##PIN_ID=L00876
##ORIENTATION=Laser parallel to -b* (0 -1 0). Fiducial mark perpendicular to laser is parallel to -c [0 0 -1]
95.94800, 3594.000
97.18200, 3648.000
98.41600, 3739.000
99.64900, 3832.392
100.8830, 3849.000
102.1160, 3958.000
103.3490, 3990.000
104.5820, 4001.000
105.8150, 4102.000
107.0470, 4156.792
108.2800, 4212.920
109.5120, 4335.000
110.7440, 4331.000
111.9760, 4423.000
113.2080, 4466.000
114.4400, 4408.000
115.6710, 4414.000
116.9030, 4400.000
118.1340, 4360.000
119.3650, 4407.000
120.5960, 4389.000
121.8270, 4320.000
123.0580, 4437.000
124.2880, 4396.000
125.5190, 4359.000
126.7490, 4406.000
127.9790, 4539.000
129.2090, 4762.000
130.4390, 4788.000
131.6680, 4996.000
132.8980, 4953.000
134.1270, 5043.000
135.3560, 5333.000
136.5850, 5405.000
137.8140, 5391.000
139.0430, 5388.000
140.2710, 5505.000
141.5000, 5534.000
142.7280, 5617.000
143.9560, 5490.000
145.1840, 5309.000
146.4120, 5002.000
147.6390, 4908.000
148.8670, 4798.000
150.0940, 4658.000
151.3210, 4683.000
152.5490, 4685.000
153.7750, 4652.000
155.0020, 4724.000
156.2290, 4699.691
157.4550, 4722.000
158.6810, 4694.000
159.9080, 4699.000
161.1340, 4667.000
162.3590, 4694.459
163.5850, 4729.000
164.8110, 4751.000
166.0360, 4742.000
167.2610, 4770.000
168.4860, 4762.000
169.7110, 4951.000
170.9360, 5091.000
172.1610, 5095.000
173.3850, 5177.000
174.6100, 5224.000
175.8340, 5328.000
177.0580, 5655.000
178.2820, 5638.000
179.5050, 5663.000
180.7290, 5677.000
181.9520, 6024.000
183.1760, 6288.000
184.3990, 6178.000
185.6220, 5733.000
186.8450, 5322.000
188.0670, 5097.000
189.2900, 4893.000
190.5120, 4922.000
191.7340, 4890.000
192.9560, 4878.000
194.1780, 4868.000
195.4000, 4938.000
196.6220, 4823.000
197.8430, 4910.000
199.0640, 4937.000
200.2860, 4914.000
201.5070, 4928.000
202.7270, 4949.000
203.9480, 4929.000
205.1690, 4887.000
206.3890, 4948.000
207.6090, 4846.000
208.8290, 4906.000
210.0490, 4902.000
211.2690, 4958.000
212.4890, 4922.000
213.7080, 4933.000
214.9280, 4943.435
216.1470, 5026.000
217.3660, 4994.000
218.5850, 5038.000
219.8030, 5162.000
221.0220, 5243.547
222.2400, 5337.000
223.4590, 5548.000
224.6770, 5757.000
225.8950, 5962.000
227.1120, 6147.419
228.3300, 6320.850
229.5480, 6478.000
230.7650, 6634.000
231.9820, 6733.000
233.1990, 6866.000
234.4160, 7173.000
235.6330, 7482.000
236.8490, 7297.000
238.0660, 6791.000
239.2820, 6255.000
240.4980, 5867.000
241.7140, 5810.000
242.9300, 5769.000
244.1460, 5954.000
245.3610, 6191.000
246.5770, 6428.000
247.7920, 6667.592
249.0070, 6921.064
250.2220, 7160.000
251.4370, 7407.000
252.6510, 7605.000
253.8660, 7785.000
255.0800, 7980.000
256.2940, 8259.000
257.5080, 8187.000
258.7220, 7631.000
259.9360, 6944.000
261.1490, 6281.000
262.3630, 5761.000
263.5760, 5594.000
264.7890, 5486.000
266.0020, 5483.000
267.2150, 5351.000
268.4270, 5314.000
269.6400, 5187.000
270.8520, 5334.000
272.0640, 5277.000
273.2760, 5327.000
274.4880, 5205.000
275.7000, 5238.000
276.9120, 5243.000
278.1230, 5247.000
279.3340, 5354.000
280.5450, 5272.000
281.7560, 5218.000
282.9670, 5291.000
284.1780, 5409.000
285.3880, 5275.000
286.5980, 5355.000
287.8090, 5401.000
289.0190, 5286.000
290.2290, 5287.000
291.4380, 5486.000
292.6480, 5426.000
293.8570, 5457.000
295.0670, 5476.000
296.2760, 5567.000
297.4850, 5725.000
298.6930, 5590.000
299.9020, 5715.000
301.1110, 5790.000
302.3190, 6033.000
303.5270, 6119.000
304.7350, 6300.000
305.9430, 6488.000
307.1510, 6741.000
308.3580, 7023.000
309.5660, 7424.000
310.7730, 7908.000
311.9800, 8864.000
313.1870, 9701.000
314.3940, 10895.00
315.6010, 11775.00
316.8070, 12758.00
318.0130, 13830.00
319.2200, 15121.00
320.4260, 16056.00
321.6310, 17047.00
322.8370, 17701.00
324.0430, 18711.00
325.2480, 18780.00
326.4540, 17772.00
327.6590, 15657.00
328.8640, 13270.00
330.0680, 11224.00
331.2730, 9602.000
332.4780, 8522.000
333.6820, 7829.000
334.8860, 7212.000
336.0900, 7012.000
337.2940, 6663.000
338.4980, 6575.000
339.7010, 6447.000
340.9050, 6298.000
342.1080, 6193.000
343.3110, 6256.000
344.5140, 6276.000
345.7170, 6190.000
346.9200, 6059.000
348.1220, 6213.000
349.3240, 6095.000
350.5270, 6281.000
351.7290, 6247.000
352.9310, 6246.000
354.1320, 6342.000
355.3340, 6340.000
356.5350, 6385.000
357.7370, 6434.000
358.9380, 6433.000
360.1390, 6388.562
361.3400, 6361.000
362.5400, 6214.000
363.7410, 6124.000
364.9410, 5976.000
366.1410, 5822.000
367.3410, 5826.000
368.5410, 5762.000
369.7410, 5775.000
370.9400, 5748.000
372.1400, 5724.000
373.3390, 5734.000
374.5380, 5655.000
375.7370, 5593.000
376.9360, 5665.000
378.1350, 5759.000
379.3330, 5792.000
380.5310, 5852.271
381.7300, 5896.316
382.9280, 5882.000
384.1260, 5959.000
385.3230, 5866.000
386.5210, 5870.000
387.7180, 5993.000
388.9160, 6058.000
390.1130, 5952.000
391.3100, 6067.000
392.5060, 6000.000
393.7030, 6077.000
394.9000, 5893.000
396.0960, 5788.000
397.2920, 5792.000
398.4880, 5779.000
399.6840, 5733.000
400.8800, 5690.000
402.0750, 5736.000
403.2710, 5720.000
404.4660, 5747.000
405.6610, 5796.000
406.8560, 5758.000
408.0510, 5695.000
409.2450, 5753.000
410.4400, 5670.000
411.6340, 5619.000
412.8280, 5703.000
414.0220, 5758.000
415.2160, 5754.000
416.4100, 5781.000
417.6030, 5739.000
418.7970, 5765.913
419.9900, 5722.000
421.1830, 5796.000
422.3760, 5851.000
423.5690, 5884.000
424.7610, 5891.344
425.9540, 5874.000
427.1460, 5864.000
428.3380, 5790.000
429.5300, 5769.000
430.7220, 5741.000
431.9140, 5778.000
433.1050, 5826.000
434.2970, 5845.000
435.4880, 5812.000
436.6790, 5789.000
437.8700, 5784.658
439.0610, 5799.139
440.2510, 5777.000
441.4420, 5855.000
442.6320, 5904.000
443.8220, 5927.000
445.0120, 5816.000
446.2020, 5766.000
447.3910, 5992.000
448.5810, 5833.000
449.7700, 5917.000
450.9600, 5877.000
452.1490, 5858.000
453.3370, 5893.000
454.5260, 5876.000
455.7150, 5843.000
456.9030, 5875.000
458.0910, 5871.000
459.2800, 6017.000
460.4670, 6022.000
461.6550, 5903.000
462.8430, 6020.000
464.0300, 5894.000
465.2180, 6025.000
466.4050, 6067.000
467.5920, 5887.000
468.7790, 6091.000
469.9650, 5954.000
471.1520, 5969.000
472.3380, 6092.000
473.5250, 5983.000
474.7110, 5987.000
475.8970, 6049.000
477.0820, 6058.000
478.2680, 6058.000
479.4540, 6125.000
480.6390, 6000.000
481.8240, 6113.000
483.0090, 6097.000
484.1940, 6168.000
485.3780, 6132.000
486.5630, 6221.000
487.7470, 6221.000
488.9320, 6267.000
490.1160, 6261.000
491.3000, 6370.000
492.4830, 6452.000
493.6670, 6578.000
494.8500, 6562.000
496.0340, 6903.000
497.2170, 7192.000
498.4000, 7722.000
499.5820, 8254.000
500.7650, 8636.000
501.9480, 9211.000
503.1300, 9785.000
504.3120, 10420.00
505.4940, 10715.00
506.6760, 11185.00
507.8580, 11623.00
509.0390, 11711.00
510.2210, 11175.00
511.4020, 10161.00
512.5830, 9033.000
513.7640, 7982.000
514.9450, 7449.000
516.1250, 7139.000
517.3060, 6904.000
518.4860, 6787.000
519.6660, 6694.000
520.8460, 6624.000
522.0260, 6579.000
523.2060, 6521.000
524.3850, 6600.000
525.5650, 6735.000
526.7440, 6616.000
527.9230, 6658.000
529.1020, 6570.000
530.2810, 6632.000
531.4590, 6708.000
532.6380, 6510.000
533.8160, 6598.000
534.9940, 6533.000
536.1720, 6523.000
537.3500, 6433.000
538.5270, 6436.000
539.7050, 6337.000
540.8820, 6398.000
542.0590, 6389.000
543.2360, 6407.000
544.4130, 6382.000
545.5900, 6329.000
546.7660, 6448.000
547.9430, 6317.000
549.1190, 6423.000
550.2950, 6408.000
551.4710, 6405.000
552.6470, 6454.000
553.8220, 6456.000
554.9980, 6425.000
556.1730, 6405.000
557.3480, 6426.000
558.5230, 6434.000
559.6980, 6414.000
560.8730, 6382.000
562.0470, 6386.000
563.2220, 6427.000
564.3960, 6456.000
565.5700, 6399.000
566.7440, 6535.000
567.9170, 6562.000
569.0910, 6436.000
570.2640, 6465.000
571.4380, 6483.000
572.6110, 6559.000
573.7840, 6495.000
574.9570, 6447.000
576.1290, 6439.000
577.3020, 6417.000
578.4740, 6535.000
579.6460, 6466.000
580.8180, 6528.000
581.9900, 6412.000
583.1620, 6540.000
584.3330, 6494.000
585.5040, 6557.000
586.6760, 6598.000
587.8470, 6511.000
589.0180, 6619.000
590.1880, 6689.000
591.3590, 6597.000
592.5290, 6535.000
593.7000, 6631.000
594.8700, 6595.000
596.0400, 6660.000
597.2090, 6640.000
598.3790, 6554.000
599.5490, 6676.000
600.7180, 6654.000
601.8870, 6678.000
603.0560, 6780.000
604.2250, 6709.000
605.3940, 6679.000
606.5620, 6788.000
607.7300, 6648.000
608.8990, 6695.000
610.0670, 6763.000
611.2350, 6822.000
612.4020, 6774.000
613.5700, 6846.000
614.7370, 6802.000
615.9050, 6745.000
617.0720, 6836.000
618.2390, 6874.000
619.4060, 6971.000
620.5720, 7028.000
621.7390, 7117.000
622.9050, 7125.000
624.0710, 7179.741
625.2370, 7228.000
626.4030, 7255.000
627.5690, 7291.000
628.7340, 7357.000
629.9000, 7398.000
631.0650, 7475.347
632.2300, 7494.000
633.3950, 7603.000
634.5600, 7759.000
635.7240, 7762.000
636.8890, 7830.000
638.0530, 7886.000
639.2170, 8085.000
640.3810, 8309.000
641.5450, 8553.000
642.7080, 8720.000
643.8720, 9029.000
645.0350, 9290.000
646.1980, 9509.000
647.3610, 10046.00
648.5240, 10657.00
649.6870, 11265.00
650.8490, 12049.00
652.0120, 13137.00
653.1740, 14813.00
654.3360, 16675.00
655.4980, 18930.00
656.6600, 21975.00
657.8210, 25163.00
658.9830, 28763.00
660.1440, 32775.00
661.3050, 36304.00
662.4660, 39489.00
663.6270, 42818.00
664.7870, 44393.00
665.9480, 45433.00
667.1080, 44439.00
668.2680, 41893.00
669.4280, 37478.00
670.5880, 32649.00
671.7480, 27387.00
672.9070, 23273.00
674.0670, 19924.00
675.2260, 17018.00
676.3850, 15089.00
677.5440, 13657.00
678.7030, 12453.00
679.8610, 11688.00
681.0200, 10916.00
682.1780, 10263.00
683.3360, 9805.000
684.4940, 9478.000
685.6520, 9087.000
686.8090, 8901.000
687.9670, 8709.000
689.1240, 8540.000
690.2810, 8386.552
691.4380, 8200.000
692.5950, 8100.000
693.7520, 7964.000
694.9080, 7816.000
696.0650, 7769.000
697.2210, 7614.000
698.3770, 7739.000
699.5330, 7608.000
700.6880, 7579.000
701.8440, 7445.000
702.9990, 7483.000
704.1550, 7339.000
705.3100, 7460.000
706.4650, 7422.000
707.6190, 7376.000
708.7740, 7446.000
709.9290, 7285.000
711.0830, 7221.000
712.2370, 7214.000
713.3910, 7190.000
714.5450, 7252.000
715.6980, 7193.000
716.8520, 7255.000
718.0050, 7160.000
719.1580, 7267.000
720.3110, 7215.000
721.4640, 7185.000
722.6170, 7173.000
723.7700, 7197.000
724.9220, 7248.000
726.0740, 7107.000
727.2260, 7275.000
728.3780, 7329.000
729.5300, 7266.000
730.6810, 7128.000
731.8330, 7218.000
732.9840, 7241.000
734.1350, 7250.000
735.2860, 7280.555
736.4370, 7270.574
737.5880, 7280.000
738.7380, 7220.000
739.8880, 7196.000
741.0390, 7203.788
742.1890, 7230.000
743.3380, 7238.000
744.4880, 7229.000
745.6380, 7290.000
746.7870, 7250.350
747.9360, 7247.000
749.0850, 7252.000
750.2340, 7192.000
751.3830, 7293.000
752.5310, 7230.000
753.6800, 7270.000
754.8280, 7227.000
755.9760, 7197.000
757.1240, 7199.000
758.2720, 7228.000
759.4190, 7281.000
760.5670, 7263.000
761.7140, 7308.000
762.8610, 7185.000
764.0080, 7240.000
765.1550, 7199.000
766.3020, 7139.000
767.4480, 7261.000
768.5950, 7275.000
769.7410, 7217.000
770.8870, 7237.000
772.0330, 7262.000
773.1780, 7228.000
774.3240, 7363.000
775.4690, 7343.000
776.6140, 7401.000
777.7590, 7340.000
778.9040, 7397.000
780.0490, 7356.000
781.1940, 7321.000
782.3380, 7329.000
783.4820, 7363.000
784.6260, 7379.000
785.7700, 7373.112
786.9140, 7396.000
788.0580, 7343.000
789.2010, 7314.000
790.3450, 7271.000
791.4880, 7320.000
792.6310, 7334.000
793.7730, 7439.000
794.9160, 7395.000
796.0590, 7367.000
797.2010, 7459.000
798.3430, 7427.000
799.4850, 7327.000
800.6270, 7401.000
801.7690, 7348.000
802.9100, 7397.000
804.0520, 7410.000
805.1930, 7388.000
806.3340, 7432.000
807.4750, 7424.456
808.6160, 7511.000
809.7560, 7410.000
810.8970, 7445.000
812.0370, 7379.000
813.1770, 7383.000
814.3170, 7376.000
815.4570, 7343.000
816.5960, 7437.000
817.7360, 7475.000
818.8750, 7493.000
820.0140, 7553.000
821.1530, 7478.000
822.2920, 7563.000
823.4310, 7430.000
824.5690, 7516.000
825.7070, 7540.000
826.8460, 7503.000
827.9840, 7538.000
829.1220, 7561.000
830.2590, 7660.000
831.3970, 7519.000
832.5340, 7530.000
833.6710, 7600.000
834.8080, 7678.000
835.9450, 7620.000
837.0820, 7515.000
838.2190, 7542.000
839.3550, 7632.000
840.4910, 7693.000
841.6270, 7590.000
842.7630, 7612.000
843.8990, 7613.000
845.0350, 7628.000
846.1700, 7732.000
847.3060, 7770.000
848.4410, 7763.000
849.5760, 7749.000
850.7100, 7818.000
851.8450, 7898.000
852.9800, 7888.000
854.1140, 7983.000
855.2480, 7952.000
856.3820, 7923.000
857.5160, 7920.000
858.6500, 7909.000
859.7830, 7826.000
860.9170, 7779.000
862.0500, 7839.000
863.1830, 7806.000
864.3160, 7822.000
865.4480, 7746.000
866.5810, 7854.000
867.7130, 7858.000
868.8460, 7770.000
869.9780, 7838.000
871.1100, 7706.000
872.2410, 7868.000
873.3730, 7896.000
874.5050, 7896.000
875.6360, 7784.000
876.7670, 7762.000
877.8980, 7907.000
879.0290, 7864.000
880.1590, 7902.000
881.2900, 7847.000
882.4200, 7888.000
883.5500, 7855.000
884.6800, 7818.000
885.8100, 7857.000
886.9400, 7896.000
888.0690, 7929.000
889.1990, 7936.000
890.3280, 7963.000
891.4570, 8024.000
892.5860, 7988.781
893.7140, 8004.448
894.8430, 7951.000
895.9710, 7959.000
897.1000, 7964.000
898.2280, 7907.000
899.3560, 7865.000
900.4830, 7995.000
901.6110, 7964.000
902.7380, 8070.000
903.8660, 7946.000
904.9930, 8040.000
906.1200, 8057.000
907.2460, 7887.000
908.3730, 8011.000
909.5000, 8038.000
910.6260, 8027.000
911.7520, 7974.000
912.8780, 8016.484
914.0040, 8014.707
915.1290, 8067.000
916.2550, 8061.000
917.3800, 8102.000
918.5050, 8114.000
919.6300, 8204.000
920.7550, 7951.000
921.8800, 8222.000
923.0040, 8021.000
924.1290, 8196.000
925.2530, 8209.000
926.3770, 8097.000
927.5010, 8187.000
928.6250, 8152.000
929.7480, 8222.000
930.8720, 8161.000
931.9950, 8198.000
933.1180, 8215.000
934.2410, 8175.000
935.3640, 8263.000
936.4860, 8286.000
937.6090, 8180.000
938.7310, 8271.000
939.8530, 8201.000
940.9750, 8238.000
942.0970, 8209.000
943.2180, 8213.000
944.3400, 8220.000
945.4610, 8235.999
946.5820, 8327.000
947.7030, 8312.000
948.8240, 8308.000
949.9450, 8379.000
951.0650, 8330.000
952.1860, 8340.000
953.3060, 8422.000
954.4260, 8380.000
955.5460, 8395.000
956.6650, 8445.000
957.7850, 8440.000
958.9040, 8488.000
960.0230, 8516.203
961.1420, 8507.000
962.2610, 8592.000
963.3800, 8593.000
964.4990, 8646.169
965.6170, 8541.000
966.7350, 8679.000
967.8530, 8589.000
968.9710, 8614.000
970.0890, 8631.000
971.2070, 8745.000
972.3240, 8711.000
973.4410, 8847.000
974.5580, 8857.000
975.6750, 8849.000
976.7920, 8954.000
977.9090, 8945.000
979.0250, 8899.000
980.1410, 9103.000
981.2580, 9137.000
982.3740, 9101.000
983.4890, 9196.000
984.6050, 9213.000
985.7200, 9328.000
986.8360, 9306.000
987.9510, 9516.000
989.0660, 9706.000
990.1810, 9782.000
991.2950, 9826.000
992.4100, 10135.00
993.5240, 10248.00
994.6390, 10470.00
995.7530, 10797.00
996.8660, 11357.00
997.9800, 11872.00
999.0940, 12407.00
1000.207, 13395.00
1001.320, 14745.00
1002.433, 16367.00
1003.546, 18829.00
1004.659, 22317.00
1005.772, 27157.00
1006.884, 32919.00
1007.996, 38890.00
1009.108, 45215.00
1010.220, 50853.00
1011.332, 55193.00
1012.444, 58028.00
1013.555, 57517.00
1014.666, 53566.00
1015.777, 46435.00
1016.888, 37955.00
1017.999, 30275.00
1019.110, 24685.00
1020.220, 20387.00
1021.331, 17503.00
1022.441, 15634.00
1023.551, 14259.00
1024.661, 13253.00
1025.770, 12539.00
1026.880, 11868.00
1027.989, 11677.00
1029.098, 11308.00
1030.207, 11062.00
1031.316, 10785.00
1032.425, 10797.00
1033.533, 10583.00
1034.642, 10477.00
1035.750, 10522.00
1036.858, 10372.00
1037.966, 10327.00
1039.073, 10278.00
1040.181, 10336.00
1041.288, 10515.00
1042.396, 10513.00
1043.503, 10718.00
1044.610, 10849.00
1045.716, 10922.00
1046.823, 11083.00
1047.929, 10978.00
1049.036, 10937.00
1050.142, 10761.00
1051.248, 10450.00
1052.353, 10322.00
1053.459, 10114.00
1054.564, 9861.000
1055.670, 9735.000
1056.775, 9592.000
1057.880, 9587.000
1058.985, 9495.000
1060.089, 9481.000
1061.194, 9461.000
1062.298, 9477.000
1063.402, 9524.000
1064.506, 9386.000
1065.610, 9307.000
1066.713, 9362.000
1067.817, 9382.000
1068.920, 9443.000
1070.023, 9264.000
1071.126, 9385.000
1072.229, 9452.000
1073.332, 9258.000
1074.435, 9342.000
1075.537, 9419.000
1076.639, 9283.000
1077.741, 9305.000
1078.843, 9378.000
1079.945, 9375.000
1081.046, 9372.000
1082.148, 9290.000
1083.249, 9288.000
1084.350, 9317.000
1085.451, 9421.000
1086.551, 9403.332
1087.652, 9472.000
1088.752, 9420.000
1089.853, 9377.000
1090.953, 9354.000
1092.053, 9355.000
1093.152, 9399.000
1094.252, 9544.000
1095.351, 9379.000
1096.451, 9494.000
1097.550, 9422.000
1098.649, 9402.000
1099.748, 9435.000
1100.846, 9372.000
1101.945, 9425.000
1103.043, 9451.000
1104.141, 9323.000
1105.239, 9426.000
1106.337, 9476.000
1107.434, 9499.000
1108.532, 9380.000
1109.629, 9490.000
1110.726, 9451.000
1111.823, 9475.000
1112.920, 9591.000
1114.017, 9486.000
1115.113, 9455.000
1116.210, 9605.000
1117.306, 9625.000
1118.402, 9565.000
1119.498, 9591.000
1120.593, 9672.000
1121.689, 9781.000
1122.784, 9537.000
1123.879, 9666.000
1124.974, 9578.000
1126.069, 9660.000
1127.164, 9661.000
1128.259, 9445.000
1129.353, 9631.000
1130.447, 9708.000
1131.541, 9584.000
1132.635, 9647.000
1133.729, 9685.000
1134.822, 9696.000
1135.916, 9661.000
1137.009, 9646.000
1138.102, 9651.000
1139.195, 9679.000
1140.288, 9657.500
1141.380, 9687.698
1142.473, 9654.000
1143.565, 9737.000
1144.657, 9777.000
1145.749, 9824.000
1146.841, 9760.000
1147.932, 9816.000
1149.024, 9672.000
1150.115, 9789.000
1151.206, 9779.000
1152.297, 9888.000
1153.388, 9913.000
1154.479, 9727.000
1155.569, 9880.000
1156.659, 9898.000
1157.750, 9680.000
1158.839, 9870.000
1159.929, 9904.000
1161.019, 9790.000
1162.108, 9849.000
1163.198, 9967.000
1164.287, 9950.000
1165.376, 9811.000
1166.465, 9909.000
1167.553, 9841.000
1168.642, 9825.000
1169.730, 9859.000
1170.818, 9916.000
1171.906, 9928.000
1172.994, 9947.000
1174.082, 9873.000
1175.170, 9937.000
1176.257, 9890.000
1177.344, 10045.00
1178.431, 10019.00
1179.518, 10099.00
1180.605, 9837.000
1181.691, 10063.00
1182.778, 9886.000
1183.864, 10017.00
1184.950, 9843.000
1186.036, 10026.00
1187.122, 9981.000
1188.207, 10037.00
1189.292, 10020.00
1190.378, 10114.00
1191.463, 10117.00
1192.548, 10095.00
1193.632, 10086.00
1194.717, 10098.92
1195.801, 10044.00
1196.886, 10126.00
1197.970, 10160.00
1199.054, 10174.00
1200.137, 10159.00
1201.221, 10144.00
1202.305, 10235.00
1203.388, 10163.00
1204.471, 10115.00
1205.554, 10261.00
1206.637, 10255.00
1207.719, 10248.00
1208.802, 10320.00
1209.884, 10246.00
1210.966, 10238.00
1212.048, 10234.00
1213.130, 10309.00
1214.212, 10255.00
1215.293, 10270.00
1216.374, 10248.00
1217.456, 10255.00
1218.536, 10390.00
1219.617, 10299.00
1220.698, 10392.00
1221.778, 10296.00
1222.859, 10354.00
1223.939, 10370.00
1225.019, 10378.00
1226.099, 10452.00
1227.178, 10382.00
1228.258, 10341.00
1229.337, 10434.00
1230.417, 10469.00
1231.496, 10364.00
1232.574, 10423.00
1233.653, 10528.00
1234.732, 10421.00
1235.810, 10521.00
1236.888, 10466.00
1237.966, 10591.00
1239.044, 10721.00
1240.122, 10594.00
1241.199, 10650.00
1242.277, 10579.00
1243.354, 10556.51
1244.431, 10510.00
1245.508, 10541.00
1246.585, 10571.00
1247.661, 10613.00
1248.738, 10656.00
1249.814, 10719.00
1250.890, 10672.00
1251.966, 10735.00
1253.042, 10895.00
1254.117, 10765.00
1255.193, 10664.00
1256.268, 10842.00
1257.343, 10731.00
1258.418, 10837.00
1259.493, 10705.00
1260.567, 10832.00
1261.642, 10730.00
1262.716, 10875.00
1263.790, 10813.00
1264.864, 11001.00
1265.938, 10848.00
1267.011, 10813.00
1268.085, 10790.00
1269.158, 10831.00
1270.231, 10971.00
1271.304, 10987.00
1272.377, 10977.00
1273.450, 10880.00
1274.522, 11122.00
1275.594, 11001.00
1276.666, 11023.00
1277.738, 11002.00
1278.810, 10989.00
1279.882, 10875.00
1280.953, 11070.00
1282.025, 11056.00
1283.096, 11019.00
1284.167, 11173.00
1285.238, 11151.00
1286.308, 11197.00
1287.379, 11063.00
1288.449, 10973.00
1289.519, 11126.00
1290.589, 11177.00
1291.659, 11266.00
1292.729, 11240.00
1293.798, 11206.00
1294.868, 11134.00
1295.937, 11230.00
1297.006, 11289.00
1298.075, 11243.29
1299.143, 11185.00
1300.212, 11224.00
1301.280, 11210.00
1302.348, 11251.00
1303.416, 11261.00
1304.484, 11257.00
1305.552, 11205.00
1306.620, 11393.00
1307.687, 11337.00
1308.754, 11426.00
1309.821, 11287.00
1310.888, 11279.00
1311.955, 11297.00
1313.021, 11174.00
1314.088, 11533.00
1315.154, 11493.00
1316.220, 11468.00
1317.286, 11533.00
1318.352, 11547.00
1319.417, 11405.00
1320.483, 11542.00
1321.548, 11536.00
1322.613, 11440.00
1323.678, 11668.00
1324.743, 11533.00
1325.807, 11699.00
1326.872, 11594.00
1327.936, 11688.00
1329.000, 11702.00
1330.064, 11650.00
1331.128, 11657.00
1332.191, 11562.00
1333.255, 11661.00
1334.318, 11687.00
1335.381, 11650.00
1336.444, 11742.00
1337.507, 11763.00
1338.569, 11728.00
1339.632, 11834.00
1340.694, 11722.00
1341.756, 11835.00
1342.818, 11870.00
1343.880, 11981.00
1344.941, 11787.00
1346.003, 11749.00
1347.064, 11821.00
1348.125, 11931.00
1349.186, 11897.00
1350.247, 11842.00
1351.308, 11963.00
1352.368, 11930.00
1353.428, 11854.00
1354.489, 12005.00
1355.549, 11799.00
1356.608, 11925.00
1357.668, 12019.00
1358.727, 11891.00
1359.787, 11986.00
1360.846, 11903.00
1361.905, 11974.00
1362.964, 11928.00
1364.022, 11961.00
1365.081, 11884.00
1366.139, 12011.00
1367.197, 11982.00
1368.255, 11886.00
1369.313, 12036.00
1370.371, 11991.00
1371.428, 12012.00
1372.486, 12088.00
1373.543, 12021.00
1374.600, 12175.00
1375.657, 12121.00
1376.713, 12092.00
1377.770, 12018.00
1378.826, 12103.00
1379.882, 12063.00
1380.938, 12115.00
1381.994, 12141.35
1383.050, 12149.34
1384.106, 12225.00
1385.161, 12172.00
1386.216, 12270.00
1387.271, 12235.00
1388.326, 12178.00
1389.381, 12279.00
1390.435, 12244.00
1391.490, 12296.00
1392.544, 12150.00
1393.598, 12187.63
1394.652, 12364.00
1395.705, 12187.00
1396.759, 12208.00
1397.812, 12245.00
1398.866, 12180.00
1399.919, 12303.00
1400.972, 12237.00
1402.024, 12372.00
1403.077, 12330.00
1404.129, 12436.00
1405.181, 12364.00
1406.233, 12294.00
1407.285, 12346.00
1408.337, 12336.00
1409.389, 12366.00
1410.440, 12389.77
1411.491, 12398.60
1412.542, 12443.00
1413.593, 12423.00
1414.644, 12465.00
1415.695, 12458.00
1416.745, 12495.00
1417.795, 12504.00
1418.845, 12458.00
1419.895, 12483.00
1420.945, 12523.00
1421.995, 12527.00
1423.044, 12488.00
1424.093, 12480.00
1425.142, 12554.00
1426.191, 12609.00
1427.240, 12715.00
1428.289, 12673.00
1429.337, 12680.00
1430.385, 12562.00
1431.433, 12682.00
1432.481, 12627.00
1433.529, 12663.00
1434.577, 12728.00
1435.624, 12747.00
1436.672, 12685.00
1437.719, 12691.00
1438.766, 12685.00
1439.812, 12697.00
1440.859, 12727.29
1441.905, 12753.00
1442.952, 12768.00
1443.998, 12809.00
1445.044, 12756.00
1446.090, 12787.00
1447.135, 12904.00
1448.181, 12758.00
1449.226, 12967.00
1450.271, 12910.00
1451.316, 12785.00
1452.361, 12733.00
1453.405, 12871.00
1454.450, 12929.00
1455.494, 12853.00
1456.538, 12925.00
1457.582, 12812.00
1458.626, 12906.00
1459.670, 12806.00
1460.713, 12800.42
1461.757, 12947.00
1462.800, 12784.00
1463.843, 12805.00
1464.886, 12855.00
1465.928, 12952.00
1466.971, 12996.00
1468.013, 13056.00
1469.055, 13130.99
1470.097, 13129.00
1471.139, 13230.00
1472.181, 13157.00
1473.222, 13119.00
1474.263, 13036.00
1475.305, 13045.29
1476.346, 13139.00
1477.386, 13072.00
1478.427, 13160.00
1479.468, 13193.00
1480.508, 13231.00
1481.548, 13301.00
1482.588, 13235.00
1483.628, 13131.00
1484.668, 13183.00
1485.707, 13190.00
1486.747, 13269.00
1487.786, 13254.00
1488.825, 13329.00
1489.864, 13355.00
1490.902, 13287.00
1491.941, 13128.00
1492.979, 13360.00
1494.017, 13242.00
1495.055, 13337.00
1496.093, 13379.00
1497.131, 13294.00
1498.168, 13563.00
1499.206, 13432.00
1500.243, 13279.00
1501.280, 13350.00
1502.317, 13542.00
1503.354, 13514.00
1504.390, 13615.00
1505.426, 13496.00
1506.463, 13480.00
1507.499, 13534.00
1508.535, 13359.00
1509.570, 13472.00
1510.606, 13510.00
1511.641, 13584.00
1512.676, 13539.00
1513.711, 13720.00
1514.746, 13599.00
1515.781, 13466.00
1516.816, 13566.00
1517.850, 13816.00
1518.884, 13770.00
1519.918, 13671.00
1520.952, 13739.00
1521.986, 13643.00
1523.019, 13694.00
1524.053, 13694.00
1525.086, 13719.00
1526.119, 13757.00
1527.152, 13732.00
1528.185, 13666.00
1529.217, 13702.00
1530.250, 13708.00
1531.282, 13710.00
1532.314, 13829.00
1533.346, 13897.00
1534.377, 13669.00
1535.409, 13881.00
1536.440, 13776.00
1537.472, 13669.00
1538.503, 13735.00
1539.534, 13776.00
1540.564, 13820.00
1541.595, 13879.00
1542.625, 13811.00
1543.656, 13898.00
1544.686, 13902.00
1545.716, 13783.00
1546.745, 13930.00
1547.775, 14034.00
1548.804, 13925.00
1549.834, 13861.00
1550.863, 13916.00
1551.892, 14027.00
1552.920, 13979.00
1553.949, 14033.00
1554.977, 14081.00
1556.006, 14037.00
1557.034, 13944.00
1558.062, 13857.00
1559.089, 13965.00
1560.117, 14056.00
1561.144, 14037.00
1562.172, 13988.00
1563.199, 14196.00
1564.226, 14061.00
1565.252, 14090.00
1566.279, 14056.00
1567.305, 14187.00
1568.332, 14074.00
1569.358, 14294.00
1570.384, 14169.00
1571.409, 14198.00
1572.435, 14262.00
##END=



