##NAMES=Diopside
##RRUFFID=R070123
##IDEAL CHEMISTRY=CaMgSi_2_O_6_
##LOCALITY=Yates mine, Otter Lake, Huddersfield Township, Pontiac County, Québec, Canada
##OWNER=RRUFF
##SOURCE=Michael Scott
##DESCRIPTION=Black prismatic crystals associated with orange calcite
##STATUS=The identification of this mineral has been confirmed by X-ray diffraction and chemical analysis
##URL=rruff.info/R070123
##MEASURED CHEMISTRY=(Ca_0.95_Na_0.04_Mn_0.01_)_Σ=1_(Mg_0.63_Fe_0.33_Al_0.04_)_Σ=1_Si_2.00_O_6_
##PIN_ID=M01164
##ORIENTATION=Laser parallel to c* (0 0 1). Fiducial mark perpendicular to laser is parallel to a [1 0 0]
117.2950, 1522.000
118.5340, 1518.000
119.7720, 1431.000
121.0100, 1451.000
122.2470, 1418.000
123.4850, 1510.000
124.7220, 1507.546
125.9590, 1568.000
127.1960, 1586.000
128.4330, 1631.000
129.6700, 1711.000
130.9060, 1725.000
132.1430, 1854.000
133.3790, 1839.000
134.6150, 1865.000
135.8500, 1832.000
137.0860, 1897.000
138.3210, 1860.000
139.5560, 1928.000
140.7910, 1838.000
142.0260, 1815.000
143.2610, 1658.000
144.4950, 1652.000
145.7290, 1695.000
146.9630, 1678.000
148.1970, 1662.000
149.4310, 1682.000
150.6640, 1719.000
151.8980, 1769.000
153.1310, 1792.000
154.3640, 1777.000
155.5970, 1848.000
156.8290, 1858.000
158.0620, 1931.000
159.2940, 1980.501
160.5260, 1994.000
161.7580, 2087.000
162.9890, 2143.000
164.2210, 2178.000
165.4520, 2174.000
166.6830, 2145.000
167.9140, 2120.000
169.1450, 2146.000
170.3760, 2189.000
171.6060, 2254.000
172.8360, 2328.000
174.0660, 2377.000
175.2960, 2417.000
176.5260, 2521.000
177.7550, 2482.000
178.9840, 2522.000
180.2130, 2504.000
181.4420, 2459.000
182.6710, 2395.000
183.9000, 2333.000
185.1280, 2353.000
186.3560, 2325.000
187.5840, 2362.000
188.8120, 2333.000
190.0400, 2338.000
191.2670, 2301.000
192.4950, 2323.000
193.7220, 2325.000
194.9490, 2300.000
196.1750, 2283.000
197.4020, 2273.659
198.6280, 2234.000
199.8540, 2241.000
201.0800, 2257.000
202.3060, 2230.596
203.5320, 2197.418
204.7570, 2155.000
205.9830, 2101.000
207.2080, 2032.000
208.4330, 1999.000
209.6570, 2061.000
210.8820, 2088.000
212.1060, 2139.000
213.3310, 2134.000
214.5550, 2180.000
215.7780, 2199.000
217.0020, 2220.000
218.2260, 2263.000
219.4490, 2330.000
220.6720, 2414.000
221.8950, 2459.000
223.1180, 2521.000
224.3400, 2595.647
225.5630, 2676.553
226.7850, 2752.000
228.0070, 2848.000
229.2290, 2956.000
230.4500, 3009.000
231.6720, 3062.000
232.8930, 2977.000
234.1140, 2976.000
235.3350, 2938.000
236.5560, 2818.000
237.7770, 2762.000
238.9970, 2695.000
240.2170, 2632.000
241.4370, 2575.000
242.6570, 2581.000
243.8770, 2595.000
245.0960, 2605.000
246.3160, 2578.000
247.5350, 2684.000
248.7540, 2598.000
249.9730, 2621.000
251.1910, 2614.000
252.4100, 2570.000
253.6280, 2563.000
254.8460, 2546.000
256.0640, 2541.000
257.2810, 2506.000
258.4990, 2503.000
259.7160, 2472.355
260.9330, 2432.233
262.1500, 2399.000
263.3670, 2368.000
264.5840, 2295.000
265.8000, 2313.000
267.0170, 2256.000
268.2330, 2258.000
269.4490, 2201.000
270.6640, 2195.000
271.8800, 2152.000
273.0950, 2173.000
274.3100, 2163.000
275.5260, 2201.000
276.7400, 2295.000
277.9550, 2279.000
279.1690, 2325.000
280.3840, 2305.000
281.5980, 2330.000
282.8120, 2414.000
284.0260, 2449.811
285.2390, 2567.000
286.4530, 2609.000
287.6660, 2689.000
288.8790, 2793.000
290.0920, 2909.000
291.3040, 3067.000
292.5170, 3197.000
293.7290, 3334.000
294.9410, 3517.000
296.1530, 3594.000
297.3650, 3808.000
298.5770, 3988.000
299.7880, 4249.000
301.0000, 4414.000
302.2110, 4766.000
303.4220, 4984.000
304.6320, 5342.000
305.8430, 5809.000
307.0530, 6269.000
308.2630, 6901.000
309.4730, 7582.000
310.6830, 8405.000
311.8930, 9250.000
313.1030, 10225.00
314.3120, 11090.00
315.5210, 12228.00
316.7300, 13174.00
317.9390, 13915.00
319.1470, 14586.00
320.3560, 14880.00
321.5640, 14914.00
322.7720, 14425.00
323.9800, 14047.00
325.1880, 12995.00
326.3950, 11835.00
327.6030, 10974.00
328.8100, 9994.000
330.0170, 9024.000
331.2240, 8395.000
332.4300, 7678.000
333.6370, 7241.000
334.8430, 6760.000
336.0490, 6391.000
337.2550, 6162.000
338.4610, 5948.000
339.6660, 5834.000
340.8720, 5644.000
342.0770, 5768.000
343.2820, 5888.000
344.4870, 5859.000
345.6920, 6025.000
346.8960, 6185.000
348.1010, 6496.000
349.3050, 6779.000
350.5090, 6957.000
351.7130, 7255.000
352.9160, 7388.000
354.1200, 7380.000
355.3230, 7155.000
356.5260, 6939.000
357.7290, 6717.000
358.9320, 6433.000
360.1350, 6096.000
361.3370, 5909.000
362.5390, 5765.000
363.7410, 5590.000
364.9430, 5688.000
366.1450, 5632.000
367.3470, 5723.000
368.5480, 6038.000
369.7490, 6263.000
370.9500, 6676.000
372.1510, 7091.000
373.3520, 7803.000
374.5520, 8714.000
375.7530, 9590.000
376.9530, 10805.00
378.1530, 12198.00
379.3520, 13449.00
380.5520, 15196.00
381.7510, 16563.00
382.9510, 18264.00
384.1500, 19555.00
385.3490, 20611.00
386.5480, 21123.00
387.7460, 20488.00
388.9440, 19552.00
390.1430, 18118.00
391.3410, 16238.00
392.5390, 14054.00
393.7360, 12001.00
394.9340, 10246.00
396.1310, 8683.811
397.3280, 7274.000
398.5250, 6248.000
399.7220, 5409.000
400.9190, 4783.000
402.1150, 4279.000
403.3120, 3882.000
404.5080, 3531.000
405.7040, 3265.000
406.8990, 3046.000
408.0950, 2962.000
409.2900, 2843.000
410.4860, 2725.000
411.6810, 2593.000
412.8760, 2547.000
414.0700, 2506.000
415.2650, 2430.000
416.4590, 2308.000
417.6540, 2301.000
418.8480, 2225.000
420.0420, 2190.000
421.2350, 2130.000
422.4290, 2070.000
423.6220, 2069.000
424.8150, 1955.000
426.0080, 1922.000
427.2010, 1955.000
428.3940, 1888.000
429.5860, 1845.000
430.7790, 1866.000
431.9710, 1786.000
433.1630, 1798.000
434.3540, 1791.000
435.5460, 1785.000
436.7370, 1753.000
437.9290, 1810.000
439.1200, 1753.000
440.3110, 1708.000
441.5010, 1752.000
442.6920, 1801.000
443.8820, 1828.000
445.0730, 1818.000
446.2630, 1904.000
447.4530, 1836.000
448.6420, 1882.000
449.8320, 1903.000
451.0210, 2032.000
452.2100, 1961.000
453.3990, 2096.000
454.5880, 2027.000
455.7770, 2073.000
456.9660, 2116.000
458.1540, 2163.000
459.3420, 2089.000
460.5300, 2058.000
461.7180, 2038.000
462.9050, 2023.000
464.0930, 1969.000
465.2800, 1992.000
466.4670, 1919.000
467.6540, 1895.000
468.8410, 1902.000
470.0280, 1830.000
471.2140, 1832.000
472.4000, 1896.000
473.5870, 1825.000
474.7720, 1786.000
475.9580, 1864.000
477.1440, 1782.000
478.3290, 1769.000
479.5140, 1749.000
480.6990, 1749.000
481.8840, 1745.357
483.0690, 1740.000
484.2540, 1763.000
485.4380, 1759.000
486.6220, 1790.000
487.8060, 1766.000
488.9900, 1764.000
490.1740, 1774.000
491.3570, 1769.399
492.5410, 1772.845
493.7240, 1778.000
494.9070, 1780.000
496.0900, 1773.000
497.2720, 1786.000
498.4550, 1831.000
499.6370, 1851.000
500.8190, 1856.000
502.0010, 1867.000
503.1830, 1913.000
504.3650, 1997.000
505.5460, 2027.000
506.7280, 2099.000
507.9090, 2133.000
509.0900, 2112.000
510.2710, 2200.000
511.4510, 2266.000
512.6320, 2288.000
513.8120, 2405.000
514.9920, 2432.000
516.1720, 2543.000
517.3520, 2619.000
518.5310, 2725.742
519.7110, 2814.000
520.8900, 2985.000
522.0690, 3124.000
523.2480, 3291.000
524.4270, 3385.000
525.6050, 3420.000
526.7840, 3454.000
527.9620, 3571.000
529.1400, 3439.000
530.3180, 3353.000
531.4960, 3121.000
532.6730, 3042.000
533.8510, 2825.000
535.0280, 2652.000
536.2050, 2607.000
537.3820, 2477.000
538.5590, 2455.000
539.7350, 2410.000
540.9120, 2426.000
542.0880, 2415.000
543.2640, 2357.000
544.4400, 2471.000
545.6150, 2470.000
546.7910, 2556.000
547.9660, 2641.000
549.1410, 2796.000
550.3170, 2955.000
551.4910, 3017.000
552.6660, 3392.000
553.8410, 3601.000
555.0150, 3826.000
556.1890, 3971.000
557.3630, 3989.000
558.5370, 3904.000
559.7110, 3763.000
560.8840, 3573.000
562.0570, 3167.000
563.2310, 2887.000
564.4040, 2578.000
565.5760, 2473.000
566.7490, 2337.000
567.9220, 2141.000
569.0940, 2065.000
570.2660, 1987.000
571.4380, 1924.000
572.6100, 1813.000
573.7820, 1755.000
574.9530, 1780.000
576.1240, 1681.000
577.2960, 1638.000
578.4670, 1614.000
579.6370, 1551.000
580.8080, 1532.000
581.9790, 1448.000
583.1490, 1434.000
584.3190, 1370.000
585.4890, 1380.000
586.6590, 1375.000
587.8280, 1293.000
588.9980, 1311.000
590.1670, 1295.000
591.3360, 1258.000
592.5050, 1247.000
593.6740, 1263.000
594.8430, 1234.000
596.0110, 1216.000
597.1790, 1224.000
598.3480, 1192.000
599.5160, 1212.000
600.6830, 1229.000
601.8510, 1215.000
603.0180, 1218.000
604.1860, 1213.000
605.3530, 1211.000
606.5200, 1235.000
607.6870, 1278.000
608.8530, 1269.000
610.0200, 1259.000
611.1860, 1298.000
612.3520, 1296.000
613.5180, 1277.000
614.6840, 1317.000
615.8500, 1332.000
617.0150, 1326.000
618.1800, 1382.000
619.3450, 1411.000
620.5100, 1381.000
621.6750, 1432.000
622.8400, 1507.000
624.0040, 1490.000
625.1690, 1573.000
626.3330, 1550.000
627.4970, 1538.000
628.6610, 1669.000
629.8240, 1661.886
630.9880, 1754.000
632.1510, 1763.000
633.3140, 1842.000
634.4770, 1897.000
635.6400, 1926.000
636.8020, 2084.000
637.9650, 2047.000
639.1270, 2116.000
640.2890, 2228.000
641.4510, 2373.000
642.6130, 2525.000
643.7750, 2530.000
644.9360, 2841.000
646.0980, 2964.000
647.2590, 3303.000
648.4200, 3554.000
649.5810, 3897.000
650.7410, 4477.000
651.9020, 4915.000
653.0620, 5682.000
654.2220, 6739.000
655.3820, 7794.000
656.5420, 9113.000
657.7020, 10645.00
658.8610, 12375.00
660.0200, 14124.00
661.1800, 15965.00
662.3390, 17649.00
663.4970, 19071.00
664.6560, 19748.00
665.8150, 19477.00
666.9730, 18832.00
668.1310, 17253.00
669.2890, 15192.00
670.4470, 13206.00
671.6050, 11231.00
672.7620, 9506.000
673.9200, 7962.000
675.0770, 6767.000
676.2340, 5857.000
677.3910, 5126.000
678.5470, 4485.000
679.7040, 4047.000
680.8600, 3650.000
682.0160, 3307.000
683.1720, 3065.000
684.3280, 2828.000
685.4840, 2659.000
686.6390, 2525.000
687.7950, 2387.000
688.9500, 2233.000
690.1050, 2147.000
691.2600, 2051.000
692.4150, 1986.000
693.5690, 1904.000
694.7240, 1830.000
695.8780, 1811.000
697.0320, 1744.000
698.1860, 1731.000
699.3400, 1658.000
700.4930, 1643.000
701.6470, 1580.000
702.8000, 1589.000
703.9530, 1594.000
705.1060, 1526.000
706.2590, 1492.000
707.4110, 1449.000
708.5640, 1442.000
709.7160, 1470.000
710.8680, 1418.000
712.0200, 1414.052
713.1720, 1379.000
714.3230, 1363.000
715.4750, 1311.000
716.6260, 1285.000
717.7770, 1288.000
718.9280, 1267.000
720.0790, 1277.000
721.2300, 1276.000
722.3800, 1244.000
723.5300, 1231.000
724.6810, 1214.000
725.8300, 1225.000
726.9800, 1183.000
728.1300, 1239.000
729.2790, 1187.000
730.4290, 1202.000
731.5780, 1190.000
732.7270, 1185.000
733.8760, 1193.000
735.0240, 1169.000
736.1730, 1188.000
737.3210, 1203.000
738.4700, 1163.000
739.6180, 1181.000
740.7650, 1189.000
741.9130, 1187.000
743.0610, 1170.000
744.2080, 1193.000
745.3550, 1202.000
746.5020, 1158.000
747.6490, 1242.000
748.7960, 1194.000
749.9430, 1206.000
751.0890, 1178.000
752.2350, 1206.000
753.3810, 1254.000
754.5270, 1258.000
755.6730, 1256.000
756.8190, 1296.000
757.9640, 1279.000
759.1090, 1253.000
760.2540, 1271.000
761.3990, 1228.000
762.5440, 1314.000
763.6890, 1305.000
764.8330, 1297.000
765.9780, 1295.000
767.1220, 1273.000
768.2660, 1292.000
769.4100, 1310.000
770.5530, 1301.000
771.6970, 1288.000
772.8400, 1296.000
773.9830, 1291.410
775.1260, 1286.388
776.2690, 1298.000
777.4120, 1278.000
778.5540, 1281.000
779.6970, 1278.000
780.8390, 1294.000
781.9810, 1295.000
783.1230, 1295.190
784.2650, 1303.000
785.4060, 1304.000
786.5480, 1295.000
787.6890, 1322.000
788.8300, 1296.000
789.9710, 1287.000
791.1120, 1283.000
792.2520, 1247.000
793.3930, 1286.000
794.5330, 1267.000
795.6730, 1237.000
796.8130, 1223.000
797.9530, 1218.081
799.0930, 1227.000
800.2320, 1211.000
801.3710, 1222.000
802.5110, 1202.000
803.6500, 1222.000
804.7880, 1224.000
805.9270, 1264.000
807.0660, 1208.000
808.2040, 1224.000
809.3420, 1209.000
810.4800, 1258.000
811.6180, 1230.000
812.7560, 1255.000
813.8930, 1270.000
815.0310, 1271.000
816.1680, 1276.000
817.3050, 1297.000
818.4420, 1298.220
819.5790, 1292.000
820.7150, 1318.000
821.8520, 1326.000
822.9880, 1344.000
824.1240, 1342.637
825.2600, 1345.000
826.3960, 1328.000
827.5320, 1322.000
828.6670, 1304.000
829.8020, 1307.000
830.9380, 1309.000
832.0730, 1302.000
833.2080, 1300.813
834.3420, 1299.000
835.4770, 1286.000
836.6110, 1300.000
837.7450, 1285.000
838.8790, 1310.000
840.0130, 1305.000
841.1470, 1337.000
842.2810, 1347.000
843.4140, 1384.000
844.5470, 1441.000
845.6800, 1483.387
846.8130, 1543.000
847.9460, 1612.000
849.0790, 1695.000
850.2110, 1782.000
851.3440, 1903.000
852.4760, 2018.000
853.6080, 2129.000
854.7400, 2206.000
855.8710, 2209.000
857.0030, 2187.000
858.1340, 2175.000
859.2650, 2159.000
860.3960, 2127.000
861.5270, 2030.000
862.6580, 2074.000
863.7890, 2017.000
864.9190, 1986.000
866.0490, 1997.000
867.1790, 2029.000
868.3090, 2013.502
869.4390, 1984.000
870.5690, 2029.000
871.6980, 2015.000
872.8270, 2042.000
873.9570, 2070.000
875.0860, 2085.000
876.2140, 2126.267
877.3430, 2161.902
878.4720, 2205.000
879.6000, 2241.000
880.7280, 2284.000
881.8560, 2306.000
882.9840, 2343.000
884.1120, 2359.000
885.2390, 2425.000
886.3670, 2421.000
887.4940, 2413.000
888.6210, 2472.000
889.7480, 2503.000
890.8750, 2482.000
892.0020, 2489.000
893.1280, 2464.000
894.2540, 2503.000
895.3810, 2481.000
896.5070, 2444.000
897.6320, 2516.000
898.7580, 2471.000
899.8840, 2393.000
901.0090, 2499.000
902.1340, 2467.000
903.2590, 2450.000
904.3840, 2419.000
905.5090, 2395.000
906.6340, 2373.000
907.7580, 2355.154
908.8820, 2347.000
910.0060, 2320.000
911.1300, 2317.000
912.2540, 2285.000
913.3780, 2263.352
914.5010, 2243.885
915.6250, 2213.000
916.7480, 2192.000
917.8710, 2174.000
918.9940, 2139.000
920.1160, 2118.000
921.2390, 2096.502
922.3610, 2106.000
923.4840, 2064.000
924.6060, 2044.000
925.7280, 2045.000
926.8490, 2001.000
927.9710, 2073.000
929.0930, 2015.000
930.2140, 2032.000
931.3350, 1986.000
932.4560, 2029.000
933.5770, 1957.000
934.6980, 1952.000
935.8180, 1943.000
936.9380, 1892.000
938.0590, 1851.000
939.1790, 1887.000
940.2990, 1868.000
941.4180, 1871.000
942.5380, 1896.000
943.6570, 1842.000
944.7770, 1864.000
945.8960, 1868.000
947.0150, 1891.000
948.1340, 1942.000
949.2520, 2036.000
950.3710, 2008.000
951.4890, 2111.000
952.6070, 2150.000
953.7260, 2221.000
954.8430, 2249.000
955.9610, 2326.000
957.0790, 2437.000
958.1960, 2437.000
959.3130, 2456.000
960.4310, 2555.000
961.5480, 2591.000
962.6640, 2608.000
963.7810, 2679.000
964.8970, 2706.000
966.0140, 2811.000
967.1300, 2797.000
968.2460, 2877.000
969.3620, 2929.000
970.4780, 2958.000
971.5930, 3044.000
972.7090, 3062.000
973.8240, 3128.000
974.9390, 3217.000
976.0540, 3312.000
977.1690, 3393.000
978.2830, 3490.000
979.3980, 3555.000
980.5120, 3663.000
981.6260, 3792.000
982.7400, 3846.000
983.8540, 3966.000
984.9680, 4028.000
986.0820, 4244.000
987.1950, 4395.000
988.3080, 4492.000
989.4210, 4744.000
990.5340, 5042.000
991.6470, 5285.000
992.7600, 5779.000
993.8720, 6168.000
994.9850, 6859.000
996.0970, 7468.000
997.2090, 8388.000
998.3210, 9313.000
999.4320, 10528.00
1000.544, 12064.00
1001.655, 14074.00
1002.767, 16607.00
1003.878, 19756.48
1004.989, 23458.00
1006.100, 27782.00
1007.210, 32675.00
1008.321, 38367.00
1009.431, 43798.00
1010.541, 48936.00
1011.651, 51587.00
1012.761, 52508.00
1013.871, 50577.00
1014.980, 45981.00
1016.090, 39222.00
1017.199, 32957.00
1018.308, 26337.00
1019.417, 21172.00
1020.526, 17332.00
1021.635, 14231.00
1022.743, 12160.00
1023.852, 10481.00
1024.960, 9233.000
1026.068, 8288.000
1027.176, 7786.000
1028.283, 7100.000
1029.391, 6685.000
1030.498, 6427.000
1031.606, 6184.000
1032.713, 6082.000
1033.820, 6001.000
1034.927, 5963.000
1036.033, 5887.000
1037.140, 5877.000
1038.246, 5873.000
1039.353, 5960.000
1040.459, 5944.000
1041.564, 6003.000
1042.670, 5830.000
1043.776, 5721.000
1044.881, 5494.000
1045.987, 5245.000
1047.092, 5018.000
1048.197, 4707.000
1049.302, 4424.000
1050.406, 4198.915
1051.511, 3863.000
1052.615, 3732.000
1053.720, 3528.000
1054.824, 3290.000
1055.928, 3180.000
1057.031, 3024.000
1058.135, 2954.000
1059.238, 2894.000
1060.342, 2802.000
1061.445, 2694.000
1062.548, 2614.000
1063.651, 2528.000
1064.754, 2520.000
1065.856, 2438.000
1066.959, 2357.000
1068.061, 2237.000
1069.163, 2241.000
1070.265, 2194.000
1071.367, 2161.000
1072.469, 2124.000
1073.570, 2078.291
1074.671, 2022.000
1075.773, 1978.000
1076.874, 1992.000
1077.975, 1921.000
1079.075, 1952.000
1080.176, 1913.000
1081.276, 1900.000
1082.377, 1904.000
1083.477, 1896.000
1084.577, 1854.000
1085.677, 1835.000
1086.777, 1812.000
1087.876, 1791.000
1088.975, 1793.000
1090.075, 1785.000
1091.174, 1810.000
1092.273, 1729.000
1093.372, 1710.000
1094.470, 1693.000
1095.569, 1750.000
1096.667, 1697.000
1097.765, 1692.000
1098.863, 1676.000
1099.961, 1630.000
1101.059, 1654.000
1102.157, 1651.000
1103.254, 1685.000
1104.351, 1696.000
1105.449, 1665.000
1106.546, 1654.000
1107.642, 1612.000
1108.739, 1597.000
1109.836, 1638.000
1110.932, 1623.000
1112.028, 1645.000
1113.124, 1667.000
1114.220, 1621.000
1115.316, 1609.000
1116.412, 1605.000
1117.507, 1619.000
1118.603, 1619.000
1119.698, 1592.000
1120.793, 1634.000
1121.888, 1632.000
1122.983, 1605.000
1124.077, 1599.000
1125.172, 1618.000
1126.266, 1590.000
1127.360, 1649.000
1128.454, 1587.000
1129.548, 1572.000
1130.642, 1606.000
1131.735, 1574.000
1132.829, 1548.000
1133.922, 1533.000
1135.015, 1489.000
1136.108, 1515.000
1137.201, 1462.000
1138.294, 1436.000
1139.386, 1456.000
1140.478, 1376.000
1141.571, 1399.000
1142.663, 1364.000
1143.755, 1314.000
1144.846, 1261.000
1145.938, 1234.632
1147.030, 1209.000
1148.121, 1176.000
1149.212, 1189.000
1150.303, 1164.000
1151.394, 1175.000
1152.485, 1129.000
1153.575, 1087.000
1154.666, 1066.000
1155.756, 1098.000
1156.846, 1073.000
1157.936, 1023.000
1159.026, 1053.000
1160.116, 1020.000
1161.205, 1001.000
1162.295, 1050.000
1163.384, 1035.000
1164.473, 1007.000
1165.562, 972.0000
1166.651, 1005.000
1167.739, 1007.000
1168.828, 976.0000
1169.916, 983.0000
1171.005, 988.0000
1172.093, 963.0000
1173.181, 965.0000
1174.268, 958.0000
1175.356, 968.0000
1176.443, 980.0000
1177.531, 966.0000
1178.618, 985.0000
1179.705, 977.0000
1180.792, 968.0000
1181.879, 953.0000
1182.965, 961.0000
1184.052, 954.0000
1185.138, 952.0000
1186.224, 954.0000
1187.310, 974.0000
1188.396, 951.0000
1189.482, 955.0000
1190.567, 960.0000
1191.653, 939.0000
1192.738, 925.0000
1193.823, 951.0000
1194.908, 937.0000
1195.993, 927.0000
1197.077, 935.0000
1198.162, 921.0000
1199.246, 932.0000
1200.331, 945.0000
1201.415, 933.0000
1202.499, 945.6644
1203.582, 940.0000
1204.666, 955.0000
1205.750, 931.0000
1206.833, 936.0000
1207.916, 935.0000
1208.999, 931.0000
1210.082, 937.0000
1211.165, 947.0000
1212.248, 935.0000
1213.330, 926.0000
1214.412, 945.0000
1215.495, 927.0000
1216.577, 916.0000
1217.658, 966.0000
1218.740, 912.0000
1219.822, 936.0000
1220.903, 910.0000
1221.985, 932.0000
1223.066, 939.0000
1224.147, 925.0000
1225.228, 912.0000
1226.308, 898.0000
1227.389, 911.0000
1228.469, 912.0000
1229.550, 906.0000
1230.630, 942.0000
1231.710, 930.0000
1232.790, 919.0000
1233.869, 948.0000
1234.949, 974.0000
1236.028, 940.0000
1237.108, 949.0000
1238.187, 940.0000
1239.266, 933.0000
1240.344, 933.0000
1241.423, 924.0000
1242.502, 971.0000
1243.580, 985.0000
1244.658, 964.0000
1245.736, 941.0000
1246.814, 966.0000
1247.892, 961.0000
1248.970, 937.0000
1250.047, 939.0000
1251.125, 926.0000
1252.202, 976.0000
1253.279, 961.0000
1254.356, 957.0000
1255.433, 969.0000
1256.509, 943.0000
1257.586, 955.0000
1258.662, 940.0000
1259.738, 935.1058
1260.814, 945.0000
1261.890, 926.0000
1262.966, 950.0000
1264.042, 947.0000
1265.117, 939.0000
1266.193, 950.0000
1267.268, 969.0000
1268.343, 965.0000
1269.418, 938.0000
1270.492, 958.0000
1271.567, 979.0000
1272.642, 924.0000
1273.716, 942.0000
1274.790, 943.0000
1275.864, 959.0000
1276.938, 946.0000
1278.012, 938.0000
1279.085, 934.0000
1280.159, 919.0000
1281.232, 918.0000
1282.305, 961.0000
1283.378, 918.0000
1284.451, 937.0000
1285.524, 913.0000
1286.597, 950.0000
1287.669, 966.0000
1288.741, 914.0000
1289.813, 939.0000
1290.885, 945.0000
1291.957, 932.0000
1293.029, 951.0000
1294.101, 928.0000
1295.172, 926.0000
1296.243, 943.0000
1297.315, 938.0000
1298.386, 929.0000
1299.456, 940.0000
1300.527, 967.0000
1301.598, 905.0000
1302.668, 949.0000
1303.738, 920.0000
1304.809, 975.0000
1305.879, 961.0000
1306.948, 956.0000
1308.018, 923.0000
1309.088, 905.0000
1310.157, 948.0000
1311.226, 930.0000
1312.296, 943.0000
1313.365, 969.0000
1314.433, 916.0000
1315.502, 950.0000
1316.571, 927.0000
1317.639, 949.0000
1318.707, 964.0000
1319.776, 946.0000
1320.844, 945.0000
1321.911, 928.0000
1322.979, 926.0000
1324.047, 947.0000
1325.114, 920.0000
1326.181, 964.0000
1327.249, 955.0000
1328.316, 976.0000
1329.382, 963.0000
1330.449, 964.0000
1331.516, 950.0000
1332.582, 956.0000
1333.648, 980.0000
1334.715, 981.0000
1335.781, 971.0000
1336.846, 998.0000
1337.912, 942.0000
1338.978, 981.0000
1340.043, 971.0000
1341.108, 1000.000
1342.174, 1001.000
1343.239, 951.0000
1344.303, 933.0000
1345.368, 1005.000
1346.433, 986.0000
1347.497, 1015.000
1348.561, 953.0000
1349.626, 987.0000
1350.690, 956.0000
1351.753, 936.0000
1352.817, 992.0000
1353.881, 931.0000
1354.944, 960.0000
1356.007, 974.0000
1357.071, 974.0000
1358.134, 987.0000
1359.196, 988.0000
1360.259, 992.3920
1361.322, 983.0000
1362.384, 985.0000
1363.447, 967.0000
1364.509, 932.0000
1365.571, 983.0000
1366.633, 925.0000
1367.694, 930.0000
1368.756, 976.0000
1369.817, 938.0000
1370.879, 945.0000
1371.940, 956.0000
1373.001, 981.0000
1374.062, 938.0000
1375.122, 935.0000
1376.183, 924.0000
1377.244, 957.0000
1378.304, 976.0000
1379.364, 978.0000
1380.424, 963.0000
1381.484, 938.0000
1382.544, 961.0000
1383.603, 944.0000
1384.663, 927.0000
1385.722, 942.0000
1386.781, 948.0000
1387.840, 938.0000
1388.899, 933.0000
1389.958, 937.0000
1391.017, 907.0000
1392.075, 960.0000
1393.134, 952.0000
1394.192, 948.0000
1395.250, 919.0000
1396.308, 948.0000
1397.365, 930.0000
1398.423, 964.0000
1399.481, 929.0000
1400.538, 913.0000
1401.595, 956.0000
1402.652, 935.0000
1403.709, 923.0000
1404.766, 954.0000
1405.823, 924.0000
1406.879, 905.0000
1407.936, 909.0000
1408.992, 909.0000
1410.048, 893.0000
1411.104, 888.0000
1412.160, 917.0000
1413.215, 916.0000
1414.271, 909.0000
1415.326, 895.0000
1416.382, 886.0000
1417.437, 886.1108
1418.492, 886.0700
1419.546, 894.0000
1420.601, 898.0000
1421.656, 913.0000
1422.710, 919.0000
1423.764, 915.0000
1424.819, 901.0000
1425.873, 894.0000
1426.926, 901.0000
1427.980, 941.0000
1429.034, 932.0000
1430.087, 866.0000
1431.140, 913.0000
1432.194, 918.0000
1433.247, 878.0000
1434.299, 916.0000
1435.352, 898.0000
1436.405, 901.0000
1437.457, 903.0000
1438.510, 917.0000
1439.562, 909.0000
1440.614, 904.0000
1441.666, 885.0000
1442.717, 899.0000
1443.769, 888.0000
1444.821, 895.0000
1445.872, 912.0000
1446.923, 883.0000
1447.974, 892.0000
1449.025, 878.0000
1450.076, 860.0000
1451.127, 886.0000
1452.177, 877.0000
1453.227, 907.0000
1454.278, 905.0000
1455.328, 891.0000
1456.378, 883.0000
1457.428, 908.0000
1458.477, 870.0000
1459.527, 873.0000
1460.576, 896.0000
1461.625, 896.0000
1462.675, 864.0000
1463.724, 908.0000
1464.772, 887.0000
1465.821, 912.0000
1466.870, 909.0000
1467.918, 904.0000
1468.966, 904.9266
1470.015, 875.0000
1471.063, 887.0000
1472.110, 882.0000
1473.158, 872.0000
1474.206, 908.0000
1475.253, 886.0000
1476.301, 891.0000
1477.348, 907.0000
1478.395, 877.0000
1479.442, 921.0000
1480.488, 861.0000
1481.535, 910.0000
1482.582, 925.0000
1483.628, 904.0000
1484.674, 869.0000
1485.720, 885.0000
1486.766, 866.0000
1487.812, 889.0000
1488.858, 898.0000
1489.903, 874.0000
1490.949, 898.0000
1491.994, 907.0000
1493.039, 879.0000
1494.084, 890.0000
1495.129, 847.0000
1496.173, 876.0000
1497.218, 881.0000
1498.262, 877.0000
1499.307, 892.0000
1500.351, 879.0000
1501.395, 864.0000
1502.439, 886.0000
1503.483, 882.0000
1504.526, 889.0000
1505.570, 905.0000
1506.613, 889.0000
1507.656, 899.0000
1508.699, 904.0000
1509.742, 867.0000
1510.785, 890.0000
1511.827, 886.0000
1512.870, 905.0000
1513.912, 872.0000
1514.955, 880.0000
1515.997, 856.0000
1517.039, 924.0000
1518.080, 902.0000
1519.122, 911.0000
1520.164, 865.0000
1521.205, 895.0000
1522.246, 872.0000
1523.288, 878.0000
1524.329, 887.0000
1525.369, 868.0000
1526.410, 864.0000
1527.451, 873.0000
1528.491, 872.0000
1529.531, 890.0000
1530.572, 886.0000
1531.612, 890.0000
1532.652, 869.0000
1533.691, 874.0000
1534.731, 895.0000
1535.770, 861.0000
1536.810, 908.0000
1537.849, 900.0000
1538.888, 880.0000
1539.927, 863.0000
1540.966, 872.0000
1542.005, 872.0000
1543.043, 857.0000
1544.082, 878.0000
1545.120, 887.0000
1546.158, 873.0000
1547.196, 874.0000
1548.234, 895.0000
1549.272, 873.0000
1550.309, 918.0000
1551.347, 891.0000
1552.384, 915.0000
1553.421, 883.0000
1554.458, 968.0000
1555.495, 952.0000
1556.532, 947.0000
1557.568, 921.0000
1558.605, 882.0000
1559.641, 851.0000
1560.678, 893.0000
1561.714, 864.0000
1562.750, 876.0000
1563.785, 906.0000
1564.821, 928.0000
##END=



