##NAMES=Diopside
##RRUFFID=R060861
##IDEAL CHEMISTRY=CaMgSi_2_O_6_
##LOCALITY=Red Mountain Volcano, NW of Flagstaff, Arizona, USA
##OWNER=RRUFF
##SOURCE=Jennifer Sano
##DESCRIPTION=Worn brown fragment
##STATUS=The identification of this mineral has been confirmed by X-ray diffraction and chemical analysis
##URL=rruff.info/R060861
##MEASURED CHEMISTRY=(Ca_0.72_Fe^2+^_0.23_Na_0.05_)_Σ=1_(Mg_0.80_Al_0.15_Ti_0.03_Fe^3+^_0.02_)_Σ=1_(Si_1.82_Al_0.18_)_Σ=2_O_6_
##PIN_ID=M01599
##ORIENTATION=Laser parallel to (1 0 1). Fiducial mark perpendicular to laser is parallel to b [0 1 0]
209.1530, 12161.00
210.3800, 12397.00
211.6080, 12652.00
212.8350, 12674.00
214.0620, 12770.00
215.2880, 12947.00
216.5150, 12969.00
217.7410, 13215.00
218.9680, 13500.00
220.1940, 13704.00
221.4190, 13838.00
222.6450, 13994.30
223.8700, 14079.59
225.0960, 14150.00
226.3210, 14173.00
227.5450, 14161.00
228.7700, 14127.00
229.9940, 14072.00
231.2190, 14013.56
232.4430, 13790.00
233.6660, 13806.00
234.8900, 13718.00
236.1140, 13497.00
237.3370, 13483.00
238.5600, 13364.00
239.7830, 13365.00
241.0050, 13202.00
242.2280, 13273.00
243.4500, 13272.00
244.6720, 13383.00
245.8940, 13382.00
247.1160, 13284.00
248.3370, 13465.00
249.5580, 13516.00
250.7790, 13365.00
252.0000, 13467.00
253.2210, 13461.00
254.4410, 13549.00
255.6620, 13491.00
256.8820, 13447.00
258.1020, 13771.00
259.3210, 13601.59
260.5410, 13504.45
261.7600, 13540.00
262.9790, 13074.00
264.1980, 13066.00
265.4170, 12847.00
266.6360, 12704.00
267.8540, 12801.00
269.0720, 12734.00
270.2900, 12698.00
271.5080, 12731.00
272.7260, 12757.00
273.9430, 12700.00
275.1600, 12785.00
276.3770, 12867.89
277.5940, 12894.95
278.8100, 13122.00
280.0270, 13084.00
281.2430, 13204.00
282.4590, 13424.00
283.6750, 13504.00
284.8910, 13743.00
286.1060, 13944.00
287.3210, 14256.00
288.5360, 14442.00
289.7510, 14813.00
290.9660, 15023.00
292.1800, 15282.00
293.3950, 15488.00
294.6090, 15865.00
295.8230, 16257.00
297.0360, 16402.00
298.2500, 16951.00
299.4630, 17079.00
300.6760, 17478.00
301.8890, 18044.00
303.1020, 18059.00
304.3150, 18590.00
305.5270, 18815.00
306.7390, 19370.00
307.9510, 19738.00
309.1630, 20275.94
310.3750, 20929.00
311.5860, 21491.00
312.7970, 22115.00
314.0080, 22859.00
315.2190, 23489.00
316.4300, 24446.00
317.6400, 25185.00
318.8510, 26031.00
320.0610, 26960.00
321.2710, 27543.00
322.4800, 28472.00
323.6900, 29316.00
324.8990, 30048.00
326.1080, 30918.00
327.3170, 31323.00
328.5260, 31958.00
329.7340, 32663.00
330.9430, 32995.00
332.1510, 33116.00
333.3590, 33130.00
334.5670, 33316.00
335.7740, 33282.00
336.9820, 32907.00
338.1890, 32841.00
339.3960, 32629.00
340.6030, 32197.00
341.8100, 31843.00
343.0160, 31555.00
344.2220, 31019.00
345.4280, 30700.00
346.6340, 30673.00
347.8400, 30140.00
349.0460, 29978.00
350.2510, 29637.00
351.4560, 29301.00
352.6610, 29314.00
353.8660, 29260.00
355.0700, 29013.00
356.2750, 29066.00
357.4790, 28731.00
358.6830, 28804.00
359.8870, 28626.00
361.0910, 28239.00
362.2940, 28375.00
363.4970, 27579.00
364.7000, 27585.00
365.9030, 27263.00
367.1060, 26776.00
368.3080, 26751.00
369.5110, 26266.00
370.7130, 26249.00
371.9150, 25748.00
373.1170, 25805.00
374.3180, 25497.00
375.5200, 25671.00
376.7210, 25580.00
377.9220, 25744.00
379.1230, 25752.00
380.3230, 26161.00
381.5240, 26371.00
382.7240, 26803.00
383.9240, 27128.00
385.1240, 27552.00
386.3240, 28246.00
387.5230, 29033.00
388.7230, 29548.00
389.9220, 30184.00
391.1210, 30750.00
392.3200, 30880.00
393.5180, 31178.00
394.7170, 31242.00
395.9150, 31037.00
397.1130, 30639.49
398.3110, 29995.00
399.5080, 29171.00
400.7060, 28181.00
401.9030, 26985.00
403.1000, 25614.00
404.2970, 24308.00
405.4940, 23219.00
406.6910, 21579.00
407.8870, 20537.00
409.0830, 19237.00
410.2790, 18227.00
411.4750, 17227.00
412.6710, 16362.54
413.8660, 15758.00
415.0610, 14986.00
416.2560, 14518.00
417.4510, 14099.00
418.6460, 13641.00
419.8410, 13382.00
421.0350, 13158.00
422.2290, 12750.00
423.4230, 12590.00
424.6170, 12483.00
425.8100, 12129.00
427.0040, 12122.00
428.1970, 11789.00
429.3900, 11628.00
430.5830, 11579.00
431.7760, 11548.00
432.9680, 11400.00
434.1610, 11384.00
435.3530, 11339.00
436.5450, 11230.00
437.7360, 11147.00
438.9280, 10968.00
440.1190, 11089.00
441.3110, 10930.00
442.5020, 10925.00
443.6930, 10733.00
444.8830, 10837.00
446.0740, 10773.00
447.2640, 10771.00
448.4540, 10730.00
449.6440, 10736.57
450.8340, 10759.71
452.0240, 10782.00
453.2130, 10814.00
454.4020, 10876.00
455.5910, 10868.00
456.7800, 10873.00
457.9690, 10891.00
459.1570, 10982.60
460.3460, 11032.65
461.5340, 11176.00
462.7220, 11200.00
463.9090, 11225.00
465.0970, 11295.00
466.2840, 11315.00
467.4720, 11274.00
468.6590, 11335.00
469.8460, 11466.00
471.0320, 11452.00
472.2190, 11432.00
473.4050, 11244.00
474.5910, 11391.00
475.7770, 11248.00
476.9630, 11430.00
478.1490, 11258.00
479.3340, 11175.00
480.5190, 11211.00
481.7040, 11135.00
482.8890, 11168.00
484.0740, 11229.00
485.2580, 11158.84
486.4430, 11209.00
487.6270, 11098.00
488.8110, 11077.00
489.9950, 11074.00
491.1780, 11165.00
492.3620, 11142.00
493.5450, 11153.00
494.7280, 11057.00
495.9110, 10956.00
497.0940, 11040.00
498.2760, 11066.00
499.4590, 10976.00
500.6410, 11087.00
501.8230, 11159.00
503.0050, 11131.00
504.1860, 11100.00
505.3680, 11266.00
506.5490, 11249.00
507.7300, 11422.00
508.9110, 11536.00
510.0920, 11539.00
511.2730, 11669.00
512.4530, 11833.00
513.6330, 11877.00
514.8130, 12099.00
515.9930, 12206.00
517.1730, 12210.00
518.3520, 12312.00
519.5320, 12533.00
520.7110, 12534.00
521.8900, 12820.00
523.0690, 12920.00
524.2470, 13025.00
525.4260, 13155.00
526.6040, 13345.00
527.7820, 13288.00
528.9600, 13645.00
530.1380, 13574.00
531.3150, 13807.00
532.4930, 13931.00
533.6700, 14001.00
534.8470, 14041.00
536.0240, 14184.00
537.2000, 14182.00
538.3770, 14135.00
539.5530, 14156.00
540.7290, 14246.00
541.9050, 14183.00
543.0810, 14141.00
544.2570, 14219.00
545.4320, 14142.88
546.6080, 13991.00
547.7830, 14035.00
548.9580, 14085.00
550.1320, 13931.00
551.3070, 13980.00
552.4810, 13758.00
553.6550, 13872.00
554.8300, 13980.00
556.0030, 13902.00
557.1770, 13767.00
558.3510, 13681.00
559.5240, 13685.00
560.6970, 13491.00
561.8700, 13380.00
563.0430, 13140.00
564.2160, 12873.00
565.3880, 12669.00
566.5600, 12476.00
567.7320, 12161.00
568.9040, 11950.00
570.0760, 11621.00
571.2480, 11339.00
572.4190, 11305.00
573.5900, 11163.00
574.7610, 10882.00
575.9320, 10775.00
577.1030, 10475.00
578.2740, 10354.00
579.4440, 10171.00
580.6140, 9942.000
581.7840, 9864.000
582.9540, 9440.000
584.1240, 9242.000
585.2930, 9166.000
586.4630, 8890.000
587.6320, 8704.000
588.8010, 8458.000
589.9700, 8422.000
591.1380, 8240.000
592.3070, 8075.000
593.4750, 7917.000
594.6430, 7766.000
595.8110, 7655.000
596.9790, 7471.000
598.1460, 7300.000
599.3140, 7262.000
600.4810, 7254.000
601.6480, 7191.000
602.8150, 7057.000
603.9820, 6980.000
605.1480, 6985.536
606.3150, 7012.000
607.4810, 7073.000
608.6470, 7121.000
609.8130, 7266.000
610.9790, 7286.000
612.1440, 7198.000
613.3100, 7389.000
614.4750, 7433.000
615.6400, 7551.000
616.8050, 7634.000
617.9690, 7725.765
619.1340, 7781.000
620.2980, 7924.000
621.4620, 7981.000
622.6260, 8072.000
623.7900, 8212.000
624.9540, 8390.000
626.1170, 8553.000
627.2810, 8605.000
628.4440, 8905.000
629.6070, 9080.000
630.7690, 9394.000
631.9320, 9478.000
633.0950, 9951.000
634.2570, 10168.00
635.4190, 10592.00
636.5810, 10998.00
637.7430, 11448.00
638.9040, 11941.00
640.0660, 12358.00
641.2270, 12842.00
642.3880, 13755.00
643.5490, 14396.00
644.7100, 15333.00
645.8700, 16239.00
647.0310, 17378.00
648.1910, 18642.00
649.3510, 19894.00
650.5110, 21542.00
651.6710, 23322.00
652.8300, 25303.00
653.9900, 27591.00
655.1490, 30225.00
656.3080, 32834.00
657.4670, 36052.00
658.6250, 39060.00
659.7840, 42347.00
660.9420, 45539.00
662.1010, 48882.00
663.2590, 51765.00
664.4170, 53860.00
665.5740, 55860.00
666.7320, 56478.00
667.8890, 56299.00
669.0460, 55758.00
670.2030, 53661.00
671.3600, 51261.00
672.5170, 48105.00
673.6740, 44699.00
674.8300, 41084.00
675.9860, 37647.00
677.1420, 34505.00
678.2980, 31617.00
679.4540, 28691.00
680.6090, 26166.00
681.7650, 24102.00
682.9200, 22143.00
684.0750, 20419.00
685.2300, 18838.00
686.3840, 17662.00
687.5390, 16490.00
688.6930, 15361.00
689.8470, 14544.00
691.0010, 13774.00
692.1550, 13060.00
693.3090, 12458.00
694.4620, 11947.00
695.6160, 11360.00
696.7690, 11084.00
697.9220, 10838.00
699.0750, 10565.00
700.2280, 10119.00
701.3800, 9969.000
702.5320, 9643.000
703.6850, 9446.000
704.8370, 9306.000
705.9880, 9032.000
707.1400, 8900.000
708.2920, 8697.000
709.4430, 8618.000
710.5940, 8526.000
711.7450, 8288.000
712.8960, 8161.000
714.0470, 8140.000
715.1970, 7947.000
716.3480, 7812.000
717.4980, 7761.000
718.6480, 7479.000
719.7980, 7435.000
720.9470, 7347.000
722.0970, 7348.000
723.2460, 7155.000
724.3960, 7087.000
725.5450, 6965.000
726.6940, 6898.000
727.8420, 6932.000
728.9910, 6893.000
730.1390, 6791.000
731.2870, 6638.000
732.4350, 6719.000
733.5830, 6715.000
734.7310, 6686.000
735.8790, 6703.000
737.0260, 6683.000
738.1730, 6696.000
739.3200, 6766.000
740.4670, 6714.000
741.6140, 6706.000
742.7610, 6829.000
743.9070, 6822.000
745.0530, 6895.000
746.1990, 6920.000
747.3450, 7131.000
748.4910, 7157.000
749.6370, 7240.000
750.7820, 7283.000
751.9270, 7423.000
753.0720, 7611.000
754.2170, 7675.000
755.3620, 7712.000
756.5070, 7903.000
757.6510, 7901.000
758.7950, 8126.000
759.9400, 8287.000
761.0840, 8325.000
762.2270, 8397.000
763.3710, 8516.000
764.5140, 8586.000
765.6580, 8734.000
766.8010, 8771.000
767.9440, 8837.000
769.0870, 9038.000
770.2290, 8995.000
771.3720, 9194.000
772.5140, 9160.000
773.6560, 9297.000
774.7990, 9382.000
775.9400, 9437.000
777.0820, 9696.000
778.2240, 9622.000
779.3650, 9622.000
780.5060, 9721.000
781.6470, 9534.000
782.7880, 9618.000
783.9290, 9601.000
785.0690, 9680.000
786.2100, 9726.000
787.3500, 9729.000
788.4900, 9767.000
789.6300, 9798.428
790.7700, 9876.000
791.9090, 9833.000
793.0490, 9876.000
794.1880, 9824.000
795.3270, 10064.00
796.4660, 10034.00
797.6050, 10122.00
798.7440, 10243.00
799.8820, 10191.00
801.0200, 10240.00
802.1590, 10406.00
803.2970, 10347.00
804.4340, 10392.00
805.5720, 10447.00
806.7100, 10493.00
807.8470, 10567.42
808.9840, 10707.00
810.1210, 10719.00
811.2580, 10821.70
812.3950, 10895.00
813.5310, 10958.00
814.6680, 11036.51
815.8040, 11052.00
816.9400, 11144.00
818.0760, 11172.00
819.2120, 11172.00
820.3470, 11242.00
821.4830, 11276.00
822.6180, 11187.00
823.7530, 11182.00
824.8880, 11216.00
826.0230, 11111.00
827.1580, 11150.00
828.2920, 11013.00
829.4270, 11116.00
830.5610, 11085.00
831.6950, 10989.00
832.8290, 10975.00
833.9620, 11039.00
835.0960, 10920.00
836.2290, 10917.00
837.3620, 10911.00
838.4950, 10864.00
839.6280, 10817.00
840.7610, 10810.00
841.8940, 10723.00
843.0260, 10806.00
844.1580, 10806.00
845.2910, 10756.00
846.4230, 10665.00
847.5540, 10875.00
848.6860, 10841.00
849.8170, 10824.00
850.9490, 11121.00
852.0800, 11250.00
853.2110, 11264.00
854.3420, 11409.00
855.4730, 11628.00
856.6030, 11905.00
857.7340, 12048.00
858.8640, 12228.00
859.9940, 12352.00
861.1240, 12558.76
862.2540, 12720.00
863.3830, 12903.00
864.5130, 13055.00
865.6420, 13096.00
866.7710, 13264.00
867.9000, 13269.00
869.0290, 13310.00
870.1570, 13562.00
871.2860, 13615.00
872.4140, 13628.00
873.5430, 13572.00
874.6710, 13606.00
875.7980, 13549.00
876.9260, 13636.00
878.0540, 13622.78
879.1810, 13665.00
880.3080, 13664.00
881.4360, 13591.00
882.5630, 13627.00
883.6890, 13611.32
884.8160, 13704.00
885.9420, 13622.00
887.0690, 13674.00
888.1950, 13672.00
889.3210, 13451.00
890.4470, 13631.00
891.5730, 13722.00
892.6980, 13737.00
893.8240, 13563.00
894.9490, 13604.00
896.0740, 13766.00
897.1990, 13578.00
898.3240, 13668.00
899.4480, 13554.00
900.5730, 13517.00
901.6970, 13677.00
902.8210, 13557.38
903.9450, 13758.00
905.0690, 13548.00
906.1930, 13621.00
907.3160, 13740.00
908.4400, 13769.00
909.5630, 13808.51
910.6860, 13864.00
911.8090, 13846.00
912.9320, 13836.00
914.0550, 13884.00
915.1770, 13885.00
916.2990, 13957.00
917.4210, 13979.00
918.5440, 13941.00
919.6650, 14032.00
920.7870, 14402.00
921.9090, 14411.74
923.0300, 14408.95
924.1510, 14658.00
925.2720, 14289.00
926.3930, 14272.00
927.5140, 14348.00
928.6350, 14355.00
929.7550, 14423.35
930.8760, 14491.85
931.9960, 14587.00
933.1160, 14610.00
934.2360, 14726.00
935.3550, 14716.00
936.4750, 14760.00
937.5940, 14843.00
938.7140, 14988.00
939.8330, 14974.00
940.9520, 15201.00
942.0710, 15281.00
943.1890, 15143.00
944.3080, 15370.00
945.4260, 15621.00
946.5440, 15465.00
947.6620, 15544.00
948.7800, 16078.00
949.8980, 15998.00
951.0160, 16380.00
952.1330, 16379.00
953.2500, 16935.00
954.3680, 16830.00
955.4850, 17088.00
956.6010, 17164.00
957.7180, 17614.00
958.8350, 17587.00
959.9510, 17994.00
961.0670, 18478.00
962.1830, 18575.00
963.2990, 18755.00
964.4150, 19070.00
965.5310, 19409.00
966.6460, 19653.54
967.7620, 20045.00
968.8770, 20243.00
969.9920, 20733.00
971.1070, 21067.00
972.2210, 21544.00
973.3360, 22004.00
974.4500, 22515.00
975.5650, 23068.00
976.6790, 23420.00
977.7930, 24324.00
978.9070, 24790.00
980.0200, 25427.00
981.1340, 26379.00
982.2470, 27042.30
983.3610, 27978.00
984.4740, 28825.00
985.5870, 29981.00
986.6990, 31118.00
987.8120, 32165.00
988.9250, 33576.00
990.0370, 35007.00
991.1490, 36473.00
992.2610, 38475.00
993.3730, 40581.00
994.4850, 42249.00
995.5960, 44354.00
996.7080, 46784.00
997.8190, 48585.00
998.9300, 50186.00
1000.041, 52583.00
1001.152, 54697.00
1002.263, 56405.00
1003.373, 57619.00
1004.484, 58618.00
1005.594, 59265.00
1006.704, 59718.00
1007.814, 59095.00
1008.924, 57982.00
1010.034, 56948.00
1011.143, 54910.00
1012.253, 53040.00
1013.362, 50338.00
1014.471, 47785.00
1015.580, 44802.00
1016.689, 42167.00
1017.797, 39593.00
1018.906, 36905.00
1020.014, 34458.00
1021.122, 32256.00
1022.230, 30312.00
1023.338, 28702.00
1024.446, 27024.00
1025.554, 25732.00
1026.661, 24608.00
1027.768, 23634.00
1028.875, 22662.00
1029.983, 21908.55
1031.089, 21331.00
1032.196, 20643.00
1033.303, 20144.00
1034.409, 19706.00
1035.515, 19007.00
1036.622, 18664.00
1037.728, 18251.00
1038.833, 17857.00
1039.939, 17500.20
1041.045, 17112.96
1042.150, 16775.00
1043.255, 16434.00
1044.360, 16088.00
1045.465, 15750.80
1046.570, 15427.00
1047.675, 15068.00
1048.779, 14814.00
1049.884, 14472.00
1050.988, 14148.00
1052.092, 13872.07
1053.196, 13556.00
1054.300, 13299.61
1055.404, 13041.46
1056.507, 12772.30
1057.610, 12560.00
1058.714, 12280.00
1059.817, 12042.00
1060.920, 11820.00
1062.022, 11535.00
1063.125, 11379.00
1064.228, 11183.00
1065.330, 11075.00
1066.432, 10926.00
1067.534, 10744.00
1068.636, 10603.00
1069.738, 10469.00
1070.840, 10328.14
1071.941, 10214.55
1073.042, 10103.00
1074.144, 10013.23
1075.245, 9955.000
1076.346, 9904.000
1077.446, 9853.000
1078.547, 9829.000
1079.647, 9674.000
1080.748, 9572.000
1081.848, 9598.000
1082.948, 9455.000
1084.048, 9464.000
1085.148, 9417.000
1086.247, 9365.000
1087.347, 9346.000
1088.446, 9256.000
1089.545, 9169.000
1090.644, 9109.000
1091.743, 9073.000
1092.842, 9035.000
1093.940, 9023.000
1095.039, 9023.000
1096.137, 8982.000
1097.235, 8954.000
1098.333, 8890.000
1099.431, 8737.000
1100.529, 8873.000
1101.627, 8725.075
1102.724, 8726.000
1103.822, 8582.000
1104.919, 8703.000
1106.016, 8641.000
1107.113, 8452.000
1108.209, 8638.000
1109.306, 8456.000
1110.402, 8498.000
1111.499, 8348.000
1112.595, 8330.000
1113.691, 8258.000
1114.787, 8321.000
1115.883, 8232.000
1116.978, 8234.000
1118.074, 8227.000
1119.169, 8124.000
1120.264, 8011.000
1121.359, 7988.000
1122.454, 7882.000
1123.549, 7752.000
1124.644, 7621.000
1125.738, 7423.000
1126.832, 7204.000
1127.927, 7018.000
1129.021, 6889.000
1130.115, 6784.000
1131.208, 6631.000
1132.302, 6492.605
1133.396, 6381.000
1134.489, 6186.000
1135.582, 6084.000
1136.675, 5931.000
1137.768, 5890.000
1138.861, 5739.000
1139.954, 5660.000
1141.046, 5555.000
1142.138, 5483.000
1143.231, 5361.000
1144.323, 5348.000
1145.415, 5253.000
1146.507, 5113.000
1147.598, 5089.000
1148.690, 4929.000
1149.781, 5008.000
1150.872, 4852.000
1151.964, 4895.000
1153.054, 4781.000
1154.145, 4764.000
1155.236, 4748.000
1156.327, 4704.000
1157.417, 4627.000
1158.507, 4633.000
1159.597, 4580.000
1160.687, 4555.000
1161.777, 4607.000
1162.867, 4565.000
1163.956, 4533.000
1165.046, 4463.000
1166.135, 4486.000
1167.224, 4479.000
1168.313, 4448.000
1169.402, 4468.000
1170.491, 4435.000
1171.580, 4482.000
1172.668, 4343.000
1173.756, 4386.000
1174.845, 4328.000
1175.933, 4328.000
1177.020, 4398.000
1178.108, 4336.000
1179.196, 4383.000
1180.283, 4283.000
1181.371, 4342.000
1182.458, 4244.000
1183.545, 4284.000
1184.632, 4339.000
1185.719, 4306.000
1186.805, 4238.000
1187.892, 4292.000
1188.978, 4190.000
1190.065, 4282.000
1191.151, 4300.000
1192.237, 4232.000
1193.323, 4239.000
1194.408, 4179.000
1195.494, 4194.000
1196.579, 4270.000
1197.664, 4190.000
1198.750, 4151.000
1199.835, 4256.000
1200.919, 4235.000
1202.004, 4144.000
1203.089, 4179.000
1204.173, 4144.629
1205.258, 4161.101
1206.342, 4140.000
1207.426, 4213.000
1208.510, 4224.000
1209.594, 4229.000
1210.677, 4177.000
1211.761, 4083.000
1212.844, 4171.000
1213.927, 4116.000
1215.010, 4160.000
1216.093, 4232.000
1217.176, 4231.000
1218.259, 4268.358
1219.341, 4242.000
1220.424, 4258.000
1221.506, 4248.000
1222.588, 4230.851
1223.670, 4101.000
1224.752, 4198.000
1225.834, 4153.000
1226.915, 4136.000
1227.997, 4212.000
1229.078, 4212.000
1230.159, 4136.000
1231.240, 4243.000
1232.321, 4208.000
1233.402, 4254.000
1234.483, 4230.000
1235.563, 4227.182
1236.644, 4228.000
1237.724, 4232.000
1238.804, 4182.000
1239.884, 4225.000
1240.964, 4183.000
1242.044, 4263.000
1243.123, 4114.000
1244.203, 4112.000
1245.282, 4189.000
1246.361, 4144.000
1247.440, 4224.000
1248.519, 4215.000
1249.598, 4143.000
1250.676, 4166.000
1251.755, 4122.000
1252.833, 4144.000
1253.911, 4166.000
1254.989, 4192.000
1256.067, 4130.000
1257.145, 4166.000
1258.223, 4165.000
1259.300, 4143.431
1260.378, 4190.000
1261.455, 4141.000
1262.532, 4168.000
1263.609, 4207.000
1264.686, 4174.000
1265.763, 4208.000
1266.840, 4221.000
1267.916, 4172.000
1268.992, 4195.000
1270.069, 4190.000
1271.145, 4193.000
1272.221, 4162.000
1273.296, 4163.000
1274.372, 4132.000
1275.448, 4199.000
1276.523, 4135.000
1277.598, 4214.000
1278.673, 4239.000
1279.749, 4127.000
1280.823, 4174.000
1281.898, 4115.000
1282.973, 4147.000
1284.047, 4202.000
1285.122, 4175.000
1286.196, 4109.000
1287.270, 4156.000
1288.344, 4195.000
1289.418, 4088.000
1290.491, 4229.000
1291.565, 4176.000
1292.638, 4110.000
1293.712, 4158.000
1294.785, 4217.000
1295.858, 4206.000
1296.931, 4123.000
1298.003, 4279.000
1299.076, 4194.000
1300.149, 4284.000
1301.221, 4226.000
1302.293, 4136.000
1303.365, 4189.000
1304.437, 4183.000
1305.509, 4142.000
1306.581, 4098.000
1307.652, 4195.000
1308.724, 4178.000
1309.795, 4222.000
1310.866, 4296.000
1311.937, 4158.000
1313.008, 4158.000
1314.079, 4215.000
1315.150, 4260.000
1316.220, 4204.000
1317.291, 4184.000
1318.361, 4240.000
1319.431, 4214.000
1320.501, 4208.000
1321.571, 4239.000
1322.641, 4264.000
1323.710, 4239.000
1324.780, 4214.000
1325.849, 4234.000
1326.918, 4245.000
1327.987, 4283.000
1329.056, 4292.000
1330.125, 4239.000
1331.194, 4209.000
1332.263, 4258.000
1333.331, 4344.000
1334.399, 4228.000
1335.467, 4227.000
1336.535, 4299.000
1337.603, 4225.000
1338.671, 4271.000
1339.739, 4180.000
1340.806, 4258.000
1341.874, 4388.000
1342.941, 4258.000
1344.008, 4265.000
1345.075, 4228.000
1346.142, 4290.000
1347.209, 4212.000
1348.275, 4278.000
1349.342, 4350.000
1350.408, 4254.000
1351.475, 4227.000
1352.541, 4349.000
1353.607, 4217.000
1354.673, 4195.000
1355.738, 4277.000
1356.804, 4275.000
1357.869, 4222.000
1358.935, 4217.000
1360.000, 4189.000
1361.065, 4216.000
1362.130, 4181.272
1363.195, 4240.000
1364.259, 4146.000
1365.324, 4172.000
1366.388, 4181.000
1367.453, 4252.000
1368.517, 4187.000
1369.581, 4270.000
1370.645, 4234.000
1371.709, 4227.771
1372.772, 4185.000
1373.836, 4200.000
1374.899, 4176.000
1375.963, 4154.000
1377.026, 4172.000
1378.089, 4151.070
1379.152, 4212.000
1380.214, 4148.000
1381.277, 4170.000
1382.340, 4187.000
1383.402, 4160.000
1384.464, 4185.000
1385.526, 4240.000
1386.588, 4147.000
1387.650, 4184.000
1388.712, 4085.000
1389.774, 4180.000
1390.835, 4174.000
1391.896, 4171.000
1392.958, 4174.000
1394.019, 4169.211
1395.080, 4166.000
1396.141, 4148.000
1397.201, 4174.000
1398.262, 4128.000
1399.323, 4237.000
1400.383, 4161.000
1401.443, 4169.000
1402.503, 4147.000
1403.563, 4118.000
1404.623, 4158.000
1405.683, 4164.000
1406.742, 4083.000
1407.802, 4127.000
1408.861, 4120.000
1409.920, 4178.000
1410.980, 4025.000
1412.039, 4064.000
1413.097, 4091.000
1414.156, 4157.000
1415.215, 4145.000
1416.273, 4093.000
1417.331, 4114.000
1418.390, 4161.000
1419.448, 4111.000
1420.506, 4112.000
1421.564, 4156.000
1422.621, 4096.000
1423.679, 4140.000
1424.736, 4129.000
1425.794, 4098.000
1426.851, 4118.000
1427.908, 4127.000
1428.965, 4108.009
1430.022, 4100.000
1431.079, 4072.000
1432.135, 4085.000
1433.192, 4039.000
1434.248, 4145.000
1435.304, 4101.000
1436.360, 4138.000
1437.416, 4110.000
1438.472, 4096.500
1439.528, 4100.000
1440.583, 4096.000
1441.639, 4088.000
1442.694, 4160.000
1443.749, 4117.000
1444.804, 4208.000
1445.859, 4100.000
1446.914, 4168.000
1447.969, 4098.000
1449.024, 4070.000
1450.078, 4116.000
1451.132, 4016.000
1452.187, 4063.000
1453.241, 4106.000
1454.295, 4121.000
1455.349, 4136.552
1456.402, 4076.000
1457.456, 4130.000
1458.509, 4118.000
1459.563, 4098.000
1460.616, 4164.000
1461.669, 4097.000
1462.722, 4157.000
1463.775, 4092.000
1464.828, 4127.000
1465.880, 4071.000
1466.933, 4157.000
1467.985, 4174.000
1469.037, 4101.000
1470.090, 4155.000
1471.142, 4169.000
1472.193, 4110.000
1473.245, 4098.000
1474.297, 4154.000
1475.348, 4116.000
1476.400, 4158.000
1477.451, 4039.000
1478.502, 4104.000
1479.553, 4114.000
1480.604, 4072.000
1481.655, 4143.000
1482.706, 4180.000
1483.756, 4164.000
1484.807, 4206.000
1485.857, 4160.000
1486.907, 4187.562
1487.957, 4133.000
1489.007, 4183.000
1490.057, 4179.000
1491.106, 4112.000
1492.156, 4184.009
1493.205, 4147.000
1494.255, 4239.000
1495.304, 4154.000
1496.353, 4116.000
1497.402, 4101.000
1498.451, 4197.000
1499.500, 4106.000
1500.548, 4188.000
1501.597, 4180.000
1502.645, 4285.000
1503.693, 4193.000
1504.741, 4215.000
1505.789, 4263.000
1506.837, 4177.000
1507.885, 4244.000
1508.932, 4241.000
1509.980, 4190.000
1511.027, 4181.000
1512.075, 4238.000
1513.122, 4203.000
1514.169, 4201.000
1515.216, 4245.000
1516.262, 4228.694
1517.309, 4274.000
1518.356, 4236.000
1519.402, 4283.000
1520.448, 4263.000
1521.495, 4244.000
1522.541, 4332.000
1523.587, 4332.000
1524.632, 4253.000
1525.678, 4288.000
1526.724, 4342.000
1527.769, 4318.000
1528.814, 4365.000
1529.860, 4277.000
1530.905, 4348.000
1531.950, 4368.000
1532.995, 4242.000
1534.039, 4265.000
1535.084, 4315.000
1536.128, 4239.000
1537.173, 4324.000
1538.217, 4291.000
1539.261, 4271.000
1540.305, 4293.000
1541.349, 4266.000
1542.393, 4294.000
1543.436, 4280.000
1544.480, 4217.193
1545.523, 4318.759
1546.567, 4377.288
1547.610, 4395.084
1548.653, 4250.166
1549.696, 4315.360
1550.739, 4296.351
1551.781, 4273.886
1552.824, 4368.652
1553.867, 4247.400
1554.909, 4340.305
1555.951, 4347.721
1556.993, 4394.263
1558.035, 4356.082
1559.077, 4344.068
1560.119, 4416.806
1561.161, 4442.616
1562.202, 4394.678
1563.243, 4443.705
1564.285, 4319.490
1565.326, 4347.296
##END=



