##NAMES=Diopside
##RRUFFID=R050496
##IDEAL CHEMISTRY=CaMgSi_2_O_6_
##LOCALITY=New City Quarry, Riverside, Riverside County, Calfornia, USA
##OWNER=RRUFF
##SOURCE=California Institute of Technology
##DESCRIPTION=Aggregate of light green irregular grains
##STATUS=The identification of this mineral has been confirmed by X-ray diffraction and chemical analysis
##URL=rruff.info/R050496
##MEASURED CHEMISTRY=Ca(Mg_0.66_Fe_0.33_Mn_0.01_)(Si_0.95_Al_0.05_)_2_O_6_
##PIN_ID=M01464
##ORIENTATION=Laser parallel to b* (0 1 0). Fiducial mark perpendicular to laser is parallel to -c [0 0 -1]
114.2860, 9620.000
115.5200, 10060.00
116.7530, 10109.00
117.9870, 10302.00
119.2200, 10469.00
120.4530, 10186.00
121.6860, 9852.000
122.9190, 9784.000
124.1520, 10111.00
125.3850, 10481.00
126.6170, 10301.00
127.8490, 10481.00
129.0810, 10681.00
130.3130, 11183.00
131.5450, 11820.00
132.7770, 12654.00
134.0080, 13489.00
135.2390, 14757.00
136.4710, 16137.00
137.7020, 16553.00
138.9320, 16804.00
140.1630, 16432.00
141.3930, 15706.00
142.6240, 14425.00
143.8540, 13293.00
145.0840, 12355.00
146.3140, 11602.00
147.5440, 11048.00
148.7730, 10598.00
150.0020, 10196.00
151.2320, 9951.000
152.4610, 9848.000
153.6900, 9728.000
154.9180, 9744.000
156.1470, 9639.000
157.3750, 9575.000
158.6040, 9463.000
159.8320, 9427.426
161.0600, 9373.000
162.2870, 9391.000
163.5150, 9423.000
164.7420, 9487.000
165.9700, 9371.000
167.1970, 9500.000
168.4240, 9513.000
169.6510, 9429.000
170.8770, 9639.000
172.1040, 9769.000
173.3300, 9647.000
174.5560, 9667.000
175.7820, 9795.000
177.0080, 9816.000
178.2340, 9883.000
179.4590, 9851.000
180.6850, 9873.000
181.9100, 9888.000
183.1350, 9899.000
184.3600, 9899.000
185.5850, 9655.000
186.8090, 9638.000
188.0340, 9571.000
189.2580, 9768.000
190.4820, 9686.000
191.7060, 9714.000
192.9300, 9769.000
194.1530, 9709.000
195.3770, 9754.000
196.6000, 9746.992
197.8230, 9817.000
199.0460, 9786.000
200.2690, 9738.000
201.4910, 9836.000
202.7140, 9765.000
203.9360, 9793.000
205.1580, 9716.000
206.3800, 9608.000
207.6020, 9442.000
208.8240, 9526.000
210.0450, 9383.000
211.2670, 9402.000
212.4880, 9378.000
213.7090, 9342.000
214.9300, 9522.000
216.1510, 9461.000
217.3710, 9482.000
218.5920, 9583.000
219.8120, 9538.000
221.0320, 9634.000
222.2520, 9584.000
223.4720, 9678.000
224.6910, 9720.000
225.9110, 9666.000
227.1300, 9692.000
228.3490, 9701.000
229.5680, 9718.000
230.7870, 9801.852
232.0050, 9844.000
233.2240, 9925.000
234.4420, 9907.000
235.6600, 9835.000
236.8780, 9854.000
238.0960, 9869.000
239.3140, 9732.000
240.5310, 9717.000
241.7490, 9718.000
242.9660, 9639.000
244.1830, 9635.000
245.4000, 9632.000
246.6160, 9667.000
247.8330, 9671.000
249.0490, 9698.000
250.2660, 9638.000
251.4820, 9711.000
252.6980, 9680.309
253.9130, 9767.000
255.1290, 9656.000
256.3440, 9683.375
257.5600, 9651.000
258.7750, 9659.000
259.9900, 9690.000
261.2040, 9597.000
262.4190, 9633.000
263.6330, 9455.000
264.8480, 9601.000
266.0620, 9482.000
267.2760, 9606.000
268.4900, 9623.000
269.7030, 9614.000
270.9170, 9590.000
272.1300, 9626.456
273.3430, 9590.000
274.5560, 9668.000
275.7690, 9698.000
276.9820, 9688.000
278.1940, 9730.000
279.4070, 9707.000
280.6190, 9679.000
281.8310, 9628.000
283.0430, 9765.000
284.2550, 9784.000
285.4660, 9857.000
286.6770, 9768.000
287.8890, 9773.000
289.1000, 9844.000
290.3110, 9919.000
291.5210, 9869.000
292.7320, 9911.000
293.9420, 10028.00
295.1530, 10046.00
296.3630, 10171.00
297.5730, 10167.00
298.7830, 10171.00
299.9920, 10326.00
301.2020, 10492.00
302.4110, 10551.00
303.6200, 10674.00
304.8290, 10775.00
306.0380, 10943.00
307.2470, 11224.00
308.4550, 11432.00
309.6630, 11459.00
310.8720, 11817.00
312.0800, 11992.00
313.2880, 12215.00
314.4950, 12610.00
315.7030, 12938.00
316.9100, 13296.00
318.1170, 13573.00
319.3240, 13919.00
320.5310, 14213.00
321.7380, 14371.00
322.9450, 14461.00
324.1510, 14313.00
325.3570, 14298.00
326.5630, 13997.00
327.7690, 13776.00
328.9750, 13458.00
330.1810, 13273.00
331.3860, 13005.00
332.5910, 12738.00
333.7960, 12651.00
335.0010, 12466.00
336.2060, 12440.00
337.4110, 12230.00
338.6150, 12200.00
339.8200, 12172.00
341.0240, 12056.00
342.2280, 11973.00
343.4320, 11884.00
344.6350, 12071.00
345.8390, 12059.00
347.0420, 12238.00
348.2450, 12375.00
349.4480, 12481.00
350.6510, 12542.00
351.8540, 12622.00
353.0560, 12658.63
354.2590, 12743.00
355.4610, 12637.00
356.6630, 12576.00
357.8650, 12402.00
359.0670, 12317.00
360.2680, 12170.00
361.4700, 11971.00
362.6710, 11895.00
363.8720, 11775.15
365.0730, 11677.00
366.2740, 11628.00
367.4740, 11557.29
368.6750, 11616.51
369.8750, 11520.00
371.0750, 11543.00
372.2750, 11629.00
373.4750, 11557.00
374.6740, 11655.00
375.8740, 11777.00
377.0730, 11921.00
378.2720, 12144.00
379.4710, 12572.00
380.6700, 12801.00
381.8690, 13239.00
383.0670, 13648.00
384.2660, 14311.00
385.4640, 14663.00
386.6620, 14897.00
387.8600, 15325.00
389.0570, 15290.00
390.2550, 14946.00
391.4520, 14515.00
392.6490, 13876.00
393.8460, 13635.00
395.0430, 13005.00
396.2400, 12435.00
397.4370, 12232.00
398.6330, 11701.00
399.8290, 11218.00
401.0250, 11015.00
402.2210, 10908.00
403.4170, 10777.00
404.6130, 10743.00
405.8080, 10563.00
407.0030, 10503.00
408.1980, 10315.00
409.3930, 10369.00
410.5880, 10357.00
411.7830, 10496.00
412.9770, 10347.00
414.1720, 10440.00
415.3660, 10303.00
416.5600, 10275.00
417.7530, 10265.00
418.9470, 10321.00
420.1410, 10425.00
421.3340, 10333.00
422.5270, 10296.00
423.7200, 10195.00
424.9130, 10259.00
426.1060, 10210.00
427.2980, 10167.00
428.4900, 10166.00
429.6830, 10418.00
430.8750, 10216.00
432.0670, 10257.00
433.2580, 10236.00
434.4500, 10141.00
435.6410, 10143.00
436.8320, 10129.00
438.0240, 10325.00
439.2140, 10326.00
440.4050, 10374.00
441.5960, 10269.00
442.7860, 10370.00
443.9760, 10303.00
445.1670, 10423.00
446.3560, 10305.00
447.5460, 10288.00
448.7360, 10276.00
449.9250, 10377.00
451.1150, 10309.00
452.3040, 10380.00
453.4930, 10412.00
454.6810, 10388.00
455.8700, 10385.00
457.0590, 10382.00
458.2470, 10476.00
459.4350, 10551.00
460.6230, 10459.00
461.8110, 10455.00
462.9980, 10578.00
464.1860, 10390.00
465.3730, 10458.00
466.5600, 10622.00
467.7470, 10464.00
468.9340, 10487.00
470.1210, 10434.00
471.3080, 10615.00
472.4940, 10511.00
473.6800, 10538.00
474.8660, 10637.00
476.0520, 10484.00
477.2380, 10489.00
478.4230, 10692.00
479.6090, 10494.00
480.7940, 10560.00
481.9790, 10501.00
483.1640, 10555.00
484.3490, 10573.00
485.5330, 10609.00
486.7180, 10531.00
487.9020, 10555.00
489.0860, 10585.99
490.2700, 10664.00
491.4540, 10635.00
492.6370, 10789.00
493.8210, 10737.00
495.0040, 10926.00
496.1870, 10762.00
497.3700, 10937.00
498.5530, 11017.00
499.7360, 11289.00
500.9180, 11327.00
502.1000, 11376.00
503.2830, 11655.00
504.4650, 11546.00
505.6460, 11534.00
506.8280, 11707.00
508.0100, 11587.00
509.1910, 11524.00
510.3720, 11477.00
511.5530, 11455.00
512.7340, 11238.00
513.9150, 11419.00
515.0950, 11243.00
516.2760, 11347.00
517.4560, 11272.00
518.6360, 11399.00
519.8160, 11383.00
520.9950, 11399.00
522.1750, 11381.00
523.3540, 11430.11
524.5340, 11391.00
525.7130, 11551.00
526.8920, 11659.00
528.0700, 11763.00
529.2490, 11730.00
530.4270, 11723.00
531.6060, 11786.00
532.7840, 11672.00
533.9620, 11743.00
535.1390, 11652.00
536.3170, 11750.00
537.4940, 11606.00
538.6720, 11595.00
539.8490, 11517.00
541.0260, 11457.00
542.2030, 11490.00
543.3790, 11468.00
544.5560, 11496.00
545.7320, 11475.00
546.9080, 11436.00
548.0840, 11595.00
549.2600, 11353.00
550.4360, 11393.00
551.6110, 11325.00
552.7860, 11435.00
553.9620, 11466.00
555.1370, 11274.00
556.3110, 11353.00
557.4860, 11279.00
558.6610, 11386.00
559.8350, 11420.00
561.0090, 11220.00
562.1830, 11306.00
563.3570, 11426.00
564.5310, 11352.00
565.7040, 11463.00
566.8780, 11482.00
568.0510, 11256.00
569.2240, 11367.00
570.3970, 11323.00
571.5700, 11129.00
572.7420, 11197.00
573.9150, 11220.00
575.0870, 11180.00
576.2590, 11303.00
577.4310, 11184.00
578.6030, 11034.00
579.7740, 10913.00
580.9460, 10946.00
582.1170, 11090.00
583.2880, 10789.00
584.4590, 11003.00
585.6300, 10747.00
586.8010, 10720.00
587.9710, 10638.00
589.1410, 10675.00
590.3110, 10585.00
591.4810, 10634.00
592.6510, 10602.00
593.8210, 10693.00
594.9900, 10680.00
596.1600, 10532.00
597.3290, 10644.00
598.4980, 10503.00
599.6670, 10665.00
600.8350, 10547.00
602.0040, 10571.00
603.1720, 10644.00
604.3400, 10543.00
605.5080, 10532.00
606.6760, 10676.00
607.8440, 10633.00
609.0120, 10634.00
610.1790, 10659.00
611.3460, 10710.00
612.5130, 10782.00
613.6800, 10807.00
614.8470, 10839.00
616.0130, 10718.00
617.1800, 10814.00
618.3460, 10789.00
619.5120, 10907.00
620.6780, 10914.00
621.8440, 11043.00
623.0090, 10998.00
624.1750, 11035.00
625.3400, 11124.00
626.5050, 11122.00
627.6700, 11187.09
628.8350, 11307.00
629.9990, 11280.00
631.1640, 11378.00
632.3280, 11432.00
633.4920, 11493.00
634.6560, 11577.00
635.8200, 11625.00
636.9840, 11633.00
638.1470, 11786.00
639.3100, 11969.00
640.4730, 11941.00
641.6360, 12271.00
642.7990, 12376.00
643.9620, 12403.00
645.1240, 12660.00
646.2870, 12883.00
647.4490, 13301.00
648.6110, 13568.00
649.7730, 13831.00
650.9340, 14365.00
652.0960, 14871.00
653.2570, 15527.00
654.4180, 16178.00
655.5790, 17156.00
656.7400, 18317.00
657.9010, 19500.00
659.0620, 21078.00
660.2220, 23129.00
661.3820, 25123.00
662.5420, 26924.00
663.7020, 28659.00
664.8620, 29282.00
666.0210, 29008.00
667.1810, 28306.00
668.3400, 26797.00
669.4990, 24921.00
670.6580, 22935.00
671.8170, 21317.00
672.9750, 19520.00
674.1340, 18136.00
675.2920, 16860.00
676.4500, 16017.00
677.6080, 15310.00
678.7660, 14697.00
679.9230, 14066.00
681.0810, 13678.00
682.2380, 13280.00
683.3950, 13091.00
684.5520, 12820.00
685.7090, 12507.00
686.8660, 12441.00
688.0220, 12213.00
689.1780, 12044.00
690.3340, 11958.00
691.4900, 11875.00
692.6460, 11866.00
693.8020, 11802.00
694.9570, 11730.00
696.1130, 11611.00
697.2680, 11567.00
698.4230, 11668.00
699.5780, 11426.00
700.7320, 11541.00
701.8870, 11419.00
703.0410, 11568.00
704.1950, 11436.00
705.3490, 11371.00
706.5030, 11204.00
707.6570, 11200.96
708.8110, 11248.00
709.9640, 11192.00
711.1170, 11279.00
712.2700, 11309.00
713.4230, 11277.00
714.5760, 11293.00
715.7280, 11217.00
716.8810, 11300.00
718.0330, 11251.00
719.1850, 11301.00
720.3370, 11307.00
721.4890, 11328.00
722.6400, 11323.00
723.7920, 11202.00
724.9430, 11101.00
726.0940, 11132.00
727.2450, 11014.00
728.3960, 11142.00
729.5460, 11197.00
730.6970, 11267.00
731.8470, 11131.00
732.9970, 11258.00
734.1470, 11217.00
735.2970, 11375.00
736.4460, 11280.00
737.5960, 11301.00
738.7450, 11340.00
739.8940, 11361.00
741.0430, 11298.00
742.1920, 11299.00
743.3410, 11379.00
744.4890, 11437.00
745.6370, 11373.00
746.7850, 11352.00
747.9330, 11474.00
749.0810, 11433.00
750.2290, 11350.00
751.3760, 11508.00
752.5240, 11465.00
753.6710, 11452.00
754.8180, 11574.00
755.9650, 11714.00
757.1110, 11487.00
758.2580, 11665.00
759.4040, 11641.00
760.5510, 11765.00
761.6970, 11712.00
762.8420, 11702.00
763.9880, 11715.00
765.1340, 11812.00
766.2790, 11826.00
767.4240, 11871.00
768.5690, 11746.00
769.7140, 11833.00
770.8590, 11734.00
772.0030, 11801.00
773.1480, 11854.00
774.2920, 11917.00
775.4360, 11864.00
776.5800, 11991.00
777.7240, 11982.00
778.8670, 11923.00
780.0110, 11955.00
781.1540, 11878.00
782.2970, 11932.00
783.4400, 11996.00
784.5830, 12070.00
785.7250, 12085.00
786.8680, 12074.00
788.0100, 12087.00
789.1520, 11999.00
790.2940, 12020.00
791.4360, 12071.00
792.5780, 12165.00
793.7190, 12081.00
794.8600, 12179.00
796.0010, 11985.00
797.1420, 12064.00
798.2830, 11914.00
799.4240, 11989.00
800.5640, 11986.00
801.7050, 12035.00
802.8450, 12019.00
803.9850, 12044.79
805.1250, 12054.00
806.2640, 12071.00
807.4040, 12074.00
808.5430, 12073.00
809.6820, 12045.00
810.8210, 12068.15
811.9600, 12126.64
813.0990, 12196.00
814.2370, 12212.00
815.3760, 12486.00
816.5140, 12388.00
817.6520, 12555.00
818.7900, 12451.00
819.9270, 12427.00
821.0650, 12489.00
822.2020, 12524.00
823.3390, 12484.00
824.4760, 12462.00
825.6130, 12444.00
826.7500, 12417.53
827.8870, 12432.00
829.0230, 12357.00
830.1590, 12327.00
831.2950, 12250.00
832.4310, 12239.00
833.5670, 12288.00
834.7030, 12344.00
835.8380, 12206.00
836.9730, 12484.00
838.1080, 12313.00
839.2430, 12475.00
840.3780, 12401.00
841.5130, 12321.00
842.6470, 12414.00
843.7810, 12470.00
844.9150, 12593.00
846.0490, 12748.00
847.1830, 12930.00
848.3170, 13247.00
849.4500, 13450.00
850.5830, 13639.00
851.7160, 13858.00
852.8490, 14278.00
853.9820, 14663.00
855.1150, 14557.00
856.2470, 14797.00
857.3800, 14710.00
858.5120, 14542.00
859.6440, 14283.00
860.7760, 14243.00
861.9070, 14033.00
863.0390, 13659.00
864.1700, 13721.00
865.3010, 13553.00
866.4320, 13454.00
867.5630, 13379.86
868.6940, 13262.54
869.8240, 13153.00
870.9540, 13118.00
872.0850, 13011.00
873.2150, 13002.00
874.3450, 12895.00
875.4740, 12956.00
876.6040, 12912.00
877.7330, 13002.00
878.8620, 13040.00
879.9910, 13006.00
881.1200, 12799.00
882.2490, 12919.00
883.3770, 12835.00
884.5060, 12864.00
885.6340, 12817.00
886.7620, 12921.00
887.8900, 12862.00
889.0180, 12872.00
890.1450, 13035.00
891.2730, 12940.00
892.4000, 12923.00
893.5270, 12983.41
894.6540, 13005.00
895.7810, 13022.00
896.9070, 13002.00
898.0340, 13002.00
899.1600, 13038.00
900.2860, 12969.00
901.4120, 13037.00
902.5380, 12941.00
903.6630, 13078.00
904.7890, 12946.00
905.9140, 13107.00
907.0390, 12983.00
908.1640, 12936.00
909.2890, 13135.00
910.4130, 13015.00
911.5380, 13006.00
912.6620, 13195.00
913.7860, 13125.00
914.9100, 13318.00
916.0340, 13262.00
917.1580, 13208.00
918.2810, 13287.00
919.4040, 13205.00
920.5280, 13131.00
921.6510, 13200.00
922.7730, 13202.00
923.8960, 13332.00
925.0180, 13405.00
926.1410, 13324.00
927.2630, 13404.00
928.3850, 13313.00
929.5070, 13306.00
930.6280, 13285.00
931.7500, 13324.00
932.8710, 13426.00
933.9920, 13407.91
935.1130, 13435.00
936.2340, 13425.00
937.3550, 13431.00
938.4760, 13440.05
939.5960, 13445.00
940.7160, 13452.00
941.8360, 13477.00
942.9560, 13488.74
944.0760, 13503.00
945.1950, 13477.00
946.3150, 13617.00
947.4340, 13573.00
948.5530, 13683.00
949.6720, 13617.00
950.7900, 13506.00
951.9090, 13643.00
953.0270, 13648.00
954.1460, 13667.00
955.2640, 13778.00
956.3820, 13890.00
957.4990, 13879.00
958.6170, 14042.00
959.7340, 14001.00
960.8520, 13939.00
961.9690, 13965.00
963.0860, 14031.00
964.2020, 13935.00
965.3190, 14100.00
966.4350, 14058.00
967.5520, 13989.00
968.6680, 14021.00
969.7840, 14140.00
970.8990, 14153.00
972.0150, 14272.00
973.1310, 14256.00
974.2460, 14192.00
975.3610, 14235.00
976.4760, 14251.51
977.5910, 14192.00
978.7050, 14340.00
979.8200, 14375.00
980.9340, 14392.00
982.0480, 14634.00
983.1620, 14607.00
984.2760, 14699.00
985.3900, 14569.00
986.5030, 14919.00
987.6160, 14964.00
988.7300, 15123.00
989.8430, 15301.00
990.9550, 15448.35
992.0680, 15584.00
993.1810, 15892.00
994.2930, 16057.00
995.4050, 16409.00
996.5170, 16957.00
997.6290, 17018.00
998.7410, 17777.00
999.8520, 18300.00
1000.964, 19025.00
1002.075, 19854.00
1003.186, 20917.86
1004.297, 22091.00
1005.407, 23524.00
1006.518, 25108.00
1007.628, 26830.00
1008.738, 29099.00
1009.848, 30974.00
1010.958, 32640.00
1012.068, 33617.00
1013.178, 33587.00
1014.287, 32307.00
1015.396, 30378.00
1016.505, 27819.00
1017.614, 25552.00
1018.723, 23173.00
1019.831, 21523.00
1020.940, 20189.00
1022.048, 19384.00
1023.156, 18616.00
1024.264, 18050.00
1025.372, 17615.00
1026.479, 17313.00
1027.587, 16906.00
1028.694, 16726.00
1029.801, 16739.00
1030.908, 16485.00
1032.015, 16445.00
1033.121, 16407.00
1034.228, 16317.00
1035.334, 16356.00
1036.440, 16498.00
1037.546, 16732.00
1038.652, 16780.91
1039.758, 17015.00
1040.863, 16925.00
1041.968, 17022.00
1043.074, 16950.00
1044.178, 16871.83
1045.283, 16924.00
1046.388, 16653.00
1047.492, 16522.00
1048.597, 16372.00
1049.701, 16274.00
1050.805, 16101.00
1051.909, 15775.00
1053.012, 15719.00
1054.116, 15494.00
1055.219, 15408.00
1056.322, 15446.00
1057.425, 15175.00
1058.528, 15142.00
1059.631, 15074.00
1060.733, 15006.00
1061.836, 14976.00
1062.938, 15040.00
1064.040, 14821.00
1065.142, 14785.00
1066.243, 14900.00
1067.345, 14820.00
1068.446, 14756.00
1069.547, 14771.00
1070.648, 14768.00
1071.749, 14775.00
1072.850, 14731.00
1073.951, 14825.00
1075.051, 14749.00
1076.151, 14935.00
1077.251, 14752.00
1078.351, 14702.00
1079.451, 14752.00
1080.550, 14913.00
1081.650, 14794.00
1082.749, 14825.00
1083.848, 14832.00
1084.947, 14782.00
1086.046, 14735.00
1087.144, 14810.00
1088.243, 14830.00
1089.341, 14778.00
1090.439, 14915.00
1091.537, 14941.00
1092.635, 14901.00
1093.732, 14823.00
1094.830, 14958.00
1095.927, 14641.00
1097.024, 14760.00
1098.121, 14860.00
1099.218, 14702.00
1100.314, 14833.00
1101.411, 14855.00
1102.507, 14857.00
1103.603, 14765.00
1104.699, 14768.00
1105.795, 14866.00
1106.890, 14923.00
1107.986, 14919.00
1109.081, 14949.60
1110.176, 14881.00
1111.271, 14870.00
1112.366, 14883.00
1113.461, 14888.56
1114.555, 14916.00
1115.649, 14916.00
1116.744, 14994.00
1117.838, 14917.00
1118.931, 14999.00
1120.025, 14975.00
1121.119, 14984.00
1122.212, 15010.12
1123.305, 14963.00
1124.398, 15031.00
1125.491, 15000.00
1126.584, 15011.67
1127.676, 15011.00
1128.768, 14972.00
1129.861, 15054.00
1130.953, 15073.00
1132.044, 14887.00
1133.136, 14978.00
1134.228, 14850.00
1135.319, 14868.00
1136.410, 14865.00
1137.501, 14975.00
1138.592, 14841.00
1139.683, 14888.00
1140.773, 14871.00
1141.864, 14813.00
1142.954, 14973.00
1144.044, 15085.00
1145.134, 14762.00
1146.224, 14900.00
1147.313, 14974.00
1148.402, 14813.00
1149.492, 15014.00
1150.581, 14892.00
1151.670, 15085.00
1152.758, 14963.00
1153.847, 14867.00
1154.935, 15036.00
1156.024, 14938.00
1157.112, 14864.00
1158.200, 14960.00
1159.287, 14992.00
1160.375, 15033.00
1161.462, 15072.85
1162.550, 15084.00
1163.637, 15096.00
1164.724, 15044.00
1165.810, 15001.00
1166.897, 15033.00
1167.983, 15100.00
1169.070, 14998.00
1170.156, 14951.00
1171.242, 14873.00
1172.327, 15155.00
1173.413, 15003.00
1174.499, 15146.00
1175.584, 15171.00
1176.669, 15207.00
1177.754, 15020.00
1178.839, 15199.00
1179.923, 14956.00
1181.008, 15167.00
1182.092, 15271.00
1183.176, 15178.00
1184.260, 15165.00
1185.344, 15152.00
1186.428, 15264.00
1187.511, 15230.00
1188.595, 15199.00
1189.678, 15311.00
1190.761, 15108.00
1191.843, 15225.00
1192.926, 15359.00
1194.009, 15321.00
1195.091, 15212.00
1196.173, 15268.00
1197.255, 15329.00
1198.337, 15146.00
1199.419, 15334.00
1200.500, 15292.00
1201.582, 15425.00
1202.663, 15304.00
1203.744, 15327.00
1204.825, 15198.00
1205.905, 15278.72
1206.986, 15389.00
1208.066, 15412.00
1209.146, 15357.00
1210.226, 15356.00
1211.306, 15369.65
1212.386, 15354.07
1213.466, 15445.00
1214.545, 15413.00
1215.624, 15538.00
1216.703, 15507.33
1217.782, 15529.00
1218.861, 15494.00
1219.939, 15504.00
1221.018, 15528.00
1222.096, 15717.00
1223.174, 15523.00
1224.252, 15483.00
1225.330, 15693.00
1226.407, 15645.00
1227.485, 15509.00
1228.562, 15644.00
1229.639, 15629.00
1230.716, 15578.00
1231.793, 15831.00
1232.869, 15671.00
1233.946, 15727.00
1235.022, 15612.00
1236.098, 15585.00
1237.174, 15617.00
1238.250, 15786.00
1239.325, 15877.00
1240.401, 15777.00
1241.476, 15831.00
1242.551, 15743.00
1243.626, 15738.00
1244.701, 15840.00
1245.776, 15805.00
1246.850, 15766.00
1247.924, 15894.00
1248.999, 15736.00
1250.073, 15787.00
1251.146, 15694.00
1252.220, 15830.00
1253.293, 15975.00
1254.367, 15937.00
1255.440, 16035.26
1256.513, 16146.00
1257.586, 16054.00
1258.658, 16080.00
1259.731, 16011.00
1260.803, 15972.00
1261.875, 15971.00
1262.947, 16012.00
1264.019, 16045.00
1265.091, 15971.00
1266.162, 15984.00
1267.234, 16097.00
1268.305, 16059.00
1269.376, 16118.00
1270.447, 15990.00
1271.517, 16186.00
1272.588, 16203.00
1273.658, 16105.00
1274.729, 16309.00
1275.799, 16047.00
1276.868, 16119.00
1277.938, 16181.74
1279.008, 16083.18
1280.077, 16302.00
1281.146, 16116.00
1282.215, 16103.00
1283.284, 16242.00
1284.353, 16304.00
1285.421, 16316.00
1286.490, 16312.00
1287.558, 16324.98
1288.626, 16314.46
1289.694, 16310.00
1290.762, 16312.00
1291.829, 16314.00
1292.897, 16353.00
1293.964, 16452.00
1295.031, 16238.00
1296.098, 16326.00
1297.165, 16230.00
1298.231, 16483.00
1299.298, 16347.00
1300.364, 16466.00
1301.430, 16308.00
1302.496, 16377.78
1303.562, 16486.00
1304.627, 16500.00
1305.693, 16480.00
1306.758, 16600.00
1307.823, 16359.00
1308.888, 16458.00
1309.953, 16472.53
1311.018, 16467.00
1312.082, 16616.00
1313.146, 16577.00
1314.210, 16724.00
1315.274, 16465.00
1316.338, 16601.00
1317.402, 16692.00
1318.465, 16508.00
1319.529, 16695.00
1320.592, 16654.00
1321.655, 16638.00
1322.718, 16733.00
1323.780, 16716.30
1324.843, 16780.59
1325.905, 16755.00
1326.967, 16889.00
1328.029, 16860.00
1329.091, 16899.00
1330.153, 16754.00
1331.214, 16757.00
1332.275, 16661.00
1333.337, 16759.00
1334.398, 16785.00
1335.458, 16775.00
1336.519, 16863.00
1337.580, 16921.00
1338.640, 16860.00
1339.700, 16821.00
1340.760, 16883.00
1341.820, 17038.00
1342.880, 16713.00
1343.939, 16935.00
1344.999, 16768.00
1346.058, 16824.00
1347.117, 16907.00
1348.176, 16899.00
1349.235, 16921.00
1350.293, 17004.00
1351.351, 16961.00
1352.410, 17138.00
1353.468, 17078.00
1354.526, 17218.00
1355.583, 17231.14
1356.641, 17223.00
1357.698, 17235.00
1358.756, 17198.00
1359.813, 17129.00
1360.869, 17120.00
1361.926, 17193.00
1362.983, 17095.00
1364.039, 17264.00
1365.095, 17108.00
1366.152, 17141.00
1367.207, 17198.00
1368.263, 17165.00
1369.319, 17208.00
1370.374, 17216.00
1371.430, 17282.00
1372.485, 17216.00
1373.540, 17278.81
1374.594, 17258.00
1375.649, 17332.00
1376.703, 17299.00
1377.758, 17293.00
1378.812, 17313.98
1379.866, 17248.00
1380.920, 17356.00
1381.973, 17349.00
1383.027, 17450.00
1384.080, 17366.00
1385.133, 17482.00
1386.186, 17503.00
1387.239, 17426.00
1388.291, 17360.00
1389.344, 17424.00
1390.396, 17419.00
1391.448, 17315.00
1392.500, 17550.00
1393.552, 17311.00
1394.604, 17522.00
1395.655, 17448.00
1396.707, 17510.00
1397.758, 17354.00
1398.809, 17525.00
1399.860, 17640.00
1400.910, 17617.00
1401.961, 17489.00
1403.011, 17490.00
1404.061, 17719.00
1405.111, 17466.00
1406.161, 17575.00
1407.211, 17292.00
1408.260, 17518.00
1409.310, 17574.00
1410.359, 17529.00
1411.408, 17745.00
1412.457, 17444.00
1413.506, 17559.00
1414.554, 17573.00
1415.603, 17554.00
1416.651, 17748.00
1417.699, 17552.00
1418.747, 17708.00
1419.794, 17553.00
1420.842, 17629.00
1421.889, 17700.00
1422.937, 17702.00
1423.984, 17705.00
1425.031, 17663.00
1426.077, 17796.00
1427.124, 17791.00
1428.170, 17756.00
1429.217, 17835.00
1430.263, 17827.00
1431.309, 17917.00
1432.354, 17893.00
1433.400, 17905.54
1434.445, 17905.00
1435.491, 17924.00
1436.536, 17813.00
1437.581, 17882.00
1438.625, 17868.00
1439.670, 17936.00
1440.714, 17959.00
1441.759, 17943.17
1442.803, 17924.00
1443.847, 17916.00
1444.890, 17975.00
1445.934, 17977.00
1446.978, 17865.00
1448.021, 17941.00
1449.064, 18106.00
1450.107, 17956.00
1451.150, 17877.00
1452.192, 18013.00
1453.235, 17941.00
1454.277, 18057.00
1455.319, 17929.00
1456.361, 18107.00
1457.403, 18095.00
1458.445, 18060.00
1459.486, 17913.00
1460.528, 18057.00
1461.569, 18059.00
1462.610, 18079.00
1463.651, 18111.75
1464.691, 18172.00
1465.732, 18090.00
1466.772, 18041.00
1467.812, 17997.00
1468.852, 18081.85
1469.892, 18516.00
1470.932, 18234.00
1471.971, 18338.00
1473.011, 18248.00
1474.050, 18182.00
1475.089, 18238.00
1476.128, 18234.00
1477.166, 18156.00
1478.205, 18357.00
1479.243, 18326.00
1480.282, 18267.00
1481.320, 18216.00
1482.357, 18502.00
1483.395, 18268.00
1484.433, 18387.00
1485.470, 18219.00
1486.507, 18424.00
1487.544, 18296.00
1488.581, 18433.00
1489.618, 18286.00
1490.655, 18245.00
1491.691, 18418.00
1492.727, 18518.00
1493.763, 18429.00
1494.799, 18433.00
1495.835, 18333.00
1496.871, 18518.00
1497.906, 18316.00
1498.941, 18474.00
1499.976, 18610.00
1501.011, 18515.00
1502.046, 18580.00
1503.081, 18446.00
1504.115, 18531.00
1505.149, 18627.40
1506.183, 18556.62
1507.217, 18787.00
1508.251, 18586.00
1509.285, 18378.00
1510.318, 18496.00
1511.352, 18391.00
1512.385, 18633.00
1513.418, 18539.00
1514.450, 18812.00
1515.483, 18663.00
1516.516, 18812.00
1517.548, 18669.00
1518.580, 18717.00
1519.612, 18729.00
1520.644, 18615.00
1521.675, 18759.00
1522.707, 18831.00
1523.738, 18777.00
1524.769, 18783.00
1525.800, 18833.00
1526.831, 18751.00
1527.862, 18802.00
1528.892, 18743.00
1529.923, 18864.00
1530.953, 18628.00
1531.983, 18545.00
1533.013, 18942.00
1534.042, 18790.00
1535.072, 18872.00
1536.101, 18909.00
1537.131, 18670.00
1538.160, 18829.00
1539.188, 18962.00
1540.217, 18814.00
1541.246, 18944.00
1542.274, 18969.00
1543.302, 18946.00
1544.330, 18880.00
1545.358, 18743.00
1546.386, 18881.00
1547.413, 18841.00
1548.441, 19027.00
1549.468, 18806.00
1550.495, 19099.00
1551.522, 18871.00
1552.549, 19009.00
1553.575, 18886.00
1554.602, 19168.00
1555.628, 19095.00
1556.654, 18974.00
1557.680, 19054.00
1558.706, 19109.00
1559.731, 19097.00
1560.757, 19058.00
1561.782, 19185.00
1562.807, 18966.00
1563.832, 18896.00
1564.857, 19004.00
1565.881, 19058.00
1566.906, 18996.00
1567.930, 19057.00
1568.954, 19111.90
1569.978, 19515.00
1571.002, 19133.00
1572.025, 19211.00
1573.049, 18939.00
1574.072, 19172.00
1575.095, 19133.00
1576.118, 19079.00
1577.141, 19165.00
1578.164, 19114.00
##END=



