##NAMES=Diopside
##RRUFFID=R060276
##IDEAL CHEMISTRY=CaMgSi_2_O_6_
##LOCALITY=Inagli, Yakutia, Siberia, Russia
##OWNER=RRUFF
##SOURCE=Herb Obodda
##DESCRIPTION=Transparent green cleavage fragment
##STATUS=The identification of this mineral has been confirmed by X-ray diffraction and chemical analysis
##URL=rruff.info/R060276
##MEASURED CHEMISTRY=(Ca_0.97_Na_0.03_)_Σ=1_(Mg_0.96_Fe_0.03_Cr_0.01_)_Σ=1_(Si_1.98_Al_0.02_)_Σ=2_O_6_
##PIN_ID=L01049
##ORIENTATION=Laser parallel to a* (1 0 0). Fiducial mark perpendicular to laser is parallel to -b [0 -1 0]
109.5120, 3622.000
110.7440, 3353.000
111.9760, 3227.000
113.2080, 3415.000
114.4400, 3443.000
115.6710, 3470.000
116.9030, 3510.000
118.1340, 3511.737
119.3650, 3550.000
120.5960, 3523.000
121.8270, 3540.000
123.0580, 3558.000
124.2880, 3548.000
125.5190, 3510.000
126.7490, 3622.000
127.9790, 3611.000
129.2090, 3738.000
130.4390, 3807.000
131.6680, 3873.000
132.8980, 3903.000
134.1270, 3976.000
135.3560, 4015.178
136.5850, 4014.000
137.8140, 4120.000
139.0430, 4172.000
140.2710, 4260.000
141.5000, 4189.000
142.7280, 4207.000
143.9560, 4218.000
145.1840, 4095.000
146.4120, 3997.000
147.6390, 3921.000
148.8670, 3896.000
150.0940, 3930.000
151.3210, 3955.000
152.5490, 3847.000
153.7750, 3914.000
155.0020, 3864.000
156.2290, 3880.000
157.4550, 3950.000
158.6810, 3945.000
159.9080, 3961.177
161.1340, 3913.000
162.3590, 3975.000
163.5850, 3937.000
164.8110, 3972.000
166.0360, 4111.000
167.2610, 4188.000
168.4860, 4147.000
169.7110, 4298.000
170.9360, 4284.000
172.1610, 4353.000
173.3850, 4362.000
174.6100, 4361.000
175.8340, 4425.000
177.0580, 4442.000
178.2820, 4563.000
179.5050, 4708.000
180.7290, 4934.000
181.9520, 5233.000
183.1760, 5548.000
184.3990, 5648.000
185.6220, 5363.000
186.8450, 5107.000
188.0670, 4755.000
189.2900, 4495.000
190.5120, 4328.000
191.7340, 4282.000
192.9560, 4150.000
194.1780, 4233.000
195.4000, 4207.000
196.6220, 4284.000
197.8430, 4335.000
199.0640, 4292.000
200.2860, 4378.000
201.5070, 4330.000
202.7270, 4226.000
203.9480, 4252.000
205.1690, 4193.000
206.3890, 4153.000
207.6090, 4066.000
208.8290, 4217.000
210.0490, 4200.000
211.2690, 4316.000
212.4890, 4321.000
213.7080, 4271.000
214.9280, 4345.000
216.1470, 4408.000
217.3660, 4429.000
218.5850, 4485.000
219.8030, 4582.000
221.0220, 4669.249
222.2400, 4763.641
223.4590, 4900.000
224.6770, 4995.000
225.8950, 5097.000
227.1120, 5262.000
228.3300, 5460.000
229.5480, 5627.000
230.7650, 5849.000
231.9820, 5904.000
233.1990, 6101.000
234.4160, 6073.000
235.6330, 5902.000
236.8490, 5592.000
238.0660, 5375.000
239.2820, 5127.000
240.4980, 4988.000
241.7140, 4875.000
242.9300, 4902.000
244.1460, 4863.000
245.3610, 4848.000
246.5770, 4925.000
247.7920, 4940.000
249.0070, 5057.000
250.2220, 4964.000
251.4370, 5107.000
252.6510, 5287.000
253.8660, 5409.000
255.0800, 5638.000
256.2940, 5644.000
257.5080, 5727.000
258.7220, 5753.000
259.9360, 5489.000
261.1490, 5004.000
262.3630, 4957.000
263.5760, 4750.000
264.7890, 4726.000
266.0020, 4769.000
267.2150, 4667.000
268.4270, 4596.000
269.6400, 4648.000
270.8520, 4647.000
272.0640, 4682.000
273.2760, 4601.000
274.4880, 4681.000
275.7000, 4612.000
276.9120, 4580.000
278.1230, 4664.000
279.3340, 4683.000
280.5450, 4747.000
281.7560, 4736.000
282.9670, 4767.000
284.1780, 4782.000
285.3880, 4880.000
286.5980, 4947.000
287.8090, 4893.000
289.0190, 5071.000
290.2290, 5057.000
291.4380, 5146.000
292.6480, 5175.000
293.8570, 5312.000
295.0670, 5376.000
296.2760, 5523.000
297.4850, 5635.000
298.6930, 5756.000
299.9020, 5969.288
301.1110, 6145.000
302.3190, 6415.000
303.5270, 6661.000
304.7350, 6908.000
305.9430, 7230.000
307.1510, 7526.000
308.3580, 8021.000
309.5660, 8537.000
310.7730, 9344.000
311.9800, 10355.00
313.1870, 11517.00
314.3940, 12609.00
315.6010, 13653.00
316.8070, 14627.00
318.0130, 15527.00
319.2200, 16463.00
320.4260, 18154.00
321.6310, 19964.00
322.8370, 22585.00
324.0430, 24292.00
325.2480, 25767.00
326.4540, 25644.00
327.6590, 24423.00
328.8640, 21992.00
330.0680, 19042.00
331.2730, 16393.00
332.4780, 14280.00
333.6820, 12354.00
334.8860, 11022.00
336.0900, 10042.00
337.2940, 9234.000
338.4980, 8637.000
339.7010, 8197.000
340.9050, 7936.000
342.1080, 7574.000
343.3110, 7481.000
344.5140, 7303.000
345.7170, 7195.000
346.9200, 7217.000
348.1220, 7194.000
349.3240, 7137.000
350.5270, 7183.000
351.7290, 7278.000
352.9310, 7261.000
354.1320, 7355.000
355.3340, 7393.000
356.5350, 7593.000
357.7370, 7630.000
358.9380, 7746.000
360.1390, 7707.000
361.3400, 7654.000
362.5400, 7524.000
363.7410, 7538.000
364.9410, 7500.000
366.1410, 7504.000
367.3410, 7651.000
368.5410, 7739.000
369.7410, 7839.000
370.9400, 7843.000
372.1400, 8044.000
373.3390, 8174.000
374.5380, 8401.000
375.7370, 8673.000
376.9360, 9280.000
378.1350, 10024.00
379.3330, 10997.00
380.5310, 12281.00
381.7300, 13536.00
382.9280, 14733.00
384.1260, 15802.00
385.3230, 17152.00
386.5210, 18881.00
387.7180, 20884.00
388.9160, 23437.00
390.1130, 26109.00
391.3100, 27742.00
392.5060, 28508.00
393.7030, 27158.00
394.9000, 24197.00
396.0960, 21058.00
397.2920, 17673.00
398.4880, 14883.00
399.6840, 12667.00
400.8800, 10921.00
402.0750, 9767.000
403.2710, 8808.000
404.4660, 8198.000
405.6610, 7698.000
406.8560, 7250.000
408.0510, 6935.000
409.2450, 6684.000
410.4400, 6482.000
411.6340, 6360.000
412.8280, 6207.909
414.0220, 6256.000
415.2160, 6046.000
416.4100, 6054.000
417.6030, 6063.000
418.7970, 5964.000
419.9900, 5966.000
421.1830, 5938.000
422.3760, 5864.000
423.5690, 5866.000
424.7610, 5880.000
425.9540, 5817.000
427.1460, 5765.000
428.3380, 5856.000
429.5300, 5854.000
430.7220, 5779.000
431.9140, 5731.000
433.1050, 5645.000
434.2970, 5730.000
435.4880, 5731.000
436.6790, 5703.000
437.8700, 5676.000
439.0610, 5722.000
440.2510, 5687.000
441.4420, 5729.000
442.6320, 5678.000
443.8220, 5632.000
445.0120, 5625.000
446.2020, 5772.000
447.3910, 5658.000
448.5810, 5729.000
449.7700, 5769.000
450.9600, 5735.000
452.1490, 5668.000
453.3370, 5697.000
454.5260, 5843.000
455.7150, 5773.000
456.9030, 5813.000
458.0910, 5925.000
459.2800, 5812.000
460.4670, 5907.000
461.6550, 5887.000
462.8430, 5908.000
464.0300, 5926.000
465.2180, 6010.000
466.4050, 5938.000
467.5920, 5961.000
468.7790, 5912.000
469.9650, 5908.902
471.1520, 5969.000
472.3380, 5927.000
473.5250, 5953.000
474.7110, 6009.000
475.8970, 5941.000
477.0820, 5927.000
478.2680, 5865.000
479.4540, 5871.000
480.6390, 5909.000
481.8240, 5905.000
483.0090, 5916.284
484.1940, 5916.000
485.3780, 5925.000
486.5630, 5963.000
487.7470, 5976.000
488.9320, 5928.000
490.1160, 5914.000
491.3000, 5996.000
492.4830, 5909.000
493.6670, 5953.000
494.8500, 6023.000
496.0340, 6038.000
497.2170, 6040.567
498.4000, 5992.000
499.5820, 5984.000
500.7650, 5993.226
501.9480, 5993.000
503.1300, 6031.000
504.3120, 6050.000
505.4940, 6088.000
506.6760, 6202.000
507.8580, 6164.000
509.0390, 6262.000
510.2210, 6283.000
511.4020, 6278.000
512.5830, 6411.000
513.7640, 6398.000
514.9450, 6464.000
516.1250, 6628.000
517.3060, 6695.000
518.4860, 6683.000
519.6660, 6818.000
520.8460, 6983.000
522.0260, 7110.000
523.2060, 7120.000
524.3850, 7335.000
525.5650, 7513.000
526.7440, 7671.000
527.9230, 7942.000
529.1020, 8046.000
530.2810, 8061.000
531.4590, 8214.000
532.6380, 8053.000
533.8160, 7798.000
534.9940, 7577.000
536.1720, 7387.359
537.3500, 7181.000
538.5270, 6997.000
539.7050, 6821.000
540.8820, 6709.395
542.0590, 6624.000
543.2360, 6559.000
544.4130, 6504.000
545.5900, 6504.000
546.7660, 6484.000
547.9430, 6563.000
549.1190, 6500.000
550.2950, 6542.000
551.4710, 6596.000
552.6470, 6488.000
553.8220, 6554.000
554.9980, 6510.000
556.1730, 6500.000
557.3480, 6666.000
558.5230, 6664.000
559.6980, 6674.000
560.8730, 6810.000
562.0470, 6588.000
563.2220, 6555.000
564.3960, 6610.000
565.5700, 6471.000
566.7440, 6564.000
567.9170, 6537.000
569.0910, 6397.000
570.2640, 6495.000
571.4380, 6380.000
572.6110, 6468.000
573.7840, 6463.000
574.9570, 6378.000
576.1290, 6462.000
577.3020, 6357.000
578.4740, 6435.000
579.6460, 6343.000
580.8180, 6417.000
581.9900, 6407.000
583.1620, 6383.000
584.3330, 6351.000
585.5040, 6273.000
586.6760, 6354.000
587.8470, 6266.000
589.0180, 6194.000
590.1880, 6287.000
591.3590, 6303.000
592.5290, 6362.000
593.7000, 6322.000
594.8700, 6166.000
596.0400, 6209.000
597.2090, 6341.000
598.3790, 6232.000
599.5490, 6320.000
600.7180, 6417.000
601.8870, 6323.000
603.0560, 6322.000
604.2250, 6361.000
605.3940, 6318.000
606.5620, 6342.000
607.7300, 6358.000
608.8990, 6317.000
610.0670, 6380.000
611.2350, 6389.000
612.4020, 6409.000
613.5700, 6451.000
614.7370, 6499.000
615.9050, 6522.000
617.0720, 6526.191
618.2390, 6530.000
619.4060, 6499.000
620.5720, 6502.000
621.7390, 6468.000
622.9050, 6544.000
624.0710, 6529.000
625.2370, 6593.000
626.4030, 6711.000
627.5690, 6640.000
628.7340, 6648.000
629.9000, 6788.000
631.0650, 6705.000
632.2300, 6772.000
633.3950, 6789.000
634.5600, 6808.000
635.7240, 6953.000
636.8890, 7001.000
638.0530, 6919.000
639.2170, 7116.000
640.3810, 7254.000
641.5450, 7162.000
642.7080, 7301.000
643.8720, 7419.000
645.0350, 7504.000
646.1980, 7595.000
647.3610, 7819.000
648.5240, 8023.000
649.6870, 8306.000
650.8490, 8460.000
652.0120, 8779.000
653.1740, 9232.000
654.3360, 9897.000
655.4980, 10632.00
656.6600, 11449.00
657.8210, 12393.97
658.9830, 13441.61
660.1440, 14540.00
661.3050, 15854.00
662.4660, 17156.00
663.6270, 18609.00
664.7870, 20236.00
665.9480, 21646.00
667.1080, 22581.00
668.2680, 22488.00
669.4280, 21476.00
670.5880, 19822.00
671.7480, 17926.00
672.9070, 15584.00
674.0670, 14061.00
675.2260, 12620.00
676.3850, 11327.00
677.5440, 10551.00
678.7030, 9841.000
679.8610, 9356.000
681.0200, 8945.000
682.1780, 8675.000
683.3360, 8243.000
684.4940, 8149.000
685.6520, 7977.000
686.8090, 7877.000
687.9670, 7708.000
689.1240, 7636.000
690.2810, 7545.000
691.4380, 7544.000
692.5950, 7355.000
693.7520, 7333.000
694.9080, 7347.000
696.0650, 7411.000
697.2210, 7284.000
698.3770, 7226.000
699.5330, 7281.000
700.6880, 7203.000
701.8440, 7206.000
702.9990, 7326.000
704.1550, 7173.000
705.3100, 7130.000
706.4650, 7283.000
707.6190, 7243.000
708.7740, 7172.000
709.9290, 7156.000
711.0830, 7258.000
712.2370, 7079.000
713.3910, 7273.000
714.5450, 7201.000
715.6980, 7191.000
716.8520, 7202.000
718.0050, 7173.000
719.1580, 7158.767
720.3110, 7090.000
721.4640, 7091.000
722.6170, 7172.000
723.7700, 7110.000
724.9220, 7124.000
726.0740, 7065.000
727.2260, 7169.000
728.3780, 7022.000
729.5300, 7137.000
730.6810, 6972.000
731.8330, 7069.000
732.9840, 7096.000
734.1350, 7130.000
735.2860, 7144.312
736.4370, 7141.000
737.5880, 7090.000
738.7380, 7130.000
739.8880, 7025.000
741.0390, 7167.000
742.1890, 7074.000
743.3380, 7075.000
744.4880, 7134.000
745.6380, 7090.000
746.7870, 7131.000
747.9360, 7170.000
749.0850, 7173.000
750.2340, 7183.307
751.3830, 7282.000
752.5310, 7172.000
753.6800, 7195.000
754.8280, 7199.000
755.9760, 7318.000
757.1240, 7182.000
758.2720, 7315.000
759.4190, 7271.000
760.5670, 7298.000
761.7140, 7308.000
762.8610, 7284.000
764.0080, 7383.000
765.1550, 7274.000
766.3020, 7315.000
767.4480, 7323.000
768.5950, 7386.000
769.7410, 7437.000
770.8870, 7401.000
772.0330, 7467.000
773.1780, 7457.000
774.3240, 7562.000
775.4690, 7437.000
776.6140, 7545.000
777.7590, 7577.000
778.9040, 7599.000
780.0490, 7643.000
781.1940, 7632.069
782.3380, 7555.000
783.4820, 7604.000
784.6260, 7571.000
785.7700, 7539.000
786.9140, 7547.000
788.0580, 7453.000
789.2010, 7542.000
790.3450, 7469.000
791.4880, 7450.000
792.6310, 7565.000
793.7730, 7612.000
794.9160, 7613.000
796.0590, 7561.000
797.2010, 7535.000
798.3430, 7575.000
799.4850, 7555.000
800.6270, 7612.000
801.7690, 7570.000
802.9100, 7537.000
804.0520, 7493.000
805.1930, 7542.000
806.3340, 7416.000
807.4750, 7381.000
808.6160, 7520.000
809.7560, 7642.000
810.8970, 7672.000
812.0370, 7560.000
813.1770, 7692.000
814.3170, 7639.000
815.4570, 7659.000
816.5960, 7606.000
817.7360, 7599.000
818.8750, 7753.000
820.0140, 7725.000
821.1530, 7794.000
822.2920, 7621.000
823.4310, 7673.000
824.5690, 7650.000
825.7070, 7664.000
826.8460, 7685.744
827.9840, 7673.532
829.1220, 7724.000
830.2590, 7668.000
831.3970, 7694.000
832.5340, 7683.000
833.6710, 7754.000
834.8080, 7789.000
835.9450, 7800.000
837.0820, 7720.000
838.2190, 7767.000
839.3550, 7774.000
840.4910, 7926.000
841.6270, 7789.000
842.7630, 7862.000
843.8990, 7939.000
845.0350, 7888.000
846.1700, 8013.000
847.3060, 8043.000
848.4410, 8100.000
849.5760, 8143.000
850.7100, 8208.111
851.8450, 8396.000
852.9800, 8349.000
854.1140, 8484.000
855.2480, 8562.000
856.3820, 8538.000
857.5160, 8582.916
858.6500, 8528.000
859.7830, 8548.000
860.9170, 8433.000
862.0500, 8401.000
863.1830, 8391.000
864.3160, 8392.000
865.4480, 8353.000
866.5810, 8293.000
867.7130, 8400.000
868.8460, 8409.000
869.9780, 8274.000
871.1100, 8332.000
872.2410, 8389.000
873.3730, 8346.000
874.5050, 8419.000
875.6360, 8509.000
876.7670, 8416.000
877.8980, 8351.000
879.0290, 8511.000
880.1590, 8471.000
881.2900, 8466.000
882.4200, 8468.000
883.5500, 8470.000
884.6800, 8493.000
885.8100, 8604.000
886.9400, 8554.000
888.0690, 8561.000
889.1990, 8509.000
890.3280, 8670.000
891.4570, 8435.000
892.5860, 8615.000
893.7140, 8685.000
894.8430, 8667.000
895.9710, 8630.000
897.1000, 8594.000
898.2280, 8514.000
899.3560, 8597.000
900.4830, 8624.000
901.6110, 8634.000
902.7380, 8583.000
903.8660, 8648.000
904.9930, 8570.000
906.1200, 8594.000
907.2460, 8621.000
908.3730, 8634.092
909.5000, 8618.000
910.6260, 8695.000
911.7520, 8797.000
912.8780, 8762.000
914.0040, 8676.000
915.1290, 8634.000
916.2550, 8841.000
917.3800, 8755.000
918.5050, 8785.000
919.6300, 8755.000
920.7550, 8686.000
921.8800, 8710.000
923.0040, 8791.000
924.1290, 8768.000
925.2530, 8767.000
926.3770, 8754.000
927.5010, 8737.000
928.6250, 8735.000
929.7480, 8765.000
930.8720, 8707.000
931.9950, 8720.000
933.1180, 8694.000
934.2410, 8799.000
935.3640, 8797.000
936.4860, 8797.000
937.6090, 8639.000
938.7310, 8748.000
939.8530, 8715.000
940.9750, 8798.000
942.0970, 8806.000
943.2180, 8825.000
944.3400, 8703.000
945.4610, 8903.000
946.5820, 8749.000
947.7030, 8806.000
948.8240, 8781.000
949.9450, 8935.000
951.0650, 8973.000
952.1860, 8863.000
953.3060, 8976.000
954.4260, 9048.000
955.5460, 9129.000
956.6650, 9138.923
957.7850, 9120.000
958.9040, 9093.000
960.0230, 9202.000
961.1420, 9126.000
962.2610, 9203.000
963.3800, 9178.000
964.4990, 9110.000
965.6170, 9236.000
966.7350, 9270.000
967.8530, 9433.000
968.9710, 9404.000
970.0890, 9394.000
971.2070, 9488.000
972.3240, 9440.000
973.4410, 9642.000
974.5580, 9713.000
975.6750, 9631.000
976.7920, 9625.000
977.9090, 9779.000
979.0250, 9793.000
980.1410, 9890.000
981.2580, 10111.00
982.3740, 10103.00
983.4890, 10096.00
984.6050, 10263.00
985.7200, 10474.00
986.8360, 10465.00
987.9510, 10766.00
989.0660, 10866.00
990.1810, 10993.00
991.2950, 11408.00
992.4100, 11524.00
993.5240, 11905.00
994.6390, 12388.00
995.7530, 12826.00
996.8660, 13338.00
997.9800, 14172.00
999.0940, 14970.00
1000.207, 16255.00
1001.320, 17380.00
1002.433, 19391.00
1003.546, 21452.00
1004.659, 24625.00
1005.772, 27950.00
1006.884, 31951.00
1007.996, 36154.00
1009.108, 40769.00
1010.220, 45454.00
1011.332, 50157.00
1012.444, 54579.00
1013.555, 56972.00
1014.666, 55845.00
1015.777, 51554.00
1016.888, 44877.00
1017.999, 37892.00
1019.110, 31192.00
1020.220, 26202.00
1021.331, 22224.00
1022.441, 19249.00
1023.551, 17361.00
1024.661, 15883.00
1025.770, 14798.00
1026.880, 13833.00
1027.989, 13159.00
1029.098, 12702.00
1030.207, 12355.00
1031.316, 12084.00
1032.425, 11845.00
1033.533, 11666.00
1034.642, 11476.00
1035.750, 11371.23
1036.858, 11439.00
1037.966, 11252.00
1039.073, 11311.00
1040.181, 11348.00
1041.288, 11356.00
1042.396, 11305.00
1043.503, 11243.00
1044.610, 11387.00
1045.716, 11230.00
1046.823, 11281.00
1047.929, 11218.00
1049.036, 11268.00
1050.142, 11140.00
1051.248, 11063.00
1052.353, 10942.00
1053.459, 10770.00
1054.564, 10703.00
1055.670, 10664.00
1056.775, 10679.00
1057.880, 10597.04
1058.985, 10517.00
1060.089, 10487.00
1061.194, 10418.04
1062.298, 10296.00
1063.402, 10308.00
1064.506, 10276.00
1065.610, 10194.00
1066.713, 10307.00
1067.817, 10314.00
1068.920, 10287.00
1070.023, 10030.00
1071.126, 10071.00
1072.229, 10151.00
1073.332, 10004.00
1074.435, 10076.00
1075.537, 10167.00
1076.639, 10088.00
1077.741, 10144.55
1078.843, 10047.00
1079.945, 10095.00
1081.046, 10009.00
1082.148, 9890.000
1083.249, 9928.000
1084.350, 9879.000
1085.451, 9872.123
1086.551, 9992.000
1087.652, 9866.000
1088.752, 9917.000
1089.853, 9872.000
1090.953, 9969.000
1092.053, 9941.850
1093.152, 9944.000
1094.252, 9925.000
1095.351, 9896.000
1096.451, 9868.000
1097.550, 9936.000
1098.649, 9861.000
1099.748, 9862.000
1100.846, 9985.000
1101.945, 9946.000
1103.043, 9815.000
1104.141, 10018.00
1105.239, 9888.000
1106.337, 9720.000
1107.434, 9917.000
1108.532, 9883.000
1109.629, 10004.00
1110.726, 9926.000
1111.823, 9885.000
1112.920, 9936.000
1114.017, 9903.000
1115.113, 9899.000
1116.210, 9910.000
1117.306, 9987.000
1118.402, 10111.00
1119.498, 10098.00
1120.593, 10050.00
1121.689, 10219.00
1122.784, 10121.00
1123.879, 10102.00
1124.974, 10192.00
1126.069, 9984.000
1127.164, 10003.00
1128.259, 9954.000
1129.353, 9997.000
1130.447, 10655.00
1131.541, 10291.16
1132.635, 10324.58
1133.729, 10084.00
1134.822, 9932.000
1135.916, 10058.00
1137.009, 9987.000
1138.102, 10000.00
1139.195, 9981.000
1140.288, 9922.000
1141.380, 10056.00
1142.473, 9963.000
1143.565, 9981.000
1144.657, 10062.00
1145.749, 9999.000
1146.841, 9993.000
1147.932, 10002.00
1149.024, 10113.00
1150.115, 9927.000
1151.206, 9996.000
1152.297, 9870.000
1153.388, 9958.000
1154.479, 9954.000
1155.569, 9804.000
1156.659, 10014.00
1157.750, 9935.000
1158.839, 9981.000
1159.929, 9833.000
1161.019, 9853.000
1162.108, 9913.000
1163.198, 9939.000
1164.287, 9861.000
1165.376, 9836.000
1166.465, 9887.000
1167.553, 9994.000
1168.642, 9949.000
1169.730, 10016.00
1170.818, 9900.000
1171.906, 9892.000
1172.994, 9964.000
1174.082, 9904.000
1175.170, 9956.000
1176.257, 9991.895
1177.344, 10029.00
1178.431, 10078.00
1179.518, 10021.00
1180.605, 10045.00
1181.691, 9965.000
1182.778, 9867.000
1183.864, 9962.000
1184.950, 10042.00
1186.036, 9994.000
1187.122, 10004.00
1188.207, 10012.10
1189.292, 9951.000
1190.378, 10014.00
1191.463, 9976.000
1192.548, 10004.00
1193.632, 10100.00
1194.717, 10032.00
1195.801, 10113.81
1196.886, 10117.00
1197.970, 10158.00
1199.054, 10190.00
1200.137, 10126.00
1201.221, 10055.00
1202.305, 10147.00
1203.388, 10230.00
1204.471, 10122.00
1205.554, 10068.00
1206.637, 10166.00
1207.719, 10136.00
1208.802, 10193.00
1209.884, 10156.00
1210.966, 10078.00
1212.048, 10237.00
1213.130, 10155.00
1214.212, 10231.00
1215.293, 10203.00
1216.374, 10125.00
1217.456, 10175.00
1218.536, 10252.00
1219.617, 10211.00
1220.698, 10165.00
1221.778, 10297.00
1222.859, 10248.00
1223.939, 10450.00
1225.019, 10264.00
1226.099, 10279.00
1227.178, 10378.00
1228.258, 10357.00
1229.337, 10300.00
1230.417, 10271.00
1231.496, 10334.00
1232.574, 10336.00
1233.653, 10430.00
1234.732, 10437.00
1235.810, 10249.00
1236.888, 10445.00
1237.966, 10440.00
1239.044, 10338.00
1240.122, 10455.00
1241.199, 10506.00
1242.277, 10441.00
1243.354, 10380.00
1244.431, 10534.00
1245.508, 10400.00
1246.585, 10572.00
1247.661, 10485.00
1248.738, 10472.00
1249.814, 10536.00
1250.890, 10426.00
1251.966, 10578.00
1253.042, 10678.00
1254.117, 10448.00
1255.193, 10454.00
1256.268, 10573.00
1257.343, 10452.00
1258.418, 10517.00
1259.493, 10561.00
1260.567, 10607.00
1261.642, 10675.00
1262.716, 10613.00
1263.790, 10535.00
1264.864, 10651.00
1265.938, 10618.00
1267.011, 10634.00
1268.085, 10666.00
1269.158, 10698.00
1270.231, 10705.00
1271.304, 10724.82
1272.377, 10708.00
1273.450, 10740.00
1274.522, 10746.24
1275.594, 10747.44
1276.666, 10796.00
1277.738, 10737.00
1278.810, 10752.00
1279.882, 10798.00
1280.953, 10800.00
1282.025, 10770.00
1283.096, 10658.00
1284.167, 10812.00
1285.238, 10807.00
1286.308, 10955.00
1287.379, 10788.00
1288.449, 10641.00
1289.519, 10876.00
1290.589, 10776.00
1291.659, 10777.00
1292.729, 10829.00
1293.798, 10747.00
1294.868, 10854.00
1295.937, 10851.00
1297.006, 10838.90
1298.075, 10864.00
1299.143, 10829.00
1300.212, 10792.00
1301.280, 10784.00
1302.348, 10915.00
1303.416, 10998.00
1304.484, 10910.00
1305.552, 11002.00
1306.620, 10929.00
1307.687, 11066.00
1308.754, 10979.00
1309.821, 11024.00
1310.888, 10863.00
1311.955, 10961.00
1313.021, 11061.00
1314.088, 11011.00
1315.154, 11082.00
1316.220, 11063.00
1317.286, 11254.00
1318.352, 11148.00
1319.417, 11248.00
1320.483, 10960.00
1321.548, 11051.00
1322.613, 11140.00
1323.678, 11216.00
1324.743, 11246.00
1325.807, 11150.00
1326.872, 11226.00
1327.936, 11096.00
1329.000, 11066.00
1330.064, 11271.00
1331.128, 11247.00
1332.191, 11283.00
1333.255, 11240.00
1334.318, 11269.00
1335.381, 11264.00
1336.444, 11186.00
1337.507, 11220.00
1338.569, 11170.00
1339.632, 11176.00
1340.694, 11288.00
1341.756, 11316.00
1342.818, 11323.00
1343.880, 11297.00
1344.941, 11326.70
1346.003, 11362.00
1347.064, 11348.00
1348.125, 11420.00
1349.186, 11424.00
1350.247, 11256.00
1351.308, 11425.00
1352.368, 11367.00
1353.428, 11395.00
1354.489, 11568.00
1355.549, 11475.00
1356.608, 11503.00
1357.668, 11429.00
1358.727, 11468.00
1359.787, 11453.00
1360.846, 11416.00
1361.905, 11472.00
1362.964, 11391.00
1364.022, 11467.00
1365.081, 11549.00
1366.139, 11553.00
1367.197, 11525.00
1368.255, 11561.00
1369.313, 11438.00
1370.371, 11519.00
1371.428, 11522.00
1372.486, 11476.00
1373.543, 11540.00
1374.600, 11481.00
1375.657, 11563.00
1376.713, 11493.00
1377.770, 11388.00
1378.826, 11595.00
1379.882, 11674.00
1380.938, 11661.00
1381.994, 11652.00
1383.050, 11659.00
1384.106, 11564.00
1385.161, 11655.00
1386.216, 11572.00
1387.271, 11639.00
1388.326, 11559.00
1389.381, 11737.00
1390.435, 11701.00
1391.490, 11801.00
1392.544, 11778.00
1393.598, 11669.00
1394.652, 11716.00
1395.705, 11657.00
1396.759, 11797.00
1397.812, 11864.00
1398.866, 11890.00
1399.919, 11908.89
1400.972, 11798.00
1402.024, 11846.00
1403.077, 11734.00
1404.129, 11675.00
1405.181, 11700.00
1406.233, 11860.00
1407.285, 11705.00
1408.337, 11891.00
1409.389, 11813.00
1410.440, 11863.00
1411.491, 12005.00
1412.542, 11757.00
1413.593, 11839.00
1414.644, 11959.00
1415.695, 11877.00
1416.745, 11960.00
1417.795, 11956.00
1418.845, 11976.00
1419.895, 11949.00
1420.945, 12050.00
1421.995, 11952.00
1423.044, 12146.00
1424.093, 12013.00
1425.142, 11997.00
1426.191, 12115.00
1427.240, 12007.00
1428.289, 12056.00
1429.337, 12078.00
1430.385, 11981.00
1431.433, 12142.00
1432.481, 12188.00
1433.529, 11974.00
1434.577, 12031.00
1435.624, 12064.00
1436.672, 12197.00
1437.719, 12163.00
1438.766, 12216.00
1439.812, 12162.00
1440.859, 12263.00
1441.905, 12066.00
1442.952, 12179.00
1443.998, 12192.00
1445.044, 12126.00
1446.090, 12238.00
1447.135, 12332.00
1448.181, 12377.00
1449.226, 12292.00
1450.271, 12248.00
1451.316, 12290.00
1452.361, 12061.00
1453.405, 12333.00
1454.450, 12397.00
1455.494, 12311.00
1456.538, 12485.00
1457.582, 12292.00
1458.626, 12322.00
1459.670, 12358.00
1460.713, 12379.00
1461.757, 12404.00
1462.800, 12417.00
1463.843, 12436.11
1464.886, 12457.86
1465.928, 12466.00
1466.971, 12498.00
1468.013, 12513.00
1469.055, 12528.00
1470.097, 12509.00
1471.139, 12545.00
1472.181, 12572.26
1473.222, 12410.00
1474.263, 12611.00
1475.305, 12679.00
1476.346, 12603.00
1477.386, 12757.00
1478.427, 12589.00
1479.468, 12713.00
1480.508, 12628.00
1481.548, 12614.00
1482.588, 12811.00
1483.628, 12629.00
1484.668, 12880.00
1485.707, 12625.00
1486.747, 12663.00
1487.786, 12843.00
1488.825, 12758.00
1489.864, 12758.00
1490.902, 12718.00
1491.941, 12800.00
1492.979, 12729.00
1494.017, 12827.00
1495.055, 12812.00
1496.093, 12777.00
1497.131, 12904.00
1498.168, 12840.00
1499.206, 12814.00
1500.243, 12859.00
1501.280, 12905.00
1502.317, 12879.00
1503.354, 12948.00
1504.390, 13032.00
1505.426, 12901.00
1506.463, 12880.00
1507.499, 13051.00
1508.535, 13051.00
1509.570, 12936.00
1510.606, 13094.00
1511.641, 12855.00
1512.676, 13167.00
1513.711, 13094.00
1514.746, 13078.00
1515.781, 13111.00
1516.816, 12899.00
1517.850, 13190.00
1518.884, 13295.00
1519.918, 13147.00
1520.952, 13229.00
1521.986, 13134.00
1523.019, 13154.00
1524.053, 13169.00
1525.086, 13333.00
1526.119, 13211.00
1527.152, 13305.00
1528.185, 13170.00
1529.217, 13272.00
1530.250, 13270.00
1531.282, 13432.00
1532.314, 13251.00
1533.346, 13353.00
1534.377, 13226.00
1535.409, 13165.00
1536.440, 13249.71
1537.472, 13450.00
1538.503, 13362.00
1539.534, 13418.00
1540.564, 13459.00
1541.595, 13375.00
1542.625, 13455.00
1543.656, 13450.00
1544.686, 13452.00
1545.716, 13485.00
1546.745, 13480.32
1547.775, 13472.00
1548.804, 13509.00
1549.834, 13443.00
1550.863, 13477.00
1551.892, 13498.93
1552.920, 13729.00
1553.949, 13551.00
1554.977, 13581.00
1556.006, 13565.00
1557.034, 13414.00
1558.062, 13660.00
1559.089, 13669.00
1560.117, 13810.00
1561.144, 13638.00
1562.172, 13683.00
1563.199, 13720.00
1564.226, 13705.00
1565.252, 13707.00
1566.279, 13809.00
1567.305, 13859.00
1568.332, 13774.00
1569.358, 13893.00
1570.384, 13937.00
1571.409, 13736.00
1572.435, 13876.00
##END=



