##NAMES=Diopside
##RRUFFID=R060171
##IDEAL CHEMISTRY=CaMgSi_2_O_6_
##LOCALITY=Jeffrey mine, Asbestos, Quebec, Canada
##OWNER=RRUFF
##SOURCE=Guy Ouellet
##DESCRIPTION=Yellowish-brown tabular crystals associated with vesuvianite, R060170
##STATUS=The identification of this mineral has been confirmed by X-ray diffraction and chemical analysis
##URL=rruff.info/R060171
##MEASURED CHEMISTRY=Ca_1.00_(Mg_0.98_Mn_0.02_)_Î£=1_Si_2.00_O_6_
##PIN_ID=L00876
##ORIENTATION=Laser parallel to -b* (0 -1 0). Fiducial mark perpendicular to laser is parallel to -c [0 0 -1]
95.94800, 3331.000
97.18200, 3349.000
98.41600, 3397.000
99.64900, 3500.000
100.8830, 3527.000
102.1160, 3527.000
103.3490, 3710.000
104.5820, 3901.000
105.8150, 4056.000
107.0470, 4348.000
108.2800, 4568.000
109.5120, 4424.000
110.7440, 4168.000
111.9760, 4154.000
113.2080, 4202.000
114.4400, 4353.000
115.6710, 4493.000
116.9030, 4889.000
118.1340, 5222.000
119.3650, 5089.000
120.5960, 4660.000
121.8270, 4543.000
123.0580, 4746.000
124.2880, 4801.000
125.5190, 5136.000
126.7490, 5517.000
127.9790, 6448.000
129.2090, 7730.000
130.4390, 9202.000
131.6680, 10252.00
132.8980, 10651.00
134.1270, 11511.00
135.3560, 13050.00
136.5850, 14168.00
137.8140, 14263.00
139.0430, 14767.00
140.2710, 16521.00
141.5000, 19587.00
142.7280, 21173.00
143.9560, 19657.00
145.1840, 16277.00
146.4120, 12074.00
147.6390, 8876.000
148.8670, 6927.000
150.0940, 6067.000
151.3210, 5519.000
152.5490, 5053.000
153.7750, 5020.000
155.0020, 4885.000
156.2290, 4697.000
157.4550, 4663.000
158.6810, 4589.000
159.9080, 4601.000
161.1340, 4510.000
162.3590, 4609.000
163.5850, 4518.000
164.8110, 4458.000
166.0360, 4536.000
167.2610, 4570.000
168.4860, 4502.000
169.7110, 4497.000
170.9360, 4536.000
172.1610, 4505.793
173.3850, 4643.000
174.6100, 4537.000
175.8340, 4662.000
177.0580, 4738.000
178.2820, 4737.000
179.5050, 4695.000
180.7290, 4739.000
181.9520, 4904.000
183.1760, 5077.000
184.3990, 5047.000
185.6220, 4960.000
186.8450, 4898.000
188.0670, 4645.000
189.2900, 4538.000
190.5120, 4523.000
191.7340, 4481.000
192.9560, 4507.000
194.1780, 4473.000
195.4000, 4513.000
196.6220, 4480.000
197.8430, 4609.000
199.0640, 4568.000
200.2860, 4546.000
201.5070, 4608.000
202.7270, 4510.000
203.9480, 4569.000
205.1690, 4509.000
206.3890, 4467.000
207.6090, 4528.000
208.8290, 4406.000
210.0490, 4455.000
211.2690, 4488.000
212.4890, 4412.000
213.7080, 4453.000
214.9280, 4492.000
216.1470, 4465.000
217.3660, 4509.516
218.5850, 4510.000
219.8030, 4547.000
221.0220, 4593.000
222.2400, 4608.000
223.4590, 4684.000
224.6770, 4827.000
225.8950, 4829.000
227.1120, 4898.000
228.3300, 4877.000
229.5480, 5002.000
230.7650, 5122.000
231.9820, 5191.000
233.1990, 5314.000
234.4160, 5459.000
235.6330, 5548.000
236.8490, 5355.000
238.0660, 5217.000
239.2820, 4985.000
240.4980, 4795.000
241.7140, 4873.000
242.9300, 4840.000
244.1460, 4764.000
245.3610, 4974.000
246.5770, 4928.000
247.7920, 4930.000
249.0070, 5051.000
250.2220, 5080.000
251.4370, 5185.937
252.6510, 5383.000
253.8660, 5431.000
255.0800, 5580.000
256.2940, 5761.000
257.5080, 5937.000
258.7220, 5893.000
259.9360, 5528.000
261.1490, 5033.000
262.3630, 4896.000
263.5760, 4685.000
264.7890, 4727.000
266.0020, 4722.000
267.2150, 4681.000
268.4270, 4709.576
269.6400, 4661.000
270.8520, 4687.000
272.0640, 4668.000
273.2760, 4590.000
274.4880, 4637.000
275.7000, 4614.969
276.9120, 4619.000
278.1230, 4640.000
279.3340, 4625.000
280.5450, 4639.000
281.7560, 4689.000
282.9670, 4732.000
284.1780, 4757.000
285.3880, 4737.000
286.5980, 4786.000
287.8090, 4828.000
289.0190, 4733.000
290.2290, 4856.000
291.4380, 4819.000
292.6480, 4827.000
293.8570, 4947.000
295.0670, 5004.000
296.2760, 4973.000
297.4850, 5006.000
298.6930, 5088.000
299.9020, 5302.000
301.1110, 5389.000
302.3190, 5551.000
303.5270, 5815.000
304.7350, 5958.000
305.9430, 6117.000
307.1510, 6365.000
308.3580, 6532.000
309.5660, 6909.103
310.7730, 7232.000
311.9800, 7775.000
313.1870, 8317.000
314.3940, 8933.000
315.6010, 9344.000
316.8070, 9741.000
318.0130, 10074.00
319.2200, 10569.00
320.4260, 10982.00
321.6310, 11538.00
322.8370, 12497.00
324.0430, 13545.00
325.2480, 13852.00
326.4540, 13523.00
327.6590, 12302.00
328.8640, 10819.00
330.0680, 9109.000
331.2730, 7858.000
332.4780, 7140.000
333.6820, 6630.000
334.8860, 6149.000
336.0900, 6044.000
337.2940, 5700.000
338.4980, 5643.000
339.7010, 5555.000
340.9050, 5560.000
342.1080, 5593.000
343.3110, 5600.000
344.5140, 5661.000
345.7170, 5772.000
346.9200, 5947.714
348.1220, 6177.000
349.3240, 6457.000
350.5270, 6842.000
351.7290, 7229.500
352.9310, 7628.863
354.1320, 8071.000
355.3340, 8507.000
356.5350, 8915.000
357.7370, 9360.000
358.9380, 9846.000
360.1390, 10530.00
361.3400, 10724.00
362.5400, 10540.00
363.7410, 9807.000
364.9410, 8827.000
366.1410, 8097.000
367.3410, 7573.000
368.5410, 7201.000
369.7410, 6930.000
370.9400, 6858.000
372.1400, 6728.000
373.3390, 6934.000
374.5380, 6866.000
375.7370, 7195.000
376.9360, 7585.000
378.1350, 8117.000
379.3330, 8963.000
380.5310, 9767.000
381.7300, 10908.00
382.9280, 11830.00
384.1260, 12684.00
385.3230, 13598.00
386.5210, 14717.00
387.7180, 15605.00
388.9160, 16825.00
390.1130, 18231.00
391.3100, 18726.00
392.5060, 17576.00
393.7030, 15442.00
394.9000, 12922.00
396.0960, 10536.00
397.2920, 8906.000
398.4880, 7880.000
399.6840, 7015.000
400.8800, 6623.000
402.0750, 6284.000
403.2710, 6056.000
404.4660, 5866.000
405.6610, 5728.000
406.8560, 5622.000
408.0510, 5540.000
409.2450, 5566.000
410.4400, 5454.000
411.6340, 5439.000
412.8280, 5344.000
414.0220, 5327.000
415.2160, 5311.000
416.4100, 5332.000
417.6030, 5295.000
418.7970, 5216.000
419.9900, 5264.000
421.1830, 5201.963
422.3760, 5265.000
423.5690, 5209.000
424.7610, 5185.000
425.9540, 5319.000
427.1460, 5244.000
428.3380, 5258.000
429.5300, 5228.000
430.7220, 5258.000
431.9140, 5277.000
433.1050, 5142.000
434.2970, 5285.000
435.4880, 5197.000
436.6790, 5235.000
437.8700, 5160.000
439.0610, 5273.000
440.2510, 5171.000
441.4420, 5243.000
442.6320, 5201.000
443.8220, 5198.000
445.0120, 5170.000
446.2020, 5172.493
447.3910, 5289.000
448.5810, 5173.000
449.7700, 5220.000
450.9600, 5195.000
452.1490, 5330.000
453.3370, 5191.000
454.5260, 5372.000
455.7150, 5341.000
456.9030, 5265.000
458.0910, 5322.000
459.2800, 5309.000
460.4670, 5288.000
461.6550, 5305.000
462.8430, 5425.000
464.0300, 5325.000
465.2180, 5338.000
466.4050, 5277.000
467.5920, 5389.000
468.7790, 5380.000
469.9650, 5316.000
471.1520, 5340.000
472.3380, 5308.000
473.5250, 5349.000
474.7110, 5362.000
475.8970, 5413.000
477.0820, 5400.000
478.2680, 5423.062
479.4540, 5383.000
480.6390, 5445.000
481.8240, 5424.000
483.0090, 5443.000
484.1940, 5447.000
485.3780, 5449.000
486.5630, 5427.000
487.7470, 5445.526
488.9320, 5456.445
490.1160, 5473.000
491.3000, 5506.000
492.4830, 5533.000
493.6670, 5569.730
494.8500, 5587.000
496.0340, 5689.000
497.2170, 5802.000
498.4000, 5901.000
499.5820, 6114.000
500.7650, 6294.000
501.9480, 6465.000
503.1300, 6632.000
504.3120, 6760.000
505.4940, 7008.000
506.6760, 7179.000
507.8580, 7545.000
509.0390, 7739.000
510.2210, 7601.000
511.4020, 7263.000
512.5830, 6707.000
513.7640, 6380.000
514.9450, 6131.000
516.1250, 5926.000
517.3060, 5781.000
518.4860, 5832.000
519.6660, 5731.000
520.8460, 5696.000
522.0260, 5684.000
523.2060, 5632.000
524.3850, 5633.000
525.5650, 5715.000
526.7440, 5788.000
527.9230, 5714.000
529.1020, 5728.000
530.2810, 5868.000
531.4590, 5792.000
532.6380, 5740.000
533.8160, 5722.000
534.9940, 5631.000
536.1720, 5578.000
537.3500, 5610.000
538.5270, 5642.000
539.7050, 5669.000
540.8820, 5554.000
542.0590, 5574.000
543.2360, 5553.000
544.4130, 5582.000
545.5900, 5656.000
546.7660, 5589.000
547.9430, 5583.000
549.1190, 5662.000
550.2950, 5739.000
551.4710, 5688.000
552.6470, 5746.580
553.8220, 5748.000
554.9980, 5737.000
556.1730, 5763.000
557.3480, 5704.000
558.5230, 5743.000
559.6980, 5772.000
560.8730, 5852.000
562.0470, 5766.000
563.2220, 5845.000
564.3960, 5763.000
565.5700, 5722.000
566.7440, 5616.000
567.9170, 5712.000
569.0910, 5694.000
570.2640, 5665.000
571.4380, 5723.000
572.6110, 5672.000
573.7840, 5739.000
574.9570, 5697.000
576.1290, 5746.000
577.3020, 5747.000
578.4740, 5731.000
579.6460, 5687.000
580.8180, 5795.000
581.9900, 5746.000
583.1620, 5798.000
584.3330, 5786.000
585.5040, 5707.000
586.6760, 5857.000
587.8470, 5777.000
589.0180, 5750.000
590.1880, 5810.000
591.3590, 5790.000
592.5290, 5755.000
593.7000, 5852.000
594.8700, 5822.000
596.0400, 5891.000
597.2090, 5850.000
598.3790, 5897.000
599.5490, 5933.000
600.7180, 5887.000
601.8870, 5952.000
603.0560, 5849.000
604.2250, 5988.000
605.3940, 5925.000
606.5620, 5932.000
607.7300, 6006.000
608.8990, 6060.000
610.0670, 6031.000
611.2350, 6146.000
612.4020, 6091.000
613.5700, 6129.000
614.7370, 6118.000
615.9050, 6162.000
617.0720, 6143.000
618.2390, 6202.000
619.4060, 6226.000
620.5720, 6286.000
621.7390, 6320.000
622.9050, 6430.000
624.0710, 6472.000
625.2370, 6505.000
626.4030, 6508.000
627.5690, 6663.000
628.7340, 6668.000
629.9000, 6791.000
631.0650, 6826.000
632.2300, 6843.000
633.3950, 6889.000
634.5600, 7028.000
635.7240, 7192.000
636.8890, 7194.000
638.0530, 7312.000
639.2170, 7519.000
640.3810, 7598.000
641.5450, 7907.000
642.7080, 8024.000
643.8720, 8256.000
645.0350, 8690.000
646.1980, 8964.000
647.3610, 9424.000
648.5240, 9847.000
649.6870, 10432.00
650.8490, 11346.00
652.0120, 12512.00
653.1740, 13884.00
654.3360, 15586.00
655.4980, 18072.00
656.6600, 20724.00
657.8210, 24050.00
658.9830, 27314.00
660.1440, 31241.00
661.3050, 34906.00
662.4660, 38925.00
663.6270, 42253.00
664.7870, 45353.00
665.9480, 48066.00
667.1080, 47997.00
668.2680, 46503.00
669.4280, 42273.00
670.5880, 36596.00
671.7480, 31028.00
672.9070, 25727.00
674.0670, 21560.00
675.2260, 18355.00
676.3850, 16124.00
677.5440, 14027.00
678.7030, 12772.00
679.8610, 11577.00
681.0200, 10833.00
682.1780, 10211.00
683.3360, 9488.000
684.4940, 8895.000
685.6520, 8636.000
686.8090, 8391.000
687.9670, 8008.000
689.1240, 7874.000
690.2810, 7658.000
691.4380, 7486.000
692.5950, 7350.386
693.7520, 7169.000
694.9080, 7106.000
696.0650, 6998.000
697.2210, 6939.426
698.3770, 6907.000
699.5330, 6788.000
700.6880, 6801.000
701.8440, 6718.000
702.9990, 6616.000
704.1550, 6601.000
705.3100, 6638.000
706.4650, 6539.000
707.6190, 6546.000
708.7740, 6616.000
709.9290, 6434.000
711.0830, 6585.000
712.2370, 6444.000
713.3910, 6431.000
714.5450, 6471.000
715.6980, 6360.000
716.8520, 6400.000
718.0050, 6417.000
719.1580, 6435.000
720.3110, 6434.366
721.4640, 6361.000
722.6170, 6389.000
723.7700, 6347.000
724.9220, 6268.000
726.0740, 6324.000
727.2260, 6332.000
728.3780, 6301.000
729.5300, 6312.000
730.6810, 6336.000
731.8330, 6428.000
732.9840, 6335.000
734.1350, 6373.000
735.2860, 6325.000
736.4370, 6286.000
737.5880, 6464.000
738.7380, 6275.000
739.8880, 6414.000
741.0390, 6362.000
742.1890, 6452.000
743.3380, 6327.000
744.4880, 6345.000
745.6380, 6323.000
746.7870, 6332.000
747.9360, 6375.000
749.0850, 6313.000
750.2340, 6343.000
751.3830, 6363.000
752.5310, 6391.000
753.6800, 6459.000
754.8280, 6333.000
755.9760, 6425.000
757.1240, 6334.000
758.2720, 6408.000
759.4190, 6427.000
760.5670, 6354.000
761.7140, 6321.000
762.8610, 6371.000
764.0080, 6323.309
765.1550, 6433.000
766.3020, 6329.000
767.4480, 6435.000
768.5950, 6483.000
769.7410, 6442.000
770.8870, 6472.000
772.0330, 6479.978
773.1780, 6510.000
774.3240, 6519.000
775.4690, 6538.403
776.6140, 6524.000
777.7590, 6554.000
778.9040, 6528.000
780.0490, 6490.000
781.1940, 6547.000
782.3380, 6598.000
783.4820, 6500.000
784.6260, 6618.000
785.7700, 6619.000
786.9140, 6571.000
788.0580, 6576.000
789.2010, 6528.000
790.3450, 6564.000
791.4880, 6633.000
792.6310, 6552.000
793.7730, 6604.000
794.9160, 6636.000
796.0590, 6569.000
797.2010, 6649.000
798.3430, 6525.000
799.4850, 6635.000
800.6270, 6576.000
801.7690, 6592.000
802.9100, 6555.000
804.0520, 6575.000
805.1930, 6627.000
806.3340, 6656.000
807.4750, 6639.000
808.6160, 6660.234
809.7560, 6666.000
810.8970, 6650.000
812.0370, 6646.000
813.1770, 6638.000
814.3170, 6724.000
815.4570, 6614.000
816.5960, 6726.000
817.7360, 6693.000
818.8750, 6752.000
820.0140, 6675.000
821.1530, 6704.000
822.2920, 6660.000
823.4310, 6813.000
824.5690, 6812.000
825.7070, 6779.000
826.8460, 6842.000
827.9840, 6744.000
829.1220, 6808.000
830.2590, 6855.000
831.3970, 6949.000
832.5340, 6913.000
833.6710, 6918.000
834.8080, 7012.000
835.9450, 7061.000
837.0820, 7067.000
838.2190, 7182.000
839.3550, 7202.000
840.4910, 7338.000
841.6270, 7461.000
842.7630, 7807.000
843.8990, 8074.000
845.0350, 8585.000
846.1700, 9034.000
847.3060, 9774.000
848.4410, 10441.00
849.5760, 11125.00
850.7100, 11728.00
851.8450, 12653.00
852.9800, 13217.00
854.1140, 13961.00
855.2480, 13737.00
856.3820, 13013.00
857.5160, 11968.00
858.6500, 10695.00
859.7830, 9672.000
860.9170, 9040.000
862.0500, 8383.000
863.1830, 8132.000
864.3160, 7823.000
865.4480, 7628.000
866.5810, 7580.000
867.7130, 7487.000
868.8460, 7338.000
869.9780, 7222.000
871.1100, 7232.000
872.2410, 7151.000
873.3730, 7127.000
874.5050, 7093.775
875.6360, 7001.000
876.7670, 7030.000
877.8980, 7118.000
879.0290, 7116.000
880.1590, 7090.000
881.2900, 7129.998
882.4200, 7131.000
883.5500, 7095.000
884.6800, 7137.000
885.8100, 7020.000
886.9400, 6996.000
888.0690, 7099.000
889.1990, 7114.000
890.3280, 7035.000
891.4570, 7150.000
892.5860, 7102.000
893.7140, 7091.000
894.8430, 7106.000
895.9710, 7093.000
897.1000, 7101.000
898.2280, 7106.000
899.3560, 7022.000
900.4830, 7120.000
901.6110, 7051.000
902.7380, 7128.000
903.8660, 7198.000
904.9930, 7109.000
906.1200, 7082.000
907.2460, 7174.000
908.3730, 7176.000
909.5000, 7068.000
910.6260, 7186.000
911.7520, 7205.000
912.8780, 7145.000
914.0040, 7245.000
915.1290, 7298.000
916.2550, 7133.000
917.3800, 7236.000
918.5050, 7308.000
919.6300, 7215.000
920.7550, 7335.000
921.8800, 7241.000
923.0040, 7259.000
924.1290, 7359.000
925.2530, 7257.000
926.3770, 7367.000
927.5010, 7352.000
928.6250, 7311.000
929.7480, 7321.000
930.8720, 7328.000
931.9950, 7368.000
933.1180, 7367.544
934.2410, 7398.997
935.3640, 7371.000
936.4860, 7439.000
937.6090, 7411.000
938.7310, 7399.000
939.8530, 7411.000
940.9750, 7481.000
942.0970, 7398.000
943.2180, 7450.000
944.3400, 7464.000
945.4610, 7578.000
946.5820, 7496.000
947.7030, 7451.000
948.8240, 7552.000
949.9450, 7465.000
951.0650, 7455.000
952.1860, 7656.000
953.3060, 7502.000
954.4260, 7598.000
955.5460, 7597.000
956.6650, 7633.000
957.7850, 7697.000
958.9040, 7668.000
960.0230, 7636.000
961.1420, 7687.000
962.2610, 7582.000
963.3800, 7730.000
964.4990, 7757.000
965.6170, 7745.000
966.7350, 7821.000
967.8530, 7830.000
968.9710, 7870.000
970.0890, 7848.000
971.2070, 7847.000
972.3240, 7935.000
973.4410, 7872.000
974.5580, 7967.000
975.6750, 7971.000
976.7920, 8168.000
977.9090, 8077.000
979.0250, 8220.000
980.1410, 8141.000
981.2580, 8318.000
982.3740, 8326.000
983.4890, 8383.000
984.6050, 8433.000
985.7200, 8576.000
986.8360, 8716.000
987.9510, 8672.000
989.0660, 8909.000
990.1810, 8947.000
991.2950, 9130.000
992.4100, 9243.000
993.5240, 9631.000
994.6390, 9815.000
995.7530, 10016.00
996.8660, 10442.00
997.9800, 11151.00
999.0940, 11610.00
1000.207, 12465.00
1001.320, 13679.00
1002.433, 15407.00
1003.546, 17763.00
1004.659, 21101.00
1005.772, 25773.00
1006.884, 30977.00
1007.996, 36811.00
1009.108, 43070.00
1010.220, 49051.00
1011.332, 54779.00
1012.444, 59373.00
1013.555, 61585.00
1014.666, 59563.00
1015.777, 52675.00
1016.888, 43133.00
1017.999, 34136.00
1019.110, 26986.00
1020.220, 21716.00
1021.331, 18318.00
1022.441, 15923.00
1023.551, 14316.00
1024.661, 13246.00
1025.770, 12464.00
1026.880, 11901.00
1027.989, 11759.00
1029.098, 11231.00
1030.207, 11110.00
1031.316, 10971.00
1032.425, 10875.00
1033.533, 10819.00
1034.642, 10973.00
1035.750, 11049.00
1036.858, 11339.00
1037.966, 11677.00
1039.073, 12133.00
1040.181, 12972.00
1041.288, 14109.00
1042.396, 15307.00
1043.503, 16410.00
1044.610, 17483.00
1045.716, 18687.00
1046.823, 19587.00
1047.929, 20325.00
1049.036, 20031.00
1050.142, 19072.00
1051.248, 17547.00
1052.353, 15739.00
1053.459, 13953.00
1054.564, 12626.00
1055.670, 11423.00
1056.775, 10798.00
1057.880, 10300.00
1058.985, 9930.000
1060.089, 9546.000
1061.194, 9277.000
1062.298, 9199.000
1063.402, 9217.000
1064.506, 9081.000
1065.610, 8828.000
1066.713, 8752.000
1067.817, 8584.000
1068.920, 8575.895
1070.023, 8687.000
1071.126, 8623.000
1072.229, 8584.000
1073.332, 8594.000
1074.435, 8636.000
1075.537, 8612.000
1076.639, 8575.000
1077.741, 8563.000
1078.843, 8544.000
1079.945, 8478.000
1081.046, 8465.774
1082.148, 8419.000
1083.249, 8434.000
1084.350, 8424.000
1085.451, 8475.000
1086.551, 8460.000
1087.652, 8480.000
1088.752, 8509.000
1089.853, 8403.000
1090.953, 8364.000
1092.053, 8536.000
1093.152, 8435.000
1094.252, 8536.000
1095.351, 8452.000
1096.451, 8470.000
1097.550, 8472.000
1098.649, 8448.000
1099.748, 8603.000
1100.846, 8407.000
1101.945, 8533.000
1103.043, 8503.000
1104.141, 8417.000
1105.239, 8544.000
1106.337, 8379.000
1107.434, 8440.000
1108.532, 8541.000
1109.629, 8583.000
1110.726, 8516.000
1111.823, 8505.000
1112.920, 8529.000
1114.017, 8658.000
1115.113, 8581.000
1116.210, 8669.000
1117.306, 8654.000
1118.402, 8804.000
1119.498, 8715.000
1120.593, 8610.000
1121.689, 8749.000
1122.784, 8759.000
1123.879, 8618.000
1124.974, 8647.000
1126.069, 8674.000
1127.164, 8725.000
1128.259, 8657.000
1129.353, 8672.000
1130.447, 8652.000
1131.541, 8572.000
1132.635, 8600.000
1133.729, 8625.000
1134.822, 8569.000
1135.916, 8541.000
1137.009, 8609.000
1138.102, 8755.000
1139.195, 8643.000
1140.288, 8708.000
1141.380, 8679.000
1142.473, 8660.000
1143.565, 8650.000
1144.657, 8685.000
1145.749, 8691.000
1146.841, 8714.409
1147.932, 8702.000
1149.024, 8760.000
1150.115, 8725.428
1151.206, 8728.451
1152.297, 8636.000
1153.388, 8727.000
1154.479, 8674.000
1155.569, 8585.000
1156.659, 8650.000
1157.750, 8806.000
1158.839, 8604.000
1159.929, 8746.000
1161.019, 8708.000
1162.108, 8667.000
1163.198, 8717.000
1164.287, 8715.000
1165.376, 8717.000
1166.465, 8765.000
1167.553, 8625.000
1168.642, 8699.000
1169.730, 8585.000
1170.818, 8773.000
1171.906, 8731.000
1172.994, 8705.000
1174.082, 8735.000
1175.170, 8696.000
1176.257, 8766.000
1177.344, 8851.000
1178.431, 8710.000
1179.518, 8646.000
1180.605, 8648.000
1181.691, 8722.000
1182.778, 8653.000
1183.864, 8728.000
1184.950, 8824.000
1186.036, 8721.000
1187.122, 8824.000
1188.207, 8799.000
1189.292, 8838.000
1190.378, 8859.000
1191.463, 8824.000
1192.548, 8893.737
1193.632, 8791.000
1194.717, 8974.000
1195.801, 8865.000
1196.886, 8853.000
1197.970, 8873.000
1199.054, 8860.000
1200.137, 8872.000
1201.221, 8888.000
1202.305, 8902.000
1203.388, 8827.000
1204.471, 8939.000
1205.554, 8890.000
1206.637, 8883.000
1207.719, 8928.000
1208.802, 8899.000
1209.884, 9020.000
1210.966, 8843.000
1212.048, 9044.000
1213.130, 8990.000
1214.212, 8872.000
1215.293, 9131.000
1216.374, 9059.000
1217.456, 8918.000
1218.536, 8963.000
1219.617, 9077.000
1220.698, 9129.000
1221.778, 9078.000
1222.859, 9008.000
1223.939, 8940.000
1225.019, 9052.000
1226.099, 9116.000
1227.178, 8997.000
1228.258, 9169.000
1229.337, 9119.000
1230.417, 9242.000
1231.496, 9106.000
1232.574, 9107.000
1233.653, 9157.000
1234.732, 9203.000
1235.810, 9182.000
1236.888, 9226.000
1237.966, 9318.000
1239.044, 9187.000
1240.122, 9384.000
1241.199, 9255.000
1242.277, 9310.000
1243.354, 9265.000
1244.431, 9354.000
1245.508, 9339.000
1246.585, 9267.000
1247.661, 9392.000
1248.738, 9268.000
1249.814, 9377.000
1250.890, 9344.000
1251.966, 9424.000
1253.042, 9475.000
1254.117, 9496.000
1255.193, 9522.337
1256.268, 9537.378
1257.343, 9503.000
1258.418, 9536.000
1259.493, 9477.000
1260.567, 9441.000
1261.642, 9561.000
1262.716, 9560.000
1263.790, 9526.000
1264.864, 9505.000
1265.938, 9629.000
1267.011, 9530.000
1268.085, 9579.000
1269.158, 9535.000
1270.231, 9522.000
1271.304, 9470.000
1272.377, 9587.000
1273.450, 9598.000
1274.522, 9567.000
1275.594, 9501.000
1276.666, 9691.000
1277.738, 9707.000
1278.810, 9685.000
1279.882, 9666.000
1280.953, 9812.000
1282.025, 9696.000
1283.096, 9726.000
1284.167, 9768.000
1285.238, 9661.000
1286.308, 9686.000
1287.379, 9612.000
1288.449, 9642.802
1289.519, 9675.000
1290.589, 9718.000
1291.659, 9828.000
1292.729, 9866.000
1293.798, 9871.000
1294.868, 9894.788
1295.937, 9904.635
1297.006, 9830.000
1298.075, 9866.000
1299.143, 9760.000
1300.212, 9621.000
1301.280, 9878.000
1302.348, 9881.000
1303.416, 9784.000
1304.484, 9939.000
1305.552, 9907.000
1306.620, 9883.000
1307.687, 9923.000
1308.754, 9911.968
1309.821, 9957.000
1310.888, 9941.000
1311.955, 9922.000
1313.021, 9923.000
1314.088, 10011.00
1315.154, 10052.00
1316.220, 9911.000
1317.286, 10082.00
1318.352, 9926.000
1319.417, 9996.018
1320.483, 10192.00
1321.548, 10050.00
1322.613, 10087.00
1323.678, 10057.00
1324.743, 10091.00
1325.807, 10080.00
1326.872, 10138.00
1327.936, 10181.00
1329.000, 10160.00
1330.064, 10279.00
1331.128, 10241.00
1332.191, 10282.00
1333.255, 10220.00
1334.318, 10257.00
1335.381, 10190.00
1336.444, 10278.00
1337.507, 10304.00
1338.569, 10223.00
1339.632, 10357.00
1340.694, 10122.00
1341.756, 10266.00
1342.818, 10335.00
1343.880, 10407.00
1344.941, 10312.00
1346.003, 10380.00
1347.064, 10285.00
1348.125, 10276.00
1349.186, 10323.00
1350.247, 10199.00
1351.308, 10208.00
1352.368, 10266.00
1353.428, 10292.00
1354.489, 10292.00
1355.549, 10270.00
1356.608, 10273.00
1357.668, 10403.00
1358.727, 10352.00
1359.787, 10283.00
1360.846, 10381.00
1361.905, 10541.00
1362.964, 10348.00
1364.022, 10504.00
1365.081, 10353.00
1366.139, 10470.00
1367.197, 10412.00
1368.255, 10304.00
1369.313, 10444.00
1370.371, 10337.00
1371.428, 10365.00
1372.486, 10429.00
1373.543, 10445.00
1374.600, 10382.00
1375.657, 10494.00
1376.713, 10508.00
1377.770, 10476.00
1378.826, 10563.00
1379.882, 10604.00
1380.938, 10567.00
1381.994, 10571.00
1383.050, 10517.00
1384.106, 10547.00
1385.161, 10584.00
1386.216, 10544.00
1387.271, 10539.00
1388.326, 10583.00
1389.381, 10585.00
1390.435, 10620.00
1391.490, 10647.00
1392.544, 10574.00
1393.598, 10659.00
1394.652, 10636.00
1395.705, 10825.00
1396.759, 10685.00
1397.812, 10760.00
1398.866, 10596.00
1399.919, 10747.00
1400.972, 10638.00
1402.024, 10618.00
1403.077, 10675.00
1404.129, 10664.00
1405.181, 10706.00
1406.233, 10703.00
1407.285, 10656.00
1408.337, 10789.00
1409.389, 10736.00
1410.440, 10775.00
1411.491, 10739.00
1412.542, 10784.00
1413.593, 10704.00
1414.644, 10753.90
1415.695, 10792.00
1416.745, 10805.00
1417.795, 10859.00
1418.845, 10862.00
1419.895, 10858.00
1420.945, 10847.00
1421.995, 10881.00
1423.044, 10923.00
1424.093, 10853.00
1425.142, 10971.00
1426.191, 10856.00
1427.240, 10987.00
1428.289, 10937.00
1429.337, 10990.00
1430.385, 11008.00
1431.433, 10929.00
1432.481, 11106.00
1433.529, 10955.00
1434.577, 11151.00
1435.624, 10993.00
1436.672, 10975.00
1437.719, 11050.00
1438.766, 11082.00
1439.812, 11020.00
1440.859, 11038.00
1441.905, 11118.00
1442.952, 11233.00
1443.998, 11120.00
1445.044, 11259.00
1446.090, 11044.00
1447.135, 11099.00
1448.181, 11167.00
1449.226, 11071.00
1450.271, 11294.00
1451.316, 11282.00
1452.361, 11196.00
1453.405, 11242.00
1454.450, 11281.00
1455.494, 11256.00
1456.538, 11358.00
1457.582, 11205.00
1458.626, 11284.00
1459.670, 11325.00
1460.713, 11112.00
1461.757, 11263.00
1462.800, 11297.00
1463.843, 11454.00
1464.886, 11310.00
1465.928, 11287.00
1466.971, 11398.00
1468.013, 11392.00
1469.055, 11394.00
1470.097, 11511.00
1471.139, 11440.00
1472.181, 11431.00
1473.222, 11403.00
1474.263, 11359.00
1475.305, 11532.00
1476.346, 11338.00
1477.386, 11577.00
1478.427, 11431.00
1479.468, 11401.00
1480.508, 11485.00
1481.548, 11465.00
1482.588, 11447.00
1483.628, 11502.00
1484.668, 11614.00
1485.707, 11516.00
1486.747, 11576.11
1487.786, 11479.00
1488.825, 11574.00
1489.864, 11539.00
1490.902, 11553.00
1491.941, 11609.00
1492.979, 11554.00
1494.017, 11642.00
1495.055, 11692.00
1496.093, 11463.00
1497.131, 11622.00
1498.168, 11686.00
1499.206, 11566.00
1500.243, 11631.00
1501.280, 11691.00
1502.317, 11653.00
1503.354, 11702.00
1504.390, 11758.00
1505.426, 11779.00
1506.463, 11762.00
1507.499, 11765.00
1508.535, 11771.92
1509.570, 11749.00
1510.606, 11785.00
1511.641, 11737.00
1512.676, 11747.00
1513.711, 11687.00
1514.746, 11793.00
1515.781, 11775.00
1516.816, 11743.00
1517.850, 11859.00
1518.884, 11815.00
1519.918, 11795.00
1520.952, 11867.00
1521.986, 11851.00
1523.019, 11770.00
1524.053, 11841.00
1525.086, 11929.00
1526.119, 11819.00
1527.152, 11907.00
1528.185, 11859.00
1529.217, 11904.00
1530.250, 11962.00
1531.282, 11869.00
1532.314, 11974.00
1533.346, 12010.00
1534.377, 12060.00
1535.409, 12045.00
1536.440, 11953.00
1537.472, 11892.00
1538.503, 12073.00
1539.534, 11973.00
1540.564, 12005.00
1541.595, 12015.00
1542.625, 11991.00
1543.656, 12015.00
1544.686, 12120.00
1545.716, 12098.00
1546.745, 12138.00
1547.775, 12146.00
1548.804, 12160.70
1549.834, 12182.14
1550.863, 12213.00
1551.892, 12197.00
1552.920, 12245.00
1553.949, 12223.00
1554.977, 12278.00
1556.006, 12258.34
1557.034, 12205.00
1558.062, 12202.00
1559.089, 12200.00
1560.117, 12113.00
1561.144, 12308.00
1562.172, 12282.00
1563.199, 12310.00
1564.226, 12193.00
1565.252, 12214.00
1566.279, 12276.00
1567.305, 12220.00
1568.332, 12361.00
1569.358, 12251.00
1570.384, 12248.00
1571.409, 12241.00
1572.435, 12252.00
##END=



