##NAMES=Diopside
##RRUFFID=R060861
##IDEAL CHEMISTRY=CaMgSi_2_O_6_
##LOCALITY=Red Mountain Volcano, NW of Flagstaff, Arizona, USA
##OWNER=RRUFF
##SOURCE=Jennifer Sano
##DESCRIPTION=Worn brown fragment
##STATUS=The identification of this mineral has been confirmed by X-ray diffraction and chemical analysis
##URL=rruff.info/R060861
##MEASURED CHEMISTRY=(Ca_0.72_Fe^2+^_0.23_Na_0.05_)_Σ=1_(Mg_0.80_Al_0.15_Ti_0.03_Fe^3+^_0.02_)_Σ=1_(Si_1.82_Al_0.18_)_Σ=2_O_6_
##PIN_ID=M00947
##ORIENTATION=Laser parallel to a* (1 0 0). Fiducial mark perpendicular to laser is parallel to b [0 1 0]
156.1790, 24819.00
157.4150, 24478.00
158.6510, 24417.00
159.8870, 24502.00
161.1220, 24738.00
162.3570, 25011.00
163.5930, 25484.00
164.8280, 25618.00
166.0620, 25926.00
167.2970, 26103.00
168.5310, 26333.00
169.7650, 26787.00
170.9990, 27244.00
172.2330, 27392.00
173.4670, 27656.00
174.7000, 27867.00
175.9330, 28037.88
177.1660, 28196.64
178.3990, 28359.00
179.6310, 28428.00
180.8640, 28504.00
182.0960, 28599.00
183.3280, 28648.00
184.5600, 28705.00
185.7910, 29071.00
187.0220, 29271.00
188.2540, 29360.00
189.4840, 29550.00
190.7150, 29634.00
191.9460, 29711.00
193.1760, 29986.00
194.4060, 29757.00
195.6360, 29786.00
196.8660, 29844.00
198.0960, 29484.00
199.3250, 29256.00
200.5540, 29328.00
201.7830, 29286.00
203.0120, 29121.00
204.2400, 28474.00
205.4690, 27596.00
206.6970, 27057.00
207.9250, 26525.00
209.1530, 26643.00
210.3800, 26932.00
211.6080, 26799.00
212.8350, 27079.00
214.0620, 27155.00
215.2880, 27077.00
216.5150, 27254.00
217.7410, 27501.00
218.9680, 27838.00
220.1940, 27856.00
221.4190, 27996.00
222.6450, 28214.00
223.8700, 28322.00
225.0960, 28463.00
226.3210, 28433.02
227.5450, 28362.00
228.7700, 28222.00
229.9940, 27931.00
231.2190, 27663.00
232.4430, 27124.00
233.6660, 27074.00
234.8900, 26618.00
236.1140, 26424.00
237.3370, 26207.00
238.5600, 25972.00
239.7830, 25768.99
241.0050, 25547.34
242.2280, 25288.00
243.4500, 25195.00
244.6720, 24858.00
245.8940, 24834.00
247.1160, 24593.00
248.3370, 24418.00
249.5580, 24483.00
250.7790, 24227.04
252.0000, 24178.32
253.2210, 24086.57
254.4410, 23954.21
255.6620, 23659.01
256.8820, 23574.05
258.1020, 23404.88
259.3210, 23232.38
260.5410, 23177.00
261.7600, 22905.71
262.9790, 22848.58
264.1980, 22705.97
265.4170, 22602.48
266.6360, 22414.27
267.8540, 22323.00
269.0720, 22298.00
270.2900, 22338.00
271.5080, 22082.00
272.7260, 22306.00
273.9430, 22093.00
275.1600, 22291.00
276.3770, 22324.00
277.5940, 22533.00
278.8100, 22608.00
280.0270, 22500.00
281.2430, 22670.00
282.4590, 22762.00
283.6750, 22954.00
284.8910, 23322.00
286.1060, 23558.00
287.3210, 23754.00
288.5360, 24160.00
289.7510, 24412.00
290.9660, 24625.00
292.1800, 24794.00
293.3950, 25156.02
294.6090, 25637.00
295.8230, 25855.00
297.0360, 26190.00
298.2500, 26529.00
299.4630, 26642.00
300.6760, 27332.00
301.8890, 27939.00
303.1020, 28914.00
304.3150, 29170.00
305.5270, 29802.00
306.7390, 30258.00
307.9510, 30977.00
309.1630, 31550.00
310.3750, 32425.83
311.5860, 33191.59
312.7970, 34291.00
314.0080, 35001.00
315.2190, 35929.00
316.4300, 37059.00
317.6400, 37947.00
318.8510, 39373.00
320.0610, 40356.00
321.2710, 41680.00
322.4800, 42350.00
323.6900, 43513.00
324.8990, 44598.00
326.1080, 45207.00
327.3170, 46218.00
328.5260, 46840.00
329.7340, 47291.00
330.9430, 47757.00
332.1510, 47653.00
333.3590, 47711.00
334.5670, 47780.00
335.7740, 47481.00
336.9820, 47258.00
338.1890, 46438.00
339.3960, 46209.00
340.6030, 45336.00
341.8100, 45247.00
343.0160, 44178.00
344.2220, 43611.00
345.4280, 42570.00
346.6340, 42292.00
347.8400, 41616.00
349.0460, 41440.38
350.2510, 40626.00
351.4560, 41095.00
352.6610, 40473.00
353.8660, 39751.00
355.0700, 39073.00
356.2750, 38547.00
357.4790, 38086.00
358.6830, 37697.00
359.8870, 37426.00
361.0910, 37013.00
362.2940, 36720.00
363.4970, 36258.00
364.7000, 36169.00
365.9030, 35914.00
367.1060, 35956.00
368.3080, 35722.00
369.5110, 35607.00
370.7130, 35822.00
371.9150, 35490.00
373.1170, 35639.00
374.3180, 35448.00
375.5200, 35787.00
376.7210, 35907.00
377.9220, 36226.00
379.1230, 36225.00
380.3230, 36704.00
381.5240, 37204.00
382.7240, 37582.00
383.9240, 38528.00
385.1240, 39193.00
386.3240, 40375.00
387.5230, 41027.00
388.7230, 42289.00
389.9220, 43475.00
391.1210, 44213.00
392.3200, 45319.00
393.5180, 45882.00
394.7170, 46091.00
395.9150, 46264.00
397.1130, 45775.00
398.3110, 45070.00
399.5080, 43894.00
400.7060, 42388.00
401.9030, 40756.00
403.1000, 38875.00
404.2970, 37077.00
405.4940, 35492.00
406.6910, 33393.00
407.8870, 31611.00
409.0830, 29984.00
410.2790, 28609.00
411.4750, 27492.00
412.6710, 26538.00
413.8660, 25380.00
415.0610, 24617.00
416.2560, 23851.00
417.4510, 23305.00
418.6460, 22580.00
419.8410, 22293.00
421.0350, 21978.00
422.2290, 21562.00
423.4230, 21315.00
424.6170, 21152.00
425.8100, 20876.00
427.0040, 20706.48
428.1970, 20502.78
429.3900, 20318.00
430.5830, 20068.00
431.7760, 19825.00
432.9680, 19675.91
434.1610, 19451.00
435.3530, 19393.00
436.5450, 19208.00
437.7360, 19124.00
438.9280, 19013.61
440.1190, 18815.00
441.3110, 18843.00
442.5020, 18691.00
443.6930, 18690.00
444.8830, 18521.00
446.0740, 18546.00
447.2640, 18637.00
448.4540, 18602.00
449.6440, 18541.00
450.8340, 18693.00
452.0240, 18566.00
453.2130, 18537.00
454.4020, 18470.00
455.5910, 18614.00
456.7800, 18620.00
457.9690, 18758.00
459.1570, 18864.00
460.3460, 18741.00
461.5340, 18876.00
462.7220, 18810.00
463.9090, 18774.00
465.0970, 19066.00
466.2840, 18799.00
467.4720, 18754.00
468.6590, 19050.00
469.8460, 18882.00
471.0320, 18927.00
472.2190, 18800.00
473.4050, 18711.00
474.5910, 18637.00
475.7770, 18500.00
476.9630, 18478.00
478.1490, 18405.00
479.3340, 18470.00
480.5190, 18441.00
481.7040, 18386.00
482.8890, 18524.00
484.0740, 18423.00
485.2580, 18409.00
486.4430, 18487.00
487.6270, 18603.00
488.8110, 18486.00
489.9950, 18607.00
491.1780, 18596.00
492.3620, 18659.00
493.5450, 18796.00
494.7280, 18814.29
495.9110, 18939.82
497.0940, 19009.00
498.2760, 19201.00
499.4590, 19449.00
500.6410, 19702.00
501.8230, 19902.00
503.0050, 20267.00
504.1860, 20759.00
505.3680, 21076.00
506.5490, 21617.00
507.7300, 21964.00
508.9110, 22808.00
510.0920, 23099.00
511.2730, 23690.00
512.4530, 23973.16
513.6330, 23999.00
514.8130, 24316.00
515.9930, 24536.00
517.1730, 24548.00
518.3520, 24789.00
519.5320, 24738.00
520.7110, 24613.00
521.8900, 24713.00
523.0690, 24546.00
524.2470, 24605.00
525.4260, 24567.00
526.6040, 24774.00
527.7820, 24707.00
528.9600, 24881.00
530.1380, 24761.00
531.3150, 24734.00
532.4930, 24649.00
533.6700, 24636.00
534.8470, 24639.00
536.0240, 24467.00
537.2000, 24633.00
538.3770, 24243.00
539.5530, 24165.00
540.7290, 23961.00
541.9050, 24016.00
543.0810, 23914.00
544.2570, 23656.00
545.4320, 23477.00
546.6080, 23384.00
547.7830, 23309.00
548.9580, 23254.00
550.1320, 23147.00
551.3070, 23024.00
552.4810, 22983.00
553.6550, 22916.31
554.8300, 22865.28
556.0030, 22843.00
557.1770, 22829.00
558.3510, 22785.00
559.5240, 22836.00
560.6970, 22746.00
561.8700, 22605.00
563.0430, 22612.00
564.2160, 22664.00
565.3880, 22398.00
566.5600, 22376.00
567.7320, 22237.53
568.9040, 21962.00
570.0760, 21905.00
571.2480, 21805.00
572.4190, 21521.00
573.5900, 21281.00
574.7610, 21043.00
575.9320, 21027.00
577.1030, 20989.00
578.2740, 20675.63
579.4440, 20948.00
580.6140, 20056.00
581.7840, 19907.00
582.9540, 19503.00
584.1240, 19676.00
585.2930, 19033.00
586.4630, 18640.00
587.6320, 18577.00
588.8010, 18116.00
589.9700, 17786.00
591.1380, 17461.00
592.3070, 17193.00
593.4750, 16831.00
594.6430, 16382.00
595.8110, 16326.00
596.9790, 15880.00
598.1460, 15740.00
599.3140, 15441.00
600.4810, 15265.00
601.6480, 15184.00
602.8150, 15061.00
603.9820, 14785.00
605.1480, 14697.00
606.3150, 14522.00
607.4810, 14536.00
608.6470, 14493.00
609.8130, 14565.00
610.9790, 14537.22
612.1440, 14536.64
613.3100, 14503.00
614.4750, 14531.00
615.6400, 14453.00
616.8050, 14468.00
617.9690, 14731.00
619.1340, 14697.00
620.2980, 14606.00
621.4620, 14512.00
622.6260, 14805.00
623.7900, 14890.00
624.9540, 14867.00
626.1170, 14911.00
627.2810, 15051.00
628.4440, 15067.00
629.6070, 15364.00
630.7690, 15925.00
631.9320, 15736.18
633.0950, 16187.59
634.2570, 16081.00
635.4190, 16410.00
636.5810, 16706.67
637.7430, 17211.00
638.9040, 17331.00
640.0660, 17636.00
641.2270, 17900.69
642.3880, 18647.00
643.5490, 18965.00
644.7100, 19609.00
645.8700, 20190.00
647.0310, 20779.00
648.1910, 21646.00
649.3510, 22685.00
650.5110, 23848.00
651.6710, 24956.00
652.8300, 26417.00
653.9900, 28040.00
655.1490, 29879.17
656.3080, 32080.00
657.4670, 34243.00
658.6250, 36899.00
659.7840, 39633.00
660.9420, 42231.00
662.1010, 45246.00
663.2590, 47693.00
664.4170, 50273.00
665.5740, 52567.00
666.7320, 53686.00
667.8890, 53804.00
669.0460, 53605.00
670.2030, 52046.00
671.3600, 49872.00
672.5170, 47653.00
673.6740, 44787.00
674.8300, 41817.00
675.9860, 39312.00
677.1420, 36532.00
678.2980, 34191.00
679.4540, 31969.00
680.6090, 30344.00
681.7650, 28626.00
682.9200, 26730.00
684.0750, 25763.00
685.2300, 24574.00
686.3840, 23568.00
687.5390, 22573.00
688.6930, 21804.15
689.8470, 21106.64
691.0010, 20583.00
692.1550, 20040.00
693.3090, 19711.00
694.4620, 19366.00
695.6160, 19066.00
696.7690, 18824.00
697.9220, 18369.00
699.0750, 18209.00
700.2280, 17923.00
701.3800, 17806.00
702.5320, 17632.00
703.6850, 17572.00
704.8370, 17243.00
705.9880, 17233.00
707.1400, 17176.00
708.2920, 17186.00
709.4430, 16934.00
710.5940, 16720.00
711.7450, 16461.00
712.8960, 16311.00
714.0470, 16517.00
715.1970, 16280.00
716.3480, 16126.00
717.4980, 16254.00
718.6480, 16118.00
719.7980, 16146.00
720.9470, 16055.00
722.0970, 16140.00
723.2460, 15951.00
724.3960, 15885.00
725.5450, 15679.00
726.6940, 15742.00
727.8420, 15604.00
728.9910, 15534.00
730.1390, 15509.00
731.2870, 15390.00
732.4350, 15472.00
733.5830, 15398.89
734.7310, 15402.00
735.8790, 15377.00
737.0260, 15400.00
738.1730, 15450.00
739.3200, 15339.00
740.4670, 15301.00
741.6140, 15309.00
742.7610, 15378.00
743.9070, 15423.00
745.0530, 15445.82
746.1990, 15493.32
747.3450, 15504.00
748.4910, 15557.00
749.6370, 15591.00
750.7820, 15624.00
751.9270, 15695.00
753.0720, 15708.00
754.2170, 15798.12
755.3620, 15821.00
756.5070, 15927.00
757.6510, 16058.00
758.7950, 16043.71
759.9400, 16235.91
761.0840, 16192.00
762.2270, 16404.00
763.3710, 16509.00
764.5140, 16287.00
765.6580, 16421.00
766.8010, 16572.00
767.9440, 16621.00
769.0870, 16916.00
770.2290, 16891.04
771.3720, 16985.79
772.5140, 16914.00
773.6560, 17039.00
774.7990, 17011.00
775.9400, 17005.00
777.0820, 17130.00
778.2240, 17325.00
779.3650, 17229.00
780.5060, 17339.00
781.6470, 17146.00
782.7880, 17432.00
783.9290, 17367.00
785.0690, 17539.00
786.2100, 17664.00
787.3500, 17702.00
788.4900, 17599.00
789.6300, 17759.00
790.7700, 17883.00
791.9090, 17871.00
793.0490, 18035.00
794.1880, 18086.00
795.3270, 18234.00
796.4660, 18170.00
797.6050, 18346.00
798.7440, 18464.00
799.8820, 18753.00
801.0200, 18812.00
802.1590, 19263.00
803.2970, 18945.00
804.4340, 19241.00
805.5720, 19030.00
806.7100, 19347.00
807.8470, 19561.00
808.9840, 19619.00
810.1210, 19823.24
811.2580, 19842.00
812.3950, 20023.00
813.5310, 20046.00
814.6680, 20091.00
815.8040, 20230.00
816.9400, 20235.70
818.0760, 20403.00
819.2120, 20428.00
820.3470, 20442.00
821.4830, 20764.00
822.6180, 20660.00
823.7530, 20655.00
824.8880, 20833.00
826.0230, 20777.00
827.1580, 20919.00
828.2920, 20758.00
829.4270, 20868.00
830.5610, 21035.00
831.6950, 20952.00
832.8290, 20991.00
833.9620, 20991.71
835.0960, 20961.00
836.2290, 20949.00
837.3620, 20936.18
838.4950, 20882.00
839.6280, 20903.00
840.7610, 20866.22
841.8940, 20837.00
843.0260, 20869.00
844.1580, 20804.00
845.2910, 20856.00
846.4230, 20910.72
847.5540, 20907.16
848.6860, 21003.00
849.8170, 21007.00
850.9490, 20898.00
852.0800, 21024.00
853.2110, 21103.00
854.3420, 21331.00
855.4730, 21302.00
856.6030, 21659.00
857.7340, 21675.00
858.8640, 21407.00
859.9940, 21656.00
861.1240, 21742.00
862.2540, 21773.00
863.3830, 21715.00
864.5130, 21836.00
865.6420, 21980.00
866.7710, 21805.00
867.9000, 22062.00
869.0290, 21797.00
870.1570, 21950.00
871.2860, 22065.00
872.4140, 21902.00
873.5430, 21982.00
874.6710, 21868.00
875.7980, 21848.00
876.9260, 21863.00
878.0540, 21907.00
879.1810, 21827.00
880.3080, 22041.00
881.4360, 21827.00
882.5630, 21881.00
883.6890, 22105.00
884.8160, 21846.00
885.9420, 21858.00
887.0690, 21700.00
888.1950, 21903.00
889.3210, 21909.00
890.4470, 21983.00
891.5730, 21832.00
892.6980, 21868.00
893.8240, 21935.00
894.9490, 21943.00
896.0740, 21858.00
897.1990, 21940.00
898.3240, 21824.00
899.4480, 22051.00
900.5730, 21958.00
901.6970, 21779.00
902.8210, 22096.00
903.9450, 21846.00
905.0690, 22063.00
906.1930, 22100.00
907.3160, 21956.00
908.4400, 22245.00
909.5630, 22072.00
910.6860, 22136.00
911.8090, 22162.00
912.9320, 22275.00
914.0550, 22426.00
915.1770, 22608.00
916.2990, 22493.00
917.4210, 22627.00
918.5440, 22582.00
919.6650, 22619.00
920.7870, 22852.00
921.9090, 23014.00
923.0300, 23041.00
924.1510, 23081.00
925.2720, 23277.00
926.3930, 23208.00
927.5140, 23267.00
928.6350, 23199.00
929.7550, 23487.00
930.8760, 23419.00
931.9960, 23376.00
933.1160, 23277.00
934.2360, 23447.00
935.3550, 23349.71
936.4750, 23393.69
937.5940, 23285.00
938.7140, 23454.00
939.8330, 23368.00
940.9520, 23438.00
942.0710, 23489.00
943.1890, 23465.00
944.3080, 23517.00
945.4260, 23528.00
946.5440, 23517.00
947.6620, 23614.00
948.7800, 23752.00
949.8980, 23941.00
951.0160, 24080.00
952.1330, 24340.00
953.2500, 24604.00
954.3680, 24622.09
955.4850, 24857.00
956.6010, 24708.00
957.7180, 25135.00
958.8350, 25270.00
959.9510, 25625.00
961.0670, 26030.00
962.1830, 26249.00
963.2990, 26244.00
964.4150, 26544.34
965.5310, 26805.88
966.6460, 27026.00
967.7620, 27401.00
968.8770, 27981.00
969.9920, 28145.00
971.1070, 28969.00
972.2210, 29069.00
973.3360, 29611.00
974.4500, 30012.00
975.5650, 30795.00
976.6790, 31118.00
977.7930, 31742.00
978.9070, 32572.00
980.0200, 32975.00
981.1340, 33867.00
982.2470, 34566.00
983.3610, 35164.00
984.4740, 36300.00
985.5870, 36926.00
986.6990, 37991.36
987.8120, 39210.37
988.9250, 40197.00
990.0370, 41781.00
991.1490, 43168.00
992.2610, 44456.00
993.3730, 46080.00
994.4850, 47804.00
995.5960, 49290.00
996.7080, 51290.00
997.8190, 53211.00
998.9300, 54987.00
1000.041, 56559.00
1001.152, 58529.00
1002.263, 59846.00
1003.373, 60767.00
1004.484, 61778.00
1005.594, 62434.00
1006.704, 62571.00
1007.814, 62182.00
1008.924, 61647.00
1010.034, 60350.00
1011.143, 58884.00
1012.253, 57097.00
1013.362, 54945.00
1014.471, 52668.00
1015.580, 50203.00
1016.689, 47881.00
1017.797, 45306.00
1018.906, 43426.00
1020.014, 41525.00
1021.122, 39656.00
1022.230, 38197.00
1023.338, 36796.00
1024.446, 35688.00
1025.554, 34823.00
1026.661, 33889.00
1027.768, 33450.00
1028.875, 32654.00
1029.983, 32117.00
1031.089, 31427.00
1032.196, 31205.00
1033.303, 30678.00
1034.409, 30468.00
1035.515, 30208.00
1036.622, 29813.00
1037.728, 29336.00
1038.833, 29010.00
1039.939, 28889.33
1041.045, 28649.84
1042.150, 28367.65
1043.255, 28044.73
1044.360, 27559.11
1045.465, 27283.59
1046.570, 26923.87
1047.675, 26560.67
1048.779, 26310.00
1049.884, 25910.00
1050.988, 25619.00
1052.092, 25179.00
1053.196, 24991.00
1054.300, 24524.00
1055.404, 24235.00
1056.507, 24060.00
1057.610, 23666.00
1058.714, 23351.00
1059.817, 23060.00
1060.920, 22813.00
1062.022, 22610.00
1063.125, 22365.00
1064.228, 22124.00
1065.330, 21728.00
1066.432, 21765.00
1067.534, 21311.00
1068.636, 21382.00
1069.738, 21180.00
1070.840, 21009.00
1071.941, 20844.00
1073.042, 20739.00
1074.144, 20445.00
1075.245, 20390.00
1076.346, 20176.00
1077.446, 20050.57
1078.547, 20081.00
1079.647, 19887.00
1080.748, 19702.00
1081.848, 19750.00
1082.948, 19660.00
1084.048, 19667.00
1085.148, 19448.00
1086.247, 19411.00
1087.347, 19334.00
1088.446, 19163.00
1089.545, 19192.00
1090.644, 19084.00
1091.743, 18945.00
1092.842, 18810.00
1093.940, 18694.00
1095.039, 18713.00
1096.137, 18465.00
1097.235, 18489.00
1098.333, 18335.00
1099.431, 18380.00
1100.529, 18308.00
1101.627, 18210.00
1102.724, 18065.00
1103.822, 18007.00
1104.919, 18001.00
1106.016, 18038.00
1107.113, 17888.00
1108.209, 17941.00
1109.306, 17842.00
1110.402, 17826.00
1111.499, 17453.00
1112.595, 17490.00
1113.691, 17463.00
1114.787, 17526.00
1115.883, 17250.00
1116.978, 17326.00
1118.074, 17119.00
1119.169, 17359.00
1120.264, 17109.00
1121.359, 17009.00
1122.454, 16983.00
1123.549, 16841.00
1124.644, 16757.00
1125.738, 16526.00
1126.832, 16371.54
1127.927, 16115.00
1129.021, 15936.00
1130.115, 15697.00
1131.208, 15393.00
1132.302, 15383.00
1133.396, 15146.00
1134.489, 15146.00
1135.582, 14940.00
1136.675, 14866.00
1137.768, 14746.00
1138.861, 14626.00
1139.954, 14627.00
1141.046, 14604.00
1142.138, 14492.00
1143.231, 14301.00
1144.323, 14401.00
1145.415, 14164.00
1146.507, 14012.00
1147.598, 14128.00
1148.690, 14230.00
1149.781, 13972.44
1150.872, 14384.00
1151.964, 13666.00
1153.054, 13650.00
1154.145, 13803.00
1155.236, 13759.00
1156.327, 13662.00
1157.417, 13542.00
1158.507, 13530.50
1159.597, 13468.00
1160.687, 13508.00
1161.777, 13581.00
1162.867, 13645.00
1163.956, 13495.00
1165.046, 13425.00
1166.135, 13351.00
1167.224, 13503.00
1168.313, 13384.00
1169.402, 13196.00
1170.491, 13397.00
1171.580, 13331.00
1172.668, 13333.00
1173.756, 13286.00
1174.845, 13275.00
1175.933, 13232.00
1177.020, 13136.00
1178.108, 13228.00
1179.196, 13212.00
1180.283, 13195.00
1181.371, 13296.00
1182.458, 13083.00
1183.545, 13057.00
1184.632, 13250.00
1185.719, 13150.83
1186.805, 13279.00
1187.892, 13205.00
1188.978, 13176.00
1190.065, 13164.00
1191.151, 13178.00
1192.237, 13241.00
1193.323, 13089.00
1194.408, 13109.00
1195.494, 13091.64
1196.579, 13290.00
1197.664, 13156.00
1198.750, 13045.00
1199.835, 13242.00
1200.919, 13100.00
1202.004, 13023.00
1203.089, 13207.00
1204.173, 13088.00
1205.258, 13206.00
1206.342, 13029.00
1207.426, 13065.00
1208.510, 13116.00
1209.594, 13070.00
1210.677, 13063.00
1211.761, 13120.00
1212.844, 13058.00
1213.927, 13016.00
1215.010, 13031.00
1216.093, 13138.00
1217.176, 13135.00
1218.259, 13072.00
1219.341, 13150.00
1220.424, 13126.00
1221.506, 13108.00
1222.588, 13071.00
1223.670, 13239.00
1224.752, 13120.00
1225.834, 13189.00
1226.915, 13013.00
1227.997, 13183.00
1229.078, 13040.00
1230.159, 13154.00
1231.240, 13279.00
1232.321, 13092.00
1233.402, 13482.00
1234.483, 13088.00
1235.563, 13124.00
1236.644, 13192.00
1237.724, 13131.00
1238.804, 13225.00
1239.884, 13114.00
1240.964, 13291.00
1242.044, 13271.00
1243.123, 13029.00
1244.203, 13090.00
1245.282, 13121.00
1246.361, 13048.00
1247.440, 13059.00
1248.519, 13058.00
1249.598, 12981.00
1250.676, 13042.00
1251.755, 13008.00
1252.833, 12985.00
1253.911, 13072.00
1254.989, 12947.37
1256.067, 13048.29
1257.145, 13106.17
1258.223, 13123.31
1259.300, 12977.75
1260.378, 13042.29
1261.455, 13022.63
1262.532, 12999.51
1263.609, 13093.63
1264.686, 12971.73
1265.763, 13063.98
1266.840, 13070.75
1267.916, 13116.64
1268.992, 13077.81
1270.069, 13065.15
1271.145, 13137.23
1272.221, 13162.39
1273.296, 13113.81
1274.372, 13162.18
1275.448, 13037.32
1276.523, 13064.47
1277.598, 13157.22
1278.673, 13112.89
1279.749, 13162.82
1280.823, 13176.85
1281.898, 13027.74
1282.973, 13162.34
1284.047, 13174.25
1285.122, 13060.17
1286.196, 13185.05
1287.270, 13088.34
1288.344, 13070.73
1289.418, 13112.63
1290.491, 13092.49
1291.565, 13170.17
1292.638, 13153.61
1293.712, 13128.63
1294.785, 13140.40
1295.858, 13048.03
1296.931, 13148.85
1298.003, 13117.70
1299.076, 13152.15
1300.149, 13172.00
1301.221, 13054.00
1302.293, 13167.00
1303.365, 13088.00
1304.437, 13065.00
1305.509, 13084.00
1306.581, 13035.00
1307.652, 13082.00
1308.724, 13182.00
1309.795, 13124.22
1310.866, 13096.00
1311.937, 13082.00
1313.008, 13197.00
1314.079, 13180.00
1315.150, 13169.00
1316.220, 13121.00
1317.291, 13142.00
1318.361, 13135.65
1319.431, 13264.00
1320.501, 13137.00
1321.571, 13248.00
1322.641, 13208.00
1323.710, 13191.00
1324.780, 13194.00
1325.849, 13217.00
1326.918, 13342.00
1327.987, 13259.00
1329.056, 13231.00
1330.125, 13329.00
1331.194, 13188.00
1332.263, 13339.00
1333.331, 13413.00
1334.399, 13455.00
1335.467, 13474.00
1336.535, 13362.00
1337.603, 13470.00
1338.671, 13264.00
1339.739, 13215.00
1340.806, 13408.00
1341.874, 13347.00
1342.941, 13312.00
1344.008, 13499.00
1345.075, 13361.00
1346.142, 13470.00
1347.209, 13497.00
1348.275, 13448.00
1349.342, 13358.00
1350.408, 13579.00
1351.475, 13491.00
1352.541, 13432.00
1353.607, 13515.00
1354.673, 13500.00
1355.738, 13516.00
1356.804, 13477.00
1357.869, 13515.00
1358.935, 13502.00
1360.000, 13513.46
1361.065, 13644.00
1362.130, 13481.00
1363.195, 13514.00
1364.259, 13366.00
1365.324, 13515.00
1366.388, 13490.00
1367.453, 13458.00
1368.517, 13450.00
1369.581, 13440.56
1370.645, 13400.00
1371.709, 13469.00
1372.772, 13525.00
1373.836, 13605.00
1374.899, 13533.00
1375.963, 13585.00
1377.026, 13467.00
1378.089, 13602.00
1379.152, 13580.00
1380.214, 13406.00
1381.277, 13518.00
1382.340, 13519.00
1383.402, 13547.00
1384.464, 13534.00
1385.526, 13462.00
1386.588, 13570.00
1387.650, 13421.00
1388.712, 13491.00
1389.774, 13514.00
1390.835, 13433.00
1391.896, 13536.00
1392.958, 13477.00
1394.019, 13521.00
1395.080, 13509.00
1396.141, 13544.00
1397.201, 13561.00
1398.262, 13600.00
1399.323, 13437.00
1400.383, 13638.00
1401.443, 13444.00
1402.503, 13381.00
1403.563, 13557.00
1404.623, 13650.00
1405.683, 13317.00
1406.742, 13521.00
1407.802, 13441.00
1408.861, 13458.00
1409.920, 13442.00
1410.980, 13433.00
1412.039, 13452.00
1413.097, 13452.00
1414.156, 13485.04
1415.215, 13472.00
1416.273, 13531.00
1417.331, 13504.00
1418.390, 13461.00
1419.448, 13649.00
1420.506, 13487.00
1421.564, 13416.00
1422.621, 13382.00
1423.679, 13507.00
1424.736, 13455.00
1425.794, 13474.00
1426.851, 13528.00
1427.908, 13469.00
1428.965, 13447.00
1430.022, 13533.00
1431.079, 13533.00
1432.135, 13367.00
1433.192, 13403.00
1434.248, 13432.66
1435.304, 13391.96
1436.360, 13516.00
1437.416, 13497.00
1438.472, 13393.00
1439.528, 13598.00
1440.583, 13480.00
1441.639, 13615.00
1442.694, 13577.00
1443.749, 13578.00
1444.804, 13442.00
1445.859, 13554.05
1446.914, 13503.39
1447.969, 13707.00
1449.024, 13519.00
1450.078, 13521.00
1451.132, 13535.00
1452.187, 13373.27
1453.241, 13476.18
1454.295, 13536.05
1455.349, 13555.19
1456.402, 13411.61
1457.456, 13478.15
1458.509, 13460.47
1459.563, 13439.36
1460.616, 13535.46
1461.669, 13415.55
1462.722, 13509.79
1463.775, 13518.55
1464.828, 13566.43
1465.880, 13529.59
1466.933, 13518.92
1467.985, 13592.99
1469.037, 13620.14
1470.090, 13573.55
1471.142, 13560.00
1472.193, 13423.00
1473.245, 13534.00
1474.297, 13420.00
1475.348, 13348.00
1476.400, 13550.00
1477.451, 13495.00
1478.502, 13561.00
1479.553, 13481.00
1480.604, 13511.33
1481.655, 13500.00
1482.706, 13551.00
1483.756, 13553.00
1484.807, 13605.00
1485.857, 13519.00
1486.907, 13464.00
1487.957, 13560.00
1489.007, 13519.00
1490.057, 13409.00
1491.106, 13423.00
1492.156, 13527.00
1493.205, 13488.00
1494.255, 13682.00
1495.304, 13627.03
1496.353, 13638.40
1497.402, 13640.00
1498.451, 13513.00
1499.500, 13617.00
1500.548, 13409.00
1501.597, 13609.00
1502.645, 13541.00
1503.693, 13424.00
1504.741, 13446.00
1505.789, 13526.00
1506.837, 13556.00
1507.885, 13586.00
1508.932, 13347.00
1509.980, 13537.00
1511.027, 13464.00
1512.075, 13497.00
1513.122, 13540.00
1514.169, 13387.00
1515.216, 13554.00
1516.262, 13591.00
1517.309, 13537.23
1518.356, 13613.58
1519.402, 13557.11
1520.448, 13660.63
1521.495, 13721.11
1522.541, 13740.86
1523.587, 13597.90
1524.632, 13665.04
1525.678, 13647.99
1526.724, 13627.48
1527.769, 13724.20
1528.814, 13604.90
1529.860, 13711.00
1530.905, 13675.00
1531.950, 13520.00
1532.995, 13543.00
1534.039, 13442.00
1535.084, 13520.00
1536.128, 13700.00
1537.173, 13560.00
1538.217, 13736.00
1539.261, 13601.00
1540.305, 13423.00
1541.349, 13690.00
1542.393, 13538.00
1543.436, 13612.00
1544.480, 13573.00
1545.523, 13765.00
1546.567, 13667.00
1547.610, 13565.16
1548.653, 13675.27
1549.696, 13742.34
1550.739, 13768.68
1551.781, 13632.30
1552.824, 13706.03
1553.867, 13695.57
1554.909, 13681.64
1555.951, 13784.94
1556.993, 13672.22
1558.035, 13773.66
1559.077, 13789.61
1560.119, 13844.69
1561.161, 13815.04
1562.202, 13811.56
1563.243, 13742.00
1564.285, 13664.00
1565.326, 13670.00
##END=



