##NAMES=Diopside
##RRUFFID=R050666
##IDEAL CHEMISTRY=CaMgSi_2_O_6_
##LOCALITY=Franklin, Sussex County, New Jersey, USA
##OWNER=RRUFF
##SOURCE=University of Arizona Mineral Museum
##DESCRIPTION=Brown cleavage fragment with white hardystonite
##STATUS=The identification of this mineral has been confirmed by X-ray diffraction and chemical analysis
##URL=rruff.info/R050666
##MEASURED CHEMISTRY=Ca(Mg_0.66_Mn_0.33_Fe_0.01_)Si_2_O_6_
##PIN_ID=L01400
##ORIENTATION=Laser parallel to -a* (-1 0 0). Fiducial mark perpendicular to laser is parallel to -b [0 -1 0]
155.0020, 17823.00
156.2290, 17838.00
157.4550, 17951.00
158.6810, 17922.00
159.9080, 17906.00
161.1340, 17944.00
162.3590, 17903.00
163.5850, 18014.00
164.8110, 17882.00
166.0360, 18170.00
167.2610, 17974.00
168.4860, 18243.00
169.7110, 18091.00
170.9360, 18371.00
172.1610, 18411.00
173.3850, 18402.00
174.6100, 18713.00
175.8340, 18617.00
177.0580, 18684.00
178.2820, 18717.00
179.5050, 18589.00
180.7290, 18631.48
181.9520, 18619.96
183.1760, 18559.00
184.3990, 18649.00
185.6220, 18584.00
186.8450, 18600.00
188.0670, 18799.00
189.2900, 18849.00
190.5120, 18764.00
191.7340, 18818.00
192.9560, 18975.00
194.1780, 18726.00
195.4000, 18982.00
196.6220, 18721.00
197.8430, 18959.00
199.0640, 19129.00
200.2860, 19071.00
201.5070, 19205.00
202.7270, 19035.00
203.9480, 19179.00
205.1690, 19056.00
206.3890, 18913.00
207.6090, 18871.00
208.8290, 18931.00
210.0490, 19013.00
211.2690, 19042.00
212.4890, 18922.00
213.7080, 19129.00
214.9280, 19011.00
216.1470, 19001.00
217.3660, 19083.00
218.5850, 19134.00
219.8030, 19096.00
221.0220, 19092.00
222.2400, 19151.00
223.4590, 19053.00
224.6770, 19249.00
225.8950, 19270.00
227.1120, 19143.00
228.3300, 19459.00
229.5480, 19476.00
230.7650, 19593.00
231.9820, 19711.00
233.1990, 19865.00
234.4160, 19819.95
235.6330, 19730.00
236.8490, 19724.00
238.0660, 19620.00
239.2820, 19585.00
240.4980, 19484.00
241.7140, 19651.00
242.9300, 19598.00
244.1460, 19470.00
245.3610, 19382.00
246.5770, 19539.00
247.7920, 19492.00
249.0070, 19592.00
250.2220, 19540.00
251.4370, 19541.00
252.6510, 19705.00
253.8660, 19510.00
255.0800, 19748.00
256.2940, 19864.00
257.5080, 20003.00
258.7220, 20056.04
259.9360, 20021.86
261.1490, 20092.00
262.3630, 19813.00
263.5760, 19828.00
264.7890, 19628.00
266.0020, 19909.00
267.2150, 19650.00
268.4270, 19827.00
269.6400, 19887.00
270.8520, 19798.00
272.0640, 19815.00
273.2760, 19719.00
274.4880, 19814.00
275.7000, 19838.00
276.9120, 19817.00
278.1230, 20059.00
279.3340, 19886.00
280.5450, 19920.00
281.7560, 19981.00
282.9670, 20137.00
284.1780, 20098.00
285.3880, 20341.00
286.5980, 20088.00
287.8090, 20125.00
289.0190, 20478.00
290.2290, 20271.00
291.4380, 20444.00
292.6480, 20382.00
293.8570, 20557.00
295.0670, 20637.00
296.2760, 20622.00
297.4850, 21030.00
298.6930, 20967.00
299.9020, 21146.00
301.1110, 21261.00
302.3190, 21680.00
303.5270, 21772.00
304.7350, 21960.00
305.9430, 22409.00
307.1510, 22608.00
308.3580, 23233.00
309.5660, 23570.00
310.7730, 23994.00
311.9800, 24576.00
313.1870, 25056.00
314.3940, 25533.00
315.6010, 25620.00
316.8070, 25505.00
318.0130, 25295.00
319.2200, 24989.00
320.4260, 24609.00
321.6310, 24015.00
322.8370, 23415.00
324.0430, 23204.00
325.2480, 23048.00
326.4540, 22781.00
327.6590, 22408.00
328.8640, 22397.00
330.0680, 22261.00
331.2730, 22217.00
332.4780, 22310.00
333.6820, 22209.00
334.8860, 22280.00
336.0900, 22218.00
337.2940, 22087.00
338.4980, 22086.00
339.7010, 22377.00
340.9050, 22666.00
342.1080, 22703.00
343.3110, 22979.00
344.5140, 23117.00
345.7170, 23501.00
346.9200, 23514.00
348.1220, 23708.00
349.3240, 23522.00
350.5270, 23694.00
351.7290, 23594.00
352.9310, 23447.00
354.1320, 23018.00
355.3340, 22994.00
356.5350, 22872.00
357.7370, 22612.00
358.9380, 22504.00
360.1390, 22500.00
361.3400, 22497.00
362.5400, 22478.00
363.7410, 22482.00
364.9410, 22383.00
366.1410, 22516.00
367.3410, 22738.00
368.5410, 22719.00
369.7410, 23012.00
370.9400, 23293.00
372.1400, 23643.00
373.3390, 24086.00
374.5380, 24595.54
375.7370, 25137.00
376.9360, 25834.00
378.1350, 26639.00
379.3330, 27414.00
380.5310, 28263.00
381.7300, 29041.00
382.9280, 29111.00
384.1260, 28768.00
385.3230, 28132.00
386.5210, 27085.00
387.7180, 26006.00
388.9160, 25348.00
390.1130, 24500.00
391.3100, 23629.00
392.5060, 23323.00
393.7030, 22871.00
394.9000, 22775.00
396.0960, 22308.00
397.2920, 22443.00
398.4880, 21958.00
399.6840, 21989.00
400.8800, 21871.00
402.0750, 22037.00
403.2710, 21799.00
404.4660, 21743.00
405.6610, 21913.00
406.8560, 21820.00
408.0510, 21832.00
409.2450, 21763.00
410.4400, 21686.00
411.6340, 21610.00
412.8280, 21748.00
414.0220, 21656.00
415.2160, 21460.00
416.4100, 21700.00
417.6030, 21792.00
418.7970, 21912.00
419.9900, 21646.00
421.1830, 21820.00
422.3760, 21850.00
423.5690, 21489.00
424.7610, 21599.00
425.9540, 21435.00
427.1460, 21550.00
428.3380, 21551.38
429.5300, 21653.00
430.7220, 21624.00
431.9140, 21810.00
433.1050, 21868.00
434.2970, 21849.00
435.4880, 21775.00
436.6790, 21600.00
437.8700, 21936.00
439.0610, 21722.00
440.2510, 21845.00
441.4420, 22089.00
442.6320, 22024.00
443.8220, 21846.00
445.0120, 21959.00
446.2020, 21885.00
447.3910, 22043.00
448.5810, 22115.00
449.7700, 22149.00
450.9600, 22089.00
452.1490, 22091.00
453.3370, 22120.00
454.5260, 22191.00
455.7150, 22084.00
456.9030, 22194.00
458.0910, 21996.00
459.2800, 22097.00
460.4670, 22033.00
461.6550, 22093.00
462.8430, 21983.00
464.0300, 22092.00
465.2180, 22147.00
466.4050, 22162.00
467.5920, 22094.00
468.7790, 21993.00
469.9650, 22187.00
471.1520, 22255.00
472.3380, 22115.00
473.5250, 21924.00
474.7110, 22265.00
475.8970, 22080.00
477.0820, 22155.00
478.2680, 22237.00
479.4540, 22130.00
480.6390, 22102.00
481.8240, 22011.00
483.0090, 22166.00
484.1940, 22259.00
485.3780, 22185.00
486.5630, 22095.00
487.7470, 22218.00
488.9320, 22277.00
490.1160, 22253.00
491.3000, 22364.00
492.4830, 22380.00
493.6670, 22496.00
494.8500, 22611.00
496.0340, 22383.00
497.2170, 22553.00
498.4000, 22676.00
499.5820, 22678.00
500.7650, 22861.00
501.9480, 23029.00
503.1300, 23002.00
504.3120, 23104.00
505.4940, 23104.00
506.6760, 22979.00
507.8580, 22755.00
509.0390, 22800.00
510.2210, 22596.00
511.4020, 22564.00
512.5830, 22721.00
513.7640, 22444.00
514.9450, 22635.00
516.1250, 22685.00
517.3060, 22786.00
518.4860, 22765.00
519.6660, 22930.00
520.8460, 22883.00
522.0260, 22973.00
523.2060, 23084.00
524.3850, 23140.00
525.5650, 23246.00
526.7440, 23192.87
527.9230, 23065.00
529.1020, 23050.00
530.2810, 22977.00
531.4590, 22885.00
532.6380, 22886.00
533.8160, 22764.00
534.9940, 22672.00
536.1720, 22651.00
537.3500, 22784.00
538.5270, 22702.00
539.7050, 22681.00
540.8820, 22880.00
542.0590, 22822.00
543.2360, 22896.00
544.4130, 22749.00
545.5900, 22823.00
546.7660, 22956.00
547.9430, 23133.00
549.1190, 23333.00
550.2950, 23481.22
551.4710, 23607.00
552.6470, 23739.00
553.8220, 23689.00
554.9980, 23633.00
556.1730, 23755.00
557.3480, 23477.00
558.5230, 23403.00
559.6980, 23172.00
560.8730, 23110.64
562.0470, 23066.00
563.2220, 23034.00
564.3960, 22960.00
565.5700, 22969.00
566.7440, 22817.00
567.9170, 23035.00
569.0910, 22732.00
570.2640, 22775.00
571.4380, 22900.00
572.6110, 22834.00
573.7840, 22850.40
574.9570, 22724.00
576.1290, 22709.00
577.3020, 22814.00
578.4740, 22627.00
579.6460, 22701.00
580.8180, 22604.00
581.9900, 22604.00
583.1620, 22581.00
584.3330, 22540.00
585.5040, 22443.00
586.6760, 22654.00
587.8470, 22676.00
589.0180, 22686.00
590.1880, 22623.00
591.3590, 22516.00
592.5290, 22552.00
593.7000, 22725.00
594.8700, 22441.00
596.0400, 22596.00
597.2090, 22656.00
598.3790, 22474.00
599.5490, 22723.00
600.7180, 22689.00
601.8870, 22903.00
603.0560, 22565.00
604.2250, 22573.00
605.3940, 22679.00
606.5620, 22795.00
607.7300, 22845.00
608.8990, 22743.00
610.0670, 22705.00
611.2350, 22881.00
612.4020, 22690.00
613.5700, 22910.00
614.7370, 22879.00
615.9050, 22899.00
617.0720, 22895.00
618.2390, 22928.00
619.4060, 22866.00
620.5720, 22938.00
621.7390, 23007.00
622.9050, 22863.00
624.0710, 22739.00
625.2370, 23097.00
626.4030, 23036.00
627.5690, 22990.00
628.7340, 23168.00
629.9000, 23042.00
631.0650, 23074.00
632.2300, 23340.00
633.3950, 23236.00
634.5600, 23429.00
635.7240, 23259.00
636.8890, 23451.00
638.0530, 23504.00
639.2170, 23560.00
640.3810, 23649.00
641.5450, 23714.00
642.7080, 23810.00
643.8720, 23910.00
645.0350, 24182.00
646.1980, 24585.00
647.3610, 24509.00
648.5240, 25168.00
649.6870, 25488.00
650.8490, 26165.00
652.0120, 26867.00
653.1740, 27802.00
654.3360, 28615.00
655.4980, 30087.00
656.6600, 31170.00
657.8210, 32456.00
658.9830, 33269.00
660.1440, 33808.00
661.3050, 33943.00
662.4660, 33462.00
663.6270, 32356.00
664.7870, 31302.00
665.9480, 30176.00
667.1080, 28997.00
668.2680, 27563.00
669.4280, 26913.00
670.5880, 26132.00
671.7480, 25550.00
672.9070, 25073.00
674.0670, 24523.00
675.2260, 24557.00
676.3850, 24354.00
677.5440, 23965.00
678.7030, 23695.00
679.8610, 23715.00
681.0200, 23705.00
682.1780, 23771.00
683.3360, 23466.00
684.4940, 23290.00
685.6520, 23280.00
686.8090, 23135.00
687.9670, 23173.00
689.1240, 23311.00
690.2810, 23062.00
691.4380, 23197.00
692.5950, 22952.00
693.7520, 23027.00
694.9080, 23158.00
696.0650, 23136.00
697.2210, 23061.00
698.3770, 22943.00
699.5330, 22987.74
700.6880, 23297.00
701.8440, 22964.00
702.9990, 23114.00
704.1550, 22949.00
705.3100, 23141.00
706.4650, 22964.00
707.6190, 22826.00
708.7740, 22944.00
709.9290, 22969.00
711.0830, 22813.00
712.2370, 22792.00
713.3910, 22875.00
714.5450, 22873.00
715.6980, 22935.00
716.8520, 22940.00
718.0050, 22706.00
719.1580, 23016.00
720.3110, 22883.00
721.4640, 22633.00
722.6170, 22834.00
723.7700, 22768.00
724.9220, 22623.00
726.0740, 22756.00
727.2260, 22628.00
728.3780, 22757.00
729.5300, 22718.00
730.6810, 22924.00
731.8330, 22862.00
732.9840, 22613.00
734.1350, 22830.00
735.2860, 22733.00
736.4370, 22673.00
737.5880, 22729.00
738.7380, 22811.00
739.8880, 22642.00
741.0390, 22532.00
742.1890, 22786.00
743.3380, 22819.00
744.4880, 22526.00
745.6380, 22705.00
746.7870, 22629.00
747.9360, 22710.00
749.0850, 22532.00
750.2340, 22731.00
751.3830, 22677.00
752.5310, 22920.00
753.6800, 22612.00
754.8280, 23168.00
755.9760, 22738.00
757.1240, 22595.00
758.2720, 22784.00
759.4190, 22644.00
760.5670, 22606.00
761.7140, 22636.00
762.8610, 22645.00
764.0080, 22567.00
765.1550, 22556.00
766.3020, 22574.00
767.4480, 22707.00
768.5950, 22653.00
769.7410, 22408.00
770.8870, 22652.00
772.0330, 22547.00
773.1780, 22665.00
774.3240, 22707.00
775.4690, 22762.00
776.6140, 22609.00
777.7590, 22613.00
778.9040, 22679.00
780.0490, 22576.00
781.1940, 22795.00
782.3380, 22728.00
783.4820, 22781.00
784.6260, 22811.00
785.7700, 22612.00
786.9140, 22765.00
788.0580, 22672.00
789.2010, 22469.00
790.3450, 22436.00
791.4880, 22414.00
792.6310, 22645.00
793.7730, 22328.00
794.9160, 22538.00
796.0590, 22557.00
797.2010, 22543.00
798.3430, 22524.00
799.4850, 22551.00
800.6270, 22454.00
801.7690, 22507.00
802.9100, 22576.00
804.0520, 22438.00
805.1930, 22348.00
806.3340, 22458.00
807.4750, 22538.00
808.6160, 22411.00
809.7560, 22579.00
810.8970, 22546.00
812.0370, 22459.00
813.1770, 22564.00
814.3170, 22481.00
815.4570, 22579.00
816.5960, 22492.00
817.7360, 22497.44
818.8750, 22498.00
820.0140, 22449.00
821.1530, 22450.00
822.2920, 22385.00
823.4310, 22459.00
824.5690, 22608.00
825.7070, 22555.00
826.8460, 22344.00
827.9840, 22475.00
829.1220, 22442.00
830.2590, 22374.00
831.3970, 22641.00
832.5340, 22470.00
833.6710, 22482.00
834.8080, 22732.00
835.9450, 22401.00
837.0820, 22620.00
838.2190, 22757.00
839.3550, 22880.00
840.4910, 22956.99
841.6270, 22826.00
842.7630, 23031.00
843.8990, 23074.00
845.0350, 23112.00
846.1700, 23384.00
847.3060, 23393.00
848.4410, 23476.00
849.5760, 23500.00
850.7100, 23373.00
851.8450, 23276.00
852.9800, 23244.00
854.1140, 23010.00
855.2480, 22982.00
856.3820, 22893.00
857.5160, 22724.00
858.6500, 22726.00
859.7830, 22638.34
860.9170, 22616.00
862.0500, 22567.00
863.1830, 22445.00
864.3160, 22424.16
865.4480, 22539.00
866.5810, 22459.00
867.7130, 22541.00
868.8460, 22564.00
869.9780, 22501.00
871.1100, 22460.00
872.2410, 22504.00
873.3730, 22467.00
874.5050, 22716.00
875.6360, 22376.00
876.7670, 22586.00
877.8980, 22575.00
879.0290, 22485.00
880.1590, 22578.00
881.2900, 22497.00
882.4200, 22528.00
883.5500, 22440.00
884.6800, 22435.00
885.8100, 22622.00
886.9400, 22531.00
888.0690, 22538.00
889.1990, 22281.00
890.3280, 22485.00
891.4570, 22451.00
892.5860, 22465.00
893.7140, 22494.00
894.8430, 22535.00
895.9710, 22682.00
897.1000, 22505.00
898.2280, 22544.00
899.3560, 22491.00
900.4830, 22368.00
901.6110, 22475.00
902.7380, 22389.00
903.8660, 22566.00
904.9930, 22528.95
906.1200, 22441.00
907.2460, 22534.00
908.3730, 22487.00
909.5000, 22487.00
910.6260, 22577.00
911.7520, 22569.00
912.8780, 22427.00
914.0040, 22267.00
915.1290, 22397.00
916.2550, 22418.00
917.3800, 22413.00
918.5050, 22357.00
919.6300, 22252.00
920.7550, 22424.00
921.8800, 22328.00
923.0040, 22246.00
924.1290, 22372.00
925.2530, 22322.00
926.3770, 22473.00
927.5010, 22320.00
928.6250, 22415.00
929.7480, 22282.00
930.8720, 22218.00
931.9950, 22175.00
933.1180, 22468.00
934.2410, 21998.00
935.3640, 22435.00
936.4860, 21933.00
937.6090, 22117.00
938.7310, 22176.00
939.8530, 22199.00
940.9750, 22248.51
942.0970, 22246.38
943.2180, 22209.00
944.3400, 22188.00
945.4610, 22180.08
946.5820, 22161.55
947.7030, 22161.00
948.8240, 22188.00
949.9450, 22183.00
951.0650, 22185.61
952.1860, 22192.28
953.3060, 22177.00
954.4260, 22196.00
955.5460, 22188.53
956.6650, 22196.45
957.7850, 22220.00
958.9040, 22255.00
960.0230, 22256.00
961.1420, 22262.00
962.2610, 22288.71
963.3800, 22248.00
964.4990, 22271.00
965.6170, 22286.00
966.7350, 22151.00
967.8530, 22127.00
968.9710, 22148.00
970.0890, 22295.00
971.2070, 22157.00
972.3240, 22513.00
973.4410, 22368.00
974.5580, 22459.00
975.6750, 22350.00
976.7920, 22490.00
977.9090, 22448.00
979.0250, 22343.00
980.1410, 22433.00
981.2580, 22410.00
982.3740, 22465.00
983.4890, 22571.00
984.6050, 22613.00
985.7200, 22535.00
986.8360, 22645.00
987.9510, 22662.00
989.0660, 22649.00
990.1810, 22942.00
991.2950, 22860.00
992.4100, 23002.00
993.5240, 22996.00
994.6390, 23269.00
995.7530, 23257.00
996.8660, 23622.00
997.9800, 23762.00
999.0940, 24193.00
1000.207, 24655.00
1001.320, 25000.00
1002.433, 25639.00
1003.546, 26661.00
1004.659, 27782.00
1005.772, 29307.00
1006.884, 31366.00
1007.996, 34080.00
1009.108, 37041.00
1010.220, 40512.00
1011.332, 43449.00
1012.444, 45746.00
1013.555, 46552.00
1014.666, 44751.00
1015.777, 41629.00
1016.888, 37815.00
1017.999, 34217.00
1019.110, 31106.00
1020.220, 28753.00
1021.331, 27342.00
1022.441, 26216.00
1023.551, 25470.00
1024.661, 24816.00
1025.770, 24380.00
1026.880, 24152.00
1027.989, 24031.00
1029.098, 23827.00
1030.207, 23787.00
1031.316, 23629.00
1032.425, 23529.00
1033.533, 23697.00
1034.642, 23563.00
1035.750, 23788.00
1036.858, 24099.00
1037.966, 24178.00
1039.073, 24218.44
1040.181, 24079.00
1041.288, 24099.00
1042.396, 23967.00
1043.503, 23863.00
1044.610, 23570.00
1045.716, 23142.00
1046.823, 22916.00
1047.929, 22729.00
1049.036, 22549.00
1050.142, 22311.00
1051.248, 22286.00
1052.353, 22251.00
1053.459, 22288.00
1054.564, 22096.00
1055.670, 22131.00
1056.775, 22018.00
1057.880, 21813.00
1058.985, 21742.00
1060.089, 21807.00
1061.194, 21718.00
1062.298, 21796.00
1063.402, 21789.00
1064.506, 21656.00
1065.610, 21701.00
1066.713, 21843.00
1067.817, 21760.00
1068.920, 21816.48
1070.023, 21488.00
1071.126, 21781.00
1072.229, 21624.00
1073.332, 21540.00
1074.435, 21623.00
1075.537, 21581.00
1076.639, 21526.00
1077.741, 21529.00
1078.843, 21496.00
1079.945, 21504.00
1081.046, 21533.91
1082.148, 21492.00
1083.249, 21498.45
1084.350, 21539.00
1085.451, 21455.00
1086.551, 21436.00
1087.652, 21388.53
1088.752, 21353.26
1089.853, 21320.00
1090.953, 21276.00
1092.053, 21249.00
1093.152, 21157.00
1094.252, 21168.00
1095.351, 21147.96
1096.451, 21283.00
1097.550, 21181.00
1098.649, 21227.00
1099.748, 21294.00
1100.846, 21226.00
1101.945, 21231.00
1103.043, 21201.41
1104.141, 21286.00
1105.239, 21100.00
1106.337, 21140.00
1107.434, 21062.00
1108.532, 20999.00
1109.629, 21013.00
1110.726, 20936.00
1111.823, 20989.00
1112.920, 21017.00
1114.017, 21076.00
1115.113, 21238.00
1116.210, 21245.00
1117.306, 21458.00
1118.402, 21628.00
1119.498, 21490.00
1120.593, 21870.00
1121.689, 21813.00
1122.784, 21787.00
1123.879, 21791.00
1124.974, 21827.00
1126.069, 21269.00
1127.164, 21236.00
1128.259, 21159.00
1129.353, 20983.00
1130.447, 20875.00
1131.541, 20677.00
1132.635, 20627.02
1133.729, 20959.00
1134.822, 20605.00
1135.916, 20659.00
1137.009, 20838.00
1138.102, 20552.00
1139.195, 20616.00
1140.288, 20572.00
1141.380, 20560.00
1142.473, 20699.00
1143.565, 20446.00
1144.657, 20409.00
1145.749, 20462.00
1146.841, 20474.00
1147.932, 20403.00
1149.024, 20355.00
1150.115, 20511.00
1151.206, 20391.00
1152.297, 20380.00
1153.388, 20222.00
1154.479, 20190.00
1155.569, 20312.00
1156.659, 20220.00
1157.750, 20348.00
1158.839, 20358.00
1159.929, 20179.00
1161.019, 20196.00
1162.108, 20246.00
1163.198, 20133.00
1164.287, 20064.00
1165.376, 20192.00
1166.465, 20003.00
1167.553, 20091.00
1168.642, 20163.00
1169.730, 19925.00
1170.818, 20043.00
1171.906, 20200.00
1172.994, 20107.00
1174.082, 20078.00
1175.170, 20125.00
1176.257, 20065.05
1177.344, 20102.00
1178.431, 20033.00
1179.518, 20101.00
1180.605, 20085.00
1181.691, 20067.08
1182.778, 20125.00
1183.864, 20034.00
1184.950, 19884.00
1186.036, 19846.00
1187.122, 19893.00
1188.207, 19802.00
1189.292, 19785.00
1190.378, 19949.00
1191.463, 20058.00
1192.548, 19979.00
1193.632, 19965.00
1194.717, 19815.00
1195.801, 19942.00
1196.886, 19753.00
1197.970, 19876.00
1199.054, 19901.00
1200.137, 19909.00
1201.221, 19896.00
1202.305, 19876.09
1203.388, 19823.00
1204.471, 19901.00
1205.554, 19654.00
1206.637, 19860.00
1207.719, 19867.00
1208.802, 19679.00
1209.884, 19679.00
1210.966, 19806.00
1212.048, 19735.00
1213.130, 19712.00
1214.212, 19832.00
1215.293, 19622.00
1216.374, 19536.00
1217.456, 19685.00
1218.536, 19685.00
1219.617, 19528.00
1220.698, 19511.00
1221.778, 19756.00
1222.859, 19565.00
1223.939, 19703.00
1225.019, 19592.00
1226.099, 19517.00
1227.178, 19561.00
1228.258, 19540.00
1229.337, 19565.00
1230.417, 19606.00
1231.496, 19525.00
1232.574, 19515.00
1233.653, 19500.28
1234.732, 19502.00
1235.810, 19464.00
1236.888, 19397.00
1237.966, 19386.00
1239.044, 19379.50
1240.122, 19515.00
1241.199, 19400.00
1242.277, 19438.00
1243.354, 19442.00
1244.431, 19346.00
1245.508, 19438.00
1246.585, 19467.00
1247.661, 19444.00
1248.738, 19418.00
1249.814, 19417.65
1250.890, 19534.00
1251.966, 19310.00
1253.042, 19355.00
1254.117, 19144.00
1255.193, 19259.00
1256.268, 19273.00
1257.343, 19125.00
1258.418, 19168.00
1259.493, 19178.00
1260.567, 19122.00
1261.642, 19108.00
1262.716, 19172.00
1263.790, 19028.00
1264.864, 19149.00
1265.938, 19166.00
1267.011, 19098.00
1268.085, 19202.00
1269.158, 19174.00
1270.231, 19021.00
1271.304, 19234.00
1272.377, 19244.00
1273.450, 19026.00
1274.522, 19059.00
1275.594, 19067.00
1276.666, 19090.00
1277.738, 19100.00
1278.810, 19127.00
1279.882, 19108.79
1280.953, 19109.41
1282.025, 19015.00
1283.096, 19041.00
1284.167, 18882.00
1285.238, 18748.00
1286.308, 19002.00
1287.379, 18654.00
1288.449, 18916.00
1289.519, 18833.00
1290.589, 18914.00
1291.659, 18785.00
1292.729, 18916.00
1293.798, 18788.00
1294.868, 18770.00
1295.937, 18563.00
1297.006, 18802.00
1298.075, 18751.00
1299.143, 18873.00
1300.212, 18777.00
1301.280, 18842.00
1302.348, 18748.00
1303.416, 18802.00
1304.484, 18696.00
1305.552, 18677.00
1306.620, 18729.00
1307.687, 18839.00
1308.754, 18640.00
1309.821, 18489.00
1310.888, 18806.00
1311.955, 18613.00
1313.021, 18850.00
1314.088, 18751.00
1315.154, 18873.00
1316.220, 18918.00
1317.286, 18631.00
1318.352, 18853.00
1319.417, 18603.00
1320.483, 18819.00
1321.548, 18637.00
1322.613, 18597.00
1323.678, 18728.00
1324.743, 18638.00
1325.807, 18612.00
1326.872, 18656.00
1327.936, 18664.00
1329.000, 18486.00
1330.064, 18672.00
1331.128, 18467.00
1332.191, 18612.00
1333.255, 18504.00
1334.318, 18500.00
1335.381, 18390.00
1336.444, 18451.00
1337.507, 18494.00
1338.569, 18572.00
1339.632, 18558.00
1340.694, 18497.00
1341.756, 18356.00
1342.818, 18428.00
1343.880, 18384.00
1344.941, 18444.00
1346.003, 18411.00
1347.064, 18398.54
1348.125, 18419.00
1349.186, 18367.00
1350.247, 18414.00
1351.308, 18428.00
1352.368, 18271.00
1353.428, 18470.00
1354.489, 18191.00
1355.549, 18253.00
1356.608, 18268.00
1357.668, 18262.00
1358.727, 18180.00
1359.787, 18288.00
1360.846, 18220.00
1361.905, 18311.00
1362.964, 18382.00
1364.022, 18230.00
1365.081, 18191.00
1366.139, 18330.00
1367.197, 18212.00
1368.255, 18188.00
1369.313, 18165.00
1370.371, 18129.64
1371.428, 18038.00
1372.486, 18152.00
1373.543, 18090.00
1374.600, 18166.00
1375.657, 18268.00
1376.713, 18223.00
1377.770, 18139.00
1378.826, 17966.00
1379.882, 18101.00
1380.938, 17881.00
1381.994, 17934.00
1383.050, 18015.00
1384.106, 18074.00
1385.161, 17998.00
1386.216, 17843.00
1387.271, 18005.00
1388.326, 18042.00
1389.381, 17864.00
1390.435, 17877.00
1391.490, 18042.00
1392.544, 18016.00
1393.598, 17932.00
1394.652, 17946.00
1395.705, 17966.00
1396.759, 17845.00
1397.812, 18056.00
1398.866, 17896.00
1399.919, 17755.00
1400.972, 17675.00
1402.024, 17851.00
1403.077, 17775.00
1404.129, 17773.00
1405.181, 17681.00
1406.233, 17952.00
1407.285, 17653.00
1408.337, 17924.00
1409.389, 17820.00
1410.440, 17814.00
1411.491, 17648.00
1412.542, 17662.00
1413.593, 17692.00
1414.644, 17505.00
1415.695, 17628.00
1416.745, 17479.00
1417.795, 17773.00
1418.845, 17652.00
1419.895, 17586.00
1420.945, 17499.00
1421.995, 17606.00
1423.044, 17599.00
1424.093, 17616.00
1425.142, 17446.00
1426.191, 17514.00
1427.240, 17463.00
1428.289, 17460.00
1429.337, 17508.00
1430.385, 17475.00
1431.433, 17376.00
1432.481, 17394.00
1433.529, 17531.00
1434.577, 17388.00
1435.624, 17375.00
1436.672, 17570.00
1437.719, 17418.00
1438.766, 17566.00
1439.812, 17426.00
1440.859, 17537.00
1441.905, 17307.00
1442.952, 17316.00
1443.998, 17472.00
1445.044, 17386.00
1446.090, 17417.00
1447.135, 17482.00
1448.181, 17462.00
1449.226, 17512.00
1450.271, 17511.00
1451.316, 17548.00
1452.361, 17397.00
1453.405, 17408.00
1454.450, 17348.00
1455.494, 17242.00
1456.538, 17310.00
1457.582, 17309.00
1458.626, 17261.00
1459.670, 17232.00
1460.713, 17228.00
1461.757, 17408.00
1462.800, 17283.00
1463.843, 17319.00
1464.886, 17244.00
1465.928, 17074.00
1466.971, 17100.00
1468.013, 17052.41
1469.055, 17220.00
1470.097, 17158.00
1471.139, 17092.00
1472.181, 17327.00
1473.222, 17217.00
1474.263, 17133.00
1475.305, 16898.00
1476.346, 16887.21
1477.386, 17011.00
1478.427, 16858.00
1479.468, 17028.00
1480.508, 17178.00
1481.548, 17012.00
1482.588, 17104.00
1483.628, 16942.00
1484.668, 16895.00
1485.707, 17173.00
1486.747, 17439.00
1487.786, 17076.00
1488.825, 17052.00
1489.864, 17059.00
1490.902, 16950.00
1491.941, 16964.00
1492.979, 16974.00
1494.017, 16916.00
1495.055, 17011.00
1496.093, 16726.00
1497.131, 16905.00
1498.168, 16846.00
1499.206, 16950.00
1500.243, 17058.00
1501.280, 16763.00
1502.317, 16950.00
1503.354, 16721.00
1504.390, 16880.00
1505.426, 16851.00
1506.463, 16758.00
1507.499, 16878.00
1508.535, 16882.00
1509.570, 16963.00
1510.606, 17489.00
1511.641, 17231.00
1512.676, 17260.00
1513.711, 17044.00
1514.746, 16739.00
1515.781, 16620.00
1516.816, 16742.00
1517.850, 16627.00
1518.884, 16890.00
1519.918, 16895.00
1520.952, 16594.00
1521.986, 16693.00
1523.019, 16630.00
1524.053, 16481.00
1525.086, 16591.00
1526.119, 16608.00
1527.152, 16663.00
1528.185, 16535.00
1529.217, 16716.00
1530.250, 16804.00
1531.282, 16569.00
1532.314, 16724.00
1533.346, 16540.00
1534.377, 16708.00
1535.409, 16546.00
1536.440, 16533.00
1537.472, 16526.00
1538.503, 16506.00
1539.534, 16562.88
1540.564, 16549.00
1541.595, 16669.00
1542.625, 16687.00
1543.656, 16697.34
1544.686, 16550.00
1545.716, 16630.00
1546.745, 16459.00
1547.775, 16479.00
1548.804, 16476.00
1549.834, 16567.00
1550.863, 16515.78
1551.892, 16590.00
1552.920, 16436.00
1553.949, 16505.00
1554.977, 16432.00
1556.006, 16435.00
1557.034, 16377.00
1558.062, 16427.00
1559.089, 16317.00
1560.117, 16443.00
1561.144, 16321.00
1562.172, 16507.00
1563.199, 16416.00
1564.226, 16411.00
1565.252, 16447.00
1566.279, 16270.00
1567.305, 16370.00
1568.332, 16233.00
1569.358, 16422.00
1570.384, 16337.00
1571.409, 16334.00
1572.435, 16323.00
##END=



