##NAMES=Diopside
##RRUFFID=R060861
##IDEAL CHEMISTRY=CaMgSi_2_O_6_
##LOCALITY=Red Mountain Volcano, NW of Flagstaff, Arizona, USA
##OWNER=RRUFF
##SOURCE=Jennifer Sano
##DESCRIPTION=Worn brown fragment
##STATUS=The identification of this mineral has been confirmed by X-ray diffraction and chemical analysis
##URL=rruff.info/R060861
##MEASURED CHEMISTRY=(Ca_0.72_Fe^2+^_0.23_Na_0.05_)_Σ=1_(Mg_0.80_Al_0.15_Ti_0.03_Fe^3+^_0.02_)_Σ=1_(Si_1.82_Al_0.18_)_Σ=2_O_6_
##PIN_ID=M01653
##ORIENTATION=Laser parallel to -c* (0 0 -1). Fiducial mark perpendicular to laser is parallel to a [1 0 0]
167.2970, 14032.00
168.5310, 14028.00
169.7650, 14086.00
170.9990, 14097.45
172.2330, 14139.70
173.4670, 14204.00
174.7000, 14243.00
175.9330, 14302.00
177.1660, 14389.00
178.3990, 14518.00
179.6310, 14478.00
180.8640, 14570.00
182.0960, 14568.00
183.3280, 14874.00
184.5600, 15053.00
185.7910, 15344.00
187.0220, 15455.00
188.2540, 15605.00
189.4840, 15425.00
190.7150, 15666.00
191.9460, 15640.00
193.1760, 15934.00
194.4060, 15861.00
195.6360, 15781.00
196.8660, 15900.00
198.0960, 15766.00
199.3250, 15601.00
200.5540, 15807.00
201.7830, 15819.00
203.0120, 15925.00
204.2400, 15425.00
205.4690, 15084.00
206.6970, 14793.00
207.9250, 14720.00
209.1530, 14797.00
210.3800, 14764.00
211.6080, 15221.00
212.8350, 15300.00
214.0620, 15526.00
215.2880, 15594.00
216.5150, 15649.00
217.7410, 15889.00
218.9680, 15895.00
220.1940, 16400.00
221.4190, 16403.00
222.6450, 16496.00
223.8700, 16664.00
225.0960, 16704.00
226.3210, 16769.00
227.5450, 16656.00
228.7700, 16543.00
229.9940, 16493.00
231.2190, 16470.00
232.4430, 16432.00
233.6660, 16133.00
234.8900, 16158.00
236.1140, 15944.00
237.3370, 15916.00
238.5600, 15867.00
239.7830, 16020.00
241.0050, 15809.00
242.2280, 15725.00
243.4500, 15669.00
244.6720, 15863.00
245.8940, 15729.00
247.1160, 15757.00
248.3370, 15947.00
249.5580, 15948.00
250.7790, 15966.00
252.0000, 15898.00
253.2210, 15932.00
254.4410, 15915.00
255.6620, 15823.00
256.8820, 15757.00
258.1020, 15939.00
259.3210, 15830.73
260.5410, 15704.05
261.7600, 15776.00
262.9790, 15385.00
264.1980, 15265.00
265.4170, 15244.00
266.6360, 15335.00
267.8540, 15120.00
269.0720, 15104.00
270.2900, 15037.00
271.5080, 14993.00
272.7260, 15083.00
273.9430, 15123.00
275.1600, 15128.00
276.3770, 15308.00
277.5940, 15329.00
278.8100, 15328.00
280.0270, 15368.00
281.2430, 15686.00
282.4590, 15745.00
283.6750, 15869.00
284.8910, 16156.00
286.1060, 16312.00
287.3210, 16503.00
288.5360, 16782.19
289.7510, 16960.00
290.9660, 17285.00
292.1800, 17405.00
293.3950, 17590.00
294.6090, 17984.00
295.8230, 18279.00
297.0360, 18443.00
298.2500, 18710.00
299.4630, 19071.00
300.6760, 19465.00
301.8890, 19797.00
303.1020, 20075.00
304.3150, 20481.92
305.5270, 20786.00
306.7390, 21287.00
307.9510, 21767.00
309.1630, 22293.00
310.3750, 22729.00
311.5860, 23398.00
312.7970, 24089.00
314.0080, 24787.00
315.2190, 25245.00
316.4300, 25927.00
317.6400, 26722.00
318.8510, 27615.00
320.0610, 28442.00
321.2710, 29193.00
322.4800, 30104.00
323.6900, 30870.00
324.8990, 31733.00
326.1080, 32330.00
327.3170, 32898.00
328.5260, 33342.00
329.7340, 33853.00
330.9430, 34252.00
332.1510, 34321.00
333.3590, 34452.00
334.5670, 34257.00
335.7740, 34349.00
336.9820, 34193.00
338.1890, 33526.00
339.3960, 33249.00
340.6030, 32703.00
341.8100, 32521.00
343.0160, 32199.00
344.2220, 31732.00
345.4280, 31482.00
346.6340, 30988.00
347.8400, 30917.00
349.0460, 30919.00
350.2510, 30657.00
351.4560, 30423.00
352.6610, 30508.00
353.8660, 30390.00
355.0700, 30150.00
356.2750, 30200.00
357.4790, 30070.00
358.6830, 29975.00
359.8870, 29830.00
361.0910, 29677.00
362.2940, 29444.00
363.4970, 29270.93
364.7000, 29121.00
365.9030, 28760.00
367.1060, 28698.00
368.3080, 28251.00
369.5110, 28039.00
370.7130, 27774.00
371.9150, 27724.00
373.1170, 27626.00
374.3180, 27567.00
375.5200, 27649.00
376.7210, 27752.00
377.9220, 27995.00
379.1230, 28206.37
380.3230, 28560.73
381.5240, 28822.00
382.7240, 29459.00
383.9240, 29899.00
385.1240, 30547.00
386.3240, 31373.00
387.5230, 32032.00
388.7230, 32498.00
389.9220, 33360.00
391.1210, 34221.00
392.3200, 34698.00
393.5180, 35196.00
394.7170, 35237.00
395.9150, 35215.00
397.1130, 34536.00
398.3110, 33854.00
399.5080, 32846.00
400.7060, 31583.00
401.9030, 30136.00
403.1000, 28691.00
404.2970, 27076.00
405.4940, 25789.00
406.6910, 24312.00
407.8870, 23064.00
409.0830, 21935.00
410.2790, 20900.00
411.4750, 19995.00
412.6710, 19118.00
413.8660, 18424.00
415.0610, 17927.00
416.2560, 17387.00
417.4510, 16963.00
418.6460, 16643.00
419.8410, 16194.00
421.0350, 16092.00
422.2290, 15880.00
423.4230, 15662.00
424.6170, 15540.03
425.8100, 15190.00
427.0040, 15203.00
428.1970, 15008.00
429.3900, 14754.00
430.5830, 14740.00
431.7760, 14630.00
432.9680, 14687.00
434.1610, 14576.00
435.3530, 14350.00
436.5450, 14324.00
437.7360, 14231.00
438.9280, 14164.00
440.1190, 14071.00
441.3110, 14009.00
442.5020, 13885.00
443.6930, 13955.00
444.8830, 14003.00
446.0740, 13880.00
447.2640, 13912.00
448.4540, 13969.00
449.6440, 13940.00
450.8340, 13665.00
452.0240, 13871.00
453.2130, 13796.00
454.4020, 13930.00
455.5910, 13926.00
456.7800, 14019.00
457.9690, 14166.00
459.1570, 14238.00
460.3460, 14160.00
461.5340, 14359.00
462.7220, 14185.00
463.9090, 14314.00
465.0970, 14246.00
466.2840, 14306.00
467.4720, 14398.00
468.6590, 14408.00
469.8460, 14392.00
471.0320, 14508.00
472.2190, 14284.00
473.4050, 14397.00
474.5910, 14204.00
475.7770, 14379.00
476.9630, 14344.00
478.1490, 14233.00
479.3340, 14324.00
480.5190, 14433.00
481.7040, 14294.00
482.8890, 14487.00
484.0740, 14321.00
485.2580, 14234.00
486.4430, 14390.00
487.6270, 14232.00
488.8110, 14292.00
489.9950, 14265.00
491.1780, 14273.00
492.3620, 14337.00
493.5450, 14220.00
494.7280, 14337.00
495.9110, 14310.00
497.0940, 14368.00
498.2760, 14362.00
499.4590, 14390.16
500.6410, 14296.00
501.8230, 14431.00
503.0050, 14478.00
504.1860, 14463.00
505.3680, 14619.00
506.5490, 14794.00
507.7300, 14837.00
508.9110, 14876.00
510.0920, 15063.00
511.2730, 15201.00
512.4530, 15232.00
513.6330, 15377.00
514.8130, 15578.00
515.9930, 15935.00
517.1730, 15874.00
518.3520, 16002.00
519.5320, 16135.00
520.7110, 16159.00
521.8900, 16301.00
523.0690, 16495.00
524.2470, 16743.00
525.4260, 16788.00
526.6040, 17009.00
527.7820, 16969.00
528.9600, 17272.00
530.1380, 17395.00
531.3150, 17485.00
532.4930, 17565.00
533.6700, 17601.00
534.8470, 17754.00
536.0240, 17785.00
537.2000, 17788.85
538.3770, 17786.00
539.5530, 17735.00
540.7290, 17602.00
541.9050, 17541.00
543.0810, 17373.00
544.2570, 17358.00
545.4320, 17275.00
546.6080, 17205.00
547.7830, 17037.00
548.9580, 17030.00
550.1320, 16910.50
551.3070, 16962.00
552.4810, 16797.00
553.6550, 16860.00
554.8300, 16943.00
556.0030, 16865.00
557.1770, 16784.00
558.3510, 16740.00
559.5240, 16703.00
560.6970, 16543.54
561.8700, 16406.00
563.0430, 16210.00
564.2160, 16080.00
565.3880, 15883.00
566.5600, 15507.00
567.7320, 15576.00
568.9040, 15205.00
570.0760, 14930.00
571.2480, 15279.00
572.4190, 15004.00
573.5900, 14550.00
574.7610, 14386.00
575.9320, 14257.00
577.1030, 14050.00
578.2740, 13821.00
579.4440, 13716.00
580.6140, 13507.00
581.7840, 13333.00
582.9540, 13083.00
584.1240, 12993.00
585.2930, 12824.00
586.4630, 12595.00
587.6320, 12374.00
588.8010, 12111.00
589.9700, 11956.00
591.1380, 11734.12
592.3070, 11632.00
593.4750, 11369.00
594.6430, 11244.00
595.8110, 11101.90
596.9790, 10942.00
598.1460, 10945.00
599.3140, 10887.00
600.4810, 10861.00
601.6480, 10786.00
602.8150, 10731.00
603.9820, 10687.00
605.1480, 10672.00
606.3150, 10677.62
607.4810, 10730.00
608.6470, 10716.00
609.8130, 10817.00
610.9790, 10812.00
612.1440, 10803.00
613.3100, 10857.00
614.4750, 10992.00
615.6400, 11159.00
616.8050, 11162.00
617.9690, 11151.00
619.1340, 11473.00
620.2980, 11585.00
621.4620, 11556.00
622.6260, 11747.00
623.7900, 11865.00
624.9540, 12088.00
626.1170, 12242.00
627.2810, 12329.00
628.4440, 12622.00
629.6070, 13004.00
630.7690, 13085.00
631.9320, 13360.00
633.0950, 13487.00
634.2570, 13891.00
635.4190, 14323.00
636.5810, 14812.00
637.7430, 14947.00
638.9040, 15335.00
640.0660, 15963.00
641.2270, 16270.00
642.3880, 16920.00
643.5490, 17455.00
644.7100, 18248.00
645.8700, 18993.00
647.0310, 19771.00
648.1910, 20893.00
649.3510, 22015.00
650.5110, 23338.00
651.6710, 24736.00
652.8300, 26551.00
653.9900, 28653.00
655.1490, 30979.00
656.3080, 33231.00
657.4670, 35952.00
658.6250, 38319.00
659.7840, 41882.00
660.9420, 44632.00
662.1010, 48161.00
663.2590, 50542.00
664.4170, 52910.00
665.5740, 54305.00
666.7320, 55251.00
667.8890, 55148.00
669.0460, 54124.00
670.2030, 52591.00
671.3600, 49371.00
672.5170, 46718.00
673.6740, 43432.00
674.8300, 40435.00
675.9860, 37187.00
677.1420, 34225.00
678.2980, 31780.00
679.4540, 29574.00
680.6090, 27420.00
681.7650, 25814.00
682.9200, 24017.00
684.0750, 22812.00
685.2300, 21376.00
686.3840, 20361.00
687.5390, 19332.00
688.6930, 18736.00
689.8470, 17985.00
691.0010, 17223.00
692.1550, 16724.00
693.3090, 16148.00
694.4620, 15699.00
695.6160, 15186.00
696.7690, 14946.00
697.9220, 14729.00
699.0750, 14451.00
700.2280, 14224.00
701.3800, 14348.00
702.5320, 15368.00
703.6850, 14964.00
704.8370, 14836.00
705.9880, 14423.00
707.1400, 13889.00
708.2920, 12951.00
709.4430, 12921.00
710.5940, 12621.00
711.7450, 12587.00
712.8960, 12614.00
714.0470, 12260.00
715.1970, 12358.00
716.3480, 12017.00
717.4980, 12059.00
718.6480, 11840.00
719.7980, 11699.00
720.9470, 11570.00
722.0970, 11488.00
723.2460, 11396.00
724.3960, 11294.47
725.5450, 11260.00
726.6940, 11139.00
727.8420, 11041.00
728.9910, 11024.00
730.1390, 10906.00
731.2870, 10877.14
732.4350, 10788.00
733.5830, 10799.00
734.7310, 10687.00
735.8790, 10649.00
737.0260, 10669.00
738.1730, 10724.00
739.3200, 10745.00
740.4670, 10744.00
741.6140, 10816.00
742.7610, 10699.00
743.9070, 10948.00
745.0530, 10799.00
746.1990, 10820.00
747.3450, 10738.00
748.4910, 10974.00
749.6370, 11161.00
750.7820, 11936.00
751.9270, 12026.00
753.0720, 11894.00
754.2170, 13006.00
755.3620, 12162.00
756.5070, 12127.00
757.6510, 12350.00
758.7950, 12044.00
759.9400, 12131.00
761.0840, 12436.00
762.2270, 12296.00
763.3710, 12114.00
764.5140, 11889.00
765.6580, 12043.00
766.8010, 12222.00
767.9440, 12313.00
769.0870, 12248.00
770.2290, 12313.00
771.3720, 12401.00
772.5140, 12387.87
773.6560, 12564.00
774.7990, 12522.00
775.9400, 12589.00
777.0820, 12635.63
778.2240, 12641.00
779.3650, 12696.00
780.5060, 12718.00
781.6470, 12768.00
782.7880, 12847.00
783.9290, 12867.10
785.0690, 12792.00
786.2100, 12882.00
787.3500, 12865.00
788.4900, 12744.00
789.6300, 12986.00
790.7700, 12911.00
791.9090, 12995.00
793.0490, 12962.00
794.1880, 13014.00
795.3270, 13057.00
796.4660, 13068.00
797.6050, 13150.24
798.7440, 13087.00
799.8820, 13298.00
801.0200, 13177.00
802.1590, 13241.00
803.2970, 13244.00
804.4340, 13100.00
805.5720, 13369.00
806.7100, 13388.00
807.8470, 13655.00
808.9840, 13537.00
810.1210, 13640.00
811.2580, 13632.00
812.3950, 13626.00
813.5310, 13840.00
814.6680, 13895.00
815.8040, 13782.00
816.9400, 14151.00
818.0760, 13996.00
819.2120, 13980.00
820.3470, 14116.00
821.4830, 14088.00
822.6180, 13964.00
823.7530, 14028.00
824.8880, 13974.00
826.0230, 14062.00
827.1580, 14087.00
828.2920, 14008.00
829.4270, 13911.00
830.5610, 13871.00
831.6950, 13912.00
832.8290, 13862.00
833.9620, 13892.00
835.0960, 13728.00
836.2290, 13737.00
837.3620, 13745.00
838.4950, 13694.00
839.6280, 13701.00
840.7610, 13690.00
841.8940, 13695.00
843.0260, 13558.00
844.1580, 13660.00
845.2910, 13648.00
846.4230, 13813.00
847.5540, 13836.00
848.6860, 13961.00
849.8170, 14107.00
850.9490, 14082.00
852.0800, 14284.00
853.2110, 14361.00
854.3420, 14614.00
855.4730, 14694.00
856.6030, 15015.00
857.7340, 15005.00
858.8640, 15317.00
859.9940, 15603.00
861.1240, 15684.44
862.2540, 16079.00
863.3830, 15956.00
864.5130, 16201.00
865.6420, 16284.00
866.7710, 16573.00
867.9000, 16419.00
869.0290, 16492.00
870.1570, 16648.00
871.2860, 16588.00
872.4140, 16692.16
873.5430, 16665.00
874.6710, 16741.00
875.7980, 16670.00
876.9260, 16595.00
878.0540, 16539.00
879.1810, 16507.00
880.3080, 16500.26
881.4360, 16562.00
882.5630, 16487.00
883.6890, 16502.00
884.8160, 16404.00
885.9420, 16508.00
887.0690, 16372.00
888.1950, 16422.00
889.3210, 16316.00
890.4470, 16285.00
891.5730, 16272.00
892.6980, 16234.12
893.8240, 16258.00
894.9490, 16249.00
896.0740, 16151.00
897.1990, 16213.00
898.3240, 16283.00
899.4480, 16237.00
900.5730, 16312.00
901.6970, 16244.00
902.8210, 16245.00
903.9450, 16174.00
905.0690, 16127.00
906.1930, 16161.00
907.3160, 16226.00
908.4400, 16220.00
909.5630, 16308.00
910.6860, 16324.00
911.8090, 16196.00
912.9320, 16174.00
914.0550, 16350.00
915.1770, 16421.00
916.2990, 16498.00
917.4210, 16595.68
918.5440, 16618.50
919.6650, 16728.00
920.7870, 16653.00
921.9090, 16698.00
923.0300, 16681.00
924.1510, 16758.00
925.2720, 16654.00
926.3930, 16680.00
927.5140, 16895.00
928.6350, 17049.00
929.7550, 16840.00
930.8760, 16829.00
931.9960, 17107.00
933.1160, 16959.00
934.2360, 16941.00
935.3550, 17034.00
936.4750, 16988.00
937.5940, 17130.00
938.7140, 17038.00
939.8330, 17317.00
940.9520, 17216.00
942.0710, 17048.00
943.1890, 17715.00
944.3080, 17883.00
945.4260, 17536.00
946.5440, 17631.00
947.6620, 17689.00
948.7800, 17691.00
949.8980, 17989.00
951.0160, 18119.00
952.1330, 18466.00
953.2500, 18406.00
954.3680, 18548.00
955.4850, 18802.00
956.6010, 18883.00
957.7180, 19091.00
958.8350, 19188.00
959.9510, 19580.00
961.0670, 19648.00
962.1830, 20112.00
963.2990, 20273.00
964.4150, 20478.00
965.5310, 20851.00
966.6460, 21128.00
967.7620, 21243.00
968.8770, 21705.00
969.9920, 21946.00
971.1070, 22145.00
972.2210, 22435.00
973.3360, 22997.00
974.4500, 23271.00
975.5650, 23757.00
976.6790, 24410.00
977.7930, 24900.00
978.9070, 25370.00
980.0200, 26069.00
981.1340, 26561.00
982.2470, 27103.00
983.3610, 27882.00
984.4740, 28648.00
985.5870, 29519.00
986.6990, 30399.00
987.8120, 31361.00
988.9250, 32388.00
990.0370, 33921.00
991.1490, 35136.00
992.2610, 36516.00
993.3730, 37882.00
994.4850, 39573.43
995.5960, 41257.00
996.7080, 43177.00
997.8190, 45063.00
998.9300, 46964.00
1000.041, 48943.00
1001.152, 50342.00
1002.263, 51907.00
1003.373, 53141.00
1004.484, 53902.00
1005.594, 54868.00
1006.704, 55016.00
1007.814, 54875.00
1008.924, 54134.00
1010.034, 53099.00
1011.143, 51281.00
1012.253, 49489.00
1013.362, 47515.00
1014.471, 44874.00
1015.580, 42589.00
1016.689, 40138.00
1017.797, 37650.00
1018.906, 35558.00
1020.014, 33550.00
1021.122, 31735.00
1022.230, 30234.00
1023.338, 28889.00
1024.446, 27624.00
1025.554, 26380.00
1026.661, 25417.00
1027.768, 24617.00
1028.875, 23842.00
1029.983, 23461.00
1031.089, 24312.00
1032.196, 23890.00
1033.303, 22427.00
1034.409, 23052.00
1035.515, 22083.00
1036.622, 20478.00
1037.728, 20120.00
1038.833, 19982.00
1039.939, 19765.00
1041.045, 19259.00
1042.150, 19093.00
1043.255, 18563.00
1044.360, 18434.00
1045.465, 18095.00
1046.570, 17870.00
1047.675, 17574.00
1048.779, 17283.78
1049.884, 17028.00
1050.988, 16716.00
1052.092, 16414.00
1053.196, 16141.00
1054.300, 15983.00
1055.404, 15834.00
1056.507, 15486.00
1057.610, 15195.00
1058.714, 15045.48
1059.817, 14835.29
1060.920, 14722.00
1062.022, 14528.00
1063.125, 14398.00
1064.228, 14137.00
1065.330, 13830.00
1066.432, 13837.00
1067.534, 13725.00
1068.636, 13730.00
1069.738, 13695.00
1070.840, 13366.00
1071.941, 13318.00
1073.042, 13179.00
1074.144, 13061.00
1075.245, 12969.00
1076.346, 12922.00
1077.446, 12926.00
1078.547, 12636.00
1079.647, 12583.00
1080.748, 12660.00
1081.848, 12806.00
1082.948, 12827.00
1084.048, 12745.00
1085.148, 12711.00
1086.247, 12701.00
1087.347, 12556.00
1088.446, 12552.00
1089.545, 12404.00
1090.644, 12387.00
1091.743, 12330.00
1092.842, 12313.00
1093.940, 12108.00
1095.039, 12129.00
1096.137, 12055.00
1097.235, 12104.00
1098.333, 12020.00
1099.431, 11993.00
1100.529, 11875.00
1101.627, 11823.00
1102.724, 11984.00
1103.822, 11838.00
1104.919, 11861.00
1106.016, 11761.00
1107.113, 11769.00
1108.209, 11691.00
1109.306, 11734.00
1110.402, 11729.00
1111.499, 11529.00
1112.595, 11633.00
1113.691, 11528.00
1114.787, 11423.00
1115.883, 11472.00
1116.978, 11437.00
1118.074, 11411.00
1119.169, 11372.00
1120.264, 11281.00
1121.359, 11174.00
1122.454, 11063.00
1123.549, 10943.00
1124.644, 10746.00
1125.738, 10680.00
1126.832, 10568.00
1127.927, 10426.45
1129.021, 10252.00
1130.115, 10196.00
1131.208, 10080.00
1132.302, 10005.11
1133.396, 9780.000
1134.489, 9763.000
1135.582, 9610.000
1136.675, 9443.000
1137.768, 9500.000
1138.861, 9125.000
1139.954, 9222.000
1141.046, 9167.000
1142.138, 8955.000
1143.231, 8935.000
1144.323, 8924.000
1145.415, 8850.000
1146.507, 8812.000
1147.598, 8715.000
1148.690, 8571.000
1149.781, 8591.000
1150.872, 8476.000
1151.964, 8489.000
1153.054, 8491.000
1154.145, 8290.000
1155.236, 8332.000
1156.327, 8297.000
1157.417, 8349.000
1158.507, 8405.000
1159.597, 8264.000
1160.687, 8252.000
1161.777, 8225.000
1162.867, 8310.000
1163.956, 8278.000
1165.046, 8092.000
1166.135, 8200.000
1167.224, 8079.000
1168.313, 8148.000
1169.402, 8202.000
1170.491, 8159.000
1171.580, 8178.000
1172.668, 8073.000
1173.756, 8153.000
1174.845, 8090.000
1175.933, 8094.000
1177.020, 8091.000
1178.108, 8025.000
1179.196, 8047.000
1180.283, 8164.000
1181.371, 8051.000
1182.458, 7970.000
1183.545, 8098.000
1184.632, 7979.000
1185.719, 8091.000
1186.805, 8018.000
1187.892, 8009.000
1188.978, 8049.000
1190.065, 8066.000
1191.151, 7954.000
1192.237, 8018.000
1193.323, 7997.000
1194.408, 8135.000
1195.494, 7978.000
1196.579, 8049.000
1197.664, 8044.000
1198.750, 7972.000
1199.835, 7891.000
1200.919, 7985.000
1202.004, 7989.000
1203.089, 8101.000
1204.173, 7904.000
1205.258, 7908.000
1206.342, 7964.000
1207.426, 7965.000
1208.510, 7966.000
1209.594, 8040.000
1210.677, 8008.000
1211.761, 8023.000
1212.844, 8011.000
1213.927, 8010.408
1215.010, 8044.000
1216.093, 8010.000
1217.176, 8018.000
1218.259, 8004.000
1219.341, 8064.000
1220.424, 8024.303
1221.506, 7909.000
1222.588, 8010.000
1223.670, 7972.000
1224.752, 8031.000
1225.834, 8021.000
1226.915, 8095.000
1227.997, 7986.000
1229.078, 8028.000
1230.159, 7976.000
1231.240, 8015.000
1232.321, 8032.000
1233.402, 8085.000
1234.483, 8025.000
1235.563, 8075.000
1236.644, 8086.000
1237.724, 8133.000
1238.804, 7945.000
1239.884, 7978.000
1240.964, 7996.000
1242.044, 8086.000
1243.123, 8011.000
1244.203, 7876.000
1245.282, 7920.000
1246.361, 8022.000
1247.440, 8125.000
1248.519, 8023.000
1249.598, 8094.000
1250.676, 8037.000
1251.755, 8007.000
1252.833, 8113.000
1253.911, 8015.000
1254.989, 8009.000
1256.067, 8068.000
1257.145, 7979.000
1258.223, 7941.000
1259.300, 8002.000
1260.378, 8095.000
1261.455, 8022.000
1262.532, 8130.000
1263.609, 7945.000
1264.686, 8098.000
1265.763, 8151.000
1266.840, 8019.000
1267.916, 8158.000
1268.992, 8159.000
1270.069, 8110.000
1271.145, 8187.000
1272.221, 8002.000
1273.296, 8146.000
1274.372, 8002.000
1275.448, 8141.000
1276.523, 8163.000
1277.598, 8153.000
1278.673, 8172.000
1279.749, 8067.000
1280.823, 8139.000
1281.898, 8060.000
1282.973, 8122.000
1284.047, 8174.000
1285.122, 8015.000
1286.196, 8184.000
1287.270, 8062.000
1288.344, 8163.000
1289.418, 8188.000
1290.491, 7996.000
1291.565, 8295.000
1292.638, 8167.000
1293.712, 8235.000
1294.785, 8176.000
1295.858, 8303.000
1296.931, 8293.000
1298.003, 8226.000
1299.076, 8195.000
1300.149, 8184.000
1301.221, 8226.000
1302.293, 8262.000
1303.365, 8292.000
1304.437, 8344.000
1305.509, 8264.000
1306.581, 8290.000
1307.652, 8219.000
1308.724, 8159.000
1309.795, 8185.000
1310.866, 8251.000
1311.937, 8355.000
1313.008, 8282.000
1314.079, 8356.000
1315.150, 8188.000
1316.220, 8370.000
1317.291, 8233.000
1318.361, 8217.000
1319.431, 8353.000
1320.501, 8365.000
1321.571, 8358.000
1322.641, 8321.000
1323.710, 8297.000
1324.780, 8307.806
1325.849, 8330.000
1326.918, 8339.000
1327.987, 8405.000
1329.056, 8442.000
1330.125, 8275.000
1331.194, 8363.000
1332.263, 8317.000
1333.331, 8324.000
1334.399, 8430.000
1335.467, 8453.000
1336.535, 8417.000
1337.603, 8457.711
1338.671, 8393.000
1339.739, 8458.000
1340.806, 8454.000
1341.874, 8483.000
1342.941, 8352.000
1344.008, 8475.000
1345.075, 8419.000
1346.142, 8504.000
1347.209, 8454.331
1348.275, 8414.000
1349.342, 8379.000
1350.408, 8342.000
1351.475, 8386.000
1352.541, 8342.000
1353.607, 8487.000
1354.673, 8320.000
1355.738, 8496.000
1356.804, 8335.000
1357.869, 8395.000
1358.935, 8411.000
1360.000, 8314.000
1361.065, 8311.000
1362.130, 8409.000
1363.195, 8257.000
1364.259, 8334.000
1365.324, 8314.000
1366.388, 8372.000
1367.453, 8402.000
1368.517, 8361.000
1369.581, 8407.000
1370.645, 8380.824
1371.709, 8310.000
1372.772, 8370.000
1373.836, 8272.000
1374.899, 8304.000
1375.963, 8391.000
1377.026, 8326.000
1378.089, 8337.000
1379.152, 8297.000
1380.214, 8270.000
1381.277, 8304.000
1382.340, 8375.000
1383.402, 8273.000
1384.464, 8240.000
1385.526, 8389.000
1386.588, 8313.000
1387.650, 8309.000
1388.712, 8389.000
1389.774, 8275.000
1390.835, 8311.000
1391.896, 8406.000
1392.958, 8286.000
1394.019, 8343.000
1395.080, 8130.830
1396.141, 8229.946
1397.201, 8286.020
1398.262, 8301.365
1399.323, 8153.996
1400.383, 8216.738
1401.443, 8195.277
1402.503, 8170.364
1403.563, 8262.679
1404.623, 8138.976
1405.683, 8217.000
1406.742, 8237.000
1407.802, 8357.000
1408.861, 8422.000
1409.920, 8223.000
1410.980, 8338.000
1412.039, 8329.000
1413.097, 8257.000
1414.156, 8606.000
1415.215, 8399.000
1416.273, 8439.000
1417.331, 8291.000
1418.390, 8448.000
1419.448, 8272.000
1420.506, 8385.000
1421.564, 8292.000
1422.621, 8345.000
1423.679, 8423.000
1424.736, 8382.000
1425.794, 8401.000
1426.851, 8434.000
1427.908, 8474.000
1428.965, 8439.000
1430.022, 8330.000
1431.079, 8471.000
1432.135, 8384.000
1433.192, 8455.000
1434.248, 8557.000
1435.304, 8562.000
1436.360, 8625.342
1437.416, 8645.000
1438.472, 8653.000
1439.528, 8658.633
1440.583, 8500.000
1441.639, 8619.000
1442.694, 8561.000
1443.749, 8517.000
1444.804, 8616.000
1445.859, 8623.000
1446.914, 8541.000
1447.969, 8614.000
1449.024, 8552.000
1450.078, 8634.000
1451.132, 8528.000
1452.187, 8465.000
1453.241, 8599.000
1454.295, 8547.000
1455.349, 8510.000
1456.402, 8488.000
1457.456, 8426.000
1458.509, 8406.689
1459.563, 8571.000
1460.616, 8366.000
1461.669, 8530.000
1462.722, 8562.000
1463.775, 8476.000
1464.828, 8386.000
1465.880, 8584.000
1466.933, 8426.000
1467.985, 8511.000
1469.037, 8372.000
1470.090, 8438.000
1471.142, 8537.000
1472.193, 8419.000
1473.245, 8543.000
1474.297, 8484.000
1475.348, 8493.000
1476.400, 8399.000
1477.451, 8358.000
1478.502, 8408.000
1479.553, 8525.000
1480.604, 8485.000
1481.655, 8447.000
1482.706, 8490.000
1483.756, 8475.000
1484.807, 8373.000
1485.857, 8433.000
1486.907, 8375.000
1487.957, 8439.000
1489.007, 8354.000
1490.057, 8358.000
1491.106, 8356.000
1492.156, 8420.000
1493.205, 8435.000
1494.255, 8437.674
1495.304, 8443.000
1496.353, 8437.000
1497.402, 8407.000
1498.451, 8408.000
1499.500, 8512.000
1500.548, 8464.654
1501.597, 8418.000
1502.645, 8413.000
1503.693, 8538.000
1504.741, 8434.000
1505.789, 8560.000
1506.837, 8395.000
1507.885, 8606.000
1508.932, 8414.000
1509.980, 8460.000
1511.027, 8485.000
1512.075, 8466.000
1513.122, 8427.000
1514.169, 8558.000
1515.216, 8602.000
1516.262, 8449.000
1517.309, 8406.000
1518.356, 8526.000
1519.402, 8542.000
1520.448, 8524.000
1521.495, 8554.000
1522.541, 8554.000
1523.587, 8482.000
1524.632, 8514.000
1525.678, 8470.000
1526.724, 8532.000
1527.769, 8598.000
1528.814, 8516.000
1529.860, 8551.000
1530.905, 8640.000
1531.950, 8615.000
1532.995, 8567.000
1534.039, 8581.000
1535.084, 8544.000
1536.128, 8631.000
1537.173, 8657.000
1538.217, 8691.000
1539.261, 8532.000
1540.305, 8501.000
1541.349, 8456.000
1542.393, 8466.000
1543.436, 8560.000
1544.480, 8620.000
1545.523, 8595.000
1546.567, 8596.000
1547.610, 8622.000
1548.653, 8599.000
1549.696, 8657.000
1550.739, 8708.000
1551.781, 8647.000
1552.824, 8849.000
1553.867, 8786.000
1554.909, 8903.000
1555.951, 8880.150
1556.993, 8805.250
1558.035, 8776.000
1559.077, 8677.000
1560.119, 8566.000
1561.161, 8615.000
1562.202, 8999.000
1563.243, 8638.000
1564.285, 8681.000
1565.326, 8684.000
##END=



