##NAMES=Diopside
##RRUFFID=R070123
##IDEAL CHEMISTRY=CaMgSi_2_O_6_
##LOCALITY=Yates mine, Otter Lake, Huddersfield Township, Pontiac County, Québec, Canada
##OWNER=RRUFF
##SOURCE=Michael Scott
##DESCRIPTION=Black prismatic crystals associated with orange calcite
##STATUS=The identification of this mineral has been confirmed by X-ray diffraction and chemical analysis
##URL=rruff.info/R070123
##MEASURED CHEMISTRY=(Ca_0.95_Na_0.04_Mn_0.01_)_Σ=1_(Mg_0.63_Fe_0.33_Al_0.04_)_Σ=1_Si_2.00_O_6_
##PIN_ID=M01164
##ORIENTATION=Laser parallel to c* (0 0 1). Fiducial mark perpendicular to laser is parallel to a [1 0 0]
119.7720, 1367.000
121.0100, 1406.000
122.2470, 1419.000
123.4850, 1506.000
124.7220, 1483.000
125.9590, 1470.000
127.1960, 1445.000
128.4330, 1504.000
129.6700, 1551.000
130.9060, 1582.405
132.1430, 1648.380
133.3790, 1670.000
134.6150, 1746.000
135.8500, 1759.000
137.0860, 1762.000
138.3210, 1839.000
139.5560, 1850.000
140.7910, 1847.000
142.0260, 1720.000
143.2610, 1678.000
144.4950, 1680.000
145.7290, 1640.000
146.9630, 1670.000
148.1970, 1671.000
149.4310, 1743.000
150.6640, 1727.000
151.8980, 1820.000
153.1310, 1871.000
154.3640, 1898.000
155.5970, 1962.000
156.8290, 2022.000
158.0620, 2067.000
159.2940, 2076.000
160.5260, 2194.000
161.7580, 2171.000
162.9890, 2186.515
164.2210, 2257.459
165.4520, 2301.437
166.6830, 2319.904
167.9140, 2236.454
169.1450, 2284.609
170.3760, 2280.023
171.6060, 2273.266
172.8360, 2339.937
174.0660, 2271.303
175.2960, 2336.809
176.5260, 2348.768
177.7550, 2385.227
178.9840, 2368.619
180.2130, 2368.402
181.4420, 2431.000
182.6710, 2490.000
183.9000, 2450.000
185.1280, 2514.000
186.3560, 2507.000
187.5840, 2520.000
188.8120, 2491.000
190.0400, 2502.000
191.2670, 2508.000
192.4950, 2486.000
193.7220, 2384.000
194.9490, 2333.000
196.1750, 2317.000
197.4020, 2280.000
198.6280, 2260.903
199.8540, 2217.000
201.0800, 2215.000
202.3060, 2205.000
203.5320, 2151.000
204.7570, 2019.000
205.9830, 1928.000
207.2080, 1941.000
208.4330, 1935.000
209.6570, 1926.000
210.8820, 1915.000
212.1060, 1932.000
213.3310, 1994.000
214.5550, 2061.000
215.7780, 2047.000
217.0020, 2096.000
218.2260, 2129.000
219.4490, 2203.000
220.6720, 2222.000
221.8950, 2237.000
223.1180, 2366.000
224.3400, 2322.000
225.5630, 2350.000
226.7850, 2449.000
228.0070, 2486.000
229.2290, 2566.000
230.4500, 2636.000
231.6720, 2664.000
232.8930, 2680.000
234.1140, 2711.000
235.3350, 2665.000
236.5560, 2648.000
237.7770, 2562.000
238.9970, 2597.000
240.2170, 2591.000
241.4370, 2610.000
242.6570, 2626.000
243.8770, 2606.000
245.0960, 2691.000
246.3160, 2665.000
247.5350, 2654.000
248.7540, 2756.000
249.9730, 2692.000
251.1910, 2756.000
252.4100, 2715.000
253.6280, 2711.000
254.8460, 2713.000
256.0640, 2766.000
257.2810, 2741.000
258.4990, 2721.000
259.7160, 2710.763
260.9330, 2663.388
262.1500, 2632.000
263.3670, 2585.000
264.5840, 2515.000
265.8000, 2501.000
267.0170, 2447.000
268.2330, 2471.000
269.4490, 2419.000
270.6640, 2424.000
271.8800, 2450.000
273.0950, 2414.000
274.3100, 2476.000
275.5260, 2437.000
276.7400, 2495.000
277.9550, 2475.000
279.1690, 2493.000
280.3840, 2553.000
281.5980, 2555.000
282.8120, 2631.000
284.0260, 2648.000
285.2390, 2736.000
286.4530, 2793.000
287.6660, 2881.000
288.8790, 2990.000
290.0920, 3015.000
291.3040, 3209.000
292.5170, 3314.000
293.7290, 3451.000
294.9410, 3529.000
296.1530, 3669.000
297.3650, 3805.000
298.5770, 3960.824
299.7880, 4191.000
301.0000, 4362.000
302.2110, 4578.043
303.4220, 4795.000
304.6320, 5037.000
305.8430, 5286.000
307.0530, 5571.000
308.2630, 5965.000
309.4730, 6272.000
310.6830, 6695.000
311.8930, 7010.000
313.1030, 7428.000
314.3120, 7797.000
315.5210, 8228.000
316.7300, 8665.000
317.9390, 9001.000
319.1470, 9440.000
320.3560, 9540.000
321.5640, 9598.000
322.7720, 9479.000
323.9800, 9162.000
325.1880, 8628.000
326.3950, 8166.000
327.6030, 7480.000
328.8100, 7127.000
330.0170, 6675.000
331.2240, 6351.000
332.4300, 6116.000
333.6370, 5861.000
334.8430, 5642.000
336.0490, 5567.000
337.2550, 5461.000
338.4610, 5442.000
339.6660, 5495.000
340.8720, 5612.000
342.0770, 5757.000
343.2820, 5948.762
344.4870, 6112.000
345.6920, 6473.000
346.8960, 6787.000
348.1010, 7181.000
349.3050, 7420.000
350.5090, 7758.000
351.7130, 8033.000
352.9160, 7992.000
354.1200, 7830.000
355.3230, 7671.000
356.5260, 7294.000
357.7290, 6775.000
358.9320, 6247.000
360.1350, 5769.000
361.3370, 5445.000
362.5390, 5039.000
363.7410, 4879.000
364.9430, 4755.000
366.1450, 4579.000
367.3470, 4401.000
368.5480, 4454.000
369.7490, 4479.000
370.9500, 4498.000
372.1510, 4768.000
373.3520, 4976.000
374.5520, 5303.000
375.7530, 5686.000
376.9530, 6286.000
378.1530, 6873.000
379.3520, 7488.000
380.5520, 8142.000
381.7510, 8848.000
382.9510, 9329.000
384.1500, 10207.00
385.3490, 10684.00
386.5480, 11001.00
387.7460, 11008.00
388.9440, 10710.00
390.1430, 10165.00
391.3410, 9292.000
392.5390, 8485.000
393.7360, 7366.000
394.9340, 6434.000
396.1310, 5636.000
397.3280, 4908.000
398.5250, 4368.000
399.7220, 3933.000
400.9190, 3498.000
402.1150, 3244.000
403.3120, 3050.000
404.5080, 2815.000
405.7040, 2737.000
406.8990, 2600.000
408.0950, 2484.000
409.2900, 2422.000
410.4860, 2343.040
411.6810, 2325.000
412.8760, 2257.000
414.0700, 2254.000
415.2650, 2233.000
416.4590, 2190.000
417.6540, 2136.000
418.8480, 2100.000
420.0420, 2057.194
421.2350, 2009.000
422.4290, 1980.000
423.6220, 1959.000
424.8150, 1921.000
426.0080, 1906.000
427.2010, 1891.000
428.3940, 1868.000
429.5860, 1856.000
430.7790, 1815.000
431.9710, 1832.000
433.1630, 1822.000
434.3540, 1840.000
435.5460, 1854.000
436.7370, 1856.313
437.9290, 1868.878
439.1200, 1859.000
440.3110, 1902.000
441.5010, 1877.000
442.6920, 1933.000
443.8820, 1894.000
445.0730, 1945.000
446.2630, 2017.000
447.4530, 2006.000
448.6420, 2159.000
449.8320, 2195.000
451.0210, 2221.000
452.2100, 2287.000
453.3990, 2363.000
454.5880, 2320.000
455.7770, 2347.000
456.9660, 2388.000
458.1540, 2370.000
459.3420, 2342.000
460.5300, 2296.000
461.7180, 2265.000
462.9050, 2218.000
464.0930, 2179.000
465.2800, 2130.000
466.4670, 2063.000
467.6540, 2061.000
468.8410, 2084.000
470.0280, 2006.000
471.2140, 1922.000
472.4000, 1924.000
473.5870, 1946.000
474.7720, 1937.000
475.9580, 1931.849
477.1440, 1891.000
478.3290, 1892.000
479.5140, 1913.000
480.6990, 1868.000
481.8840, 1819.000
483.0690, 1882.000
484.2540, 1888.000
485.4380, 1891.000
486.6220, 1849.000
487.8060, 1830.000
488.9900, 1870.000
490.1740, 1889.000
491.3570, 1878.000
492.5410, 1893.000
493.7240, 1888.000
494.9070, 1895.000
496.0900, 1917.000
497.2720, 1966.000
498.4550, 1968.000
499.6370, 2038.000
500.8190, 2054.608
502.0010, 2067.000
503.1830, 2114.000
504.3650, 2152.000
505.5460, 2190.000
506.7280, 2207.000
507.9090, 2214.000
509.0900, 2253.485
510.2710, 2335.000
511.4510, 2326.000
512.6320, 2345.000
513.8120, 2400.000
514.9920, 2339.000
516.1720, 2385.000
517.3520, 2431.000
518.5310, 2505.000
519.7110, 2439.000
520.8900, 2600.000
522.0690, 2586.000
523.2480, 2604.000
524.4270, 2760.000
525.6050, 2752.000
526.7840, 2874.000
527.9620, 2891.000
529.1400, 2907.000
530.3180, 2859.000
531.4960, 2833.000
532.6730, 2742.000
533.8510, 2753.000
535.0280, 2708.000
536.2050, 2606.000
537.3820, 2693.000
538.5590, 2544.000
539.7350, 2568.000
540.9120, 2572.000
542.0880, 2580.000
543.2640, 2608.000
544.4400, 2714.000
545.6150, 2778.000
546.7910, 2973.000
547.9660, 3176.000
549.1410, 3358.000
550.3170, 3556.000
551.4910, 3800.000
552.6660, 4176.000
553.8410, 4555.000
555.0150, 4779.000
556.1890, 5057.000
557.3630, 5045.000
558.5370, 4943.000
559.7110, 4688.000
560.8840, 4200.000
562.0570, 3768.000
563.2310, 3412.000
564.4040, 3040.000
565.5760, 2695.000
566.7490, 2574.000
567.9220, 2464.000
569.0940, 2325.000
570.2660, 2213.000
571.4380, 2147.000
572.6100, 2082.000
573.7820, 1986.000
574.9530, 1960.000
576.1240, 1839.000
577.2960, 1845.000
578.4670, 1868.000
579.6370, 1754.000
580.8080, 1744.000
581.9790, 1732.000
583.1490, 1633.000
584.3190, 1608.000
585.4890, 1604.000
586.6590, 1600.000
587.8280, 1539.000
588.9980, 1521.000
590.1670, 1490.000
591.3360, 1515.000
592.5050, 1514.000
593.6740, 1481.000
594.8430, 1456.000
596.0110, 1480.000
597.1790, 1518.000
598.3480, 1517.000
599.5160, 1502.000
600.6830, 1469.000
601.8510, 1457.000
603.0180, 1479.908
604.1860, 1499.000
605.3530, 1533.000
606.5200, 1562.000
607.6870, 1566.000
608.8530, 1598.000
610.0200, 1657.000
611.1860, 1607.000
612.3520, 1684.000
613.5180, 1736.000
614.6840, 1703.000
615.8500, 1738.000
617.0150, 1778.000
618.1800, 1764.000
619.3450, 1852.000
620.5100, 1878.000
621.6750, 1906.000
622.8400, 1971.000
624.0040, 2056.000
625.1690, 2046.000
626.3330, 2101.000
627.4970, 2220.000
628.6610, 2229.000
629.8240, 2340.000
630.9880, 2359.000
632.1510, 2495.000
633.3140, 2527.000
634.4770, 2623.000
635.6400, 2825.000
636.8020, 2924.221
637.9650, 3065.385
639.1270, 3257.000
640.2890, 3323.000
641.4510, 3508.000
642.6130, 3633.000
643.7750, 3952.000
644.9360, 4340.000
646.0980, 4626.000
647.2590, 5113.000
648.4200, 5524.000
649.5810, 6198.000
650.7410, 6983.000
651.9020, 8002.000
653.0620, 9269.000
654.2220, 10830.00
655.3820, 12654.00
656.5420, 14885.00
657.7020, 17418.00
658.8610, 20233.00
660.0200, 23161.00
661.1800, 25844.00
662.3390, 28404.00
663.4970, 30578.00
664.6560, 30762.00
665.8150, 30410.00
666.9730, 28807.00
668.1310, 26035.00
669.2890, 22553.00
670.4470, 19198.00
671.6050, 16170.00
672.7620, 13461.00
673.9200, 11172.00
675.0770, 9495.000
676.2340, 8063.000
677.3910, 6939.000
678.5470, 6032.000
679.7040, 5310.000
680.8600, 4811.000
682.0160, 4256.000
683.1720, 3906.000
684.3280, 3504.000
685.4840, 3287.000
686.6390, 2996.000
687.7950, 2866.000
688.9500, 2711.000
690.1050, 2582.000
691.2600, 2461.590
692.4150, 2332.522
693.5690, 2237.000
694.7240, 2120.000
695.8780, 2018.000
697.0320, 1960.000
698.1860, 1954.000
699.3400, 1923.000
700.4930, 1830.000
701.6470, 1790.000
702.8000, 1726.000
703.9530, 1710.000
705.1060, 1676.000
706.2590, 1634.608
707.4110, 1601.000
708.5640, 1563.000
709.7160, 1529.000
710.8680, 1491.000
712.0200, 1500.000
713.1720, 1455.000
714.3230, 1445.000
715.4750, 1441.000
716.6260, 1377.000
717.7770, 1429.000
718.9280, 1371.000
720.0790, 1333.000
721.2300, 1369.000
722.3800, 1339.000
723.5300, 1329.000
724.6810, 1311.000
725.8300, 1290.000
726.9800, 1298.000
728.1300, 1261.000
729.2790, 1298.000
730.4290, 1297.000
731.5780, 1292.000
732.7270, 1283.000
733.8760, 1273.000
735.0240, 1267.000
736.1730, 1254.000
737.3210, 1248.925
738.4700, 1245.423
739.6180, 1240.000
740.7650, 1243.000
741.9130, 1246.818
743.0610, 1248.165
744.2080, 1259.000
745.3550, 1257.000
746.5020, 1275.000
747.6490, 1296.000
748.7960, 1294.000
749.9430, 1315.000
751.0890, 1301.000
752.2350, 1329.000
753.3810, 1340.000
754.5270, 1328.000
755.6730, 1353.000
756.8190, 1387.000
757.9640, 1363.000
759.1090, 1351.000
760.2540, 1394.000
761.3990, 1412.000
762.5440, 1372.000
763.6890, 1397.000
764.8330, 1400.000
765.9780, 1449.000
767.1220, 1428.000
768.2660, 1430.000
769.4100, 1471.000
770.5530, 1441.000
771.6970, 1452.000
772.8400, 1428.000
773.9830, 1455.000
775.1260, 1409.000
776.2690, 1456.000
777.4120, 1453.000
778.5540, 1477.000
779.6970, 1458.000
780.8390, 1448.000
781.9810, 1400.000
783.1230, 1391.000
784.2650, 1418.000
785.4060, 1432.000
786.5480, 1466.000
787.6890, 1416.000
788.8300, 1427.000
789.9710, 1433.000
791.1120, 1421.005
792.2520, 1417.000
793.3930, 1414.000
794.5330, 1380.000
795.6730, 1343.000
796.8130, 1348.000
797.9530, 1388.000
799.0930, 1381.000
800.2320, 1353.000
801.3710, 1306.000
802.5110, 1313.000
803.6500, 1303.644
804.7880, 1324.000
805.9270, 1330.000
807.0660, 1353.000
808.2040, 1385.000
809.3420, 1389.000
810.4800, 1378.000
811.6180, 1362.000
812.7560, 1403.000
813.8930, 1391.000
815.0310, 1407.000
816.1680, 1469.000
817.3050, 1443.000
818.4420, 1460.000
819.5790, 1469.000
820.7150, 1508.000
821.8520, 1530.000
822.9880, 1519.000
824.1240, 1464.000
825.2600, 1526.000
826.3960, 1475.000
827.5320, 1476.000
828.6670, 1511.000
829.8020, 1488.000
830.9380, 1476.000
832.0730, 1476.000
833.2080, 1500.000
834.3420, 1461.000
835.4770, 1446.000
836.6110, 1492.000
837.7450, 1528.000
838.8790, 1552.000
840.0130, 1576.000
841.1470, 1596.000
842.2810, 1642.000
843.4140, 1729.000
844.5470, 1788.000
845.6800, 1992.000
846.8130, 2092.000
847.9460, 2372.000
849.0790, 2605.000
850.2110, 2853.000
851.3440, 3146.000
852.4760, 3283.000
853.6080, 3503.000
854.7400, 3534.000
855.8710, 3542.000
857.0030, 3410.000
858.1340, 3300.000
859.2650, 3136.000
860.3960, 2984.000
861.5270, 2902.000
862.6580, 2667.000
863.7890, 2663.000
864.9190, 2545.000
866.0490, 2476.000
867.1790, 2447.000
868.3090, 2382.000
869.4390, 2420.000
870.5690, 2392.000
871.6980, 2373.000
872.8270, 2352.000
873.9570, 2416.000
875.0860, 2412.000
876.2140, 2434.000
877.3430, 2418.000
878.4720, 2474.000
879.6000, 2496.000
880.7280, 2491.000
881.8560, 2532.000
882.9840, 2570.000
884.1120, 2566.000
885.2390, 2695.000
886.3670, 2643.000
887.4940, 2650.000
888.6210, 2734.000
889.7480, 2710.000
890.8750, 2751.000
892.0020, 2700.000
893.1280, 2758.000
894.2540, 2793.000
895.3810, 2772.000
896.5070, 2780.000
897.6320, 2794.000
898.7580, 2807.000
899.8840, 2782.000
901.0090, 2779.000
902.1340, 2763.000
903.2590, 2731.000
904.3840, 2724.000
905.5090, 2718.000
906.6340, 2748.000
907.7580, 2658.000
908.8820, 2723.000
910.0060, 2640.000
911.1300, 2623.000
912.2540, 2562.000
913.3780, 2623.000
914.5010, 2592.000
915.6250, 2585.000
916.7480, 2514.000
917.8710, 2484.000
918.9940, 2518.000
920.1160, 2436.000
921.2390, 2432.000
922.3610, 2385.000
923.4840, 2361.000
924.6060, 2437.000
925.7280, 2371.000
926.8490, 2343.000
927.9710, 2311.000
929.0930, 2256.000
930.2140, 2295.000
931.3350, 2293.000
932.4560, 2251.000
933.5770, 2205.000
934.6980, 2162.000
935.8180, 2132.583
936.9380, 2109.000
938.0590, 2102.000
939.1790, 2108.000
940.2990, 2148.000
941.4180, 2116.000
942.5380, 2091.000
943.6570, 2207.000
944.7770, 2129.000
945.8960, 2227.000
947.0150, 2194.000
948.1340, 2249.000
949.2520, 2304.000
950.3710, 2371.000
951.4890, 2475.000
952.6070, 2517.000
953.7260, 2560.000
954.8430, 2609.000
955.9610, 2752.000
957.0790, 2780.000
958.1960, 2862.000
959.3130, 2899.000
960.4310, 2954.000
961.5480, 3032.000
962.6640, 3133.000
963.7810, 3155.000
964.8970, 3208.000
966.0140, 3253.000
967.1300, 3300.344
968.2460, 3330.000
969.3620, 3383.000
970.4780, 3472.000
971.5930, 3462.000
972.7090, 3510.000
973.8240, 3701.000
974.9390, 3760.000
976.0540, 3821.000
977.1690, 3814.000
978.2830, 3918.000
979.3980, 4053.000
980.5120, 4102.000
981.6260, 4289.000
982.7400, 4326.000
983.8540, 4392.000
984.9680, 4580.000
986.0820, 4657.000
987.1950, 4770.000
988.3080, 4902.000
989.4210, 5180.000
990.5340, 5405.000
991.6470, 5665.000
992.7600, 6044.000
993.8720, 6517.000
994.9850, 7145.000
996.0970, 7809.000
997.2090, 8560.000
998.3210, 9556.000
999.4320, 10786.00
1000.544, 12343.00
1001.655, 14511.00
1002.767, 16657.00
1003.878, 19814.00
1004.989, 23630.00
1006.100, 28100.00
1007.210, 32862.00
1008.321, 39834.00
1009.431, 45148.00
1010.541, 48959.00
1011.651, 52003.00
1012.761, 52940.00
1013.871, 50904.00
1014.980, 45902.00
1016.090, 39514.00
1017.199, 32839.00
1018.308, 26620.00
1019.417, 21670.00
1020.526, 17817.00
1021.635, 14901.00
1022.743, 12933.00
1023.852, 11391.00
1024.960, 10187.00
1026.068, 9301.000
1027.176, 8588.000
1028.283, 8290.000
1029.391, 7982.000
1030.498, 7686.000
1031.606, 7614.000
1032.713, 7655.000
1033.820, 7685.000
1034.927, 7868.000
1036.033, 8105.000
1037.140, 8299.000
1038.246, 8565.000
1039.353, 8828.000
1040.459, 8880.000
1041.564, 9115.000
1042.670, 8954.000
1043.776, 8876.000
1044.881, 8509.000
1045.987, 8003.000
1047.092, 7401.000
1048.197, 6734.000
1049.302, 6237.000
1050.406, 5588.000
1051.511, 5135.000
1052.615, 4713.000
1053.720, 4374.000
1054.824, 4150.000
1055.928, 3851.000
1057.031, 3649.000
1058.135, 3475.000
1059.238, 3265.000
1060.342, 3165.000
1061.445, 2975.000
1062.548, 2899.000
1063.651, 2801.000
1064.754, 2668.000
1065.856, 2640.000
1066.959, 2529.000
1068.061, 2436.000
1069.163, 2346.000
1070.265, 2347.000
1071.367, 2265.000
1072.469, 2261.000
1073.570, 2176.000
1074.671, 2157.000
1075.773, 2098.000
1076.874, 2156.000
1077.975, 2104.000
1079.075, 2113.000
1080.176, 2107.000
1081.276, 2076.006
1082.377, 2104.000
1083.477, 2040.000
1084.577, 1995.000
1085.677, 1989.000
1086.777, 2036.000
1087.876, 1970.000
1088.975, 1988.000
1090.075, 1969.000
1091.174, 1924.000
1092.273, 1972.000
1093.372, 1884.000
1094.470, 1865.000
1095.569, 1912.000
1096.667, 1896.000
1097.765, 1860.000
1098.863, 1915.000
1099.961, 1879.000
1101.059, 1894.000
1102.157, 1852.000
1103.254, 1832.000
1104.351, 1901.000
1105.449, 1833.000
1106.546, 1792.000
1107.642, 1875.000
1108.739, 1804.000
1109.836, 1826.000
1110.932, 1810.000
1112.028, 1783.000
1113.124, 1819.000
1114.220, 1851.000
1115.316, 1794.000
1116.412, 1825.000
1117.507, 1830.000
1118.603, 1850.000
1119.698, 1833.000
1120.793, 1845.000
1121.888, 1870.000
1122.983, 1795.000
1124.077, 1837.000
1125.172, 1844.000
1126.266, 1846.000
1127.360, 1867.000
1128.454, 1825.000
1129.548, 1789.000
1130.642, 1813.000
1131.735, 1813.000
1132.829, 1747.000
1133.922, 1715.000
1135.015, 1698.000
1136.108, 1643.000
1137.201, 1651.000
1138.294, 1623.000
1139.386, 1547.000
1140.478, 1564.000
1141.571, 1505.000
1142.663, 1475.000
1143.755, 1440.000
1144.846, 1460.000
1145.938, 1423.000
1147.030, 1404.000
1148.121, 1348.000
1149.212, 1333.000
1150.303, 1289.000
1151.394, 1257.000
1152.485, 1197.000
1153.575, 1210.000
1154.666, 1151.000
1155.756, 1150.000
1156.846, 1178.000
1157.936, 1142.000
1159.026, 1121.000
1160.116, 1094.000
1161.205, 1076.000
1162.295, 1077.000
1163.384, 1087.000
1164.473, 1078.000
1165.562, 1100.000
1166.651, 1065.000
1167.739, 1013.000
1168.828, 1026.000
1169.916, 1027.000
1171.005, 1051.000
1172.093, 1032.000
1173.181, 1028.000
1174.268, 998.0000
1175.356, 1001.542
1176.443, 1030.000
1177.531, 1009.000
1178.618, 1018.000
1179.705, 1039.000
1180.792, 1011.000
1181.879, 1017.000
1182.965, 1023.302
1184.052, 995.0000
1185.138, 1043.000
1186.224, 1032.000
1187.310, 1053.000
1188.396, 1024.000
1189.482, 1024.000
1190.567, 1039.000
1191.653, 982.0000
1192.738, 1008.000
1193.823, 997.0000
1194.908, 1024.000
1195.993, 1033.000
1197.077, 1001.000
1198.162, 1034.000
1199.246, 1017.742
1200.331, 1081.000
1201.415, 1014.000
1202.499, 966.0000
1203.582, 969.0000
1204.666, 991.0000
1205.750, 1001.000
1206.833, 1006.000
1207.916, 977.0000
1208.999, 961.0000
1210.082, 988.0000
1211.165, 989.0000
1212.248, 1007.000
1213.330, 981.0000
1214.412, 975.0000
1215.495, 968.0000
1216.577, 948.0000
1217.658, 934.0000
1218.740, 988.0000
1219.822, 970.0000
1220.903, 961.0000
1221.985, 992.0000
1223.066, 942.0000
1224.147, 980.0000
1225.228, 989.0000
1226.308, 986.0000
1227.389, 985.0000
1228.469, 986.0000
1229.550, 957.0000
1230.630, 955.0000
1231.710, 991.0000
1232.790, 969.0000
1233.869, 988.0000
1234.949, 1005.000
1236.028, 985.0000
1237.108, 972.0000
1238.187, 988.0000
1239.266, 974.0000
1240.344, 988.0000
1241.423, 985.0000
1242.502, 1019.000
1243.580, 987.0000
1244.658, 1023.000
1245.736, 973.0000
1246.814, 1002.000
1247.892, 1007.000
1248.970, 992.0000
1250.047, 1017.000
1251.125, 1000.000
1252.202, 1005.000
1253.279, 985.0000
1254.356, 1009.000
1255.433, 990.0000
1256.509, 1031.000
1257.586, 989.0000
1258.662, 1009.000
1259.738, 1015.000
1260.814, 1032.000
1261.890, 1023.000
1262.966, 1041.000
1264.042, 991.0000
1265.117, 1011.000
1266.193, 1007.000
1267.268, 1011.000
1268.343, 1004.000
1269.418, 994.0000
1270.492, 1023.000
1271.567, 1032.000
1272.642, 998.0000
1273.716, 1003.000
1274.790, 983.0000
1275.864, 1017.000
1276.938, 1020.000
1278.012, 1016.000
1279.085, 1017.000
1280.159, 1015.000
1281.232, 1012.000
1282.305, 993.0000
1283.378, 996.0000
1284.451, 990.4322
1285.524, 982.2695
1286.597, 989.0000
1287.669, 979.0000
1288.741, 979.0000
1289.813, 994.0000
1290.885, 983.0000
1291.957, 1000.000
1293.029, 976.0000
1294.101, 995.0000
1295.172, 970.0000
1296.243, 973.0000
1297.315, 994.0000
1298.386, 990.0000
1299.456, 984.0000
1300.527, 1013.000
1301.598, 1019.000
1302.668, 988.0000
1303.738, 1006.000
1304.809, 987.0000
1305.879, 992.0000
1306.948, 1010.000
1308.018, 1013.000
1309.088, 1016.277
1310.157, 991.0000
1311.226, 1015.000
1312.296, 994.0000
1313.365, 988.0000
1314.433, 1013.000
1315.502, 1011.000
1316.571, 995.0000
1317.639, 1041.000
1318.707, 1028.000
1319.776, 1027.000
1320.844, 1055.000
1321.911, 1037.000
1322.979, 1055.000
1324.047, 1049.000
1325.114, 1032.000
1326.181, 1076.000
1327.249, 1016.000
1328.316, 1031.000
1329.382, 1037.000
1330.449, 1042.000
1331.516, 1064.000
1332.582, 1025.000
1333.648, 1095.000
1334.715, 1072.000
1335.781, 1052.000
1336.846, 1080.000
1337.912, 1058.000
1338.978, 1085.000
1340.043, 1054.000
1341.108, 1030.000
1342.174, 1017.000
1343.239, 1054.000
1344.303, 1042.000
1345.368, 1055.000
1346.433, 1086.000
1347.497, 1042.000
1348.561, 1024.000
1349.626, 1017.000
1350.690, 1006.691
1351.753, 1014.000
1352.817, 1012.000
1353.881, 1010.000
1354.944, 1009.000
1356.007, 1021.000
1357.071, 1003.000
1358.134, 1017.000
1359.196, 1030.000
1360.259, 1001.000
1361.322, 992.0000
1362.384, 1014.000
1363.447, 1025.000
1364.509, 1021.000
1365.571, 1007.000
1366.633, 997.0000
1367.694, 1023.000
1368.756, 993.0000
1369.817, 1001.000
1370.879, 987.0000
1371.940, 984.0000
1373.001, 1005.000
1374.062, 991.0000
1375.122, 990.0000
1376.183, 968.0000
1377.244, 995.0000
1378.304, 1003.000
1379.364, 1010.000
1380.424, 991.0000
1381.484, 970.0000
1382.544, 988.0000
1383.603, 955.0000
1384.663, 967.4473
1385.722, 989.0000
1386.781, 978.0000
1387.840, 999.0000
1388.899, 1003.000
1389.958, 997.0000
1391.017, 1001.000
1392.075, 997.0000
1393.134, 1000.000
1394.192, 962.0000
1395.250, 965.0000
1396.308, 974.0000
1397.365, 988.0000
1398.423, 1000.000
1399.481, 968.0000
1400.538, 963.0000
1401.595, 976.0000
1402.652, 998.0000
1403.709, 961.0000
1404.766, 949.0000
1405.823, 943.0000
1406.879, 955.0000
1407.936, 969.0000
1408.992, 956.0000
1410.048, 961.0000
1411.104, 966.0000
1412.160, 932.0000
1413.215, 973.0000
1414.271, 957.0000
1415.326, 915.0000
1416.382, 973.0000
1417.437, 944.0000
1418.492, 943.0000
1419.546, 964.0000
1420.601, 949.0000
1421.656, 936.0000
1422.710, 948.0000
1423.764, 971.0000
1424.819, 912.0000
1425.873, 955.0000
1426.926, 941.0000
1427.980, 939.0000
1429.034, 932.0000
1430.087, 924.0000
1431.140, 957.0000
1432.194, 970.0000
1433.247, 954.0000
1434.299, 946.0000
1435.352, 950.0000
1436.405, 938.0000
1437.457, 931.0000
1438.510, 932.0000
1439.562, 944.0000
1440.614, 940.0000
1441.666, 943.2704
1442.717, 954.0000
1443.769, 949.0000
1444.821, 931.0000
1445.872, 945.0000
1446.923, 908.0000
1447.974, 932.0000
1449.025, 903.0000
1450.076, 939.0000
1451.127, 934.0000
1452.177, 915.0000
1453.227, 872.0000
1454.278, 925.0000
1455.328, 952.0000
1456.378, 975.0000
1457.428, 927.0000
1458.477, 920.0000
1459.527, 923.0000
1460.576, 900.0000
1461.625, 907.0000
1462.675, 901.0000
1463.724, 912.0000
1464.772, 953.0000
1465.821, 928.0000
1466.870, 937.0000
1467.918, 916.0000
1468.966, 928.0000
1470.015, 934.0000
1471.063, 921.0000
1472.110, 936.0000
1473.158, 893.0000
1474.206, 911.0000
1475.253, 936.0000
1476.301, 909.0000
1477.348, 918.0000
1478.395, 934.0000
1479.442, 906.0000
1480.488, 931.0000
1481.535, 925.0000
1482.582, 952.0000
1483.628, 941.0000
1484.674, 927.0000
1485.720, 930.0000
1486.766, 927.0000
1487.812, 918.0000
1488.858, 908.0000
1489.903, 921.0000
1490.949, 876.0000
1491.994, 938.0000
1493.039, 906.0000
1494.084, 937.0000
1495.129, 915.0000
1496.173, 908.0000
1497.218, 933.0000
1498.262, 919.0000
1499.307, 923.0000
1500.351, 914.0000
1501.395, 910.0000
1502.439, 913.7615
1503.483, 929.0000
1504.526, 930.0000
1505.570, 927.0000
1506.613, 957.0000
1507.656, 924.0000
1508.699, 955.0000
1509.742, 943.0000
1510.785, 910.0000
1511.827, 934.0000
1512.870, 928.0000
1513.912, 915.0000
1514.955, 933.0000
1515.997, 927.0000
1517.039, 916.0000
1518.080, 949.0000
1519.122, 911.0000
1520.164, 916.0000
1521.205, 942.0000
1522.246, 911.0000
1523.288, 891.0000
1524.329, 889.0000
1525.369, 905.0000
1526.410, 896.0000
1527.451, 912.0000
1528.491, 923.0000
1529.531, 957.0000
1530.572, 937.0000
1531.612, 924.0000
1532.652, 900.0000
1533.691, 903.4261
1534.731, 902.2031
1535.770, 913.0000
1536.810, 915.0000
1537.849, 924.0000
1538.888, 923.0000
1539.927, 900.0000
1540.966, 903.0000
1542.005, 916.0000
1543.043, 911.0000
1544.082, 927.0000
1545.120, 921.0000
1546.158, 894.0000
1547.196, 883.0000
1548.234, 907.0000
1549.272, 917.0000
1550.309, 935.0000
1551.347, 930.0000
1552.384, 978.0000
1553.421, 951.0000
1554.458, 967.0000
1555.495, 983.0000
1556.532, 946.0000
1557.568, 930.0000
1558.605, 935.0000
1559.641, 910.0000
1560.678, 890.0000
1561.714, 924.0000
1562.750, 895.0000
1563.785, 932.0000
1564.821, 970.0000
##END=



