##NAMES=Diopside
##RRUFFID=R050406
##IDEAL CHEMISTRY=CaMgSi_2_O_6_
##LOCALITY=unknown
##OWNER=RRUFF
##SOURCE=University of Arizona Mineral Museum
##DESCRIPTION=Brownish gray massive
##STATUS=The identification of this mineral has been confirmed by X-ray diffraction and chemical analysis
##URL=rruff.info/R050406
##MEASURED CHEMISTRY=(Ca_0.95_Na_0.05_)(Mg_0.75_Fe^2+^_0.18_Fe^3+^_0.05_Al_0.01_Ti_0.01_Mn^2+^_0.01_)(Si_0.98_Al_0.02_)_2_O_6_
##PIN_ID=M00407
##ORIENTATION=Laser parallel to a* (1 0 0). Fiducial mark perpendicular to laser is parallel to b [0 1 0]
116.9030, 6865.000
118.1340, 6822.000
119.3650, 6790.000
120.5960, 6989.000
121.8270, 7178.000
123.0580, 7205.000
124.2880, 7495.000
125.5190, 7644.000
126.7490, 7956.000
127.9790, 8406.000
129.2090, 8869.000
130.4390, 9566.000
131.6680, 10077.00
132.8980, 10873.00
134.1270, 12026.00
135.3560, 12965.00
136.5850, 13833.00
137.8140, 13956.00
139.0430, 13472.00
140.2710, 12294.00
141.5000, 11296.00
142.7280, 10120.00
143.9560, 9283.000
145.1840, 8941.000
146.4120, 8360.000
147.6390, 8108.000
148.8670, 7939.000
150.0940, 7780.000
151.3210, 7718.686
152.5490, 7685.000
153.7750, 7678.000
155.0020, 7728.000
156.2290, 7696.000
157.4550, 7697.000
158.6810, 7852.000
159.9080, 7868.000
161.1340, 8147.000
162.3590, 8319.000
163.5850, 8341.000
164.8110, 8340.000
166.0360, 8166.000
167.2610, 8073.000
168.4860, 7977.000
169.7110, 8045.000
170.9360, 8042.919
172.1610, 8025.000
173.3850, 8231.000
174.6100, 8358.000
175.8340, 8562.000
177.0580, 8507.000
178.2820, 8626.000
179.5050, 8566.000
180.7290, 8509.000
181.9520, 8360.000
183.1760, 8346.220
184.3990, 8260.000
185.6220, 8244.000
186.8450, 8166.000
188.0670, 8182.718
189.2900, 8205.000
190.5120, 8252.000
191.7340, 8301.000
192.9560, 8395.000
194.1780, 8502.000
195.4000, 8387.000
196.6220, 8443.000
197.8430, 8383.000
199.0640, 8417.000
200.2860, 8402.599
201.5070, 8452.000
202.7270, 8386.000
203.9480, 8353.000
205.1690, 8361.000
206.3890, 8310.000
207.6090, 8378.000
208.8290, 8232.000
210.0490, 8396.000
211.2690, 8585.000
212.4890, 8672.000
213.7080, 8640.000
214.9280, 8930.000
216.1470, 8781.000
217.3660, 8891.000
218.5850, 9104.000
219.8030, 9326.000
221.0220, 9358.000
222.2400, 9390.000
223.4590, 9516.000
224.6770, 9621.000
225.8950, 9663.000
227.1120, 9583.000
228.3300, 9540.000
229.5480, 9575.000
230.7650, 9456.000
231.9820, 9402.000
233.1990, 9160.000
234.4160, 9172.000
235.6330, 8935.000
236.8490, 8910.000
238.0660, 8642.000
239.2820, 8764.000
240.4980, 8564.000
241.7140, 8615.000
242.9300, 8626.000
244.1460, 8714.000
245.3610, 8638.000
246.5770, 8589.000
247.7920, 8585.000
249.0070, 8621.000
250.2220, 8720.000
251.4370, 8587.000
252.6510, 8620.000
253.8660, 8519.000
255.0800, 8458.000
256.2940, 8503.000
257.5080, 8758.000
258.7220, 8499.825
259.9360, 8809.000
261.1490, 8187.000
262.3630, 8032.000
263.5760, 7994.000
264.7890, 7996.000
266.0020, 7922.000
267.2150, 7877.000
268.4270, 7848.000
269.6400, 7883.000
270.8520, 7936.000
272.0640, 8001.000
273.2760, 8050.120
274.4880, 8094.108
275.7000, 8132.000
276.9120, 8164.000
278.1230, 8220.146
279.3340, 8239.005
280.5450, 8311.000
281.7560, 8322.000
282.9670, 8326.000
284.1780, 8440.000
285.3880, 8543.000
286.5980, 8636.000
287.8090, 8895.000
289.0190, 9018.000
290.2290, 9221.000
291.4380, 9436.000
292.6480, 9566.000
293.8570, 9794.000
295.0670, 10020.90
296.2760, 10474.00
297.4850, 10532.00
298.6930, 10806.00
299.9020, 11100.00
301.1110, 11266.00
302.3190, 11602.00
303.5270, 11941.00
304.7350, 12353.00
305.9430, 12879.00
307.1510, 13575.00
308.3580, 14341.00
309.5660, 15267.00
310.7730, 16374.00
311.9800, 17631.00
313.1870, 19103.00
314.3940, 20356.00
315.6010, 21937.00
316.8070, 23570.00
318.0130, 24971.00
319.2200, 25992.00
320.4260, 26415.00
321.6310, 26375.00
322.8370, 25750.00
324.0430, 24655.00
325.2480, 23566.00
326.4540, 22218.00
327.6590, 20739.00
328.8640, 19624.00
330.0680, 18410.00
331.2730, 17223.00
332.4780, 16445.00
333.6820, 15628.00
334.8860, 15181.00
336.0900, 14580.00
337.2940, 14108.00
338.4980, 13867.00
339.7010, 13692.00
340.9050, 13633.00
342.1080, 13592.64
343.3110, 13527.00
344.5140, 13805.00
345.7170, 14028.00
346.9200, 14426.00
348.1220, 14642.00
349.3240, 14914.00
350.5270, 15296.00
351.7290, 15688.00
352.9310, 15761.00
354.1320, 15622.00
355.3340, 15547.00
356.5350, 15339.00
357.7370, 15041.00
358.9380, 14791.00
360.1390, 14762.00
361.3400, 14720.00
362.5400, 14671.00
363.7410, 14608.00
364.9410, 14391.00
366.1410, 14389.00
367.3410, 14375.00
368.5410, 14458.00
369.7410, 14578.00
370.9400, 14725.00
372.1400, 15138.00
373.3390, 15589.00
374.5380, 16136.00
375.7370, 16883.00
376.9360, 18008.00
378.1350, 19541.00
379.3330, 20865.00
380.5310, 22797.00
381.7300, 24972.00
382.9280, 26534.00
384.1260, 28322.00
385.3230, 29522.00
386.5210, 29914.00
387.7180, 29478.00
388.9160, 28066.00
390.1130, 26130.00
391.3100, 23912.00
392.5060, 21631.00
393.7030, 19463.00
394.9000, 17686.00
396.0960, 16015.00
397.2920, 14498.00
398.4880, 13241.00
399.6840, 12412.00
400.8800, 11608.00
402.0750, 11101.00
403.2710, 10587.00
404.4660, 10330.00
405.6610, 9899.000
406.8560, 9793.000
408.0510, 9475.000
409.2450, 9412.000
410.4400, 9329.000
411.6340, 9218.000
412.8280, 9043.000
414.0220, 9112.000
415.2160, 9007.000
416.4100, 8859.000
417.6030, 8899.000
418.7970, 8774.000
419.9900, 8768.000
421.1830, 8786.000
422.3760, 8689.000
423.5690, 8525.000
424.7610, 8456.000
425.9540, 8518.000
427.1460, 8450.000
428.3380, 8434.000
429.5300, 8323.000
430.7220, 8367.000
431.9140, 8353.000
433.1050, 8268.000
434.2970, 8302.000
435.4880, 8231.000
436.6790, 8315.000
437.8700, 8397.000
439.0610, 8193.000
440.2510, 8420.000
441.4420, 8165.000
442.6320, 8293.000
443.8220, 8285.000
445.0120, 8267.000
446.2020, 8365.000
447.3910, 8337.000
448.5810, 8385.000
449.7700, 8458.000
450.9600, 8403.000
452.1490, 8430.000
453.3370, 8550.000
454.5260, 8487.000
455.7150, 8562.000
456.9030, 8562.000
458.0910, 8567.000
459.2800, 8537.000
460.4670, 8563.000
461.6550, 8586.000
462.8430, 8650.000
464.0300, 8559.000
465.2180, 8500.000
466.4050, 8577.000
467.5920, 8594.000
468.7790, 8543.000
469.9650, 8438.000
471.1520, 8436.000
472.3380, 8540.000
473.5250, 8437.000
474.7110, 8464.000
475.8970, 8605.000
477.0820, 8533.000
478.2680, 8475.000
479.4540, 8581.000
480.6390, 8520.000
481.8240, 8675.000
483.0090, 8539.000
484.1940, 8500.000
485.3780, 8542.000
486.5630, 8656.000
487.7470, 8575.000
488.9320, 8639.000
490.1160, 8659.000
491.3000, 8705.000
492.4830, 8629.000
493.6670, 8676.000
494.8500, 8719.000
496.0340, 8799.000
497.2170, 8762.000
498.4000, 8770.000
499.5820, 8879.000
500.7650, 8966.000
501.9480, 9014.000
503.1300, 9195.000
504.3120, 9300.000
505.4940, 9441.000
506.6760, 9556.000
507.8580, 9707.000
509.0390, 9738.000
510.2210, 9865.000
511.4020, 9948.000
512.5830, 10008.00
513.7640, 10122.00
514.9450, 10181.00
516.1250, 10138.00
517.3060, 10303.00
518.4860, 10295.00
519.6660, 10320.00
520.8460, 10461.00
522.0260, 10496.00
523.2060, 10749.00
524.3850, 10819.00
525.5650, 10731.00
526.7440, 10795.00
527.9230, 10763.00
529.1020, 10677.00
530.2810, 10535.00
531.4590, 10401.00
532.6380, 10266.00
533.8160, 10282.00
534.9940, 10182.00
536.1720, 10040.00
537.3500, 10004.00
538.5270, 9857.000
539.7050, 9859.000
540.8820, 9847.000
542.0590, 9805.000
543.2360, 9814.000
544.4130, 9779.000
545.5900, 9782.000
546.7660, 9768.000
547.9430, 9701.000
549.1190, 9712.000
550.2950, 9798.000
551.4710, 9793.000
552.6470, 9709.000
553.8220, 9807.000
554.9980, 9736.000
556.1730, 9807.000
557.3480, 9766.000
558.5230, 9709.000
559.6980, 9698.000
560.8730, 9652.000
562.0470, 9591.000
563.2220, 9627.000
564.3960, 9620.000
565.5700, 9608.000
566.7440, 9508.000
567.9170, 9534.267
569.0910, 9496.000
570.2640, 9547.000
571.4380, 9473.000
572.6110, 9514.000
573.7840, 9319.000
574.9570, 9303.000
576.1290, 9340.000
577.3020, 9141.000
578.4740, 9149.000
579.6460, 8974.000
580.8180, 8983.000
581.9900, 9044.000
583.1620, 8844.000
584.3330, 8852.000
585.5040, 8753.000
586.6760, 8780.000
587.8470, 8768.000
589.0180, 8650.000
590.1880, 8735.000
591.3590, 8655.000
592.5290, 8636.000
593.7000, 8612.000
594.8700, 8670.000
596.0400, 8569.000
597.2090, 8661.000
598.3790, 8617.000
599.5490, 8561.000
600.7180, 8640.000
601.8870, 8488.000
603.0560, 8537.000
604.2250, 8525.000
605.3940, 8622.000
606.5620, 8620.000
607.7300, 8652.000
608.8990, 8687.000
610.0670, 8678.000
611.2350, 8753.000
612.4020, 8730.000
613.5700, 8853.000
614.7370, 8831.000
615.9050, 8836.000
617.0720, 8810.000
618.2390, 8905.000
619.4060, 8754.000
620.5720, 8991.000
621.7390, 8951.000
622.9050, 9121.000
624.0710, 9111.000
625.2370, 9084.000
626.4030, 9214.000
627.5690, 9229.108
628.7340, 9239.000
629.9000, 9409.000
631.0650, 9410.000
632.2300, 9567.000
633.3950, 9620.000
634.5600, 9730.000
635.7240, 9885.000
636.8890, 9946.000
638.0530, 10190.00
639.2170, 10222.00
640.3810, 10397.00
641.5450, 10564.00
642.7080, 10776.00
643.8720, 10936.00
645.0350, 11313.00
646.1980, 11568.00
647.3610, 11975.00
648.5240, 12492.00
649.6870, 13107.00
650.8490, 13924.00
652.0120, 14851.00
653.1740, 15859.00
654.3360, 17363.00
655.4980, 19133.00
656.6600, 21186.00
657.8210, 23829.00
658.9830, 26568.00
660.1440, 29219.00
661.3050, 32347.00
662.4660, 35108.00
663.6270, 36468.00
664.7870, 36577.00
665.9480, 35737.00
667.1080, 33597.00
668.2680, 30962.00
669.4280, 27802.00
670.5880, 24779.00
671.7480, 22416.00
672.9070, 20179.18
674.0670, 18423.00
675.2260, 16855.00
676.3850, 15428.00
677.5440, 14595.00
678.7030, 13805.00
679.8610, 13088.00
681.0200, 12680.00
682.1780, 12323.00
683.3360, 11879.00
684.4940, 11592.00
685.6520, 11411.00
686.8090, 11128.00
687.9670, 11005.00
689.1240, 10635.00
690.2810, 10611.00
691.4380, 10471.00
692.5950, 10380.00
693.7520, 10410.00
694.9080, 10477.00
696.0650, 10405.00
697.2210, 10334.00
698.3770, 10228.00
699.5330, 10188.00
700.6880, 10269.00
701.8440, 10167.00
702.9990, 10310.00
704.1550, 10252.00
705.3100, 10139.00
706.4650, 10124.00
707.6190, 10078.00
708.7740, 10136.00
709.9290, 9961.000
711.0830, 9975.000
712.2370, 9934.000
713.3910, 10048.00
714.5450, 9826.000
715.6980, 9819.000
716.8520, 9791.000
718.0050, 9707.000
719.1580, 9617.000
720.3110, 9638.000
721.4640, 9633.000
722.6170, 9568.000
723.7700, 9565.000
724.9220, 9673.000
726.0740, 9495.000
727.2260, 9596.000
728.3780, 9457.000
729.5300, 9435.000
730.6810, 9326.000
731.8330, 9483.000
732.9840, 9618.000
734.1350, 9422.000
735.2860, 9412.000
736.4370, 9444.000
737.5880, 9530.000
738.7380, 9404.000
739.8880, 9481.000
741.0390, 9321.000
742.1890, 9495.000
743.3380, 9551.000
744.4880, 9480.000
745.6380, 9546.000
746.7870, 9626.000
747.9360, 9524.000
749.0850, 9382.000
750.2340, 9631.000
751.3830, 9569.000
752.5310, 9508.000
753.6800, 9557.000
754.8280, 9528.000
755.9760, 9611.000
757.1240, 9615.065
758.2720, 9628.000
759.4190, 9667.000
760.5670, 9659.000
761.7140, 9692.000
762.8610, 9721.000
764.0080, 9673.000
765.1550, 9605.000
766.3020, 9854.000
767.4480, 9697.000
768.5950, 9858.000
769.7410, 9824.000
770.8870, 9722.000
772.0330, 9810.000
773.1780, 9769.000
774.3240, 9846.000
775.4690, 9951.000
776.6140, 9866.000
777.7590, 9844.000
778.9040, 9921.000
780.0490, 9858.000
781.1940, 9923.000
782.3380, 9840.000
783.4820, 9809.000
784.6260, 9898.000
785.7700, 9888.000
786.9140, 10000.00
788.0580, 10035.00
789.2010, 9960.000
790.3450, 9956.000
791.4880, 9889.000
792.6310, 9957.000
793.7730, 9958.000
794.9160, 10004.00
796.0590, 9936.000
797.2010, 9993.000
798.3430, 9949.000
799.4850, 9906.000
800.6270, 9926.990
801.7690, 9999.000
802.9100, 9967.000
804.0520, 9985.000
805.1930, 10110.00
806.3340, 10017.00
807.4750, 10010.00
808.6160, 10118.00
809.7560, 10115.00
810.8970, 10043.00
812.0370, 10217.00
813.1770, 10240.00
814.3170, 10305.00
815.4570, 10202.00
816.5960, 10214.00
817.7360, 10186.00
818.8750, 10349.00
820.0140, 10318.00
821.1530, 10336.00
822.2920, 10164.00
823.4310, 10374.00
824.5690, 10349.00
825.7070, 10508.00
826.8460, 10399.00
827.9840, 10424.00
829.1220, 10519.00
830.2590, 10448.00
831.3970, 10427.00
832.5340, 10543.00
833.6710, 10511.00
834.8080, 10470.00
835.9450, 10360.00
837.0820, 10538.00
838.2190, 10548.00
839.3550, 10593.00
840.4910, 10628.00
841.6270, 10817.00
842.7630, 10884.00
843.8990, 11001.00
845.0350, 11036.00
846.1700, 11136.00
847.3060, 11401.00
848.4410, 11720.00
849.5760, 11925.00
850.7100, 12217.00
851.8450, 12368.00
852.9800, 12659.00
854.1140, 12764.00
855.2480, 12860.00
856.3820, 12890.00
857.5160, 12693.00
858.6500, 12575.00
859.7830, 12414.00
860.9170, 12361.00
862.0500, 12117.00
863.1830, 12146.00
864.3160, 11927.00
865.4480, 12019.00
866.5810, 11936.00
867.7130, 11845.00
868.8460, 11968.00
869.9780, 11948.00
871.1100, 11932.00
872.2410, 11952.00
873.3730, 11909.00
874.5050, 12028.00
875.6360, 12005.00
876.7670, 12056.70
877.8980, 11982.00
879.0290, 12133.00
880.1590, 12197.00
881.2900, 12209.00
882.4200, 12109.00
883.5500, 12303.00
884.6800, 12283.00
885.8100, 12233.00
886.9400, 12290.00
888.0690, 12257.00
889.1990, 12411.00
890.3280, 12387.00
891.4570, 12458.00
892.5860, 12388.00
893.7140, 12430.00
894.8430, 12483.00
895.9710, 12391.00
897.1000, 12329.00
898.2280, 12344.00
899.3560, 12368.00
900.4830, 12387.00
901.6110, 12321.00
902.7380, 12400.00
903.8660, 12313.00
904.9930, 12258.00
906.1200, 12368.00
907.2460, 12421.00
908.3730, 12399.00
909.5000, 12377.00
910.6260, 12337.00
911.7520, 12406.00
912.8780, 12302.00
914.0040, 12343.00
915.1290, 12341.00
916.2550, 12295.00
917.3800, 12442.00
918.5050, 12528.00
919.6300, 12586.00
920.7550, 12489.00
921.8800, 12524.00
923.0040, 12318.00
924.1290, 12340.00
925.2530, 12347.00
926.3770, 12353.00
927.5010, 12308.00
928.6250, 12204.00
929.7480, 12230.04
930.8720, 12190.00
931.9950, 12218.00
933.1180, 12173.00
934.2410, 12154.00
935.3640, 12241.00
936.4860, 12195.00
937.6090, 12139.00
938.7310, 12197.00
939.8530, 12158.00
940.9750, 12064.00
942.0970, 12097.00
943.2180, 12106.00
944.3400, 12203.00
945.4610, 12227.00
946.5820, 12118.00
947.7030, 12384.00
948.8240, 12478.00
949.9450, 12469.00
951.0650, 12397.00
952.1860, 12669.00
953.3060, 12659.00
954.4260, 12831.00
955.5460, 12877.00
956.6650, 12742.00
957.7850, 12906.00
958.9040, 12971.00
960.0230, 12957.00
961.1420, 13218.00
962.2610, 12975.00
963.3800, 13226.00
964.4990, 13170.00
965.6170, 13397.00
966.7350, 13426.00
967.8530, 13423.00
968.9710, 13711.00
970.0890, 13599.00
971.2070, 13663.00
972.3240, 13873.00
973.4410, 13874.00
974.5580, 13880.00
975.6750, 13984.00
976.7920, 14165.00
977.9090, 14061.00
979.0250, 14339.00
980.1410, 14499.00
981.2580, 14494.41
982.3740, 14698.00
983.4890, 14713.00
984.6050, 14734.00
985.7200, 15124.00
986.8360, 15191.00
987.9510, 15426.00
989.0660, 15654.00
990.1810, 15998.80
991.2950, 16460.00
992.4100, 16953.00
993.5240, 17538.00
994.6390, 18308.00
995.7530, 18971.00
996.8660, 19739.00
997.9800, 21012.00
999.0940, 22354.00
1000.207, 23871.00
1001.320, 25976.00
1002.433, 28528.00
1003.546, 31636.96
1004.659, 34900.00
1005.772, 39402.00
1006.884, 44168.00
1007.996, 49370.00
1009.108, 54246.00
1010.220, 58243.00
1011.332, 60115.00
1012.444, 59797.00
1013.555, 56589.00
1014.666, 51597.00
1015.777, 46078.00
1016.888, 40463.00
1017.999, 35080.00
1019.110, 30565.00
1020.220, 27483.00
1021.331, 24726.00
1022.441, 22582.00
1023.551, 21353.00
1024.661, 20061.00
1025.770, 19139.00
1026.880, 18627.00
1027.989, 17889.00
1029.098, 17617.00
1030.207, 17165.00
1031.316, 17103.00
1032.425, 16839.00
1033.533, 16788.00
1034.642, 16514.00
1035.750, 16503.00
1036.858, 16586.00
1037.966, 16505.00
1039.073, 16496.00
1040.181, 16378.00
1041.288, 16367.00
1042.396, 16374.00
1043.503, 16237.00
1044.610, 16210.00
1045.716, 16178.00
1046.823, 15823.00
1047.929, 15721.00
1049.036, 15592.00
1050.142, 15624.00
1051.248, 15459.00
1052.353, 15379.00
1053.459, 15133.00
1054.564, 15146.00
1055.670, 15005.00
1056.775, 14836.00
1057.880, 14856.00
1058.985, 14623.00
1060.089, 14693.00
1061.194, 14652.00
1062.298, 14551.00
1063.402, 14417.00
1064.506, 14346.00
1065.610, 14177.00
1066.713, 14147.17
1067.817, 14072.59
1068.920, 14101.00
1070.023, 13992.00
1071.126, 14035.00
1072.229, 14017.00
1073.332, 13862.00
1074.435, 13890.00
1075.537, 13898.00
1076.639, 13828.00
1077.741, 13722.00
1078.843, 13941.00
1079.945, 13773.00
1081.046, 13801.00
1082.148, 13811.00
1083.249, 13757.00
1084.350, 13701.00
1085.451, 13664.00
1086.551, 13677.00
1087.652, 13732.00
1088.752, 13595.00
1089.853, 13637.00
1090.953, 13433.00
1092.053, 13712.00
1093.152, 13472.00
1094.252, 13560.00
1095.351, 13619.00
1096.451, 13412.00
1097.550, 13502.00
1098.649, 13680.00
1099.748, 13635.00
1100.846, 13562.00
1101.945, 13495.00
1103.043, 13577.00
1104.141, 13651.00
1105.239, 13410.00
1106.337, 13441.00
1107.434, 13546.00
1108.532, 13506.00
1109.629, 13482.00
1110.726, 13531.00
1111.823, 13369.00
1112.920, 14085.00
1114.017, 14569.00
1115.113, 15379.00
1116.210, 14555.00
1117.306, 14242.00
1118.402, 14077.00
1119.498, 14267.00
1120.593, 14208.00
1121.689, 14321.00
1122.784, 14374.00
1123.879, 14531.00
1124.974, 14482.00
1126.069, 14468.00
1127.164, 14055.00
1128.259, 14104.00
1129.353, 13784.00
1130.447, 13741.00
1131.541, 13482.00
1132.635, 13435.00
1133.729, 13392.00
1134.822, 13485.00
1135.916, 13430.00
1137.009, 13315.00
1138.102, 13315.00
1139.195, 13179.00
1140.288, 13290.00
1141.380, 13130.00
1142.473, 13220.00
1143.565, 13101.00
1144.657, 13239.00
1145.749, 13148.00
1146.841, 13198.00
1147.932, 13072.00
1149.024, 13064.00
1150.115, 13016.00
1151.206, 13061.00
1152.297, 12957.00
1153.388, 13021.00
1154.479, 12939.00
1155.569, 12913.00
1156.659, 12939.00
1157.750, 12950.00
1158.839, 12890.00
1159.929, 12905.00
1161.019, 12973.00
1162.108, 13041.00
1163.198, 12955.00
1164.287, 12963.00
1165.376, 12906.00
1166.465, 12908.59
1167.553, 12927.80
1168.642, 12933.00
1169.730, 12953.00
1170.818, 12979.00
1171.906, 12920.00
1172.994, 13122.00
1174.082, 12898.00
1175.170, 12860.00
1176.257, 13046.00
1177.344, 13039.00
1178.431, 13025.00
1179.518, 13037.00
1180.605, 13028.72
1181.691, 13031.00
1182.778, 13006.00
1183.864, 12945.00
1184.950, 12881.00
1186.036, 13077.00
1187.122, 13042.00
1188.207, 13095.00
1189.292, 13101.00
1190.378, 13150.00
1191.463, 13141.82
1192.548, 13140.00
1193.632, 13107.00
1194.717, 13160.00
1195.801, 13115.00
1196.886, 13034.00
1197.970, 13073.00
1199.054, 13114.00
1200.137, 13204.00
1201.221, 13180.00
1202.305, 13237.00
1203.388, 13136.00
1204.471, 13303.00
1205.554, 13183.00
1206.637, 13192.00
1207.719, 13272.00
1208.802, 13207.00
1209.884, 13260.00
1210.966, 13276.00
1212.048, 13307.00
1213.130, 13436.00
1214.212, 13271.00
1215.293, 13364.00
1216.374, 13319.00
1217.456, 13201.00
1218.536, 13305.00
1219.617, 13373.00
1220.698, 13401.00
1221.778, 13376.00
1222.859, 13369.00
1223.939, 13340.00
1225.019, 13359.38
1226.099, 13355.59
1227.178, 13429.00
1228.258, 13370.00
1229.337, 13459.00
1230.417, 13461.00
1231.496, 13587.00
1232.574, 13715.00
1233.653, 13388.00
1234.732, 13467.00
1235.810, 13517.00
1236.888, 13567.00
1237.966, 13545.00
1239.044, 13603.74
1240.122, 13580.00
1241.199, 13626.00
1242.277, 13664.00
1243.354, 13581.00
1244.431, 13666.00
1245.508, 13496.00
1246.585, 13543.00
1247.661, 13692.00
1248.738, 13675.00
1249.814, 13611.00
1250.890, 13688.00
1251.966, 13714.00
1253.042, 13694.00
1254.117, 13688.00
1255.193, 13708.72
1256.268, 13674.00
1257.343, 13727.00
1258.418, 13696.00
1259.493, 13673.00
1260.567, 13819.00
1261.642, 13759.00
1262.716, 13765.00
1263.790, 13692.00
1264.864, 13735.63
1265.938, 13821.00
1267.011, 13799.00
1268.085, 13827.00
1269.158, 13817.00
1270.231, 13789.00
1271.304, 13811.00
1272.377, 13861.00
1273.450, 13834.00
1274.522, 13973.00
1275.594, 13889.00
1276.666, 13989.00
1277.738, 13994.00
1278.810, 14092.00
1279.882, 13914.00
1280.953, 13784.00
1282.025, 13853.00
1283.096, 13920.00
1284.167, 13946.00
1285.238, 13903.00
1286.308, 14000.00
1287.379, 13904.00
1288.449, 14109.00
1289.519, 13895.00
1290.589, 13847.00
1291.659, 14059.00
1292.729, 13820.00
1293.798, 14114.00
1294.868, 14050.00
1295.937, 14121.00
1297.006, 14019.00
1298.075, 14117.00
1299.143, 13938.00
1300.212, 14102.00
1301.280, 13988.00
1302.348, 14033.00
1303.416, 14123.00
1304.484, 14204.00
1305.552, 14102.00
1306.620, 14185.00
1307.687, 14178.00
1308.754, 14219.00
1309.821, 14236.00
1310.888, 14278.00
1311.955, 14237.00
1313.021, 14163.00
1314.088, 14371.00
1315.154, 14183.00
1316.220, 14356.00
1317.286, 14266.00
1318.352, 14357.00
1319.417, 14372.00
1320.483, 14376.00
1321.548, 14416.00
1322.613, 14437.00
1323.678, 14415.00
1324.743, 14444.28
1325.807, 14481.00
1326.872, 14473.00
1327.936, 14455.00
1329.000, 14494.00
1330.064, 14394.00
1331.128, 14533.00
1332.191, 14386.00
1333.255, 14559.00
1334.318, 14553.00
1335.381, 14408.00
1336.444, 14544.00
1337.507, 14920.01
1338.569, 14930.17
1339.632, 14925.80
1340.694, 15244.00
1341.756, 14685.00
1342.818, 14695.00
1343.880, 14531.00
1344.941, 14445.00
1346.003, 14632.00
1347.064, 14559.19
1348.125, 14634.00
1349.186, 14653.00
1350.247, 14716.00
1351.308, 14725.00
1352.368, 14810.00
1353.428, 14791.17
1354.489, 14813.00
1355.549, 14777.00
1356.608, 14754.00
1357.668, 14768.00
1358.727, 14626.00
1359.787, 14810.00
1360.846, 14726.00
1361.905, 14957.00
1362.964, 14907.00
1364.022, 14930.00
1365.081, 14721.00
1366.139, 14763.00
1367.197, 14905.00
1368.255, 14965.00
1369.313, 14802.00
1370.371, 14951.00
1371.428, 14795.00
1372.486, 14927.00
1373.543, 14998.00
1374.600, 14839.00
1375.657, 14747.00
1376.713, 14944.00
1377.770, 14807.00
1378.826, 14963.00
1379.882, 14859.00
1380.938, 14812.00
1381.994, 14886.00
1383.050, 14853.00
1384.106, 15009.00
1385.161, 14881.00
1386.216, 14976.00
1387.271, 14987.00
1388.326, 15178.00
1389.381, 15010.00
1390.435, 15014.00
1391.490, 15031.00
1392.544, 14911.00
1393.598, 15039.00
1394.652, 14974.00
1395.705, 15171.00
1396.759, 14927.00
1397.812, 15106.00
1398.866, 15017.00
1399.919, 15044.00
1400.972, 15063.00
1402.024, 15142.00
1403.077, 15105.00
1404.129, 15022.00
1405.181, 15214.00
1406.233, 15014.00
1407.285, 15086.26
1408.337, 15404.00
1409.389, 15067.00
1410.440, 15151.00
1411.491, 15091.00
1412.542, 15170.00
1413.593, 15205.00
1414.644, 15146.00
1415.695, 15077.00
1416.745, 15136.00
1417.795, 15221.00
1418.845, 15278.00
1419.895, 15307.00
1420.945, 15215.00
1421.995, 15139.00
1423.044, 15254.00
1424.093, 15383.00
1425.142, 15152.00
1426.191, 15164.00
1427.240, 15324.00
1428.289, 15260.00
1429.337, 15290.00
1430.385, 15313.00
1431.433, 15313.00
1432.481, 15292.00
1433.529, 15260.00
1434.577, 15268.00
1435.624, 15278.49
1436.672, 15311.00
1437.719, 15329.00
1438.766, 15335.00
1439.812, 15351.00
1440.859, 15378.51
1441.905, 15357.51
1442.952, 15441.00
1443.998, 15354.00
1445.044, 15381.00
1446.090, 15453.00
1447.135, 15498.00
1448.181, 15527.00
1449.226, 15530.76
1450.271, 15521.04
1451.316, 15502.00
1452.361, 15460.00
1453.405, 15452.00
1454.450, 15418.00
1455.494, 15536.00
1456.538, 15442.00
1457.582, 15576.00
1458.626, 15596.00
1459.670, 15630.00
1460.713, 15473.00
1461.757, 15482.00
1462.800, 15541.00
1463.843, 15601.00
1464.886, 15651.00
1465.928, 15678.00
1466.971, 15635.00
1468.013, 15714.00
1469.055, 15664.00
1470.097, 15772.00
1471.139, 15591.00
1472.181, 15835.00
1473.222, 15613.00
1474.263, 15690.00
1475.305, 15616.00
1476.346, 15896.00
1477.386, 15716.00
1478.427, 15802.00
1479.468, 15869.00
1480.508, 15713.00
1481.548, 15773.00
1482.588, 15722.00
1483.628, 15781.00
1484.668, 15907.00
1485.707, 15784.00
1486.747, 15851.00
1487.786, 15953.00
1488.825, 15878.00
1489.864, 15897.00
1490.902, 15869.00
1491.941, 15865.00
1492.979, 15858.00
1494.017, 15871.00
1495.055, 15966.00
1496.093, 15822.00
1497.131, 16128.00
1498.168, 15809.00
1499.206, 15988.00
1500.243, 15987.00
1501.280, 15970.00
1502.317, 16094.00
1503.354, 15925.00
1504.390, 16001.00
1505.426, 16010.00
1506.463, 16109.00
1507.499, 15967.00
1508.535, 16163.00
1509.570, 15990.00
1510.606, 16123.00
1511.641, 16093.00
1512.676, 16177.00
1513.711, 16054.00
1514.746, 16128.00
1515.781, 16179.00
1516.816, 16205.00
1517.850, 16148.00
1518.884, 16215.00
1519.918, 16171.00
1520.952, 15999.00
1521.986, 16267.00
1523.019, 16110.00
1524.053, 16225.00
1525.086, 16292.00
1526.119, 16157.00
1527.152, 16232.00
1528.185, 16234.00
1529.217, 16214.87
1530.250, 16224.00
1531.282, 16269.00
1532.314, 16331.00
1533.346, 16427.00
1534.377, 16270.00
1535.409, 16467.00
1536.440, 16221.00
1537.472, 16308.00
1538.503, 16431.00
1539.534, 16426.00
1540.564, 16418.00
1541.595, 16413.00
1542.625, 16421.86
1543.656, 16426.86
1544.686, 16452.00
1545.716, 16463.00
1546.745, 16495.00
1547.775, 16539.00
1548.804, 16664.00
1549.834, 16688.00
1550.863, 16772.00
1551.892, 16787.80
1552.920, 16651.00
1553.949, 16755.00
1554.977, 16720.00
1556.006, 16616.00
1557.034, 16697.00
1558.062, 16672.00
1559.089, 16706.00
1560.117, 16618.00
1561.144, 16779.00
1562.172, 16606.00
1563.199, 16732.00
1564.226, 16854.00
1565.252, 16865.00
1566.279, 16879.76
1567.305, 16618.00
1568.332, 16834.00
1569.358, 16714.00
1570.384, 16763.00
1571.409, 16764.00
1572.435, 16914.00
##END=



