##NAMES=Diopside
##RRUFFID=R060861
##IDEAL CHEMISTRY=CaMgSi_2_O_6_
##LOCALITY=Red Mountain Volcano, NW of Flagstaff, Arizona, USA
##OWNER=RRUFF
##SOURCE=Jennifer Sano
##DESCRIPTION=Worn brown fragment
##STATUS=The identification of this mineral has been confirmed by X-ray diffraction and chemical analysis
##URL=rruff.info/R060861
##MEASURED CHEMISTRY=(Ca_0.72_Fe^2+^_0.23_Na_0.05_)_Σ=1_(Mg_0.80_Al_0.15_Ti_0.03_Fe^3+^_0.02_)_Σ=1_(Si_1.82_Al_0.18_)_Σ=2_O_6_
##PIN_ID=M01674
##ORIENTATION=Laser parallel to b* (0 1 0). Fiducial mark perpendicular to laser is parallel to c [0 0 1]
164.8280, 12447.00
166.0620, 12693.00
167.2970, 12608.14
168.5310, 12412.00
169.7650, 12451.00
170.9990, 12391.55
172.2330, 12505.00
173.4670, 12404.00
174.7000, 12417.00
175.9330, 12417.00
177.1660, 12403.37
178.3990, 12504.00
179.6310, 12448.00
180.8640, 12505.00
182.0960, 12557.00
183.3280, 12566.00
184.5600, 12459.00
185.7910, 12507.00
187.0220, 12548.34
188.2540, 12819.00
189.4840, 12711.00
190.7150, 12812.00
191.9460, 12906.00
193.1760, 12879.00
194.4060, 12931.00
195.6360, 12791.00
196.8660, 12801.00
198.0960, 12691.00
199.3250, 12793.00
200.5540, 12834.00
201.7830, 13018.00
203.0120, 12898.00
204.2400, 12597.00
205.4690, 12177.00
206.6970, 11784.00
207.9250, 11524.00
209.1530, 11711.00
210.3800, 11665.00
211.6080, 11629.00
212.8350, 11834.00
214.0620, 11796.00
215.2880, 11892.00
216.5150, 11686.00
217.7410, 11801.00
218.9680, 11783.00
220.1940, 11825.00
221.4190, 11775.00
222.6450, 11818.50
223.8700, 11873.00
225.0960, 11890.00
226.3210, 11992.00
227.5450, 12060.00
228.7700, 12080.00
229.9940, 12075.00
231.2190, 11999.00
232.4430, 11899.00
233.6660, 12230.00
234.8900, 12108.00
236.1140, 12204.00
237.3370, 12138.00
238.5600, 12291.00
239.7830, 12357.00
241.0050, 12332.00
242.2280, 12341.00
243.4500, 12607.00
244.6720, 12643.00
245.8940, 12753.00
247.1160, 12668.00
248.3370, 13032.00
249.5580, 12927.00
250.7790, 13008.00
252.0000, 13123.00
253.2210, 13187.00
254.4410, 13114.00
255.6620, 13031.00
256.8820, 13113.00
258.1020, 13300.00
259.3210, 13194.63
260.5410, 13041.40
261.7600, 13051.00
262.9790, 12619.00
264.1980, 12357.00
265.4170, 12396.00
266.6360, 12017.00
267.8540, 11992.00
269.0720, 11848.00
270.2900, 11971.00
271.5080, 11924.00
272.7260, 11904.00
273.9430, 12036.00
275.1600, 11995.26
276.3770, 11856.00
277.5940, 12033.00
278.8100, 12032.00
280.0270, 12036.00
281.2430, 12144.00
282.4590, 12191.07
283.6750, 12253.00
284.8910, 12396.00
286.1060, 12496.00
287.3210, 12641.00
288.5360, 12748.00
289.7510, 12985.00
290.9660, 13171.00
292.1800, 13411.00
293.3950, 13505.00
294.6090, 13657.00
295.8230, 13990.00
297.0360, 14123.00
298.2500, 14364.00
299.4630, 14721.00
300.6760, 14819.00
301.8890, 15259.00
303.1020, 15475.00
304.3150, 15708.00
305.5270, 16261.00
306.7390, 16261.00
307.9510, 17020.00
309.1630, 17374.00
310.3750, 17726.00
311.5860, 18416.00
312.7970, 18907.00
314.0080, 19404.00
315.2190, 19851.00
316.4300, 20497.00
317.6400, 21097.12
318.8510, 21886.00
320.0610, 22487.00
321.2710, 23282.00
322.4800, 24066.00
323.6900, 24591.00
324.8990, 25155.00
326.1080, 25915.00
327.3170, 26584.00
328.5260, 26971.00
329.7340, 27499.93
330.9430, 27731.00
332.1510, 28051.00
333.3590, 28238.00
334.5670, 28065.00
335.7740, 27845.00
336.9820, 28079.00
338.1890, 27548.00
339.3960, 27479.00
340.6030, 27029.00
341.8100, 26657.00
343.0160, 26492.00
344.2220, 26015.00
345.4280, 25671.00
346.6340, 25407.00
347.8400, 25410.00
349.0460, 24887.00
350.2510, 24871.00
351.4560, 24397.00
352.6610, 24476.00
353.8660, 24271.00
355.0700, 23958.00
356.2750, 23755.00
357.4790, 23646.00
358.6830, 23153.00
359.8870, 22985.00
361.0910, 22641.00
362.2940, 22515.00
363.4970, 22205.00
364.7000, 21863.00
365.9030, 21512.00
367.1060, 21305.00
368.3080, 21152.00
369.5110, 20937.00
370.7130, 20585.00
371.9150, 20421.00
373.1170, 20173.00
374.3180, 20186.00
375.5200, 20001.00
376.7210, 20180.00
377.9220, 20166.00
379.1230, 20199.00
380.3230, 20120.00
381.5240, 20418.00
382.7240, 20254.00
383.9240, 20582.00
385.1240, 20810.00
386.3240, 21431.00
387.5230, 21420.00
388.7230, 21622.00
389.9220, 21840.00
391.1210, 22249.00
392.3200, 22580.00
393.5180, 22689.00
394.7170, 22406.00
395.9150, 22462.00
397.1130, 22364.00
398.3110, 21637.00
399.5080, 21252.00
400.7060, 20517.00
401.9030, 19673.00
403.1000, 18911.00
404.2970, 17966.00
405.4940, 17208.00
406.6910, 16510.00
407.8870, 15868.00
409.0830, 15125.00
410.2790, 14414.00
411.4750, 13995.00
412.6710, 13532.00
413.8660, 13163.00
415.0610, 12826.00
416.2560, 12720.00
417.4510, 12225.00
418.6460, 12057.00
419.8410, 11883.00
421.0350, 11612.00
422.2290, 11645.00
423.4230, 11682.00
424.6170, 11384.00
425.8100, 11280.00
427.0040, 11139.00
428.1970, 11074.00
429.3900, 11094.00
430.5830, 11027.00
431.7760, 10938.00
432.9680, 10789.00
434.1610, 10752.00
435.3530, 10686.33
436.5450, 10576.00
437.7360, 10618.00
438.9280, 10623.00
440.1190, 10590.00
441.3110, 10452.00
442.5020, 10540.00
443.6930, 10449.00
444.8830, 10464.00
446.0740, 10393.00
447.2640, 10401.00
448.4540, 10416.00
449.6440, 10397.00
450.8340, 10421.00
452.0240, 10439.00
453.2130, 10343.00
454.4020, 10349.00
455.5910, 10429.49
456.7800, 10689.00
457.9690, 10630.00
459.1570, 10622.00
460.3460, 10703.00
461.5340, 10674.64
462.7220, 10623.00
463.9090, 10737.00
465.0970, 10693.00
466.2840, 10771.00
467.4720, 10770.00
468.6590, 10813.00
469.8460, 10726.00
471.0320, 10836.00
472.2190, 10803.00
473.4050, 10733.00
474.5910, 10803.00
475.7770, 10700.00
476.9630, 10935.00
478.1490, 10659.00
479.3340, 10829.00
480.5190, 10809.00
481.7040, 10733.00
482.8890, 10879.00
484.0740, 10928.00
485.2580, 10879.00
486.4430, 11035.00
487.6270, 11003.00
488.8110, 10858.00
489.9950, 11056.00
491.1780, 11187.00
492.3620, 11055.00
493.5450, 11260.00
494.7280, 11311.00
495.9110, 11448.00
497.0940, 11595.00
498.2760, 11755.00
499.4590, 11928.00
500.6410, 12196.70
501.8230, 12497.00
503.0050, 12837.00
504.1860, 13195.00
505.3680, 13643.00
506.5490, 13979.00
507.7300, 14230.00
508.9110, 14422.31
510.0920, 14526.89
511.2730, 14559.00
512.4530, 14500.00
513.6330, 14396.00
514.8130, 14159.00
515.9930, 13982.00
517.1730, 13678.00
518.3520, 13693.00
519.5320, 13423.00
520.7110, 13459.00
521.8900, 13509.00
523.0690, 13508.00
524.2470, 13612.00
525.4260, 13675.00
526.6040, 13716.31
527.7820, 13771.00
528.9600, 13854.00
530.1380, 14028.00
531.3150, 14174.00
532.4930, 14263.00
533.6700, 14381.00
534.8470, 14538.00
536.0240, 14511.00
537.2000, 14551.00
538.3770, 14492.00
539.5530, 14466.00
540.7290, 14385.00
541.9050, 14341.08
543.0810, 14408.00
544.2570, 14203.00
545.4320, 14229.00
546.6080, 14109.00
547.7830, 13889.00
548.9580, 14005.00
550.1320, 13836.00
551.3070, 13700.00
552.4810, 13715.32
553.6550, 13580.00
554.8300, 13611.00
556.0030, 13455.00
557.1770, 13359.00
558.3510, 13254.00
559.5240, 13289.00
560.6970, 13039.00
561.8700, 12959.00
563.0430, 13075.00
564.2160, 12873.00
565.3880, 12709.00
566.5600, 12772.00
567.7320, 12508.00
568.9040, 12402.00
570.0760, 12405.00
571.2480, 12311.00
572.4190, 12206.00
573.5900, 12021.00
574.7610, 11984.00
575.9320, 11928.00
577.1030, 11795.00
578.2740, 11427.00
579.4440, 11490.00
580.6140, 11267.00
581.7840, 11153.00
582.9540, 11127.00
584.1240, 10817.00
585.2930, 10644.00
586.4630, 10540.00
587.6320, 10228.00
588.8010, 10189.00
589.9700, 9890.000
591.1380, 9797.000
592.3070, 9513.000
593.4750, 9305.000
594.6430, 9377.000
595.8110, 9178.000
596.9790, 9125.000
598.1460, 8952.000
599.3140, 8728.000
600.4810, 8790.000
601.6480, 8540.000
602.8150, 8463.000
603.9820, 8489.000
605.1480, 8465.000
606.3150, 8396.000
607.4810, 8369.000
608.6470, 8296.000
609.8130, 8612.000
610.9790, 8631.000
612.1440, 8577.000
613.3100, 8660.000
614.4750, 8667.000
615.6400, 8742.000
616.8050, 8875.000
617.9690, 8894.000
619.1340, 9012.000
620.2980, 9220.000
621.4620, 9158.000
622.6260, 9395.000
623.7900, 9482.000
624.9540, 9617.000
626.1170, 9764.000
627.2810, 10018.00
628.4440, 10170.00
629.6070, 10439.00
630.7690, 10697.00
631.9320, 10874.00
633.0950, 11238.00
634.2570, 11555.00
635.4190, 11928.00
636.5810, 12222.00
637.7430, 12678.00
638.9040, 13171.00
640.0660, 13789.00
641.2270, 14417.00
642.3880, 14974.00
643.5490, 15768.00
644.7100, 16470.00
645.8700, 17496.00
647.0310, 18491.00
648.1910, 19968.00
649.3510, 21069.00
650.5110, 22776.00
651.6710, 24498.00
652.8300, 26600.00
653.9900, 28809.00
655.1490, 31385.00
656.3080, 34128.00
657.4670, 37505.00
658.6250, 40901.00
659.7840, 44325.00
660.9420, 47983.00
662.1010, 51784.00
663.2590, 55390.00
664.4170, 58017.00
665.5740, 60553.00
666.7320, 61972.00
667.8890, 61948.00
669.0460, 61738.00
670.2030, 59377.00
671.3600, 56620.00
672.5170, 52736.00
673.6740, 48901.00
674.8300, 45160.00
675.9860, 41042.00
677.1420, 37802.00
678.2980, 34456.00
679.4540, 31835.00
680.6090, 29069.00
681.7650, 26772.00
682.9200, 24533.00
684.0750, 22737.00
685.2300, 21121.00
686.3840, 19755.00
687.5390, 18601.00
688.6930, 17586.00
689.8470, 16648.00
691.0010, 15805.33
692.1550, 14981.00
693.3090, 14434.00
694.4620, 13856.00
695.6160, 13443.00
696.7690, 13016.00
697.9220, 12589.00
699.0750, 12255.00
700.2280, 12042.00
701.3800, 11601.00
702.5320, 11520.00
703.6850, 11318.00
704.8370, 11118.00
705.9880, 10948.00
707.1400, 10795.00
708.2920, 10626.00
709.4430, 10374.00
710.5940, 10205.00
711.7450, 10183.00
712.8960, 9837.000
714.0470, 9793.000
715.1970, 9727.000
716.3480, 9539.000
717.4980, 9336.000
718.6480, 9255.134
719.7980, 9364.000
720.9470, 9054.000
722.0970, 8989.000
723.2460, 8948.000
724.3960, 8643.000
725.5450, 8616.000
726.6940, 8643.000
727.8420, 8347.000
728.9910, 8494.000
730.1390, 8305.742
731.2870, 8194.000
732.4350, 8109.000
733.5830, 8166.000
734.7310, 8168.000
735.8790, 8078.000
737.0260, 8143.000
738.1730, 8135.000
739.3200, 8094.000
740.4670, 8019.000
741.6140, 7979.000
742.7610, 7991.000
743.9070, 8170.000
745.0530, 8154.000
746.1990, 8137.000
747.3450, 8151.000
748.4910, 8180.000
749.6370, 8302.000
750.7820, 8333.000
751.9270, 8411.000
753.0720, 8447.000
754.2170, 8567.000
755.3620, 8581.394
756.5070, 8649.000
757.6510, 8632.000
758.7950, 8749.000
759.9400, 8767.000
761.0840, 8741.000
762.2270, 8842.000
763.3710, 8870.000
764.5140, 9008.000
765.6580, 9103.000
766.8010, 9469.000
767.9440, 9425.156
769.0870, 9157.000
770.2290, 9492.000
771.3720, 9345.000
772.5140, 9402.000
773.6560, 9424.000
774.7990, 9505.000
775.9400, 9528.000
777.0820, 9585.000
778.2240, 9587.415
779.3650, 9729.888
780.5060, 9829.319
781.6470, 9888.022
782.7880, 9784.013
783.9290, 9890.113
785.0690, 9911.970
786.2100, 9930.416
787.3500, 10066.05
788.4900, 9985.665
789.6300, 10119.44
790.7700, 10167.73
791.9090, 10255.10
793.0490, 10257.79
794.1880, 10286.61
795.3270, 10400.18
796.4660, 10466.82
797.6050, 10539.00
798.7440, 10494.00
799.8820, 10653.00
801.0200, 10538.00
802.1590, 10683.00
803.2970, 10830.00
804.4340, 10897.00
805.5720, 10998.00
806.7100, 10944.00
807.8470, 10969.00
808.9840, 11030.00
810.1210, 11205.00
811.2580, 11260.00
812.3950, 11294.00
813.5310, 11276.00
814.6680, 11361.00
815.8040, 11386.00
816.9400, 11514.00
818.0760, 11514.00
819.2120, 11602.00
820.3470, 11542.00
821.4830, 11593.00
822.6180, 11724.00
823.7530, 11727.00
824.8880, 11647.00
826.0230, 11749.00
827.1580, 11659.00
828.2920, 11621.00
829.4270, 11707.00
830.5610, 11642.50
831.6950, 11684.00
832.8290, 11637.00
833.9620, 11510.00
835.0960, 11505.00
836.2290, 11520.00
837.3620, 11583.00
838.4950, 11557.00
839.6280, 11377.00
840.7610, 11502.00
841.8940, 11389.00
843.0260, 11501.00
844.1580, 11434.00
845.2910, 11473.00
846.4230, 11332.00
847.5540, 11439.69
848.6860, 11763.00
849.8170, 11582.00
850.9490, 11805.00
852.0800, 11828.00
853.2110, 12039.00
854.3420, 12160.00
855.4730, 12369.00
856.6030, 12403.00
857.7340, 12595.00
858.8640, 12760.00
859.9940, 12947.00
861.1240, 13267.00
862.2540, 13390.00
863.3830, 13458.00
864.5130, 13740.00
865.6420, 13841.00
866.7710, 13894.00
867.9000, 14012.00
869.0290, 14086.00
870.1570, 14209.00
871.2860, 14107.00
872.4140, 14053.00
873.5430, 14079.00
874.6710, 14017.00
875.7980, 14254.00
876.9260, 13717.00
878.0540, 13901.00
879.1810, 14034.00
880.3080, 13748.00
881.4360, 13776.00
882.5630, 13847.00
883.6890, 13692.00
884.8160, 13618.00
885.9420, 13716.00
887.0690, 13620.00
888.1950, 13541.00
889.3210, 13558.12
890.4470, 13291.00
891.5730, 13492.00
892.6980, 13469.00
893.8240, 13410.00
894.9490, 13230.00
896.0740, 13300.00
897.1990, 13176.00
898.3240, 13240.00
899.4480, 13180.00
900.5730, 13174.00
901.6970, 13313.00
902.8210, 13418.00
903.9450, 13223.00
905.0690, 13189.00
906.1930, 13239.00
907.3160, 13224.00
908.4400, 13417.00
909.5630, 13075.00
910.6860, 13334.00
911.8090, 13218.00
912.9320, 13221.00
914.0550, 13171.00
915.1770, 13458.00
916.2990, 13436.00
917.4210, 13276.00
918.5440, 13522.00
919.6650, 13451.00
920.7870, 13526.00
921.9090, 13603.00
923.0300, 13695.00
924.1510, 13637.00
925.2720, 13661.00
926.3930, 13724.00
927.5140, 13623.00
928.6350, 13664.00
929.7550, 13691.01
930.8760, 13970.00
931.9960, 13800.00
933.1160, 13949.00
934.2360, 14070.00
935.3550, 14030.00
936.4750, 14054.00
937.5940, 14007.00
938.7140, 14014.00
939.8330, 14064.00
940.9520, 14145.00
942.0710, 14226.00
943.1890, 14284.00
944.3080, 14300.00
945.4260, 14361.00
946.5440, 14483.36
947.6620, 14591.00
948.7800, 14740.00
949.8980, 14881.00
951.0160, 14966.00
952.1330, 14953.00
953.2500, 15090.00
954.3680, 15205.00
955.4850, 15216.00
956.6010, 15452.00
957.7180, 15593.00
958.8350, 15729.01
959.9510, 15882.00
961.0670, 16030.00
962.1830, 16264.00
963.2990, 16366.00
964.4150, 16613.00
965.5310, 16792.00
966.6460, 16839.00
967.7620, 17259.00
968.8770, 17400.00
969.9920, 17563.00
971.1070, 17967.00
972.2210, 18260.00
973.3360, 18375.00
974.4500, 18985.00
975.5650, 19266.00
976.6790, 19459.00
977.7930, 19942.00
978.9070, 20287.25
980.0200, 20723.00
981.1340, 21251.00
982.2470, 21771.00
983.3610, 22428.00
984.4740, 23208.00
985.5870, 23575.00
986.6990, 24666.00
987.8120, 25435.00
988.9250, 26225.00
990.0370, 27416.00
991.1490, 28564.00
992.2610, 29588.00
993.3730, 30899.00
994.4850, 32036.00
995.5960, 33436.00
996.7080, 34541.00
997.8190, 36278.00
998.9300, 37593.00
1000.041, 39097.00
1001.152, 40311.00
1002.263, 41578.00
1003.373, 42571.00
1004.484, 43093.00
1005.594, 43509.00
1006.704, 43798.00
1007.814, 43244.00
1008.924, 42926.00
1010.034, 42128.00
1011.143, 40409.00
1012.253, 39346.00
1013.362, 37498.20
1014.471, 36336.00
1015.580, 33756.00
1016.689, 31626.00
1017.797, 29983.00
1018.906, 28095.00
1020.014, 26494.00
1021.122, 25035.00
1022.230, 23817.00
1023.338, 22681.97
1024.446, 21960.00
1025.554, 20897.00
1026.661, 20236.00
1027.768, 19647.00
1028.875, 18830.00
1029.983, 18497.00
1031.089, 18046.00
1032.196, 17627.00
1033.303, 17376.00
1034.409, 16835.00
1035.515, 16695.00
1036.622, 16563.00
1037.728, 16095.00
1038.833, 15958.00
1039.939, 15540.00
1041.045, 15310.00
1042.150, 15233.00
1043.255, 14946.00
1044.360, 14729.00
1045.465, 14692.00
1046.570, 14324.00
1047.675, 13978.00
1048.779, 13893.00
1049.884, 13697.00
1050.988, 13337.00
1052.092, 13289.00
1053.196, 13126.00
1054.300, 12788.00
1055.404, 12604.00
1056.507, 12468.00
1057.610, 12388.00
1058.714, 12196.00
1059.817, 12138.00
1060.920, 12050.00
1062.022, 11805.00
1063.125, 11803.00
1064.228, 11597.88
1065.330, 11332.00
1066.432, 11332.00
1067.534, 11234.00
1068.636, 11233.00
1069.738, 11166.00
1070.840, 11063.00
1071.941, 11075.00
1073.042, 10941.00
1074.144, 10910.00
1075.245, 10827.00
1076.346, 10765.00
1077.446, 10665.00
1078.547, 10592.00
1079.647, 10567.92
1080.748, 10528.00
1081.848, 10523.00
1082.948, 10509.00
1084.048, 10464.00
1085.148, 10312.00
1086.247, 10323.00
1087.347, 10117.00
1088.446, 10286.00
1089.545, 10032.00
1090.644, 10045.00
1091.743, 10047.00
1092.842, 9955.000
1093.940, 10060.00
1095.039, 10058.00
1096.137, 9917.000
1097.235, 9986.000
1098.333, 9891.895
1099.431, 9810.000
1100.529, 9748.000
1101.627, 9737.000
1102.724, 9604.000
1103.822, 9691.000
1104.919, 9689.000
1106.016, 9589.000
1107.113, 9543.573
1108.209, 9515.000
1109.306, 9443.676
1110.402, 9350.000
1111.499, 9349.000
1112.595, 9275.893
1113.691, 9249.185
1114.787, 9188.000
1115.883, 9206.000
1116.978, 9166.000
1118.074, 9161.000
1119.169, 9070.000
1120.264, 9068.000
1121.359, 8924.000
1122.454, 8929.000
1123.549, 8808.000
1124.644, 8756.000
1125.738, 8549.000
1126.832, 8569.000
1127.927, 8365.000
1129.021, 8419.000
1130.115, 8071.000
1131.208, 7967.000
1132.302, 7967.000
1133.396, 7918.000
1134.489, 7815.000
1135.582, 7756.307
1136.675, 7557.000
1137.768, 7516.000
1138.861, 7498.000
1139.954, 7282.000
1141.046, 7222.000
1142.138, 7281.000
1143.231, 7244.000
1144.323, 7212.000
1145.415, 7020.000
1146.507, 7004.000
1147.598, 7077.000
1148.690, 6851.000
1149.781, 6829.000
1150.872, 6837.000
1151.964, 6637.000
1153.054, 6690.000
1154.145, 6774.000
1155.236, 6691.000
1156.327, 6660.000
1157.417, 6638.000
1158.507, 6593.000
1159.597, 6695.000
1160.687, 6677.000
1161.777, 6601.000
1162.867, 6622.000
1163.956, 6529.000
1165.046, 6592.000
1166.135, 6539.000
1167.224, 6481.000
1168.313, 6536.000
1169.402, 6413.000
1170.491, 6513.000
1171.580, 6540.000
1172.668, 6409.000
1173.756, 6565.000
1174.845, 6520.000
1175.933, 6497.000
1177.020, 6481.000
1178.108, 6361.000
1179.196, 6425.000
1180.283, 6401.000
1181.371, 6498.000
1182.458, 6390.000
1183.545, 6390.000
1184.632, 6352.000
1185.719, 6357.000
1186.805, 6361.386
1187.892, 6357.352
1188.978, 6352.000
1190.065, 6406.000
1191.151, 6329.000
1192.237, 6412.000
1193.323, 6405.000
1194.408, 6269.837
1195.494, 6364.103
1196.579, 6415.332
1197.664, 6425.833
1198.750, 6273.614
1199.835, 6331.512
1200.919, 6305.209
1202.004, 6275.451
1203.089, 6362.921
1204.173, 6234.376
1205.258, 6319.987
1206.342, 6320.113
1207.426, 6295.000
1208.510, 6387.000
1209.594, 6331.000
1210.677, 6351.000
1211.761, 6239.000
1212.844, 6413.000
1213.927, 6355.000
1215.010, 6426.000
1216.093, 6338.000
1217.176, 6412.000
1218.259, 6362.000
1219.341, 6334.000
1220.424, 6368.000
1221.506, 6403.000
1222.588, 6347.000
1223.670, 6384.000
1224.752, 6366.000
1225.834, 6440.000
1226.915, 6456.000
1227.997, 6363.000
1229.078, 6369.000
1230.159, 6296.000
1231.240, 6242.000
1232.321, 6370.000
1233.402, 6448.000
1234.483, 6367.000
1235.563, 6294.000
1236.644, 6394.000
1237.724, 6336.000
1238.804, 6365.000
1239.884, 6390.000
1240.964, 6439.000
1242.044, 6389.000
1243.123, 6347.000
1244.203, 6321.000
1245.282, 6348.000
1246.361, 6352.000
1247.440, 6413.000
1248.519, 6311.000
1249.598, 6354.000
1250.676, 6345.000
1251.755, 6419.000
1252.833, 6628.000
1253.911, 6446.000
1254.989, 6370.000
1256.067, 6303.000
1257.145, 6485.000
1258.223, 6371.000
1259.300, 6380.000
1260.378, 6402.000
1261.455, 6376.000
1262.532, 6399.000
1263.609, 6444.000
1264.686, 6384.000
1265.763, 6402.133
1266.840, 6362.000
1267.916, 6387.000
1268.992, 6383.000
1270.069, 6416.000
1271.145, 6393.000
1272.221, 6509.000
1273.296, 6433.000
1274.372, 6432.000
1275.448, 6419.000
1276.523, 6358.000
1277.598, 6368.000
1278.673, 6457.000
1279.749, 6421.000
1280.823, 6455.000
1281.898, 6486.000
1282.973, 6350.000
1284.047, 6420.000
1285.122, 6437.000
1286.196, 6408.000
1287.270, 6498.000
1288.344, 6396.000
1289.418, 6429.000
1290.491, 6433.000
1291.565, 6496.000
1292.638, 6515.000
1293.712, 6518.976
1294.785, 6498.690
1295.858, 6527.000
1296.931, 6448.000
1298.003, 6463.000
1299.076, 6529.000
1300.149, 6578.000
1301.221, 6420.000
1302.293, 6477.000
1303.365, 6451.000
1304.437, 6510.000
1305.509, 6566.000
1306.581, 6524.000
1307.652, 6511.000
1308.724, 6527.000
1309.795, 6507.000
1310.866, 6526.000
1311.937, 6522.000
1313.008, 6510.000
1314.079, 6520.000
1315.150, 6523.000
1316.220, 6577.000
1317.291, 6625.000
1318.361, 6614.000
1319.431, 6688.000
1320.501, 6557.000
1321.571, 6594.000
1322.641, 6560.000
1323.710, 6555.000
1324.780, 6573.055
1325.849, 6643.000
1326.918, 6598.000
1327.987, 6684.000
1329.056, 6706.000
1330.125, 6525.000
1331.194, 6528.000
1332.263, 6680.000
1333.331, 6592.267
1334.399, 6648.305
1335.467, 6658.000
1336.535, 6643.000
1337.603, 6740.000
1338.671, 6713.000
1339.739, 6792.000
1340.806, 6632.000
1341.874, 6733.000
1342.941, 6698.000
1344.008, 6793.000
1345.075, 6681.000
1346.142, 6796.000
1347.209, 6681.000
1348.275, 6607.000
1349.342, 6671.000
1350.408, 6745.000
1351.475, 6767.000
1352.541, 6684.000
1353.607, 6609.000
1354.673, 6821.000
1355.738, 6698.000
1356.804, 6783.000
1357.869, 6671.000
1358.935, 6738.000
1360.000, 6702.000
1361.065, 6729.000
1362.130, 6632.000
1363.195, 6652.000
1364.259, 6655.000
1365.324, 6671.000
1366.388, 6733.000
1367.453, 6661.000
1368.517, 6702.000
1369.581, 6699.000
1370.645, 6643.000
1371.709, 6642.000
1372.772, 6680.000
1373.836, 6636.000
1374.899, 6679.000
1375.963, 6692.000
1377.026, 6694.000
1378.089, 6701.287
1379.152, 6687.190
1380.214, 6706.000
1381.277, 6656.000
1382.340, 6697.000
1383.402, 6696.000
1384.464, 6662.000
1385.526, 6708.000
1386.588, 6695.000
1387.650, 6666.000
1388.712, 6648.000
1389.774, 6576.000
1390.835, 6710.000
1391.896, 6624.000
1392.958, 6760.000
1394.019, 6655.000
1395.080, 6660.000
1396.141, 6757.000
1397.201, 6608.000
1398.262, 6676.000
1399.323, 6714.000
1400.383, 6699.000
1401.443, 6699.000
1402.503, 6685.000
1403.563, 6881.000
1404.623, 6788.580
1405.683, 6734.000
1406.742, 6627.000
1407.802, 6791.000
1408.861, 6506.000
1409.920, 6710.000
1410.980, 6664.000
1412.039, 6786.000
1413.097, 6562.000
1414.156, 6716.000
1415.215, 6683.000
1416.273, 6785.000
1417.331, 6746.000
1418.390, 6748.311
1419.448, 6695.000
1420.506, 6674.000
1421.564, 6697.000
1422.621, 6579.000
1423.679, 6670.000
1424.736, 6639.000
1425.794, 6753.000
1426.851, 6714.000
1427.908, 6700.000
1428.965, 6692.000
1430.022, 6726.000
1431.079, 6698.000
1432.135, 6694.000
1433.192, 6607.000
1434.248, 6655.000
1435.304, 6729.000
1436.360, 6820.000
1437.416, 6632.000
1438.472, 6713.000
1439.528, 6710.000
1440.583, 6772.000
1441.639, 6800.000
1442.694, 6821.000
1443.749, 6811.000
1444.804, 6791.000
1445.859, 6750.000
1446.914, 6660.000
1447.969, 6698.000
1449.024, 6719.195
1450.078, 6818.000
1451.132, 6772.000
1452.187, 6773.000
1453.241, 6623.000
1454.295, 6780.000
1455.349, 6688.000
1456.402, 6640.000
1457.456, 6809.000
1458.509, 6669.573
1459.563, 6758.000
1460.616, 6716.000
1461.669, 6819.000
1462.722, 6759.707
1463.775, 6760.000
1464.828, 6650.000
1465.880, 6730.000
1466.933, 6671.000
1467.985, 6744.000
1469.037, 6677.000
1470.090, 6722.000
1471.142, 6794.000
1472.193, 6647.000
1473.245, 6636.000
1474.297, 6722.000
1475.348, 6647.000
1476.400, 6713.000
1477.451, 6628.000
1478.502, 6674.000
1479.553, 6598.000
1480.604, 6678.000
1481.655, 6718.000
1482.706, 6692.000
1483.756, 6625.000
1484.807, 6702.000
1485.857, 6728.000
1486.907, 6664.000
1487.957, 6805.000
1489.007, 6717.000
1490.057, 6689.000
1491.106, 6691.000
1492.156, 6706.000
1493.205, 6717.000
1494.255, 6736.000
1495.304, 6656.000
1496.353, 6669.000
1497.402, 6773.000
1498.451, 6662.000
1499.500, 6727.000
1500.548, 6766.000
1501.597, 6707.000
1502.645, 6708.000
1503.693, 6693.353
1504.741, 6686.577
1505.789, 6669.000
1506.837, 6695.000
1507.885, 6718.000
1508.932, 6714.000
1509.980, 6727.634
1511.027, 6739.000
1512.075, 6767.000
1513.122, 6748.000
1514.169, 6844.000
1515.216, 6787.781
1516.262, 6990.000
1517.309, 6772.000
1518.356, 6725.000
1519.402, 6828.000
1520.448, 6758.000
1521.495, 6757.000
1522.541, 6701.000
1523.587, 6730.000
1524.632, 6736.000
1525.678, 6784.000
1526.724, 6788.000
1527.769, 6731.000
1528.814, 6683.000
1529.860, 6773.000
1530.905, 6733.000
1531.950, 6896.000
1532.995, 6736.000
1534.039, 6615.000
1535.084, 6786.000
1536.128, 6886.000
1537.173, 6853.898
1538.217, 6911.026
1539.261, 6817.000
1540.305, 6904.000
1541.349, 6756.000
1542.393, 6816.000
1543.436, 6870.000
1544.480, 6816.000
1545.523, 6800.000
1546.567, 6833.000
1547.610, 6856.000
1548.653, 6825.000
1549.696, 6885.000
1550.739, 6741.000
1551.781, 6947.000
1552.824, 6885.000
1553.867, 7017.000
1554.909, 7172.000
1555.951, 7320.000
1556.993, 7347.000
1558.035, 7063.000
1559.077, 6876.000
1560.119, 6941.000
1561.161, 6967.000
1562.202, 7193.000
1563.243, 6857.000
1564.285, 6854.000
1565.326, 6829.000
##END=



