##NAMES=Diopside
##RRUFFID=R060276
##IDEAL CHEMISTRY=CaMgSi_2_O_6_
##LOCALITY=Inagli, Yakutia, Siberia, Russia
##OWNER=RRUFF
##SOURCE=Herb Obodda
##DESCRIPTION=Transparent green cleavage fragment
##STATUS=The identification of this mineral has been confirmed by X-ray diffraction and chemical analysis
##URL=rruff.info/R060276
##MEASURED CHEMISTRY=(Ca_0.97_Na_0.03_)_Σ=1_(Mg_0.96_Fe_0.03_Cr_0.01_)_Σ=1_(Si_1.98_Al_0.02_)_Σ=2_O_6_
##PIN_ID=L01321
##ORIENTATION=Laser parallel to (1 0 1). Fiducial mark perpendicular to laser is parallel to -b [0 -1 0]
109.5120, 3317.000
110.7440, 3049.000
111.9760, 3010.000
113.2080, 3076.000
114.4400, 3115.000
115.6710, 3168.000
116.9030, 3155.000
118.1340, 3144.000
119.3650, 3209.000
120.5960, 3196.000
121.8270, 3246.000
123.0580, 3317.000
124.2880, 3227.000
125.5190, 3231.000
126.7490, 3295.000
127.9790, 3287.000
129.2090, 3441.000
130.4390, 3527.000
131.6680, 3506.000
132.8980, 3465.000
134.1270, 3594.000
135.3560, 3652.000
136.5850, 3639.000
137.8140, 3753.000
139.0430, 3732.000
140.2710, 3730.000
141.5000, 3797.000
142.7280, 3722.000
143.9560, 3699.000
145.1840, 3607.000
146.4120, 3557.000
147.6390, 3477.000
148.8670, 3403.000
150.0940, 3473.000
151.3210, 3434.000
152.5490, 3516.000
153.7750, 3402.000
155.0020, 3361.000
156.2290, 3481.000
157.4550, 3471.000
158.6810, 3484.000
159.9080, 3432.000
161.1340, 3547.000
162.3590, 3499.000
163.5850, 3563.000
164.8110, 3622.000
166.0360, 3615.000
167.2610, 3705.000
168.4860, 3692.000
169.7110, 3838.000
170.9360, 3954.000
172.1610, 4111.000
173.3850, 4233.000
174.6100, 4247.000
175.8340, 4381.000
177.0580, 4646.000
178.2820, 4774.000
179.5050, 4729.000
180.7290, 4745.000
181.9520, 4886.000
183.1760, 5189.000
184.3990, 5319.000
185.6220, 5048.000
186.8450, 4617.000
188.0670, 4298.000
189.2900, 3967.000
190.5120, 3795.000
191.7340, 3686.000
192.9560, 3739.000
194.1780, 3736.000
195.4000, 3711.000
196.6220, 3705.000
197.8430, 3696.174
199.0640, 3692.000
200.2860, 3677.000
201.5070, 3679.907
202.7270, 3672.822
203.9480, 3674.000
205.1690, 3668.000
206.3890, 3646.000
207.6090, 3644.784
208.8290, 3674.000
210.0490, 3688.000
211.2690, 3755.000
212.4890, 3770.570
213.7080, 3840.000
214.9280, 3821.000
216.1470, 3894.000
217.3660, 3901.000
218.5850, 3948.000
219.8030, 4114.000
221.0220, 4158.000
222.2400, 4351.000
223.4590, 4526.000
224.6770, 4676.000
225.8950, 4694.000
227.1120, 4796.000
228.3300, 4946.000
229.5480, 5060.000
230.7650, 5151.000
231.9820, 5175.000
233.1990, 5252.000
234.4160, 5260.000
235.6330, 5155.000
236.8490, 5062.000
238.0660, 4864.000
239.2820, 4625.000
240.4980, 4562.000
241.7140, 4528.000
242.9300, 4461.000
244.1460, 4433.000
245.3610, 4639.000
246.5770, 4679.000
247.7920, 4787.000
249.0070, 4909.000
250.2220, 4927.000
251.4370, 4946.000
252.6510, 4972.000
253.8660, 5060.000
255.0800, 5246.000
256.2940, 5255.000
257.5080, 5230.000
258.7220, 5227.000
259.9360, 4862.000
261.1490, 4565.000
262.3630, 4321.000
263.5760, 4233.000
264.7890, 4179.000
266.0020, 4151.000
267.2150, 4035.000
268.4270, 4114.000
269.6400, 4081.000
270.8520, 4064.000
272.0640, 4154.000
273.2760, 4079.000
274.4880, 4056.000
275.7000, 4146.000
276.9120, 4078.000
278.1230, 4191.000
279.3340, 4118.000
280.5450, 4202.000
281.7560, 4207.000
282.9670, 4188.000
284.1780, 4258.000
285.3880, 4250.000
286.5980, 4391.000
287.8090, 4389.000
289.0190, 4406.000
290.2290, 4574.000
291.4380, 4574.000
292.6480, 4659.000
293.8570, 4800.000
295.0670, 4942.000
296.2760, 5079.000
297.4850, 5253.437
298.6930, 5342.000
299.9020, 5624.000
301.1110, 5841.000
302.3190, 6065.000
303.5270, 6475.000
304.7350, 6959.000
305.9430, 7451.000
307.1510, 8058.000
308.3580, 8531.000
309.5660, 9466.000
310.7730, 10597.00
311.9800, 12081.00
313.1870, 13897.00
314.3940, 15774.00
315.6010, 17584.00
316.8070, 19477.00
318.0130, 21064.00
319.2200, 22668.15
320.4260, 24487.00
321.6310, 25542.00
322.8370, 26897.00
324.0430, 28130.00
325.2480, 28546.00
326.4540, 28089.00
327.6590, 26167.00
328.8640, 23085.00
330.0680, 19987.00
331.2730, 16882.00
332.4780, 14521.00
333.6820, 12591.00
334.8860, 10976.00
336.0900, 9899.000
337.2940, 9037.000
338.4980, 8469.000
339.7010, 7914.000
340.9050, 7490.000
342.1080, 7375.000
343.3110, 7048.000
344.5140, 6978.000
345.7170, 6726.000
346.9200, 6649.000
348.1220, 6488.000
349.3240, 6588.000
350.5270, 6581.000
351.7290, 6534.000
352.9310, 6448.000
354.1320, 6399.000
355.3340, 6492.000
356.5350, 6453.000
357.7370, 6508.000
358.9380, 6453.000
360.1390, 6445.000
361.3400, 6462.000
362.5400, 6421.000
363.7410, 6450.000
364.9410, 6463.000
366.1410, 6532.000
367.3410, 6652.979
368.5410, 6830.000
369.7410, 6991.000
370.9400, 7209.000
372.1400, 7465.000
373.3390, 7903.000
374.5380, 8333.000
375.7370, 9043.000
376.9360, 10084.00
378.1350, 11312.00
379.3330, 13018.00
380.5310, 15176.00
381.7300, 17250.00
382.9280, 19546.00
384.1260, 21637.00
385.3230, 23619.00
386.5210, 25924.00
387.7180, 27462.00
388.9160, 28876.00
390.1130, 30185.00
391.3100, 31035.00
392.5060, 30603.00
393.7030, 28338.00
394.9000, 25163.00
396.0960, 21247.00
397.2920, 17546.00
398.4880, 14331.00
399.6840, 12031.00
400.8800, 10370.00
402.0750, 9024.000
403.2710, 8241.000
404.4660, 7371.000
405.6610, 6840.000
406.8560, 6621.000
408.0510, 6258.000
409.2450, 5999.000
410.4400, 5728.000
411.6340, 5592.000
412.8280, 5579.000
414.0220, 5549.000
415.2160, 5370.000
416.4100, 5333.000
417.6030, 5300.000
418.7970, 5223.000
419.9900, 5246.000
421.1830, 5150.000
422.3760, 5067.000
423.5690, 5072.000
424.7610, 5023.000
425.9540, 4949.000
427.1460, 4954.000
428.3380, 4944.000
429.5300, 4897.789
430.7220, 4916.000
431.9140, 4850.000
433.1050, 4896.000
434.2970, 4913.000
435.4880, 4941.000
436.6790, 4825.000
437.8700, 4733.000
439.0610, 4807.000
440.2510, 4736.000
441.4420, 4793.000
442.6320, 4745.000
443.8220, 4824.000
445.0120, 4817.000
446.2020, 4751.000
447.3910, 4793.000
448.5810, 4803.000
449.7700, 4834.000
450.9600, 4731.000
452.1490, 4865.000
453.3370, 4885.000
454.5260, 4981.000
455.7150, 4890.000
456.9030, 4963.000
458.0910, 5003.000
459.2800, 4956.000
460.4670, 4963.000
461.6550, 4963.000
462.8430, 5041.000
464.0300, 4935.000
465.2180, 4894.000
466.4050, 4857.000
467.5920, 4956.000
468.7790, 5000.000
469.9650, 4919.000
471.1520, 4883.000
472.3380, 4963.000
473.5250, 4952.000
474.7110, 4878.000
475.8970, 4949.000
477.0820, 4898.000
478.2680, 4909.000
479.4540, 4857.000
480.6390, 4843.000
481.8240, 4825.000
483.0090, 4899.000
484.1940, 4930.000
485.3780, 4879.000
486.5630, 4923.000
487.7470, 4917.000
488.9320, 4874.000
490.1160, 4894.000
491.3000, 4890.000
492.4830, 4872.000
493.6670, 4870.890
494.8500, 4873.319
496.0340, 4877.982
497.2170, 4890.000
498.4000, 4899.000
499.5820, 4915.000
500.7650, 4918.000
501.9480, 4940.840
503.1300, 5021.000
504.3120, 5020.000
505.4940, 4980.000
506.6760, 5093.000
507.8580, 5140.000
509.0390, 5122.000
510.2210, 5188.000
511.4020, 5265.000
512.5830, 5383.000
513.7640, 5331.000
514.9450, 5405.000
516.1250, 5487.000
517.3060, 5716.000
518.4860, 5889.000
519.6660, 6011.000
520.8460, 6161.000
522.0260, 6458.000
523.2060, 6698.000
524.3850, 6986.000
525.5650, 7107.000
526.7440, 7315.000
527.9230, 7492.000
529.1020, 7517.000
530.2810, 7525.624
531.4590, 7428.221
532.6380, 7319.000
533.8160, 7030.000
534.9940, 6806.000
536.1720, 6476.000
537.3500, 6246.000
538.5270, 5962.000
539.7050, 5842.000
540.8820, 5679.000
542.0590, 5585.000
543.2360, 5618.000
544.4130, 5515.000
545.5900, 5417.000
546.7660, 5470.000
547.9430, 5382.000
549.1190, 5451.000
550.2950, 5422.000
551.4710, 5465.000
552.6470, 5518.000
553.8220, 5453.000
554.9980, 5522.000
556.1730, 5575.000
557.3480, 5528.000
558.5230, 5567.000
559.6980, 5496.000
560.8730, 5448.000
562.0470, 5569.000
563.2220, 5462.000
564.3960, 5407.000
565.5700, 5445.000
566.7440, 5382.000
567.9170, 5319.000
569.0910, 5232.000
570.2640, 5245.000
571.4380, 5195.167
572.6110, 5141.000
573.7840, 5184.000
574.9570, 5197.000
576.1290, 5239.000
577.3020, 5202.000
578.4740, 5187.000
579.6460, 5105.000
580.8180, 5137.000
581.9900, 5130.000
583.1620, 5049.000
584.3330, 5109.000
585.5040, 5136.000
586.6760, 5053.000
587.8470, 4991.000
589.0180, 5105.000
590.1880, 5037.000
591.3590, 5004.000
592.5290, 5001.000
593.7000, 4992.000
594.8700, 5043.000
596.0400, 5088.000
597.2090, 4931.000
598.3790, 5071.000
599.5490, 4986.000
600.7180, 4961.000
601.8870, 5121.000
603.0560, 5082.000
604.2250, 5064.000
605.3940, 5151.000
606.5620, 5034.000
607.7300, 5019.000
608.8990, 5115.000
610.0670, 5129.000
611.2350, 5170.000
612.4020, 5112.000
613.5700, 5087.000
614.7370, 5161.000
615.9050, 5144.000
617.0720, 5177.000
618.2390, 5226.000
619.4060, 5309.000
620.5720, 5213.000
621.7390, 5288.000
622.9050, 5293.000
624.0710, 5301.000
625.2370, 5347.000
626.4030, 5301.000
627.5690, 5390.000
628.7340, 5503.000
629.9000, 5389.000
631.0650, 5609.000
632.2300, 5537.000
633.3950, 5620.000
634.5600, 5577.000
635.7240, 5658.000
636.8890, 5678.000
638.0530, 5831.000
639.2170, 5846.000
640.3810, 5926.000
641.5450, 5947.000
642.7080, 6120.000
643.8720, 6256.000
645.0350, 6330.000
646.1980, 6570.000
647.3610, 6705.000
648.5240, 7030.000
649.6870, 7271.000
650.8490, 7665.000
652.0120, 8134.000
653.1740, 8775.000
654.3360, 9540.000
655.4980, 10720.00
656.6600, 11744.00
657.8210, 13290.00
658.9830, 14925.00
660.1440, 16709.00
661.3050, 18136.00
662.4660, 19678.00
663.6270, 20866.00
664.7870, 22001.00
665.9480, 22766.00
667.1080, 22828.00
668.2680, 22291.00
669.4280, 20893.00
670.5880, 19129.00
671.7480, 16795.00
672.9070, 14373.00
674.0670, 12674.00
675.2260, 11077.00
676.3850, 10080.00
677.5440, 9239.000
678.7030, 8473.000
679.8610, 7930.000
681.0200, 7549.000
682.1780, 7223.000
683.3360, 6956.000
684.4940, 6727.000
685.6520, 6498.000
686.8090, 6375.000
687.9670, 6295.000
689.1240, 6130.000
690.2810, 6053.000
691.4380, 6040.000
692.5950, 5903.000
693.7520, 5910.000
694.9080, 5811.000
696.0650, 5742.000
697.2210, 5765.000
698.3770, 5824.000
699.5330, 5723.000
700.6880, 5812.000
701.8440, 5683.000
702.9990, 5652.000
704.1550, 5674.000
705.3100, 5601.000
706.4650, 5686.000
707.6190, 5613.000
708.7740, 5541.000
709.9290, 5583.000
711.0830, 5586.000
712.2370, 5564.000
713.3910, 5515.000
714.5450, 5458.000
715.6980, 5533.000
716.8520, 5472.000
718.0050, 5569.000
719.1580, 5534.000
720.3110, 5488.000
721.4640, 5443.000
722.6170, 5436.000
723.7700, 5479.000
724.9220, 5422.000
726.0740, 5463.000
727.2260, 5534.000
728.3780, 5438.000
729.5300, 5531.000
730.6810, 5457.000
731.8330, 5514.000
732.9840, 5527.000
734.1350, 5523.000
735.2860, 5519.000
736.4370, 5487.000
737.5880, 5488.000
738.7380, 5498.000
739.8880, 5414.000
741.0390, 5502.000
742.1890, 5466.000
743.3380, 5522.000
744.4880, 5502.000
745.6380, 5586.000
746.7870, 5447.000
747.9360, 5510.000
749.0850, 5545.000
750.2340, 5555.000
751.3830, 5576.000
752.5310, 5550.000
753.6800, 5529.000
754.8280, 5582.000
755.9760, 5623.000
757.1240, 5537.000
758.2720, 5633.000
759.4190, 5593.000
760.5670, 5619.000
761.7140, 5586.000
762.8610, 5565.000
764.0080, 5605.000
765.1550, 5615.000
766.3020, 5592.000
767.4480, 5714.000
768.5950, 5783.000
769.7410, 5663.000
770.8870, 5758.000
772.0330, 5688.000
773.1780, 5711.000
774.3240, 5700.000
775.4690, 5659.000
776.6140, 5687.177
777.7590, 5678.964
778.9040, 5715.000
780.0490, 5718.000
781.1940, 5745.000
782.3380, 5800.000
783.4820, 5765.000
784.6260, 5776.000
785.7700, 5675.000
786.9140, 5728.000
788.0580, 5734.000
789.2010, 5789.000
790.3450, 5750.000
791.4880, 5760.000
792.6310, 5806.000
793.7730, 5718.000
794.9160, 5768.000
796.0590, 5775.000
797.2010, 5771.000
798.3430, 5713.000
799.4850, 5752.000
800.6270, 5752.000
801.7690, 5752.000
802.9100, 5756.000
804.0520, 5764.406
805.1930, 5787.000
806.3340, 5778.000
807.4750, 5794.000
808.6160, 5783.425
809.7560, 5766.000
810.8970, 5788.000
812.0370, 5785.000
813.1770, 5786.000
814.3170, 5904.000
815.4570, 5875.000
816.5960, 5786.000
817.7360, 5900.000
818.8750, 5968.000
820.0140, 5836.000
821.1530, 5804.000
822.2920, 5859.000
823.4310, 5885.000
824.5690, 5905.000
825.7070, 5808.000
826.8460, 5895.000
827.9840, 5936.000
829.1220, 5851.000
830.2590, 5926.000
831.3970, 5945.000
832.5340, 5913.000
833.6710, 5873.000
834.8080, 5924.000
835.9450, 5919.000
837.0820, 5956.000
838.2190, 5994.000
839.3550, 5928.000
840.4910, 5979.000
841.6270, 6067.000
842.7630, 6066.000
843.8990, 6170.000
845.0350, 6046.000
846.1700, 6190.000
847.3060, 6244.000
848.4410, 6211.000
849.5760, 6349.000
850.7100, 6335.000
851.8450, 6459.000
852.9800, 6431.000
854.1140, 6550.000
855.2480, 6537.000
856.3820, 6548.000
857.5160, 6585.000
858.6500, 6540.000
859.7830, 6602.000
860.9170, 6585.000
862.0500, 6570.000
863.1830, 6529.000
864.3160, 6467.000
865.4480, 6544.000
866.5810, 6547.000
867.7130, 6475.000
868.8460, 6506.000
869.9780, 6557.000
871.1100, 6616.000
872.2410, 6579.000
873.3730, 6559.000
874.5050, 6497.000
875.6360, 6491.000
876.7670, 6627.000
877.8980, 6714.000
879.0290, 6730.000
880.1590, 6761.899
881.2900, 6745.346
882.4200, 6714.000
883.5500, 6694.000
884.6800, 6692.177
885.8100, 6671.000
886.9400, 6700.000
888.0690, 6718.000
889.1990, 6735.000
890.3280, 6777.000
891.4570, 6754.000
892.5860, 6827.000
893.7140, 6863.000
894.8430, 6749.000
895.9710, 6723.000
897.1000, 6863.000
898.2280, 6747.000
899.3560, 6739.000
900.4830, 6754.000
901.6110, 6789.000
902.7380, 6830.000
903.8660, 6706.000
904.9930, 6752.000
906.1200, 6675.000
907.2460, 6751.000
908.3730, 6739.000
909.5000, 6653.000
910.6260, 6655.000
911.7520, 6729.000
912.8780, 6720.000
914.0040, 6689.000
915.1290, 6647.000
916.2550, 6640.000
917.3800, 6777.000
918.5050, 6630.000
919.6300, 6802.000
920.7550, 6709.000
921.8800, 6715.000
923.0040, 6665.000
924.1290, 6676.004
925.2530, 6737.000
926.3770, 6747.000
927.5010, 6675.000
928.6250, 6752.000
929.7480, 6730.000
930.8720, 6740.000
931.9950, 6783.000
933.1180, 6705.000
934.2410, 6741.000
935.3640, 6756.000
936.4860, 6829.000
937.6090, 6685.000
938.7310, 6778.000
939.8530, 6691.000
940.9750, 6826.000
942.0970, 6673.000
943.2180, 6735.000
944.3400, 6786.000
945.4610, 6775.000
946.5820, 6848.000
947.7030, 6883.000
948.8240, 6896.439
949.9450, 6978.000
951.0650, 6940.000
952.1860, 6947.000
953.3060, 6976.000
954.4260, 6960.000
955.5460, 7030.000
956.6650, 7058.000
957.7850, 7115.000
958.9040, 7151.000
960.0230, 7103.000
961.1420, 7383.000
962.2610, 7220.000
963.3800, 7224.000
964.4990, 7396.000
965.6170, 7342.000
966.7350, 7367.000
967.8530, 7457.000
968.9710, 7528.000
970.0890, 7497.000
971.2070, 7607.000
972.3240, 7648.000
973.4410, 7720.000
974.5580, 7727.000
975.6750, 7780.000
976.7920, 8021.000
977.9090, 8061.000
979.0250, 8122.000
980.1410, 8227.000
981.2580, 8262.000
982.3740, 8404.000
983.4890, 8544.000
984.6050, 8755.000
985.7200, 8703.000
986.8360, 8972.000
987.9510, 9189.000
989.0660, 9359.000
990.1810, 9668.000
991.2950, 9981.000
992.4100, 10354.00
993.5240, 10782.00
994.6390, 11436.00
995.7530, 11977.00
996.8660, 12826.00
997.9800, 13937.00
999.0940, 15263.00
1000.207, 16814.00
1001.320, 18934.00
1002.433, 21180.00
1003.546, 24703.00
1004.659, 29165.00
1005.772, 34487.00
1006.884, 40606.00
1007.996, 46990.00
1009.108, 52687.00
1010.220, 58146.00
1011.332, 61923.00
1012.444, 63708.00
1013.555, 63691.00
1014.666, 60440.00
1015.777, 54453.00
1016.888, 46826.00
1017.999, 38521.00
1019.110, 31158.00
1020.220, 25402.00
1021.331, 21265.00
1022.441, 18214.00
1023.551, 16050.00
1024.661, 14452.00
1025.770, 13201.00
1026.880, 12406.00
1027.989, 11775.00
1029.098, 11098.00
1030.207, 10777.00
1031.316, 10498.00
1032.425, 10250.00
1033.533, 10054.74
1034.642, 9891.000
1035.750, 9778.000
1036.858, 9705.000
1037.966, 9663.059
1039.073, 9738.000
1040.181, 9679.000
1041.288, 9725.000
1042.396, 9808.000
1043.503, 9760.000
1044.610, 9752.000
1045.716, 9627.000
1046.823, 9788.000
1047.929, 9762.000
1049.036, 9601.000
1050.142, 9408.000
1051.248, 9210.000
1052.353, 9138.000
1053.459, 8874.000
1054.564, 8811.000
1055.670, 8678.000
1056.775, 8564.000
1057.880, 8558.000
1058.985, 8461.000
1060.089, 8399.000
1061.194, 8396.000
1062.298, 8269.000
1063.402, 8324.000
1064.506, 8275.000
1065.610, 8244.000
1066.713, 8122.000
1067.817, 8109.000
1068.920, 8089.000
1070.023, 7932.000
1071.126, 8058.000
1072.229, 7985.000
1073.332, 8030.000
1074.435, 7888.000
1075.537, 7869.000
1076.639, 7821.000
1077.741, 7837.000
1078.843, 7906.000
1079.945, 7857.000
1081.046, 7846.000
1082.148, 7766.000
1083.249, 7791.000
1084.350, 7759.000
1085.451, 7742.000
1086.551, 7811.000
1087.652, 7755.000
1088.752, 7721.000
1089.853, 7798.000
1090.953, 7720.000
1092.053, 7663.000
1093.152, 7709.000
1094.252, 7771.000
1095.351, 7689.000
1096.451, 7705.000
1097.550, 7647.000
1098.649, 7664.000
1099.748, 7595.000
1100.846, 7737.000
1101.945, 7707.000
1103.043, 7733.000
1104.141, 7743.000
1105.239, 7607.000
1106.337, 7700.000
1107.434, 7673.000
1108.532, 7678.000
1109.629, 7759.000
1110.726, 7687.000
1111.823, 7682.000
1112.920, 7591.000
1114.017, 7696.000
1115.113, 7688.000
1116.210, 7789.000
1117.306, 7705.000
1118.402, 7768.000
1119.498, 7921.000
1120.593, 7866.000
1121.689, 7824.000
1122.784, 7925.000
1123.879, 7891.000
1124.974, 7815.000
1126.069, 7769.000
1127.164, 7824.000
1128.259, 7813.000
1129.353, 7785.000
1130.447, 7788.000
1131.541, 7836.000
1132.635, 7779.000
1133.729, 7805.000
1134.822, 7905.000
1135.916, 7880.000
1137.009, 7848.000
1138.102, 7802.000
1139.195, 7823.000
1140.288, 7747.000
1141.380, 7849.000
1142.473, 7881.000
1143.565, 7741.000
1144.657, 7799.000
1145.749, 7764.000
1146.841, 7766.000
1147.932, 7694.000
1149.024, 7735.000
1150.115, 7807.000
1151.206, 7783.000
1152.297, 7867.000
1153.388, 7798.000
1154.479, 7698.000
1155.569, 7642.000
1156.659, 7655.000
1157.750, 7615.000
1158.839, 7609.000
1159.929, 7727.000
1161.019, 7674.000
1162.108, 7723.000
1163.198, 7768.000
1164.287, 7724.000
1165.376, 7625.000
1166.465, 7654.000
1167.553, 7565.000
1168.642, 7726.000
1169.730, 7596.000
1170.818, 7726.000
1171.906, 7722.000
1172.994, 7764.000
1174.082, 7650.000
1175.170, 7592.000
1176.257, 7731.000
1177.344, 7658.000
1178.431, 7642.000
1179.518, 7687.000
1180.605, 7811.000
1181.691, 7823.000
1182.778, 7751.000
1183.864, 7689.000
1184.950, 7715.000
1186.036, 7787.000
1187.122, 7838.000
1188.207, 7828.068
1189.292, 7882.945
1190.378, 7806.000
1191.463, 7885.000
1192.548, 7889.000
1193.632, 7782.000
1194.717, 7881.000
1195.801, 7821.000
1196.886, 7866.000
1197.970, 7877.000
1199.054, 7922.000
1200.137, 7932.000
1201.221, 7827.000
1202.305, 7878.000
1203.388, 7960.000
1204.471, 7908.000
1205.554, 7982.000
1206.637, 7885.000
1207.719, 7854.000
1208.802, 7968.000
1209.884, 8022.000
1210.966, 7824.000
1212.048, 7937.000
1213.130, 7973.000
1214.212, 8065.000
1215.293, 8018.000
1216.374, 7989.000
1217.456, 7992.000
1218.536, 7985.026
1219.617, 7960.000
1220.698, 8039.000
1221.778, 8040.000
1222.859, 8123.000
1223.939, 7996.000
1225.019, 8104.000
1226.099, 8144.000
1227.178, 8006.000
1228.258, 8051.000
1229.337, 7987.000
1230.417, 8150.000
1231.496, 8131.000
1232.574, 8210.000
1233.653, 8189.000
1234.732, 8222.000
1235.810, 8241.947
1236.888, 8244.247
1237.966, 8266.000
1239.044, 8277.000
1240.122, 8290.000
1241.199, 8327.000
1242.277, 8298.000
1243.354, 8273.000
1244.431, 8318.000
1245.508, 8297.000
1246.585, 8298.000
1247.661, 8353.000
1248.738, 8334.000
1249.814, 8425.000
1250.890, 8275.000
1251.966, 8449.000
1253.042, 8358.000
1254.117, 8402.000
1255.193, 8293.000
1256.268, 8427.000
1257.343, 8322.000
1258.418, 8415.000
1259.493, 8418.000
1260.567, 8420.000
1261.642, 8431.000
1262.716, 8531.000
1263.790, 8470.000
1264.864, 8401.000
1265.938, 8472.000
1267.011, 8554.000
1268.085, 8518.000
1269.158, 8674.000
1270.231, 8573.000
1271.304, 8613.000
1272.377, 8645.000
1273.450, 8563.000
1274.522, 8551.000
1275.594, 8596.000
1276.666, 8621.000
1277.738, 8616.000
1278.810, 8664.000
1279.882, 8595.000
1280.953, 8633.000
1282.025, 8505.000
1283.096, 8648.000
1284.167, 8561.000
1285.238, 8708.000
1286.308, 8805.000
1287.379, 8721.000
1288.449, 8664.000
1289.519, 8707.612
1290.589, 8684.000
1291.659, 8734.000
1292.729, 8704.000
1293.798, 8730.000
1294.868, 8706.000
1295.937, 8750.000
1297.006, 8791.000
1298.075, 8802.000
1299.143, 8711.000
1300.212, 8804.000
1301.280, 8894.000
1302.348, 8740.000
1303.416, 8806.000
1304.484, 8918.000
1305.552, 8848.000
1306.620, 8897.000
1307.687, 9013.000
1308.754, 8860.000
1309.821, 8891.000
1310.888, 8869.000
1311.955, 8976.000
1313.021, 8936.000
1314.088, 9054.000
1315.154, 8944.000
1316.220, 9091.000
1317.286, 9051.000
1318.352, 8948.000
1319.417, 9047.000
1320.483, 9071.000
1321.548, 9086.000
1322.613, 9050.000
1323.678, 9060.000
1324.743, 9064.001
1325.807, 9037.000
1326.872, 9107.000
1327.936, 9144.000
1329.000, 9221.000
1330.064, 9144.000
1331.128, 9181.000
1332.191, 9189.000
1333.255, 9132.000
1334.318, 9268.000
1335.381, 9274.000
1336.444, 9315.000
1337.507, 9242.000
1338.569, 9331.000
1339.632, 9301.000
1340.694, 9249.000
1341.756, 9358.000
1342.818, 9290.000
1343.880, 9339.000
1344.941, 9362.000
1346.003, 9508.000
1347.064, 9376.000
1348.125, 9460.000
1349.186, 9431.000
1350.247, 9374.000
1351.308, 9429.000
1352.368, 9401.000
1353.428, 9442.000
1354.489, 9519.000
1355.549, 9524.000
1356.608, 9577.992
1357.668, 9534.000
1358.727, 9598.000
1359.787, 9637.000
1360.846, 9534.000
1361.905, 9503.000
1362.964, 9573.000
1364.022, 9567.000
1365.081, 9571.000
1366.139, 9695.000
1367.197, 9638.000
1368.255, 9637.000
1369.313, 9647.000
1370.371, 9723.000
1371.428, 9666.000
1372.486, 9724.000
1373.543, 9704.000
1374.600, 9721.000
1375.657, 9677.000
1376.713, 9700.643
1377.770, 9717.271
1378.826, 9728.000
1379.882, 9775.000
1380.938, 9789.000
1381.994, 9816.000
1383.050, 9854.000
1384.106, 9886.000
1385.161, 9784.000
1386.216, 9776.000
1387.271, 9799.098
1388.326, 9817.000
1389.381, 9900.000
1390.435, 9928.000
1391.490, 9933.970
1392.544, 10015.00
1393.598, 9938.000
1394.652, 9947.000
1395.705, 9969.000
1396.759, 9986.000
1397.812, 10008.85
1398.866, 10095.00
1399.919, 10066.00
1400.972, 10115.00
1402.024, 10159.00
1403.077, 10164.00
1404.129, 10169.90
1405.181, 10114.00
1406.233, 10126.00
1407.285, 10166.00
1408.337, 10119.00
1409.389, 10220.00
1410.440, 10264.00
1411.491, 10138.00
1412.542, 10195.00
1413.593, 10221.00
1414.644, 10296.00
1415.695, 10209.00
1416.745, 10310.00
1417.795, 10207.00
1418.845, 10355.00
1419.895, 10325.00
1420.945, 10326.00
1421.995, 10307.00
1423.044, 10437.00
1424.093, 10400.00
1425.142, 10331.00
1426.191, 10433.00
1427.240, 10299.00
1428.289, 10482.00
1429.337, 10482.00
1430.385, 10438.00
1431.433, 10450.00
1432.481, 10416.00
1433.529, 10506.00
1434.577, 10552.00
1435.624, 10401.00
1436.672, 10485.00
1437.719, 10707.00
1438.766, 10764.00
1439.812, 10598.00
1440.859, 10780.00
1441.905, 10634.00
1442.952, 10641.00
1443.998, 10627.00
1445.044, 10822.00
1446.090, 10816.00
1447.135, 10855.00
1448.181, 10782.00
1449.226, 10891.00
1450.271, 10890.00
1451.316, 10847.00
1452.361, 10791.00
1453.405, 10917.00
1454.450, 10971.00
1455.494, 10988.00
1456.538, 11027.00
1457.582, 11038.00
1458.626, 10972.00
1459.670, 11028.00
1460.713, 11015.00
1461.757, 11042.00
1462.800, 11097.00
1463.843, 11095.00
1464.886, 11080.00
1465.928, 11131.00
1466.971, 10973.00
1468.013, 11060.00
1469.055, 11319.00
1470.097, 11226.00
1471.139, 11325.00
1472.181, 11430.00
1473.222, 11208.00
1474.263, 11345.00
1475.305, 11287.00
1476.346, 11186.00
1477.386, 11202.00
1478.427, 11238.98
1479.468, 11382.00
1480.508, 11395.00
1481.548, 11444.00
1482.588, 11496.00
1483.628, 11454.00
1484.668, 11496.00
1485.707, 11426.00
1486.747, 11465.00
1487.786, 11549.00
1488.825, 11531.00
1489.864, 11470.00
1490.902, 11648.00
1491.941, 11561.00
1492.979, 11510.00
1494.017, 11654.00
1495.055, 11671.00
1496.093, 11706.00
1497.131, 11653.00
1498.168, 11788.00
1499.206, 11652.00
1500.243, 11857.00
1501.280, 11840.00
1502.317, 11783.00
1503.354, 11858.00
1504.390, 11791.00
1505.426, 11930.00
1506.463, 11889.00
1507.499, 11963.00
1508.535, 11993.00
1509.570, 11957.00
1510.606, 11990.00
1511.641, 12113.00
1512.676, 12062.00
1513.711, 12141.00
1514.746, 12069.00
1515.781, 12135.00
1516.816, 12190.00
1517.850, 12192.00
1518.884, 12124.00
1519.918, 12191.00
1520.952, 12266.00
1521.986, 12183.00
1523.019, 12265.00
1524.053, 12324.00
1525.086, 12262.00
1526.119, 12249.00
1527.152, 12345.00
1528.185, 12445.00
1529.217, 12532.00
1530.250, 12466.00
1531.282, 12609.00
1532.314, 12457.00
1533.346, 12486.00
1534.377, 12443.00
1535.409, 12436.00
1536.440, 12533.00
1537.472, 12474.00
1538.503, 12549.00
1539.534, 12597.00
1540.564, 12619.00
1541.595, 12574.00
1542.625, 12692.00
1543.656, 12692.00
1544.686, 12756.00
1545.716, 12694.00
1546.745, 12668.00
1547.775, 12891.00
1548.804, 12653.00
1549.834, 12682.00
1550.863, 12925.00
1551.892, 12894.00
1552.920, 12880.00
1553.949, 13046.00
1554.977, 13049.00
1556.006, 13086.00
1557.034, 13005.00
1558.062, 13058.00
1559.089, 12985.00
1560.117, 12914.00
1561.144, 13089.00
1562.172, 13041.00
1563.199, 13248.00
1564.226, 13238.00
1565.252, 13251.00
1566.279, 13219.00
1567.305, 13318.00
1568.332, 13188.00
1569.358, 13376.00
1570.384, 13379.00
1571.409, 13324.00
1572.435, 13380.00
##END=



