##NAMES=Diopside
##RRUFFID=R060861
##IDEAL CHEMISTRY=CaMgSi_2_O_6_
##LOCALITY=Red Mountain Volcano, NW of Flagstaff, Arizona, USA
##OWNER=RRUFF
##SOURCE=Jennifer Sano
##DESCRIPTION=Worn brown fragment
##STATUS=The identification of this mineral has been confirmed by X-ray diffraction and chemical analysis
##URL=rruff.info/R060861
##MEASURED CHEMISTRY=(Ca_0.72_Fe^2+^_0.23_Na_0.05_)_Σ=1_(Mg_0.80_Al_0.15_Ti_0.03_Fe^3+^_0.02_)_Σ=1_(Si_1.82_Al_0.18_)_Σ=2_O_6_
##PIN_ID=M01653
##ORIENTATION=Laser parallel to -c* (0 0 -1). Fiducial mark perpendicular to laser is parallel to a [1 0 0]
172.2330, 16482.00
173.4670, 16359.00
174.7000, 16567.00
175.9330, 16533.00
177.1660, 16544.00
178.3990, 16778.00
179.6310, 16644.00
180.8640, 16899.00
182.0960, 16882.00
183.3280, 16970.00
184.5600, 17258.00
185.7910, 17151.13
187.0220, 17334.00
188.2540, 17180.00
189.4840, 17339.00
190.7150, 17527.00
191.9460, 17629.00
193.1760, 17847.00
194.4060, 17976.00
195.6360, 18028.00
196.8660, 17922.00
198.0960, 17616.00
199.3250, 17520.00
200.5540, 17855.00
201.7830, 17519.00
203.0120, 17548.00
204.2400, 17378.00
205.4690, 17026.00
206.6970, 16791.00
207.9250, 16676.00
209.1530, 16796.00
210.3800, 16798.00
211.6080, 16981.00
212.8350, 17115.00
214.0620, 17460.00
215.2880, 17538.00
216.5150, 17739.00
217.7410, 17895.89
218.9680, 17959.00
220.1940, 18106.00
221.4190, 18318.00
222.6450, 18352.00
223.8700, 18524.10
225.0960, 18504.00
226.3210, 18672.00
227.5450, 18599.00
228.7700, 18447.00
229.9940, 18589.00
231.2190, 18274.00
232.4430, 18220.00
233.6660, 18066.00
234.8900, 17917.00
236.1140, 17741.00
237.3370, 17766.00
238.5600, 17454.00
239.7830, 17487.00
241.0050, 17497.00
242.2280, 17319.00
243.4500, 17275.00
244.6720, 17140.00
245.8940, 17091.00
247.1160, 16977.00
248.3370, 17131.00
249.5580, 16889.00
250.7790, 17071.00
252.0000, 16972.00
253.2210, 16964.00
254.4410, 16823.00
255.6620, 16749.00
256.8820, 16728.00
258.1020, 16814.00
259.3210, 16779.83
260.5410, 16620.99
261.7600, 16764.00
262.9790, 16271.00
264.1980, 16094.00
265.4170, 16022.00
266.6360, 15817.00
267.8540, 15878.00
269.0720, 15962.00
270.2900, 15660.00
271.5080, 15785.00
272.7260, 15760.96
273.9430, 16042.00
275.1600, 15869.00
276.3770, 15922.00
277.5940, 16035.00
278.8100, 16154.00
280.0270, 16118.00
281.2430, 16358.00
282.4590, 16365.00
283.6750, 16396.00
284.8910, 16636.00
286.1060, 16817.00
287.3210, 16820.00
288.5360, 17168.00
289.7510, 17501.00
290.9660, 17733.00
292.1800, 17907.00
293.3950, 18086.00
294.6090, 18396.00
295.8230, 18534.00
297.0360, 19141.00
298.2500, 19444.00
299.4630, 19867.00
300.6760, 20139.00
301.8890, 20591.00
303.1020, 21144.00
304.3150, 21738.00
305.5270, 22224.69
306.7390, 22692.00
307.9510, 23265.00
309.1630, 23967.00
310.3750, 24472.00
311.5860, 25255.00
312.7970, 26071.00
314.0080, 26794.00
315.2190, 27557.00
316.4300, 28506.00
317.6400, 29507.00
318.8510, 30266.00
320.0610, 31357.00
321.2710, 32112.68
322.4800, 32869.00
323.6900, 33725.00
324.8990, 34352.00
326.1080, 35181.00
327.3170, 35533.00
328.5260, 36008.00
329.7340, 36419.00
330.9430, 36611.00
332.1510, 36553.00
333.3590, 36666.00
334.5670, 36155.00
335.7740, 35760.00
336.9820, 35355.00
338.1890, 34822.00
339.3960, 34277.00
340.6030, 33757.00
341.8100, 33018.00
343.0160, 32297.00
344.2220, 31543.00
345.4280, 30916.00
346.6340, 30451.00
347.8400, 29770.00
349.0460, 29353.81
350.2510, 28963.42
351.4560, 28543.00
352.6610, 28293.00
353.8660, 28034.00
355.0700, 27672.00
356.2750, 27466.18
357.4790, 27269.38
358.6830, 27111.00
359.8870, 26888.00
361.0910, 26980.00
362.2940, 26646.00
363.4970, 26527.00
364.7000, 26710.00
365.9030, 26134.00
367.1060, 26335.00
368.3080, 26315.00
369.5110, 26397.00
370.7130, 26580.00
371.9150, 26666.00
373.1170, 27022.00
374.3180, 27257.00
375.5200, 27657.00
376.7210, 28113.00
377.9220, 28657.08
379.1230, 29308.00
380.3230, 30089.00
381.5240, 31075.00
382.7240, 32154.00
383.9240, 33005.00
385.1240, 34103.00
386.3240, 35503.00
387.5230, 36764.00
388.7230, 38199.00
389.9220, 39323.00
391.1210, 40487.00
392.3200, 41381.00
393.5180, 41935.00
394.7170, 42476.00
395.9150, 42548.00
397.1130, 41856.00
398.3110, 40888.00
399.5080, 39769.00
400.7060, 38022.00
401.9030, 36311.00
403.1000, 34335.00
404.2970, 32305.00
405.4940, 30577.00
406.6910, 28667.00
407.8870, 26858.00
409.0830, 25556.00
410.2790, 23816.00
411.4750, 22831.00
412.6710, 21642.00
413.8660, 20732.00
415.0610, 19919.00
416.2560, 19046.00
417.4510, 18609.00
418.6460, 18085.00
419.8410, 17687.00
421.0350, 17329.00
422.2290, 17129.00
423.4230, 16960.00
424.6170, 16434.00
425.8100, 16334.00
427.0040, 15933.00
428.1970, 15879.00
429.3900, 15921.00
430.5830, 15694.00
431.7760, 15477.00
432.9680, 15357.00
434.1610, 15157.00
435.3530, 15141.00
436.5450, 15149.00
437.7360, 14951.00
438.9280, 14929.63
440.1190, 14753.30
441.3110, 14768.00
442.5020, 14477.00
443.6930, 14433.00
444.8830, 14472.00
446.0740, 14602.00
447.2640, 14407.00
448.4540, 14465.00
449.6440, 14283.00
450.8340, 14156.00
452.0240, 14315.00
453.2130, 14199.00
454.4020, 14156.00
455.5910, 14094.00
456.7800, 14069.00
457.9690, 14189.00
459.1570, 14205.00
460.3460, 14270.00
461.5340, 14088.00
462.7220, 14257.00
463.9090, 14173.00
465.0970, 14233.00
466.2840, 14240.00
467.4720, 14354.00
468.6590, 14252.00
469.8460, 14241.00
471.0320, 14181.00
472.2190, 14255.00
473.4050, 14284.00
474.5910, 14129.00
475.7770, 14300.00
476.9630, 13977.00
478.1490, 14136.00
479.3340, 14302.00
480.5190, 14100.00
481.7040, 14252.00
482.8890, 14180.00
484.0740, 14183.00
485.2580, 14173.00
486.4430, 14168.00
487.6270, 14213.00
488.8110, 14248.00
489.9950, 14199.00
491.1780, 14313.00
492.3620, 14237.00
493.5450, 14442.00
494.7280, 14374.00
495.9110, 14489.00
497.0940, 14463.00
498.2760, 14518.00
499.4590, 14661.00
500.6410, 14577.00
501.8230, 14708.00
503.0050, 14757.00
504.1860, 14872.00
505.3680, 15077.00
506.5490, 15276.00
507.7300, 15344.00
508.9110, 15743.00
510.0920, 16092.00
511.2730, 16148.00
512.4530, 16356.00
513.6330, 16476.59
514.8130, 16575.54
515.9930, 16615.00
517.1730, 16780.00
518.3520, 16778.00
519.5320, 16866.00
520.7110, 17041.00
521.8900, 16920.00
523.0690, 17150.00
524.2470, 17251.00
525.4260, 17272.00
526.6040, 17384.00
527.7820, 17465.00
528.9600, 17558.00
530.1380, 17548.75
531.3150, 17557.97
532.4930, 17489.00
533.6700, 17475.00
534.8470, 17432.00
536.0240, 17363.00
537.2000, 17408.00
538.3770, 17166.00
539.5530, 17095.00
540.7290, 17058.00
541.9050, 16856.00
543.0810, 16919.00
544.2570, 16639.00
545.4320, 16683.00
546.6080, 16529.00
547.7830, 16435.00
548.9580, 16495.00
550.1320, 16342.00
551.3070, 16198.00
552.4810, 16207.00
553.6550, 16168.00
554.8300, 16262.00
556.0030, 16079.00
557.1770, 16083.00
558.3510, 15869.00
559.5240, 15836.00
560.6970, 15681.00
561.8700, 15676.00
563.0430, 15632.00
564.2160, 15583.00
565.3880, 15503.96
566.5600, 15206.00
567.7320, 15272.00
568.9040, 14991.00
570.0760, 14784.00
571.2480, 14748.00
572.4190, 14608.00
573.5900, 14609.00
574.7610, 14338.00
575.9320, 14230.00
577.1030, 14166.00
578.2740, 13983.00
579.4440, 13730.00
580.6140, 13683.00
581.7840, 13478.00
582.9540, 13319.00
584.1240, 13193.00
585.2930, 13017.66
586.4630, 12861.00
587.6320, 12749.00
588.8010, 12573.00
589.9700, 12503.00
591.1380, 12145.00
592.3070, 12095.00
593.4750, 12097.00
594.6430, 11798.00
595.8110, 11702.00
596.9790, 11666.00
598.1460, 11608.00
599.3140, 11426.00
600.4810, 11339.00
601.6480, 11245.00
602.8150, 11241.00
603.9820, 11116.00
605.1480, 11259.00
606.3150, 11312.00
607.4810, 11251.00
608.6470, 11291.00
609.8130, 11392.00
610.9790, 11318.00
612.1440, 11385.00
613.3100, 11508.00
614.4750, 11530.00
615.6400, 11698.00
616.8050, 11571.00
617.9690, 11688.00
619.1340, 11862.00
620.2980, 12051.00
621.4620, 12120.00
622.6260, 12423.00
623.7900, 12422.00
624.9540, 12763.00
626.1170, 12846.00
627.2810, 13273.00
628.4440, 13384.00
629.6070, 13520.00
630.7690, 13954.00
631.9320, 14235.00
633.0950, 14672.00
634.2570, 14837.00
635.4190, 14955.00
636.5810, 15271.00
637.7430, 15360.00
638.9040, 15656.00
640.0660, 15573.00
641.2270, 15892.00
642.3880, 15960.00
643.5490, 16239.00
644.7100, 16444.00
645.8700, 16835.00
647.0310, 16953.00
648.1910, 17556.00
649.3510, 17969.00
650.5110, 18712.00
651.6710, 19437.00
652.8300, 20488.00
653.9900, 21604.00
655.1490, 22716.00
656.3080, 23941.00
657.4670, 25352.00
658.6250, 27262.00
659.7840, 29039.00
660.9420, 30729.00
662.1010, 32489.00
663.2590, 34057.00
664.4170, 35891.00
665.5740, 36877.00
666.7320, 37256.00
667.8890, 37509.00
669.0460, 36637.00
670.2030, 35751.00
671.3600, 34090.00
672.5170, 32426.00
673.6740, 30878.00
674.8300, 29259.00
675.9860, 27559.00
677.1420, 26098.83
678.2980, 24374.00
679.4540, 23172.00
680.6090, 21936.00
681.7650, 20624.00
682.9200, 19959.00
684.0750, 19013.00
685.2300, 18437.00
686.3840, 17855.00
687.5390, 17077.00
688.6930, 16692.00
689.8470, 16141.00
691.0010, 15871.00
692.1550, 15455.00
693.3090, 15236.00
694.4620, 15033.00
695.6160, 14811.00
696.7690, 14460.00
697.9220, 14414.00
699.0750, 14197.00
700.2280, 13959.00
701.3800, 13874.00
702.5320, 13683.00
703.6850, 13584.00
704.8370, 13580.00
705.9880, 13329.00
707.1400, 13312.00
708.2920, 13290.00
709.4430, 13115.00
710.5940, 12967.00
711.7450, 12991.00
712.8960, 12878.00
714.0470, 12722.00
715.1970, 12646.00
716.3480, 12550.00
717.4980, 12502.00
718.6480, 12387.00
719.7980, 12316.00
720.9470, 12300.00
722.0970, 12129.00
723.2460, 12057.00
724.3960, 11957.00
725.5450, 11986.00
726.6940, 11972.00
727.8420, 11738.00
728.9910, 11742.00
730.1390, 11617.00
731.2870, 11744.00
732.4350, 11444.00
733.5830, 11500.00
734.7310, 11519.00
735.8790, 11445.00
737.0260, 11430.00
738.1730, 11444.00
739.3200, 11505.00
740.4670, 11482.00
741.6140, 11546.00
742.7610, 11520.00
743.9070, 11577.00
745.0530, 11519.00
746.1990, 11552.59
747.3450, 11570.46
748.4910, 11608.00
749.6370, 11648.00
750.7820, 11729.00
751.9270, 11840.00
753.0720, 11777.00
754.2170, 11958.00
755.3620, 11908.00
756.5070, 12035.00
757.6510, 12096.00
758.7950, 12111.67
759.9400, 12181.00
761.0840, 12202.00
762.2270, 12395.00
763.3710, 12492.00
764.5140, 12549.89
765.6580, 12447.00
766.8010, 12652.00
767.9440, 12696.00
769.0870, 12696.00
770.2290, 12821.00
771.3720, 12806.15
772.5140, 12776.00
773.6560, 12902.00
774.7990, 12792.00
775.9400, 12971.00
777.0820, 12750.00
778.2240, 13104.00
779.3650, 13019.00
780.5060, 13058.00
781.6470, 12923.00
782.7880, 13115.00
783.9290, 13117.00
785.0690, 12867.00
786.2100, 13050.00
787.3500, 12971.00
788.4900, 13192.00
789.6300, 13165.00
790.7700, 13121.00
791.9090, 13156.00
793.0490, 13259.00
794.1880, 13098.00
795.3270, 13309.00
796.4660, 13256.00
797.6050, 13184.00
798.7440, 13460.00
799.8820, 13309.00
801.0200, 13488.00
802.1590, 13716.00
803.2970, 13486.00
804.4340, 13662.00
805.5720, 13766.00
806.7100, 13680.00
807.8470, 13855.00
808.9840, 13869.00
810.1210, 13871.00
811.2580, 14088.00
812.3950, 13957.00
813.5310, 14052.00
814.6680, 14066.00
815.8040, 14290.00
816.9400, 14360.00
818.0760, 14578.00
819.2120, 14472.00
820.3470, 14288.00
821.4830, 14553.00
822.6180, 14318.00
823.7530, 14397.00
824.8880, 14475.00
826.0230, 14475.00
827.1580, 14306.00
828.2920, 14369.00
829.4270, 14267.00
830.5610, 14516.00
831.6950, 14376.00
832.8290, 14413.00
833.9620, 14276.00
835.0960, 14306.00
836.2290, 14324.00
837.3620, 14363.00
838.4950, 14370.22
839.6280, 14368.73
840.7610, 14411.00
841.8940, 14412.27
843.0260, 14417.00
844.1580, 14438.18
845.2910, 14423.85
846.4230, 14426.00
847.5540, 14441.00
848.6860, 14465.00
849.8170, 14512.00
850.9490, 14472.00
852.0800, 14643.00
853.2110, 14622.00
854.3420, 14824.00
855.4730, 15042.00
856.6030, 14951.00
857.7340, 15080.00
858.8640, 15100.00
859.9940, 15337.00
861.1240, 15320.00
862.2540, 15318.00
863.3830, 15421.00
864.5130, 15424.00
865.6420, 15425.00
866.7710, 15531.00
867.9000, 15551.00
869.0290, 15507.00
870.1570, 15605.00
871.2860, 15438.00
872.4140, 15563.96
873.5430, 15566.54
874.6710, 15701.00
875.7980, 15607.00
876.9260, 15617.00
878.0540, 15532.00
879.1810, 15545.00
880.3080, 15758.00
881.4360, 15473.00
882.5630, 15615.00
883.6890, 15835.00
884.8160, 15660.00
885.9420, 15995.00
887.0690, 15626.00
888.1950, 15712.00
889.3210, 15669.00
890.4470, 15859.00
891.5730, 15583.00
892.6980, 15702.00
893.8240, 15672.00
894.9490, 15723.00
896.0740, 15813.00
897.1990, 15664.00
898.3240, 15666.00
899.4480, 15805.00
900.5730, 15618.00
901.6970, 15612.00
902.8210, 15788.00
903.9450, 15793.00
905.0690, 15667.00
906.1930, 15823.00
907.3160, 15652.00
908.4400, 15962.00
909.5630, 15559.00
910.6860, 15891.00
911.8090, 15780.00
912.9320, 15928.00
914.0550, 15866.00
915.1770, 15953.00
916.2990, 16101.00
917.4210, 16026.00
918.5440, 16008.00
919.6650, 16208.00
920.7870, 16262.00
921.9090, 16180.00
923.0300, 16148.00
924.1510, 16407.00
925.2720, 16342.00
926.3930, 16593.00
927.5140, 16463.00
928.6350, 16529.00
929.7550, 16633.00
930.8760, 16439.00
931.9960, 16622.00
933.1160, 16610.00
934.2360, 16751.00
935.3550, 16673.00
936.4750, 16746.00
937.5940, 16747.00
938.7140, 16770.00
939.8330, 16780.00
940.9520, 16830.05
942.0710, 16893.94
943.1890, 16980.00
944.3080, 17081.00
945.4260, 17241.00
946.5440, 17394.00
947.6620, 17374.00
948.7800, 17464.00
949.8980, 17490.00
951.0160, 17567.00
952.1330, 18024.00
953.2500, 18260.00
954.3680, 18442.00
955.4850, 18755.00
956.6010, 18856.00
957.7180, 19079.00
958.8350, 19217.00
959.9510, 19500.00
961.0670, 19848.00
962.1830, 19813.00
963.2990, 20321.00
964.4150, 20511.00
965.5310, 20919.00
966.6460, 21158.00
967.7620, 21576.00
968.8770, 21995.00
969.9920, 22289.00
971.1070, 22613.00
972.2210, 23112.00
973.3360, 23433.00
974.4500, 23849.00
975.5650, 24455.00
976.6790, 25124.00
977.7930, 25693.00
978.9070, 26187.00
980.0200, 26961.00
981.1340, 27491.00
982.2470, 28194.00
983.3610, 29006.00
984.4740, 30140.00
985.5870, 30769.00
986.6990, 32174.00
987.8120, 33166.00
988.9250, 34124.00
990.0370, 35374.00
991.1490, 36834.00
992.2610, 38185.00
993.3730, 39907.00
994.4850, 41813.00
995.5960, 43324.41
996.7080, 45117.00
997.8190, 46808.00
998.9300, 48161.00
1000.041, 50155.00
1001.152, 51821.00
1002.263, 53206.00
1003.373, 54385.80
1004.484, 55184.00
1005.594, 55795.00
1006.704, 55675.00
1007.814, 55435.00
1008.924, 54720.00
1010.034, 53331.00
1011.143, 52257.00
1012.253, 50126.00
1013.362, 48101.00
1014.471, 45325.00
1015.580, 42996.00
1016.689, 40778.00
1017.797, 38769.00
1018.906, 36401.00
1020.014, 34406.00
1021.122, 32966.00
1022.230, 31271.71
1023.338, 30364.00
1024.446, 28878.00
1025.554, 27796.00
1026.661, 27175.00
1027.768, 26545.00
1028.875, 25686.00
1029.983, 25320.02
1031.089, 24999.04
1032.196, 24634.59
1033.303, 24229.45
1034.409, 23661.92
1035.515, 23304.53
1036.622, 22862.57
1037.728, 22403.00
1038.833, 22175.00
1039.939, 21943.00
1041.045, 21591.00
1042.150, 21318.00
1043.255, 21031.15
1044.360, 20722.00
1045.465, 20434.00
1046.570, 20062.00
1047.675, 19717.00
1048.779, 19410.30
1049.884, 19097.00
1050.988, 18785.00
1052.092, 18474.00
1053.196, 18178.00
1054.300, 17925.00
1055.404, 17826.00
1056.507, 17536.00
1057.610, 17339.00
1058.714, 17036.00
1059.817, 16784.00
1060.920, 16643.00
1062.022, 16422.00
1063.125, 16135.00
1064.228, 15843.00
1065.330, 15845.00
1066.432, 15760.00
1067.534, 15527.00
1068.636, 15290.00
1069.738, 15295.00
1070.840, 15208.00
1071.941, 15128.00
1073.042, 14853.00
1074.144, 14726.00
1075.245, 14594.00
1076.346, 14628.00
1077.446, 14562.00
1078.547, 14474.00
1079.647, 14323.00
1080.748, 14236.00
1081.848, 14502.00
1082.948, 14666.00
1084.048, 15010.00
1085.148, 15093.00
1086.247, 14879.00
1087.347, 14267.00
1088.446, 13862.00
1089.545, 13891.00
1090.644, 13643.00
1091.743, 13861.00
1092.842, 13572.00
1093.940, 13373.00
1095.039, 13280.00
1096.137, 13262.00
1097.235, 13277.00
1098.333, 13228.00
1099.431, 13057.00
1100.529, 13054.00
1101.627, 13050.00
1102.724, 13078.00
1103.822, 13040.00
1104.919, 13016.53
1106.016, 12918.00
1107.113, 12933.00
1108.209, 12822.00
1109.306, 12783.00
1110.402, 12792.00
1111.499, 12753.00
1112.595, 12794.00
1113.691, 12863.00
1114.787, 13015.00
1115.883, 13184.00
1116.978, 13177.00
1118.074, 13594.00
1119.169, 13878.00
1120.264, 13799.00
1121.359, 13904.00
1122.454, 13651.00
1123.549, 13508.00
1124.644, 13234.00
1125.738, 13018.00
1126.832, 12346.00
1127.927, 12067.00
1129.021, 11819.00
1130.115, 11480.00
1131.208, 11311.00
1132.302, 11115.00
1133.396, 11051.00
1134.489, 10891.00
1135.582, 10757.00
1136.675, 10652.00
1137.768, 10542.99
1138.861, 10442.01
1139.954, 10405.00
1141.046, 10298.00
1142.138, 10302.00
1143.231, 10192.13
1144.323, 10154.00
1145.415, 10020.00
1146.507, 9895.000
1147.598, 9833.676
1148.690, 9913.000
1149.781, 9797.000
1150.872, 9793.000
1151.964, 9855.000
1153.054, 9790.000
1154.145, 9769.000
1155.236, 9688.000
1156.327, 9648.000
1157.417, 9619.000
1158.507, 9594.999
1159.597, 9572.000
1160.687, 9573.000
1161.777, 9521.000
1162.867, 9477.000
1163.956, 9501.000
1165.046, 9520.000
1166.135, 9627.000
1167.224, 9429.000
1168.313, 9583.000
1169.402, 9501.000
1170.491, 9434.000
1171.580, 9404.000
1172.668, 9373.000
1173.756, 9268.000
1174.845, 9443.000
1175.933, 9447.000
1177.020, 9397.000
1178.108, 9359.000
1179.196, 9410.000
1180.283, 9540.000
1181.371, 9471.000
1182.458, 9377.000
1183.545, 9381.157
1184.632, 9280.000
1185.719, 9306.000
1186.805, 9271.000
1187.892, 9341.000
1188.978, 9407.000
1190.065, 9391.000
1191.151, 9414.579
1192.237, 9302.000
1193.323, 9394.000
1194.408, 9294.000
1195.494, 9290.000
1196.579, 9386.000
1197.664, 9243.000
1198.750, 9261.000
1199.835, 9344.000
1200.919, 9316.000
1202.004, 9344.000
1203.089, 9311.000
1204.173, 9324.000
1205.258, 9395.000
1206.342, 9365.000
1207.426, 9378.000
1208.510, 9399.000
1209.594, 9377.000
1210.677, 9291.000
1211.761, 9397.000
1212.844, 9337.000
1213.927, 9496.000
1215.010, 9381.000
1216.093, 9348.000
1217.176, 9397.000
1218.259, 9432.000
1219.341, 9346.000
1220.424, 9397.000
1221.506, 9434.000
1222.588, 9612.000
1223.670, 9417.000
1224.752, 9628.000
1225.834, 9496.000
1226.915, 9366.000
1227.997, 9316.000
1229.078, 9448.000
1230.159, 9458.000
1231.240, 9565.000
1232.321, 9473.000
1233.402, 9512.000
1234.483, 9476.000
1235.563, 9520.000
1236.644, 9405.000
1237.724, 9375.000
1238.804, 9500.000
1239.884, 9383.000
1240.964, 9458.000
1242.044, 9418.000
1243.123, 9436.000
1244.203, 9346.000
1245.282, 9379.000
1246.361, 9468.000
1247.440, 9344.000
1248.519, 9554.000
1249.598, 9514.000
1250.676, 9492.000
1251.755, 9476.000
1252.833, 9399.000
1253.911, 9429.000
1254.989, 9393.000
1256.067, 9432.000
1257.145, 9401.000
1258.223, 9370.480
1259.300, 9429.000
1260.378, 9337.000
1261.455, 9382.000
1262.532, 9473.000
1263.609, 9440.000
1264.686, 9458.000
1265.763, 9470.000
1266.840, 9335.000
1267.916, 9501.000
1268.992, 9404.000
1270.069, 9376.000
1271.145, 9471.000
1272.221, 9400.000
1273.296, 9516.000
1274.372, 9536.000
1275.448, 9416.000
1276.523, 9486.000
1277.598, 9441.000
1278.673, 9562.000
1279.749, 9440.000
1280.823, 9448.000
1281.898, 9501.000
1282.973, 9493.000
1284.047, 9565.000
1285.122, 9465.000
1286.196, 9543.000
1287.270, 9577.000
1288.344, 9574.000
1289.418, 9617.000
1290.491, 9687.000
1291.565, 9582.000
1292.638, 9626.000
1293.712, 9678.000
1294.785, 9762.000
1295.858, 9747.917
1296.931, 9580.000
1298.003, 9695.000
1299.076, 9732.000
1300.149, 9630.000
1301.221, 9738.000
1302.293, 9733.000
1303.365, 9616.000
1304.437, 9584.000
1305.509, 9589.000
1306.581, 9584.591
1307.652, 9587.000
1308.724, 9676.000
1309.795, 9689.000
1310.866, 9752.000
1311.937, 9645.000
1313.008, 9791.000
1314.079, 9675.000
1315.150, 9692.000
1316.220, 9690.000
1317.291, 9715.000
1318.361, 9762.000
1319.431, 9733.000
1320.501, 9812.000
1321.571, 9823.000
1322.641, 9693.000
1323.710, 9849.000
1324.780, 9727.000
1325.849, 9879.000
1326.918, 9687.000
1327.987, 9863.000
1329.056, 9773.000
1330.125, 9728.000
1331.194, 9888.000
1332.263, 9749.000
1333.331, 9868.000
1334.399, 9887.000
1335.467, 9836.000
1336.535, 9811.000
1337.603, 9896.000
1338.671, 9953.000
1339.739, 9816.000
1340.806, 9779.000
1341.874, 9854.000
1342.941, 9852.000
1344.008, 9938.000
1345.075, 9864.000
1346.142, 9888.000
1347.209, 9850.000
1348.275, 9851.000
1349.342, 9894.000
1350.408, 9849.000
1351.475, 9864.000
1352.541, 9866.000
1353.607, 9826.000
1354.673, 9946.000
1355.738, 9813.000
1356.804, 9775.000
1357.869, 9882.000
1358.935, 9850.000
1360.000, 9796.000
1361.065, 9861.000
1362.130, 9878.000
1363.195, 9835.596
1364.259, 9848.627
1365.324, 9754.000
1366.388, 9821.000
1367.453, 9760.000
1368.517, 9793.000
1369.581, 9792.000
1370.645, 9809.000
1371.709, 9828.000
1372.772, 9822.000
1373.836, 9827.000
1374.899, 9726.000
1375.963, 9785.000
1377.026, 9755.324
1378.089, 9836.000
1379.152, 9763.000
1380.214, 9761.000
1381.277, 9767.000
1382.340, 9752.646
1383.402, 9744.303
1384.464, 9777.000
1385.526, 9747.000
1386.588, 9762.000
1387.650, 9836.000
1388.712, 9724.000
1389.774, 9764.000
1390.835, 9664.000
1391.896, 9701.000
1392.958, 9675.000
1394.019, 9670.000
1395.080, 9788.000
1396.141, 9775.000
1397.201, 9849.000
1398.262, 9663.000
1399.323, 9746.000
1400.383, 9762.000
1401.443, 9729.000
1402.503, 9765.000
1403.563, 9593.000
1404.623, 9700.000
1405.683, 9701.000
1406.742, 9818.000
1407.802, 9811.000
1408.861, 9812.138
1409.920, 9795.000
1410.980, 9791.000
1412.039, 9774.055
1413.097, 9771.354
1414.156, 9743.000
1415.215, 9769.000
1416.273, 9768.409
1417.331, 9775.000
1418.390, 9754.000
1419.448, 9749.000
1420.506, 9715.000
1421.564, 9735.000
1422.621, 9666.000
1423.679, 9740.493
1424.736, 9716.000
1425.794, 9897.000
1426.851, 9753.000
1427.908, 9864.000
1428.965, 9840.000
1430.022, 9909.000
1431.079, 9842.000
1432.135, 9935.000
1433.192, 9909.000
1434.248, 10057.00
1435.304, 10077.00
1436.360, 10063.00
1437.416, 10023.00
1438.472, 10034.00
1439.528, 10054.00
1440.583, 10101.00
1441.639, 9979.000
1442.694, 10064.00
1443.749, 9989.000
1444.804, 10019.00
1445.859, 9991.000
1446.914, 9994.000
1447.969, 9994.821
1449.024, 9987.263
1450.078, 9993.000
1451.132, 10005.00
1452.187, 10016.00
1453.241, 10061.00
1454.295, 10062.00
1455.349, 9947.000
1456.402, 9932.000
1457.456, 9972.000
1458.509, 10013.00
1459.563, 9983.000
1460.616, 10028.00
1461.669, 9975.000
1462.722, 9967.000
1463.775, 9860.000
1464.828, 9939.000
1465.880, 9945.000
1466.933, 9858.000
1467.985, 9861.000
1469.037, 9868.000
1470.090, 9940.000
1471.142, 9965.000
1472.193, 9758.000
1473.245, 9823.000
1474.297, 9778.000
1475.348, 9738.000
1476.400, 9803.000
1477.451, 9721.000
1478.502, 9851.000
1479.553, 9712.000
1480.604, 9803.000
1481.655, 9811.000
1482.706, 9891.000
1483.756, 9837.000
1484.807, 9934.000
1485.857, 9726.000
1486.907, 9778.000
1487.957, 9768.000
1489.007, 9805.000
1490.057, 9698.000
1491.106, 9665.000
1492.156, 9740.000
1493.205, 9777.000
1494.255, 9786.000
1495.304, 9777.000
1496.353, 9726.000
1497.402, 9656.000
1498.451, 9639.000
1499.500, 9642.268
1500.548, 9649.000
1501.597, 9680.000
1502.645, 9742.000
1503.693, 9734.130
1504.741, 9899.000
1505.789, 9816.000
1506.837, 9777.000
1507.885, 9805.000
1508.932, 9651.000
1509.980, 9771.000
1511.027, 9681.000
1512.075, 9704.000
1513.122, 9824.000
1514.169, 9833.000
1515.216, 9803.000
1516.262, 9724.000
1517.309, 9899.000
1518.356, 9794.000
1519.402, 9768.000
1520.448, 9841.000
1521.495, 9808.000
1522.541, 9878.000
1523.587, 9872.000
1524.632, 9783.000
1525.678, 9875.000
1526.724, 9891.000
1527.769, 9836.000
1528.814, 9823.000
1529.860, 9846.000
1530.905, 10019.00
1531.950, 9994.000
1532.995, 10081.00
1534.039, 9882.000
1535.084, 9932.000
1536.128, 9819.000
1537.173, 9864.000
1538.217, 9838.000
1539.261, 9828.846
1540.305, 9839.000
1541.349, 9826.000
1542.393, 9955.000
1543.436, 9815.769
1544.480, 9919.488
1545.523, 9980.161
1546.567, 10000.11
1547.610, 9857.341
1548.653, 9924.683
1549.696, 9907.822
1550.739, 9887.508
1551.781, 9984.417
1552.824, 9865.313
1553.867, 9960.369
1554.909, 9969.932
1555.951, 10018.62
1556.993, 9982.584
1558.035, 9972.717
1559.077, 10047.60
1560.119, 10075.56
1561.161, 10029.77
1562.202, 9998.000
1563.243, 9924.000
1564.285, 10153.00
1565.326, 10163.00
##END=



