##NAMES=Diopside
##RRUFFID=R050496
##IDEAL CHEMISTRY=CaMgSi_2_O_6_
##LOCALITY=New City Quarry, Riverside, Riverside County, Calfornia, USA
##OWNER=RRUFF
##SOURCE=California Institute of Technology
##DESCRIPTION=Aggregate of light green irregular grains
##STATUS=The identification of this mineral has been confirmed by X-ray diffraction and chemical analysis
##URL=rruff.info/R050496
##MEASURED CHEMISTRY=Ca(Mg_0.66_Fe_0.33_Mn_0.01_)(Si_0.95_Al_0.05_)_2_O_6_
##PIN_ID=M01175
##ORIENTATION=Laser parallel to c* (0 0 1). Fiducial mark perpendicular to laser is parallel to -a [-1 0 0]
117.9870, 13914.00
119.2200, 13890.00
120.4530, 13920.90
121.6860, 13987.00
122.9190, 13993.00
124.1520, 14013.00
125.3850, 14023.00
126.6170, 14128.00
127.8490, 13912.00
129.0810, 14140.00
130.3130, 14089.00
131.5450, 14324.00
132.7770, 14216.00
134.0080, 14274.00
135.2390, 14316.00
136.4710, 14274.00
137.7020, 14352.00
138.9320, 14605.00
140.1630, 14595.00
141.3930, 14648.00
142.6240, 14656.00
143.8540, 14656.00
145.0840, 14646.00
146.3140, 14568.00
147.5440, 14628.00
148.7730, 14578.00
150.0020, 14667.00
151.2320, 14711.00
152.4610, 14867.00
153.6900, 14845.00
154.9180, 14889.42
156.1470, 14855.00
157.3750, 14921.00
158.6040, 14925.00
159.8320, 15001.00
161.0600, 15046.00
162.2870, 15101.00
163.5150, 15032.00
164.7420, 15181.00
165.9700, 15022.00
167.1970, 15413.00
168.4240, 15244.00
169.6510, 15251.00
170.8770, 15245.00
172.1040, 15203.00
173.3300, 15343.00
174.5560, 15371.00
175.7820, 15146.00
177.0080, 15443.00
178.2340, 15389.00
179.4590, 15400.00
180.6850, 15574.00
181.9100, 15575.00
183.1350, 15456.00
184.3600, 15490.00
185.5850, 15466.00
186.8090, 15477.96
188.0340, 15658.00
189.2580, 15556.00
190.4820, 15662.00
191.7060, 15708.00
192.9300, 15551.00
194.1530, 15541.00
195.3770, 15694.00
196.6000, 15772.00
197.8230, 15706.00
199.0460, 15821.00
200.2690, 15752.00
201.4910, 15687.00
202.7140, 15821.00
203.9360, 15770.00
205.1580, 15753.00
206.3800, 15818.00
207.6020, 15858.00
208.8240, 15913.00
210.0450, 15886.00
211.2670, 15930.00
212.4880, 15880.00
213.7090, 15881.00
214.9300, 15855.00
216.1510, 16024.00
217.3710, 16072.00
218.5920, 16180.00
219.8120, 16326.00
221.0320, 16240.00
222.2520, 16194.00
223.4720, 16414.00
224.6910, 16197.00
225.9110, 16454.00
227.1300, 16646.00
228.3490, 16511.00
229.5680, 16671.00
230.7870, 16760.00
232.0050, 16715.00
233.2240, 16786.00
234.4420, 16640.00
235.6600, 16741.00
236.8780, 16752.00
238.0960, 16510.00
239.3140, 16580.00
240.5310, 16710.00
241.7490, 16848.00
242.9660, 16823.92
244.1830, 16700.00
245.4000, 16769.00
246.6160, 16734.00
247.8330, 16676.00
249.0490, 16855.00
250.2660, 16763.00
251.4820, 16942.00
252.6980, 16945.00
253.9130, 16880.00
255.1290, 16901.00
256.3440, 17010.00
257.5600, 17014.00
258.7750, 16962.00
259.9900, 16952.00
261.2040, 16886.00
262.4190, 16989.00
263.6330, 16953.00
264.8480, 17055.00
266.0620, 16856.00
267.2760, 16831.00
268.4900, 16963.00
269.7030, 16932.00
270.9170, 17004.00
272.1300, 16924.00
273.3430, 17040.00
274.5560, 16950.00
275.7690, 17020.00
276.9820, 17008.00
278.1940, 17203.00
279.4070, 16976.00
280.6190, 17008.00
281.8310, 17063.00
283.0430, 16965.00
284.2550, 17156.00
285.4660, 17251.00
286.6770, 17226.00
287.8890, 17488.00
289.1000, 17415.00
290.3110, 17592.00
291.5210, 17852.00
292.7320, 17695.00
293.9420, 17714.00
295.1530, 18079.00
296.3630, 17953.00
297.5730, 18016.00
298.7830, 18197.00
299.9920, 18246.00
301.2020, 18529.00
302.4110, 18639.00
303.6200, 18677.00
304.8290, 18628.00
306.0380, 18913.00
307.2470, 18951.56
308.4550, 19104.00
309.6630, 19254.00
310.8720, 19611.00
312.0800, 19810.00
313.2880, 20057.00
314.4950, 20690.00
315.7030, 20761.00
316.9100, 21205.00
318.1170, 21520.00
319.3240, 21886.00
320.5310, 22172.00
321.7380, 22368.00
322.9450, 22692.00
324.1510, 22546.00
325.3570, 22522.00
326.5630, 22391.00
327.7690, 21949.00
328.9750, 22006.00
330.1810, 21458.00
331.3860, 21285.00
332.5910, 21053.00
333.7960, 20542.00
335.0010, 20601.00
336.2060, 20665.00
337.4110, 20324.00
338.6150, 20266.00
339.8200, 20193.00
341.0240, 20330.00
342.2280, 20174.43
343.4320, 20242.00
344.6350, 20066.00
345.8390, 20267.00
347.0420, 20405.00
348.2450, 20572.00
349.4480, 20870.00
350.6510, 20809.00
351.8540, 21046.00
353.0560, 21381.00
354.2590, 21356.00
355.4610, 21487.00
356.6630, 20928.00
357.8650, 20911.00
359.0670, 20824.00
360.2680, 20600.00
361.4700, 20497.00
362.6710, 20452.00
363.8720, 20226.00
365.0730, 20250.00
366.2740, 20057.00
367.4740, 20173.00
368.6750, 19941.00
369.8750, 20083.00
371.0750, 20074.00
372.2750, 20233.00
373.4750, 20326.00
374.6740, 20494.05
375.8740, 20609.00
377.0730, 20932.00
378.2720, 21324.00
379.4710, 21637.00
380.6700, 22145.00
381.8690, 22516.00
383.0670, 23158.00
384.2660, 23822.00
385.4640, 24209.00
386.6620, 24857.00
387.8600, 25457.00
389.0570, 25484.00
390.2550, 25219.00
391.4520, 24859.00
392.6490, 24437.00
393.8460, 23738.00
395.0430, 22803.00
396.2400, 22359.00
397.4370, 21891.00
398.6330, 21181.00
399.8290, 20964.00
401.0250, 20506.00
402.2210, 20111.00
403.4170, 20105.00
404.6130, 19765.00
405.8080, 19731.00
407.0030, 19650.00
408.1980, 19436.00
409.3930, 19578.00
410.5880, 19303.00
411.7830, 19388.00
412.9770, 19346.00
414.1720, 19408.00
415.3660, 19392.00
416.5600, 19443.00
417.7530, 19438.77
418.9470, 19505.00
420.1410, 19419.00
421.3340, 19431.00
422.5270, 19397.00
423.7200, 19450.00
424.9130, 19616.00
426.1060, 19521.00
427.2980, 19479.00
428.4900, 19677.00
429.6830, 19561.00
430.8750, 19659.00
432.0670, 19441.00
433.2580, 19599.00
434.4500, 19629.00
435.6410, 19827.00
436.8320, 19664.00
438.0240, 19810.00
439.2140, 19578.00
440.4050, 19564.00
441.5960, 19698.00
442.7860, 19775.00
443.9760, 19828.00
445.1670, 19717.00
446.3560, 19849.00
447.5460, 19584.00
448.7360, 19984.00
449.9250, 19855.00
451.1150, 19777.00
452.3040, 19900.00
453.4930, 19911.00
454.6810, 19931.00
455.8700, 20076.00
457.0590, 20080.00
458.2470, 20135.15
459.4350, 20228.00
460.6230, 20184.00
461.8110, 20211.00
462.9980, 20197.00
464.1860, 20237.58
465.3730, 20371.00
466.5600, 20332.00
467.7470, 20326.00
468.9340, 20353.00
470.1210, 20297.31
471.3080, 20279.00
472.4940, 20279.00
473.6800, 20351.00
474.8660, 20478.00
476.0520, 20435.00
477.2380, 20531.31
478.4230, 20473.72
479.6090, 20602.00
480.7940, 20428.00
481.9790, 20391.00
483.1640, 20549.00
484.3490, 20326.00
485.5330, 20625.00
486.7180, 20588.00
487.9020, 20641.00
489.0860, 20769.00
490.2700, 20725.00
491.4540, 20560.00
492.6370, 20640.00
493.8210, 20565.00
495.0040, 20682.00
496.1870, 20779.00
497.3700, 20746.00
498.5530, 20856.00
499.7360, 20909.00
500.9180, 20859.00
502.1000, 20795.00
503.2830, 20899.00
504.4650, 20992.00
505.6460, 21129.00
506.8280, 21051.00
508.0100, 21136.00
509.1910, 21095.00
510.3720, 20960.00
511.5530, 21065.00
512.7340, 21289.00
513.9150, 21232.00
515.0950, 21328.00
516.2760, 21430.00
517.4560, 21373.00
518.6360, 21472.00
519.8160, 21473.00
520.9950, 21583.00
522.1750, 21700.00
523.3540, 21739.00
524.5340, 21717.00
525.7130, 21958.00
526.8920, 21841.00
528.0700, 22076.00
529.2490, 22157.00
530.4270, 22076.00
531.6060, 22215.00
532.7840, 22118.00
533.9620, 22066.00
535.1390, 22063.00
536.3170, 21856.00
537.4940, 21849.00
538.6720, 21878.00
539.8490, 21862.00
541.0260, 22075.00
542.2030, 21935.00
543.3790, 22009.00
544.5560, 22076.00
545.7320, 21847.00
546.9080, 21962.00
548.0840, 22189.00
549.2600, 21993.00
550.4360, 22318.00
551.6110, 22240.00
552.7860, 22435.00
553.9620, 22679.00
555.1370, 22627.00
556.3110, 22927.00
557.4860, 22753.00
558.6610, 22889.71
559.8350, 22868.00
561.0090, 22884.00
562.1830, 22710.00
563.3570, 22427.00
564.5310, 22466.00
565.7040, 22292.00
566.8780, 22205.01
568.0510, 22214.00
569.2240, 22128.00
570.3970, 22228.00
571.5700, 22358.00
572.7420, 22306.00
573.9150, 22241.00
575.0870, 22058.00
576.2590, 22085.00
577.4310, 22043.00
578.6030, 21919.00
579.7740, 22018.00
580.9460, 22037.00
582.1170, 22076.00
583.2880, 21987.00
584.4590, 22003.00
585.6300, 21969.00
586.8010, 22006.28
587.9710, 21916.00
589.1410, 22076.00
590.3110, 22070.00
591.4810, 22007.00
592.6510, 21984.00
593.8210, 21874.00
594.9900, 21852.00
596.1600, 21845.93
597.3290, 21981.00
598.4980, 21923.00
599.6670, 21958.00
600.8350, 22118.00
602.0040, 21970.00
603.1720, 22130.00
604.3400, 22283.00
605.5080, 22067.00
606.6760, 22228.00
607.8440, 22217.00
609.0120, 22394.00
610.1790, 22276.00
611.3460, 22241.00
612.5130, 22418.00
613.6800, 22428.00
614.8470, 22560.00
616.0130, 22364.00
617.1800, 22534.00
618.3460, 22510.00
619.5120, 22616.00
620.6780, 22760.00
621.8440, 22707.00
623.0090, 22648.00
624.1750, 22788.00
625.3400, 22655.00
626.5050, 22857.00
627.6700, 22862.00
628.8350, 22909.00
629.9990, 23232.00
631.1640, 23187.00
632.3280, 23337.00
633.4920, 23266.00
634.6560, 23298.00
635.8200, 23281.00
636.9840, 23427.00
638.1470, 23452.00
639.3100, 23681.00
640.4730, 23798.00
641.6360, 23824.00
642.7990, 23900.00
643.9620, 24153.00
645.1240, 24290.00
646.2870, 24290.00
647.4490, 24419.00
648.6110, 24812.00
649.7730, 24838.00
650.9340, 25388.00
652.0960, 25713.00
653.2570, 25853.00
654.4180, 26531.00
655.5790, 27079.00
656.7400, 27717.00
657.9010, 28760.00
659.0620, 29480.00
660.2220, 30704.00
661.3820, 32053.00
662.5420, 33309.00
663.7020, 34462.00
664.8620, 35013.00
666.0210, 35086.04
667.1810, 34858.00
668.3400, 34042.00
669.4990, 33212.00
670.6580, 31785.00
671.8170, 30405.00
672.9750, 29312.00
674.1340, 28380.20
675.2920, 27482.00
676.4500, 27071.00
677.6080, 26654.00
678.7660, 26450.00
679.9230, 25795.00
681.0810, 25568.00
682.2380, 25309.00
683.3950, 25152.00
684.5520, 25014.00
685.7090, 24854.00
686.8660, 24605.00
688.0220, 24602.00
689.1780, 24509.00
690.3340, 24542.00
691.4900, 24511.67
692.6460, 24427.00
693.8020, 24458.00
694.9570, 24394.00
696.1130, 24272.00
697.2680, 24173.00
698.4230, 24129.00
699.5780, 24106.00
700.7320, 24063.35
701.8870, 24052.81
703.0410, 24061.00
704.1950, 24082.00
705.3490, 24149.00
706.5030, 24272.00
707.6570, 24220.00
708.8110, 24334.00
709.9640, 24018.00
711.1170, 24443.00
712.2700, 24054.00
713.4230, 24301.00
714.5760, 24105.00
715.7280, 24247.00
716.8810, 24050.00
718.0330, 24171.00
719.1850, 24345.00
720.3370, 24245.00
721.4890, 24154.00
722.6400, 24130.00
723.7920, 24274.00
724.9430, 24250.54
726.0940, 24606.00
727.2450, 24422.00
728.3960, 24553.00
729.5460, 24750.00
730.6970, 24484.00
731.8470, 24528.00
732.9970, 24568.00
734.1470, 24523.00
735.2970, 24534.00
736.4460, 24588.56
737.5960, 24528.00
738.7450, 24733.00
739.8940, 24752.00
741.0430, 24875.00
742.1920, 24811.00
743.3410, 24750.00
744.4890, 24894.00
745.6370, 24883.00
746.7850, 24910.00
747.9330, 24864.00
749.0810, 24864.00
750.2290, 25100.00
751.3760, 24915.00
752.5240, 25064.00
753.6710, 25130.00
754.8180, 25022.00
755.9650, 25159.00
757.1110, 25145.80
758.2580, 25133.00
759.4040, 25222.00
760.5510, 25260.00
761.6970, 25327.00
762.8420, 25054.00
763.9880, 25416.00
765.1340, 25326.00
766.2790, 25283.00
767.4240, 25539.00
768.5690, 25563.00
769.7140, 25551.00
770.8590, 25363.00
772.0030, 25642.00
773.1480, 25663.00
774.2920, 25448.00
775.4360, 25760.00
776.5800, 25661.00
777.7240, 25772.00
778.8670, 25671.00
780.0110, 25765.00
781.1540, 25818.00
782.2970, 25953.00
783.4400, 25924.00
784.5830, 26045.00
785.7250, 26033.00
786.8680, 25967.00
788.0100, 25930.00
789.1520, 26113.00
790.2940, 25716.00
791.4360, 26019.00
792.5780, 26071.00
793.7190, 26018.00
794.8600, 26289.00
796.0010, 26233.00
797.1420, 26014.00
798.2830, 26123.00
799.4240, 26149.00
800.5640, 26418.00
801.7050, 26380.00
802.8450, 26220.00
803.9850, 26234.00
805.1250, 26208.00
806.2640, 26352.00
807.4040, 26374.00
808.5430, 26236.00
809.6820, 26141.00
810.8210, 26390.00
811.9600, 26229.00
813.0990, 26611.00
814.2370, 26761.00
815.3760, 26475.00
816.5140, 26721.00
817.6520, 26766.00
818.7900, 26695.00
819.9270, 26884.00
821.0650, 26732.00
822.2020, 26868.00
823.3390, 26892.00
824.4760, 26861.00
825.6130, 26825.00
826.7500, 26921.00
827.8870, 27156.00
829.0230, 26855.00
830.1590, 26848.00
831.2950, 27052.00
832.4310, 26977.00
833.5670, 26915.00
834.7030, 26984.00
835.8380, 26742.00
836.9730, 26964.00
838.1080, 27052.00
839.2430, 26966.00
840.3780, 26917.00
841.5130, 27052.00
842.6470, 27084.00
843.7810, 27044.00
844.9150, 27327.00
846.0490, 27242.00
847.1830, 27234.00
848.3170, 27605.00
849.4500, 27434.00
850.5830, 27562.00
851.7160, 27703.00
852.8490, 28008.00
853.9820, 28228.00
855.1150, 28257.00
856.2470, 28341.00
857.3800, 28321.00
858.5120, 28439.00
859.6440, 28131.00
860.7760, 28305.00
861.9070, 27997.00
863.0390, 28294.00
864.1700, 27970.00
865.3010, 28133.00
866.4320, 27903.00
867.5630, 27958.00
868.6940, 27846.00
869.8240, 27922.00
870.9540, 27949.00
872.0850, 28002.00
873.2150, 28085.00
874.3450, 27924.00
875.4740, 28088.00
876.6040, 28213.00
877.7330, 27938.00
878.8620, 28253.00
879.9910, 28005.00
881.1200, 28157.00
882.2490, 28305.00
883.3770, 28109.00
884.5060, 28377.00
885.6340, 28330.00
886.7620, 28308.00
887.8900, 28258.00
889.0180, 28323.00
890.1450, 28357.00
891.2730, 28423.00
892.4000, 28582.00
893.5270, 28367.00
894.6540, 28514.00
895.7810, 28415.00
896.9070, 28637.00
898.0340, 28595.00
899.1600, 28702.00
900.2860, 28559.00
901.4120, 28502.00
902.5380, 28569.00
903.6630, 28685.00
904.7890, 28769.00
905.9140, 28764.99
907.0390, 28943.00
908.1640, 28808.00
909.2890, 28728.00
910.4130, 28899.00
911.5380, 28947.00
912.6620, 28984.00
913.7860, 28894.00
914.9100, 28892.00
916.0340, 28917.00
917.1580, 29014.00
918.2810, 29192.00
919.4040, 29100.00
920.5280, 29123.00
921.6510, 28929.00
922.7730, 29168.00
923.8960, 29131.00
925.0180, 29237.00
926.1410, 29422.00
927.2630, 29446.92
928.3850, 29364.00
929.5070, 29527.00
930.6280, 29460.00
931.7500, 29266.00
932.8710, 29194.00
933.9920, 29556.00
935.1130, 29400.00
936.2340, 29541.00
937.3550, 29512.00
938.4760, 29507.00
939.5960, 29734.00
940.7160, 29372.00
941.8360, 29639.00
942.9560, 29237.00
944.0760, 29807.00
945.1950, 29807.00
946.3150, 29674.00
947.4340, 29821.00
948.5530, 29706.00
949.6720, 30128.00
950.7900, 30187.00
951.9090, 30243.00
953.0270, 30032.00
954.1460, 30141.00
955.2640, 30297.00
956.3820, 30292.00
957.4990, 30369.00
958.6170, 30411.00
959.7340, 30503.00
960.8520, 30440.00
961.9690, 30435.00
963.0860, 30714.00
964.2020, 30541.00
965.3190, 30919.00
966.4350, 30698.00
967.5520, 30935.00
968.6680, 31056.00
969.7840, 31030.00
970.8990, 31084.00
972.0150, 31126.46
973.1310, 31135.87
974.2460, 31199.00
975.3610, 31176.00
976.4760, 31227.00
977.5910, 31223.00
978.7050, 31273.00
979.8200, 31358.00
980.9340, 31531.00
982.0480, 31465.00
983.1620, 31607.00
984.2760, 31681.72
985.3900, 31640.00
986.5030, 31890.00
987.6160, 32071.00
988.7300, 32244.00
989.8430, 32420.00
990.9550, 32569.00
992.0680, 32833.00
993.1810, 32912.00
994.2930, 33274.00
995.4050, 33697.00
996.5170, 33858.00
997.6290, 34660.00
998.7410, 35175.00
999.8520, 35635.00
1000.964, 36312.00
1002.075, 37602.00
1003.186, 38358.00
1004.297, 39375.00
1005.407, 40800.00
1006.518, 42631.00
1007.628, 44398.00
1008.738, 46485.00
1009.848, 48365.00
1010.958, 50380.00
1012.068, 51382.00
1013.178, 51544.00
1014.287, 50471.00
1015.396, 48890.00
1016.505, 45937.00
1017.614, 43544.00
1018.723, 41268.00
1019.831, 39328.00
1020.940, 37984.00
1022.048, 36779.00
1023.156, 36363.00
1024.264, 35393.00
1025.372, 34839.00
1026.479, 34662.00
1027.587, 34245.00
1028.694, 34005.00
1029.801, 33939.00
1030.908, 33838.00
1032.015, 33947.00
1033.121, 33774.00
1034.228, 33577.00
1035.334, 33622.00
1036.440, 33806.00
1037.546, 33739.00
1038.652, 34101.00
1039.758, 33873.00
1040.863, 33989.00
1041.968, 33993.00
1043.074, 34216.00
1044.178, 34318.00
1045.283, 33925.00
1046.388, 33940.00
1047.492, 33837.00
1048.597, 33727.00
1049.701, 33861.00
1050.805, 33531.00
1051.909, 33500.00
1053.012, 33551.00
1054.116, 33178.00
1055.219, 33115.00
1056.322, 33122.00
1057.425, 32964.00
1058.528, 32970.27
1059.631, 32930.46
1060.733, 32940.00
1061.836, 32884.00
1062.938, 32937.00
1064.040, 32902.00
1065.142, 32801.00
1066.243, 32728.00
1067.345, 32533.00
1068.446, 32957.00
1069.547, 32949.00
1070.648, 32806.00
1071.749, 32738.00
1072.850, 32794.00
1073.951, 32806.00
1075.051, 32860.00
1076.151, 33069.00
1077.251, 32764.00
1078.351, 33007.00
1079.451, 32958.00
1080.550, 32899.00
1081.650, 33102.00
1082.749, 32925.00
1083.848, 33065.00
1084.947, 32922.00
1086.046, 33241.00
1087.144, 33034.00
1088.243, 33033.00
1089.341, 33199.00
1090.439, 33291.00
1091.537, 33314.00
1092.635, 33126.00
1093.732, 33331.00
1094.830, 33034.00
1095.927, 33117.00
1097.024, 33502.00
1098.121, 33379.00
1099.218, 33748.00
1100.314, 33470.00
1101.411, 33522.00
1102.507, 33323.00
1103.603, 33509.00
1104.699, 33662.00
1105.795, 33493.00
1106.890, 33582.00
1107.986, 33540.00
1109.081, 33579.00
1110.176, 33634.31
1111.271, 33892.00
1112.366, 33667.00
1113.461, 33694.00
1114.555, 33547.00
1115.649, 33773.00
1116.744, 33884.00
1117.838, 33837.00
1118.931, 34065.00
1120.025, 33800.00
1121.119, 34035.00
1122.212, 34056.00
1123.305, 33821.00
1124.398, 34001.00
1125.491, 33879.00
1126.584, 34058.00
1127.676, 34266.00
1128.768, 33948.00
1129.861, 34026.00
1130.953, 34278.00
1132.044, 34048.00
1133.136, 34087.00
1134.228, 34389.00
1135.319, 34128.00
1136.410, 34574.00
1137.501, 34258.00
1138.592, 34298.00
1139.683, 34251.00
1140.773, 34253.00
1141.864, 34549.00
1142.954, 34241.00
1144.044, 34392.00
1145.134, 34239.00
1146.224, 34467.00
1147.313, 34453.00
1148.402, 34310.00
1149.492, 34717.00
1150.581, 34285.00
1151.670, 34662.00
1152.758, 34700.00
1153.847, 34578.00
1154.935, 34566.00
1156.024, 34528.00
1157.112, 34577.00
1158.200, 34673.00
1159.287, 34802.00
1160.375, 34834.00
1161.462, 34800.00
1162.550, 34468.00
1163.637, 34694.00
1164.724, 34696.00
1165.810, 34880.00
1166.897, 34903.00
1167.983, 34780.00
1169.070, 34890.00
1170.156, 34901.11
1171.242, 34822.00
1172.327, 35017.00
1173.413, 35036.00
1174.499, 35057.00
1175.584, 34935.00
1176.669, 35223.00
1177.754, 35254.00
1178.839, 35080.00
1179.923, 35190.00
1181.008, 35089.00
1182.092, 35363.00
1183.176, 35295.00
1184.260, 35419.00
1185.344, 35071.00
1186.428, 35494.00
1187.511, 35152.00
1188.595, 35367.00
1189.678, 35399.00
1190.761, 35714.00
1191.843, 35592.00
1192.926, 35518.00
1194.009, 35674.00
1195.091, 35362.00
1196.173, 35773.00
1197.255, 35542.00
1198.337, 35576.00
1199.419, 35671.00
1200.500, 35827.00
1201.582, 35777.00
1202.663, 35963.00
1203.744, 36060.00
1204.825, 35727.00
1205.905, 36040.00
1206.986, 35919.00
1208.066, 35686.00
1209.146, 36097.00
1210.226, 36102.00
1211.306, 35980.00
1212.386, 36298.00
1213.466, 36390.00
1214.545, 35995.00
1215.624, 36281.00
1216.703, 36215.00
1217.782, 36154.00
1218.861, 36142.00
1219.939, 36181.58
1221.018, 36089.00
1222.096, 36325.00
1223.174, 36315.00
1224.252, 36378.00
1225.330, 36557.00
1226.407, 36631.00
1227.485, 36606.00
1228.562, 36575.00
1229.639, 36589.83
1230.716, 36508.00
1231.793, 36553.00
1232.869, 36652.00
1233.946, 36630.00
1235.022, 36605.00
1236.098, 36901.00
1237.174, 36904.00
1238.250, 37036.00
1239.325, 36634.00
1240.401, 36902.00
1241.476, 37020.00
1242.551, 36704.00
1243.626, 37092.00
1244.701, 37017.00
1245.776, 36832.00
1246.850, 37104.00
1247.924, 37072.00
1248.999, 37046.00
1250.073, 37336.00
1251.146, 37301.00
1252.220, 37169.00
1253.293, 37354.00
1254.367, 37412.00
1255.440, 37256.00
1256.513, 37460.00
1257.586, 37306.00
1258.658, 37229.00
1259.731, 37322.00
1260.803, 37246.00
1261.875, 37140.00
1262.947, 37458.00
1264.019, 37623.00
1265.091, 37581.00
1266.162, 37630.00
1267.234, 37699.00
1268.305, 37682.00
1269.376, 37724.99
1270.447, 37649.00
1271.517, 37698.00
1272.588, 37791.00
1273.658, 37664.00
1274.729, 37723.00
1275.799, 37905.00
1276.868, 37786.00
1277.938, 37939.00
1279.008, 37788.00
1280.077, 37910.00
1281.146, 37787.00
1282.215, 37834.00
1283.284, 37907.00
1284.353, 37744.00
1285.421, 38216.00
1286.490, 38021.00
1287.558, 38020.00
1288.626, 37854.00
1289.694, 37775.00
1290.762, 37897.00
1291.829, 37924.00
1292.897, 37987.00
1293.964, 38140.00
1295.031, 37934.00
1296.098, 38240.00
1297.165, 38079.00
1298.231, 38124.00
1299.298, 38147.00
1300.364, 38192.00
1301.430, 38488.00
1302.496, 38239.00
1303.562, 38599.00
1304.627, 38480.00
1305.693, 38605.00
1306.758, 38596.00
1307.823, 38547.00
1308.888, 38861.00
1309.953, 38618.00
1311.018, 38868.00
1312.082, 38779.00
1313.146, 38911.00
1314.210, 38910.00
1315.274, 38698.00
1316.338, 39314.00
1317.402, 38871.00
1318.465, 38855.00
1319.529, 39386.00
1320.592, 39167.00
1321.655, 39130.00
1322.718, 39051.00
1323.780, 39376.00
1324.843, 39067.00
1325.905, 39117.00
1326.967, 39216.00
1328.029, 38976.00
1329.091, 39075.00
1330.153, 39121.00
1331.214, 39343.00
1332.275, 39220.00
1333.337, 39187.00
1334.398, 39119.00
1335.458, 39004.00
1336.519, 39059.07
1337.580, 39261.00
1338.640, 39120.00
1339.700, 39176.00
1340.760, 39160.00
1341.820, 39448.00
1342.880, 39424.00
1343.939, 39662.00
1344.999, 39678.00
1346.058, 39644.00
1347.117, 39704.00
1348.176, 39716.00
1349.235, 39724.00
1350.293, 40055.00
1351.351, 39963.00
1352.410, 39965.00
1353.468, 40114.00
1354.526, 39950.00
1355.583, 40080.00
1356.641, 40087.57
1357.698, 39969.00
1358.756, 40186.00
1359.813, 40180.00
1360.869, 40292.00
1361.926, 40223.00
1362.983, 40437.00
1364.039, 40335.00
1365.095, 40505.00
1366.152, 40487.00
1367.207, 40688.00
1368.263, 40764.00
1369.319, 40627.00
1370.374, 40659.00
1371.430, 40466.00
1372.485, 40561.00
1373.540, 40781.00
1374.594, 40634.00
1375.649, 40791.00
1376.703, 40748.00
1377.758, 40644.00
1378.812, 40820.00
1379.866, 40744.00
1380.920, 40853.00
1381.973, 40841.00
1383.027, 40955.00
1384.080, 40911.00
1385.133, 40775.00
1386.186, 40881.00
1387.239, 41237.00
1388.291, 41068.00
1389.344, 40935.00
1390.396, 41279.00
1391.448, 41210.00
1392.500, 41331.00
1393.552, 41129.00
1394.604, 41219.14
1395.655, 41178.00
1396.707, 41231.00
1397.758, 41242.00
1398.809, 41143.00
1399.860, 41223.00
1400.910, 41276.00
1401.961, 41127.00
1403.011, 41249.98
1404.061, 41386.00
1405.111, 41333.00
1406.161, 41354.00
1407.211, 41365.00
1408.260, 41685.00
1409.310, 41424.00
1410.359, 41909.00
1411.408, 41665.00
1412.457, 41713.00
1413.506, 41628.00
1414.554, 41574.00
1415.603, 41778.00
1416.651, 41653.00
1417.699, 41664.00
1418.747, 41840.00
1419.794, 42069.00
1420.842, 42051.00
1421.889, 41925.00
1422.937, 41867.00
1423.984, 41934.00
1425.031, 41987.00
1426.077, 41872.00
1427.124, 42129.00
1428.170, 41899.00
1429.217, 42266.00
1430.263, 42114.00
1431.309, 42116.00
1432.354, 42313.00
1433.400, 42135.00
1434.445, 42123.00
1435.491, 41999.00
1436.536, 42354.00
1437.581, 42433.00
1438.625, 42187.00
1439.670, 42587.00
1440.714, 42390.00
1441.759, 42524.00
1442.803, 42677.00
1443.847, 42496.00
1444.890, 42483.00
1445.934, 42297.00
1446.978, 42543.00
1448.021, 42805.00
1449.064, 42747.00
1450.107, 42918.00
1451.150, 42751.00
1452.192, 42554.00
1453.235, 42822.00
1454.277, 42762.00
1455.319, 42823.00
1456.361, 42899.00
1457.403, 42693.00
1458.445, 42879.00
1459.486, 42865.00
1460.528, 42934.00
1461.569, 43015.30
1462.610, 43073.00
1463.651, 43072.00
1464.691, 43215.00
1465.732, 43126.00
1466.772, 42833.00
1467.812, 43392.00
1468.852, 43312.00
1469.892, 43133.00
1470.932, 43367.00
1471.971, 43356.00
1473.011, 43168.00
1474.050, 43549.00
1475.089, 43225.00
1476.128, 43689.00
1477.166, 43554.00
1478.205, 43673.00
1479.243, 43527.00
1480.282, 43356.00
1481.320, 43836.00
1482.357, 43795.00
1483.395, 43704.00
1484.433, 43617.00
1485.470, 43962.00
1486.507, 43909.00
1487.544, 43935.00
1488.581, 43772.00
1489.618, 43948.00
1490.655, 43936.00
1491.691, 43659.00
1492.727, 43613.00
1493.763, 43942.00
1494.799, 43589.00
1495.835, 44216.00
1496.871, 44020.00
1497.906, 44013.00
1498.941, 43930.00
1499.976, 43951.00
1501.011, 43985.00
1502.046, 44173.00
1503.081, 44237.00
1504.115, 43904.00
1505.149, 44175.00
1506.183, 44336.00
1507.217, 43989.00
1508.251, 44086.00
1509.285, 44596.00
1510.318, 44356.00
1511.352, 44367.00
1512.385, 44537.00
1513.418, 44452.00
1514.450, 44441.00
1515.483, 44483.00
1516.516, 44759.00
1517.548, 44656.00
1518.580, 44805.00
1519.612, 44603.00
1520.644, 44669.00
1521.675, 44656.00
1522.707, 44926.00
1523.738, 45013.00
1524.769, 44939.00
1525.800, 44858.00
1526.831, 44696.00
1527.862, 45039.00
1528.892, 44778.00
1529.923, 44847.00
1530.953, 45138.00
1531.983, 45039.00
1533.013, 45261.00
1534.042, 45257.90
1535.072, 45055.00
1536.101, 45175.00
1537.131, 45300.00
1538.160, 45101.00
1539.188, 45100.00
1540.217, 45112.00
1541.246, 45436.00
1542.274, 45310.00
1543.302, 45274.00
1544.330, 45540.00
1545.358, 45372.00
1546.386, 45289.00
1547.413, 45525.00
1548.441, 45404.00
1549.468, 45554.00
1550.495, 45533.00
1551.522, 45466.00
1552.549, 45535.00
1553.575, 45546.00
1554.602, 45589.35
1555.628, 45610.00
1556.654, 45718.00
1557.680, 45607.00
1558.706, 45658.00
1559.731, 46002.00
1560.757, 45714.00
1561.782, 46066.00
1562.807, 45660.00
1563.832, 45753.00
1564.857, 45866.00
1565.881, 45782.00
1566.906, 45789.00
1567.930, 45626.00
1568.954, 45799.00
1569.978, 45833.00
1571.002, 45784.00
1572.025, 45921.00
1573.049, 46001.00
1574.072, 45723.00
1575.095, 45774.00
1576.118, 46047.00
1577.141, 45786.00
##END=



