##NAMES=Diopside
##RRUFFID=R060861
##IDEAL CHEMISTRY=CaMgSi_2_O_6_
##LOCALITY=Red Mountain Volcano, NW of Flagstaff, Arizona, USA
##OWNER=RRUFF
##SOURCE=Jennifer Sano
##DESCRIPTION=Worn brown fragment
##STATUS=The identification of this mineral has been confirmed by X-ray diffraction and chemical analysis
##URL=rruff.info/R060861
##MEASURED CHEMISTRY=(Ca_0.72_Fe^2+^_0.23_Na_0.05_)_Σ=1_(Mg_0.80_Al_0.15_Ti_0.03_Fe^3+^_0.02_)_Σ=1_(Si_1.82_Al_0.18_)_Σ=2_O_6_
##PIN_ID=M00947
##ORIENTATION=Laser parallel to a* (1 0 0). Fiducial mark perpendicular to laser is parallel to b [0 1 0]
156.1790, 22028.00
157.4150, 21402.00
158.6510, 21459.00
159.8870, 21517.00
161.1220, 21453.00
162.3570, 21844.00
163.5930, 21853.00
164.8280, 22160.00
166.0620, 22281.00
167.2970, 22255.00
168.5310, 22525.00
169.7650, 22809.00
170.9990, 23051.00
172.2330, 23166.00
173.4670, 23431.00
174.7000, 23550.23
175.9330, 23586.00
177.1660, 23773.00
178.3990, 23870.00
179.6310, 23886.00
180.8640, 24044.00
182.0960, 23921.00
183.3280, 24168.00
184.5600, 24090.00
185.7910, 24083.00
187.0220, 24372.00
188.2540, 24290.00
189.4840, 24249.00
190.7150, 24106.00
191.9460, 24150.00
193.1760, 24282.00
194.4060, 24176.00
195.6360, 24200.36
196.8660, 23918.00
198.0960, 24093.00
199.3250, 24117.00
200.5540, 24045.00
201.7830, 24165.00
203.0120, 24111.00
204.2400, 23340.00
205.4690, 22835.00
206.6970, 22566.00
207.9250, 22319.00
209.1530, 22320.00
210.3800, 22368.00
211.6080, 22549.00
212.8350, 22689.00
214.0620, 22936.00
215.2880, 23019.70
216.5150, 22943.00
217.7410, 23220.00
218.9680, 23180.00
220.1940, 23258.00
221.4190, 23404.00
222.6450, 23514.00
223.8700, 23495.00
225.0960, 23887.00
226.3210, 23804.00
227.5450, 23881.00
228.7700, 23475.00
229.9940, 23473.00
231.2190, 23531.00
232.4430, 23139.00
233.6660, 22925.00
234.8900, 22780.00
236.1140, 22700.00
237.3370, 22540.00
238.5600, 22536.00
239.7830, 22421.00
241.0050, 22023.00
242.2280, 21974.00
243.4500, 22067.00
244.6720, 21850.00
245.8940, 22014.00
247.1160, 21668.00
248.3370, 21874.00
249.5580, 21666.00
250.7790, 21502.00
252.0000, 21842.00
253.2210, 21459.00
254.4410, 21477.00
255.6620, 21317.00
256.8820, 21458.00
258.1020, 21428.00
259.3210, 21259.31
260.5410, 21073.66
261.7600, 20827.00
262.9790, 20565.00
264.1980, 20147.00
265.4170, 20138.00
266.6360, 19955.00
267.8540, 20028.00
269.0720, 19610.00
270.2900, 19640.00
271.5080, 19583.00
272.7260, 19665.00
273.9430, 19622.00
275.1600, 19698.00
276.3770, 19597.00
277.5940, 19763.00
278.8100, 20038.00
280.0270, 20020.12
281.2430, 20074.00
282.4590, 20294.00
283.6750, 20172.00
284.8910, 20500.00
286.1060, 20883.00
287.3210, 20860.00
288.5360, 21045.00
289.7510, 21204.00
290.9660, 21540.00
292.1800, 21970.00
293.3950, 22029.00
294.6090, 22259.00
295.8230, 22836.00
297.0360, 23146.00
298.2500, 24137.00
299.4630, 24389.00
300.6760, 24152.00
301.8890, 24951.00
303.1020, 25089.00
304.3150, 25788.00
305.5270, 26283.00
306.7390, 26971.00
307.9510, 27705.00
309.1630, 28439.00
310.3750, 29268.00
311.5860, 30313.00
312.7970, 31114.00
314.0080, 32018.00
315.2190, 33145.00
316.4300, 33875.00
317.6400, 35035.00
318.8510, 36070.00
320.0610, 37040.00
321.2710, 38231.00
322.4800, 39122.00
323.6900, 40549.00
324.8990, 41267.00
326.1080, 42348.00
327.3170, 42876.00
328.5260, 43450.00
329.7340, 44079.00
330.9430, 44153.00
332.1510, 44477.00
333.3590, 44108.00
334.5670, 44003.00
335.7740, 43759.00
336.9820, 43161.00
338.1890, 42559.00
339.3960, 41923.00
340.6030, 41224.00
341.8100, 40504.00
343.0160, 40033.00
344.2220, 39198.84
345.4280, 38439.00
346.6340, 37741.00
347.8400, 36848.00
349.0460, 36256.00
350.2510, 35796.00
351.4560, 35026.00
352.6610, 34530.00
353.8660, 33965.27
355.0700, 33684.51
356.2750, 33360.39
357.4790, 32995.86
358.6830, 32468.62
359.8870, 32151.49
361.0910, 31750.15
362.2940, 31345.67
363.4970, 31058.43
364.7000, 30555.16
365.9030, 30582.00
367.1060, 30336.00
368.3080, 30403.00
369.5110, 30254.00
370.7130, 30251.00
371.9150, 30317.00
373.1170, 30318.00
374.3180, 30534.00
375.5200, 30555.00
376.7210, 30929.00
377.9220, 31267.30
379.1230, 31628.00
380.3230, 32202.00
381.5240, 32742.00
382.7240, 33317.00
383.9240, 34179.00
385.1240, 34819.00
386.3240, 35656.00
387.5230, 36692.00
388.7230, 37658.00
389.9220, 38754.00
391.1210, 39768.00
392.3200, 40472.00
393.5180, 41111.00
394.7170, 41348.00
395.9150, 41254.00
397.1130, 41024.00
398.3110, 40112.00
399.5080, 39241.00
400.7060, 37799.00
401.9030, 36706.00
403.1000, 34843.00
404.2970, 33038.00
405.4940, 31326.00
406.6910, 29963.00
407.8870, 28303.00
409.0830, 26931.00
410.2790, 25492.00
411.4750, 24788.00
412.6710, 23613.00
413.8660, 22804.00
415.0610, 22101.00
416.2560, 21499.00
417.4510, 20893.00
418.6460, 20375.00
419.8410, 19987.00
421.0350, 19626.44
422.2290, 19487.00
423.4230, 19127.00
424.6170, 19078.00
425.8100, 18904.00
427.0040, 18513.00
428.1970, 18399.00
429.3900, 18267.00
430.5830, 18049.00
431.7760, 17972.00
432.9680, 17813.00
434.1610, 17918.00
435.3530, 17708.00
436.5450, 17499.00
437.7360, 17620.00
438.9280, 17411.00
440.1190, 17308.00
441.3110, 17185.00
442.5020, 17095.00
443.6930, 17080.00
444.8830, 17189.00
446.0740, 16899.00
447.2640, 16691.00
448.4540, 16846.00
449.6440, 17039.00
450.8340, 16865.00
452.0240, 16916.00
453.2130, 16789.00
454.4020, 16795.00
455.5910, 16876.00
456.7800, 16778.00
457.9690, 17031.00
459.1570, 17075.00
460.3460, 17004.00
461.5340, 16980.00
462.7220, 17113.00
463.9090, 17136.00
465.0970, 17092.00
466.2840, 17079.00
467.4720, 17084.41
468.6590, 17035.00
469.8460, 17100.00
471.0320, 17045.00
472.2190, 17078.00
473.4050, 17250.00
474.5910, 16967.00
475.7770, 16846.00
476.9630, 16779.00
478.1490, 16934.00
479.3340, 16819.00
480.5190, 16928.00
481.7040, 16822.00
482.8890, 16986.00
484.0740, 16915.00
485.2580, 16815.00
486.4430, 16887.00
487.6270, 16887.00
488.8110, 16944.00
489.9950, 16992.00
491.1780, 17159.00
492.3620, 17101.00
493.5450, 17201.00
494.7280, 17408.00
495.9110, 17518.00
497.0940, 17551.00
498.2760, 17597.00
499.4590, 17953.00
500.6410, 18070.98
501.8230, 18484.00
503.0050, 18643.00
504.1860, 19070.00
505.3680, 19542.00
506.5490, 19977.00
507.7300, 20356.28
508.9110, 20749.00
510.0920, 21032.00
511.2730, 21281.00
512.4530, 21476.00
513.6330, 21330.00
514.8130, 21344.00
515.9930, 21440.00
517.1730, 21348.00
518.3520, 21509.00
519.5320, 21457.00
520.7110, 21424.00
521.8900, 21464.00
523.0690, 21449.00
524.2470, 21436.00
525.4260, 21521.37
526.6040, 21876.00
527.7820, 21748.00
528.9600, 21818.00
530.1380, 22071.00
531.3150, 21918.00
532.4930, 22008.00
533.6700, 22009.00
534.8470, 21923.00
536.0240, 21981.00
537.2000, 21982.00
538.3770, 21928.00
539.5530, 21900.00
540.7290, 21731.00
541.9050, 21614.00
543.0810, 21579.00
544.2570, 21310.00
545.4320, 21098.00
546.6080, 21242.00
547.7830, 20998.00
548.9580, 20966.00
550.1320, 20842.00
551.3070, 20794.00
552.4810, 20589.00
553.6550, 20606.00
554.8300, 20514.00
556.0030, 20419.00
557.1770, 20576.00
558.3510, 20379.00
559.5240, 20369.00
560.6970, 20391.00
561.8700, 20176.00
563.0430, 20177.00
564.2160, 20092.00
565.3880, 20062.00
566.5600, 20004.00
567.7320, 19875.00
568.9040, 19829.00
570.0760, 19588.00
571.2480, 19598.00
572.4190, 19199.00
573.5900, 19232.75
574.7610, 19110.65
575.9320, 18945.50
577.1030, 18739.61
578.2740, 18371.03
579.4440, 18212.74
580.6140, 17970.23
581.7840, 17724.28
582.9540, 17595.56
584.1240, 17250.82
585.2930, 17120.42
586.4630, 16904.36
587.6320, 16727.60
588.8010, 16466.12
589.9700, 16452.00
591.1380, 16102.00
592.3070, 15717.00
593.4750, 15662.00
594.6430, 15311.00
595.8110, 15257.00
596.9790, 14898.00
598.1460, 14724.00
599.3140, 14536.00
600.4810, 14248.00
601.6480, 14260.00
602.8150, 14002.00
603.9820, 13922.00
605.1480, 13954.00
606.3150, 13747.00
607.4810, 13691.00
608.6470, 13823.00
609.8130, 13892.00
610.9790, 13759.00
612.1440, 13672.00
613.3100, 13715.00
614.4750, 13902.00
615.6400, 13768.00
616.8050, 13843.00
617.9690, 13814.00
619.1340, 13955.00
620.2980, 13971.00
621.4620, 14015.00
622.6260, 14198.00
623.7900, 14160.00
624.9540, 14348.00
626.1170, 14369.00
627.2810, 14585.00
628.4440, 14814.00
629.6070, 14811.00
630.7690, 15133.00
631.9320, 15303.00
633.0950, 15639.00
634.2570, 15641.00
635.4190, 16047.00
636.5810, 16271.00
637.7430, 16604.00
638.9040, 16958.00
640.0660, 17287.00
641.2270, 17885.00
642.3880, 18091.00
643.5490, 18820.00
644.7100, 19533.00
645.8700, 20310.00
647.0310, 21240.09
648.1910, 21928.00
649.3510, 23260.00
650.5110, 24394.00
651.6710, 25563.00
652.8300, 27367.00
653.9900, 29091.00
655.1490, 30953.00
656.3080, 33719.00
657.4670, 35732.00
658.6250, 39616.00
659.7840, 41722.00
660.9420, 44634.00
662.1010, 48223.00
663.2590, 50735.00
664.4170, 53211.77
665.5740, 55169.22
666.7320, 56485.00
667.8890, 56993.00
669.0460, 56235.00
670.2030, 54371.00
671.3600, 52095.00
672.5170, 49433.00
673.6740, 46067.00
674.8300, 43415.00
675.9860, 40369.00
677.1420, 37562.00
678.2980, 34976.00
679.4540, 32645.00
680.6090, 30404.00
681.7650, 28798.00
682.9200, 27170.00
684.0750, 25967.00
685.2300, 24587.00
686.3840, 23319.00
687.5390, 22502.00
688.6930, 21682.00
689.8470, 20781.00
691.0010, 20294.00
692.1550, 19665.00
693.3090, 19199.00
694.4620, 18671.00
695.6160, 18470.00
696.7690, 18167.00
697.9220, 17868.00
699.0750, 17680.00
700.2280, 17267.00
701.3800, 17136.00
702.5320, 16839.00
703.6850, 16657.00
704.8370, 16605.00
705.9880, 16397.00
707.1400, 16011.65
708.2920, 15995.82
709.4430, 15937.05
710.5940, 15837.55
711.7450, 15575.34
712.8960, 15523.24
714.0470, 15386.94
715.1970, 15247.28
716.3480, 15224.75
717.4980, 14986.31
718.6480, 14962.02
719.7980, 15169.00
720.9470, 14980.00
722.0970, 14851.00
723.2460, 14806.00
724.3960, 14763.63
725.5450, 14689.57
726.6940, 14678.00
727.8420, 14644.00
728.9910, 14329.00
730.1390, 14395.00
731.2870, 14509.00
732.4350, 14276.00
733.5830, 14385.00
734.7310, 14388.00
735.8790, 14080.00
737.0260, 14252.00
738.1730, 14298.00
739.3200, 14302.00
740.4670, 14317.00
741.6140, 14288.00
742.7610, 14397.00
743.9070, 14497.00
745.0530, 14640.00
746.1990, 14582.33
747.3450, 14475.00
748.4910, 14457.00
749.6370, 14664.00
750.7820, 14633.00
751.9270, 14663.00
753.0720, 14664.00
754.2170, 14722.00
755.3620, 14789.00
756.5070, 14890.00
757.6510, 15029.00
758.7950, 15066.00
759.9400, 15239.00
761.0840, 15313.00
762.2270, 15284.00
763.3710, 15345.00
764.5140, 15380.00
765.6580, 15373.00
766.8010, 15394.00
767.9440, 15497.00
769.0870, 15601.00
770.2290, 15676.00
771.3720, 15509.00
772.5140, 15643.00
773.6560, 15728.00
774.7990, 15893.00
775.9400, 15900.00
777.0820, 15916.00
778.2240, 16106.00
779.3650, 16009.00
780.5060, 16139.00
781.6470, 16176.00
782.7880, 16267.00
783.9290, 16397.00
785.0690, 16309.00
786.2100, 16557.00
787.3500, 16365.00
788.4900, 16444.00
789.6300, 16522.00
790.7700, 16556.00
791.9090, 16669.00
793.0490, 16732.00
794.1880, 16739.00
795.3270, 16996.00
796.4660, 16945.00
797.6050, 16976.00
798.7440, 17197.00
799.8820, 17307.00
801.0200, 17238.00
802.1590, 17534.00
803.2970, 17458.00
804.4340, 17631.00
805.5720, 17626.00
806.7100, 17692.00
807.8470, 17956.00
808.9840, 18079.00
810.1210, 18086.00
811.2580, 18117.00
812.3950, 18273.00
813.5310, 18396.00
814.6680, 18542.00
815.8040, 18606.00
816.9400, 18721.00
818.0760, 18749.00
819.2120, 18725.00
820.3470, 18732.00
821.4830, 18880.00
822.6180, 18933.00
823.7530, 19010.00
824.8880, 19043.31
826.0230, 19058.00
827.1580, 19040.00
828.2920, 19050.00
829.4270, 19007.00
830.5610, 18961.93
831.6950, 18939.59
832.8290, 18914.18
833.9620, 18886.00
835.0960, 18886.00
836.2290, 18911.00
837.3620, 18905.00
838.4950, 18896.00
839.6280, 18828.00
840.7610, 18856.00
841.8940, 18779.00
843.0260, 18890.00
844.1580, 18865.00
845.2910, 19055.00
846.4230, 18940.00
847.5540, 18814.00
848.6860, 18885.00
849.8170, 19110.00
850.9490, 18998.00
852.0800, 19079.00
853.2110, 19133.00
854.3420, 19152.00
855.4730, 19476.00
856.6030, 19431.00
857.7340, 19707.00
858.8640, 19663.68
859.9940, 19790.15
861.1240, 19873.58
862.2540, 19916.28
863.3830, 19796.23
864.5130, 19886.33
865.6420, 19892.20
866.7710, 19894.62
867.9000, 20014.26
869.0290, 19917.89
870.1570, 20125.00
871.2860, 20090.00
872.4140, 20079.46
873.5430, 19965.00
874.6710, 20017.00
875.7980, 19993.00
876.9260, 19938.00
878.0540, 19954.81
879.1810, 19918.90
880.3080, 19924.00
881.4360, 19908.00
882.5630, 19890.00
883.6890, 19935.00
884.8160, 19875.00
885.9420, 19959.00
887.0690, 19894.32
888.1950, 19750.00
889.3210, 19765.00
890.4470, 19912.00
891.5730, 19788.00
892.6980, 19911.00
893.8240, 19770.00
894.9490, 19776.35
896.0740, 19988.00
897.1990, 19775.00
898.3240, 19725.00
899.4480, 19821.00
900.5730, 19662.00
901.6970, 19776.00
902.8210, 19694.00
903.9450, 19776.00
905.0690, 19977.00
906.1930, 19853.00
907.3160, 19851.00
908.4400, 20032.00
909.5630, 20069.00
910.6860, 20010.00
911.8090, 19967.00
912.9320, 20029.00
914.0550, 20076.00
915.1770, 20185.00
916.2990, 20376.00
917.4210, 20322.00
918.5440, 20493.00
919.6650, 20410.00
920.7870, 20479.00
921.9090, 20414.00
923.0300, 20649.00
924.1510, 20649.00
925.2720, 20768.00
926.3930, 20746.00
927.5140, 20674.00
928.6350, 20915.00
929.7550, 20960.00
930.8760, 20906.00
931.9960, 21102.00
933.1160, 21023.00
934.2360, 21074.00
935.3550, 20973.00
936.4750, 21047.00
937.5940, 21086.00
938.7140, 21101.00
939.8330, 21303.00
940.9520, 21183.00
942.0710, 21344.00
943.1890, 21087.00
944.3080, 21196.00
945.4260, 21427.00
946.5440, 21407.00
947.6620, 21572.00
948.7800, 21865.00
949.8980, 22296.00
951.0160, 21763.00
952.1330, 22094.00
953.2500, 22026.00
954.3680, 22292.00
955.4850, 22563.00
956.6010, 22636.00
957.7180, 22975.00
958.8350, 23180.00
959.9510, 23266.00
961.0670, 23643.00
962.1830, 23728.00
963.2990, 23985.52
964.4150, 24205.00
965.5310, 24489.00
966.6460, 24755.00
967.7620, 25097.00
968.8770, 25297.00
969.9920, 25749.00
971.1070, 26152.00
972.2210, 26412.00
973.3360, 26967.00
974.4500, 27240.00
975.5650, 27827.00
976.6790, 28298.95
977.7930, 29087.00
978.9070, 29386.00
980.0200, 30129.00
981.1340, 30795.00
982.2470, 31494.00
983.3610, 32086.00
984.4740, 32805.00
985.5870, 33578.00
986.6990, 34513.81
987.8120, 35720.00
988.9250, 36728.00
990.0370, 37894.00
991.1490, 39362.00
992.2610, 40449.00
993.3730, 42129.00
994.4850, 43767.00
995.5960, 45035.00
996.7080, 46560.00
997.8190, 48446.00
998.9300, 50008.00
1000.041, 51655.00
1001.152, 53070.00
1002.263, 54460.00
1003.373, 55418.00
1004.484, 56119.00
1005.594, 56877.00
1006.704, 57102.00
1007.814, 56703.00
1008.924, 55825.00
1010.034, 54927.00
1011.143, 53284.00
1012.253, 51158.00
1013.362, 49602.00
1014.471, 47303.00
1015.580, 44993.00
1016.689, 42983.00
1017.797, 40974.00
1018.906, 39144.00
1020.014, 37315.00
1021.122, 35541.00
1022.230, 34262.00
1023.338, 33121.00
1024.446, 32405.00
1025.554, 31212.00
1026.661, 30595.00
1027.768, 29836.00
1028.875, 29523.00
1029.983, 29041.00
1031.089, 28685.00
1032.196, 28292.00
1033.303, 27849.00
1034.409, 27581.00
1035.515, 27220.03
1036.622, 26941.00
1037.728, 26769.00
1038.833, 26204.00
1039.939, 26286.00
1041.045, 25829.00
1042.150, 25463.00
1043.255, 25398.00
1044.360, 25106.00
1045.465, 24740.94
1046.570, 24534.00
1047.675, 24010.00
1048.779, 23725.00
1049.884, 23459.00
1050.988, 23009.00
1052.092, 22799.00
1053.196, 22519.00
1054.300, 22313.00
1055.404, 21761.00
1056.507, 21806.00
1057.610, 21418.00
1058.714, 21102.00
1059.817, 20982.00
1060.920, 20625.00
1062.022, 20682.00
1063.125, 20276.00
1064.228, 19942.00
1065.330, 19888.00
1066.432, 19723.00
1067.534, 19558.00
1068.636, 19151.00
1069.738, 19283.00
1070.840, 19163.00
1071.941, 18879.00
1073.042, 18932.00
1074.144, 18702.00
1075.245, 18390.00
1076.346, 18305.00
1077.446, 18207.04
1078.547, 18294.00
1079.647, 18123.00
1080.748, 18194.00
1081.848, 18040.00
1082.948, 17817.00
1084.048, 17919.00
1085.148, 17876.00
1086.247, 17720.00
1087.347, 17491.00
1088.446, 17501.00
1089.545, 17413.00
1090.644, 17353.00
1091.743, 17313.00
1092.842, 17078.00
1093.940, 17086.00
1095.039, 16974.00
1096.137, 16988.00
1097.235, 16891.00
1098.333, 16714.00
1099.431, 16533.00
1100.529, 16821.00
1101.627, 16720.00
1102.724, 16608.00
1103.822, 16568.00
1104.919, 16452.00
1106.016, 16400.45
1107.113, 16322.99
1108.209, 16296.00
1109.306, 16182.00
1110.402, 16146.00
1111.499, 16094.00
1112.595, 16151.00
1113.691, 15946.00
1114.787, 16041.00
1115.883, 15932.00
1116.978, 15896.00
1118.074, 15911.00
1119.169, 15861.00
1120.264, 15579.00
1121.359, 15673.00
1122.454, 15574.00
1123.549, 15522.00
1124.644, 15512.00
1125.738, 15206.00
1126.832, 15029.00
1127.927, 14872.00
1129.021, 14693.00
1130.115, 14690.00
1131.208, 14435.00
1132.302, 14286.00
1133.396, 14408.00
1134.489, 14244.00
1135.582, 13987.00
1136.675, 14000.00
1137.768, 13919.00
1138.861, 13598.00
1139.954, 13720.00
1141.046, 13562.00
1142.138, 13529.00
1143.231, 13578.00
1144.323, 13354.00
1145.415, 13291.00
1146.507, 13114.00
1147.598, 13300.00
1148.690, 13134.00
1149.781, 13223.00
1150.872, 12897.00
1151.964, 12956.00
1153.054, 13004.00
1154.145, 12952.00
1155.236, 12962.00
1156.327, 13095.00
1157.417, 12809.00
1158.507, 12954.00
1159.597, 12771.00
1160.687, 12676.00
1161.777, 12867.00
1162.867, 12888.00
1163.956, 12865.00
1165.046, 12638.00
1166.135, 12668.00
1167.224, 12729.00
1168.313, 12548.00
1169.402, 12733.00
1170.491, 12682.00
1171.580, 12695.00
1172.668, 12598.00
1173.756, 12612.00
1174.845, 12581.00
1175.933, 12563.00
1177.020, 12544.00
1178.108, 12610.00
1179.196, 12621.00
1180.283, 12543.00
1181.371, 12567.74
1182.458, 12515.00
1183.545, 12493.00
1184.632, 12569.00
1185.719, 12486.20
1186.805, 12498.73
1187.892, 12506.33
1188.978, 12451.00
1190.065, 12531.00
1191.151, 12506.00
1192.237, 12563.00
1193.323, 12453.00
1194.408, 12383.00
1195.494, 12459.00
1196.579, 12495.00
1197.664, 12455.60
1198.750, 12549.33
1199.835, 12600.03
1200.919, 12610.01
1202.004, 12457.27
1203.089, 12514.64
1204.173, 12487.81
1205.258, 12457.52
1206.342, 12544.47
1207.426, 12415.40
1208.510, 12500.48
1209.594, 12500.08
1210.677, 12538.81
1211.761, 12492.81
1212.844, 12472.99
1213.927, 12537.91
1215.010, 12555.91
1216.093, 12500.16
1217.176, 12541.38
1218.259, 12409.35
1219.341, 12547.00
1220.424, 12421.00
1221.506, 12450.00
1222.588, 12359.00
1223.670, 12508.00
1224.752, 12477.00
1225.834, 12447.00
1226.915, 12503.00
1227.997, 12405.00
1229.078, 12556.00
1230.159, 12334.00
1231.240, 12329.00
1232.321, 12424.00
1233.402, 12324.00
1234.483, 12525.00
1235.563, 12387.00
1236.644, 12508.00
1237.724, 12480.00
1238.804, 12397.00
1239.884, 12495.00
1240.964, 12624.00
1242.044, 12535.33
1243.123, 12510.00
1244.203, 12387.00
1245.282, 12365.98
1246.361, 12309.71
1247.440, 12309.00
1248.519, 12386.00
1249.598, 12397.00
1250.676, 12492.00
1251.755, 12328.00
1252.833, 12344.00
1253.911, 12488.00
1254.989, 12442.00
1256.067, 12534.00
1257.145, 12375.00
1258.223, 12495.00
1259.300, 12502.00
1260.378, 12426.00
1261.455, 12451.22
1262.532, 12546.62
1263.609, 12598.98
1264.686, 12610.61
1265.763, 12459.52
1266.840, 12518.55
1267.916, 12493.38
1268.992, 12464.75
1270.069, 12553.35
1271.145, 12425.94
1272.221, 12512.68
1273.296, 12513.94
1274.372, 12554.32
1275.448, 12509.98
1276.523, 12491.81
1277.598, 12558.39
1278.673, 12578.05
1279.749, 12523.95
1280.823, 12566.83
1281.898, 12436.45
1282.973, 12458.11
1284.047, 12545.35
1285.122, 12410.00
1286.196, 12327.00
1287.270, 12356.00
1288.344, 12430.00
1289.418, 12461.00
1290.491, 12390.00
1291.565, 12476.00
1292.638, 12404.00
1293.712, 12493.00
1294.785, 12459.00
1295.858, 12440.30
1296.931, 12540.62
1298.003, 12597.90
1299.076, 12614.45
1300.149, 12468.29
1301.221, 12532.24
1302.293, 12511.98
1303.365, 12488.27
1304.437, 12581.79
1305.509, 12459.29
1306.581, 12550.95
1307.652, 12557.12
1308.724, 12602.42
1309.795, 12562.99
1310.866, 12549.73
1311.937, 12621.22
1313.008, 12566.00
1314.079, 12587.00
1315.150, 12609.80
1316.220, 12629.22
1317.291, 12665.00
1318.361, 12680.00
1319.431, 12669.00
1320.501, 12711.00
1321.571, 12570.00
1322.641, 12594.00
1323.710, 12712.00
1324.780, 12535.00
1325.849, 12756.00
1326.918, 12480.00
1327.987, 12747.00
1329.056, 12726.00
1330.125, 12793.00
1331.194, 12748.00
1332.263, 12610.00
1333.331, 12647.00
1334.399, 12524.00
1335.467, 12580.68
1336.535, 12712.00
1337.603, 12686.00
1338.671, 12762.00
1339.739, 12792.00
1340.806, 12716.00
1341.874, 12888.00
1342.941, 12824.00
1344.008, 12874.00
1345.075, 12855.00
1346.142, 12847.20
1347.209, 12762.00
1348.275, 12844.00
1349.342, 12784.00
1350.408, 12782.00
1351.475, 12893.00
1352.541, 12997.00
1353.607, 12951.68
1354.673, 12913.07
1355.738, 12921.00
1356.804, 12876.05
1357.869, 12850.31
1358.935, 12827.00
1360.000, 12801.00
1361.065, 12784.00
1362.130, 12801.00
1363.195, 12815.00
1364.259, 12799.63
1365.324, 12809.13
1366.388, 12818.00
1367.453, 12820.00
1368.517, 12909.00
1369.581, 12958.00
1370.645, 12766.00
1371.709, 12907.00
1372.772, 12897.00
1373.836, 12660.00
1374.899, 12771.00
1375.963, 12816.00
1377.026, 12847.00
1378.089, 12870.00
1379.152, 12836.00
1380.214, 12868.00
1381.277, 12878.00
1382.340, 12972.00
1383.402, 12946.24
1384.464, 12844.00
1385.526, 12934.00
1386.588, 12932.00
1387.650, 12928.00
1388.712, 12761.00
1389.774, 12875.00
1390.835, 12861.00
1391.896, 12838.00
1392.958, 12895.00
1394.019, 12773.00
1395.080, 12861.00
1396.141, 12676.00
1397.201, 12926.00
1398.262, 12998.00
1399.323, 12788.00
1400.383, 12910.79
1401.443, 12945.00
1402.503, 12874.00
1403.563, 12823.00
1404.623, 12872.00
1405.683, 12959.00
1406.742, 12944.00
1407.802, 12882.00
1408.861, 12881.22
1409.920, 12898.42
1410.980, 12821.00
1412.039, 12870.00
1413.097, 12935.00
1414.156, 12716.00
1415.215, 12911.00
1416.273, 12797.00
1417.331, 12864.00
1418.390, 12962.00
1419.448, 12893.00
1420.506, 12832.00
1421.564, 12702.00
1422.621, 12836.00
1423.679, 12867.00
1424.736, 12839.91
1425.794, 12860.99
1426.851, 12832.00
1427.908, 12778.00
1428.965, 12742.00
1430.022, 12677.00
1431.079, 12935.00
1432.135, 12754.00
1433.192, 12847.00
1434.248, 12904.00
1435.304, 12755.00
1436.360, 12948.00
1437.416, 12914.00
1438.472, 12777.00
1439.528, 12729.00
1440.583, 12829.00
1441.639, 12840.00
1442.694, 13085.00
1443.749, 12867.00
1444.804, 12873.00
1445.859, 12712.00
1446.914, 12933.00
1447.969, 13005.00
1449.024, 12868.00
1450.078, 12992.00
1451.132, 12964.00
1452.187, 12925.00
1453.241, 12944.00
1454.295, 13007.00
1455.349, 12896.00
1456.402, 12881.00
1457.456, 12742.00
1458.509, 12905.00
1459.563, 13027.00
1460.616, 13010.00
1461.669, 12947.00
1462.722, 12904.00
1463.775, 12876.00
1464.828, 12985.00
1465.880, 12875.00
1466.933, 12946.00
1467.985, 12986.00
1469.037, 12893.00
1470.090, 13041.00
1471.142, 12811.00
1472.193, 12876.00
1473.245, 13065.00
1474.297, 12902.00
1475.348, 12842.00
1476.400, 12782.00
1477.451, 12933.00
1478.502, 13006.00
1479.553, 12957.92
1480.604, 12947.00
1481.655, 12895.00
1482.706, 12899.00
1483.756, 12872.00
1484.807, 12858.00
1485.857, 12832.00
1486.907, 12948.00
1487.957, 12890.00
1489.007, 12917.00
1490.057, 12848.00
1491.106, 12886.00
1492.156, 12685.00
1493.205, 12894.00
1494.255, 12753.00
1495.304, 12963.00
1496.353, 12963.00
1497.402, 12910.00
1498.451, 12868.00
1499.500, 12865.00
1500.548, 12986.00
1501.597, 12956.00
1502.645, 13035.00
1503.693, 12926.00
1504.741, 13017.00
1505.789, 12891.00
1506.837, 12832.00
1507.885, 13041.00
1508.932, 13044.00
1509.980, 12937.00
1511.027, 12939.00
1512.075, 12854.00
1513.122, 12836.00
1514.169, 12971.00
1515.216, 12977.00
1516.262, 12927.00
1517.309, 12895.00
1518.356, 12930.00
1519.402, 12860.00
1520.448, 12990.00
1521.495, 12833.00
1522.541, 12948.00
1523.587, 12961.00
1524.632, 13000.00
1525.678, 13029.00
1526.724, 12963.00
1527.769, 13015.00
1528.814, 13043.00
1529.860, 13025.04
1530.905, 13087.00
1531.950, 13042.00
1532.995, 12984.00
1534.039, 12940.90
1535.084, 13042.02
1536.128, 13100.10
1537.173, 13117.45
1538.217, 12972.09
1539.261, 13036.83
1540.305, 13017.38
1541.349, 12994.46
1542.393, 13088.78
1543.436, 12967.08
1544.480, 13059.54
1545.523, 13066.51
1546.567, 13112.61
1547.610, 13073.98
1548.653, 13061.52
1549.696, 13133.81
1550.739, 13159.17
1551.781, 13110.79
1552.824, 13159.37
1553.867, 13034.71
1554.909, 13062.07
1555.951, 13155.02
1556.993, 13110.89
1558.035, 13161.02
1559.077, 13175.25
1560.119, 13026.35
1561.161, 13161.15
1562.202, 13056.00
1563.243, 13033.00
1564.285, 13070.00
1565.326, 13249.00
##END=



