##NAMES=Diopside
##RRUFFID=R050666
##IDEAL CHEMISTRY=CaMgSi_2_O_6_
##LOCALITY=Franklin, Sussex County, New Jersey, USA
##OWNER=RRUFF
##SOURCE=University of Arizona Mineral Museum
##DESCRIPTION=Brown cleavage fragment with white hardystonite
##STATUS=The identification of this mineral has been confirmed by X-ray diffraction and chemical analysis
##URL=rruff.info/R050666
##MEASURED CHEMISTRY=Ca(Mg_0.66_Mn_0.33_Fe_0.01_)Si_2_O_6_
##PIN_ID=L00874
##ORIENTATION=Laser parallel to -b* (0 -1 0). Fiducial mark perpendicular to laser is parallel to -c [0 0 -1]
109.5120, 8007.000
110.7440, 6775.000
111.9760, 6572.000
113.2080, 6592.000
114.4400, 6939.000
115.6710, 7057.000
116.9030, 7070.000
118.1340, 7037.000
119.3650, 7119.000
120.5960, 7291.000
121.8270, 7489.000
123.0580, 8050.000
124.2880, 8546.000
125.5190, 8914.000
126.7490, 9469.000
127.9790, 10475.00
129.2090, 11682.00
130.4390, 12944.00
131.6680, 14043.00
132.8980, 14243.00
134.1270, 13574.00
135.3560, 12168.00
136.5850, 10935.00
137.8140, 10057.00
139.0430, 9205.000
140.2710, 8620.000
141.5000, 8124.000
142.7280, 7743.000
143.9560, 7482.000
145.1840, 7366.000
146.4120, 7324.000
147.6390, 7232.000
148.8670, 7164.000
150.0940, 7214.000
151.3210, 7176.052
152.5490, 7302.000
153.7750, 7222.000
155.0020, 7224.000
156.2290, 7269.000
157.4550, 7230.000
158.6810, 7233.100
159.9080, 7127.000
161.1340, 7207.000
162.3590, 7221.000
163.5850, 7236.000
164.8110, 7290.000
166.0360, 7360.000
167.2610, 7211.000
168.4860, 7319.000
169.7110, 7427.000
170.9360, 7688.000
172.1610, 7677.000
173.3850, 8000.000
174.6100, 7770.000
175.8340, 7600.000
177.0580, 7612.000
178.2820, 7573.000
179.5050, 7433.000
180.7290, 7515.000
181.9520, 7296.000
183.1760, 7448.000
184.3990, 7503.000
185.6220, 7532.000
186.8450, 7507.000
188.0670, 7525.000
189.2900, 7544.924
190.5120, 7506.000
191.7340, 7594.000
192.9560, 7619.000
194.1780, 7648.000
195.4000, 7531.000
196.6220, 7669.000
197.8430, 7678.000
199.0640, 7690.000
200.2860, 7791.000
201.5070, 7717.000
202.7270, 7808.000
203.9480, 7662.000
205.1690, 7660.000
206.3890, 7505.000
207.6090, 7591.000
208.8290, 7500.000
210.0490, 7603.000
211.2690, 7601.000
212.4890, 7597.000
213.7080, 7596.000
214.9280, 7654.000
216.1470, 7678.000
217.3660, 7715.365
218.5850, 7766.987
219.8030, 7793.000
221.0220, 7872.000
222.2400, 7901.000
223.4590, 7968.000
224.6770, 8030.000
225.8950, 8198.000
227.1120, 8293.000
228.3300, 8442.000
229.5480, 8705.000
230.7650, 8931.000
231.9820, 9049.000
233.1990, 8943.000
234.4160, 8866.000
235.6330, 8664.000
236.8490, 8562.859
238.0660, 8332.000
239.2820, 8291.000
240.4980, 8152.000
241.7140, 8037.000
242.9300, 8072.000
244.1460, 8169.000
245.3610, 8216.000
246.5770, 8020.000
247.7920, 8098.000
249.0070, 8007.000
250.2220, 8156.000
251.4370, 8197.000
252.6510, 8137.000
253.8660, 8183.000
255.0800, 8203.000
256.2940, 8256.000
257.5080, 8519.000
258.7220, 8421.975
259.9360, 8759.000
261.1490, 8367.000
262.3630, 8272.000
263.5760, 8238.000
264.7890, 8330.000
266.0020, 8243.000
267.2150, 8110.000
268.4270, 8195.000
269.6400, 8228.000
270.8520, 8205.000
272.0640, 8293.000
273.2760, 8161.000
274.4880, 8319.000
275.7000, 8292.000
276.9120, 8252.000
278.1230, 8354.000
279.3340, 8293.000
280.5450, 8338.000
281.7560, 8398.000
282.9670, 8396.000
284.1780, 8492.000
285.3880, 8449.000
286.5980, 8476.000
287.8090, 8550.000
289.0190, 8650.000
290.2290, 8633.000
291.4380, 8967.000
292.6480, 8948.000
293.8570, 9115.000
295.0670, 9150.000
296.2760, 9501.000
297.4850, 9582.000
298.6930, 9938.000
299.9020, 10097.00
301.1110, 10584.00
302.3190, 10962.00
303.5270, 11623.00
304.7350, 12102.00
305.9430, 12677.00
307.1510, 13389.00
308.3580, 14096.00
309.5660, 14888.00
310.7730, 15670.00
311.9800, 16150.00
313.1870, 16833.00
314.3940, 16677.00
315.6010, 16600.00
316.8070, 16099.00
318.0130, 15334.00
319.2200, 14482.00
320.4260, 13544.00
321.6310, 12929.00
322.8370, 12232.00
324.0430, 11786.00
325.2480, 11338.00
326.4540, 11049.00
327.6590, 10960.00
328.8640, 10586.00
330.0680, 10519.00
331.2730, 10404.00
332.4780, 10340.00
333.6820, 10411.00
334.8860, 10538.00
336.0900, 10671.20
337.2940, 10931.00
338.4980, 11142.00
339.7010, 11457.00
340.9050, 11824.00
342.1080, 12318.00
343.3110, 12670.00
344.5140, 13020.00
345.7170, 13495.00
346.9200, 13562.00
348.1220, 13695.00
349.3240, 13542.00
350.5270, 13168.00
351.7290, 12891.00
352.9310, 12533.00
354.1320, 12203.00
355.3340, 11719.00
356.5350, 11499.00
357.7370, 11184.00
358.9380, 11149.00
360.1390, 10904.00
361.3400, 10894.00
362.5400, 10790.00
363.7410, 11009.00
364.9410, 10882.00
366.1410, 11001.00
367.3410, 11252.00
368.5410, 11393.00
369.7410, 11763.00
370.9400, 12231.00
372.1400, 12818.00
373.3390, 13519.75
374.5380, 14209.00
375.7370, 15233.00
376.9360, 16317.00
378.1350, 17405.00
379.3330, 18362.00
380.5310, 19062.00
381.7300, 19201.00
382.9280, 18673.00
384.1260, 17596.00
385.3230, 16281.00
386.5210, 14960.00
387.7180, 13825.00
388.9160, 12647.00
390.1130, 11947.00
391.3100, 11183.00
392.5060, 10717.00
393.7030, 10312.00
394.9000, 10085.00
396.0960, 9913.000
397.2920, 9620.000
398.4880, 9503.000
399.6840, 9472.000
400.8800, 9224.000
402.0750, 9297.000
403.2710, 9132.000
404.4660, 9191.000
405.6610, 9109.000
406.8560, 9040.000
408.0510, 9065.000
409.2450, 8977.000
410.4400, 8976.000
411.6340, 8946.824
412.8280, 9037.000
414.0220, 8938.000
415.2160, 8968.000
416.4100, 9066.000
417.6030, 8901.000
418.7970, 8851.000
419.9900, 8878.000
421.1830, 8878.000
422.3760, 8885.273
423.5690, 8833.000
424.7610, 8914.000
425.9540, 8955.000
427.1460, 8945.000
428.3380, 9052.000
429.5300, 8964.000
430.7220, 9003.000
431.9140, 8913.000
433.1050, 9058.000
434.2970, 9045.000
435.4880, 8979.000
436.6790, 8956.000
437.8700, 8876.000
439.0610, 8999.000
440.2510, 9106.000
441.4420, 9157.000
442.6320, 9078.000
443.8220, 9136.000
445.0120, 8995.000
446.2020, 9185.000
447.3910, 9203.000
448.5810, 9261.000
449.7700, 9193.000
450.9600, 9264.000
452.1490, 9268.000
453.3370, 9315.000
454.5260, 9173.000
455.7150, 9289.000
456.9030, 9251.000
458.0910, 9198.000
459.2800, 9304.000
460.4670, 9108.000
461.6550, 9263.000
462.8430, 9073.000
464.0300, 9140.000
465.2180, 9257.000
466.4050, 9041.000
467.5920, 9059.000
468.7790, 9015.000
469.9650, 9089.000
471.1520, 9160.000
472.3380, 9107.000
473.5250, 9189.000
474.7110, 9181.000
475.8970, 9143.000
477.0820, 9182.622
478.2680, 9269.000
479.4540, 9177.000
480.6390, 9162.000
481.8240, 9126.000
483.0090, 9242.000
484.1940, 9190.000
485.3780, 9246.000
486.5630, 9187.000
487.7470, 9385.000
488.9320, 9352.000
490.1160, 9466.000
491.3000, 9528.000
492.4830, 9516.000
493.6670, 9700.000
494.8500, 9812.000
496.0340, 10031.00
497.2170, 10268.00
498.4000, 10538.00
499.5820, 10725.00
500.7650, 10912.00
501.9480, 10803.00
503.1300, 10701.00
504.3120, 10401.00
505.4940, 10104.00
506.6760, 9989.000
507.8580, 9888.000
509.0390, 9910.000
510.2210, 9821.000
511.4020, 9711.000
512.5830, 9643.000
513.7640, 9700.000
514.9450, 9649.000
516.1250, 9778.000
517.3060, 9739.000
518.4860, 9735.000
519.6660, 9840.000
520.8460, 9713.000
522.0260, 9777.000
523.2060, 9842.000
524.3850, 9810.000
525.5650, 9775.000
526.7440, 9914.000
527.9230, 9900.000
529.1020, 9736.000
530.2810, 9801.000
531.4590, 9789.000
532.6380, 9678.000
533.8160, 9750.000
534.9940, 9776.000
536.1720, 9837.000
537.3500, 9740.000
538.5270, 9821.000
539.7050, 9824.000
540.8820, 9807.000
542.0590, 9832.000
543.2360, 9966.000
544.4130, 9983.000
545.5900, 9963.000
546.7660, 10153.00
547.9430, 10234.00
549.1190, 10341.00
550.2950, 10566.00
551.4710, 10807.00
552.6470, 10927.00
553.8220, 11099.00
554.9980, 11004.00
556.1730, 10758.00
557.3480, 10691.00
558.5230, 10510.00
559.6980, 10411.00
560.8730, 10249.00
562.0470, 10082.00
563.2220, 10027.00
564.3960, 9913.000
565.5700, 9994.000
566.7440, 9985.000
567.9170, 9948.000
569.0910, 9950.460
570.2640, 9917.000
571.4380, 9874.000
572.6110, 9836.000
573.7840, 9790.000
574.9570, 9794.000
576.1290, 9779.562
577.3020, 9829.000
578.4740, 9797.000
579.6460, 9801.166
580.8180, 9824.000
581.9900, 9760.000
583.1620, 9810.000
584.3330, 9801.000
585.5040, 9671.000
586.6760, 9679.000
587.8470, 9571.000
589.0180, 9743.000
590.1880, 9732.000
591.3590, 9833.000
592.5290, 9797.000
593.7000, 9810.000
594.8700, 9854.000
596.0400, 9769.000
597.2090, 9864.000
598.3790, 9769.000
599.5490, 9851.000
600.7180, 9767.000
601.8870, 9908.000
603.0560, 9940.000
604.2250, 9774.000
605.3940, 9894.000
606.5620, 9983.000
607.7300, 9858.000
608.8990, 9928.000
610.0670, 9945.000
611.2350, 10103.00
612.4020, 10039.00
613.5700, 10160.00
614.7370, 10079.00
615.9050, 10210.00
617.0720, 10237.00
618.2390, 10310.00
619.4060, 10387.00
620.5720, 10401.00
621.7390, 10459.00
622.9050, 10486.00
624.0710, 10600.00
625.2370, 10734.00
626.4030, 10814.00
627.5690, 10885.90
628.7340, 10948.00
629.9000, 11016.00
631.0650, 11110.00
632.2300, 11240.00
633.3950, 11334.64
634.5600, 11455.00
635.7240, 11595.00
636.8890, 11844.00
638.0530, 12043.00
639.2170, 12357.00
640.3810, 12754.00
641.5450, 13012.00
642.7080, 13230.00
643.8720, 13794.00
645.0350, 14706.00
646.1980, 15661.00
647.3610, 16695.00
648.5240, 18039.00
649.6870, 19807.00
650.8490, 21873.00
652.0120, 24512.00
653.1740, 27469.00
654.3360, 30740.00
655.4980, 34368.00
656.6600, 37408.00
657.8210, 40636.00
658.9830, 42339.00
660.1440, 42477.00
661.3050, 41284.00
662.4660, 38287.00
663.6270, 34922.00
664.7870, 31115.00
665.9480, 27888.00
667.1080, 24884.00
668.2680, 22346.24
669.4280, 20158.95
670.5880, 18362.00
671.7480, 16867.00
672.9070, 15714.00
674.0670, 14944.00
675.2260, 14310.00
676.3850, 13602.00
677.5440, 13135.00
678.7030, 12778.00
679.8610, 12545.00
681.0200, 12343.00
682.1780, 12097.71
683.3360, 11749.00
684.4940, 11685.00
685.6520, 11469.00
686.8090, 11208.00
687.9670, 11222.00
689.1240, 11213.00
690.2810, 11047.00
691.4380, 10926.00
692.5950, 11038.00
693.7520, 10940.00
694.9080, 10816.00
696.0650, 10802.00
697.2210, 10868.00
698.3770, 10784.00
699.5330, 10770.66
700.6880, 10715.00
701.8440, 10691.00
702.9990, 10648.00
704.1550, 10662.00
705.3100, 10628.00
706.4650, 10627.00
707.6190, 10583.00
708.7740, 10438.00
709.9290, 10495.00
711.0830, 10523.00
712.2370, 10374.00
713.3910, 10422.00
714.5450, 10417.00
715.6980, 10454.00
716.8520, 10556.00
718.0050, 10481.53
719.1580, 10425.00
720.3110, 10374.00
721.4640, 10438.00
722.6170, 10380.00
723.7700, 10390.00
724.9220, 10393.00
726.0740, 10366.00
727.2260, 10411.00
728.3780, 10406.00
729.5300, 10501.00
730.6810, 10349.00
731.8330, 10528.00
732.9840, 10335.00
734.1350, 10421.00
735.2860, 10394.00
736.4370, 10381.00
737.5880, 10392.00
738.7380, 10402.00
739.8880, 10393.00
741.0390, 10449.00
742.1890, 10578.00
743.3380, 10686.00
744.4880, 10661.69
745.6380, 10687.43
746.7870, 10568.00
747.9360, 10591.00
749.0850, 10464.00
750.2340, 10376.00
751.3830, 10427.71
752.5310, 10533.00
753.6800, 10486.00
754.8280, 10549.00
755.9760, 10539.00
757.1240, 10562.12
758.2720, 10710.00
759.4190, 10596.00
760.5670, 10603.00
761.7140, 10572.00
762.8610, 10683.00
764.0080, 10587.00
765.1550, 10570.00
766.3020, 10639.00
767.4480, 10595.00
768.5950, 10583.00
769.7410, 10607.00
770.8870, 10521.00
772.0330, 10691.00
773.1780, 10634.00
774.3240, 10657.00
775.4690, 10613.00
776.6140, 10729.00
777.7590, 10720.00
778.9040, 10720.00
780.0490, 10667.00
781.1940, 10594.00
782.3380, 10527.00
783.4820, 10587.65
784.6260, 10642.00
785.7700, 10696.00
786.9140, 10710.00
788.0580, 10678.00
789.2010, 10682.00
790.3450, 10633.00
791.4880, 10654.00
792.6310, 10779.00
793.7730, 10694.00
794.9160, 10717.00
796.0590, 10637.00
797.2010, 10666.00
798.3430, 10761.00
799.4850, 10702.00
800.6270, 10668.00
801.7690, 10857.00
802.9100, 10734.00
804.0520, 10692.00
805.1930, 10856.00
806.3340, 10826.00
807.4750, 10702.00
808.6160, 10690.00
809.7560, 10781.00
810.8970, 10773.00
812.0370, 10820.00
813.1770, 10770.00
814.3170, 10741.00
815.4570, 10816.84
816.5960, 10893.00
817.7360, 10938.00
818.8750, 10956.00
820.0140, 10984.00
821.1530, 10992.00
822.2920, 10983.00
823.4310, 10841.00
824.5690, 11123.00
825.7070, 10960.00
826.8460, 11037.00
827.9840, 11155.00
829.1220, 11044.00
830.2590, 11101.00
831.3970, 10982.00
832.5340, 11229.00
833.6710, 11239.00
834.8080, 11469.00
835.9450, 11544.00
837.0820, 11695.00
838.2190, 11878.00
839.3550, 12002.00
840.4910, 12381.00
841.6270, 12889.00
842.7630, 13165.00
843.8990, 13545.00
845.0350, 14220.00
846.1700, 14650.00
847.3060, 14761.00
848.4410, 14930.00
849.5760, 14417.00
850.7100, 14229.00
851.8450, 13743.00
852.9800, 13431.00
854.1140, 13002.00
855.2480, 12587.00
856.3820, 12417.00
857.5160, 12224.00
858.6500, 12076.00
859.7830, 11962.14
860.9170, 11830.00
862.0500, 11816.00
863.1830, 11813.00
864.3160, 11841.00
865.4480, 11731.00
866.5810, 11842.00
867.7130, 11710.00
868.8460, 11805.00
869.9780, 11730.00
871.1100, 11877.00
872.2410, 11723.00
873.3730, 11772.00
874.5050, 11756.00
875.6360, 11809.00
876.7670, 11893.00
877.8980, 11790.00
879.0290, 11780.00
880.1590, 11797.00
881.2900, 11895.00
882.4200, 11775.00
883.5500, 11762.00
884.6800, 11806.00
885.8100, 11726.00
886.9400, 11747.00
888.0690, 11790.00
889.1990, 11864.00
890.3280, 11810.00
891.4570, 11870.00
892.5860, 11866.00
893.7140, 11779.00
894.8430, 11783.00
895.9710, 11834.00
897.1000, 11889.00
898.2280, 11785.00
899.3560, 11988.00
900.4830, 11917.00
901.6110, 11813.00
902.7380, 11888.00
903.8660, 11850.00
904.9930, 11942.00
906.1200, 11883.00
907.2460, 11852.00
908.3730, 12042.00
909.5000, 11826.00
910.6260, 12151.00
911.7520, 12039.00
912.8780, 11999.00
914.0040, 11987.00
915.1290, 11992.00
916.2550, 12051.00
917.3800, 12010.00
918.5050, 11901.00
919.6300, 11992.00
920.7550, 11967.00
921.8800, 11938.00
923.0040, 11982.00
924.1290, 12176.00
925.2530, 11920.00
926.3770, 12148.00
927.5010, 12047.00
928.6250, 12175.00
929.7480, 11994.00
930.8720, 12090.00
931.9950, 12057.00
933.1180, 12159.00
934.2410, 12007.00
935.3640, 12083.00
936.4860, 11974.00
937.6090, 11919.00
938.7310, 11948.00
939.8530, 11968.00
940.9750, 12034.00
942.0970, 11905.00
943.2180, 11951.00
944.3400, 12124.00
945.4610, 12028.00
946.5820, 12119.00
947.7030, 12107.00
948.8240, 12054.00
949.9450, 12102.00
951.0650, 12130.00
952.1860, 12203.00
953.3060, 12226.00
954.4260, 12326.00
955.5460, 12360.00
956.6650, 12343.00
957.7850, 12378.00
958.9040, 12379.00
960.0230, 12489.00
961.1420, 12505.00
962.2610, 12419.00
963.3800, 12564.00
964.4990, 12597.00
965.6170, 12527.00
966.7350, 12621.85
967.8530, 12556.00
968.9710, 12662.00
970.0890, 12696.00
971.2070, 12686.00
972.3240, 12788.00
973.4410, 12750.00
974.5580, 12623.00
975.6750, 12947.00
976.7920, 12814.00
977.9090, 12948.00
979.0250, 12953.00
980.1410, 13018.00
981.2580, 13173.00
982.3740, 13256.00
983.4890, 13327.00
984.6050, 13444.42
985.7200, 13417.00
986.8360, 13620.00
987.9510, 13713.00
989.0660, 13777.00
990.1810, 14111.00
991.2950, 14129.00
992.4100, 14404.00
993.5240, 14939.00
994.6390, 15096.00
995.7530, 15582.00
996.8660, 16054.00
997.9800, 16874.00
999.0940, 17575.00
1000.207, 18708.00
1001.320, 19883.00
1002.433, 21905.00
1003.546, 24184.00
1004.659, 27431.00
1005.772, 31538.00
1006.884, 36977.00
1007.996, 43107.00
1009.108, 49708.00
1010.220, 56564.00
1011.332, 61198.00
1012.444, 62330.00
1013.555, 60261.00
1014.666, 53939.00
1015.777, 46445.00
1016.888, 39103.00
1017.999, 32597.00
1019.110, 27957.00
1020.220, 24242.00
1021.331, 21911.00
1022.441, 20305.00
1023.551, 18938.00
1024.661, 18315.00
1025.770, 17457.00
1026.880, 17030.00
1027.989, 16900.00
1029.098, 16716.00
1030.207, 16609.00
1031.316, 16513.00
1032.425, 16750.00
1033.533, 16663.00
1034.642, 16830.00
1035.750, 17261.00
1036.858, 17462.00
1037.966, 17816.00
1039.073, 18053.00
1040.181, 18035.00
1041.288, 17633.00
1042.396, 17364.00
1043.503, 16867.00
1044.610, 16360.00
1045.716, 15790.00
1046.823, 15385.00
1047.929, 14910.00
1049.036, 14652.00
1050.142, 14393.00
1051.248, 14202.00
1052.353, 14228.00
1053.459, 14143.00
1054.564, 13993.00
1055.670, 13967.00
1056.775, 13803.00
1057.880, 13748.00
1058.985, 13658.00
1060.089, 13611.66
1061.194, 13551.48
1062.298, 13511.58
1063.402, 13478.00
1064.506, 13471.00
1065.610, 13503.00
1066.713, 13528.00
1067.817, 13490.74
1068.920, 13494.65
1070.023, 13411.00
1071.126, 13436.00
1072.229, 13383.00
1073.332, 13329.00
1074.435, 13286.00
1075.537, 13384.00
1076.639, 13436.00
1077.741, 13450.00
1078.843, 13264.00
1079.945, 13423.00
1081.046, 13402.00
1082.148, 13416.00
1083.249, 13471.00
1084.350, 13458.00
1085.451, 13207.00
1086.551, 13380.00
1087.652, 13228.00
1088.752, 13337.00
1089.853, 13300.00
1090.953, 13328.00
1092.053, 13334.00
1093.152, 13329.00
1094.252, 13310.00
1095.351, 13302.00
1096.451, 13314.55
1097.550, 13305.39
1098.649, 13329.00
1099.748, 13299.00
1100.846, 13265.00
1101.945, 13236.64
1103.043, 13316.00
1104.141, 13215.00
1105.239, 13183.00
1106.337, 13203.00
1107.434, 13317.00
1108.532, 13392.00
1109.629, 13412.85
1110.726, 13309.00
1111.823, 13429.00
1112.920, 13426.00
1114.017, 13355.00
1115.113, 13504.00
1116.210, 13546.00
1117.306, 13854.00
1118.402, 13930.00
1119.498, 14090.00
1120.593, 14273.00
1121.689, 14479.00
1122.784, 14349.00
1123.879, 14321.00
1124.974, 14196.00
1126.069, 13856.00
1127.164, 13775.00
1128.259, 13662.00
1129.353, 13329.00
1130.447, 13327.00
1131.541, 13281.00
1132.635, 13344.00
1133.729, 13335.00
1134.822, 13232.00
1135.916, 13300.00
1137.009, 13310.00
1138.102, 13256.00
1139.195, 13223.00
1140.288, 13363.00
1141.380, 13154.00
1142.473, 13293.00
1143.565, 13190.00
1144.657, 13186.00
1145.749, 13159.00
1146.841, 13141.00
1147.932, 13193.00
1149.024, 13175.00
1150.115, 13149.35
1151.206, 13061.00
1152.297, 13062.00
1153.388, 13033.00
1154.479, 12966.00
1155.569, 13114.00
1156.659, 13024.00
1157.750, 13115.00
1158.839, 13000.00
1159.929, 13071.00
1161.019, 13124.00
1162.108, 13044.00
1163.198, 12940.00
1164.287, 13067.00
1165.376, 13029.00
1166.465, 13198.00
1167.553, 13010.00
1168.642, 13102.00
1169.730, 13054.00
1170.818, 13104.00
1171.906, 12994.00
1172.994, 13092.00
1174.082, 13276.00
1175.170, 13085.00
1176.257, 13010.00
1177.344, 13239.00
1178.431, 13067.00
1179.518, 13109.00
1180.605, 12941.00
1181.691, 13072.00
1182.778, 13056.00
1183.864, 13055.00
1184.950, 13169.00
1186.036, 13143.00
1187.122, 13040.00
1188.207, 13168.00
1189.292, 13077.00
1190.378, 13102.00
1191.463, 13210.00
1192.548, 13379.00
1193.632, 13190.00
1194.717, 13036.00
1195.801, 13188.00
1196.886, 13276.00
1197.970, 13198.00
1199.054, 13097.00
1200.137, 13154.00
1201.221, 13147.00
1202.305, 13131.00
1203.388, 13264.00
1204.471, 13267.00
1205.554, 13333.00
1206.637, 13199.00
1207.719, 13339.00
1208.802, 13227.00
1209.884, 13265.00
1210.966, 13304.00
1212.048, 13391.00
1213.130, 13392.32
1214.212, 13459.50
1215.293, 13406.00
1216.374, 13472.00
1217.456, 13449.72
1218.536, 13267.00
1219.617, 13386.00
1220.698, 13401.00
1221.778, 13320.00
1222.859, 13443.00
1223.939, 13361.00
1225.019, 13436.00
1226.099, 13393.00
1227.178, 13452.00
1228.258, 13462.00
1229.337, 13444.19
1230.417, 13543.00
1231.496, 13431.00
1232.574, 13489.00
1233.653, 13510.00
1234.732, 13478.00
1235.810, 13383.00
1236.888, 13543.00
1237.966, 13450.00
1239.044, 13500.00
1240.122, 13485.00
1241.199, 13462.15
1242.277, 13567.00
1243.354, 13433.00
1244.431, 13493.00
1245.508, 13458.00
1246.585, 13619.00
1247.661, 13468.00
1248.738, 13658.00
1249.814, 13511.00
1250.890, 13571.00
1251.966, 13583.00
1253.042, 13492.00
1254.117, 13600.00
1255.193, 13569.00
1256.268, 13576.00
1257.343, 13786.00
1258.418, 13605.00
1259.493, 13581.00
1260.567, 13668.00
1261.642, 13521.00
1262.716, 13704.00
1263.790, 13441.00
1264.864, 13667.00
1265.938, 13661.00
1267.011, 13573.00
1268.085, 13809.00
1269.158, 13781.00
1270.231, 13686.00
1271.304, 13471.00
1272.377, 13586.00
1273.450, 13617.00
1274.522, 13605.00
1275.594, 13521.00
1276.666, 13678.00
1277.738, 13733.00
1278.810, 13758.00
1279.882, 13600.00
1280.953, 13833.00
1282.025, 13670.00
1283.096, 13707.00
1284.167, 13850.00
1285.238, 13571.00
1286.308, 13508.00
1287.379, 13714.00
1288.449, 13706.00
1289.519, 13736.00
1290.589, 13868.00
1291.659, 13806.00
1292.729, 13902.00
1293.798, 13905.00
1294.868, 13818.00
1295.937, 13767.00
1297.006, 13903.00
1298.075, 13867.00
1299.143, 13902.00
1300.212, 13847.00
1301.280, 13733.00
1302.348, 13805.00
1303.416, 13855.00
1304.484, 13787.08
1305.552, 13983.00
1306.620, 13784.00
1307.687, 13813.00
1308.754, 13946.00
1309.821, 13992.00
1310.888, 13931.00
1311.955, 14109.00
1313.021, 14054.00
1314.088, 13928.00
1315.154, 13874.00
1316.220, 14092.00
1317.286, 14031.00
1318.352, 14009.00
1319.417, 14068.00
1320.483, 14004.00
1321.548, 14010.02
1322.613, 13957.00
1323.678, 13983.00
1324.743, 13954.00
1325.807, 13964.00
1326.872, 14131.00
1327.936, 14158.00
1329.000, 14066.00
1330.064, 14122.00
1331.128, 14064.00
1332.191, 14031.00
1333.255, 14157.00
1334.318, 14132.00
1335.381, 14235.00
1336.444, 14291.00
1337.507, 14144.00
1338.569, 14103.00
1339.632, 14244.00
1340.694, 14222.00
1341.756, 14194.00
1342.818, 14127.00
1343.880, 14273.00
1344.941, 14269.00
1346.003, 14210.00
1347.064, 14249.00
1348.125, 14135.00
1349.186, 14100.00
1350.247, 14123.00
1351.308, 14284.00
1352.368, 14460.00
1353.428, 14231.00
1354.489, 14175.00
1355.549, 14382.00
1356.608, 14289.00
1357.668, 14302.00
1358.727, 14189.00
1359.787, 14368.00
1360.846, 14295.00
1361.905, 14179.00
1362.964, 14327.00
1364.022, 14329.00
1365.081, 14461.00
1366.139, 14362.00
1367.197, 14211.00
1368.255, 14342.00
1369.313, 14290.00
1370.371, 14441.00
1371.428, 14359.00
1372.486, 14380.00
1373.543, 14416.00
1374.600, 14459.00
1375.657, 14436.00
1376.713, 14358.00
1377.770, 14192.00
1378.826, 14341.00
1379.882, 14209.00
1380.938, 14298.00
1381.994, 14393.00
1383.050, 14138.00
1384.106, 14446.00
1385.161, 14312.00
1386.216, 14393.00
1387.271, 14286.00
1388.326, 14438.00
1389.381, 14402.00
1390.435, 14410.00
1391.490, 14224.00
1392.544, 14313.00
1393.598, 14316.00
1394.652, 14546.00
1395.705, 14429.00
1396.759, 14390.00
1397.812, 14548.00
1398.866, 14449.00
1399.919, 14447.00
1400.972, 14440.00
1402.024, 14451.00
1403.077, 14463.00
1404.129, 14516.00
1405.181, 14417.00
1406.233, 14403.00
1407.285, 14558.00
1408.337, 14416.00
1409.389, 14472.00
1410.440, 14432.00
1411.491, 14434.00
1412.542, 14369.00
1413.593, 14424.00
1414.644, 14471.00
1415.695, 14371.00
1416.745, 14530.00
1417.795, 14602.00
1418.845, 14580.00
1419.895, 14595.00
1420.945, 14603.00
1421.995, 14632.12
1423.044, 14640.89
1424.093, 14661.00
1425.142, 14652.00
1426.191, 14550.00
1427.240, 14508.00
1428.289, 14575.00
1429.337, 14574.00
1430.385, 14682.00
1431.433, 14564.00
1432.481, 14743.00
1433.529, 14446.00
1434.577, 14568.00
1435.624, 14575.00
1436.672, 14713.00
1437.719, 14753.00
1438.766, 14562.00
1439.812, 14655.00
1440.859, 14684.00
1441.905, 14771.00
1442.952, 14765.00
1443.998, 14803.00
1445.044, 14698.00
1446.090, 14802.00
1447.135, 14764.00
1448.181, 14711.00
1449.226, 14772.00
1450.271, 14727.00
1451.316, 14758.00
1452.361, 14788.00
1453.405, 14920.00
1454.450, 14739.00
1455.494, 14795.00
1456.538, 14739.00
1457.582, 14913.00
1458.626, 14772.00
1459.670, 14640.00
1460.713, 14814.00
1461.757, 14825.00
1462.800, 14824.00
1463.843, 14874.00
1464.886, 14565.00
1465.928, 14993.00
1466.971, 14679.00
1468.013, 14811.00
1469.055, 14852.00
1470.097, 14878.00
1471.139, 14844.00
1472.181, 14906.00
1473.222, 14769.00
1474.263, 14872.00
1475.305, 14760.00
1476.346, 14942.00
1477.386, 14803.00
1478.427, 14777.00
1479.468, 14811.00
1480.508, 14873.00
1481.548, 14894.00
1482.588, 14900.00
1483.628, 14912.00
1484.668, 14983.00
1485.707, 14840.00
1486.747, 15211.00
1487.786, 14965.00
1488.825, 15069.00
1489.864, 14899.00
1490.902, 14956.00
1491.941, 14907.00
1492.979, 14857.00
1494.017, 14808.00
1495.055, 15125.00
1496.093, 14880.00
1497.131, 15131.00
1498.168, 14998.00
1499.206, 15058.00
1500.243, 14938.00
1501.280, 14911.00
1502.317, 15009.00
1503.354, 15061.00
1504.390, 15044.00
1505.426, 15054.00
1506.463, 15091.00
1507.499, 14991.00
1508.535, 15123.00
1509.570, 15145.00
1510.606, 15188.00
1511.641, 14970.00
1512.676, 15071.00
1513.711, 15051.00
1514.746, 15026.00
1515.781, 15044.00
1516.816, 15126.00
1517.850, 15182.00
1518.884, 15257.00
1519.918, 15114.00
1520.952, 15177.00
1521.986, 15110.00
1523.019, 14867.00
1524.053, 15191.00
1525.086, 15177.00
1526.119, 15034.00
1527.152, 15117.00
1528.185, 15159.00
1529.217, 15194.00
1530.250, 15220.00
1531.282, 15249.02
1532.314, 15372.00
1533.346, 15286.00
1534.377, 15192.00
1535.409, 15183.00
1536.440, 15327.00
1537.472, 15195.00
1538.503, 15243.00
1539.534, 15186.00
1540.564, 15249.00
1541.595, 15156.00
1542.625, 15228.00
1543.656, 15311.00
1544.686, 15210.00
1545.716, 15329.00
1546.745, 15268.00
1547.775, 15314.00
1548.804, 15366.00
1549.834, 15443.00
1550.863, 15429.00
1551.892, 15461.00
1552.920, 15471.00
1553.949, 15484.00
1554.977, 15416.00
1556.006, 15434.06
1557.034, 15345.00
1558.062, 15428.00
1559.089, 15418.00
1560.117, 15446.00
1561.144, 15267.00
1562.172, 15471.00
1563.199, 15312.00
1564.226, 15519.00
1565.252, 15457.00
1566.279, 15461.00
1567.305, 15521.00
1568.332, 15497.00
1569.358, 15508.00
1570.384, 15464.00
1571.409, 15667.00
1572.435, 15415.00
##END=



