##NAMES=Diopside
##RRUFFID=R060085
##IDEAL CHEMISTRY=CaMgSi_2_O_6_
##LOCALITY=Tyrol, Austria
##OWNER=RRUFF
##SOURCE=University of Arizona Mineral Museum
##DESCRIPTION=Brownish-green massive
##STATUS=The identification of this mineral has been confirmed by X-ray diffraction and chemical analysis
##URL=rruff.info/R060085
##MEASURED CHEMISTRY=(Ca_0.97_Na_0.03_)_Σ=1_(Mg_0.79_Fe^2+^_0.10_Fe^3+^_0.04_Al_0.04_Ti_0.02_Cr_0.01_)_Σ=1_(Si_1.90_Al_0.10_)_Σ=2_O_6_
##PIN_ID=M01542
##ORIENTATION=Laser parallel to c* (0 0 1). Fiducial mark perpendicular to laser is parallel to a [1 0 0]
87.65500, 5868.000
88.90100, 5787.000
90.14700, 5791.000
91.39300, 5866.000
92.63800, 5945.000
93.88300, 6017.000
95.12800, 6098.000
96.37300, 5905.000
97.61800, 5870.000
98.86200, 6057.000
100.1070, 6005.000
101.3510, 6094.000
102.5940, 6042.000
103.8380, 6093.000
105.0810, 6154.000
106.3250, 6359.000
107.5680, 6263.000
108.8110, 6297.000
110.0530, 6337.000
111.2960, 6301.000
112.5380, 6308.000
113.7800, 6459.000
115.0220, 6531.000
116.2640, 6618.000
117.5050, 6534.000
118.7460, 6554.000
119.9870, 6518.000
121.2280, 6442.000
122.4690, 6557.000
123.7100, 6510.000
124.9500, 6424.000
126.1900, 6396.000
127.4300, 6477.000
128.6700, 6592.000
129.9090, 6595.000
131.1480, 6616.000
132.3880, 6645.000
133.6270, 6591.000
134.8650, 6661.000
136.1040, 6644.000
137.3420, 6803.000
138.5800, 6721.000
139.8180, 6849.000
141.0560, 6830.000
142.2940, 6640.000
143.5310, 6656.000
144.7680, 6649.000
146.0050, 6617.000
147.2420, 6628.000
148.4790, 6620.000
149.7150, 6477.000
150.9510, 6565.000
152.1870, 6564.000
153.4230, 6427.000
154.6590, 6575.000
155.8940, 6495.000
157.1300, 6494.000
158.3650, 6478.000
159.6000, 6562.000
160.8340, 6567.000
162.0690, 6591.000
163.3030, 6593.000
164.5370, 6612.439
165.7710, 6624.733
167.0050, 6646.000
168.2380, 6656.000
169.4720, 6671.000
170.7050, 6699.296
171.9380, 6629.000
173.1700, 6726.000
174.4030, 6696.000
175.6350, 6679.000
176.8680, 6725.000
178.1000, 6724.000
179.3310, 6686.000
180.5630, 6723.000
181.7940, 6860.000
183.0260, 6755.000
184.2570, 6817.000
185.4870, 6862.000
186.7180, 6832.000
187.9480, 6937.000
189.1790, 7003.377
190.4090, 7149.000
191.6390, 7232.000
192.8680, 7496.000
194.0980, 7670.000
195.3270, 7833.000
196.5560, 7959.000
197.7850, 7960.000
199.0140, 8032.000
200.2420, 7903.000
201.4710, 7883.000
202.6990, 7616.000
203.9270, 7463.000
205.1550, 7262.000
206.3820, 7163.000
207.6090, 7179.000
208.8370, 7076.000
210.0640, 7008.000
211.2900, 7087.000
212.5170, 7074.000
213.7440, 7122.000
214.9700, 7204.000
216.1960, 7111.000
217.4220, 7167.000
218.6470, 7209.000
219.8730, 7188.000
221.0980, 7250.655
222.3230, 7200.000
223.5480, 7316.000
224.7730, 7331.000
225.9970, 7342.000
227.2220, 7494.000
228.4460, 7552.000
229.6700, 7548.000
230.8940, 7547.000
232.1170, 7629.842
233.3400, 7713.676
234.5640, 7757.813
235.7870, 7764.397
237.0100, 7620.933
238.2320, 7671.231
239.4550, 7643.876
240.6770, 7658.000
241.8990, 7696.000
243.1210, 7698.000
244.3420, 7675.000
245.5640, 7671.000
246.7850, 7542.000
248.0060, 7571.000
249.2270, 7554.000
250.4480, 7641.000
251.6690, 7685.000
252.8890, 7681.000
254.1090, 7758.000
255.3290, 7773.000
256.5490, 7753.000
257.7680, 7579.000
258.9880, 7672.000
260.2070, 7600.000
261.4260, 7596.000
262.6450, 7569.000
263.8640, 7581.000
265.0820, 7495.000
266.3000, 7449.000
267.5180, 7465.000
268.7360, 7419.000
269.9540, 7404.000
271.1720, 7425.000
272.3890, 7463.000
273.6060, 7512.000
274.8230, 7545.000
276.0400, 7497.000
277.2560, 7497.000
278.4730, 7484.000
279.6890, 7504.397
280.9050, 7527.572
282.1210, 7573.000
283.3370, 7597.000
284.5520, 7631.000
285.7670, 7661.000
286.9820, 7573.000
288.1970, 7748.000
289.4120, 7670.000
290.6270, 7728.000
291.8410, 7630.000
293.0550, 7804.000
294.2690, 7697.000
295.4830, 7775.000
296.6970, 7858.000
297.9100, 7931.000
299.1230, 7888.000
300.3360, 7957.000
301.5490, 8047.000
302.7620, 8054.000
303.9740, 8273.000
305.1860, 8248.000
306.3990, 8201.000
307.6110, 8251.000
308.8220, 8473.000
310.0340, 8493.000
311.2450, 8655.000
312.4560, 8820.000
313.6670, 8871.000
314.8780, 8866.000
316.0890, 8998.000
317.2990, 9017.000
318.5090, 9250.000
319.7200, 9312.000
320.9290, 9493.000
322.1390, 9800.000
323.3490, 9795.000
324.5580, 10029.00
325.7670, 10207.00
326.9760, 10105.00
328.1850, 10214.00
329.3930, 10057.00
330.6020, 9951.000
331.8100, 9795.000
333.0180, 9656.000
334.2260, 9580.000
335.4340, 9354.000
336.6410, 9333.000
337.8480, 9140.000
339.0550, 9119.000
340.2620, 9007.000
341.4690, 8980.000
342.6760, 8900.000
343.8820, 8934.000
345.0880, 8933.000
346.2940, 8878.000
347.5000, 8757.000
348.7060, 8884.000
349.9110, 8791.000
351.1160, 9142.000
352.3210, 9014.134
353.5260, 9143.912
354.7310, 9233.999
355.9360, 9286.528
357.1400, 9188.975
358.3440, 9285.178
359.5480, 9303.731
360.7520, 9323.000
361.9550, 9352.000
363.1590, 9170.000
364.3620, 9160.000
365.5650, 9063.000
366.7680, 9044.000
367.9710, 9010.000
369.1730, 8944.000
370.3760, 8913.000
371.5780, 8955.000
372.7800, 8979.000
373.9810, 8944.000
375.1830, 8992.000
376.3840, 8944.061
377.5860, 8938.352
378.7870, 8918.000
379.9880, 8925.000
381.1880, 9025.000
382.3890, 9087.000
383.5890, 9150.009
384.7890, 9206.000
385.9890, 9327.000
387.1890, 9448.000
388.3880, 9597.000
389.5880, 9832.000
390.7870, 10022.00
391.9860, 9917.000
393.1850, 10040.00
394.3840, 9965.000
395.5820, 9975.000
396.7800, 9772.000
397.9790, 9807.000
399.1770, 9587.000
400.3740, 9344.000
401.5720, 9233.000
402.7690, 9106.000
403.9670, 9045.000
405.1640, 8955.315
406.3600, 8890.000
407.5570, 8814.000
408.7540, 8762.000
409.9500, 8672.000
411.1460, 8622.000
412.3420, 8713.000
413.5380, 8781.000
414.7330, 8741.000
415.9290, 8625.000
417.1240, 8686.000
418.3190, 8603.000
419.5140, 8583.000
420.7090, 8597.000
421.9030, 8512.000
423.0970, 8685.000
424.2920, 8645.000
425.4860, 8733.000
426.6790, 8733.000
427.8730, 8673.000
429.0660, 8737.000
430.2600, 8689.000
431.4530, 8777.000
432.6460, 8672.000
433.8380, 8655.000
435.0310, 8759.000
436.2230, 8731.000
437.4150, 8785.000
438.6070, 8732.000
439.7990, 8751.000
440.9910, 8806.000
442.1820, 8734.000
443.3730, 8842.000
444.5640, 8812.000
445.7550, 8806.000
446.9460, 8737.000
448.1370, 8789.000
449.3270, 8834.000
450.5170, 8798.000
451.7070, 8887.000
452.8970, 8886.000
454.0870, 8954.000
455.2760, 8990.733
456.4650, 8883.000
457.6550, 9055.000
458.8430, 9008.000
460.0320, 9012.000
461.2210, 9149.000
462.4090, 9042.000
463.5970, 9151.000
464.7850, 9152.000
465.9730, 9200.000
467.1610, 9147.000
468.3480, 9130.000
469.5360, 9249.000
470.7230, 9205.000
471.9100, 9223.000
473.0970, 9153.000
474.2830, 9269.000
475.4700, 9160.000
476.6560, 9364.000
477.8420, 9195.000
479.0280, 9295.000
480.2140, 9131.000
481.3990, 9230.000
482.5850, 9225.000
483.7700, 9215.000
484.9550, 9180.000
486.1400, 9265.000
487.3240, 9195.000
488.5090, 9173.000
489.6930, 9128.000
490.8770, 9333.000
492.0610, 9252.000
493.2450, 9362.000
494.4290, 9481.000
495.6120, 9310.000
496.7950, 9293.000
497.9780, 9444.000
499.1610, 9283.000
500.3440, 9463.000
501.5260, 9275.000
502.7090, 9431.000
503.8910, 9513.000
505.0730, 9574.000
506.2550, 9558.000
507.4360, 9594.000
508.6180, 9694.000
509.7990, 9714.957
510.9800, 9759.756
512.1610, 9767.349
513.3420, 9738.503
514.5230, 9632.873
515.7030, 9803.000
516.8830, 9638.000
518.0630, 9738.000
519.2430, 9689.000
520.4230, 9810.000
521.6020, 9687.000
522.7820, 9836.000
523.9610, 9729.000
525.1400, 9883.000
526.3190, 9870.000
527.4970, 9898.000
528.6760, 9844.000
529.8540, 10008.00
531.0320, 10034.00
532.2100, 9978.000
533.3880, 9948.000
534.5660, 10112.00
535.7430, 10054.00
536.9200, 10110.00
538.0970, 10232.00
539.2740, 10069.00
540.4510, 10197.00
541.6270, 10155.00
542.8040, 10368.00
543.9800, 10228.00
545.1560, 10265.00
546.3320, 10343.00
547.5080, 10384.00
548.6830, 10239.00
549.8580, 10210.00
551.0340, 10223.00
552.2090, 10162.00
553.3830, 10207.00
554.5580, 10142.00
555.7320, 10218.00
556.9070, 10242.07
558.0810, 10366.00
559.2550, 10338.00
560.4280, 10358.00
561.6020, 10391.00
562.7750, 10336.00
563.9490, 10342.54
565.1220, 10261.00
566.2950, 10292.00
567.4670, 10152.00
568.6400, 10116.00
569.8120, 9965.000
570.9840, 10116.00
572.1560, 10131.00
573.3280, 10166.00
574.5000, 10170.08
575.6710, 10056.00
576.8430, 10094.00
578.0140, 10095.00
579.1850, 10048.00
580.3560, 10120.00
581.5260, 10144.00
582.6970, 10008.00
583.8670, 10144.00
585.0370, 10170.00
586.2070, 9984.000
587.3770, 10049.00
588.5460, 10082.00
589.7160, 9966.000
590.8850, 10056.00
592.0540, 9997.000
593.2230, 9973.000
594.3920, 10105.00
595.5600, 10166.00
596.7290, 9932.000
597.8970, 10066.00
599.0650, 10102.00
600.2330, 10033.00
601.4000, 10120.00
602.5680, 10178.00
603.7350, 10153.00
604.9020, 10185.00
606.0690, 10250.00
607.2360, 10292.00
608.4030, 10295.00
609.5690, 10205.00
610.7360, 10333.00
611.9020, 10228.00
613.0680, 10245.00
614.2340, 10139.00
615.3990, 10386.00
616.5650, 10301.00
617.7300, 10516.00
618.8950, 10378.00
620.0600, 10388.00
621.2250, 10643.00
622.3890, 10497.00
623.5540, 10455.00
624.7180, 10631.00
625.8820, 10666.00
627.0460, 10583.00
628.2100, 10715.00
629.3730, 10652.00
630.5370, 10742.00
631.7000, 10728.00
632.8630, 10839.00
634.0260, 10757.00
635.1890, 10881.00
636.3510, 11001.00
637.5140, 10974.00
638.6760, 11179.00
639.8380, 11287.00
641.0000, 11080.00
642.1610, 11333.00
643.3230, 11347.00
644.4840, 11477.00
645.6450, 11546.00
646.8060, 11626.00
647.9670, 11819.00
649.1280, 11966.00
650.2880, 12207.00
651.4490, 12356.00
652.6090, 12651.00
653.7690, 12895.00
654.9290, 13297.00
656.0880, 13589.00
657.2480, 14253.00
658.4070, 14910.00
659.5660, 15763.00
660.7250, 16790.00
661.8840, 17826.00
663.0430, 19137.00
664.2010, 20518.00
665.3600, 21703.00
666.5180, 22729.00
667.6760, 22893.00
668.8330, 22657.00
669.9910, 21962.00
671.1480, 20642.00
672.3060, 19618.00
673.4630, 18573.00
674.6200, 17193.00
675.7770, 16246.00
676.9330, 15459.00
678.0900, 14872.00
679.2460, 14321.75
680.4020, 14027.00
681.5580, 13593.00
682.7140, 13473.00
683.8690, 13254.00
685.0250, 12862.00
686.1800, 12824.00
687.3350, 12727.00
688.4900, 12493.00
689.6450, 12409.00
690.7990, 12351.00
691.9540, 12230.00
693.1080, 12137.00
694.2620, 11942.00
695.4160, 11861.00
696.5700, 11840.00
697.7230, 11863.00
698.8770, 11718.00
700.0300, 11765.00
701.1830, 11754.00
702.3360, 11602.00
703.4890, 11537.00
704.6410, 11596.00
705.7930, 11418.00
706.9460, 11591.00
708.0980, 11539.00
709.2500, 11590.00
710.4010, 11582.00
711.5530, 11576.31
712.7040, 11590.00
713.8560, 11595.00
715.0070, 11525.00
716.1580, 11570.00
717.3080, 11415.00
718.4590, 11435.00
719.6090, 11362.00
720.7590, 11437.00
721.9090, 11456.00
723.0590, 11505.00
724.2090, 11558.00
725.3590, 11478.00
726.5080, 11593.00
727.6570, 11447.00
728.8060, 11313.00
729.9550, 11490.00
731.1040, 11480.00
732.2530, 11407.00
733.4010, 11405.00
734.5490, 11518.00
735.6970, 11536.00
736.8450, 11495.00
737.9930, 11445.00
739.1400, 11528.00
740.2880, 11467.16
741.4350, 11474.85
742.5820, 11441.00
743.7290, 11468.00
744.8760, 11471.00
746.0220, 11500.00
747.1690, 11587.00
748.3150, 11611.00
749.4610, 11605.00
750.6070, 11598.00
751.7530, 11623.92
752.8980, 11637.71
754.0440, 11665.00
755.1890, 11678.00
756.3340, 11702.00
757.4790, 11687.00
758.6240, 11695.00
759.7680, 11687.00
760.9130, 11701.00
762.0570, 11775.00
763.2010, 11788.41
764.3450, 11881.00
765.4890, 11858.00
766.6320, 11875.00
767.7760, 11873.00
768.9190, 11919.00
770.0620, 11960.00
771.2050, 11867.00
772.3480, 11912.00
773.4900, 11881.00
774.6330, 11870.00
775.7750, 12038.00
776.9170, 12018.00
778.0590, 11992.00
779.2010, 12121.00
780.3420, 12043.00
781.4840, 12037.00
782.6250, 12101.19
783.7660, 12157.00
784.9070, 12162.00
786.0480, 12216.68
787.1890, 12213.36
788.3290, 12255.00
789.4690, 12159.84
790.6100, 12264.05
791.7490, 12328.54
792.8890, 12355.50
794.0290, 12232.39
795.1680, 12303.04
796.3080, 12296.05
797.4470, 12285.86
798.5860, 12383.78
799.7250, 12282.49
800.8630, 12378.68
802.0020, 12396.05
803.1400, 12449.49
804.2780, 12424.80
805.4160, 12424.24
806.5540, 12501.83
807.6920, 12536.15
808.8300, 12502.46
809.9670, 12473.00
811.1040, 12514.00
812.2410, 12512.00
813.3780, 12503.14
814.5150, 12471.00
815.6510, 12522.00
816.7880, 12522.00
817.9240, 12605.00
819.0600, 12596.00
820.1960, 12635.55
821.3320, 12671.00
822.4670, 12687.00
823.6030, 12746.00
824.7380, 12766.00
825.8730, 12862.00
827.0080, 12871.00
828.1430, 12830.00
829.2770, 12798.00
830.4120, 12912.00
831.5460, 12841.02
832.6800, 12870.00
833.8140, 12837.00
834.9480, 12863.00
836.0810, 12937.00
837.2150, 12897.00
838.3480, 12855.00
839.4810, 12916.00
840.6140, 12899.43
841.7470, 12905.00
842.8800, 12935.00
844.0120, 13022.00
845.1450, 13018.00
846.2770, 12970.00
847.4090, 13182.00
848.5410, 13046.00
849.6720, 13161.00
850.8040, 13167.00
851.9350, 13307.00
853.0660, 13309.00
854.1970, 13298.00
855.3280, 13452.00
856.4590, 13424.00
857.5900, 13529.00
858.7200, 13629.00
859.8500, 13551.00
860.9800, 13567.00
862.1100, 13555.00
863.2400, 13516.73
864.3700, 13530.00
865.4990, 13488.00
866.6280, 13516.00
867.7570, 13548.00
868.8860, 13525.00
870.0150, 13442.00
871.1440, 13512.00
872.2720, 13534.00
873.4010, 13427.00
874.5290, 13543.00
875.6570, 13551.00
876.7850, 13390.00
877.9120, 13487.00
879.0400, 13444.00
880.1670, 13496.00
881.2940, 13469.00
882.4210, 13567.00
883.5480, 13571.00
884.6750, 13457.00
885.8020, 13536.46
886.9280, 13499.00
888.0540, 13521.00
889.1800, 13510.00
890.3060, 13511.71
891.4320, 13655.00
892.5580, 13549.00
893.6830, 13561.00
894.8080, 13631.00
895.9330, 13548.00
897.0580, 13602.97
898.1830, 13746.00
899.3080, 13665.00
900.4320, 13666.00
901.5570, 13761.00
902.6810, 13857.00
903.8050, 13693.00
904.9290, 13706.00
906.0520, 13678.00
907.1760, 13616.96
908.2990, 13771.00
909.4230, 13633.00
910.5460, 13782.00
911.6690, 13953.00
912.7910, 13746.00
913.9140, 13903.00
915.0360, 13830.00
916.1590, 13969.00
917.2810, 13948.00
918.4030, 13952.00
919.5240, 13969.00
920.6460, 13923.00
921.7680, 13917.90
922.8890, 13917.00
924.0100, 13887.00
925.1310, 14056.00
926.2520, 14106.00
927.3730, 13975.00
928.4930, 14089.00
929.6130, 14049.00
930.7340, 14196.00
931.8540, 14137.00
932.9740, 14379.00
934.0930, 14331.00
935.2130, 14283.00
936.3320, 14381.00
937.4520, 14301.00
938.5710, 14322.00
939.6900, 14300.00
940.8090, 14224.00
941.9270, 14347.00
943.0460, 14467.00
944.1640, 14303.00
945.2820, 14513.00
946.4000, 14400.00
947.5180, 14433.00
948.6360, 14396.00
949.7530, 14509.00
950.8710, 14661.00
951.9880, 14449.00
953.1050, 14586.00
954.2220, 14477.00
955.3390, 14669.00
956.4550, 14699.00
957.5720, 14801.00
958.6880, 14834.00
959.8040, 14887.00
960.9200, 14829.00
962.0360, 14971.00
963.1520, 14922.00
964.2670, 14942.00
965.3820, 14980.00
966.4980, 14982.12
967.6130, 15071.00
968.7280, 15039.00
969.8420, 15118.00
970.9570, 15146.00
972.0710, 15230.00
973.1850, 15307.00
974.3000, 15287.00
975.4140, 15375.00
976.5270, 15507.00
977.6410, 15418.00
978.7540, 15605.00
979.8680, 15587.00
980.9810, 15688.00
982.0940, 15757.00
983.2070, 15786.00
984.3200, 15756.00
985.4320, 16066.00
986.5440, 16055.00
987.6570, 16237.00
988.7690, 16415.00
989.8810, 16450.00
990.9920, 16620.00
992.1040, 16692.00
993.2160, 17100.00
994.3270, 17177.00
995.4380, 17239.00
996.5490, 17676.00
997.6600, 17911.00
998.7710, 18337.00
999.8810, 18845.00
1000.991, 19440.00
1002.102, 19785.00
1003.212, 20508.00
1004.322, 21193.00
1005.431, 22077.00
1006.541, 22850.00
1007.651, 24153.00
1008.760, 25453.00
1009.869, 26631.00
1010.978, 27825.00
1012.087, 28548.00
1013.195, 28820.00
1014.304, 28441.00
1015.412, 27284.00
1016.521, 25496.00
1017.629, 23955.00
1018.737, 22447.00
1019.844, 21163.00
1020.952, 20135.00
1022.059, 19429.00
1023.167, 18887.00
1024.274, 18404.00
1025.381, 18049.00
1026.488, 17808.00
1027.594, 17683.00
1028.701, 17591.00
1029.807, 17429.00
1030.913, 17252.00
1032.019, 17195.00
1033.125, 17094.00
1034.231, 17056.00
1035.337, 17116.00
1036.442, 17138.00
1037.548, 17058.00
1038.653, 17131.00
1039.758, 17323.00
1040.863, 17245.00
1041.967, 17608.00
1043.072, 17478.00
1044.176, 17785.00
1045.280, 17647.00
1046.384, 17689.00
1047.488, 17802.00
1048.592, 17762.00
1049.696, 17642.00
1050.799, 17534.00
1051.903, 17318.00
1053.006, 17185.00
1054.109, 17086.00
1055.212, 16946.16
1056.314, 16874.89
1057.417, 16759.00
1058.519, 16755.00
1059.621, 16699.00
1060.724, 16690.00
1061.826, 16772.00
1062.927, 16707.00
1064.029, 16724.00
1065.130, 16601.00
1066.232, 16483.00
1067.333, 16480.00
1068.434, 16552.00
1069.535, 16399.00
1070.636, 16445.00
1071.736, 16389.00
1072.837, 16510.00
1073.937, 16539.00
1075.037, 16357.00
1076.137, 16397.00
1077.237, 16438.00
1078.337, 16427.00
1079.436, 16399.00
1080.535, 16354.00
1081.635, 16475.00
1082.734, 16514.00
1083.833, 16558.00
1084.931, 16568.58
1086.030, 16538.30
1087.128, 16632.76
1088.227, 16687.53
1089.325, 16704.74
1090.423, 16571.90
1091.521, 16632.82
1092.618, 16616.09
1093.716, 16596.17
1094.813, 16684.36
1095.911, 16573.34
1097.008, 16659.81
1098.105, 16667.45
1099.202, 16711.17
1100.298, 16676.75
1101.395, 16666.47
1102.491, 16734.34
1103.587, 16758.94
1104.683, 16715.53
1105.779, 16635.00
1106.875, 16741.00
1107.971, 16614.00
1109.066, 16680.00
1110.161, 16677.00
1111.256, 16820.00
1112.351, 16862.00
1113.446, 16831.00
1114.541, 16890.51
1115.636, 16801.00
1116.730, 16887.00
1117.824, 16862.00
1118.918, 16846.00
1120.012, 16844.00
1121.106, 16673.15
1122.200, 16963.89
1123.293, 17135.54
1124.387, 17194.54
1125.480, 16803.37
1126.573, 16993.47
1127.666, 16950.62
1128.759, 16898.22
1129.851, 17170.12
1130.944, 16844.42
1132.036, 17111.17
1133.128, 17141.42
1134.220, 17279.91
1135.312, 17184.02
1136.404, 17160.52
1137.495, 17371.46
1138.587, 17452.60
1139.678, 17329.71
1140.769, 17475.06
1141.860, 17141.14
1142.951, 17184.00
1144.041, 17136.00
1145.132, 17129.00
1146.222, 17301.00
1147.313, 17287.00
1148.403, 17216.00
1149.493, 17376.00
1150.582, 17232.00
1151.672, 17363.00
1152.761, 17424.00
1153.851, 17499.00
1154.940, 17363.00
1156.029, 17365.00
1157.118, 17262.00
1158.207, 17262.89
1159.295, 17136.00
1160.384, 17322.00
1161.472, 17386.00
1162.560, 17513.00
1163.648, 17524.16
1164.736, 17485.00
1165.824, 17470.00
1166.911, 17492.00
1167.999, 17407.00
1169.086, 17524.00
1170.173, 17705.00
1171.260, 17544.00
1172.347, 17640.00
1173.434, 17504.00
1174.520, 17685.00
1175.606, 17660.00
1176.693, 17758.00
1177.779, 17838.00
1178.865, 17568.00
1179.951, 17614.00
1181.036, 17611.00
1182.122, 17806.00
1183.207, 17943.00
1184.292, 17828.00
1185.377, 18089.00
1186.462, 17879.00
1187.547, 17842.00
1188.632, 17946.00
1189.716, 17830.00
1190.800, 17869.00
1191.885, 17901.00
1192.969, 17961.00
1194.052, 18065.00
1195.136, 18029.00
1196.220, 18043.00
1197.303, 18109.00
1198.387, 18016.00
1199.470, 18009.00
1200.553, 18150.00
1201.636, 18029.00
1202.718, 18159.00
1203.801, 18182.00
1204.883, 18125.00
1205.966, 18087.00
1207.048, 18103.00
1208.130, 18104.37
1209.211, 18208.00
1210.293, 18151.00
1211.375, 18240.00
1212.456, 18228.00
1213.537, 18295.00
1214.618, 18261.00
1215.699, 18390.00
1216.780, 18339.00
1217.861, 18401.00
1218.941, 18422.00
1220.022, 18312.00
1221.102, 18577.00
1222.182, 18429.00
1223.262, 18636.00
1224.342, 18620.00
1225.422, 18457.00
1226.501, 18710.00
1227.580, 18649.00
1228.660, 18464.00
1229.739, 18744.00
1230.818, 18626.00
1231.896, 18645.00
1232.975, 18723.00
1234.054, 18584.00
1235.132, 18625.00
1236.210, 18740.00
1237.288, 18820.00
1238.366, 18851.81
1239.444, 18921.63
1240.521, 18897.00
1241.599, 18918.00
1242.676, 18895.00
1243.753, 18713.00
1244.830, 18961.00
1245.907, 18925.00
1246.984, 18725.00
1248.061, 18864.00
1249.137, 19038.00
1250.214, 19090.00
1251.290, 19032.00
1252.366, 19041.00
1253.442, 18942.00
1254.517, 18999.00
1255.593, 19002.00
1256.668, 19224.00
1257.744, 19150.00
1258.819, 19105.00
1259.894, 19266.00
1260.969, 19023.00
1262.044, 19377.00
1263.118, 19199.00
1264.193, 19339.00
1265.267, 19228.00
1266.341, 19276.00
1267.415, 19330.00
1268.489, 19373.00
1269.563, 19381.00
1270.636, 19502.00
1271.710, 19377.00
1272.783, 19313.00
1273.856, 19442.00
1274.929, 19507.00
1276.002, 19510.00
1277.075, 19457.00
1278.147, 19407.00
1279.220, 19493.00
1280.292, 19453.66
1281.364, 19491.00
1282.436, 19467.00
1283.508, 19586.00
1284.580, 19573.00
1285.652, 19684.00
1286.723, 19621.00
1287.794, 19769.00
1288.865, 19768.00
1289.936, 19874.00
1291.007, 19756.00
1292.078, 19787.00
1293.149, 19757.00
1294.219, 19870.00
1295.289, 19795.00
1296.360, 19778.00
1297.430, 19949.00
1298.499, 19998.00
1299.569, 19836.00
1300.639, 19935.00
1301.708, 20007.00
1302.778, 19843.00
1303.847, 20077.00
1304.916, 20111.00
1305.985, 19839.00
1307.053, 19994.00
1308.122, 20098.00
1309.190, 20013.00
1310.259, 20092.00
1311.327, 19966.00
1312.395, 20038.00
1313.463, 20192.00
1314.531, 20128.00
1315.598, 20239.00
1316.666, 20265.00
1317.733, 20208.00
1318.800, 20274.00
1319.867, 20116.00
1320.934, 20435.00
1322.001, 20446.00
1323.067, 20391.00
1324.134, 20413.00
1325.200, 20417.00
1326.266, 20330.00
1327.333, 20405.00
1328.398, 20324.00
1329.464, 20337.52
1330.530, 20583.00
1331.595, 20434.00
1332.661, 20422.00
1333.726, 20667.00
1334.791, 20490.00
1335.856, 20615.00
1336.921, 20599.00
1337.985, 20752.00
1339.050, 20690.00
1340.114, 20495.00
1341.178, 20568.00
1342.242, 20485.00
1343.306, 20652.00
1344.370, 20747.00
1345.434, 20734.00
1346.497, 20821.00
1347.561, 20969.00
1348.624, 20877.00
1349.687, 20871.00
1350.750, 20964.00
1351.813, 20699.00
1352.876, 20888.00
1353.938, 20895.00
1355.000, 20973.00
1356.063, 21072.00
1357.125, 21113.00
1358.187, 21079.00
1359.249, 21201.00
1360.310, 21012.00
1361.372, 21178.00
1362.433, 21096.00
1363.495, 21081.00
1364.556, 21100.00
1365.617, 21218.00
1366.678, 21271.00
1367.738, 21365.00
1368.799, 21241.00
1369.859, 21332.00
1370.920, 21352.00
1371.980, 21469.00
1373.040, 21384.00
1374.100, 21444.19
1375.159, 21338.00
1376.219, 21435.00
1377.278, 21370.00
1378.338, 21294.00
1379.397, 21568.00
1380.456, 21635.00
1381.515, 21525.00
1382.574, 21459.00
1383.632, 21803.00
1384.691, 21502.00
1385.749, 21702.00
1386.807, 21715.00
1387.865, 21677.00
1388.923, 21740.00
1389.981, 21820.00
1391.039, 21766.00
1392.096, 21739.00
1393.154, 21856.00
1394.211, 21693.00
1395.268, 21916.00
1396.325, 21768.00
1397.382, 21789.00
1398.439, 21940.00
1399.495, 22008.00
1400.552, 21983.00
1401.608, 21953.00
1402.664, 21875.00
1403.720, 22039.00
1404.776, 22011.00
1405.832, 21992.00
1406.887, 22150.00
1407.943, 22122.00
1408.998, 22092.00
1410.053, 22073.00
1411.108, 22035.00
1412.163, 22083.21
1413.218, 22084.00
1414.272, 22192.00
1415.327, 22331.00
1416.381, 22397.00
1417.435, 22198.00
1418.489, 22460.00
1419.543, 22265.00
1420.597, 22294.00
1421.651, 22391.00
1422.704, 22577.00
1423.758, 22450.00
1424.811, 22378.00
1425.864, 22578.00
1426.917, 22548.00
1427.970, 22552.00
1429.023, 22557.00
1430.075, 22459.00
1431.128, 22630.00
1432.180, 22450.00
1433.232, 22467.00
1434.284, 22518.00
1435.336, 22741.00
1436.388, 22770.00
1437.439, 22866.00
1438.491, 22692.00
1439.542, 22857.00
1440.593, 22632.00
1441.644, 22729.00
1442.695, 22787.00
1443.746, 23055.00
1444.797, 22792.00
1445.847, 22892.00
1446.898, 22835.00
1447.948, 22942.00
1448.998, 22795.00
1450.048, 22988.00
1451.098, 23227.00
1452.147, 23049.00
1453.197, 23066.00
1454.246, 23076.00
1455.296, 23122.00
1456.345, 23159.00
1457.394, 23025.00
1458.443, 23096.00
1459.491, 23096.00
1460.540, 23023.00
1461.588, 23186.00
1462.637, 23350.00
1463.685, 23161.00
1464.733, 23188.00
1465.781, 22943.00
1466.829, 23387.00
1467.876, 23396.00
1468.924, 23379.00
1469.971, 23276.00
1471.019, 23304.00
1472.066, 23356.24
1473.113, 23357.00
1474.160, 23538.00
1475.206, 23460.00
1476.253, 23533.00
1477.299, 23408.00
1478.346, 23558.00
1479.392, 23707.00
1480.438, 23670.00
1481.484, 23730.00
1482.529, 23720.00
1483.575, 23714.00
1484.620, 23711.00
1485.666, 23690.00
1486.711, 23738.21
1487.756, 23720.00
1488.801, 23867.00
1489.846, 23725.00
1490.891, 23839.00
1491.935, 23912.00
1492.980, 24070.00
1494.024, 24041.13
1495.068, 24088.00
1496.112, 23990.00
1497.156, 24125.00
1498.200, 24106.00
1499.243, 24148.00
1500.287, 23975.00
1501.330, 24176.00
1502.373, 24090.00
1503.416, 24177.00
1504.459, 24144.00
1505.502, 24186.91
1506.545, 24306.00
1507.587, 24296.00
1508.630, 24366.00
1509.672, 24439.12
1510.714, 24369.00
1511.756, 24477.00
1512.798, 24313.00
1513.840, 24369.00
1514.881, 24430.00
1515.923, 24464.00
1516.964, 24531.10
1518.005, 24541.07
1519.046, 24604.00
1520.087, 24587.00
1521.128, 24518.00
1522.169, 24589.00
1523.209, 24457.00
1524.249, 24814.00
1525.290, 24652.00
1526.330, 24644.00
1527.370, 24530.00
1528.410, 24561.46
1529.449, 24568.00
1530.489, 24708.00
1531.528, 24685.00
1532.568, 24858.00
1533.607, 24764.00
1534.646, 24721.00
1535.685, 24776.00
1536.724, 24761.87
1537.762, 24879.00
1538.801, 24874.00
1539.839, 24930.00
1540.878, 25044.00
1541.916, 24902.00
1542.954, 24984.00
1543.992, 24985.00
1545.029, 25071.00
1546.067, 25050.00
1547.104, 24979.00
1548.142, 25129.00
1549.179, 25130.00
1550.216, 24973.00
1551.253, 25022.00
1552.290, 25030.94
1553.326, 25063.93
1554.363, 25170.00
1555.399, 25187.00
1556.436, 25322.00
1557.472, 25288.00
1558.508, 25347.00
1559.544, 25393.00
1560.579, 25307.00
1561.615, 25505.00
1562.651, 25462.00
1563.686, 25406.00
1564.721, 25426.00
1565.756, 25619.00
1566.791, 25273.00
1567.826, 25507.00
1568.861, 25305.00
1569.895, 25808.00
1570.930, 25627.00
1571.964, 25494.00
1572.998, 25477.00
1574.032, 25580.00
1575.066, 25639.00
1576.100, 25940.00
1577.134, 25589.00
1578.167, 25854.00
##END=



