##NAMES=Dioptase
##RRUFFID=R040028
##IDEAL CHEMISTRY=Cu^2+^SiO_3_&#183;H_2_O
##LOCALITY=Tantara mine, Democratic Republic of the Congo
##OWNER=RRUFF
##SOURCE=University of Arizona Mineral Museum
##DESCRIPTION=Bluish green coarsely crystallized fragment
##STATUS=The identification of this mineral has been confirmed by X-ray diffraction and chemical analysis
##URL=rruff.info/R040028
##MEASURED CHEMISTRY=Cu_1.00_Si_1.00_O_3_Â·H_2_O; H_2_O estimated by difference
##PIN_ID=M00034
##ORIENTATION=Laser parallel to -c* (0 0 -1). Fiducial mark perpendicular to laser is parallel to -a [-1 0 0]
71.716, 19280.000
73.116, 19260.000
74.516, 19320.000
75.916, 19840.000
77.316, 20250.000
78.715, 20910.000
80.114, 20470.000
81.513, 20530.000
82.911, 20850.000
84.310, 20700.000
85.708, 20800.000
87.106, 20660.000
88.503, 20550.000
89.901, 20270.000
91.298, 20160.000
92.695, 20500.000
94.092, 20780.000
95.488, 21930.000
96.884, 23240.000
98.281, 26010.000
99.676, 27490.000
101.072, 25870.000
102.467, 22610.000
103.863, 19320.000
105.258, 18170.000
106.652, 17430.000
108.047, 17660.000
109.441, 17760.000
110.835, 17990.000
112.229, 18700.000
113.623, 18880.000
115.016, 19750.000
116.409, 19900.000
117.802, 20270.000
119.195, 19850.000
120.587, 19330.000
121.980, 18810.000
123.372, 18740.000
124.764, 18990.000
126.155, 19480.000
127.546, 21210.000
128.938, 24410.000
130.329, 31700.000
131.719, 39980.000
133.110, 41340.000
134.500, 39560.000
135.890, 37340.000
137.280, 40590.000
138.669, 39600.000
140.059, 32520.000
141.448, 24560.000
142.837, 18680.000
144.225, 15920.000
145.614, 14140.000
147.002, 13480.000
148.390, 12870.000
149.778, 12740.000
151.166, 12600.000
152.553, 12640.000
153.940, 13110.000
155.327, 13630.000
156.714, 15060.000
158.100, 16990.000
159.486, 19670.000
160.872, 22770.000
162.258, 23040.000
163.644, 22260.000
165.029, 18970.000
166.414, 16890.000
167.799, 15070.000
169.184, 14010.000
170.568, 13550.000
171.952, 13370.000
173.336, 13890.000
174.720, 14610.000
176.104, 16670.000
177.487, 18850.000
178.870, 21030.000
180.253, 22360.000
181.636, 20780.000
183.018, 19590.000
184.400, 17630.000
185.782, 16520.000
187.164, 15720.000
188.546, 14380.000
189.927, 13960.000
191.308, 13510.000
192.689, 13580.000
194.070, 13590.000
195.450, 14240.000
196.830, 14850.000
198.210, 14910.000
199.590, 14510.000
200.970, 13580.000
202.349, 13570.000
203.728, 13260.000
205.107, 13430.000
206.486, 13550.000
207.864, 13870.000
209.243, 14490.000
210.621, 14660.000
211.998, 15710.000
213.376, 16650.000
214.753, 18110.000
216.130, 20040.000
217.507, 22230.000
218.884, 26570.000
220.261, 30010.000
221.637, 36620.000
223.013, 41380.000
224.389, 46180.000
225.764, 49010.000
227.140, 47040.000
228.515, 44360.000
229.890, 37510.000
231.264, 32660.000
232.639, 27060.000
234.013, 22900.000
235.387, 20030.000
236.761, 17200.000
238.135, 15900.000
239.508, 14300.000
240.881, 13690.000
242.254, 13150.000
243.627, 12560.000
244.999, 12150.000
246.372, 11260.000
247.744, 10960.000
249.116, 10310.000
250.487, 10150.000
251.859, 10020.000
253.230, 9993.000
254.601, 10080.000
255.972, 10170.000
257.342, 10830.000
258.712, 11260.000
260.083, 12810.000
261.452, 15200.000
262.822, 18610.000
264.192, 24170.000
265.561, 27860.000
266.930, 30360.000
268.299, 27960.000
269.667, 23130.000
271.036, 19710.000
272.404, 16790.000
273.772, 15500.000
275.139, 14340.000
276.507, 13670.000
277.874, 13520.000
279.241, 13300.000
280.608, 13670.000
281.974, 13510.000
283.341, 14310.000
284.707, 14340.000
286.073, 15100.000
287.439, 16140.000
288.804, 16770.000
290.170, 18950.000
291.535, 19510.000
292.899, 20550.000
294.264, 19870.000
295.629, 18060.000
296.993, 16510.000
298.357, 13840.000
299.720, 12430.000
301.084, 11060.000
302.447, 9952.000
303.811, 9358.000
305.173, 8873.000
306.536, 8661.000
307.899, 8301.000
309.261, 8329.000
310.623, 8149.000
311.985, 8041.000
313.346, 8070.000
314.708, 7912.000
316.069, 8098.000
317.430, 8035.000
318.790, 8369.000
320.151, 8558.000
321.511, 8762.000
322.871, 9583.000
324.231, 10110.000
325.591, 10970.000
326.950, 11060.000
328.310, 10840.000
329.669, 10390.000
331.027, 9630.000
332.386, 9307.000
333.744, 8892.000
335.102, 8741.000
336.460, 8506.000
337.818, 8286.000
339.175, 8534.000
340.533, 8300.000
341.890, 8607.000
343.247, 8538.000
344.603, 8907.000
345.960, 9220.000
347.316, 9503.000
348.672, 10430.000
350.028, 11270.000
351.383, 13460.000
352.738, 16390.000
354.094, 21550.000
355.448, 29750.000
356.803, 36700.000
358.158, 42630.000
359.512, 38590.000
360.866, 31400.000
362.220, 25270.000
363.573, 19730.000
364.927, 16750.000
366.280, 14400.000
367.633, 13120.000
368.986, 12150.000
370.338, 11410.000
371.690, 11210.000
373.043, 10620.000
374.394, 10680.000
375.746, 10400.000
377.098, 10470.000
378.449, 10550.000
379.800, 10560.000
381.151, 10920.000
382.501, 10970.000
383.852, 11490.000
385.202, 11910.000
386.552, 12480.000
387.901, 13670.000
389.251, 14170.000
390.600, 16190.000
391.949, 17850.000
393.298, 20880.000
394.647, 25120.000
395.995, 28860.000
397.344, 35920.000
398.692, 38540.000
400.039, 41550.000
401.387, 40640.000
402.734, 35310.000
404.082, 31090.000
405.429, 25040.000
406.775, 21550.000
408.122, 18160.000
409.468, 15870.000
410.814, 14780.000
412.160, 13560.000
413.506, 13370.000
414.851, 12960.000
416.197, 13280.000
417.542, 13670.000
418.886, 13450.000
420.231, 13940.000
421.575, 13670.000
422.920, 14160.000
424.264, 14250.000
425.607, 14240.000
426.951, 14640.000
428.294, 14360.000
429.637, 15050.000
430.980, 14800.000
432.323, 15010.000
433.666, 15210.000
435.008, 14870.000
436.350, 15280.000
437.692, 14830.000
439.033, 15000.000
440.375, 14650.000
441.716, 13970.000
443.057, 14070.000
444.398, 13350.000
445.738, 13260.000
447.079, 12920.000
448.419, 12550.000
449.759, 12570.000
451.099, 12210.000
452.438, 12620.000
453.777, 12140.000
455.116, 12210.000
456.455, 12280.000
457.794, 11440.000
459.132, 11400.000
460.471, 10530.000
461.809, 10290.000
463.147, 9830.000
464.484, 9394.000
465.822, 9417.000
467.159, 8995.000
468.496, 8994.000
469.832, 8786.000
471.169, 8620.000
472.505, 8602.000
473.842, 8413.000
475.177, 8473.000
476.513, 8340.000
477.849, 8345.000
479.184, 8340.000
480.519, 8351.000
481.854, 8452.000
483.189, 8264.000
484.523, 8564.000
485.857, 8469.000
487.191, 8448.000
488.525, 8747.000
489.859, 8625.000
491.192, 8672.000
492.525, 8541.000
493.858, 8420.000
495.191, 8362.000
496.524, 8090.000
497.856, 8240.000
499.188, 8192.000
500.520, 8139.000
501.852, 8299.000
503.183, 8120.000
504.514, 8390.000
505.846, 8397.000
507.176, 8457.000
508.507, 8688.000
509.838, 8632.000
511.168, 8885.000
512.498, 8850.000
513.828, 9128.000
515.157, 9120.000
516.487, 9222.000
517.816, 9323.000
519.145, 9242.000
520.474, 9428.000
521.802, 9274.000
523.131, 9184.000
524.459, 9412.000
525.787, 9032.000
527.114, 9071.000
528.442, 8912.000
529.769, 8845.000
531.096, 8804.000
532.423, 8582.000
533.750, 8553.000
535.076, 8391.000
536.403, 8324.000
537.729, 8385.000
539.055, 8132.000
540.380, 8204.000
541.706, 8058.000
543.031, 8001.029
544.356, 8022.046
545.681, 7868.000
547.005, 8106.000
548.330, 7974.000
549.654, 8174.000
550.978, 8172.000
552.302, 8272.000
553.625, 8636.000
554.949, 8656.000
556.272, 9167.000
557.595, 9629.000
558.917, 9894.000
560.240, 10830.000
561.562, 11000.000
562.884, 11680.000
564.206, 11550.000
565.528, 11470.000
566.849, 11500.000
568.171, 10700.000
569.492, 10650.000
570.813, 10230.000
572.133, 10170.000
573.454, 9989.000
574.774, 9600.000
576.094, 9527.000
577.414, 9034.000
578.733, 8720.000
580.053, 8420.000
581.372, 8056.000
582.691, 7947.000
584.010, 7689.000
585.328, 7620.000
586.647, 7525.000
587.965, 7339.000
589.283, 7385.000
590.601, 7178.000
591.918, 7189.000
593.235, 7203.000
594.553, 7047.000
595.869, 7041.000
597.186, 6966.000
598.503, 6974.000
599.819, 6968.000
601.135, 6862.000
602.451, 6927.000
603.767, 6825.000
605.082, 6932.000
606.397, 6873.000
607.713, 6900.000
609.027, 6902.000
610.342, 6926.000
611.657, 6971.000
612.971, 6985.000
614.285, 6886.000
615.599, 7033.000
616.912, 6926.000
618.226, 7105.000
619.539, 7070.000
620.852, 7135.000
622.165, 7154.000
623.477, 7186.000
624.790, 7430.000
626.102, 7365.000
627.414, 7495.000
628.726, 7594.000
630.037, 7544.000
631.349, 7777.000
632.660, 7616.000
633.971, 7867.000
635.281, 8013.000
636.592, 7985.000
637.902, 8208.000
639.212, 8331.000
640.522, 8484.000
641.832, 8793.000
643.142, 8966.000
644.451, 9498.000
645.760, 9691.000
647.069, 10440.000
648.378, 11140.000
649.686, 11640.000
650.994, 13290.000
652.303, 14310.000
653.610, 16690.000
654.918, 19740.000
656.226, 22580.000
657.533, 28300.000
658.840, 31210.000
660.147, 34380.000
661.453, 35670.000
662.760, 31800.000
664.066, 30030.000
665.372, 25020.000
666.678, 21660.000
667.984, 19290.000
669.289, 16220.000
670.594, 15190.000
671.899, 13360.000
673.204, 12510.000
674.509, 11760.000
675.813, 10790.000
677.117, 10530.000
678.421, 9863.000
679.725, 9526.000
681.029, 9317.000
682.332, 8828.000
683.635, 8858.000
684.938, 8514.000
686.241, 8426.000
687.544, 8307.000
688.846, 8067.000
690.148, 8104.000
691.450, 7932.000
692.752, 7832.000
694.054, 7812.000
695.355, 7672.000
696.656, 7786.000
697.957, 7578.000
699.258, 7622.000
700.559, 7584.000
701.859, 7498.000
703.159, 7616.000
704.459, 7443.000
705.759, 7472.000
707.058, 7529.000
708.358, 7456.958
709.657, 7503.361
710.956, 7483.000
712.254, 7519.000
713.553, 7622.000
714.851, 7643.000
716.149, 7761.000
717.447, 7816.000
718.745, 7896.000
720.043, 8078.000
721.340, 8020.000
722.637, 8434.000
723.934, 8371.000
725.231, 8628.000
726.527, 8937.000
727.823, 9096.000
729.120, 9589.000
730.415, 10020.000
731.711, 10540.000
733.007, 11520.000
734.302, 11800.000
735.597, 13190.000
736.892, 13920.000
738.187, 15370.000
739.481, 16760.000
740.775, 17030.000
742.070, 18410.000
743.363, 17870.000
744.657, 17520.000
745.951, 17050.000
747.244, 15230.000
748.537, 14750.000
749.830, 13270.000
751.123, 12370.000
752.415, 11680.000
753.707, 10590.000
754.999, 10300.000
756.291, 9692.000
757.583, 9225.000
758.874, 9046.000
760.166, 8682.000
761.457, 8644.000
762.748, 8345.000
764.038, 8116.000
765.329, 8112.000
766.619, 7853.000
767.909, 7913.000
769.199, 7683.000
770.489, 7494.000
771.778, 7557.000
773.067, 7518.000
774.357, 7457.000
775.645, 7428.000
776.934, 7338.000
778.223, 7373.000
779.511, 7251.000
780.799, 7304.000
782.087, 7353.000
783.374, 7215.000
784.662, 7226.000
785.949, 7193.000
787.236, 7380.000
788.523, 7297.000
789.810, 7200.000
791.096, 7294.000
792.383, 7204.000
793.669, 7237.000
794.955, 7335.000
796.240, 7277.000
797.526, 7229.000
798.811, 7191.000
800.096, 7292.000
801.381, 7255.000
802.666, 7259.000
803.950, 7229.000
805.234, 7179.000
806.518, 7257.000
807.802, 7176.000
809.086, 7133.000
810.370, 7302.000
811.653, 7110.000
812.936, 7190.000
814.219, 7183.000
815.502, 7124.000
816.784, 7156.000
818.066, 7133.000
819.348, 7029.000
820.630, 7126.000
821.912, 7023.000
823.194, 7018.000
824.475, 6999.000
825.756, 6952.187
827.037, 7058.000
828.318, 6931.000
829.598, 6948.000
830.878, 7001.000
832.158, 6867.000
833.438, 6946.000
834.718, 6957.000
835.998, 6888.000
837.277, 6929.000
838.556, 6862.000
839.835, 7044.000
841.114, 6958.000
842.392, 6946.000
843.671, 7076.000
844.949, 6966.000
846.227, 6982.000
847.504, 6961.000
848.782, 6925.000
850.059, 7011.000
851.337, 6897.000
852.613, 7007.000
853.890, 6995.000
855.167, 6920.000
856.443, 6995.000
857.719, 6842.000
858.995, 7018.000
860.271, 6891.000
861.547, 6956.000
862.822, 7016.000
864.097, 6851.000
865.372, 6956.000
866.647, 6960.000
867.922, 6908.000
869.196, 6948.000
870.470, 6941.000
871.744, 6830.000
873.018, 6959.000
874.292, 6868.000
875.565, 7067.000
876.838, 6822.000
878.111, 6831.000
879.384, 6915.000
880.657, 6834.000
881.929, 6976.000
883.201, 6842.000
884.473, 6942.000
885.745, 6976.000
887.017, 6904.000
888.288, 7006.000
889.559, 6979.000
890.831, 7012.000
892.101, 7112.000
893.372, 6998.000
894.643, 7018.000
895.913, 7131.000
897.183, 7153.000
898.453, 7280.000
899.722, 7211.000
900.992, 7241.000
902.261, 7428.000
903.530, 7387.000
904.799, 7561.000
906.068, 7608.000
907.336, 7760.000
908.605, 7980.000
909.873, 8010.000
911.141, 8364.000
912.408, 8546.000
913.676, 8692.000
914.943, 9059.000
916.211, 8859.000
917.477, 8930.000
918.744, 8921.000
920.011, 8537.000
921.277, 8497.000
922.543, 8096.000
923.809, 8065.000
925.075, 7934.000
926.341, 7745.000
927.606, 7858.000
928.871, 7673.000
930.136, 7640.000
931.401, 7835.000
932.666, 7602.000
933.930, 7724.000
935.194, 7682.000
936.458, 7589.000
937.722, 7728.000
938.986, 7542.000
940.249, 7607.000
941.512, 7685.000
942.776, 7489.000
944.038, 7628.000
945.301, 7599.000
946.564, 7631.000
947.826, 7773.000
949.088, 7741.000
950.350, 7872.000
951.611, 8050.000
952.873, 8060.000
954.134, 8241.000
955.395, 8286.000
956.656, 8508.000
957.917, 8757.000
959.178, 8595.000
960.438, 8856.000
961.698, 8721.000
962.958, 8593.000
964.218, 8478.000
965.477, 8104.000
966.737, 8220.000
967.996, 8068.000
969.255, 7857.000
970.514, 8098.000
971.772, 7883.000
973.031, 7940.000
974.289, 8007.000
975.547, 7866.000
976.805, 8049.000
978.062, 7974.000
979.320, 8000.000
980.577, 8157.000
981.834, 8025.000
983.091, 8291.000
984.348, 8324.000
985.604, 8344.000
986.861, 8641.000
988.117, 8588.000
989.373, 8848.000
990.628, 9011.000
991.884, 9092.000
993.139, 9631.000
994.394, 9699.000
995.649, 10180.000
996.904, 10710.000
998.158, 11070.000
999.413, 12220.000
1000.667, 13110.000
1001.921, 14410.000
1003.175, 16680.000
1004.428, 17710.000
1005.682, 19890.000
1006.935, 20620.000
1008.188, 19940.000
1009.441, 20130.000
1010.693, 18620.000
1011.946, 18300.000
1013.198, 18460.000
1014.450, 17650.000
1015.702, 18950.000
1016.954, 18320.000
1018.205, 18450.000
1019.457, 18960.000
1020.708, 17820.000
1021.959, 18090.000
1023.209, 17590.000
1024.460, 16680.000
1025.710, 17130.000
1026.960, 15940.000
1028.210, 15780.000
1029.460, 15390.000
1030.710, 14230.000
1031.959, 14080.000
1033.208, 13040.000
1034.457, 12050.000
1035.706, 11760.000
1036.955, 10810.000
1038.203, 10490.000
1039.451, 10040.000
1040.699, 9574.000
1041.947, 9441.000
1043.195, 8976.000
1044.442, 8850.000
1045.690, 8718.000
1046.937, 8348.000
1048.184, 8294.000
1049.430, 8098.000
1050.677, 7949.000
1051.923, 8008.000
1053.169, 7714.000
1054.415, 7686.000
1055.661, 7616.000
1056.907, 7519.000
1058.152, 7490.000
1059.397, 7341.000
1060.642, 7291.000
1061.887, 7379.000
1063.132, 7201.000
1064.376, 7270.000
1065.620, 7262.000
1066.864, 7032.000
1068.108, 7206.000
1069.352, 7004.000
1070.595, 6952.000
1071.839, 6994.000
1073.082, 6811.000
1074.325, 6971.000
1075.567, 6825.000
1076.810, 6799.000
1078.052, 6768.000
1079.294, 6720.000
1080.536, 6735.000
1081.778, 6807.000
1083.020, 6611.000
1084.261, 6750.000
1085.502, 6589.000
1086.743, 6506.000
1087.984, 6657.000
1089.225, 6476.000
1090.465, 6527.403
1091.706, 6582.000
1092.946, 6472.000
1094.186, 6506.000
1095.425, 6389.000
1096.665, 6351.000
1097.904, 6540.000
1099.143, 6290.000
1100.382, 6393.000
1101.621, 6406.000
1102.859, 6248.000
1104.098, 6369.000
1105.336, 6346.000
1106.574, 6367.000
1107.812, 6304.000
1109.049, 6225.000
1110.287, 6322.000
1111.524, 6255.000
1112.761, 6273.000
1113.998, 6252.000
1115.235, 6240.000
1116.471, 6270.000
1117.707, 6284.000
1118.944, 6241.000
1120.180, 6296.000
1121.415, 6214.000
1122.651, 6303.000
1123.886, 6267.000
1125.121, 6242.000
1126.356, 6276.000
1127.591, 6294.000
1128.826, 6130.000
1130.060, 6329.000
1131.294, 6183.000
1132.528, 6256.000
1133.762, 6259.000
1134.996, 6283.000
1136.229, 6343.000
1137.463, 6313.000
1138.696, 6169.000
1139.929, 6322.000
1141.162, 6199.000
1142.394, 6244.000
1143.626, 6260.000
1144.859, 6212.000
1146.091, 6249.000
1147.322, 6244.000
1148.554, 6106.000
1149.785, 6376.000
1151.017, 6187.000
1152.248, 6247.000
1153.479, 6272.000
1154.709, 6182.000
1155.940, 6298.000
1157.170, 6212.000
1158.400, 6264.000
1159.630, 6340.000
1160.860, 6265.000
1162.089, 6267.000
1163.319, 6270.000
1164.548, 6173.000
1165.777, 6229.000
1167.006, 6231.000
1168.234, 6223.000
1169.463, 6282.000
1170.691, 6202.000
1171.919, 6150.000
1173.147, 6193.000
1174.375, 6045.000
1175.602, 6195.000
1176.830, 6055.000
1178.057, 6118.000
1179.284, 6164.000
1180.511, 6021.000
1181.737, 6076.000
1182.963, 6157.000
1184.190, 5956.000
1185.416, 6024.000
1186.642, 5996.000
1187.867, 6014.000
1189.093, 6024.000
1190.318, 5944.000
1191.543, 5903.000
1192.768, 5965.000
1193.993, 5880.000
1195.217, 5899.000
1196.442, 5850.000
1197.666, 5886.000
1198.890, 5873.000
1200.114, 5866.000
1201.337, 5836.000
1202.561, 5896.000
1203.784, 5814.000
1205.007, 5874.000
1206.230, 5765.000
1207.452, 5862.000
1208.675, 5892.000
1209.897, 5791.000
1211.119, 5753.000
1212.341, 5864.000
1213.563, 5774.000
1214.785, 5856.000
1216.006, 5760.000
1217.227, 5817.000
1218.448, 5845.000
1219.669, 5735.000
1220.890, 5843.000
1222.110, 5841.000
1223.330, 5654.000
1224.551, 5867.000
1225.771, 5680.000
1226.990, 5731.000
1228.210, 5773.000
1229.429, 5626.000
1230.648, 5632.000
1231.867, 5673.000
1233.086, 5591.000
1234.305, 5634.000
1235.523, 5654.000
1236.741, 5556.000
1237.960, 5616.000
1239.177, 5482.000
1240.395, 5566.000
1241.613, 5549.000
1242.830, 5440.000
1244.047, 5560.000
1245.264, 5468.000
1246.481, 5494.000
1247.697, 5527.000
1248.914, 5488.000
1250.130, 5452.000
1251.346, 5446.000
1252.562, 5379.000
1253.778, 5465.000
1254.993, 5436.000
1256.209, 5360.000
1257.424, 5508.000
1258.639, 5396.000
1259.853, 5416.000
1261.068, 5446.000
1262.282, 5337.000
1263.497, 5361.000
1264.711, 5444.000
1265.924, 5324.000
1267.138, 5425.000
1268.352, 5331.000
1269.565, 5315.000
1270.778, 5386.000
1271.991, 5268.000
1273.204, 5348.000
1274.416, 5362.000
1275.629, 5321.000
1276.841, 5385.000
1278.053, 5287.000
1279.265, 5259.000
1280.476, 5385.000
1281.688, 5224.000
1282.899, 5252.000
1284.110, 5237.000
1285.321, 5185.000
1286.532, 5219.256
1287.743, 5233.000
1288.953, 5226.000
1290.163, 5257.000
1291.373, 5223.000
1292.583, 5250.000
1293.793, 5279.000
1295.002, 5155.000
1296.211, 5241.000
1297.421, 5158.000
1298.629, 5186.000
1299.838, 5212.000
1301.047, 5137.000
1302.255, 5093.000
1303.463, 5252.000
1304.671, 5052.000
1305.879, 5258.000
1307.087, 5167.000
1308.294, 5087.000
1309.502, 5115.000
1310.709, 5081.000
1311.916, 5076.000
1313.122, 5169.000
1314.329, 5109.000
1315.535, 5144.000
1316.741, 5124.000
1317.948, 5130.000
1319.153, 5132.000
1320.359, 5151.000
1321.564, 5157.000
1322.770, 5206.000
1323.975, 5146.000
1325.180, 5105.000
1326.385, 5147.000
1327.589, 5139.000
1328.794, 5212.000
1329.998, 5197.000
1331.202, 5175.000
1332.406, 5151.000
1333.609, 5138.000
1334.813, 5094.000
1336.016, 5166.000
1337.219, 5101.000
1338.422, 5164.000
1339.625, 5131.000
1340.827, 5047.000
1342.030, 5146.000
1343.232, 5145.000
1344.434, 5082.000
1345.636, 5156.000
1346.838, 5063.000
1348.039, 5084.000
1349.240, 5074.000
1350.442, 5022.000
1351.643, 5034.000
1352.843, 5071.000
1354.044, 5009.000
1355.244, 5132.000
1356.445, 5057.000
1357.645, 4960.000
1358.845, 5136.000
1360.044, 4952.000
1361.244, 5001.000
1362.443, 5017.000
1363.642, 4990.000
1364.841, 5043.000
1366.040, 5063.000
1367.239, 5003.000
1368.437, 5041.000
1369.635, 4978.000
1370.833, 4994.000
1372.031, 4994.000
1373.229, 4947.000
1374.427, 4984.000
1375.624, 4998.000
1376.821, 4936.000
1378.018, 5024.000
1379.215, 4906.000
1380.412, 4913.000
1381.608, 4944.000
1382.804, 4885.000
1384.000, 4961.000
1385.196, 4964.000
1386.392, 4902.000
1387.588, 5148.000
1388.783, 5042.385
1389.978, 5136.000
1391.173, 4981.000
1392.368, 4980.000
1393.563, 4900.000
1394.757, 4998.000
1395.952, 4880.000
1397.146, 4957.000
1398.340, 4919.000
1399.534, 4854.000
1400.727, 4985.000
1401.921, 4913.000
1403.114, 4906.000
1404.307, 4931.000
1405.500, 4864.000
1406.692, 4919.000
1407.885, 4916.000
1409.077, 4942.000
1410.270, 4903.000
1411.462, 4906.000
1412.653, 4893.000
1413.845, 5051.000
1415.036, 5019.000
1416.228, 4848.000
1417.419, 4990.000
1418.610, 4909.000
1419.801, 4909.000
1420.991, 4970.000
1422.182, 4915.272
1423.372, 4853.000
1424.562, 4908.000
1425.752, 4854.000
1426.941, 4883.000
1428.131, 4876.000
1429.320, 4819.000
1430.509, 4912.000
1431.698, 4801.000
1432.887, 4916.000
1434.076, 4950.000
1435.264, 4813.000
1436.452, 4887.000
1437.641, 4926.000
1438.828, 4852.000
1440.016, 4846.000
1441.204, 4918.000
1442.391, 4839.000
1443.578, 4859.000
1444.765, 4856.000
1445.952, 4910.000
1447.139, 4930.000
1448.325, 4850.000
1449.512, 4922.000
1450.698, 4884.000
1451.884, 4801.000
1453.070, 4949.000
1454.255, 4905.000
1455.441, 4846.000
1456.626, 4935.000
1457.811, 4841.000
1458.996, 4888.000
1460.181, 4899.000
1461.365, 4855.000
1462.549, 4918.000
1463.734, 4955.000
1464.918, 4824.000
1466.102, 4814.000
1467.285, 4954.000
1468.469, 4842.000
1469.652, 4958.000
1470.835, 4910.000
1472.018, 4859.000
1473.201, 4932.000
1474.383, 4844.000
1475.566, 4917.000
1476.748, 4887.000
1477.930, 4762.000
1479.112, 4832.000
1480.294, 4844.000
1481.475, 4779.000
1482.657, 4842.000
1483.838, 4812.000
1485.019, 4745.000
1486.200, 4811.000
1487.381, 4839.000
1488.561, 4779.000
1489.741, 4869.000
1490.922, 4740.000
1492.101, 4739.000
1493.281, 4833.000
1494.461, 4732.000
1495.640, 4752.000
1496.820, 4798.000
1497.999, 4723.000
1499.178, 4791.000
1500.356, 4716.000
1501.535, 4709.000
1502.713, 4780.000
1503.892, 4698.000
1505.070, 4665.000
1506.247, 4729.000
1507.425, 4672.000
1508.603, 4686.000
1509.780, 4719.000
1510.957, 4725.000
1512.134, 4747.000
1513.311, 4748.867
1514.488, 4644.000
1515.664, 4729.000
1516.840, 4704.000
1518.017, 4657.000
##END=



