##NAMES=Diopside
##RRUFFID=R050496
##IDEAL CHEMISTRY=CaMgSi_2_O_6_
##LOCALITY=New City Quarry, Riverside, Riverside County, Calfornia, USA
##OWNER=RRUFF
##SOURCE=California Institute of Technology
##DESCRIPTION=Aggregate of light green irregular grains
##STATUS=The identification of this mineral has been confirmed by X-ray diffraction and chemical analysis
##URL=rruff.info/R050496
##MEASURED CHEMISTRY=Ca(Mg_0.66_Fe_0.33_Mn_0.01_)(Si_0.95_Al_0.05_)_2_O_6_
##PIN_ID=M00901
##ORIENTATION=Laser parallel to (-1 0 -1). Fiducial mark perpendicular to laser is parallel to b [0 1 0]
114.2860, 6103.000
115.5200, 6435.000
116.7530, 6384.000
117.9870, 6296.000
119.2200, 6393.000
120.4530, 6278.000
121.6860, 6188.000
122.9190, 6074.000
124.1520, 6157.000
125.3850, 6385.000
126.6170, 6347.000
127.8490, 6321.000
129.0810, 6219.000
130.3130, 6282.000
131.5450, 6355.000
132.7770, 6602.000
134.0080, 6758.000
135.2390, 6970.000
136.4710, 7325.000
137.7020, 7491.000
138.9320, 7859.000
140.1630, 7891.000
141.3930, 7807.000
142.6240, 7689.000
143.8540, 7212.000
145.0840, 6901.000
146.3140, 6594.000
147.5440, 6373.992
148.7730, 6219.809
150.0020, 6111.000
151.2320, 6055.000
152.4610, 6018.000
153.6900, 6022.000
154.9180, 5969.000
156.1470, 6001.000
157.3750, 5951.000
158.6040, 5850.000
159.8320, 5893.000
161.0600, 5825.000
162.2870, 5960.000
163.5150, 6024.000
164.7420, 6070.000
165.9700, 5981.000
167.1970, 5966.000
168.4240, 6077.000
169.6510, 5946.000
170.8770, 6005.000
172.1040, 6042.000
173.3300, 6051.000
174.5560, 6002.000
175.7820, 6049.000
177.0080, 5991.000
178.2340, 6019.000
179.4590, 6010.000
180.6850, 6021.000
181.9100, 5985.000
183.1350, 6103.000
184.3600, 6071.000
185.5850, 6202.000
186.8090, 6044.000
188.0340, 6000.000
189.2580, 5983.000
190.4820, 6100.000
191.7060, 6098.000
192.9300, 6118.000
194.1530, 6156.000
195.3770, 6161.000
196.6000, 6148.000
197.8230, 6151.000
199.0460, 6146.000
200.2690, 6154.000
201.4910, 6289.000
202.7140, 6230.000
203.9360, 6197.000
205.1580, 6081.000
206.3800, 6109.000
207.6020, 6083.000
208.8240, 6066.000
210.0450, 6036.000
211.2670, 6036.000
212.4880, 5998.000
213.7090, 6021.761
214.9300, 6104.000
216.1510, 6116.000
217.3710, 6119.000
218.5920, 6269.000
219.8120, 6185.000
221.0320, 6244.000
222.2520, 6218.000
223.4720, 6222.000
224.6910, 6208.000
225.9110, 6212.695
227.1300, 6231.355
228.3490, 6244.000
229.5680, 6289.000
230.7870, 6340.000
232.0050, 6393.000
233.2240, 6338.000
234.4420, 6412.000
235.6600, 6310.000
236.8780, 6228.000
238.0960, 6188.000
239.3140, 6188.000
240.5310, 6206.000
241.7490, 6181.000
242.9660, 6221.000
244.1830, 6220.000
245.4000, 6086.000
246.6160, 6197.000
247.8330, 6103.000
249.0490, 6156.000
250.2660, 6185.000
251.4820, 6153.000
252.6980, 6201.000
253.9130, 6104.000
255.1290, 6055.000
256.3440, 6103.000
257.5600, 6194.000
258.7750, 6120.000
259.9900, 5951.000
261.2040, 6054.000
262.4190, 6059.000
263.6330, 5928.000
264.8480, 5973.000
266.0620, 5965.000
267.2760, 5961.000
268.4900, 5960.000
269.7030, 6015.000
270.9170, 6001.590
272.1300, 5981.000
273.3430, 6012.000
274.5560, 5976.000
275.7690, 5971.000
276.9820, 5998.000
278.1940, 5973.000
279.4070, 6011.571
280.6190, 6090.000
281.8310, 6081.000
283.0430, 6093.000
284.2550, 6140.000
285.4660, 6071.000
286.6770, 6167.000
287.8890, 6170.000
289.1000, 6173.000
290.3110, 6126.000
291.5210, 6200.000
292.7320, 6264.000
293.9420, 6293.000
295.1530, 6362.000
296.3630, 6424.000
297.5730, 6524.000
298.7830, 6569.844
299.9920, 6585.000
301.2020, 6703.000
302.4110, 6748.000
303.6200, 6861.000
304.8290, 6892.000
306.0380, 7092.000
307.2470, 7016.000
308.4550, 7249.000
309.6630, 7351.000
310.8720, 7523.000
312.0800, 7694.000
313.2880, 7853.000
314.4950, 8099.428
315.7030, 8316.000
316.9100, 8611.000
318.1170, 8810.000
319.3240, 9081.000
320.5310, 9606.000
321.7380, 9642.000
322.9450, 9702.000
324.1510, 9973.000
325.3570, 9667.000
326.5630, 9597.000
327.7690, 9310.000
328.9750, 9150.000
330.1810, 8871.000
331.3860, 8679.000
332.5910, 8499.000
333.7960, 8384.000
335.0010, 8139.000
336.2060, 7872.000
337.4110, 7870.000
338.6150, 7742.000
339.8200, 7720.000
341.0240, 7611.000
342.2280, 7619.000
343.4320, 7706.000
344.6350, 7727.000
345.8390, 7713.000
347.0420, 7821.000
348.2450, 7957.000
349.4480, 8060.000
350.6510, 8309.000
351.8540, 8436.000
353.0560, 8457.000
354.2590, 8368.000
355.4610, 8481.000
356.6630, 8423.000
357.8650, 8340.000
359.0670, 8290.000
360.2680, 8052.000
361.4700, 7950.000
362.6710, 7855.000
363.8720, 7755.000
365.0730, 7593.000
366.2740, 7709.000
367.4740, 7608.000
368.6750, 7530.000
369.8750, 7666.000
371.0750, 7678.000
372.2750, 7600.000
373.4750, 7776.000
374.6740, 7869.000
375.8740, 7888.000
377.0730, 8237.000
378.2720, 8310.000
379.4710, 8647.000
380.6700, 8871.000
381.8690, 9302.000
383.0670, 9828.000
384.2660, 10153.00
385.4640, 10802.00
386.6620, 11159.00
387.8600, 11668.00
389.0570, 11871.00
390.2550, 12039.00
391.4520, 11602.00
392.6490, 11246.00
393.8460, 10641.00
395.0430, 9909.000
396.2400, 9185.000
397.4370, 8754.000
398.6330, 8319.000
399.8290, 7937.000
401.0250, 7648.000
402.2210, 7300.000
403.4170, 7166.000
404.6130, 6868.000
405.8080, 6866.000
407.0030, 6765.000
408.1980, 6730.000
409.3930, 6675.000
410.5880, 6640.000
411.7830, 6512.000
412.9770, 6539.000
414.1720, 6517.000
415.3660, 6584.000
416.5600, 6478.000
417.7530, 6523.000
418.9470, 6421.000
420.1410, 6440.000
421.3340, 6408.000
422.5270, 6436.000
423.7200, 6429.820
424.9130, 6384.000
426.1060, 6416.000
427.2980, 6434.000
428.4900, 6389.000
429.6830, 6413.000
430.8750, 6485.000
432.0670, 6483.000
433.2580, 6392.000
434.4500, 6437.000
435.6410, 6365.000
436.8320, 6314.000
438.0240, 6324.000
439.2140, 6291.713
440.4050, 6317.000
441.5960, 6316.000
442.7860, 6357.820
443.9760, 6427.000
445.1670, 6425.000
446.3560, 6405.000
447.5460, 6434.000
448.7360, 6352.000
449.9250, 6523.000
451.1150, 6531.000
452.3040, 6504.000
453.4930, 6442.000
454.6810, 6441.000
455.8700, 6443.946
457.0590, 6523.000
458.2470, 6485.000
459.4350, 6532.000
460.6230, 6548.000
461.8110, 6503.000
462.9980, 6550.000
464.1860, 6650.000
465.3730, 6566.000
466.5600, 6603.000
467.7470, 6648.000
468.9340, 6615.000
470.1210, 6560.000
471.3080, 6567.000
472.4940, 6573.000
473.6800, 6519.000
474.8660, 6591.000
476.0520, 6544.000
477.2380, 6540.000
478.4230, 6573.000
479.6090, 6593.000
480.7940, 6607.494
481.9790, 6638.000
483.1640, 6658.000
484.3490, 6688.000
485.5330, 6738.000
486.7180, 6742.581
487.9020, 6732.590
489.0860, 6763.000
490.2700, 6679.000
491.4540, 6673.000
492.6370, 6652.000
493.8210, 6796.000
495.0040, 6815.000
496.1870, 6866.000
497.3700, 6803.000
498.5530, 6813.000
499.7360, 6734.000
500.9180, 6897.000
502.1000, 6936.000
503.2830, 6768.000
504.4650, 6842.000
505.6460, 6703.000
506.8280, 6923.000
508.0100, 6916.000
509.1910, 6923.000
510.3720, 6995.000
511.5530, 6919.000
512.7340, 6995.000
513.9150, 6987.000
515.0950, 7081.000
516.2760, 7123.000
517.4560, 7121.000
518.6360, 7155.000
519.8160, 7280.000
520.9950, 7341.000
522.1750, 7340.000
523.3540, 7402.000
524.5340, 7396.000
525.7130, 7517.000
526.8920, 7513.000
528.0700, 7510.000
529.2490, 7492.000
530.4270, 7428.000
531.6060, 7497.000
532.7840, 7550.000
533.9620, 7410.000
535.1390, 7434.000
536.3170, 7435.000
537.4940, 7309.000
538.6720, 7394.000
539.8490, 7234.000
541.0260, 7219.000
542.2030, 7384.000
543.3790, 7321.000
544.5560, 7339.000
545.7320, 7286.000
546.9080, 7280.000
548.0840, 7269.000
549.2600, 7270.000
550.4360, 7253.000
551.6110, 7312.000
552.7860, 7321.000
553.9620, 7286.000
555.1370, 7266.000
556.3110, 7365.000
557.4860, 7389.000
558.6610, 7347.000
559.8350, 7386.000
561.0090, 7348.000
562.1830, 7278.000
563.3570, 7335.000
564.5310, 7170.000
565.7040, 7353.000
566.8780, 7295.000
568.0510, 7177.000
569.2240, 7335.000
570.3970, 7182.000
571.5700, 7254.000
572.7420, 7153.000
573.9150, 7191.000
575.0870, 7126.000
576.2590, 7139.000
577.4310, 7101.000
578.6030, 7025.000
579.7740, 6940.000
580.9460, 7016.000
582.1170, 6984.000
583.2880, 6910.000
584.4590, 6945.000
585.6300, 6894.000
586.8010, 6728.000
587.9710, 6773.000
589.1410, 6765.000
590.3110, 6826.000
591.4810, 6790.000
592.6510, 6677.000
593.8210, 6688.000
594.9900, 6731.000
596.1600, 6712.000
597.3290, 6764.000
598.4980, 6750.000
599.6670, 6658.000
600.8350, 6786.000
602.0040, 6642.000
603.1720, 6639.000
604.3400, 6694.000
605.5080, 6798.000
606.6760, 6758.000
607.8440, 6699.000
609.0120, 6743.000
610.1790, 6857.000
611.3460, 6817.000
612.5130, 6719.000
613.6800, 6847.000
614.8470, 6770.000
616.0130, 6852.000
617.1800, 6851.000
618.3460, 6899.000
619.5120, 6877.000
620.6780, 6889.000
621.8440, 6892.000
623.0090, 6822.000
624.1750, 6921.000
625.3400, 6897.000
626.5050, 6976.000
627.6700, 6918.000
628.8350, 6986.000
629.9990, 6979.000
631.1640, 7018.652
632.3280, 7125.000
633.4920, 7103.000
634.6560, 7197.000
635.8200, 7208.000
636.9840, 7198.000
638.1470, 7196.000
639.3100, 7334.000
640.4730, 7277.000
641.6360, 7294.000
642.7990, 7412.000
643.9620, 7359.000
645.1240, 7491.000
646.2870, 7626.000
647.4490, 7690.000
648.6110, 7793.000
649.7730, 7948.000
650.9340, 8030.000
652.0960, 8325.000
653.2570, 8460.000
654.4180, 8667.000
655.5790, 9081.000
656.7400, 9362.000
657.9010, 9778.000
659.0620, 10400.00
660.2220, 10990.00
661.3820, 11788.00
662.5420, 12457.00
663.7020, 13042.00
664.8620, 13655.00
666.0210, 13836.00
667.1810, 13762.00
668.3400, 13589.00
669.4990, 13040.00
670.6580, 12145.00
671.8170, 11496.00
672.9750, 10718.00
674.1340, 10130.00
675.2920, 9710.000
676.4500, 9436.000
677.6080, 8971.000
678.7660, 8655.000
679.9230, 8481.000
681.0810, 8149.000
682.2380, 8187.000
683.3950, 7912.000
684.5520, 7883.000
685.7090, 7698.000
686.8660, 7685.000
688.0220, 7643.000
689.1780, 7570.000
690.3340, 7587.000
691.4900, 7534.000
692.6460, 7416.000
693.8020, 7436.000
694.9570, 7392.000
696.1130, 7400.000
697.2680, 7428.000
698.4230, 7399.790
699.5780, 7245.000
700.7320, 7361.000
701.8870, 7388.000
703.0410, 7323.000
704.1950, 7435.000
705.3490, 7297.000
706.5030, 7372.000
707.6570, 7344.000
708.8110, 7206.000
709.9640, 7322.000
711.1170, 7168.000
712.2700, 7296.000
713.4230, 7235.000
714.5760, 7314.000
715.7280, 7325.000
716.8810, 7226.000
718.0330, 7148.000
719.1850, 7198.000
720.3370, 7173.000
721.4890, 7081.000
722.6400, 7211.000
723.7920, 7263.000
724.9430, 7182.000
726.0940, 7210.000
727.2450, 7263.000
728.3960, 7303.000
729.5460, 7167.000
730.6970, 7202.000
731.8470, 7233.000
732.9970, 7222.000
734.1470, 7329.000
735.2970, 7316.000
736.4460, 7191.000
737.5960, 7325.000
738.7450, 7257.000
739.8940, 7128.000
741.0430, 7204.000
742.1920, 7375.000
743.3410, 7353.000
744.4890, 7294.000
745.6370, 7309.000
746.7850, 7331.000
747.9330, 7346.000
749.0810, 7355.000
750.2290, 7285.000
751.3760, 7353.000
752.5240, 7389.000
753.6710, 7278.000
754.8180, 7411.000
755.9650, 7380.000
757.1110, 7350.000
758.2580, 7461.000
759.4040, 7390.000
760.5510, 7470.000
761.6970, 7526.000
762.8420, 7400.000
763.9880, 7453.000
765.1340, 7514.000
766.2790, 7389.000
767.4240, 7493.000
768.5690, 7523.000
769.7140, 7501.000
770.8590, 7562.000
772.0030, 7642.000
773.1480, 7588.660
774.2920, 7687.000
775.4360, 7616.000
776.5800, 7476.000
777.7240, 7681.000
778.8670, 7577.000
780.0110, 7607.000
781.1540, 7566.000
782.2970, 7648.000
783.4400, 7593.000
784.5830, 7668.000
785.7250, 7739.000
786.8680, 7583.000
788.0100, 7664.000
789.1520, 7755.000
790.2940, 7640.000
791.4360, 7775.000
792.5780, 7648.000
793.7190, 7680.000
794.8600, 7699.000
796.0010, 7759.000
797.1420, 7781.000
798.2830, 7793.000
799.4240, 7736.000
800.5640, 7801.000
801.7050, 7598.000
802.8450, 7698.000
803.9850, 7656.000
805.1250, 7711.000
806.2640, 7721.000
807.4040, 7572.000
808.5430, 7717.000
809.6820, 7661.000
810.8210, 7680.000
811.9600, 7746.000
813.0990, 7743.000
814.2370, 7739.000
815.3760, 7783.000
816.5140, 7770.000
817.6520, 7785.000
818.7900, 7805.029
819.9270, 7798.515
821.0650, 7834.000
822.2020, 7828.000
823.3390, 7836.000
824.4760, 7906.000
825.6130, 7971.000
826.7500, 7877.000
827.8870, 7853.000
829.0230, 7947.000
830.1590, 7851.000
831.2950, 7844.000
832.4310, 7940.000
833.5670, 7817.000
834.7030, 7785.000
835.8380, 7884.000
836.9730, 7960.000
838.1080, 7854.000
839.2430, 7932.000
840.3780, 7890.000
841.5130, 7840.000
842.6470, 7958.000
843.7810, 7920.000
844.9150, 7954.000
846.0490, 8005.000
847.1830, 8093.000
848.3170, 8213.000
849.4500, 8247.000
850.5830, 8310.000
851.7160, 8533.000
852.8490, 8548.000
853.9820, 8750.000
855.1150, 8795.000
856.2470, 8918.000
857.3800, 8911.000
858.5120, 8931.000
859.6440, 8779.000
860.7760, 8678.000
861.9070, 8604.000
863.0390, 8539.000
864.1700, 8494.000
865.3010, 8497.000
866.4320, 8426.250
867.5630, 8392.000
868.6940, 8317.000
869.8240, 8377.000
870.9540, 8310.000
872.0850, 8228.000
873.2150, 8128.000
874.3450, 8134.758
875.4740, 8278.000
876.6040, 8141.000
877.7330, 8309.000
878.8620, 8312.000
879.9910, 8294.000
881.1200, 8190.000
882.2490, 8250.000
883.3770, 8219.000
884.5060, 8317.000
885.6340, 8272.000
886.7620, 8260.000
887.8900, 8313.000
889.0180, 8270.000
890.1450, 8229.000
891.2730, 8316.000
892.4000, 8369.000
893.5270, 8364.000
894.6540, 8372.000
895.7810, 8272.000
896.9070, 8341.000
898.0340, 8421.000
899.1600, 8330.000
900.2860, 8392.356
901.4120, 8399.000
902.5380, 8375.000
903.6630, 8388.000
904.7890, 8341.000
905.9140, 8370.000
907.0390, 8358.687
908.1640, 8339.000
909.2890, 8385.000
910.4130, 8365.000
911.5380, 8427.000
912.6620, 8440.000
913.7860, 8315.000
914.9100, 8413.000
916.0340, 8562.000
917.1580, 8380.000
918.2810, 8326.000
919.4040, 8408.000
920.5280, 8578.000
921.6510, 8550.000
922.7730, 8421.000
923.8960, 8507.000
925.0180, 8491.000
926.1410, 8506.000
927.2630, 8384.000
928.3850, 8511.000
929.5070, 8636.000
930.6280, 8584.000
931.7500, 8468.000
932.8710, 8555.000
933.9920, 8594.000
935.1130, 8559.000
936.2340, 8526.000
937.3550, 8529.000
938.4760, 8547.000
939.5960, 8632.000
940.7160, 8582.000
941.8360, 8578.000
942.9560, 8631.000
944.0760, 8603.000
945.1950, 8645.000
946.3150, 8627.000
947.4340, 8594.000
948.5530, 8613.000
949.6720, 8546.000
950.7900, 8589.277
951.9090, 8684.000
953.0270, 8649.000
954.1460, 8796.000
955.2640, 8827.000
956.3820, 8696.000
957.4990, 8735.000
958.6170, 8820.000
959.7340, 9005.000
960.8520, 8866.000
961.9690, 8876.000
963.0860, 9046.000
964.2020, 9011.000
965.3190, 9034.000
966.4350, 9052.000
967.5520, 9031.000
968.6680, 9104.000
969.7840, 8940.000
970.8990, 9099.000
972.0150, 9006.000
973.1310, 9092.000
974.2460, 9094.000
975.3610, 9277.000
976.4760, 9034.000
977.5910, 9164.000
978.7050, 9097.000
979.8200, 9018.000
980.9340, 9165.000
982.0480, 9347.000
983.1620, 9339.000
984.2760, 9400.000
985.3900, 9229.000
986.5030, 9378.000
987.6160, 9370.000
988.7300, 9450.000
989.8430, 9566.000
990.9550, 9610.000
992.0680, 9653.000
993.1810, 9863.000
994.2930, 10065.00
995.4050, 10170.00
996.5170, 10264.00
997.6290, 10431.00
998.7410, 10736.00
999.8520, 11038.00
1000.964, 11440.00
1002.075, 12069.00
1003.186, 12483.00
1004.297, 12835.00
1005.407, 13734.00
1006.518, 14366.00
1007.628, 15476.00
1008.738, 16408.00
1009.848, 17194.00
1010.958, 18299.00
1012.068, 19245.00
1013.178, 19532.00
1014.287, 19053.00
1015.396, 18218.00
1016.505, 16904.00
1017.614, 15407.00
1018.723, 14207.00
1019.831, 13072.00
1020.940, 12417.00
1022.048, 11676.00
1023.156, 11260.00
1024.264, 10962.00
1025.372, 10686.00
1026.479, 10487.00
1027.587, 10238.00
1028.694, 10192.00
1029.801, 10142.00
1030.908, 10039.00
1032.015, 10042.00
1033.121, 9939.000
1034.228, 9818.000
1035.334, 10049.00
1036.440, 9869.000
1037.546, 9904.000
1038.652, 9887.000
1039.758, 9818.000
1040.863, 9986.000
1041.968, 9927.000
1043.074, 9808.000
1044.178, 9935.000
1045.283, 9787.000
1046.388, 9697.000
1047.492, 9709.662
1048.597, 9630.015
1049.701, 9665.000
1050.805, 9588.000
1051.909, 9626.000
1053.012, 9610.000
1054.116, 9505.000
1055.219, 9540.000
1056.322, 9587.000
1057.425, 9482.900
1058.528, 9445.000
1059.631, 9359.000
1060.733, 9335.000
1061.836, 9314.000
1062.938, 9288.000
1064.040, 9378.000
1065.142, 9331.000
1066.243, 9347.429
1067.345, 9285.000
1068.446, 9346.000
1069.547, 9267.000
1070.648, 9278.000
1071.749, 9188.000
1072.850, 9166.000
1073.951, 9299.000
1075.051, 9129.000
1076.151, 9250.000
1077.251, 9121.000
1078.351, 9175.000
1079.451, 9338.000
1080.550, 9226.000
1081.650, 9362.000
1082.749, 9211.000
1083.848, 9249.000
1084.947, 9077.000
1086.046, 9267.000
1087.144, 9303.000
1088.243, 9139.000
1089.341, 9240.000
1090.439, 9189.000
1091.537, 9308.000
1092.635, 9228.000
1093.732, 9301.000
1094.830, 9365.000
1095.927, 9292.000
1097.024, 9337.000
1098.121, 9224.000
1099.218, 9187.000
1100.314, 9410.000
1101.411, 9201.000
1102.507, 9261.000
1103.603, 9401.000
1104.699, 9230.000
1105.795, 9281.000
1106.890, 9174.000
1107.986, 9135.000
1109.081, 9255.000
1110.176, 9249.000
1111.271, 9398.000
1112.366, 9315.000
1113.461, 9293.000
1114.555, 9304.000
1115.649, 9350.000
1116.744, 9228.000
1117.838, 9396.000
1118.931, 9334.000
1120.025, 9335.000
1121.119, 9255.000
1122.212, 9280.000
1123.305, 9384.000
1124.398, 9344.000
1125.491, 9497.000
1126.584, 9339.000
1127.676, 9336.000
1128.768, 9282.000
1129.861, 9322.000
1130.953, 9273.000
1132.044, 9287.000
1133.136, 9320.000
1134.228, 9393.000
1135.319, 9246.000
1136.410, 9335.000
1137.501, 9299.000
1138.592, 9179.000
1139.683, 9338.000
1140.773, 9305.000
1141.864, 9293.000
1142.954, 9227.000
1144.044, 9254.245
1145.134, 9272.000
1146.224, 9276.000
1147.313, 9306.000
1148.402, 9282.000
1149.492, 9323.000
1150.581, 9320.000
1151.670, 9219.000
1152.758, 9281.000
1153.847, 9302.000
1154.935, 9433.000
1156.024, 9320.000
1157.112, 9361.000
1158.200, 9266.000
1159.287, 9166.000
1160.375, 9333.000
1161.462, 9437.000
1162.550, 9391.000
1163.637, 9336.000
1164.724, 9375.000
1165.810, 9339.000
1166.897, 9369.000
1167.983, 9386.000
1169.070, 9315.000
1170.156, 9277.000
1171.242, 9414.000
1172.327, 9283.000
1173.413, 9309.000
1174.499, 9360.000
1175.584, 9299.000
1176.669, 9274.000
1177.754, 9341.000
1178.839, 9415.000
1179.923, 9449.000
1181.008, 9436.000
1182.092, 9418.000
1183.176, 9455.000
1184.260, 9475.000
1185.344, 9446.844
1186.428, 9509.000
1187.511, 9408.000
1188.595, 9470.000
1189.678, 9479.000
1190.761, 9504.000
1191.843, 9564.000
1192.926, 9449.000
1194.009, 9467.000
1195.091, 9515.000
1196.173, 9385.000
1197.255, 9496.000
1198.337, 9540.000
1199.419, 9588.000
1200.500, 9432.000
1201.582, 9651.000
1202.663, 9482.000
1203.744, 9423.000
1204.825, 9684.000
1205.905, 9563.000
1206.986, 9552.000
1208.066, 9432.000
1209.146, 9524.000
1210.226, 9492.391
1211.306, 9539.000
1212.386, 9533.000
1213.466, 9610.000
1214.545, 9629.000
1215.624, 9641.000
1216.703, 9634.000
1217.782, 9600.000
1218.861, 9644.000
1219.939, 9658.000
1221.018, 9657.000
1222.096, 9510.000
1223.174, 9617.000
1224.252, 9464.000
1225.330, 9659.000
1226.407, 9599.000
1227.485, 9672.000
1228.562, 9568.000
1229.639, 9611.000
1230.716, 9625.000
1231.793, 9717.000
1232.869, 9667.000
1233.946, 9688.000
1235.022, 9617.000
1236.098, 9731.000
1237.174, 9486.000
1238.250, 9666.000
1239.325, 9694.000
1240.401, 9649.000
1241.476, 9786.000
1242.551, 9670.000
1243.626, 9878.000
1244.701, 9818.000
1245.776, 9554.000
1246.850, 9724.000
1247.924, 9693.000
1248.999, 9675.000
1250.073, 9760.000
1251.146, 9697.000
1252.220, 9721.000
1253.293, 9835.000
1254.367, 9780.000
1255.440, 9742.000
1256.513, 9821.000
1257.586, 9727.000
1258.658, 9790.000
1259.731, 9834.000
1260.803, 9777.000
1261.875, 9743.000
1262.947, 9822.000
1264.019, 9829.000
1265.091, 9899.000
1266.162, 9860.000
1267.234, 9784.000
1268.305, 9847.000
1269.376, 9840.000
1270.447, 9900.000
1271.517, 9887.000
1272.588, 9997.000
1273.658, 10002.00
1274.729, 9874.000
1275.799, 9785.000
1276.868, 9802.000
1277.938, 9844.000
1279.008, 9765.791
1280.077, 9856.000
1281.146, 9726.000
1282.215, 9876.000
1283.284, 9983.000
1284.353, 9850.000
1285.421, 9899.000
1286.490, 9941.000
1287.558, 9992.000
1288.626, 10002.00
1289.694, 9928.000
1290.762, 9884.000
1291.829, 9888.000
1292.897, 9930.000
1293.964, 10004.00
1295.031, 9960.000
1296.098, 9978.000
1297.165, 9981.907
1298.231, 9974.000
1299.298, 9971.000
1300.364, 10032.00
1301.430, 10036.35
1302.496, 10039.00
1303.562, 9987.000
1304.627, 10027.00
1305.693, 9954.000
1306.758, 9942.000
1307.823, 9966.000
1308.888, 9835.000
1309.953, 9898.000
1311.018, 10081.00
1312.082, 10116.00
1313.146, 9998.000
1314.210, 10057.00
1315.274, 9953.000
1316.338, 10247.00
1317.402, 10201.00
1318.465, 10121.00
1319.529, 10104.00
1320.592, 10075.00
1321.655, 10004.00
1322.718, 10131.00
1323.780, 10068.00
1324.843, 10163.00
1325.905, 10277.00
1326.967, 10082.00
1328.029, 10227.00
1329.091, 10156.00
1330.153, 10303.00
1331.214, 10108.00
1332.275, 10193.00
1333.337, 10248.00
1334.398, 10304.00
1335.458, 10264.00
1336.519, 10299.79
1337.580, 10267.76
1338.640, 10279.00
1339.700, 10212.00
1340.760, 10160.00
1341.820, 10161.00
1342.880, 10190.00
1343.939, 10113.00
1344.999, 10133.48
1346.058, 10177.00
1347.117, 10132.00
1348.176, 10133.00
1349.235, 10175.00
1350.293, 10240.00
1351.351, 10278.00
1352.410, 10417.00
1353.468, 10237.00
1354.526, 10338.00
1355.583, 10258.00
1356.641, 10334.00
1357.698, 10267.00
1358.756, 10291.00
1359.813, 10398.00
1360.869, 10295.00
1361.926, 10396.00
1362.983, 10407.00
1364.039, 10399.00
1365.095, 10413.00
1366.152, 10330.00
1367.207, 10325.00
1368.263, 10328.00
1369.319, 10433.00
1370.374, 10446.00
1371.430, 10473.00
1372.485, 10445.00
1373.540, 10397.00
1374.594, 10386.53
1375.649, 10311.00
1376.703, 10346.00
1377.758, 10247.00
1378.812, 10280.00
1379.866, 10293.27
1380.920, 10299.75
1381.973, 10362.00
1383.027, 10371.00
1384.080, 10415.00
1385.133, 10433.00
1386.186, 10459.21
1387.239, 10550.00
1388.291, 10490.00
1389.344, 10446.00
1390.396, 10410.00
1391.448, 10516.00
1392.500, 10532.00
1393.552, 10502.00
1394.604, 10447.00
1395.655, 10499.00
1396.707, 10341.00
1397.758, 10509.00
1398.809, 10482.00
1399.860, 10505.00
1400.910, 10605.00
1401.961, 10519.00
1403.011, 10527.00
1404.061, 10569.00
1405.111, 10560.00
1406.161, 10570.00
1407.211, 10551.00
1408.260, 10557.69
1409.310, 10508.00
1410.359, 10553.00
1411.408, 10548.00
1412.457, 10527.00
1413.506, 10572.00
1414.554, 10676.00
1415.603, 10546.00
1416.651, 10676.00
1417.699, 10440.00
1418.747, 10618.00
1419.794, 10601.00
1420.842, 10532.00
1421.889, 10720.00
1422.937, 10644.00
1423.984, 10453.00
1425.031, 10631.00
1426.077, 10714.00
1427.124, 10759.00
1428.170, 10645.00
1429.217, 10536.00
1430.263, 10500.00
1431.309, 10607.00
1432.354, 10638.00
1433.400, 10625.00
1434.445, 10803.00
1435.491, 10577.00
1436.536, 10819.00
1437.581, 10744.00
1438.625, 10754.00
1439.670, 10639.00
1440.714, 10620.00
1441.759, 10678.00
1442.803, 10753.00
1443.847, 10816.00
1444.890, 10778.00
1445.934, 10749.00
1446.978, 10754.00
1448.021, 10701.00
1449.064, 10725.00
1450.107, 10856.00
1451.150, 10860.00
1452.192, 10924.00
1453.235, 10674.00
1454.277, 10619.00
1455.319, 10622.00
1456.361, 10727.00
1457.403, 10813.00
1458.445, 10807.00
1459.486, 10832.00
1460.528, 10822.00
1461.569, 10809.00
1462.610, 10776.00
1463.651, 10720.00
1464.691, 10871.00
1465.732, 10786.00
1466.772, 10829.00
1467.812, 10895.00
1468.852, 10902.00
1469.892, 10909.00
1470.932, 10935.82
1471.971, 10910.65
1473.011, 10972.00
1474.050, 10873.00
1475.089, 10918.00
1476.128, 10918.00
1477.166, 10792.00
1478.205, 10926.00
1479.243, 10894.00
1480.282, 10897.00
1481.320, 11025.00
1482.357, 10906.00
1483.395, 10861.00
1484.433, 11013.00
1485.470, 10887.00
1486.507, 10945.00
1487.544, 10959.00
1488.581, 10933.00
1489.618, 10978.00
1490.655, 10996.00
1491.691, 11080.00
1492.727, 10995.00
1493.763, 11084.00
1494.799, 11017.00
1495.835, 11048.00
1496.871, 11100.00
1497.906, 11062.00
1498.941, 11086.92
1499.976, 11109.00
1501.011, 11020.00
1502.046, 11053.00
1503.081, 11069.24
1504.115, 11154.00
1505.149, 11118.00
1506.183, 11115.00
1507.217, 11079.00
1508.251, 11108.00
1509.285, 11024.00
1510.318, 10959.00
1511.352, 11199.00
1512.385, 11032.00
1513.418, 11029.00
1514.450, 11222.00
1515.483, 11116.00
1516.516, 11244.00
1517.548, 11204.00
1518.580, 11249.00
1519.612, 11150.00
1520.644, 11197.00
1521.675, 11108.00
1522.707, 11189.00
1523.738, 11131.00
1524.769, 11199.00
1525.800, 11197.00
1526.831, 11168.00
1527.862, 11152.00
1528.892, 11161.36
1529.923, 11214.00
1530.953, 11163.00
1531.983, 11121.00
1533.013, 11078.00
1534.042, 11286.00
1535.072, 11208.00
1536.101, 11237.00
1537.131, 11128.00
1538.160, 11070.00
1539.188, 11212.00
1540.217, 11185.00
1541.246, 11214.00
1542.274, 11201.00
1543.302, 11289.00
1544.330, 11341.00
1545.358, 11232.00
1546.386, 11164.00
1547.413, 11257.00
1548.441, 11300.00
1549.468, 11186.00
1550.495, 11312.00
1551.522, 11404.00
1552.549, 11322.00
1553.575, 11325.00
1554.602, 11265.00
1555.628, 11383.00
1556.654, 11164.00
1557.680, 11263.00
1558.706, 11388.00
1559.731, 11432.00
1560.757, 11109.00
1561.782, 11339.00
1562.807, 11230.00
1563.832, 11134.00
1564.857, 11486.00
1565.881, 11267.00
1566.906, 11290.00
1567.930, 11317.00
1568.954, 11343.00
1569.978, 11278.00
1571.002, 11447.00
1572.025, 11309.00
1573.049, 11357.00
1574.072, 11259.00
1575.095, 11317.00
1576.118, 11286.00
1577.141, 11375.00
1578.164, 11377.00
##END=



