##NAMES=Diopside
##RRUFFID=R050496
##IDEAL CHEMISTRY=CaMgSi_2_O_6_
##LOCALITY=New City Quarry, Riverside, Riverside County, Calfornia, USA
##OWNER=RRUFF
##SOURCE=California Institute of Technology
##DESCRIPTION=Aggregate of light green irregular grains
##STATUS=The identification of this mineral has been confirmed by X-ray diffraction and chemical analysis
##URL=rruff.info/R050496
##MEASURED CHEMISTRY=Ca(Mg_0.66_Fe_0.33_Mn_0.01_)(Si_0.95_Al_0.05_)_2_O_6_
##PIN_ID=M01827
##ORIENTATION=Laser parallel to a* (1 0 0). Fiducial mark perpendicular to laser is parallel to -b [0 -1 0]
101.9390, 5123.000
103.1740, 4999.000
104.4090, 5143.000
105.6440, 5176.000
106.8790, 5508.000
108.1140, 5464.523
109.3490, 5465.001
110.5830, 5507.000
111.8180, 5463.000
113.0520, 5482.000
114.2860, 5831.000
115.5200, 5854.166
116.7530, 5971.901
117.9870, 6153.000
119.2200, 6060.000
120.4530, 6113.000
121.6860, 6010.000
122.9190, 5906.000
124.1520, 6021.000
125.3850, 5915.300
126.6170, 5989.000
127.8490, 5892.000
129.0810, 5945.000
130.3130, 5998.000
131.5450, 6153.000
132.7770, 6231.000
134.0080, 6376.000
135.2390, 6570.000
136.4710, 6888.000
137.7020, 6966.000
138.9320, 7108.000
140.1630, 7070.000
141.3930, 6896.000
142.6240, 6593.000
143.8540, 6279.000
145.0840, 6010.000
146.3140, 5883.000
147.5440, 5749.000
148.7730, 5670.000
150.0020, 5505.000
151.2320, 5495.000
152.4610, 5430.000
153.6900, 5460.000
154.9180, 5383.000
156.1470, 5412.000
157.3750, 5406.000
158.6040, 5448.000
159.8320, 5432.000
161.0600, 5461.000
162.2870, 5529.110
163.5150, 5639.000
164.7420, 5636.000
165.9700, 5623.000
167.1970, 5572.000
168.4240, 5631.000
169.6510, 5605.353
170.8770, 5650.000
172.1040, 5654.000
173.3300, 5630.000
174.5560, 5732.000
175.7820, 5701.000
177.0080, 5906.000
178.2340, 5960.000
179.4590, 6079.000
180.6850, 6117.000
181.9100, 6019.000
183.1350, 5923.000
184.3600, 5936.000
185.5850, 5864.000
186.8090, 5965.000
188.0340, 5972.000
189.2580, 6044.000
190.4820, 6054.000
191.7060, 6038.000
192.9300, 6089.000
194.1530, 6129.000
195.3770, 6235.000
196.6000, 6158.000
197.8230, 6263.000
199.0460, 6245.000
200.2690, 6191.000
201.4910, 6225.000
202.7140, 6303.000
203.9360, 6241.000
205.1580, 6131.000
206.3800, 6009.000
207.6020, 5906.000
208.8240, 5910.000
210.0450, 5798.000
211.2670, 5889.000
212.4880, 5882.000
213.7090, 5832.000
214.9300, 5948.000
216.1510, 5992.000
217.3710, 5891.000
218.5920, 5884.000
219.8120, 6064.000
221.0320, 6140.000
222.2520, 6187.000
223.4720, 6118.000
224.6910, 6111.000
225.9110, 6142.000
227.1300, 6176.000
228.3490, 6281.000
229.5680, 6258.000
230.7870, 6444.000
232.0050, 6373.000
233.2240, 6286.000
234.4420, 6357.000
235.6600, 6159.000
236.8780, 5989.000
238.0960, 5813.000
239.3140, 5770.000
240.5310, 5733.000
241.7490, 5614.000
242.9660, 5454.000
244.1830, 5469.000
245.4000, 5537.000
246.6160, 5413.000
247.8330, 5423.000
249.0490, 5368.000
250.2660, 5410.000
251.4820, 5298.000
252.6980, 5311.000
253.9130, 5330.000
255.1290, 5273.000
256.3440, 5298.000
257.5600, 5156.000
258.7750, 5194.000
259.9900, 5286.000
261.2040, 5145.000
262.4190, 5146.000
263.6330, 5086.000
264.8480, 5036.036
266.0620, 5123.000
267.2760, 5002.000
268.4900, 5010.000
269.7030, 5059.000
270.9170, 5069.000
272.1300, 5083.336
273.3430, 5025.000
274.5560, 5072.000
275.7690, 5049.000
276.9820, 4977.000
278.1940, 5003.000
279.4070, 5017.000
280.6190, 5074.000
281.8310, 5087.000
283.0430, 5101.000
284.2550, 5139.000
285.4660, 5106.000
286.6770, 5341.000
287.8890, 5221.000
289.1000, 5362.000
290.3110, 5368.000
291.5210, 5552.000
292.7320, 5586.000
293.9420, 5699.000
295.1530, 5702.000
296.3630, 5904.000
297.5730, 5983.000
298.7830, 6094.000
299.9920, 6245.000
301.2020, 6319.000
302.4110, 6443.000
303.6200, 6642.000
304.8290, 6892.000
306.0380, 7058.000
307.2470, 7339.000
308.4550, 7645.000
309.6630, 8046.000
310.8720, 8348.000
312.0800, 8701.000
313.2880, 9375.000
314.4950, 9825.000
315.7030, 10518.00
316.9100, 11187.00
318.1170, 12006.00
319.3240, 12474.00
320.5310, 12967.00
321.7380, 13177.56
322.9450, 13236.00
324.1510, 13159.00
325.3570, 12860.00
326.5630, 12479.00
327.7690, 11651.00
328.9750, 11158.00
330.1810, 10571.00
331.3860, 10053.00
332.5910, 9632.000
333.7960, 9072.000
335.0010, 8748.000
336.2060, 8399.000
337.4110, 8174.000
338.6150, 7868.000
339.8200, 7788.000
341.0240, 7684.000
342.2280, 7614.000
343.4320, 7492.000
344.6350, 7496.000
345.8390, 7512.000
347.0420, 7602.000
348.2450, 7607.000
349.4480, 7704.000
350.6510, 7763.000
351.8540, 7767.000
353.0560, 7844.000
354.2590, 7810.000
355.4610, 7822.000
356.6630, 7545.000
357.8650, 7429.000
359.0670, 7338.000
360.2680, 7279.000
361.4700, 7208.000
362.6710, 7248.000
363.8720, 7253.000
365.0730, 7139.000
366.2740, 7267.000
367.4740, 7333.000
368.6750, 7407.000
369.8750, 7680.000
371.0750, 7752.222
372.2750, 7931.304
373.4750, 8142.000
374.6740, 8345.000
375.8740, 8744.000
377.0730, 9175.000
378.2720, 9673.000
379.4710, 10452.00
380.6700, 11321.00
381.8690, 12136.00
383.0670, 13129.00
384.2660, 14088.00
385.4640, 15220.00
386.6620, 15877.00
387.8600, 16214.00
389.0570, 16192.18
390.2550, 16047.00
391.4520, 15115.00
392.6490, 14003.00
393.8460, 12743.00
395.0430, 11516.00
396.2400, 10323.00
397.4370, 9214.000
398.6330, 8452.000
399.8290, 7592.000
401.0250, 7121.000
402.2210, 6606.000
403.4170, 6296.000
404.6130, 6027.000
405.8080, 5815.000
407.0030, 5638.000
408.1980, 5492.469
409.3930, 5406.000
410.5880, 5298.000
411.7830, 5295.000
412.9770, 5240.343
414.1720, 5181.023
415.3660, 5153.000
416.5600, 5087.000
417.7530, 5046.000
418.9470, 5015.000
420.1410, 4958.000
421.3340, 4950.288
422.5270, 4908.000
423.7200, 4938.000
424.9130, 4893.000
426.1060, 4905.000
427.2980, 4851.000
428.4900, 4816.000
429.6830, 4853.000
430.8750, 4838.000
432.0670, 4810.000
433.2580, 4760.000
434.4500, 4748.000
435.6410, 4769.000
436.8320, 4691.000
438.0240, 4785.000
439.2140, 4670.000
440.4050, 4730.000
441.5960, 4731.000
442.7860, 4583.000
443.9760, 4747.000
445.1670, 4701.000
446.3560, 4711.000
447.5460, 4729.000
448.7360, 4741.000
449.9250, 4750.304
451.1150, 4766.208
452.3040, 4774.000
453.4930, 4800.000
454.6810, 4827.000
455.8700, 4860.000
457.0590, 4760.000
458.2470, 4874.000
459.4350, 4889.000
460.6230, 4714.000
461.8110, 4838.000
462.9980, 4846.000
464.1860, 4781.000
465.3730, 4802.000
466.5600, 4839.000
467.7470, 4726.000
468.9340, 4800.000
470.1210, 4802.000
471.3080, 4801.000
472.4940, 4680.000
473.6800, 4701.000
474.8660, 4721.000
476.0520, 4793.000
477.2380, 4813.000
478.4230, 4704.000
479.6090, 4763.000
480.7940, 4775.000
481.9790, 4901.000
483.1640, 4897.735
484.3490, 4844.000
485.5330, 4926.000
486.7180, 4896.000
487.9020, 4875.000
489.0860, 4888.000
490.2700, 4850.000
491.4540, 4963.000
492.6370, 4966.000
493.8210, 4946.000
495.0040, 4997.818
496.1870, 4975.625
497.3700, 5016.000
498.5530, 5063.000
499.7360, 5059.000
500.9180, 5305.000
502.1000, 5280.000
503.2830, 5306.000
504.4650, 5564.000
505.6460, 5596.000
506.8280, 5577.000
508.0100, 5697.000
509.1910, 5743.000
510.3720, 5756.000
511.5530, 5933.000
512.7340, 5818.000
513.9150, 5917.000
515.0950, 5868.000
516.2760, 5996.000
517.4560, 6046.000
518.6360, 6001.000
519.8160, 5979.000
520.9950, 6035.000
522.1750, 6080.000
523.3540, 6108.000
524.5340, 6258.000
525.7130, 6300.000
526.8920, 6338.000
528.0700, 6347.000
529.2490, 6282.000
530.4270, 6443.000
531.6060, 6190.000
532.7840, 6181.000
533.9620, 5945.000
535.1390, 6019.000
536.3170, 5871.000
537.4940, 5823.000
538.6720, 5808.000
539.8490, 5656.000
541.0260, 5624.000
542.2030, 5615.000
543.3790, 5664.000
544.5560, 5464.000
545.7320, 5527.000
546.9080, 5496.000
548.0840, 5567.000
549.2600, 5600.000
550.4360, 5604.000
551.6110, 5558.000
552.7860, 5539.000
553.9620, 5541.000
555.1370, 5473.000
556.3110, 5460.000
557.4860, 5496.000
558.6610, 5464.000
559.8350, 5483.365
561.0090, 5433.000
562.1830, 5489.000
563.3570, 5512.000
564.5310, 5492.000
565.7040, 5496.388
566.8780, 5477.000
568.0510, 5432.000
569.2240, 5366.000
570.3970, 5299.000
571.5700, 5423.000
572.7420, 5314.000
573.9150, 5291.000
575.0870, 5149.000
576.2590, 5109.000
577.4310, 5043.000
578.6030, 4880.000
579.7740, 4890.000
580.9460, 4756.000
582.1170, 4703.000
583.2880, 4620.000
584.4590, 4546.000
585.6300, 4466.000
586.8010, 4356.000
587.9710, 4314.000
589.1410, 4315.000
590.3110, 4215.000
591.4810, 4247.000
592.6510, 4206.000
593.8210, 4194.000
594.9900, 4089.000
596.1600, 4201.000
597.3290, 4130.000
598.4980, 4135.000
599.6670, 4180.000
600.8350, 4134.000
602.0040, 4069.000
603.1720, 4125.000
604.3400, 4187.000
605.5080, 4105.000
606.6760, 4180.000
607.8440, 4216.000
609.0120, 4156.000
610.1790, 4161.000
611.3460, 4159.000
612.5130, 4244.000
613.6800, 4153.000
614.8470, 4209.000
616.0130, 4353.000
617.1800, 4249.000
618.3460, 4212.000
619.5120, 4230.000
620.6780, 4189.000
621.8440, 4207.000
623.0090, 4326.000
624.1750, 4285.000
625.3400, 4315.000
626.5050, 4388.000
627.6700, 4370.000
628.8350, 4408.000
629.9990, 4428.000
631.1640, 4471.000
632.3280, 4582.000
633.4920, 4515.000
634.6560, 4486.000
635.8200, 4582.000
636.9840, 4642.000
638.1470, 4665.000
639.3100, 4795.000
640.4730, 4798.000
641.6360, 4807.000
642.7990, 4927.000
643.9620, 5076.000
645.1240, 5179.000
646.2870, 5224.000
647.4490, 5458.000
648.6110, 5564.000
649.7730, 5855.000
650.9340, 5910.000
652.0960, 6276.000
653.2570, 6602.000
654.4180, 6954.000
655.5790, 7412.000
656.7400, 8041.000
657.9010, 8604.000
659.0620, 9622.000
660.2220, 10594.00
661.3820, 11546.00
662.5420, 12760.00
663.7020, 13398.00
664.8620, 14164.00
666.0210, 14528.00
667.1810, 13959.00
668.3400, 13482.00
669.4990, 12585.00
670.6580, 11347.00
671.8170, 10396.00
672.9750, 9524.000
674.1340, 8690.000
675.2920, 8120.000
676.4500, 7457.000
677.6080, 7052.000
678.7660, 6687.000
679.9230, 6306.000
681.0810, 6028.000
682.2380, 5763.000
683.3950, 5554.000
684.5520, 5467.000
685.7090, 5281.000
686.8660, 5275.000
688.0220, 5059.000
689.1780, 4992.000
690.3340, 4987.000
691.4900, 4885.000
692.6460, 4870.000
693.8020, 4827.000
694.9570, 4728.000
696.1130, 4741.000
697.2680, 4706.000
698.4230, 4698.000
699.5780, 4679.000
700.7320, 4628.000
701.8870, 4628.000
703.0410, 4749.000
704.1950, 4712.000
705.3490, 4743.000
706.5030, 4692.000
707.6570, 4724.000
708.8110, 4655.000
709.9640, 4503.000
711.1170, 4440.000
712.2700, 4473.000
713.4230, 4446.000
714.5760, 4406.755
715.7280, 4343.000
716.8810, 4328.000
718.0330, 4322.000
719.1850, 4282.000
720.3370, 4301.000
721.4890, 4270.000
722.6400, 4183.000
723.7920, 4219.000
724.9430, 4232.000
726.0940, 4137.000
727.2450, 4214.000
728.3960, 4184.000
729.5460, 4164.000
730.6970, 4099.000
731.8470, 4119.647
732.9970, 4255.000
734.1470, 4150.000
735.2970, 4201.000
736.4460, 4231.000
737.5960, 4195.000
738.7450, 4279.000
739.8940, 4236.000
741.0430, 4237.000
742.1920, 4257.000
743.3410, 4251.000
744.4890, 4268.000
745.6370, 4282.727
746.7850, 4348.000
747.9330, 4320.000
749.0810, 4304.000
750.2290, 4326.000
751.3760, 4265.000
752.5240, 4273.725
753.6710, 4351.000
754.8180, 4262.000
755.9650, 4273.000
757.1110, 4291.000
758.2580, 4278.354
759.4040, 4358.000
760.5510, 4319.000
761.6970, 4381.000
762.8420, 4405.000
763.9880, 4401.000
765.1340, 4406.000
766.2790, 4437.000
767.4240, 4510.000
768.5690, 4417.000
769.7140, 4490.000
770.8590, 4549.000
772.0030, 4494.000
773.1480, 4404.000
774.2920, 4486.000
775.4360, 4454.000
776.5800, 4476.000
777.7240, 4485.000
778.8670, 4475.391
780.0110, 4556.000
781.1540, 4496.000
782.2970, 4564.000
783.4400, 4626.000
784.5830, 4521.000
785.7250, 4569.000
786.8680, 4551.000
788.0100, 4650.000
789.1520, 4553.000
790.2940, 4574.000
791.4360, 4546.000
792.5780, 4565.000
793.7190, 4560.063
794.8600, 4578.000
796.0010, 4553.000
797.1420, 4535.000
798.2830, 4519.000
799.4240, 4511.000
800.5640, 4458.000
801.7050, 4421.000
802.8450, 4476.000
803.9850, 4452.000
805.1250, 4531.000
806.2640, 4456.000
807.4040, 4475.000
808.5430, 4451.000
809.6820, 4479.000
810.8210, 4453.000
811.9600, 4482.000
813.0990, 4436.000
814.2370, 4415.000
815.3760, 4506.000
816.5140, 4496.000
817.6520, 4500.000
818.7900, 4544.000
819.9270, 4539.398
821.0650, 4642.000
822.2020, 4579.000
823.3390, 4574.000
824.4760, 4618.000
825.6130, 4554.000
826.7500, 4606.000
827.8870, 4526.000
829.0230, 4560.000
830.1590, 4495.000
831.2950, 4500.000
832.4310, 4476.000
833.5670, 4447.000
834.7030, 4458.000
835.8380, 4444.508
836.9730, 4459.000
838.1080, 4454.000
839.2430, 4489.000
840.3780, 4510.000
841.5130, 4589.000
842.6470, 4520.000
843.7810, 4514.000
844.9150, 4585.000
846.0490, 4517.000
847.1830, 4500.000
848.3170, 4602.000
849.4500, 4684.000
850.5830, 4715.000
851.7160, 4734.000
852.8490, 4777.000
853.9820, 4841.000
855.1150, 4895.000
856.2470, 5031.000
857.3800, 4980.709
858.5120, 4993.155
859.6440, 4908.000
860.7760, 4905.000
861.9070, 4872.000
863.0390, 4832.000
864.1700, 4855.000
865.3010, 4717.000
866.4320, 4827.000
867.5630, 4770.000
868.6940, 4695.000
869.8240, 4762.000
870.9540, 4736.000
872.0850, 4739.000
873.2150, 4787.000
874.3450, 4735.000
875.4740, 4760.000
876.6040, 4736.000
877.7330, 4709.000
878.8620, 4718.000
879.9910, 4831.000
881.1200, 4731.000
882.2490, 4830.000
883.3770, 4803.000
884.5060, 4770.000
885.6340, 4804.000
886.7620, 4781.000
887.8900, 4858.000
889.0180, 4883.000
890.1450, 4892.000
891.2730, 4822.000
892.4000, 4810.000
893.5270, 4765.000
894.6540, 4860.000
895.7810, 4907.000
896.9070, 4842.000
898.0340, 4858.000
899.1600, 4876.000
900.2860, 4821.000
901.4120, 4829.000
902.5380, 4835.000
903.6630, 4842.000
904.7890, 4869.000
905.9140, 4895.000
907.0390, 4924.000
908.1640, 4897.000
909.2890, 4917.000
910.4130, 4862.000
911.5380, 4860.000
912.6620, 4856.678
913.7860, 4857.409
914.9100, 4865.000
916.0340, 4919.000
917.1580, 4955.000
918.2810, 4981.572
919.4040, 5011.369
920.5280, 5032.000
921.6510, 5034.000
922.7730, 5028.000
923.8960, 5002.000
925.0180, 5037.000
926.1410, 5024.000
927.2630, 4969.000
928.3850, 4991.129
929.5070, 4976.217
930.6280, 4985.000
931.7500, 4991.000
932.8710, 4997.000
933.9920, 5016.000
935.1130, 4978.000
936.2340, 4958.000
937.3550, 5036.000
938.4760, 4999.000
939.5960, 4977.000
940.7160, 5053.000
941.8360, 4995.000
942.9560, 4926.000
944.0760, 5005.000
945.1950, 5001.000
946.3150, 5000.000
947.4340, 4994.000
948.5530, 5043.000
949.6720, 4931.000
950.7900, 5086.000
951.9090, 5049.000
953.0270, 5180.000
954.1460, 5174.000
955.2640, 5183.000
956.3820, 5239.000
957.4990, 5114.000
958.6170, 5244.000
959.7340, 5258.000
960.8520, 5309.000
961.9690, 5433.000
963.0860, 5410.000
964.2020, 5428.000
965.3190, 5433.000
966.4350, 5463.000
967.5520, 5478.047
968.6680, 5502.000
969.7840, 5520.000
970.8990, 5543.000
972.0150, 5563.000
973.1310, 5577.789
974.2460, 5594.000
975.3610, 5630.000
976.4760, 5625.000
977.5910, 5700.000
978.7050, 5784.000
979.8200, 5763.000
980.9340, 5887.000
982.0480, 5891.000
983.1620, 5954.000
984.2760, 6033.000
985.3900, 6070.000
986.5030, 6252.000
987.6160, 6394.000
988.7300, 6494.000
989.8430, 6719.000
990.9550, 6906.000
992.0680, 7056.000
993.1810, 7338.000
994.2930, 7707.000
995.4050, 8091.000
996.5170, 8511.000
997.6290, 9134.000
998.7410, 9803.000
999.8520, 10618.00
1000.964, 11354.00
1002.075, 12411.00
1003.186, 13699.00
1004.297, 15134.00
1005.407, 16733.00
1006.518, 18993.00
1007.628, 21208.00
1008.738, 23866.00
1009.848, 26474.00
1010.958, 28662.00
1012.068, 29611.00
1013.178, 29905.00
1014.287, 28135.00
1015.396, 25881.00
1016.505, 22552.00
1017.614, 19199.00
1018.723, 16573.00
1019.831, 14241.00
1020.940, 12510.00
1022.048, 11157.00
1023.156, 10085.00
1024.264, 9399.000
1025.372, 8759.000
1026.479, 8309.000
1027.587, 7868.000
1028.694, 7722.000
1029.801, 7487.000
1030.908, 7344.000
1032.015, 7216.000
1033.121, 7229.000
1034.228, 7046.000
1035.334, 6953.000
1036.440, 7163.000
1037.546, 7249.000
1038.652, 7232.000
1039.758, 7090.000
1040.863, 6975.000
1041.968, 7012.000
1043.074, 6868.000
1044.178, 6830.000
1045.283, 6732.000
1046.388, 6676.000
1047.492, 6570.000
1048.597, 6451.643
1049.701, 6301.000
1050.805, 6162.000
1051.909, 6056.000
1053.012, 5853.000
1054.116, 5789.000
1055.219, 5742.000
1056.322, 5619.000
1057.425, 5608.000
1058.528, 5566.000
1059.631, 5467.000
1060.733, 5386.000
1061.836, 5329.000
1062.938, 5314.000
1064.040, 5295.000
1065.142, 5296.000
1066.243, 5250.714
1067.345, 5209.000
1068.446, 5162.000
1069.547, 5121.000
1070.648, 5069.000
1071.749, 5053.000
1072.850, 5067.000
1073.951, 5033.000
1075.051, 5037.000
1076.151, 5092.000
1077.251, 5034.000
1078.351, 5118.000
1079.451, 4976.000
1080.550, 5011.000
1081.650, 4947.000
1082.749, 4985.000
1083.848, 4971.000
1084.947, 4920.000
1086.046, 4864.000
1087.144, 4968.000
1088.243, 4929.000
1089.341, 4908.000
1090.439, 4973.000
1091.537, 4886.000
1092.635, 4910.000
1093.732, 4855.000
1094.830, 4884.000
1095.927, 4895.000
1097.024, 4825.000
1098.121, 4909.000
1099.218, 4777.000
1100.314, 4819.000
1101.411, 4808.000
1102.507, 4871.000
1103.603, 4799.000
1104.699, 4819.035
1105.795, 4828.000
1106.890, 4805.000
1107.986, 4774.000
1109.081, 4781.000
1110.176, 4724.000
1111.271, 4741.000
1112.366, 4742.000
1113.461, 4792.000
1114.555, 4759.000
1115.649, 4691.000
1116.744, 4737.000
1117.838, 4680.000
1118.931, 4658.000
1120.025, 4762.000
1121.119, 4719.000
1122.212, 4690.000
1123.305, 4676.000
1124.398, 4681.000
1125.491, 4645.814
1126.584, 4677.000
1127.676, 4610.000
1128.768, 4560.000
1129.861, 4574.000
1130.953, 4640.000
1132.044, 4639.000
1133.136, 4593.000
1134.228, 4567.000
1135.319, 4560.000
1136.410, 4526.814
1137.501, 4482.000
1138.592, 4499.000
1139.683, 4480.000
1140.773, 4494.000
1141.864, 4484.000
1142.954, 4462.000
1144.044, 4451.562
1145.134, 4448.000
1146.224, 4410.000
1147.313, 4382.000
1148.402, 4370.000
1149.492, 4294.000
1150.581, 4372.000
1151.670, 4271.000
1152.758, 4362.000
1153.847, 4408.000
1154.935, 4443.000
1156.024, 4351.000
1157.112, 4361.000
1158.200, 4385.000
1159.287, 4337.309
1160.375, 4390.000
1161.462, 4328.000
1162.550, 4287.000
1163.637, 4328.000
1164.724, 4229.000
1165.810, 4328.000
1166.897, 4344.000
1167.983, 4337.000
1169.070, 4260.000
1170.156, 4319.000
1171.242, 4236.000
1172.327, 4212.000
1173.413, 4234.000
1174.499, 4289.000
1175.584, 4331.000
1176.669, 4264.000
1177.754, 4265.000
1178.839, 4320.000
1179.923, 4360.000
1181.008, 4380.000
1182.092, 4282.000
1183.176, 4215.000
1184.260, 4336.000
1185.344, 4246.000
1186.428, 4276.000
1187.511, 4342.000
1188.595, 4224.000
1189.678, 4290.000
1190.761, 4361.000
1191.843, 4184.000
1192.926, 4235.000
1194.009, 4263.000
1195.091, 4334.000
1196.173, 4268.000
1197.255, 4287.000
1198.337, 4261.000
1199.419, 4262.000
1200.500, 4303.000
1201.582, 4299.784
1202.663, 4289.647
1203.744, 4326.000
1204.825, 4247.000
1205.905, 4222.000
1206.986, 4193.000
1208.066, 4265.000
1209.146, 4297.000
1210.226, 4241.000
1211.306, 4279.000
1212.386, 4258.000
1213.466, 4254.000
1214.545, 4267.554
1215.624, 4239.000
1216.703, 4281.000
1217.782, 4238.000
1218.861, 4250.000
1219.939, 4230.000
1221.018, 4271.000
1222.096, 4255.960
1223.174, 4258.000
1224.252, 4227.000
1225.330, 4281.000
1226.407, 4220.000
1227.485, 4266.000
1228.562, 4273.000
1229.639, 4218.000
1230.716, 4258.000
1231.793, 4235.000
1232.869, 4191.000
1233.946, 4182.000
1235.022, 4197.138
1236.098, 4350.000
1237.174, 4258.000
1238.250, 4294.000
1239.325, 4333.000
1240.401, 4283.000
1241.476, 4283.000
1242.551, 4267.000
1243.626, 4309.000
1244.701, 4309.000
1245.776, 4250.000
1246.850, 4331.000
1247.924, 4325.000
1248.999, 4255.000
1250.073, 4260.000
1251.146, 4232.000
1252.220, 4324.000
1253.293, 4256.000
1254.367, 4264.000
1255.440, 4320.000
1256.513, 4291.000
1257.586, 4294.000
1258.658, 4198.000
1259.731, 4267.000
1260.803, 4334.000
1261.875, 4261.000
1262.947, 4294.000
1264.019, 4245.000
1265.091, 4313.000
1266.162, 4256.000
1267.234, 4278.000
1268.305, 4238.000
1269.376, 4271.000
1270.447, 4304.000
1271.517, 4227.000
1272.588, 4276.000
1273.658, 4269.000
1274.729, 4322.000
1275.799, 4268.000
1276.868, 4241.000
1277.938, 4235.000
1279.008, 4214.756
1280.077, 4273.000
1281.146, 4207.000
1282.215, 4267.000
1283.284, 4263.000
1284.353, 4214.000
1285.421, 4299.000
1286.490, 4290.354
1287.558, 4313.000
1288.626, 4340.000
1289.694, 4310.000
1290.762, 4303.000
1291.829, 4277.000
1292.897, 4283.000
1293.964, 4258.000
1295.031, 4252.000
1296.098, 4291.000
1297.165, 4256.000
1298.231, 4251.000
1299.298, 4279.000
1300.364, 4256.000
1301.430, 4218.000
1302.496, 4201.000
1303.562, 4205.265
1304.627, 4270.000
1305.693, 4226.000
1306.758, 4301.000
1307.823, 4308.000
1308.888, 4309.000
1309.953, 4265.000
1311.018, 4307.000
1312.082, 4271.000
1313.146, 4269.000
1314.210, 4300.000
1315.274, 4281.000
1316.338, 4263.000
1317.402, 4362.000
1318.465, 4373.000
1319.529, 4302.000
1320.592, 4336.000
1321.655, 4312.000
1322.718, 4312.000
1323.780, 4340.000
1324.843, 4289.000
1325.905, 4373.000
1326.967, 4353.000
1328.029, 4340.000
1329.091, 4328.000
1330.153, 4339.000
1331.214, 4280.000
1332.275, 4333.000
1333.337, 4367.000
1334.398, 4295.000
1335.458, 4346.000
1336.519, 4299.000
1337.580, 4294.000
1338.640, 4404.000
1339.700, 4414.000
1340.760, 4395.042
1341.820, 4313.000
1342.880, 4323.000
1343.939, 4264.000
1344.999, 4217.000
1346.058, 4304.000
1347.117, 4337.000
1348.176, 4365.000
1349.235, 4244.000
1350.293, 4312.000
1351.351, 4290.000
1352.410, 4310.000
1353.468, 4286.000
1354.526, 4307.065
1355.583, 4363.000
1356.641, 4351.000
1357.698, 4346.000
1358.756, 4379.000
1359.813, 4367.000
1360.869, 4333.000
1361.926, 4279.000
1362.983, 4376.000
1364.039, 4314.000
1365.095, 4396.000
1366.152, 4363.000
1367.207, 4348.000
1368.263, 4285.000
1369.319, 4345.000
1370.374, 4385.000
1371.430, 4335.000
1372.485, 4313.000
1373.540, 4316.000
1374.594, 4345.000
1375.649, 4339.000
1376.703, 4360.949
1377.758, 4288.000
1378.812, 4360.000
1379.866, 4369.000
1380.920, 4294.000
1381.973, 4347.000
1383.027, 4347.000
1384.080, 4338.000
1385.133, 4380.000
1386.186, 4311.000
1387.239, 4345.000
1388.291, 4307.000
1389.344, 4313.000
1390.396, 4321.000
1391.448, 4316.000
1392.500, 4274.000
1393.552, 4402.000
1394.604, 4298.000
1395.655, 4421.000
1396.707, 4324.000
1397.758, 4344.000
1398.809, 4428.000
1399.860, 4251.000
1400.910, 4340.000
1401.961, 4309.000
1403.011, 4367.000
1404.061, 4317.000
1405.111, 4319.000
1406.161, 4283.000
1407.211, 4423.000
1408.260, 4343.000
1409.310, 4297.000
1410.359, 4409.000
1411.408, 4305.000
1412.457, 4236.000
1413.506, 4278.000
1414.554, 4241.890
1415.603, 4283.000
1416.651, 4289.000
1417.699, 4341.000
1418.747, 4379.000
1419.794, 4362.000
1420.842, 4344.000
1421.889, 4303.000
1422.937, 4383.000
1423.984, 4338.000
1425.031, 4331.000
1426.077, 4351.000
1427.124, 4335.000
1428.170, 4344.000
1429.217, 4300.000
1430.263, 4292.000
1431.309, 4326.000
1432.354, 4226.000
1433.400, 4340.000
1434.445, 4290.000
1435.491, 4278.000
1436.536, 4269.000
1437.581, 4276.457
1438.625, 4302.000
1439.670, 4290.000
1440.714, 4315.792
1441.759, 4331.959
1442.803, 4344.000
1443.847, 4355.000
1444.890, 4352.000
1445.934, 4320.000
1446.978, 4315.000
1448.021, 4377.000
1449.064, 4276.000
1450.107, 4419.000
1451.150, 4242.000
1452.192, 4327.000
1453.235, 4244.000
1454.277, 4339.000
1455.319, 4359.000
1456.361, 4284.000
1457.403, 4324.000
1458.445, 4300.000
1459.486, 4279.000
1460.528, 4370.000
1461.569, 4240.000
1462.610, 4307.000
1463.651, 4427.000
1464.691, 4320.000
1465.732, 4300.000
1466.772, 4227.000
1467.812, 4264.000
1468.852, 4237.574
1469.892, 4352.000
1470.932, 4260.000
1471.971, 4316.000
1473.011, 4369.000
1474.050, 4361.000
1475.089, 4378.000
1476.128, 4283.000
1477.166, 4276.000
1478.205, 4281.000
1479.243, 4337.000
1480.282, 4312.000
1481.320, 4374.000
1482.357, 4336.000
1483.395, 4252.000
1484.433, 4317.000
1485.470, 4214.000
1486.507, 4362.000
1487.544, 4325.000
1488.581, 4278.000
1489.618, 4321.000
1490.655, 4211.000
1491.691, 4265.000
1492.727, 4399.000
1493.763, 4369.000
1494.799, 4366.000
1495.835, 4239.000
1496.871, 4305.000
1497.906, 4323.000
1498.941, 4324.000
1499.976, 4326.000
1501.011, 4263.000
1502.046, 4302.000
1503.081, 4280.000
1504.115, 4279.000
1505.149, 4330.000
1506.183, 4297.000
1507.217, 4335.000
1508.251, 4287.000
1509.285, 4265.000
1510.318, 4373.000
1511.352, 4344.000
1512.385, 4391.000
1513.418, 4297.000
1514.450, 4288.000
1515.483, 4270.000
1516.516, 4309.000
1517.548, 4344.000
1518.580, 4401.000
1519.612, 4348.000
1520.644, 4276.000
1521.675, 4343.000
1522.707, 4343.000
1523.738, 4301.000
1524.769, 4343.000
1525.800, 4302.000
1526.831, 4352.000
1527.862, 4372.000
1528.892, 4278.000
1529.923, 4299.000
1530.953, 4365.000
1531.983, 4334.000
1533.013, 4341.000
1534.042, 4355.000
1535.072, 4384.000
1536.101, 4315.000
1537.131, 4313.000
1538.160, 4300.000
1539.188, 4331.000
1540.217, 4331.054
1541.246, 4384.000
1542.274, 4346.000
1543.302, 4335.000
1544.330, 4311.000
1545.358, 4246.000
1546.386, 4349.000
1547.413, 4270.000
1548.441, 4365.000
1549.468, 4346.000
1550.495, 4371.000
1551.522, 4447.000
1552.549, 4493.000
1553.575, 4502.000
1554.602, 4555.000
1555.628, 4506.000
1556.654, 4381.000
1557.680, 4335.000
1558.706, 4281.000
1559.731, 4383.000
1560.757, 4280.000
1561.782, 4322.000
1562.807, 4307.000
1563.832, 4295.000
1564.857, 4312.000
1565.881, 4298.189
1566.906, 4299.000
1567.930, 4310.000
1568.954, 4295.000
1569.978, 4335.000
1571.002, 4305.000
1572.025, 4316.000
1573.049, 4328.000
1574.072, 4366.000
1575.095, 4355.000
1576.118, 4290.000
1577.141, 4359.000
1578.164, 4291.000
##END=



