##NAMES=Diopside
##RRUFFID=R060276
##IDEAL CHEMISTRY=CaMgSi_2_O_6_
##LOCALITY=Inagli, Yakutia, Siberia, Russia
##OWNER=RRUFF
##SOURCE=Herb Obodda
##DESCRIPTION=Transparent green cleavage fragment
##STATUS=The identification of this mineral has been confirmed by X-ray diffraction and chemical analysis
##URL=rruff.info/R060276
##MEASURED CHEMISTRY=(Ca_0.97_Na_0.03_)_Σ=1_(Mg_0.96_Fe_0.03_Cr_0.01_)_Σ=1_(Si_1.98_Al_0.02_)_Σ=2_O_6_
##PIN_ID=L01049
##ORIENTATION=Laser parallel to a* (1 0 0). Fiducial mark perpendicular to laser is parallel to -b [0 -1 0]
109.5120, 6454.000
110.7440, 5663.000
111.9760, 5604.000
113.2080, 5739.000
114.4400, 5924.000
115.6710, 6089.000
116.9030, 6085.000
118.1340, 6052.000
119.3650, 6077.000
120.5960, 6254.000
121.8270, 6434.000
123.0580, 6729.000
124.2880, 6911.000
125.5190, 7237.000
126.7490, 8083.000
127.9790, 9098.000
129.2090, 10380.00
130.4390, 11580.00
131.6680, 12712.00
132.8980, 13037.00
134.1270, 13511.00
135.3560, 14224.00
136.5850, 14770.00
137.8140, 15218.00
139.0430, 15609.00
140.2710, 15281.00
141.5000, 14824.00
142.7280, 13866.00
143.9560, 12678.00
145.1840, 11242.00
146.4120, 9739.000
147.6390, 8837.000
148.8670, 8001.000
150.0940, 7397.000
151.3210, 7296.000
152.5490, 6900.000
153.7750, 6777.000
155.0020, 6718.000
156.2290, 6446.000
157.4550, 6513.000
158.6810, 6384.000
159.9080, 6373.000
161.1340, 6371.000
162.3590, 6416.000
163.5850, 6494.000
164.8110, 6482.000
166.0360, 6592.000
167.2610, 6556.000
168.4860, 6632.000
169.7110, 6759.000
170.9360, 6841.000
172.1610, 6820.000
173.3850, 7034.000
174.6100, 6887.000
175.8340, 6880.000
177.0580, 7058.000
178.2820, 7279.000
179.5050, 7337.000
180.7290, 7417.000
181.9520, 7751.000
183.1760, 7556.000
184.3990, 7680.000
185.6220, 7685.000
186.8450, 7506.000
188.0670, 7300.000
189.2900, 7159.000
190.5120, 7027.000
191.7340, 7158.000
192.9560, 7243.000
194.1780, 7370.000
195.4000, 7447.000
196.6220, 7495.000
197.8430, 7317.000
199.0640, 7249.000
200.2860, 7088.000
201.5070, 6916.000
202.7270, 6812.000
203.9480, 6523.000
205.1690, 6423.000
206.3890, 6265.000
207.6090, 6234.000
208.8290, 6279.000
210.0490, 6361.000
211.2690, 6443.000
212.4890, 6444.000
213.7080, 6460.000
214.9280, 6675.000
216.1470, 6689.000
217.3660, 6781.000
218.5850, 7116.000
219.8030, 7269.000
221.0220, 7571.000
222.2400, 7782.000
223.4590, 8000.000
224.6770, 8274.000
225.8950, 8434.000
227.1120, 8654.000
228.3300, 8865.000
229.5480, 9020.000
230.7650, 8903.000
231.9820, 9038.000
233.1990, 8742.000
234.4160, 8570.000
235.6330, 8130.000
236.8490, 7944.000
238.0660, 7449.000
239.2820, 7324.000
240.4980, 7342.000
241.7140, 7254.000
242.9300, 7323.000
244.1460, 7455.000
245.3610, 7588.000
246.5770, 7681.000
247.7920, 7828.000
249.0070, 7791.000
250.2220, 7917.000
251.4370, 8160.000
252.6510, 8352.000
253.8660, 8339.000
255.0800, 8249.000
256.2940, 8140.000
257.5080, 8258.000
258.7220, 8453.000
259.9360, 8003.000
261.1490, 7218.000
262.3630, 7009.000
263.5760, 6906.000
264.7890, 6747.000
266.0020, 6750.000
267.2150, 6679.161
268.4270, 6615.000
269.6400, 6645.000
270.8520, 6620.000
272.0640, 6608.000
273.2760, 6596.000
274.4880, 6605.406
275.7000, 6677.000
276.9120, 6647.000
278.1230, 6706.000
279.3340, 6749.000
280.5450, 6715.000
281.7560, 6807.682
282.9670, 6904.000
284.1780, 6947.000
285.3880, 6882.000
286.5980, 6960.000
287.8090, 7127.000
289.0190, 7123.000
290.2290, 7291.000
291.4380, 7543.000
292.6480, 7640.000
293.8570, 7740.000
295.0670, 7940.000
296.2760, 8013.000
297.4850, 8218.000
298.6930, 8314.000
299.9020, 8554.000
301.1110, 8842.000
302.3190, 9134.000
303.5270, 9312.000
304.7350, 9564.000
305.9430, 9804.000
307.1510, 10251.00
308.3580, 10798.00
309.5660, 11615.00
310.7730, 12511.00
311.9800, 14157.00
313.1870, 15757.00
314.3940, 17390.00
315.6010, 18971.00
316.8070, 20668.00
318.0130, 21999.00
319.2200, 23597.00
320.4260, 25002.00
321.6310, 26318.00
322.8370, 27289.00
324.0430, 27483.00
325.2480, 26806.00
326.4540, 25638.00
327.6590, 23982.00
328.8640, 21821.00
330.0680, 19548.00
331.2730, 16905.00
332.4780, 15067.00
333.6820, 13759.00
334.8860, 12587.00
336.0900, 11655.00
337.2940, 11257.00
338.4980, 10683.00
339.7010, 10369.00
340.9050, 10160.00
342.1080, 9965.000
343.3110, 9955.000
344.5140, 9943.000
345.7170, 9912.000
346.9200, 10042.00
348.1220, 10018.00
349.3240, 10251.00
350.5270, 10465.00
351.7290, 10494.00
352.9310, 10769.00
354.1320, 11066.00
355.3340, 11141.00
356.5350, 11589.00
357.7370, 11707.00
358.9380, 11930.00
360.1390, 12012.00
361.3400, 12008.00
362.5400, 12037.00
363.7410, 12136.00
364.9410, 12377.00
366.1410, 12447.00
367.3410, 12418.00
368.5410, 12367.00
369.7410, 12287.00
370.9400, 11907.00
372.1400, 11768.00
373.3390, 11537.00
374.5380, 11505.00
375.7370, 11543.00
376.9360, 11860.00
378.1350, 12435.00
379.3330, 13465.00
380.5310, 14667.00
381.7300, 15874.00
382.9280, 17301.00
384.1260, 18499.00
385.3230, 19764.00
386.5210, 20739.00
387.7180, 21810.00
388.9160, 22939.00
390.1130, 23272.00
391.3100, 23379.00
392.5060, 22678.00
393.7030, 21343.00
394.9000, 19515.00
396.0960, 17463.00
397.2920, 15481.00
398.4880, 13900.00
399.6840, 12387.00
400.8800, 11213.00
402.0750, 10653.00
403.2710, 9919.000
404.4660, 9437.000
405.6610, 9064.000
406.8560, 8814.000
408.0510, 8577.000
409.2450, 8455.000
410.4400, 8320.000
411.6340, 8211.000
412.8280, 8069.000
414.0220, 8016.946
415.2160, 7940.000
416.4100, 7954.000
417.6030, 7989.000
418.7970, 8037.000
419.9900, 8036.000
421.1830, 7879.000
422.3760, 7892.000
423.5690, 7926.000
424.7610, 7878.000
425.9540, 7936.000
427.1460, 7906.000
428.3380, 7787.000
429.5300, 7814.000
430.7220, 7848.000
431.9140, 7902.000
433.1050, 7887.000
434.2970, 7852.000
435.4880, 7801.000
436.6790, 7896.000
437.8700, 7851.000
439.0610, 7838.000
440.2510, 7857.473
441.4420, 7761.000
442.6320, 7862.000
443.8220, 7846.000
445.0120, 7888.000
446.2020, 7977.000
447.3910, 7976.000
448.5810, 8011.000
449.7700, 7986.000
450.9600, 8008.000
452.1490, 7999.000
453.3370, 8033.000
454.5260, 8125.000
455.7150, 8221.000
456.9030, 8237.000
458.0910, 8427.000
459.2800, 8336.000
460.4670, 8506.000
461.6550, 8495.000
462.8430, 8476.000
464.0300, 8432.000
465.2180, 8535.000
466.4050, 8555.000
467.5920, 8452.000
468.7790, 8391.000
469.9650, 8334.000
471.1520, 8290.000
472.3380, 8164.000
473.5250, 8243.000
474.7110, 8264.000
475.8970, 8153.000
477.0820, 8140.000
478.2680, 8171.000
479.4540, 8061.000
480.6390, 8190.000
481.8240, 8128.000
483.0090, 8229.000
484.1940, 8215.000
485.3780, 8230.000
486.5630, 8060.000
487.7470, 8303.000
488.9320, 8211.000
490.1160, 8332.000
491.3000, 8248.000
492.4830, 8297.000
493.6670, 8423.000
494.8500, 8394.000
496.0340, 8490.000
497.2170, 8641.000
498.4000, 8776.000
499.5820, 8950.000
500.7650, 9169.000
501.9480, 9341.000
503.1300, 9542.000
504.3120, 9821.000
505.4940, 10102.00
506.6760, 10182.00
507.8580, 10564.00
509.0390, 10553.00
510.2210, 10640.00
511.4020, 10592.00
512.5830, 10455.00
513.7640, 10331.00
514.9450, 10451.00
516.1250, 10226.00
517.3060, 10196.00
518.4860, 10011.00
519.6660, 9873.000
520.8460, 9754.000
522.0260, 9920.000
523.2060, 9846.000
524.3850, 9974.000
525.5650, 9934.000
526.7440, 9954.000
527.9230, 9905.000
529.1020, 9878.000
530.2810, 9840.013
531.4590, 9800.594
532.6380, 9704.000
533.8160, 9637.387
534.9940, 9564.000
536.1720, 9449.000
537.3500, 9309.000
538.5270, 9200.000
539.7050, 9150.000
540.8820, 9060.323
542.0590, 9121.000
543.2360, 8968.000
544.4130, 9032.000
545.5900, 9034.000
546.7660, 9159.000
547.9430, 9060.000
549.1190, 8989.000
550.2950, 9058.000
551.4710, 9088.000
552.6470, 9128.000
553.8220, 9114.000
554.9980, 9096.000
556.1730, 9170.000
557.3480, 9154.000
558.5230, 9087.000
559.6980, 9113.852
560.8730, 9079.797
562.0470, 9088.000
563.2220, 9074.000
564.3960, 9077.000
565.5700, 9062.362
566.7440, 9045.654
567.9170, 9031.000
569.0910, 9016.000
570.2640, 9001.000
571.4380, 9009.000
572.6110, 8973.000
573.7840, 8905.000
574.9570, 8962.000
576.1290, 8906.000
577.3020, 8992.000
578.4740, 8983.000
579.6460, 9004.000
580.8180, 8913.000
581.9900, 8994.000
583.1620, 9013.000
584.3330, 8764.000
585.5040, 8906.000
586.6760, 8832.000
587.8470, 8858.000
589.0180, 8915.000
590.1880, 8817.000
591.3590, 8951.000
592.5290, 8761.000
593.7000, 8812.000
594.8700, 8978.000
596.0400, 8800.000
597.2090, 8869.000
598.3790, 8879.000
599.5490, 8903.000
600.7180, 8859.000
601.8870, 8879.000
603.0560, 8957.000
604.2250, 8978.000
605.3940, 8919.000
606.5620, 8948.000
607.7300, 8948.000
608.8990, 8947.000
610.0670, 8961.389
611.2350, 9030.000
612.4020, 8974.000
613.5700, 9053.000
614.7370, 9066.000
615.9050, 9029.000
617.0720, 9114.884
618.2390, 9212.000
619.4060, 9209.000
620.5720, 9267.000
621.7390, 9282.000
622.9050, 9382.000
624.0710, 9581.000
625.2370, 9497.000
626.4030, 9533.000
627.5690, 9812.000
628.7340, 9752.000
629.9000, 9893.000
631.0650, 9899.000
632.2300, 10022.00
633.3950, 10020.00
634.5600, 10252.00
635.7240, 10311.00
636.8890, 10501.00
638.0530, 10713.00
639.2170, 10848.00
640.3810, 10999.00
641.5450, 11114.00
642.7080, 11365.00
643.8720, 11617.00
645.0350, 12084.00
646.1980, 12388.00
647.3610, 12971.00
648.5240, 13466.00
649.6870, 14343.00
650.8490, 15256.00
652.0120, 16628.00
653.1740, 18307.00
654.3360, 20188.00
655.4980, 23088.00
656.6600, 26200.00
657.8210, 29910.00
658.9830, 33527.00
660.1440, 37147.00
661.3050, 40587.00
662.4660, 43634.00
663.6270, 45423.00
664.7870, 47190.00
665.9480, 47410.00
667.1080, 46669.00
668.2680, 43759.00
669.4280, 40297.00
670.5880, 35950.00
671.7480, 31631.00
672.9070, 27075.00
674.0670, 24113.00
675.2260, 21165.00
676.3850, 19036.00
677.5440, 17447.00
678.7030, 16057.00
679.8610, 15122.00
681.0200, 14224.00
682.1780, 13409.00
683.3360, 12826.00
684.4940, 12449.00
685.6520, 12127.00
686.8090, 11877.00
687.9670, 11740.00
689.1240, 11480.00
690.2810, 11362.00
691.4380, 11194.20
692.5950, 11134.00
693.7520, 10950.00
694.9080, 10886.00
696.0650, 10867.00
697.2210, 10882.00
698.3770, 10945.00
699.5330, 10916.00
700.6880, 10918.00
701.8440, 10880.76
702.9990, 10949.00
704.1550, 10806.00
705.3100, 10835.00
706.4650, 10891.00
707.6190, 10790.00
708.7740, 10914.00
709.9290, 10689.00
711.0830, 10708.00
712.2370, 10454.00
713.3910, 10551.00
714.5450, 10475.00
715.6980, 10436.00
716.8520, 10399.00
718.0050, 10318.00
719.1580, 10267.00
720.3110, 10222.00
721.4640, 10111.00
722.6170, 10243.00
723.7700, 10216.00
724.9220, 10111.00
726.0740, 10089.00
727.2260, 10030.00
728.3780, 9969.000
729.5300, 10014.00
730.6810, 9934.000
731.8330, 9987.000
732.9840, 10059.00
734.1350, 9871.000
735.2860, 10043.00
736.4370, 9981.000
737.5880, 10027.00
738.7380, 9959.000
739.8880, 9984.000
741.0390, 9909.000
742.1890, 10057.00
743.3380, 9922.000
744.4880, 10044.00
745.6380, 9970.000
746.7870, 10035.00
747.9360, 10070.00
749.0850, 10013.00
750.2340, 10006.00
751.3830, 10073.00
752.5310, 10038.00
753.6800, 10171.00
754.8280, 10089.00
755.9760, 10029.00
757.1240, 10179.00
758.2720, 10109.00
759.4190, 10172.00
760.5670, 10110.00
761.7140, 10218.00
762.8610, 10173.00
764.0080, 10139.00
765.1550, 10251.00
766.3020, 10288.00
767.4480, 10298.00
768.5950, 10194.00
769.7410, 10267.00
770.8870, 10366.00
772.0330, 10327.00
773.1780, 10466.00
774.3240, 10334.00
775.4690, 10374.00
776.6140, 10411.00
777.7590, 10385.00
778.9040, 10445.00
780.0490, 10381.00
781.1940, 10344.00
782.3380, 10358.00
783.4820, 10427.00
784.6260, 10506.00
785.7700, 10572.00
786.9140, 10564.51
788.0580, 10450.00
789.2010, 10546.00
790.3450, 10451.00
791.4880, 10481.00
792.6310, 10507.00
793.7730, 10433.00
794.9160, 10469.00
796.0590, 10457.00
797.2010, 10471.38
798.3430, 10442.00
799.4850, 10540.00
800.6270, 10578.00
801.7690, 10629.00
802.9100, 10583.00
804.0520, 10527.00
805.1930, 10438.00
806.3340, 10761.00
807.4750, 10657.00
808.6160, 10681.00
809.7560, 10693.00
810.8970, 10586.00
812.0370, 10563.00
813.1770, 10630.00
814.3170, 10749.00
815.4570, 10722.00
816.5960, 10720.00
817.7360, 10733.00
818.8750, 10713.00
820.0140, 10692.00
821.1530, 10809.00
822.2920, 10651.00
823.4310, 10881.00
824.5690, 10754.00
825.7070, 10901.00
826.8460, 10947.00
827.9840, 10932.00
829.1220, 10834.00
830.2590, 10897.00
831.3970, 10966.00
832.5340, 10946.00
833.6710, 11071.00
834.8080, 11120.00
835.9450, 11186.00
837.0820, 11055.00
838.2190, 11081.00
839.3550, 11076.00
840.4910, 11220.00
841.6270, 11357.00
842.7630, 11341.00
843.8990, 11655.00
845.0350, 11637.00
846.1700, 12012.00
847.3060, 12273.00
848.4410, 12715.00
849.5760, 12791.00
850.7100, 13128.00
851.8450, 13363.00
852.9800, 13428.00
854.1140, 13483.00
855.2480, 13581.00
856.3820, 13583.00
857.5160, 13293.00
858.6500, 13034.00
859.7830, 12800.00
860.9170, 12607.00
862.0500, 12479.00
863.1830, 12424.00
864.3160, 12282.00
865.4480, 12152.00
866.5810, 12153.00
867.7130, 12001.00
868.8460, 12075.00
869.9780, 12036.00
871.1100, 11873.00
872.2410, 11845.00
873.3730, 11919.00
874.5050, 11879.00
875.6360, 11932.00
876.7670, 11958.00
877.8980, 11932.00
879.0290, 12054.00
880.1590, 11969.00
881.2900, 12053.00
882.4200, 12048.00
883.5500, 12110.00
884.6800, 12093.00
885.8100, 12094.00
886.9400, 12103.00
888.0690, 12094.00
889.1990, 12168.00
890.3280, 12123.00
891.4570, 12184.00
892.5860, 12128.00
893.7140, 12155.00
894.8430, 12235.00
895.9710, 12315.00
897.1000, 12320.00
898.2280, 12352.00
899.3560, 12362.62
900.4830, 12354.00
901.6110, 12350.00
902.7380, 12354.00
903.8660, 12337.00
904.9930, 12407.00
906.1200, 12412.00
907.2460, 12398.00
908.3730, 12585.00
909.5000, 12408.00
910.6260, 12570.00
911.7520, 12671.00
912.8780, 12601.00
914.0040, 12788.00
915.1290, 12784.00
916.2550, 12614.00
917.3800, 12893.00
918.5050, 12896.00
919.6300, 12776.00
920.7550, 12726.00
921.8800, 12659.00
923.0040, 12544.00
924.1290, 12498.00
925.2530, 12481.17
926.3770, 12637.00
927.5010, 12450.00
928.6250, 12566.00
929.7480, 12471.00
930.8720, 12399.00
931.9950, 12411.00
933.1180, 12386.00
934.2410, 12373.09
935.3640, 12437.00
936.4860, 12403.00
937.6090, 12384.00
938.7310, 12469.00
939.8530, 12554.00
940.9750, 12447.00
942.0970, 12490.00
943.2180, 12535.00
944.3400, 12383.00
945.4610, 12464.00
946.5820, 12398.00
947.7030, 12486.00
948.8240, 12616.00
949.9450, 12604.00
951.0650, 12585.00
952.1860, 12612.00
953.3060, 12584.00
954.4260, 12638.85
955.5460, 12817.00
956.6650, 12786.00
957.7850, 12814.00
958.9040, 12972.00
960.0230, 12853.00
961.1420, 13002.00
962.2610, 13070.00
963.3800, 13102.00
964.4990, 12992.00
965.6170, 13128.00
966.7350, 13297.00
967.8530, 13088.00
968.9710, 13271.00
970.0890, 13155.00
971.2070, 13242.00
972.3240, 13369.00
973.4410, 13382.00
974.5580, 13451.00
975.6750, 13642.00
976.7920, 13630.00
977.9090, 13636.00
979.0250, 13779.00
980.1410, 13781.14
981.2580, 13992.00
982.3740, 13941.00
983.4890, 14055.00
984.6050, 14232.00
985.7200, 14292.00
986.8360, 14476.28
987.9510, 14688.00
989.0660, 14814.00
990.1810, 15080.00
991.2950, 15283.00
992.4100, 15650.00
993.5240, 16103.00
994.6390, 16323.00
995.7530, 16944.00
996.8660, 17707.00
997.9800, 18656.00
999.0940, 19609.00
1000.207, 21153.00
1001.320, 22726.00
1002.433, 25094.00
1003.546, 27872.00
1004.659, 32032.00
1005.772, 36046.00
1006.884, 41037.00
1007.996, 45903.00
1009.108, 50583.00
1010.220, 54388.00
1011.332, 57215.00
1012.444, 58356.00
1013.555, 57452.00
1014.666, 54016.00
1015.777, 48640.00
1016.888, 42759.00
1017.999, 36739.00
1019.110, 31402.00
1020.220, 27361.00
1021.331, 24101.00
1022.441, 21992.00
1023.551, 20427.00
1024.661, 19396.00
1025.770, 18421.00
1026.880, 17668.00
1027.989, 17170.00
1029.098, 16645.00
1030.207, 16630.00
1031.316, 16269.00
1032.425, 16205.00
1033.533, 16445.00
1034.642, 16089.00
1035.750, 16089.00
1036.858, 16081.00
1037.966, 16129.00
1039.073, 16262.00
1040.181, 16479.00
1041.288, 16557.00
1042.396, 16781.00
1043.503, 16769.00
1044.610, 16783.00
1045.716, 16701.00
1046.823, 16628.00
1047.929, 16600.00
1049.036, 16554.00
1050.142, 16291.00
1051.248, 15953.00
1052.353, 15811.00
1053.459, 15547.00
1054.564, 15435.00
1055.670, 15313.00
1056.775, 15073.00
1057.880, 15076.00
1058.985, 15017.00
1060.089, 14900.00
1061.194, 14842.00
1062.298, 14778.35
1063.402, 14726.94
1064.506, 14692.00
1065.610, 14651.00
1066.713, 14623.71
1067.817, 14601.00
1068.920, 14576.03
1070.023, 14549.46
1071.126, 14522.00
1072.229, 14484.00
1073.332, 14496.00
1074.435, 14464.00
1075.537, 14516.00
1076.639, 14410.00
1077.741, 14404.00
1078.843, 14308.00
1079.945, 14365.00
1081.046, 14481.00
1082.148, 14429.00
1083.249, 14413.00
1084.350, 14513.00
1085.451, 14292.00
1086.551, 14473.00
1087.652, 14307.00
1088.752, 14417.00
1089.853, 14307.00
1090.953, 14485.00
1092.053, 14359.00
1093.152, 14380.00
1094.252, 14391.00
1095.351, 14494.00
1096.451, 14508.00
1097.550, 14378.00
1098.649, 14330.00
1099.748, 14416.00
1100.846, 14423.00
1101.945, 14395.00
1103.043, 14480.00
1104.141, 14380.00
1105.239, 14485.00
1106.337, 14450.00
1107.434, 14424.00
1108.532, 14559.00
1109.629, 14358.00
1110.726, 14364.00
1111.823, 14362.00
1112.920, 14357.00
1114.017, 14422.00
1115.113, 14376.00
1116.210, 14562.00
1117.306, 14425.00
1118.402, 14590.00
1119.498, 14359.00
1120.593, 14529.00
1121.689, 14368.00
1122.784, 14684.00
1123.879, 14375.00
1124.974, 14532.00
1126.069, 14671.00
1127.164, 14642.00
1128.259, 14575.00
1129.353, 14555.00
1130.447, 14517.00
1131.541, 14523.62
1132.635, 14623.00
1133.729, 14585.00
1134.822, 14607.00
1135.916, 14688.00
1137.009, 14527.00
1138.102, 14581.00
1139.195, 14641.00
1140.288, 14524.00
1141.380, 14501.00
1142.473, 14598.00
1143.565, 14574.00
1144.657, 14614.00
1145.749, 14417.00
1146.841, 14652.00
1147.932, 14572.00
1149.024, 14488.00
1150.115, 14630.00
1151.206, 14637.00
1152.297, 14673.00
1153.388, 14608.00
1154.479, 14569.00
1155.569, 14606.00
1156.659, 14457.00
1157.750, 14658.00
1158.839, 14474.00
1159.929, 14587.00
1161.019, 14599.00
1162.108, 14614.00
1163.198, 14665.00
1164.287, 14639.69
1165.376, 14556.00
1166.465, 14594.00
1167.553, 14587.00
1168.642, 14536.00
1169.730, 14690.00
1170.818, 14626.00
1171.906, 14763.00
1172.994, 14450.00
1174.082, 14767.00
1175.170, 14523.00
1176.257, 14716.00
1177.344, 14691.00
1178.431, 14614.00
1179.518, 14779.00
1180.605, 14712.00
1181.691, 14702.00
1182.778, 14773.00
1183.864, 14787.00
1184.950, 14773.00
1186.036, 14774.70
1187.122, 14915.00
1188.207, 14777.00
1189.292, 14781.00
1190.378, 14915.00
1191.463, 14779.00
1192.548, 14902.00
1193.632, 14908.00
1194.717, 14896.00
1195.801, 14864.00
1196.886, 14941.00
1197.970, 14936.00
1199.054, 14890.00
1200.137, 15001.00
1201.221, 15030.00
1202.305, 15061.00
1203.388, 15156.00
1204.471, 15027.00
1205.554, 14963.00
1206.637, 15057.00
1207.719, 15084.00
1208.802, 15135.00
1209.884, 15172.00
1210.966, 15077.00
1212.048, 15101.00
1213.130, 15192.00
1214.212, 15326.00
1215.293, 15244.00
1216.374, 15211.00
1217.456, 15283.00
1218.536, 15265.00
1219.617, 15253.00
1220.698, 15216.00
1221.778, 15145.00
1222.859, 15195.00
1223.939, 15153.00
1225.019, 15447.00
1226.099, 15209.00
1227.178, 15337.00
1228.258, 15517.00
1229.337, 15355.00
1230.417, 15457.00
1231.496, 15489.00
1232.574, 15428.00
1233.653, 15521.02
1234.732, 15457.00
1235.810, 15544.00
1236.888, 15474.00
1237.966, 15341.00
1239.044, 15547.00
1240.122, 15498.00
1241.199, 15663.00
1242.277, 15508.00
1243.354, 15541.00
1244.431, 15510.00
1245.508, 15675.00
1246.585, 15611.00
1247.661, 15589.00
1248.738, 15728.00
1249.814, 15735.00
1250.890, 15795.00
1251.966, 15613.00
1253.042, 15621.00
1254.117, 15745.00
1255.193, 15681.00
1256.268, 15764.00
1257.343, 15724.00
1258.418, 15719.00
1259.493, 15881.00
1260.567, 15805.00
1261.642, 15867.00
1262.716, 15781.00
1263.790, 15822.24
1264.864, 15841.56
1265.938, 15892.00
1267.011, 15929.00
1268.085, 15986.00
1269.158, 16089.00
1270.231, 15977.00
1271.304, 15889.00
1272.377, 16159.00
1273.450, 15973.00
1274.522, 16144.00
1275.594, 16140.00
1276.666, 16016.00
1277.738, 16131.00
1278.810, 16120.00
1279.882, 16105.00
1280.953, 16151.04
1282.025, 16204.00
1283.096, 16146.00
1284.167, 16206.00
1285.238, 16155.00
1286.308, 16156.00
1287.379, 16191.00
1288.449, 16169.00
1289.519, 16226.00
1290.589, 16207.00
1291.659, 16369.00
1292.729, 16333.00
1293.798, 16390.00
1294.868, 16457.00
1295.937, 16168.00
1297.006, 16486.00
1298.075, 16298.00
1299.143, 16535.00
1300.212, 16352.00
1301.280, 16357.00
1302.348, 16530.00
1303.416, 16559.00
1304.484, 16524.00
1305.552, 16540.00
1306.620, 16601.00
1307.687, 16585.00
1308.754, 16558.00
1309.821, 16543.00
1310.888, 16628.00
1311.955, 16646.00
1313.021, 16515.00
1314.088, 16666.00
1315.154, 16539.00
1316.220, 16788.00
1317.286, 16642.00
1318.352, 16945.00
1319.417, 16632.00
1320.483, 16940.00
1321.548, 16671.00
1322.613, 16857.00
1323.678, 16974.00
1324.743, 16873.00
1325.807, 16919.00
1326.872, 16980.00
1327.936, 16906.00
1329.000, 16925.00
1330.064, 17038.00
1331.128, 17108.00
1332.191, 16956.00
1333.255, 17131.00
1334.318, 17028.00
1335.381, 17001.00
1336.444, 17165.00
1337.507, 17107.00
1338.569, 17104.00
1339.632, 17088.00
1340.694, 17273.00
1341.756, 17281.00
1342.818, 17232.00
1343.880, 17175.00
1344.941, 17301.00
1346.003, 17210.00
1347.064, 17269.20
1348.125, 17386.00
1349.186, 17347.00
1350.247, 17274.00
1351.308, 17336.00
1352.368, 17355.00
1353.428, 17427.00
1354.489, 17319.00
1355.549, 17340.00
1356.608, 17419.00
1357.668, 17479.00
1358.727, 17584.00
1359.787, 17587.14
1360.846, 17554.00
1361.905, 17559.00
1362.964, 17473.00
1364.022, 17364.00
1365.081, 17617.00
1366.139, 17529.00
1367.197, 17605.00
1368.255, 17791.00
1369.313, 17539.00
1370.371, 17722.00
1371.428, 17558.00
1372.486, 17637.00
1373.543, 17597.00
1374.600, 17814.00
1375.657, 17723.00
1376.713, 17808.00
1377.770, 17661.00
1378.826, 17723.00
1379.882, 17800.00
1380.938, 17931.00
1381.994, 17764.00
1383.050, 17788.00
1384.106, 17866.00
1385.161, 17925.00
1386.216, 17797.00
1387.271, 17722.00
1388.326, 17832.00
1389.381, 17898.00
1390.435, 18084.00
1391.490, 17869.00
1392.544, 17968.00
1393.598, 18067.00
1394.652, 18043.00
1395.705, 18089.00
1396.759, 17962.00
1397.812, 18035.00
1398.866, 18048.00
1399.919, 18240.00
1400.972, 18146.00
1402.024, 18175.00
1403.077, 18117.00
1404.129, 18135.00
1405.181, 18075.00
1406.233, 18079.58
1407.285, 18118.00
1408.337, 18137.00
1409.389, 18167.00
1410.440, 18324.00
1411.491, 18310.00
1412.542, 18368.00
1413.593, 18489.00
1414.644, 18382.00
1415.695, 18486.00
1416.745, 18375.00
1417.795, 18507.00
1418.845, 18424.00
1419.895, 18393.00
1420.945, 18537.00
1421.995, 18596.00
1423.044, 18419.00
1424.093, 18476.00
1425.142, 18368.00
1426.191, 18634.00
1427.240, 18529.00
1428.289, 18657.00
1429.337, 18634.00
1430.385, 18653.00
1431.433, 18749.00
1432.481, 18659.00
1433.529, 18665.00
1434.577, 18805.00
1435.624, 18922.00
1436.672, 18855.00
1437.719, 18812.00
1438.766, 18857.00
1439.812, 18806.00
1440.859, 18806.00
1441.905, 18824.00
1442.952, 18715.00
1443.998, 18808.01
1445.044, 19008.00
1446.090, 18939.00
1447.135, 19077.00
1448.181, 19166.00
1449.226, 19023.00
1450.271, 19146.00
1451.316, 19079.00
1452.361, 19104.00
1453.405, 19139.00
1454.450, 19121.64
1455.494, 19145.00
1456.538, 19166.00
1457.582, 19234.00
1458.626, 19306.00
1459.670, 19394.00
1460.713, 19341.00
1461.757, 19225.00
1462.800, 19288.00
1463.843, 19299.00
1464.886, 19334.00
1465.928, 19327.00
1466.971, 19447.00
1468.013, 19511.00
1469.055, 19670.07
1470.097, 19359.00
1471.139, 20026.00
1472.181, 20305.00
1473.222, 20458.00
1474.263, 20135.00
1475.305, 20302.00
1476.346, 20714.00
1477.386, 19692.00
1478.427, 19619.00
1479.468, 19754.00
1480.508, 19777.00
1481.548, 19791.00
1482.588, 19828.00
1483.628, 19683.00
1484.668, 19767.00
1485.707, 19825.00
1486.747, 19677.00
1487.786, 19858.00
1488.825, 19828.00
1489.864, 19917.00
1490.902, 19933.00
1491.941, 19913.00
1492.979, 20028.00
1494.017, 19981.00
1495.055, 20060.00
1496.093, 19945.00
1497.131, 19735.00
1498.168, 20156.00
1499.206, 20198.00
1500.243, 19966.00
1501.280, 20101.00
1502.317, 20321.00
1503.354, 20260.00
1504.390, 20180.00
1505.426, 20235.00
1506.463, 20395.00
1507.499, 20343.00
1508.535, 20440.00
1509.570, 20358.00
1510.606, 20371.00
1511.641, 20330.00
1512.676, 20366.00
1513.711, 20444.00
1514.746, 20471.00
1515.781, 20530.00
1516.816, 20566.00
1517.850, 20548.00
1518.884, 20510.00
1519.918, 20485.00
1520.952, 20585.00
1521.986, 20684.00
1523.019, 20667.00
1524.053, 20533.00
1525.086, 20571.00
1526.119, 20539.00
1527.152, 20675.00
1528.185, 20910.00
1529.217, 20699.00
1530.250, 20878.00
1531.282, 20971.00
1532.314, 20937.00
1533.346, 20855.00
1534.377, 20902.00
1535.409, 20875.00
1536.440, 21087.00
1537.472, 20880.00
1538.503, 21127.00
1539.534, 21008.00
1540.564, 20977.00
1541.595, 21096.00
1542.625, 20852.00
1543.656, 21226.00
1544.686, 21151.28
1545.716, 21061.00
1546.745, 21198.00
1547.775, 21319.00
1548.804, 21215.00
1549.834, 21204.00
1550.863, 21512.00
1551.892, 21615.00
1552.920, 21469.00
1553.949, 21644.00
1554.977, 21587.00
1556.006, 21567.00
1557.034, 21502.00
1558.062, 21574.00
1559.089, 21483.00
1560.117, 21374.00
1561.144, 21596.00
1562.172, 21648.00
1563.199, 21692.00
1564.226, 21640.00
1565.252, 21663.00
1566.279, 21646.00
1567.305, 21939.00
1568.332, 21819.00
1569.358, 21864.00
1570.384, 21767.00
1571.409, 21732.00
1572.435, 22148.00
##END=



