##NAMES=Diopside
##RRUFFID=R050496
##IDEAL CHEMISTRY=CaMgSi_2_O_6_
##LOCALITY=New City Quarry, Riverside, Riverside County, Calfornia, USA
##OWNER=RRUFF
##SOURCE=California Institute of Technology
##DESCRIPTION=Aggregate of light green irregular grains
##STATUS=The identification of this mineral has been confirmed by X-ray diffraction and chemical analysis
##URL=rruff.info/R050496
##MEASURED CHEMISTRY=Ca(Mg_0.66_Fe_0.33_Mn_0.01_)(Si_0.95_Al_0.05_)_2_O_6_
##PIN_ID=M01464
##ORIENTATION=Laser parallel to b* (0 1 0). Fiducial mark perpendicular to laser is parallel to -c [0 0 -1]
99.46700, 6348.000
100.7030, 6468.000
101.9390, 6551.000
103.1740, 6473.000
104.4090, 6515.000
105.6440, 6505.000
106.8790, 6942.000
108.1140, 7026.000
109.3490, 7053.000
110.5830, 6989.000
111.8180, 6893.000
113.0520, 7060.000
114.2860, 7255.000
115.5200, 7633.000
116.7530, 7899.000
117.9870, 7740.000
119.2200, 7984.000
120.4530, 7877.000
121.6860, 7671.000
122.9190, 7859.000
124.1520, 8204.000
125.3850, 8586.000
126.6170, 8525.000
127.8490, 8532.000
129.0810, 8809.000
130.3130, 9359.000
131.5450, 10031.00
132.7770, 11013.00
134.0080, 12105.00
135.2390, 13637.00
136.4710, 15029.00
137.7020, 15997.00
138.9320, 16494.00
140.1630, 16381.00
141.3930, 15437.00
142.6240, 14362.00
143.8540, 12933.00
145.0840, 11730.00
146.3140, 10465.00
147.5440, 9697.000
148.7730, 9161.000
150.0020, 8524.000
151.2320, 8203.000
152.4610, 7907.000
153.6900, 7824.000
154.9180, 7525.000
156.1470, 7479.000
157.3750, 7433.000
158.6040, 7297.000
159.8320, 7308.000
161.0600, 7168.000
162.2870, 7049.000
163.5150, 7111.000
164.7420, 7274.000
165.9700, 7109.000
167.1970, 7181.000
168.4240, 7047.000
169.6510, 7128.000
170.8770, 7150.000
172.1040, 7170.000
173.3300, 7160.000
174.5560, 7151.000
175.7820, 7216.000
177.0080, 7126.000
178.2340, 7214.000
179.4590, 7103.000
180.6850, 7169.000
181.9100, 7235.000
183.1350, 7110.000
184.3600, 7195.000
185.5850, 7109.000
186.8090, 7116.000
188.0340, 7285.000
189.2580, 7187.000
190.4820, 7237.000
191.7060, 7221.000
192.9300, 7270.000
194.1530, 7384.000
195.3770, 7389.000
196.6000, 7485.000
197.8230, 7400.000
199.0460, 7373.000
200.2690, 7321.000
201.4910, 7437.000
202.7140, 7352.000
203.9360, 7410.000
205.1580, 7378.000
206.3800, 7266.000
207.6020, 7066.000
208.8240, 7066.000
210.0450, 7083.000
211.2670, 7093.000
212.4880, 7121.000
213.7090, 7073.000
214.9300, 7076.000
216.1510, 7041.000
217.3710, 7030.963
218.5920, 7071.000
219.8120, 7035.000
221.0320, 7096.000
222.2520, 7150.000
223.4720, 7039.000
224.6910, 6993.000
225.9110, 7116.000
227.1300, 7096.000
228.3490, 7257.000
229.5680, 7238.000
230.7870, 7222.000
232.0050, 7278.000
233.2240, 7242.000
234.4420, 7199.000
235.6600, 7211.000
236.8780, 7181.000
238.0960, 7291.000
239.3140, 7273.000
240.5310, 7209.000
241.7490, 7381.000
242.9660, 7253.000
244.1830, 7154.000
245.4000, 7262.000
246.6160, 7279.000
247.8330, 7314.000
249.0490, 7330.000
250.2660, 7325.000
251.4820, 7354.000
252.6980, 7330.000
253.9130, 7387.000
255.1290, 7399.201
256.3440, 7487.000
257.5600, 7425.000
258.7750, 7495.000
259.9900, 7442.000
261.2040, 7342.000
262.4190, 7401.000
263.6330, 7436.000
264.8480, 7354.000
266.0620, 7362.000
267.2760, 7385.000
268.4900, 7363.000
269.7030, 7411.000
270.9170, 7383.000
272.1300, 7444.000
273.3430, 7308.000
274.5560, 7353.751
275.7690, 7328.931
276.9820, 7368.000
278.1940, 7320.000
279.4070, 7351.000
280.6190, 7370.000
281.8310, 7475.000
283.0430, 7477.000
284.2550, 7488.000
285.4660, 7533.000
286.6770, 7485.000
287.8890, 7565.000
289.1000, 7521.000
290.3110, 7570.675
291.5210, 7639.000
292.7320, 7693.000
293.9420, 7717.000
295.1530, 7856.000
296.3630, 7864.000
297.5730, 7943.000
298.7830, 8021.000
299.9920, 8002.000
301.2020, 8285.000
302.4110, 8193.000
303.6200, 8495.000
304.8290, 8547.000
306.0380, 8703.000
307.2470, 9013.000
308.4550, 9217.000
309.6630, 9357.000
310.8720, 9724.057
312.0800, 10018.85
313.2880, 10492.00
314.4950, 10788.00
315.7030, 11406.00
316.9100, 11843.00
318.1170, 12444.00
319.3240, 12821.00
320.5310, 13251.00
321.7380, 13643.00
322.9450, 13919.00
324.1510, 14020.00
325.3570, 13785.00
326.5630, 13768.00
327.7690, 13583.00
328.9750, 13247.00
330.1810, 12909.00
331.3860, 12594.00
332.5910, 12355.25
333.7960, 12009.00
335.0010, 11921.00
336.2060, 11785.00
337.4110, 11580.00
338.6150, 11537.00
339.8200, 11480.00
341.0240, 11531.00
342.2280, 11557.00
343.4320, 11682.00
344.6350, 11727.00
345.8390, 11964.00
347.0420, 12198.00
348.2450, 12491.00
349.4480, 12891.00
350.6510, 13277.00
351.8540, 13665.00
353.0560, 13817.00
354.2590, 14083.00
355.4610, 13992.00
356.6630, 13847.00
357.8650, 13714.00
359.0670, 13382.00
360.2680, 13169.00
361.4700, 12967.00
362.6710, 12723.00
363.8720, 12210.00
365.0730, 12012.00
366.2740, 12010.00
367.4740, 11867.00
368.6750, 11827.00
369.8750, 11904.00
371.0750, 11826.00
372.2750, 11795.00
373.4750, 12009.00
374.6740, 12168.00
375.8740, 12569.00
377.0730, 13044.00
378.2720, 13602.00
379.4710, 14292.00
380.6700, 15159.00
381.8690, 16101.00
383.0670, 17219.00
384.2660, 18631.00
385.4640, 19713.00
386.6620, 20678.00
387.8600, 21192.00
389.0570, 21409.00
390.2550, 21216.00
391.4520, 20378.00
392.6490, 19144.00
393.8460, 17706.00
395.0430, 16395.00
396.2400, 15076.00
397.4370, 13829.00
398.6330, 12865.00
399.8290, 11960.00
401.0250, 11288.00
402.2210, 10886.00
403.4170, 10474.00
404.6130, 10060.00
405.8080, 9757.000
407.0030, 9597.000
408.1980, 9359.000
409.3930, 9287.000
410.5880, 9160.000
411.7830, 9209.000
412.9770, 8898.000
414.1720, 8978.000
415.3660, 8907.000
416.5600, 8977.000
417.7530, 8839.000
418.9470, 8844.000
420.1410, 8859.000
421.3340, 8843.000
422.5270, 8720.000
423.7200, 8745.000
424.9130, 8705.000
426.1060, 8748.000
427.2980, 8670.000
428.4900, 8691.000
429.6830, 8754.000
430.8750, 8596.000
432.0670, 8609.000
433.2580, 8547.000
434.4500, 8572.000
435.6410, 8526.000
436.8320, 8530.000
438.0240, 8597.000
439.2140, 8633.000
440.4050, 8525.000
441.5960, 8557.000
442.7860, 8622.000
443.9760, 8605.000
445.1670, 8660.000
446.3560, 8604.000
447.5460, 8652.000
448.7360, 8614.000
449.9250, 8660.000
451.1150, 8770.000
452.3040, 8660.000
453.4930, 8798.000
454.6810, 8848.000
455.8700, 8774.862
457.0590, 8928.999
458.2470, 9018.771
459.4350, 9047.644
460.6230, 8833.213
461.8110, 8932.957
462.9980, 8906.788
464.1860, 8875.463
465.3730, 9019.420
466.5600, 8840.371
467.7470, 8981.549
468.9340, 8994.897
470.1210, 9066.751
471.3080, 9011.919
472.4940, 8996.210
473.6800, 9107.227
474.8660, 9031.000
476.0520, 9044.000
477.2380, 9141.000
478.4230, 9105.000
479.6090, 9067.000
480.7940, 9108.000
481.9790, 8991.000
483.1640, 9060.000
484.3490, 9054.000
485.5330, 9111.000
486.7180, 9127.000
487.9020, 9076.000
489.0860, 9204.000
490.2700, 9116.000
491.4540, 9176.000
492.6370, 9211.000
493.8210, 9238.000
495.0040, 9183.000
496.1870, 9089.000
497.3700, 9200.000
498.5530, 9207.298
499.7360, 9343.000
500.9180, 9395.000
502.1000, 9343.000
503.2830, 9472.000
504.4650, 9365.000
505.6460, 9451.000
506.8280, 9386.000
508.0100, 9446.000
509.1910, 9459.000
510.3720, 9470.000
511.5530, 9546.000
512.7340, 9590.000
513.9150, 9695.000
515.0950, 9627.000
516.2760, 9827.000
517.4560, 9888.000
518.6360, 9918.000
519.8160, 10078.00
520.9950, 10159.00
522.1750, 10184.00
523.3540, 10266.00
524.5340, 10486.00
525.7130, 10810.00
526.8920, 10741.00
528.0700, 10902.00
529.2490, 11006.00
530.4270, 10978.00
531.6060, 10970.00
532.7840, 10936.00
533.9620, 10826.00
535.1390, 10791.00
536.3170, 10826.00
537.4940, 10655.00
538.6720, 10575.00
539.8490, 10376.00
541.0260, 10417.00
542.2030, 10355.00
543.3790, 10344.00
544.5560, 10300.95
545.7320, 10192.00
546.9080, 10145.33
548.0840, 10169.55
549.2600, 10167.36
550.4360, 10140.17
551.6110, 10013.15
552.7860, 10015.08
553.9620, 9965.308
555.1370, 9913.441
556.3110, 9933.552
557.4860, 9821.059
558.6610, 9839.996
559.8350, 9953.000
561.0090, 9901.000
562.1830, 9906.000
563.3570, 9705.000
564.5310, 9786.000
565.7040, 9670.000
566.8780, 9662.000
568.0510, 9726.000
569.2240, 9662.000
570.3970, 9656.000
571.5700, 9652.000
572.7420, 9551.000
573.9150, 9355.000
575.0870, 9428.000
576.2590, 9305.000
577.4310, 9367.000
578.6030, 9227.000
579.7740, 9107.000
580.9460, 9068.000
582.1170, 8903.000
583.2880, 8880.000
584.4590, 8889.000
585.6300, 8746.000
586.8010, 8671.000
587.9710, 8637.000
589.1410, 8576.000
590.3110, 8498.000
591.4810, 8440.000
592.6510, 8421.903
593.8210, 8402.559
594.9900, 8403.000
596.1600, 8422.000
597.3290, 8412.000
598.4980, 8432.000
599.6670, 8461.000
600.8350, 8439.204
602.0040, 8497.000
603.1720, 8400.000
604.3400, 8394.000
605.5080, 8350.000
606.6760, 8586.000
607.8440, 8356.000
609.0120, 8565.000
610.1790, 8515.000
611.3460, 8549.000
612.5130, 8513.000
613.6800, 8568.000
614.8470, 8668.000
616.0130, 8688.000
617.1800, 8739.000
618.3460, 8737.000
619.5120, 8856.000
620.6780, 8868.000
621.8440, 8893.000
623.0090, 9033.000
624.1750, 9095.000
625.3400, 9274.000
626.5050, 9184.000
627.6700, 9349.000
628.8350, 9397.000
629.9990, 9315.000
631.1640, 9623.000
632.3280, 9530.000
633.4920, 9711.000
634.6560, 9835.000
635.8200, 9941.000
636.9840, 10047.00
638.1470, 10308.00
639.3100, 10354.00
640.4730, 10593.00
641.6360, 10872.00
642.7990, 11168.00
643.9620, 11300.00
645.1240, 11722.00
646.2870, 12020.00
647.4490, 12481.00
648.6110, 13057.00
649.7730, 13543.00
650.9340, 14392.00
652.0960, 15205.00
653.2570, 16307.00
654.4180, 17365.00
655.5790, 18844.00
656.7400, 20684.00
657.9010, 22915.28
659.0620, 25334.00
660.2220, 28373.00
661.3820, 31520.00
662.5420, 34845.00
663.7020, 37699.00
664.8620, 39416.00
666.0210, 39886.00
667.1810, 38933.00
668.3400, 36494.00
669.4990, 33715.00
670.6580, 30412.00
671.8170, 27153.00
672.9750, 23920.00
674.1340, 21768.00
675.2920, 19518.00
676.4500, 17958.00
677.6080, 16409.00
678.7660, 15317.00
679.9230, 14314.00
681.0810, 13506.00
682.2380, 12885.00
683.3950, 12359.00
684.5520, 11838.00
685.7090, 11475.00
686.8660, 11167.00
688.0220, 10802.00
689.1780, 10689.00
690.3340, 10485.00
691.4900, 10210.00
692.6460, 10171.00
693.8020, 10026.00
694.9570, 9845.000
696.1130, 9771.000
697.2680, 9624.000
698.4230, 9632.000
699.5780, 9447.000
700.7320, 9355.000
701.8870, 9145.000
703.0410, 9353.000
704.1950, 9242.000
705.3490, 9160.000
706.5030, 9042.000
707.6570, 9053.000
708.8110, 8903.000
709.9640, 8886.000
711.1170, 8878.000
712.2700, 8921.000
713.4230, 8842.000
714.5760, 8918.000
715.7280, 8742.000
716.8810, 8898.000
718.0330, 8888.000
719.1850, 8739.000
720.3370, 8761.000
721.4890, 8834.000
722.6400, 8743.000
723.7920, 8597.000
724.9430, 8736.000
726.0940, 8658.000
727.2450, 8719.000
728.3960, 8677.000
729.5460, 8849.000
730.6970, 8693.000
731.8470, 8705.000
732.9970, 8798.000
734.1470, 8706.000
735.2970, 8739.000
736.4460, 8780.000
737.5960, 8757.000
738.7450, 8782.000
739.8940, 8801.000
741.0430, 8691.000
742.1920, 8674.000
743.3410, 8708.000
744.4890, 8700.000
745.6370, 8858.000
746.7850, 8864.000
747.9330, 8816.000
749.0810, 8836.000
750.2290, 8774.000
751.3760, 8766.844
752.5240, 8854.000
753.6710, 8800.000
754.8180, 8784.000
755.9650, 8950.000
757.1110, 8932.000
758.2580, 9103.000
759.4040, 9017.000
760.5510, 8942.000
761.6970, 9012.000
762.8420, 9064.000
763.9880, 9089.000
765.1340, 8972.000
766.2790, 9016.000
767.4240, 9096.000
768.5690, 9047.000
769.7140, 9208.000
770.8590, 9187.000
772.0030, 9272.000
773.1480, 9156.000
774.2920, 9196.000
775.4360, 9166.000
776.5800, 9273.000
777.7240, 9267.000
778.8670, 9388.000
780.0110, 9252.000
781.1540, 9254.000
782.2970, 9320.000
783.4400, 9476.000
784.5830, 9403.000
785.7250, 9482.000
786.8680, 9513.000
788.0100, 9447.000
789.1520, 9523.000
790.2940, 9493.000
791.4360, 9487.000
792.5780, 9427.000
793.7190, 9465.000
794.8600, 9413.648
796.0010, 9453.195
797.1420, 9379.000
798.2830, 9448.000
799.4240, 9502.000
800.5640, 9321.000
801.7050, 9278.000
802.8450, 9251.000
803.9850, 9238.000
805.1250, 9259.000
806.2640, 9286.000
807.4040, 9272.954
808.5430, 9259.000
809.6820, 9242.000
810.8210, 9256.000
811.9600, 9192.000
813.0990, 9275.000
814.2370, 9311.000
815.3760, 9303.000
816.5140, 9290.000
817.6520, 9361.000
818.7900, 9282.000
819.9270, 9317.795
821.0650, 9351.000
822.2020, 9336.000
823.3390, 9357.816
824.4760, 9355.229
825.6130, 9361.000
826.7500, 9348.000
827.8870, 9348.000
829.0230, 9344.000
830.1590, 9400.000
831.2950, 9399.000
832.4310, 9523.000
833.5670, 9579.000
834.7030, 9536.000
835.8380, 9520.000
836.9730, 9596.000
838.1080, 9500.000
839.2430, 9674.000
840.3780, 9690.000
841.5130, 9832.000
842.6470, 10038.00
843.7810, 10108.00
844.9150, 10307.00
846.0490, 10498.00
847.1830, 10823.00
848.3170, 11409.00
849.4500, 11851.00
850.5830, 12561.00
851.7160, 13602.00
852.8490, 14238.00
853.9820, 14838.00
855.1150, 15321.00
856.2470, 15336.00
857.3800, 15370.00
858.5120, 15218.00
859.6440, 14785.00
860.7760, 14063.00
861.9070, 13543.00
863.0390, 13099.00
864.1700, 12742.00
865.3010, 12153.00
866.4320, 11798.00
867.5630, 11466.00
868.6940, 11363.00
869.8240, 11171.00
870.9540, 10934.00
872.0850, 10760.00
873.2150, 10699.00
874.3450, 10441.00
875.4740, 10631.00
876.6040, 10507.00
877.7330, 10366.00
878.8620, 10390.00
879.9910, 10394.00
881.1200, 10272.00
882.2490, 10118.00
883.3770, 10100.00
884.5060, 10194.00
885.6340, 10032.00
886.7620, 10029.00
887.8900, 10138.00
889.0180, 10091.00
890.1450, 10074.00
891.2730, 10161.00
892.4000, 10146.00
893.5270, 10062.00
894.6540, 10009.00
895.7810, 10175.00
896.9070, 10101.00
898.0340, 10007.00
899.1600, 10108.00
900.2860, 10047.00
901.4120, 10079.00
902.5380, 10148.00
903.6630, 10106.00
904.7890, 10064.00
905.9140, 10034.00
907.0390, 10020.00
908.1640, 9970.000
909.2890, 10005.00
910.4130, 9996.000
911.5380, 10130.00
912.6620, 9993.000
913.7860, 10107.00
914.9100, 10126.00
916.0340, 10067.00
917.1580, 10100.00
918.2810, 10165.00
919.4040, 10041.00
920.5280, 10159.00
921.6510, 10041.00
922.7730, 10129.00
923.8960, 10166.00
925.0180, 10129.00
926.1410, 10101.00
927.2630, 10222.00
928.3850, 10162.00
929.5070, 10317.00
930.6280, 10067.00
931.7500, 10194.00
932.8710, 10211.00
933.9920, 10248.00
935.1130, 10279.00
936.2340, 10387.00
937.3550, 10340.00
938.4760, 10435.00
939.5960, 10369.00
940.7160, 10302.00
941.8360, 10365.00
942.9560, 10453.00
944.0760, 10372.00
945.1950, 10377.00
946.3150, 10501.00
947.4340, 10443.00
948.5530, 10499.00
949.6720, 10533.00
950.7900, 10491.00
951.9090, 10592.01
953.0270, 10636.00
954.1460, 10769.00
955.2640, 10755.00
956.3820, 10898.00
957.4990, 10788.00
958.6170, 10745.00
959.7340, 10782.00
960.8520, 10948.00
961.9690, 10979.00
963.0860, 11106.00
964.2020, 11108.00
965.3190, 11185.00
966.4350, 11133.00
967.5520, 11053.00
968.6680, 10992.00
969.7840, 11098.00
970.8990, 11121.00
972.0150, 11098.00
973.1310, 11195.00
974.2460, 11209.00
975.3610, 11160.00
976.4760, 11100.00
977.5910, 11239.00
978.7050, 11181.00
979.8200, 11214.00
980.9340, 11361.00
982.0480, 11389.00
983.1620, 11331.00
984.2760, 11492.00
985.3900, 11447.00
986.5030, 11632.00
987.6160, 11655.00
988.7300, 11671.00
989.8430, 11863.00
990.9550, 12062.00
992.0680, 12202.00
993.1810, 12574.00
994.2930, 12800.68
995.4050, 13187.00
996.5170, 13507.00
997.6290, 14008.00
998.7410, 14589.00
999.8520, 15280.00
1000.964, 15970.00
1002.075, 16963.00
1003.186, 18105.00
1004.297, 19893.00
1005.407, 21401.55
1006.518, 23221.35
1007.628, 25393.00
1008.738, 27190.00
1009.848, 29833.00
1010.958, 32085.00
1012.068, 33334.00
1013.178, 33853.00
1014.287, 32679.00
1015.396, 30476.00
1016.505, 27885.00
1017.614, 24680.00
1018.723, 22075.00
1019.831, 19957.00
1020.940, 18287.00
1022.048, 16942.00
1023.156, 16078.00
1024.264, 15304.00
1025.372, 14697.00
1026.479, 14330.00
1027.587, 13885.00
1028.694, 13535.00
1029.801, 13345.00
1030.908, 13076.00
1032.015, 12884.00
1033.121, 12972.00
1034.228, 12822.00
1035.334, 12811.00
1036.440, 12775.00
1037.546, 12762.00
1038.652, 12857.00
1039.758, 12908.00
1040.863, 13028.00
1041.968, 13079.00
1043.074, 13081.00
1044.178, 13205.00
1045.283, 13125.00
1046.388, 13155.00
1047.492, 13046.00
1048.597, 12745.00
1049.701, 12603.00
1050.805, 12341.00
1051.909, 12331.00
1053.012, 12005.00
1054.116, 11856.00
1055.219, 11862.00
1056.322, 11769.00
1057.425, 11618.00
1058.528, 11735.00
1059.631, 11512.00
1060.733, 11500.00
1061.836, 11421.00
1062.938, 11463.00
1064.040, 11248.00
1065.142, 11364.00
1066.243, 11243.00
1067.345, 11206.00
1068.446, 11160.00
1069.547, 11153.00
1070.648, 11015.00
1071.749, 11096.00
1072.850, 11016.00
1073.951, 11030.00
1075.051, 11083.00
1076.151, 11066.77
1077.251, 11141.00
1078.351, 11114.00
1079.451, 11144.00
1080.550, 11159.00
1081.650, 11088.00
1082.749, 11084.00
1083.848, 11128.00
1084.947, 11110.00
1086.046, 11032.00
1087.144, 11095.00
1088.243, 10943.00
1089.341, 10998.00
1090.439, 11043.00
1091.537, 11077.00
1092.635, 11032.00
1093.732, 11051.00
1094.830, 11101.00
1095.927, 11042.00
1097.024, 11077.00
1098.121, 11152.00
1099.218, 11041.00
1100.314, 11166.00
1101.411, 11024.00
1102.507, 11040.00
1103.603, 11037.00
1104.699, 11005.00
1105.795, 11139.00
1106.890, 11056.00
1107.986, 11008.00
1109.081, 11162.00
1110.176, 11027.00
1111.271, 11058.00
1112.366, 10953.00
1113.461, 10984.00
1114.555, 11045.00
1115.649, 10981.00
1116.744, 10969.00
1117.838, 11077.00
1118.931, 11079.00
1120.025, 10978.00
1121.119, 11011.00
1122.212, 11072.00
1123.305, 11022.00
1124.398, 11032.00
1125.491, 11019.00
1126.584, 11028.00
1127.676, 11081.00
1128.768, 11056.13
1129.861, 11058.76
1130.953, 11018.00
1132.044, 11001.00
1133.136, 10923.00
1134.228, 10842.00
1135.319, 10912.00
1136.410, 10676.00
1137.501, 10873.00
1138.592, 10958.00
1139.683, 10842.00
1140.773, 10825.00
1141.864, 10938.00
1142.954, 10729.00
1144.044, 10736.00
1145.134, 10861.00
1146.224, 10776.00
1147.313, 10847.00
1148.402, 10751.00
1149.492, 10757.00
1150.581, 10715.00
1151.670, 10696.29
1152.758, 10775.00
1153.847, 10680.00
1154.935, 10734.00
1156.024, 10720.00
1157.112, 10659.00
1158.200, 10726.00
1159.287, 10761.00
1160.375, 10619.00
1161.462, 10860.00
1162.550, 10760.00
1163.637, 10825.00
1164.724, 10687.00
1165.810, 10675.00
1166.897, 10681.00
1167.983, 10659.00
1169.070, 10534.00
1170.156, 10649.00
1171.242, 10622.00
1172.327, 10603.50
1173.413, 10806.00
1174.499, 10640.00
1175.584, 10686.00
1176.669, 10821.00
1177.754, 10762.00
1178.839, 10785.00
1179.923, 10694.00
1181.008, 10802.00
1182.092, 10695.00
1183.176, 10746.00
1184.260, 10815.00
1185.344, 10708.00
1186.428, 10756.00
1187.511, 10709.00
1188.595, 10791.00
1189.678, 10806.00
1190.761, 10778.00
1191.843, 10814.00
1192.926, 10831.00
1194.009, 10866.00
1195.091, 10766.00
1196.173, 10748.00
1197.255, 10748.00
1198.337, 10944.00
1199.419, 10973.00
1200.500, 10899.00
1201.582, 10821.00
1202.663, 10839.00
1203.744, 10812.70
1204.825, 10951.00
1205.905, 10839.00
1206.986, 10929.00
1208.066, 10943.00
1209.146, 10778.00
1210.226, 10859.00
1211.306, 10998.00
1212.386, 10998.00
1213.466, 10845.00
1214.545, 10887.00
1215.624, 10895.00
1216.703, 10931.00
1217.782, 11049.00
1218.861, 10805.00
1219.939, 10890.00
1221.018, 10770.00
1222.096, 10989.00
1223.174, 11076.00
1224.252, 10973.00
1225.330, 10984.00
1226.407, 11051.00
1227.485, 10899.00
1228.562, 10958.00
1229.639, 11069.00
1230.716, 10980.00
1231.793, 11067.00
1232.869, 10920.00
1233.946, 11057.00
1235.022, 11172.00
1236.098, 11033.00
1237.174, 10983.00
1238.250, 11058.00
1239.325, 11081.00
1240.401, 11015.00
1241.476, 11140.00
1242.551, 11012.00
1243.626, 11052.00
1244.701, 11057.00
1245.776, 11061.00
1246.850, 11118.00
1247.924, 11355.00
1248.999, 11142.00
1250.073, 11257.00
1251.146, 11148.00
1252.220, 11087.00
1253.293, 11183.00
1254.367, 11150.00
1255.440, 11309.00
1256.513, 11379.00
1257.586, 11314.00
1258.658, 11209.00
1259.731, 11154.00
1260.803, 11164.00
1261.875, 11349.00
1262.947, 11198.00
1264.019, 11330.00
1265.091, 11220.00
1266.162, 11209.00
1267.234, 11376.00
1268.305, 11256.00
1269.376, 11315.00
1270.447, 11314.00
1271.517, 11266.00
1272.588, 11309.00
1273.658, 11206.00
1274.729, 11147.00
1275.799, 11283.00
1276.868, 11221.00
1277.938, 11363.00
1279.008, 11264.00
1280.077, 11334.00
1281.146, 11242.00
1282.215, 11382.00
1283.284, 11306.00
1284.353, 11237.00
1285.421, 11345.00
1286.490, 11341.00
1287.558, 11333.00
1288.626, 11271.00
1289.694, 11206.00
1290.762, 11352.00
1291.829, 11359.00
1292.897, 11254.00
1293.964, 11293.00
1295.031, 11270.98
1296.098, 11416.00
1297.165, 11299.00
1298.231, 11339.00
1299.298, 11397.00
1300.364, 11271.00
1301.430, 11394.00
1302.496, 11248.00
1303.562, 11463.00
1304.627, 11231.00
1305.693, 11395.00
1306.758, 11444.00
1307.823, 11432.00
1308.888, 11374.00
1309.953, 11340.00
1311.018, 11412.00
1312.082, 11479.00
1313.146, 11595.00
1314.210, 11579.00
1315.274, 11557.00
1316.338, 11531.00
1317.402, 11504.00
1318.465, 11664.00
1319.529, 11630.00
1320.592, 11625.00
1321.655, 11636.00
1322.718, 11571.00
1323.780, 11513.00
1324.843, 11548.00
1325.905, 11556.00
1326.967, 11439.00
1328.029, 11745.00
1329.091, 11538.00
1330.153, 11667.00
1331.214, 11598.00
1332.275, 11647.00
1333.337, 11601.00
1334.398, 11624.00
1335.458, 11619.57
1336.519, 11678.00
1337.580, 11585.00
1338.640, 11563.00
1339.700, 11493.00
1340.760, 11508.33
1341.820, 11715.00
1342.880, 11579.00
1343.939, 11635.00
1344.999, 11713.00
1346.058, 11652.00
1347.117, 11587.00
1348.176, 11785.00
1349.235, 11603.00
1350.293, 11687.00
1351.351, 11771.00
1352.410, 11695.00
1353.468, 11706.00
1354.526, 11709.00
1355.583, 11784.00
1356.641, 11727.00
1357.698, 11910.00
1358.756, 11815.00
1359.813, 11745.00
1360.869, 11891.00
1361.926, 11794.00
1362.983, 11907.00
1364.039, 11765.00
1365.095, 11900.00
1366.152, 11746.00
1367.207, 11820.00
1368.263, 11772.00
1369.319, 11884.00
1370.374, 11734.00
1371.430, 11785.00
1372.485, 11745.00
1373.540, 11871.00
1374.594, 11941.00
1375.649, 11894.00
1376.703, 11744.00
1377.758, 11881.00
1378.812, 11816.00
1379.866, 11944.00
1380.920, 11982.00
1381.973, 11881.00
1383.027, 11952.00
1384.080, 11799.00
1385.133, 11911.00
1386.186, 11859.00
1387.239, 11818.87
1388.291, 11894.78
1389.344, 11808.00
1390.396, 11940.00
1391.448, 12061.00
1392.500, 12008.00
1393.552, 11954.00
1394.604, 11839.00
1395.655, 11926.00
1396.707, 11980.00
1397.758, 12058.00
1398.809, 11979.00
1399.860, 11879.00
1400.910, 11955.00
1401.961, 11826.00
1403.011, 11790.00
1404.061, 12005.00
1405.111, 11993.00
1406.161, 11909.00
1407.211, 11901.00
1408.260, 11975.00
1409.310, 12082.00
1410.359, 12019.00
1411.408, 12026.00
1412.457, 11901.00
1413.506, 12109.00
1414.554, 11953.00
1415.603, 12029.00
1416.651, 11985.00
1417.699, 11910.00
1418.747, 12105.00
1419.794, 11979.00
1420.842, 12029.00
1421.889, 12102.00
1422.937, 12162.00
1423.984, 11942.00
1425.031, 11973.00
1426.077, 11961.00
1427.124, 12136.00
1428.170, 12098.00
1429.217, 12031.00
1430.263, 12004.00
1431.309, 12020.00
1432.354, 12006.20
1433.400, 12148.00
1434.445, 12047.00
1435.491, 11976.00
1436.536, 12003.00
1437.581, 12143.00
1438.625, 12095.00
1439.670, 12229.00
1440.714, 12126.00
1441.759, 12087.00
1442.803, 12258.00
1443.847, 12256.00
1444.890, 12204.00
1445.934, 12129.00
1446.978, 12096.00
1448.021, 12113.00
1449.064, 12198.00
1450.107, 12176.00
1451.150, 12205.00
1452.192, 12231.97
1453.235, 12166.00
1454.277, 12237.00
1455.319, 12145.00
1456.361, 12079.00
1457.403, 12252.00
1458.445, 12250.00
1459.486, 12303.00
1460.528, 12159.00
1461.569, 12259.00
1462.610, 12097.00
1463.651, 12168.00
1464.691, 12269.00
1465.732, 12381.00
1466.772, 12385.24
1467.812, 12381.92
1468.852, 12391.00
1469.892, 12264.00
1470.932, 12242.00
1471.971, 12165.00
1473.011, 12332.00
1474.050, 12339.00
1475.089, 12446.00
1476.128, 12291.00
1477.166, 12349.00
1478.205, 12390.00
1479.243, 12250.00
1480.282, 12312.00
1481.320, 12362.00
1482.357, 12348.00
1483.395, 12245.00
1484.433, 12396.00
1485.470, 12296.00
1486.507, 12305.00
1487.544, 12420.00
1488.581, 12275.00
1489.618, 12324.00
1490.655, 12300.00
1491.691, 12362.00
1492.727, 12439.00
1493.763, 12321.00
1494.799, 12432.00
1495.835, 12295.00
1496.871, 12352.00
1497.906, 12472.00
1498.941, 12606.00
1499.976, 12425.00
1501.011, 12534.00
1502.046, 12497.00
1503.081, 12384.00
1504.115, 12257.00
1505.149, 12510.00
1506.183, 12464.00
1507.217, 12491.00
1508.251, 12627.00
1509.285, 12510.00
1510.318, 12492.00
1511.352, 12509.00
1512.385, 12479.00
1513.418, 12467.00
1514.450, 12443.00
1515.483, 12488.00
1516.516, 12563.00
1517.548, 12526.00
1518.580, 12560.00
1519.612, 12422.00
1520.644, 12483.00
1521.675, 12410.00
1522.707, 12666.00
1523.738, 12576.00
1524.769, 12526.00
1525.800, 12547.00
1526.831, 12500.00
1527.862, 12492.00
1528.892, 12549.00
1529.923, 12636.00
1530.953, 12542.00
1531.983, 12640.00
1533.013, 12598.00
1534.042, 12515.00
1535.072, 12641.00
1536.101, 12636.00
1537.131, 12702.00
1538.160, 12629.00
1539.188, 12603.00
1540.217, 12658.00
1541.246, 12642.00
1542.274, 12512.00
1543.302, 12539.00
1544.330, 12584.00
1545.358, 12633.00
1546.386, 12663.91
1547.413, 12579.00
1548.441, 12712.00
1549.468, 12651.00
1550.495, 12613.00
1551.522, 12726.00
1552.549, 12823.00
1553.575, 12699.00
1554.602, 12895.00
1555.628, 12730.00
1556.654, 12736.00
1557.680, 12635.00
1558.706, 12693.00
1559.731, 12622.00
1560.757, 12636.34
1561.782, 12676.00
1562.807, 12612.00
1563.832, 12764.00
1564.857, 12651.00
1565.881, 12534.00
1566.906, 12724.00
1567.930, 12673.00
1568.954, 12734.00
1569.978, 12752.00
1571.002, 12750.00
1572.025, 12714.00
1573.049, 12719.00
1574.072, 12641.00
1575.095, 12762.00
1576.118, 12658.00
1577.141, 12811.00
1578.164, 12784.00
##END=



