##NAMES=Diopside
##RRUFFID=R050406
##IDEAL CHEMISTRY=CaMgSi_2_O_6_
##LOCALITY=unknown
##OWNER=RRUFF
##SOURCE=University of Arizona Mineral Museum
##DESCRIPTION=Brownish gray massive
##STATUS=The identification of this mineral has been confirmed by X-ray diffraction and chemical analysis
##URL=rruff.info/R050406
##MEASURED CHEMISTRY=(Ca_0.95_Na_0.05_)(Mg_0.75_Fe^2+^_0.18_Fe^3+^_0.05_Al_0.01_Ti_0.01_Mn^2+^_0.01_)(Si_0.98_Al_0.02_)_2_O_6_
##PIN_ID=M00191
##ORIENTATION=Laser parallel to -b* (0 -1 0). Fiducial mark perpendicular to laser is parallel to c [0 0 1]
116.9030, 8696.000
118.1340, 8751.000
119.3650, 8812.000
120.5960, 8896.000
121.8270, 9281.000
123.0580, 9627.000
124.2880, 9961.000
125.5190, 10139.00
126.7490, 10722.00
127.9790, 11614.00
129.2090, 12590.00
130.4390, 13380.00
131.6680, 14143.00
132.8980, 14565.00
134.1270, 14897.00
135.3560, 15374.00
136.5850, 15339.00
137.8140, 15114.00
139.0430, 14952.00
140.2710, 14287.00
141.5000, 13640.00
142.7280, 12682.00
143.9560, 11964.00
145.1840, 11288.00
146.4120, 10501.00
147.6390, 10176.00
148.8670, 9752.000
150.0940, 9599.000
151.3210, 9572.000
152.5490, 9413.000
153.7750, 9180.000
155.0020, 9203.000
156.2290, 9049.000
157.4550, 8993.000
158.6810, 9002.000
159.9080, 8985.000
161.1340, 8982.000
162.3590, 8932.000
163.5850, 9011.994
164.8110, 9186.000
166.0360, 9206.000
167.2610, 9339.000
168.4860, 9523.000
169.7110, 9473.000
170.9360, 9536.000
172.1610, 9610.000
173.3850, 9733.000
174.6100, 9774.048
175.8340, 9755.000
177.0580, 9845.000
178.2820, 9784.000
179.5050, 9710.000
180.7290, 9891.000
181.9520, 10015.00
183.1760, 9786.000
184.3990, 9873.000
185.6220, 9767.000
186.8450, 9938.000
188.0670, 9856.752
189.2900, 9756.000
190.5120, 9817.000
191.7340, 9812.000
192.9560, 9881.000
194.1780, 9811.000
195.4000, 9830.000
196.6220, 9757.000
197.8430, 9819.000
199.0640, 9860.000
200.2860, 9805.000
201.5070, 9864.000
202.7270, 9863.000
203.9480, 9478.000
205.1690, 9380.000
206.3890, 9320.000
207.6090, 9248.000
208.8290, 9189.000
210.0490, 9330.000
211.2690, 9354.000
212.4890, 9379.000
213.7080, 9434.000
214.9280, 9324.000
216.1470, 9433.000
217.3660, 9392.000
218.5850, 9610.000
219.8030, 9546.000
221.0220, 9695.000
222.2400, 9873.000
223.4590, 9896.000
224.6770, 9958.000
225.8950, 10063.00
227.1120, 10078.47
228.3300, 10140.00
229.5480, 10167.00
230.7650, 10182.00
231.9820, 10187.99
233.1990, 10203.00
234.4160, 10157.00
235.6330, 10095.00
236.8490, 10063.00
238.0660, 10035.31
239.2820, 10048.08
240.4980, 10057.73
241.7140, 10117.00
242.9300, 10118.00
244.1460, 10169.00
245.3610, 10198.00
246.5770, 10296.00
247.7920, 10351.00
249.0070, 10414.00
250.2220, 10442.33
251.4370, 10459.27
252.6510, 10444.00
253.8660, 10455.00
255.0800, 10401.00
256.2940, 10381.00
257.5080, 10798.00
258.7220, 10525.46
259.9360, 10876.00
261.1490, 10265.00
262.3630, 10074.00
263.5760, 9944.000
264.7890, 9844.000
266.0020, 9831.000
267.2150, 9790.000
268.4270, 9842.000
269.6400, 9840.000
270.8520, 9782.000
272.0640, 9750.000
273.2760, 9836.000
274.4880, 9786.000
275.7000, 9847.000
276.9120, 9801.000
278.1230, 9883.000
279.3340, 9857.000
280.5450, 9903.000
281.7560, 9929.000
282.9670, 9915.000
284.1780, 10052.00
285.3880, 10099.00
286.5980, 10081.00
287.8090, 10198.00
289.0190, 10335.00
290.2290, 10420.00
291.4380, 10434.00
292.6480, 10461.00
293.8570, 10600.00
295.0670, 10663.00
296.2760, 10782.00
297.4850, 11097.00
298.6930, 11104.00
299.9020, 11381.00
301.1110, 11699.00
302.3190, 11896.00
303.5270, 12096.00
304.7350, 12380.00
305.9430, 12764.00
307.1510, 13217.00
308.3580, 13636.00
309.5660, 14135.81
310.7730, 14743.00
311.9800, 15233.00
313.1870, 15850.00
314.3940, 16546.00
315.6010, 17190.00
316.8070, 17681.00
318.0130, 18066.00
319.2200, 18379.20
320.4260, 18494.00
321.6310, 18643.00
322.8370, 18497.00
324.0430, 18306.00
325.2480, 17758.00
326.4540, 17352.00
327.6590, 16811.00
328.8640, 16183.00
330.0680, 15766.00
331.2730, 15246.01
332.4780, 14656.00
333.6820, 14387.00
334.8860, 14081.00
336.0900, 13783.00
337.2940, 13644.00
338.4980, 13445.00
339.7010, 13231.00
340.9050, 13297.00
342.1080, 13236.00
343.3110, 13365.00
344.5140, 13505.00
345.7170, 13363.00
346.9200, 13581.00
348.1220, 13859.00
349.3240, 13905.00
350.5270, 14043.00
351.7290, 14070.00
352.9310, 14058.00
354.1320, 13876.00
355.3340, 14078.00
356.5350, 14004.00
357.7370, 14076.00
358.9380, 13887.00
360.1390, 13693.00
361.3400, 13425.00
362.5400, 13430.00
363.7410, 13123.00
364.9410, 13013.00
366.1410, 12952.00
367.3410, 12767.00
368.5410, 12822.00
369.7410, 12742.00
370.9400, 12769.00
372.1400, 12690.00
373.3390, 12776.00
374.5380, 13158.00
375.7370, 13505.00
376.9360, 13773.00
378.1350, 14077.00
379.3330, 14416.00
380.5310, 14926.00
381.7300, 15187.00
382.9280, 15510.00
384.1260, 15859.00
385.3230, 15798.00
386.5210, 15848.00
387.7180, 15897.00
388.9160, 15704.00
390.1130, 15559.00
391.3100, 15122.00
392.5060, 14542.00
393.7030, 14215.00
394.9000, 13578.00
396.0960, 12963.00
397.2920, 12610.00
398.4880, 12321.00
399.6840, 11764.00
400.8800, 11818.00
402.0750, 11328.00
403.2710, 11329.00
404.4660, 11185.00
405.6610, 11066.00
406.8560, 10980.00
408.0510, 11000.00
409.2450, 10822.00
410.4400, 11076.00
411.6340, 10947.00
412.8280, 10712.00
414.0220, 10830.00
415.2160, 11044.00
416.4100, 10710.00
417.6030, 10800.00
418.7970, 10783.00
419.9900, 10624.00
421.1830, 10891.00
422.3760, 10721.00
423.5690, 10761.00
424.7610, 10733.00
425.9540, 10746.00
427.1460, 10734.00
428.3380, 10589.00
429.5300, 10656.00
430.7220, 10525.00
431.9140, 10644.00
433.1050, 10705.00
434.2970, 10748.00
435.4880, 10722.00
436.6790, 10827.00
437.8700, 10688.00
439.0610, 10811.00
440.2510, 10745.00
441.4420, 10843.00
442.6320, 10828.00
443.8220, 10860.00
445.0120, 10850.00
446.2020, 10876.16
447.3910, 10877.95
448.5810, 10912.00
449.7700, 10923.00
450.9600, 10907.00
452.1490, 11013.00
453.3370, 10964.00
454.5260, 11043.00
455.7150, 11200.00
456.9030, 10949.00
458.0910, 11188.00
459.2800, 11237.00
460.4670, 11069.00
461.6550, 11169.00
462.8430, 11207.00
464.0300, 11138.00
465.2180, 11212.00
466.4050, 11097.00
467.5920, 11118.00
468.7790, 11065.00
469.9650, 11063.00
471.1520, 11138.00
472.3380, 11217.00
473.5250, 11074.00
474.7110, 11154.00
475.8970, 11178.00
477.0820, 11207.00
478.2680, 11202.00
479.4540, 11188.00
480.6390, 11231.91
481.8240, 11259.00
483.0090, 11283.00
484.1940, 11352.00
485.3780, 11338.00
486.5630, 11285.00
487.7470, 11358.00
488.9320, 11488.00
490.1160, 11423.00
491.3000, 11731.00
492.4830, 11847.00
493.6670, 12021.00
494.8500, 12185.00
496.0340, 12426.00
497.2170, 12821.00
498.4000, 13177.00
499.5820, 13203.00
500.7650, 13690.00
501.9480, 13765.00
503.1300, 13885.00
504.3120, 13767.00
505.4940, 13794.85
506.6760, 13812.00
507.8580, 13598.00
509.0390, 13522.00
510.2210, 13244.00
511.4020, 13095.00
512.5830, 12791.00
513.7640, 12655.00
514.9450, 12441.00
516.1250, 12349.00
517.3060, 12336.00
518.4860, 12329.00
519.6660, 12376.00
520.8460, 12347.00
522.0260, 12417.82
523.2060, 12404.00
524.3850, 12525.00
525.5650, 12594.00
526.7440, 12604.68
527.9230, 12492.00
529.1020, 12528.00
530.2810, 12543.00
531.4590, 12427.00
532.6380, 12430.00
533.8160, 12618.00
534.9940, 12552.00
536.1720, 12435.00
537.3500, 12694.00
538.5270, 12426.00
539.7050, 12457.00
540.8820, 12439.00
542.0590, 12496.00
543.2360, 12536.00
544.4130, 12560.00
545.5900, 12547.00
546.7660, 12651.00
547.9430, 12682.57
549.1190, 12964.00
550.2950, 12758.00
551.4710, 12918.00
552.6470, 12833.00
553.8220, 12963.00
554.9980, 13108.00
556.1730, 12795.00
557.3480, 12996.00
558.5230, 12813.00
559.6980, 12793.00
560.8730, 12889.00
562.0470, 12741.00
563.2220, 12794.00
564.3960, 12670.00
565.5700, 12568.00
566.7440, 12484.00
567.9170, 12441.00
569.0910, 12406.00
570.2640, 12506.00
571.4380, 12464.00
572.6110, 12435.00
573.7840, 12354.00
574.9570, 12371.00
576.1290, 12299.00
577.3020, 12144.00
578.4740, 12190.00
579.6460, 12206.00
580.8180, 12178.00
581.9900, 12243.00
583.1620, 12260.00
584.3330, 12175.00
585.5040, 12187.37
586.6760, 12087.00
587.8470, 12123.00
589.0180, 12014.00
590.1880, 12018.00
591.3590, 12024.00
592.5290, 11957.00
593.7000, 12065.00
594.8700, 11915.00
596.0400, 12021.00
597.2090, 11986.00
598.3790, 12057.00
599.5490, 12013.00
600.7180, 11987.00
601.8870, 11982.00
603.0560, 11951.00
604.2250, 12008.00
605.3940, 12031.00
606.5620, 12060.00
607.7300, 12219.00
608.8990, 12178.00
610.0670, 12229.00
611.2350, 12178.00
612.4020, 12272.00
613.5700, 12342.00
614.7370, 12402.00
615.9050, 12489.00
617.0720, 12475.00
618.2390, 12448.00
619.4060, 12565.00
620.5720, 12637.00
621.7390, 12779.00
622.9050, 12745.00
624.0710, 12860.00
625.2370, 13000.00
626.4030, 13136.00
627.5690, 13108.00
628.7340, 13201.00
629.9000, 13326.00
631.0650, 13318.00
632.2300, 13562.00
633.3950, 13638.00
634.5600, 13814.00
635.7240, 13945.00
636.8890, 14250.00
638.0530, 14248.00
639.2170, 14584.00
640.3810, 14709.00
641.5450, 15086.00
642.7080, 15282.00
643.8720, 15857.00
645.0350, 16135.00
646.1980, 16643.00
647.3610, 17503.00
648.5240, 18075.00
649.6870, 19065.00
650.8490, 20147.00
652.0120, 21711.00
653.1740, 23842.00
654.3360, 26006.00
655.4980, 28904.00
656.6600, 31999.00
657.8210, 35280.00
658.9830, 38331.00
660.1440, 41401.00
661.3050, 43515.00
662.4660, 45266.00
663.6270, 45899.00
664.7870, 45850.00
665.9480, 44854.00
667.1080, 42841.00
668.2680, 40468.00
669.4280, 37200.00
670.5880, 33877.00
671.7480, 30703.00
672.9070, 27711.00
674.0670, 25017.00
675.2260, 23046.00
676.3850, 21369.00
677.5440, 20142.00
678.7030, 18895.00
679.8610, 17964.00
681.0200, 17211.00
682.1780, 16586.00
683.3360, 16025.00
684.4940, 15633.00
685.6520, 15404.00
686.8090, 15143.00
687.9670, 14782.00
689.1240, 14697.00
690.2810, 14437.00
691.4380, 14277.00
692.5950, 13986.00
693.7520, 14079.00
694.9080, 13981.00
696.0650, 13787.00
697.2210, 13676.00
698.3770, 13674.00
699.5330, 13587.00
700.6880, 13684.00
701.8440, 13567.00
702.9990, 13527.00
704.1550, 13482.00
705.3100, 13301.00
706.4650, 13403.00
707.6190, 13360.00
708.7740, 13391.00
709.9290, 13498.00
711.0830, 13290.00
712.2370, 13196.00
713.3910, 13379.00
714.5450, 13322.00
715.6980, 13235.00
716.8520, 13323.00
718.0050, 13244.00
719.1580, 13130.00
720.3110, 13270.00
721.4640, 13212.00
722.6170, 13176.00
723.7700, 13203.00
724.9220, 13117.00
726.0740, 13184.87
727.2260, 13151.00
728.3780, 13253.00
729.5300, 13113.00
730.6810, 13053.00
731.8330, 12962.00
732.9840, 13160.00
734.1350, 13120.00
735.2860, 13201.00
736.4370, 13296.00
737.5880, 13208.00
738.7380, 13317.00
739.8880, 13210.00
741.0390, 13329.00
742.1890, 13206.00
743.3380, 13333.00
744.4880, 13260.00
745.6380, 13289.00
746.7870, 13175.00
747.9360, 13184.00
749.0850, 13205.00
750.2340, 13204.42
751.3830, 13351.00
752.5310, 13321.00
753.6800, 13353.00
754.8280, 13473.00
755.9760, 13291.00
757.1240, 13425.00
758.2720, 13315.00
759.4190, 13429.00
760.5670, 13465.00
761.7140, 13631.00
762.8610, 13523.00
764.0080, 13521.00
765.1550, 13516.00
766.3020, 13538.00
767.4480, 13631.00
768.5950, 13602.16
769.7410, 13673.74
770.8870, 13529.00
772.0330, 13757.00
773.1780, 13583.00
774.3240, 13581.00
775.4690, 13589.00
776.6140, 13757.00
777.7590, 13656.00
778.9040, 13819.00
780.0490, 13713.00
781.1940, 13771.00
782.3380, 13892.00
783.4820, 13803.00
784.6260, 13832.00
785.7700, 13911.00
786.9140, 13842.00
788.0580, 13922.00
789.2010, 13887.00
790.3450, 13909.00
791.4880, 13905.00
792.6310, 13914.00
793.7730, 13978.00
794.9160, 13917.00
796.0590, 13802.00
797.2010, 13924.00
798.3430, 14055.00
799.4850, 13805.00
800.6270, 13863.00
801.7690, 13904.00
802.9100, 13883.00
804.0520, 13923.95
805.1930, 13941.76
806.3340, 13960.00
807.4750, 14027.00
808.6160, 14074.00
809.7560, 14194.00
810.8970, 14162.00
812.0370, 14069.00
813.1770, 14239.00
814.3170, 13975.00
815.4570, 14159.00
816.5960, 14221.00
817.7360, 14382.00
818.8750, 14380.00
820.0140, 14317.00
821.1530, 14492.00
822.2920, 14452.00
823.4310, 14486.00
824.5690, 14494.00
825.7070, 14614.00
826.8460, 14461.00
827.9840, 14489.00
829.1220, 14619.00
830.2590, 14656.00
831.3970, 14531.00
832.5340, 14611.00
833.6710, 14488.00
834.8080, 14540.00
835.9450, 14683.00
837.0820, 14677.00
838.2190, 14733.00
839.3550, 14834.00
840.4910, 14738.00
841.6270, 14943.00
842.7630, 15024.00
843.8990, 15180.00
845.0350, 15361.00
846.1700, 15403.00
847.3060, 15700.39
848.4410, 16130.00
849.5760, 16293.00
850.7100, 16489.00
851.8450, 16896.00
852.9800, 16851.00
854.1140, 16970.00
855.2480, 16970.00
856.3820, 17054.00
857.5160, 16951.00
858.6500, 16733.00
859.7830, 16688.00
860.9170, 16664.00
862.0500, 16507.00
863.1830, 16394.00
864.3160, 16235.00
865.4480, 16103.00
866.5810, 16144.00
867.7130, 16050.00
868.8460, 16005.00
869.9780, 15930.00
871.1100, 16025.00
872.2410, 15908.00
873.3730, 15977.00
874.5050, 15936.00
875.6360, 16101.00
876.7670, 16196.00
877.8980, 15986.00
879.0290, 16086.00
880.1590, 16059.00
881.2900, 16159.00
882.4200, 16298.00
883.5500, 16289.00
884.6800, 16212.00
885.8100, 16283.46
886.9400, 16292.00
888.0690, 16254.00
889.1990, 16302.00
890.3280, 16197.00
891.4570, 16140.00
892.5860, 16206.00
893.7140, 16239.00
894.8430, 16384.00
895.9710, 16325.00
897.1000, 16238.00
898.2280, 16180.00
899.3560, 16298.00
900.4830, 16350.00
901.6110, 16355.00
902.7380, 16212.00
903.8660, 16258.00
904.9930, 16327.00
906.1200, 16284.00
907.2460, 16331.00
908.3730, 16259.00
909.5000, 16322.00
910.6260, 16243.00
911.7520, 16170.00
912.8780, 16291.00
914.0040, 16053.00
915.1290, 16127.00
916.2550, 16207.00
917.3800, 16095.00
918.5050, 16220.00
919.6300, 16167.00
920.7550, 16317.00
921.8800, 16333.00
923.0040, 16253.00
924.1290, 16338.00
925.2530, 16316.00
926.3770, 16444.00
927.5010, 16365.00
928.6250, 16408.00
929.7480, 16291.00
930.8720, 16290.61
931.9950, 16176.00
933.1180, 16280.00
934.2410, 16273.00
935.3640, 16351.00
936.4860, 16374.00
937.6090, 16313.00
938.7310, 16348.00
939.8530, 16179.00
940.9750, 16390.00
942.0970, 16399.00
943.2180, 16281.00
944.3400, 16317.00
945.4610, 16526.00
946.5820, 16548.00
947.7030, 16654.35
948.8240, 16512.00
949.9450, 16807.00
951.0650, 16702.00
952.1860, 16739.00
953.3060, 16852.00
954.4260, 16820.00
955.5460, 16916.00
956.6650, 16961.02
957.7850, 17112.00
958.9040, 17084.00
960.0230, 17275.00
961.1420, 17381.00
962.2610, 17316.00
963.3800, 17437.00
964.4990, 17652.00
965.6170, 17431.00
966.7350, 17543.00
967.8530, 17464.00
968.9710, 17621.00
970.0890, 17659.00
971.2070, 17646.00
972.3240, 17782.00
973.4410, 17957.00
974.5580, 17875.00
975.6750, 17995.00
976.7920, 18153.00
977.9090, 18127.00
979.0250, 18431.00
980.1410, 18320.00
981.2580, 18459.00
982.3740, 18654.00
983.4890, 18947.00
984.6050, 18829.00
985.7200, 19138.00
986.8360, 19334.00
987.9510, 19545.00
989.0660, 19843.00
990.1810, 19921.00
991.2950, 20508.00
992.4100, 21053.00
993.5240, 21414.00
994.6390, 22274.00
995.7530, 23034.00
996.8660, 23975.00
997.9800, 25261.00
999.0940, 26601.00
1000.207, 28301.00
1001.320, 30138.00
1002.433, 32735.00
1003.546, 36158.00
1004.659, 39767.00
1005.772, 43809.00
1006.884, 48191.00
1007.996, 51625.00
1009.108, 54698.00
1010.220, 56838.00
1011.332, 57009.00
1012.444, 56514.00
1013.555, 53916.00
1014.666, 50676.00
1015.777, 45977.00
1016.888, 41982.00
1017.999, 37805.00
1019.110, 33882.00
1020.220, 31248.00
1021.331, 28569.00
1022.441, 27135.00
1023.551, 25734.00
1024.661, 24717.00
1025.770, 24079.00
1026.880, 23501.00
1027.989, 22929.00
1029.098, 22743.00
1030.207, 22374.00
1031.316, 22218.00
1032.425, 22064.00
1033.533, 22222.00
1034.642, 22086.00
1035.750, 22254.00
1036.858, 22381.00
1037.966, 22538.00
1039.073, 22713.00
1040.181, 22614.00
1041.288, 22618.00
1042.396, 22760.00
1043.503, 22494.00
1044.610, 22359.00
1045.716, 22166.00
1046.823, 21850.89
1047.929, 21560.00
1049.036, 21155.00
1050.142, 20994.00
1051.248, 20521.00
1052.353, 20216.00
1053.459, 19853.00
1054.564, 19843.00
1055.670, 19530.00
1056.775, 19368.00
1057.880, 19247.00
1058.985, 19085.00
1060.089, 18988.00
1061.194, 18782.00
1062.298, 18771.70
1063.402, 18837.00
1064.506, 18711.00
1065.610, 18590.00
1066.713, 18498.00
1067.817, 18424.00
1068.920, 18377.00
1070.023, 18290.00
1071.126, 18366.00
1072.229, 18240.00
1073.332, 18278.00
1074.435, 18209.00
1075.537, 18231.00
1076.639, 18270.00
1077.741, 18215.00
1078.843, 18243.00
1079.945, 18127.00
1081.046, 18318.00
1082.148, 18148.00
1083.249, 18031.00
1084.350, 18039.00
1085.451, 18191.00
1086.551, 18066.00
1087.652, 18410.00
1088.752, 18220.00
1089.853, 18173.00
1090.953, 18004.00
1092.053, 18026.00
1093.152, 17950.00
1094.252, 17966.84
1095.351, 18071.00
1096.451, 18073.00
1097.550, 18120.00
1098.649, 18214.00
1099.748, 18143.00
1100.846, 18211.00
1101.945, 18209.00
1103.043, 18103.00
1104.141, 18165.00
1105.239, 18087.36
1106.337, 17826.00
1107.434, 17997.00
1108.532, 17978.00
1109.629, 17941.00
1110.726, 18130.00
1111.823, 18190.00
1112.920, 18164.00
1114.017, 18192.00
1115.113, 18288.00
1116.210, 18302.00
1117.306, 18482.00
1118.402, 18330.00
1119.498, 18528.00
1120.593, 18653.00
1121.689, 18523.00
1122.784, 18640.00
1123.879, 18638.00
1124.974, 18764.00
1126.069, 18556.00
1127.164, 18581.00
1128.259, 18439.00
1129.353, 18308.00
1130.447, 18172.00
1131.541, 18265.00
1132.635, 18027.00
1133.729, 18183.00
1134.822, 18156.00
1135.916, 18107.00
1137.009, 17995.00
1138.102, 17888.00
1139.195, 18032.00
1140.288, 18083.00
1141.380, 17970.00
1142.473, 17828.00
1143.565, 17901.00
1144.657, 17978.00
1145.749, 17848.00
1146.841, 17902.00
1147.932, 17841.00
1149.024, 17815.00
1150.115, 17830.00
1151.206, 17822.00
1152.297, 17780.00
1153.388, 17824.00
1154.479, 17724.00
1155.569, 17712.00
1156.659, 17676.00
1157.750, 17671.00
1158.839, 17715.00
1159.929, 17719.00
1161.019, 17788.00
1162.108, 17766.00
1163.198, 17799.00
1164.287, 17775.20
1165.376, 17664.00
1166.465, 17717.00
1167.553, 17708.00
1168.642, 17702.00
1169.730, 17728.00
1170.818, 17589.00
1171.906, 17760.00
1172.994, 17915.00
1174.082, 17716.00
1175.170, 17752.00
1176.257, 17874.00
1177.344, 17775.00
1178.431, 17660.00
1179.518, 17919.00
1180.605, 17841.00
1181.691, 17905.00
1182.778, 17943.00
1183.864, 17717.00
1184.950, 17917.00
1186.036, 17873.00
1187.122, 17714.00
1188.207, 17784.00
1189.292, 17945.00
1190.378, 17871.00
1191.463, 18002.00
1192.548, 17974.00
1193.632, 17852.00
1194.717, 17940.00
1195.801, 17964.00
1196.886, 18098.00
1197.970, 18075.96
1199.054, 18061.00
1200.137, 18057.00
1201.221, 18093.00
1202.305, 18083.00
1203.388, 17968.00
1204.471, 18087.00
1205.554, 18142.00
1206.637, 17989.00
1207.719, 18040.00
1208.802, 18032.00
1209.884, 18008.00
1210.966, 17973.00
1212.048, 18156.00
1213.130, 18188.00
1214.212, 18078.00
1215.293, 18249.00
1216.374, 18174.00
1217.456, 18089.00
1218.536, 18248.00
1219.617, 18235.00
1220.698, 18121.00
1221.778, 18337.00
1222.859, 18237.00
1223.939, 18334.00
1225.019, 18153.00
1226.099, 18307.00
1227.178, 18139.00
1228.258, 18192.00
1229.337, 18365.00
1230.417, 18187.00
1231.496, 18386.00
1232.574, 18044.00
1233.653, 18339.00
1234.732, 18343.00
1235.810, 18251.00
1236.888, 18499.00
1237.966, 18449.00
1239.044, 18343.00
1240.122, 18474.00
1241.199, 18330.00
1242.277, 18516.00
1243.354, 18514.00
1244.431, 18442.00
1245.508, 18604.00
1246.585, 18490.00
1247.661, 18623.00
1248.738, 18815.00
1249.814, 18607.00
1250.890, 18735.00
1251.966, 18481.00
1253.042, 18432.00
1254.117, 18559.00
1255.193, 18532.00
1256.268, 18715.00
1257.343, 18655.00
1258.418, 18619.00
1259.493, 18731.00
1260.567, 18753.00
1261.642, 18716.00
1262.716, 18622.00
1263.790, 18727.00
1264.864, 18697.00
1265.938, 18777.00
1267.011, 18745.00
1268.085, 18680.00
1269.158, 18811.00
1270.231, 18842.00
1271.304, 18762.00
1272.377, 18863.00
1273.450, 18839.00
1274.522, 18787.00
1275.594, 18663.00
1276.666, 18894.00
1277.738, 18901.00
1278.810, 18817.00
1279.882, 18915.00
1280.953, 18713.00
1282.025, 18825.00
1283.096, 18845.00
1284.167, 18840.00
1285.238, 18946.00
1286.308, 18986.00
1287.379, 19032.00
1288.449, 18978.00
1289.519, 18995.00
1290.589, 18918.00
1291.659, 18986.00
1292.729, 18889.00
1293.798, 19031.00
1294.868, 19017.00
1295.937, 19183.00
1297.006, 18981.00
1298.075, 19024.00
1299.143, 18994.00
1300.212, 18916.00
1301.280, 18931.00
1302.348, 18981.43
1303.416, 19110.00
1304.484, 19120.00
1305.552, 19128.00
1306.620, 19123.00
1307.687, 19153.00
1308.754, 18971.00
1309.821, 19131.00
1310.888, 19353.00
1311.955, 19243.00
1313.021, 19089.00
1314.088, 19271.00
1315.154, 19409.00
1316.220, 19481.00
1317.286, 19325.00
1318.352, 19390.00
1319.417, 19410.00
1320.483, 19341.00
1321.548, 19317.00
1322.613, 19345.00
1323.678, 19631.00
1324.743, 19422.00
1325.807, 19405.00
1326.872, 19701.00
1327.936, 19687.00
1329.000, 19669.00
1330.064, 19554.00
1331.128, 19650.00
1332.191, 19562.00
1333.255, 19463.00
1334.318, 19523.00
1335.381, 19619.00
1336.444, 19777.00
1337.507, 19555.00
1338.569, 19656.00
1339.632, 19586.00
1340.694, 19699.00
1341.756, 19644.00
1342.818, 19709.00
1343.880, 19707.00
1344.941, 19464.00
1346.003, 19701.00
1347.064, 19554.00
1348.125, 19623.00
1349.186, 19729.00
1350.247, 19571.00
1351.308, 19686.00
1352.368, 19771.00
1353.428, 19778.00
1354.489, 19796.00
1355.549, 19917.00
1356.608, 19893.00
1357.668, 19739.00
1358.727, 19909.00
1359.787, 19790.00
1360.846, 19843.00
1361.905, 19749.00
1362.964, 19830.00
1364.022, 19841.00
1365.081, 19787.00
1366.139, 19980.00
1367.197, 19998.00
1368.255, 19849.00
1369.313, 19938.00
1370.371, 19918.00
1371.428, 19923.00
1372.486, 19854.00
1373.543, 19772.00
1374.600, 19935.00
1375.657, 19728.00
1376.713, 20080.00
1377.770, 19980.00
1378.826, 19864.00
1379.882, 19946.00
1380.938, 20061.00
1381.994, 19958.00
1383.050, 19921.00
1384.106, 19877.00
1385.161, 19857.30
1386.216, 19868.14
1387.271, 19865.00
1388.326, 19936.00
1389.381, 19954.00
1390.435, 20028.00
1391.490, 19983.00
1392.544, 20036.00
1393.598, 20018.00
1394.652, 20042.00
1395.705, 20117.00
1396.759, 19895.00
1397.812, 20002.00
1398.866, 19989.00
1399.919, 20178.00
1400.972, 20121.00
1402.024, 20127.00
1403.077, 19973.00
1404.129, 20053.00
1405.181, 20123.00
1406.233, 20019.00
1407.285, 20049.00
1408.337, 20283.00
1409.389, 20031.00
1410.440, 20164.00
1411.491, 19973.00
1412.542, 20145.00
1413.593, 20079.00
1414.644, 20319.00
1415.695, 20299.00
1416.745, 20347.00
1417.795, 20231.00
1418.845, 20207.00
1419.895, 20127.00
1420.945, 20271.00
1421.995, 20211.00
1423.044, 20260.00
1424.093, 20131.00
1425.142, 20264.00
1426.191, 20298.00
1427.240, 20310.00
1428.289, 20342.00
1429.337, 20285.00
1430.385, 20489.00
1431.433, 20519.00
1432.481, 20233.00
1433.529, 20206.00
1434.577, 20418.00
1435.624, 20443.00
1436.672, 20552.00
1437.719, 20364.00
1438.766, 20337.00
1439.812, 20326.09
1440.859, 20366.00
1441.905, 20338.00
1442.952, 20512.00
1443.998, 20680.00
1445.044, 20711.00
1446.090, 20772.00
1447.135, 20594.00
1448.181, 20572.00
1449.226, 20482.00
1450.271, 20682.00
1451.316, 20677.00
1452.361, 20696.00
1453.405, 20511.00
1454.450, 20579.00
1455.494, 20690.00
1456.538, 20619.00
1457.582, 20783.00
1458.626, 20688.00
1459.670, 20575.00
1460.713, 20795.00
1461.757, 20713.00
1462.800, 20732.00
1463.843, 20815.00
1464.886, 20709.00
1465.928, 20761.00
1466.971, 20793.00
1468.013, 20770.00
1469.055, 20653.00
1470.097, 20772.00
1471.139, 20763.00
1472.181, 20828.00
1473.222, 20713.00
1474.263, 20730.00
1475.305, 20699.00
1476.346, 20815.00
1477.386, 20798.00
1478.427, 20739.00
1479.468, 20799.00
1480.508, 20794.00
1481.548, 20823.05
1482.588, 20734.00
1483.628, 20842.00
1484.668, 20972.00
1485.707, 20855.00
1486.747, 20943.00
1487.786, 21148.00
1488.825, 20882.00
1489.864, 20933.00
1490.902, 20908.00
1491.941, 20974.00
1492.979, 20950.00
1494.017, 21146.00
1495.055, 20859.00
1496.093, 20964.00
1497.131, 21163.00
1498.168, 20791.00
1499.206, 21080.00
1500.243, 21047.00
1501.280, 21075.00
1502.317, 21015.00
1503.354, 21211.00
1504.390, 20979.00
1505.426, 21028.00
1506.463, 20919.00
1507.499, 21051.00
1508.535, 21008.00
1509.570, 20967.00
1510.606, 20941.00
1511.641, 20970.53
1512.676, 21144.00
1513.711, 21077.00
1514.746, 21088.00
1515.781, 21175.00
1516.816, 21055.00
1517.850, 21161.00
1518.884, 21166.00
1519.918, 21195.00
1520.952, 21095.00
1521.986, 21176.00
1523.019, 21318.00
1524.053, 21095.00
1525.086, 21449.00
1526.119, 21323.00
1527.152, 21097.00
1528.185, 21182.00
1529.217, 21261.00
1530.250, 21374.00
1531.282, 21374.00
1532.314, 21460.00
1533.346, 21436.23
1534.377, 21212.00
1535.409, 21433.00
1536.440, 21340.00
1537.472, 21466.00
1538.503, 21468.36
1539.534, 21480.00
1540.564, 21421.00
1541.595, 21539.00
1542.625, 21464.00
1543.656, 21417.00
1544.686, 21488.00
1545.716, 21525.00
1546.745, 21453.00
1547.775, 21683.00
1548.804, 21589.00
1549.834, 21508.00
1550.863, 21465.00
1551.892, 21839.00
1552.920, 21837.00
1553.949, 21788.00
1554.977, 21888.00
1556.006, 21588.00
1557.034, 21687.00
1558.062, 21635.00
1559.089, 21527.00
1560.117, 21650.00
1561.144, 21547.00
1562.172, 21606.00
1563.199, 21561.00
1564.226, 21777.00
1565.252, 21807.00
1566.279, 21719.00
1567.305, 21718.00
1568.332, 21572.00
1569.358, 21800.00
1570.384, 22053.00
1571.409, 21796.00
1572.435, 21908.00
##END=



