##NAMES=Diopside
##RRUFFID=R060085
##IDEAL CHEMISTRY=CaMgSi_2_O_6_
##LOCALITY=Tyrol, Austria
##OWNER=RRUFF
##SOURCE=University of Arizona Mineral Museum
##DESCRIPTION=Brownish-green massive
##STATUS=The identification of this mineral has been confirmed by X-ray diffraction and chemical analysis
##URL=rruff.info/R060085
##MEASURED CHEMISTRY=(Ca_0.97_Na_0.03_)_Σ=1_(Mg_0.79_Fe^2+^_0.10_Fe^3+^_0.04_Al_0.04_Ti_0.02_Cr_0.01_)_Σ=1_(Si_1.90_Al_0.10_)_Σ=2_O_6_
##PIN_ID=M00537
##ORIENTATION=Laser parallel to (-1 0 -1). Fiducial mark perpendicular to laser is parallel to b [0 1 0]
83.90800, 6073.000
85.15000, 6009.000
86.39100, 5794.000
87.63200, 5848.000
88.87300, 5824.000
90.11400, 5931.000
91.35400, 6021.000
92.59500, 5930.000
93.83500, 5972.000
95.07500, 5921.000
96.31500, 5855.000
97.55400, 5925.000
98.79400, 6011.000
100.0330, 5972.000
101.2720, 6012.000
102.5110, 6032.000
103.7500, 5983.000
104.9890, 6084.000
106.2270, 6153.000
107.4650, 6282.000
108.7040, 6018.000
109.9420, 6127.000
111.1790, 6074.000
112.4170, 6179.000
113.6540, 6322.000
114.8920, 6317.000
116.1290, 6302.000
117.3650, 6292.000
118.6020, 6328.000
119.8390, 6329.000
121.0750, 6395.000
122.3110, 6378.000
123.5470, 6447.000
124.7830, 6390.000
126.0190, 6388.000
127.2540, 6480.000
128.4900, 6532.000
129.7250, 6642.000
130.9600, 6840.000
132.1950, 7018.000
133.4290, 7194.664
134.6640, 7236.000
135.8980, 7571.000
137.1320, 7861.000
138.3660, 8024.000
139.6000, 8032.000
140.8340, 7890.000
142.0670, 7616.000
143.3000, 7281.000
144.5330, 7010.000
145.7660, 6758.000
146.9990, 6615.000
148.2320, 6507.000
149.4640, 6359.000
150.6960, 6433.000
151.9280, 6318.000
153.1600, 6362.000
154.3920, 6223.000
155.6230, 6146.000
156.8550, 6137.000
158.0860, 6240.000
159.3170, 6193.000
160.5480, 6131.000
161.7780, 6226.000
163.0090, 6177.000
164.2390, 6247.000
165.4690, 6119.000
166.6990, 6245.000
167.9290, 6214.000
169.1590, 6214.000
170.3880, 6207.000
171.6180, 6209.277
172.8470, 6214.000
174.0760, 6230.000
175.3040, 6222.259
176.5330, 6282.000
177.7610, 6210.000
178.9900, 6192.000
180.2180, 6177.000
181.4460, 6293.000
182.6730, 6388.000
183.9010, 6397.000
185.1280, 6425.359
186.3560, 6369.000
187.5830, 6404.000
188.8100, 6379.000
190.0360, 6403.000
191.2630, 6532.000
192.4890, 6649.000
193.7150, 6679.000
194.9410, 6841.000
196.1670, 6949.000
197.3930, 7003.000
198.6180, 6923.000
199.8440, 6781.000
201.0690, 6741.000
202.2940, 6636.000
203.5190, 6615.000
204.7430, 6521.000
205.9680, 6498.000
207.1920, 6464.000
208.4160, 6324.000
209.6400, 6430.000
210.8640, 6474.000
212.0880, 6413.000
213.3110, 6373.000
214.5340, 6515.000
215.7570, 6483.000
216.9800, 6530.000
218.2030, 6535.000
219.4260, 6631.000
220.6480, 6575.000
221.8700, 6478.000
223.0920, 6595.000
224.3140, 6703.000
225.5360, 6709.000
226.7580, 6828.000
227.9790, 6788.000
229.2000, 6786.000
230.4210, 6822.000
231.6420, 6865.000
232.8630, 6908.000
234.0830, 6951.000
235.3040, 6863.000
236.5240, 6927.000
237.7440, 6862.000
238.9640, 6804.000
240.1830, 6776.000
241.4030, 6746.000
242.6220, 6664.000
243.8410, 6641.000
245.0600, 6734.000
246.2790, 6700.000
247.4980, 6656.000
248.7160, 6675.000
249.9340, 6644.000
251.1530, 6668.000
252.3710, 6646.284
253.5880, 6657.786
254.8060, 6623.000
256.0230, 6693.000
257.2410, 6711.000
258.4580, 6756.000
259.6750, 6632.000
260.8910, 6676.000
262.1080, 6593.000
263.3240, 6619.000
264.5410, 6588.000
265.7570, 6756.000
266.9730, 6689.000
268.1880, 6687.000
269.4040, 6681.000
270.6190, 6654.000
271.8350, 6687.000
273.0500, 6750.000
274.2650, 6710.000
275.4790, 6679.000
276.6940, 6775.000
277.9080, 6675.000
279.1220, 6760.000
280.3360, 6741.000
281.5500, 6878.000
282.7640, 6838.000
283.9770, 6733.000
285.1910, 6832.000
286.4040, 6746.000
287.6170, 6877.000
288.8300, 6855.000
290.0420, 6769.000
291.2550, 6804.000
292.4670, 6907.000
293.6790, 6916.000
294.8910, 6918.634
296.1030, 6951.000
297.3150, 6851.000
298.5260, 7026.000
299.7380, 6959.000
300.9490, 7120.000
302.1600, 7056.000
303.3710, 7035.000
304.5810, 7098.000
305.7920, 7100.000
307.0020, 7200.000
308.2120, 7226.000
309.4220, 7193.000
310.6320, 7366.000
311.8410, 7500.000
313.0510, 7513.000
314.2600, 7650.000
315.4690, 7704.000
316.6780, 7806.254
317.8870, 7914.000
319.0950, 8045.000
320.3040, 8248.000
321.5120, 8422.000
322.7200, 8453.000
323.9280, 8601.000
325.1360, 8570.000
326.3430, 8659.000
327.5510, 8459.000
328.7580, 8362.000
329.9650, 8313.000
331.1720, 8304.000
332.3790, 8061.000
333.5850, 8023.000
334.7910, 7946.000
335.9980, 7864.000
337.2040, 7874.000
338.4100, 7730.000
339.6150, 7815.000
340.8210, 7810.000
342.0260, 7748.000
343.2310, 7633.000
344.4360, 7736.000
345.6410, 7736.000
346.8460, 7814.000
348.0500, 7837.000
349.2550, 7932.630
350.4590, 8071.000
351.6630, 8141.000
352.8670, 8303.000
354.0700, 8415.000
355.2740, 8536.000
356.4770, 8661.000
357.6800, 8672.000
358.8830, 8825.000
360.0860, 8813.000
361.2890, 8690.000
362.4910, 8719.000
363.6930, 8638.000
364.8960, 8415.000
366.0980, 8390.000
367.2990, 8334.000
368.5010, 8350.000
369.7020, 8299.359
370.9040, 8316.023
372.1050, 8324.944
373.3060, 8353.000
374.5070, 8380.819
375.7070, 8410.561
376.9080, 8477.000
378.1080, 8410.000
379.3080, 8486.000
380.5080, 8467.000
381.7080, 8803.000
382.9070, 8981.000
384.1070, 9216.000
385.3060, 9536.000
386.5050, 9862.000
387.7040, 10352.00
388.9030, 10665.00
390.1010, 10631.00
391.3000, 10792.00
392.4980, 10476.00
393.6960, 10294.00
394.8940, 9804.000
396.0920, 9526.000
397.2890, 9071.000
398.4870, 9010.000
399.6840, 8594.000
400.8810, 8423.000
402.0780, 8326.000
403.2750, 8142.000
404.4710, 8053.000
405.6680, 8083.000
406.8640, 7890.000
408.0600, 7773.000
409.2560, 7855.000
410.4520, 7796.000
411.6470, 7769.000
412.8430, 7808.000
414.0380, 7790.000
415.2330, 7777.393
416.4280, 7787.085
417.6220, 7732.000
418.8170, 7771.000
420.0110, 7734.000
421.2050, 7705.000
422.4000, 7822.000
423.5930, 7774.000
424.7870, 7830.000
425.9810, 7765.000
427.1740, 7876.000
428.3670, 7711.000
429.5600, 7723.000
430.7530, 7863.000
431.9460, 7810.000
433.1380, 7797.000
434.3310, 7829.000
435.5230, 7878.000
436.7150, 7936.000
437.9070, 7841.000
439.0980, 7876.000
440.2900, 7811.000
441.4810, 7889.000
442.6720, 7843.000
443.8630, 7981.000
445.0540, 7872.000
446.2450, 7971.000
447.4350, 7888.000
448.6260, 7891.000
449.8160, 8067.000
451.0060, 7928.000
452.1960, 8032.000
453.3850, 7980.000
454.5750, 7953.000
455.7640, 8037.000
456.9530, 8035.238
458.1420, 8137.000
459.3310, 8125.000
460.5200, 8160.000
461.7080, 8178.000
462.8970, 8199.000
464.0850, 8166.000
465.2730, 8183.000
466.4610, 8155.000
467.6480, 8155.000
468.8360, 8240.000
470.0230, 8179.000
471.2100, 8262.000
472.3970, 8149.000
473.5840, 8218.000
474.7710, 8217.000
475.9570, 8236.000
477.1440, 8047.000
478.3300, 8227.000
479.5160, 8246.000
480.7020, 8058.000
481.8870, 8305.000
483.0730, 8125.000
484.2580, 8207.000
485.4430, 8126.000
486.6280, 8249.000
487.8130, 8213.000
488.9980, 8201.000
490.1820, 8250.000
491.3660, 8334.000
492.5510, 8316.000
493.7350, 8294.000
494.9180, 8348.000
496.1020, 8326.000
497.2860, 8255.000
498.4690, 8296.000
499.6520, 8340.000
500.8350, 8347.000
502.0180, 8383.000
503.2000, 8416.000
504.3830, 8374.000
505.5650, 8372.000
506.7470, 8498.000
507.9290, 8474.000
509.1110, 8437.000
510.2930, 8561.000
511.4740, 8460.000
512.6560, 8576.000
513.8370, 8517.000
515.0180, 8527.000
516.1980, 8575.000
517.3790, 8605.000
518.5600, 8668.000
519.7400, 8734.000
520.9200, 8750.453
522.1000, 8622.000
523.2800, 8774.000
524.4590, 8855.000
525.6390, 8825.000
526.8180, 8962.000
527.9970, 8776.000
529.1760, 8952.000
530.3550, 8923.000
531.5340, 9025.000
532.7120, 8975.000
533.8910, 9059.000
535.0690, 9035.000
536.2470, 9122.000
537.4250, 9044.000
538.6020, 9077.000
539.7800, 9126.000
540.9570, 9114.000
542.1340, 9116.000
543.3110, 9172.000
544.4880, 9214.000
545.6650, 9072.000
546.8410, 8991.000
548.0170, 9121.000
549.1940, 9008.000
550.3690, 9041.000
551.5450, 9139.000
552.7210, 9051.000
553.8960, 9115.000
555.0720, 9098.000
556.2470, 9085.000
557.4220, 9093.000
558.5970, 9090.000
559.7710, 9033.000
560.9460, 9170.000
562.1200, 9202.000
563.2940, 8907.000
564.4680, 9022.000
565.6420, 8986.000
566.8160, 9008.000
567.9890, 9059.000
569.1630, 9005.000
570.3360, 9074.000
571.5090, 9085.000
572.6820, 9047.000
573.8540, 9082.000
575.0270, 9033.000
576.1990, 8963.000
577.3710, 8907.000
578.5430, 9018.000
579.7150, 9006.000
580.8870, 9024.000
582.0580, 9013.204
583.2300, 8931.000
584.4010, 8940.000
585.5720, 8932.000
586.7430, 8915.000
587.9130, 8768.000
589.0840, 8908.000
590.2540, 8784.000
591.4240, 8777.000
592.5940, 8913.000
593.7640, 8979.000
594.9340, 8834.000
596.1030, 8922.000
597.2730, 8889.000
598.4420, 8904.000
599.6110, 8886.000
600.7800, 8896.777
601.9490, 8958.000
603.1170, 8925.000
604.2850, 8922.000
605.4540, 8935.000
606.6220, 9019.000
607.7900, 9005.000
608.9570, 8987.000
610.1250, 8996.000
611.2920, 8934.000
612.4590, 9187.000
613.6260, 9078.000
614.7930, 9069.000
615.9600, 9215.000
617.1270, 9033.000
618.2930, 9131.000
619.4590, 9192.000
620.6250, 9242.000
621.7910, 9330.000
622.9570, 9338.276
624.1220, 9214.000
625.2880, 9342.000
626.4530, 9255.000
627.6180, 9199.000
628.7830, 9339.000
629.9480, 9440.000
631.1120, 9319.000
632.2770, 9353.000
633.4410, 9573.000
634.6050, 9427.000
635.7690, 9528.000
636.9330, 9465.000
638.0960, 9566.000
639.2600, 9785.000
640.4230, 9786.000
641.5860, 9920.000
642.7490, 9893.000
643.9120, 9957.000
645.0740, 10013.00
646.2370, 10067.00
647.3990, 10192.00
648.5610, 10337.46
649.7230, 10494.00
650.8850, 10673.00
652.0460, 10926.00
653.2080, 11036.00
654.3690, 11337.00
655.5300, 11781.00
656.6910, 12276.00
657.8520, 12890.27
659.0130, 13503.00
660.1730, 14463.00
661.3330, 15354.00
662.4930, 16516.00
663.6530, 17421.00
664.8130, 18173.00
665.9730, 18606.00
667.1320, 18390.00
668.2920, 17903.00
669.4510, 16879.00
670.6100, 16084.00
671.7680, 15109.00
672.9270, 14181.00
674.0860, 13466.00
675.2440, 13035.00
676.4020, 12642.00
677.5600, 12179.00
678.7180, 12004.00
679.8760, 11530.00
681.0330, 11423.00
682.1900, 11232.00
683.3480, 11231.00
684.5050, 11034.00
685.6610, 11050.00
686.8180, 10820.00
687.9750, 10774.00
689.1310, 10654.00
690.2870, 10472.00
691.4430, 10489.00
692.5990, 10405.00
693.7550, 10355.00
694.9100, 10312.00
696.0660, 10256.00
697.2210, 10198.00
698.3760, 10291.00
699.5310, 10146.00
700.6860, 10206.00
701.8400, 10116.00
702.9940, 10095.00
704.1490, 10146.00
705.3030, 10052.00
706.4570, 10151.00
707.6100, 10066.00
708.7640, 10108.00
709.9170, 10115.00
711.0710, 10090.00
712.2240, 10050.00
713.3770, 9956.000
714.5290, 10029.00
715.6820, 10041.00
716.8340, 10138.00
717.9870, 9957.000
719.1390, 9858.000
720.2910, 9974.000
721.4430, 10048.00
722.5940, 9935.000
723.7460, 10086.00
724.8970, 10146.00
726.0480, 10193.00
727.1990, 10066.00
728.3500, 10061.00
729.5000, 9966.000
730.6510, 9888.000
731.8010, 10059.00
732.9510, 10044.00
734.1010, 10030.00
735.2510, 9917.000
736.4010, 10035.00
737.5500, 9934.000
738.7000, 10184.00
739.8490, 10041.00
740.9980, 10182.00
742.1470, 10043.00
743.2950, 10193.00
744.4440, 10010.00
745.5920, 10126.00
746.7400, 10175.00
747.8880, 10162.00
749.0360, 10102.00
750.1840, 10198.00
751.3310, 10138.00
752.4790, 10161.00
753.6260, 10189.00
754.7730, 10072.00
755.9200, 10259.00
757.0670, 10193.00
758.2130, 10119.00
759.3600, 10083.00
760.5060, 10291.00
761.6520, 10243.00
762.7980, 10237.00
763.9440, 10281.00
765.0890, 10272.00
766.2350, 10243.00
767.3800, 10251.00
768.5250, 10263.00
769.6700, 10294.00
770.8150, 10308.00
771.9590, 10387.00
773.1040, 10381.00
774.2480, 10433.00
775.3920, 10454.00
776.5360, 10337.00
777.6800, 10412.00
778.8240, 10418.00
779.9670, 10478.00
781.1100, 10491.00
782.2540, 10459.00
783.3970, 10378.00
784.5390, 10504.00
785.6820, 10414.00
786.8240, 10464.00
787.9670, 10439.00
789.1090, 10521.00
790.2510, 10570.00
791.3930, 10505.00
792.5350, 10626.00
793.6760, 10373.00
794.8170, 10522.00
795.9590, 10594.00
797.1000, 10388.00
798.2410, 10638.00
799.3810, 10612.00
800.5220, 10548.00
801.6620, 10622.00
802.8030, 10498.00
803.9430, 10545.00
805.0820, 10593.00
806.2220, 10699.00
807.3620, 10772.00
808.5010, 10684.00
809.6410, 10814.00
810.7800, 10642.00
811.9190, 10685.00
813.0570, 10676.00
814.1960, 10755.00
815.3340, 10866.00
816.4730, 10965.00
817.6110, 10805.00
818.7490, 10798.00
819.8870, 10980.00
821.0240, 10836.00
822.1620, 10920.00
823.2990, 10885.00
824.4360, 10895.00
825.5730, 10928.00
826.7100, 10978.00
827.8470, 10958.00
828.9830, 10922.00
830.1200, 10921.00
831.2560, 10897.00
832.3920, 10863.00
833.5280, 10951.00
834.6630, 10934.00
835.7990, 10899.00
836.9340, 11086.00
838.0700, 11019.00
839.2050, 11122.00
840.3400, 11166.00
841.4740, 11110.00
842.6090, 11121.00
843.7430, 11173.00
844.8780, 11148.00
846.0120, 11443.00
847.1460, 11321.00
848.2790, 11468.00
849.4130, 11796.00
850.5460, 11773.00
851.6800, 11941.00
852.8130, 12314.00
853.9460, 12174.00
855.0790, 12438.00
856.2110, 12349.00
857.3440, 12325.00
858.4760, 12199.00
859.6080, 12165.00
860.7400, 12249.00
861.8720, 12049.00
863.0040, 12000.00
864.1350, 11840.00
865.2670, 11866.00
866.3980, 12008.00
867.5290, 11911.00
868.6600, 11884.63
869.7900, 11813.95
870.9210, 11763.00
872.0510, 11641.00
873.1820, 11735.00
874.3120, 11814.00
875.4420, 11599.00
876.5710, 11724.00
877.7010, 11596.00
878.8300, 11629.00
879.9600, 11693.00
881.0890, 11703.00
882.2180, 11683.00
883.3460, 11640.00
884.4750, 11572.00
885.6040, 11576.00
886.7320, 11565.00
887.8600, 11530.00
888.9880, 11562.00
890.1160, 11609.00
891.2430, 11609.39
892.3710, 11700.00
893.4980, 11671.00
894.6260, 11698.00
895.7530, 11757.00
896.8790, 11644.00
898.0060, 11540.00
899.1330, 11554.00
900.2590, 11705.00
901.3850, 11858.00
902.5110, 11759.00
903.6370, 11793.00
904.7630, 11704.00
905.8890, 11636.00
907.0140, 11789.00
908.1390, 11772.00
909.2640, 11830.00
910.3890, 11682.00
911.5140, 11811.00
912.6390, 11859.00
913.7630, 11686.00
914.8870, 11872.00
916.0120, 11853.00
917.1360, 11980.00
918.2590, 11960.00
919.3830, 11895.00
920.5070, 11827.00
921.6300, 11944.00
922.7530, 11994.00
923.8760, 12118.00
924.9990, 11934.00
926.1220, 12056.00
927.2440, 11941.00
928.3670, 11918.00
929.4890, 11887.00
930.6110, 11956.00
931.7330, 11985.00
932.8540, 12021.00
933.9760, 12170.00
935.0980, 12105.00
936.2190, 12156.00
937.3400, 12044.00
938.4610, 11992.00
939.5820, 12150.00
940.7020, 12180.00
941.8230, 12210.00
942.9430, 12263.00
944.0630, 12157.00
945.1830, 12129.00
946.3030, 12191.00
947.4230, 12322.00
948.5420, 12202.00
949.6610, 12239.00
950.7810, 12434.00
951.9000, 12329.00
953.0190, 12415.00
954.1370, 12279.00
955.2560, 12367.00
956.3740, 12388.00
957.4920, 12500.00
958.6110, 12558.00
959.7280, 12523.00
960.8460, 12444.00
961.9640, 12487.00
963.0810, 12522.00
964.1990, 12571.00
965.3160, 12651.00
966.4330, 12659.01
967.5490, 12723.00
968.6660, 12676.00
969.7830, 12628.00
970.8990, 12586.00
972.0150, 12631.26
973.1310, 12649.00
974.2470, 12722.00
975.3630, 12777.00
976.4780, 12763.83
977.5930, 12802.84
978.7090, 12855.00
979.8240, 12837.00
980.9390, 12848.00
982.0530, 12914.00
983.1680, 12999.00
984.2820, 13122.00
985.3970, 12987.00
986.5110, 13164.00
987.6250, 13148.00
988.7380, 13141.00
989.8520, 13203.00
990.9660, 13385.00
992.0790, 13318.00
993.1920, 13440.00
994.3050, 13350.00
995.4180, 13779.00
996.5300, 13804.00
997.6430, 13992.00
998.7550, 14018.00
999.8680, 14271.34
1000.980, 14529.00
1002.091, 14799.00
1003.203, 15205.00
1004.315, 15515.00
1005.426, 16065.00
1006.537, 16467.00
1007.648, 17092.00
1008.759, 18024.00
1009.870, 18824.00
1010.981, 19550.00
1012.091, 19761.00
1013.201, 19460.00
1014.312, 19161.00
1015.422, 17989.00
1016.531, 17187.00
1017.641, 16194.00
1018.751, 15706.00
1019.860, 15119.00
1020.969, 14897.00
1022.078, 14501.00
1023.187, 14506.00
1024.296, 14326.00
1025.404, 14238.00
1026.513, 14140.00
1027.621, 13914.00
1028.729, 13916.00
1029.837, 13997.00
1030.945, 13864.00
1032.052, 14015.00
1033.160, 14003.00
1034.267, 14117.00
1035.374, 14135.00
1036.481, 13937.00
1037.588, 14102.00
1038.695, 14059.00
1039.801, 14042.00
1040.907, 14145.00
1042.014, 14195.64
1043.120, 14375.00
1044.225, 14438.00
1045.331, 14547.00
1046.437, 14706.00
1047.542, 14778.00
1048.647, 14711.00
1049.752, 14487.00
1050.857, 14472.00
1051.962, 14144.00
1053.067, 14152.00
1054.171, 14114.00
1055.275, 14027.00
1056.380, 14103.00
1057.484, 14055.00
1058.587, 14150.00
1059.691, 14093.05
1060.795, 14051.74
1061.898, 13986.00
1063.001, 13900.00
1064.104, 13813.00
1065.207, 13698.00
1066.310, 13859.00
1067.412, 13946.00
1068.515, 13884.00
1069.617, 13760.00
1070.719, 13802.00
1071.821, 13850.00
1072.923, 14002.00
1074.024, 13917.00
1075.126, 13891.00
1076.227, 13877.00
1077.328, 13843.00
1078.429, 13857.00
1079.530, 13892.00
1080.631, 13963.00
1081.731, 14032.00
1082.831, 13971.00
1083.932, 14111.00
1085.032, 13993.00
1086.132, 13861.00
1087.231, 13940.00
1088.331, 14225.00
1089.430, 14053.00
1090.530, 14141.00
1091.629, 14061.00
1092.728, 14114.00
1093.826, 14053.00
1094.925, 14054.00
1096.023, 13965.00
1097.122, 14189.00
1098.220, 14053.00
1099.318, 14150.00
1100.416, 14110.00
1101.513, 14131.00
1102.611, 14097.00
1103.708, 14116.00
1104.806, 14134.00
1105.903, 14186.00
1107.000, 14244.00
1108.096, 14246.25
1109.193, 14162.00
1110.289, 14217.00
1111.386, 14250.00
1112.482, 14134.00
1113.578, 14176.00
1114.673, 14143.00
1115.769, 14249.00
1116.865, 14185.00
1117.960, 14096.00
1119.055, 14400.00
1120.150, 14284.00
1121.245, 14237.00
1122.340, 14312.00
1123.434, 14242.00
1124.529, 14544.00
1125.623, 14417.00
1126.717, 14573.00
1127.811, 14552.00
1128.905, 14468.00
1129.998, 14586.00
1131.092, 14391.00
1132.185, 14555.00
1133.278, 14399.00
1134.371, 14430.00
1135.464, 14595.00
1136.557, 14611.00
1137.649, 14530.00
1138.742, 14496.00
1139.834, 14424.00
1140.926, 14605.00
1142.018, 14492.00
1143.109, 14718.00
1144.201, 14489.00
1145.292, 14638.00
1146.384, 14654.00
1147.475, 14569.00
1148.566, 14654.00
1149.657, 14773.00
1150.747, 14610.00
1151.838, 14663.00
1152.928, 14866.00
1154.018, 14725.00
1155.108, 14908.00
1156.198, 14735.00
1157.288, 14677.00
1158.377, 14821.00
1159.467, 14909.00
1160.556, 14787.00
1161.645, 14838.00
1162.734, 14847.00
1163.823, 14867.00
1164.911, 14876.00
1166.000, 14948.00
1167.088, 14957.00
1168.176, 14910.00
1169.264, 15076.00
1170.352, 14883.00
1171.440, 14903.00
1172.527, 15005.00
1173.615, 15024.00
1174.702, 15016.00
1175.789, 14996.00
1176.876, 15082.00
1177.963, 15080.00
1179.049, 14990.00
1180.136, 15124.00
1181.222, 15238.00
1182.308, 15220.00
1183.394, 15021.00
1184.480, 15083.00
1185.566, 15096.00
1186.651, 15215.00
1187.736, 15178.00
1188.822, 15118.00
1189.907, 15362.00
1190.992, 15251.00
1192.076, 15172.00
1193.161, 15339.00
1194.245, 15160.00
1195.330, 15304.00
1196.414, 15291.00
1197.498, 15347.00
1198.581, 15343.00
1199.665, 15324.00
1200.749, 15370.00
1201.832, 15518.00
1202.915, 15422.00
1203.998, 15362.00
1205.081, 15545.00
1206.164, 15380.00
1207.246, 15441.00
1208.329, 15461.00
1209.411, 15472.00
1210.493, 15546.00
1211.575, 15504.00
1212.657, 15604.00
1213.738, 15684.00
1214.820, 15683.00
1215.901, 15675.00
1216.982, 15791.00
1218.063, 15624.00
1219.144, 15665.00
1220.225, 15808.00
1221.305, 15859.00
1222.386, 15784.58
1223.466, 15573.00
1224.546, 15722.00
1225.626, 15591.00
1226.706, 15860.00
1227.785, 15927.00
1228.865, 15986.00
1229.944, 15863.00
1231.023, 15892.00
1232.102, 15799.00
1233.181, 15882.00
1234.260, 15981.00
1235.338, 15854.00
1236.417, 16034.00
1237.495, 16213.00
1238.573, 15939.00
1239.651, 15959.00
1240.729, 15875.00
1241.806, 15904.00
1242.884, 16009.00
1243.961, 15865.00
1245.038, 16041.00
1246.115, 16135.00
1247.192, 16021.00
1248.269, 16012.00
1249.345, 16174.00
1250.421, 16041.00
1251.498, 16114.00
1252.574, 16325.00
1253.650, 16270.00
1254.725, 16230.00
1255.801, 16281.00
1256.876, 16286.00
1257.952, 16191.00
1259.027, 16198.00
1260.102, 16279.00
1261.177, 16396.00
1262.251, 16172.00
1263.326, 16583.00
1264.400, 16345.00
1265.474, 16426.00
1266.548, 16578.00
1267.622, 16373.00
1268.696, 16511.00
1269.770, 16351.00
1270.843, 16534.00
1271.916, 16508.00
1272.990, 16465.00
1274.063, 16421.00
1275.135, 16428.00
1276.208, 16570.00
1277.281, 16592.00
1278.353, 16656.00
1279.425, 16642.00
1280.497, 16540.00
1281.569, 16646.00
1282.641, 16604.00
1283.712, 16496.00
1284.784, 16606.00
1285.855, 16706.00
1286.926, 16718.00
1287.997, 16668.00
1289.068, 16760.00
1290.139, 16661.00
1291.209, 16637.00
1292.280, 16843.00
1293.350, 16701.00
1294.420, 16815.00
1295.490, 16857.00
1296.560, 16689.00
1297.629, 16909.00
1298.699, 16833.00
1299.768, 16712.00
1300.837, 16956.00
1301.906, 16813.00
1302.975, 16881.00
1304.043, 17021.00
1305.112, 16852.00
1306.180, 16946.00
1307.249, 16979.00
1308.317, 17009.00
1309.385, 17049.00
1310.452, 17112.00
1311.520, 16993.00
1312.587, 17268.00
1313.655, 17203.00
1314.722, 17184.00
1315.789, 17387.00
1316.856, 17122.00
1317.922, 17233.00
1318.989, 17317.00
1320.055, 17461.00
1321.121, 17419.00
1322.187, 17247.00
1323.253, 17279.00
1324.319, 17368.00
1325.385, 17302.00
1326.450, 17374.00
1327.515, 17344.00
1328.581, 17284.00
1329.646, 17259.00
1330.710, 17260.58
1331.775, 17422.00
1332.840, 17294.00
1333.904, 17467.00
1334.968, 17516.00
1336.032, 17404.00
1337.096, 17422.00
1338.160, 17555.00
1339.224, 17471.00
1340.287, 17464.00
1341.350, 17607.00
1342.414, 17721.00
1343.477, 17483.00
1344.539, 17710.00
1345.602, 17643.00
1346.665, 17824.00
1347.727, 17795.00
1348.789, 17786.00
1349.851, 17875.00
1350.913, 17813.29
1351.975, 17816.00
1353.037, 17813.00
1354.098, 17750.00
1355.160, 17855.00
1356.221, 17903.00
1357.282, 18007.00
1358.343, 17959.00
1359.403, 17959.00
1360.464, 17934.00
1361.524, 17947.70
1362.585, 17827.00
1363.645, 18012.00
1364.705, 18072.00
1365.765, 18150.00
1366.824, 18079.00
1367.884, 18032.00
1368.943, 18145.00
1370.002, 18107.00
1371.061, 18151.15
1372.120, 18016.00
1373.179, 18167.00
1374.237, 18177.00
1375.296, 18076.00
1376.354, 18212.00
1377.412, 18236.00
1378.470, 18341.00
1379.528, 18379.00
1380.586, 18138.00
1381.643, 18421.00
1382.701, 18234.00
1383.758, 18193.00
1384.815, 18289.00
1385.872, 18422.00
1386.929, 18581.00
1387.985, 18574.29
1389.042, 18340.00
1390.098, 18573.00
1391.154, 18369.00
1392.210, 18359.00
1393.266, 18483.00
1394.322, 18438.00
1395.377, 18373.00
1396.433, 18644.00
1397.488, 18365.00
1398.543, 18387.00
1399.598, 18606.00
1400.653, 18689.00
1401.707, 18554.00
1402.762, 18753.00
1403.816, 18493.00
1404.870, 18672.00
1405.924, 18794.00
1406.978, 18698.00
1408.032, 18763.00
1409.085, 18776.00
1410.139, 18820.00
1411.192, 18903.00
1412.245, 18735.00
1413.298, 18899.00
1414.351, 18708.00
1415.404, 18926.00
1416.456, 18739.00
1417.509, 18815.00
1418.561, 18846.00
1419.613, 18676.00
1420.665, 18842.00
1421.717, 18960.00
1422.768, 18964.00
1423.820, 18945.00
1424.871, 18980.00
1425.922, 18964.00
1426.973, 19001.00
1428.024, 18886.00
1429.075, 19295.00
1430.125, 19065.00
1431.175, 19237.00
1432.226, 19177.00
1433.276, 19165.00
1434.326, 19436.00
1435.376, 19153.00
1436.425, 19159.00
1437.475, 19248.00
1438.524, 19270.00
1439.573, 19450.00
1440.622, 19351.00
1441.671, 19369.00
1442.720, 19413.00
1443.768, 19229.00
1444.817, 19349.00
1445.865, 19357.00
1446.913, 19384.00
1447.961, 19432.00
1449.009, 19573.00
1450.057, 19700.00
1451.104, 19469.00
1452.152, 19608.00
1453.199, 19369.00
1454.246, 19683.00
1455.293, 19776.00
1456.339, 19593.00
1457.386, 19710.00
1458.433, 19682.00
1459.479, 19774.00
1460.525, 19623.00
1461.571, 19620.00
1462.617, 19720.00
1463.663, 19697.00
1464.708, 19730.00
1465.754, 19829.00
1466.799, 19938.00
1467.844, 19915.00
1468.889, 19841.00
1469.934, 19918.00
1470.978, 19869.00
1472.023, 19927.00
1473.067, 19860.00
1474.111, 20038.00
1475.155, 19901.00
1476.199, 20139.00
1477.243, 19984.00
1478.287, 20058.00
1479.330, 19986.00
1480.373, 19922.00
1481.417, 20109.00
1482.460, 20016.00
1483.502, 20214.00
1484.545, 20286.00
1485.588, 20083.00
1486.630, 20241.00
1487.672, 20067.00
1488.714, 20168.00
1489.756, 20139.00
1490.798, 20301.00
1491.840, 20288.00
1492.881, 20170.00
1493.923, 20268.00
1494.964, 20402.00
1496.005, 20455.00
1497.046, 20421.00
1498.087, 20473.19
1499.127, 20247.00
1500.168, 20465.00
1501.208, 20390.00
1502.248, 20393.00
1503.288, 20509.00
1504.328, 20410.00
1505.368, 20600.00
1506.407, 20534.00
1507.446, 20480.00
1508.486, 20454.00
1509.525, 20577.00
1510.564, 20584.00
1511.603, 20489.74
1512.641, 20650.97
1513.680, 20752.30
1514.718, 20796.88
1515.756, 20614.86
1516.794, 20725.44
1517.832, 20718.77
1518.870, 20707.28
1519.907, 20859.03
1520.945, 20709.96
1521.982, 20859.12
1523.019, 20889.23
1524.056, 20973.82
1525.093, 20940.42
1526.130, 20943.47
1527.166, 21064.52
1528.203, 21120.24
1529.239, 21073.24
1530.275, 21161.27
1531.311, 21008.04
1532.347, 21066.52
1533.383, 21216.34
1534.418, 21175.25
1535.453, 21265.42
1536.489, 21305.62
1537.524, 21118.61
1538.559, 21326.69
1539.593, 21363.89
1540.628, 21225.67
1541.662, 21420.19
1542.697, 21306.16
1543.731, 21302.25
1544.765, 21381.23
1545.799, 21373.79
1546.832, 21502.58
1547.866, 21500.13
1548.899, 21485.94
1549.933, 21522.95
1550.966, 21414.91
1551.999, 21397.00
1553.031, 21341.00
1554.064, 21361.00
1555.097, 21291.21
1556.129, 21294.91
1557.161, 21345.00
1558.193, 21341.00
1559.225, 21566.00
1560.257, 21734.00
1561.289, 21347.00
1562.320, 21495.00
1563.351, 21398.00
1564.383, 21572.00
1565.414, 21704.00
1566.444, 21497.00
1567.475, 21654.00
1568.506, 21660.00
1569.536, 21796.00
1570.566, 21810.00
1571.597, 21635.00
1572.627, 21779.00
1573.656, 21628.00
1574.686, 21762.00
1575.716, 21928.00
1576.745, 21781.00
1577.774, 21843.00
##END=



