##NAMES=Diopside
##RRUFFID=R070123
##IDEAL CHEMISTRY=CaMgSi_2_O_6_
##LOCALITY=Yates mine, Otter Lake, Huddersfield Township, Pontiac County, Québec, Canada
##OWNER=RRUFF
##SOURCE=Michael Scott
##DESCRIPTION=Black prismatic crystals associated with orange calcite
##STATUS=The identification of this mineral has been confirmed by X-ray diffraction and chemical analysis
##URL=rruff.info/R070123
##MEASURED CHEMISTRY=(Ca_0.95_Na_0.04_Mn_0.01_)_Σ=1_(Mg_0.63_Fe_0.33_Al_0.04_)_Σ=1_Si_2.00_O_6_
##PIN_ID=M00826
##ORIENTATION=Laser parallel to a* (1 0 0). Fiducial mark perpendicular to laser is parallel to -b [0 -1 0]
117.2950, 8423.000
118.5340, 8410.000
119.7720, 8513.000
121.0100, 8561.000
122.2470, 8752.000
123.4850, 9064.000
124.7220, 9175.000
125.9590, 9451.000
127.1960, 9703.000
128.4330, 9963.000
129.6700, 10219.00
130.9060, 10503.00
132.1430, 10932.00
133.3790, 11246.00
134.6150, 11642.00
135.8500, 11833.00
137.0860, 11921.00
138.3210, 11869.00
139.5560, 11629.00
140.7910, 11238.00
142.0260, 10643.00
143.2610, 10077.00
144.4950, 9900.000
145.7290, 9501.000
146.9630, 9542.000
148.1970, 9512.000
149.4310, 9474.000
150.6640, 9456.000
151.8980, 9392.000
153.1310, 9375.000
154.3640, 9396.000
155.5970, 9482.000
156.8290, 9551.000
158.0620, 9312.000
159.2940, 9470.000
160.5260, 9469.000
161.7580, 9590.000
162.9890, 9580.000
164.2210, 9629.000
165.4520, 9637.000
166.6830, 9574.000
167.9140, 9672.000
169.1450, 9681.000
170.3760, 9690.000
171.6060, 9809.000
172.8360, 9643.000
174.0660, 9687.000
175.2960, 9707.000
176.5260, 9830.000
177.7550, 9890.000
178.9840, 9932.000
180.2130, 9826.000
181.4420, 9904.000
182.6710, 9963.000
183.9000, 9829.000
185.1280, 9934.000
186.3560, 9887.000
187.5840, 9961.000
188.8120, 9842.000
190.0400, 9974.000
191.2670, 9895.000
192.4950, 9860.000
193.7220, 9948.000
194.9490, 9972.000
196.1750, 10007.00
197.4020, 10060.03
198.6280, 10038.00
199.8540, 10106.00
201.0800, 10104.00
202.3060, 10053.00
203.5320, 9972.000
204.7570, 10011.00
205.9830, 9816.000
207.2080, 10055.00
208.4330, 9771.000
209.6570, 9913.000
210.8820, 9889.000
212.1060, 9898.000
213.3310, 9748.000
214.5550, 9787.000
215.7780, 9961.000
217.0020, 9869.000
218.2260, 9970.000
219.4490, 10017.00
220.6720, 9962.000
221.8950, 9875.000
223.1180, 10095.00
224.3400, 10153.00
225.5630, 10288.00
226.7850, 10147.00
228.0070, 10199.00
229.2290, 10275.00
230.4500, 10219.00
231.6720, 10225.00
232.8930, 10284.00
234.1140, 10201.00
235.3350, 10340.00
236.5560, 10163.00
237.7770, 10085.00
238.9970, 10127.00
240.2170, 10106.00
241.4370, 10120.00
242.6570, 10071.00
243.8770, 10008.00
245.0960, 9917.000
246.3160, 9981.000
247.5350, 9990.000
248.7540, 10030.00
249.9730, 10051.32
251.1910, 10054.00
252.4100, 10081.00
253.6280, 9969.000
254.8460, 9968.000
256.0640, 9923.000
257.2810, 9912.000
258.4990, 9931.000
259.7160, 9896.330
260.9330, 10047.00
262.1500, 9850.000
263.3670, 9813.000
264.5840, 9754.000
265.8000, 9872.000
267.0170, 9684.000
268.2330, 9730.000
269.4490, 9734.000
270.6640, 9741.000
271.8800, 9731.000
273.0950, 9779.000
274.3100, 9813.313
275.5260, 9779.192
276.7400, 9899.000
277.9550, 9757.000
279.1690, 9728.000
280.3840, 9799.000
281.5980, 9792.000
282.8120, 9776.000
284.0260, 9861.000
285.2390, 9846.000
286.4530, 9950.000
287.6660, 9973.000
288.8790, 10110.00
290.0920, 9972.000
291.3040, 10341.00
292.5170, 10251.00
293.7290, 10482.00
294.9410, 10548.00
296.1530, 10600.00
297.3650, 10645.00
298.5770, 10823.00
299.7880, 11018.00
301.0000, 11052.00
302.2110, 11163.00
303.4220, 11423.00
304.6320, 11718.00
305.8430, 11968.00
307.0530, 12359.00
308.2630, 12698.00
309.4730, 13158.00
310.6830, 13818.00
311.8930, 14430.00
313.1030, 15037.00
314.3120, 15483.00
315.5210, 16192.00
316.7300, 17026.00
317.9390, 17480.00
319.1470, 17760.00
320.3560, 18008.00
321.5640, 17962.00
322.7720, 17889.00
323.9800, 17462.00
325.1880, 16827.00
326.3950, 16254.00
327.6030, 15604.00
328.8100, 15085.00
330.0170, 14581.51
331.2240, 14081.00
332.4300, 13716.00
333.6370, 13265.00
334.8430, 12959.00
336.0490, 12779.00
337.2550, 12639.00
338.4610, 12479.00
339.6660, 12553.00
340.8720, 12329.00
342.0770, 12559.00
343.2820, 12600.00
344.4870, 12343.00
345.6920, 12717.00
346.8960, 12668.00
348.1010, 12931.00
349.3050, 13075.00
350.5090, 13024.00
351.7130, 13164.00
352.9160, 13177.00
354.1200, 13123.00
355.3230, 13143.00
356.5260, 12958.00
357.7290, 12946.00
358.9320, 12571.00
360.1350, 12509.00
361.3370, 12392.00
362.5390, 12222.00
363.7410, 12369.00
364.9430, 12246.00
366.1450, 12277.00
367.3470, 12448.00
368.5480, 12442.00
369.7490, 12663.00
370.9500, 12961.00
372.1510, 13134.00
373.3520, 13444.00
374.5520, 13766.00
375.7530, 14239.00
376.9530, 14956.00
378.1530, 15487.00
379.3520, 16166.00
380.5520, 17038.00
381.7510, 17621.00
382.9510, 18422.00
384.1500, 18974.00
385.3490, 19630.00
386.5480, 19739.00
387.7460, 19553.00
388.9440, 18942.00
390.1430, 18360.00
391.3410, 17251.00
392.5390, 16214.00
393.7360, 15027.00
394.9340, 14138.00
396.1310, 13105.00
397.3280, 12614.00
398.5250, 11953.00
399.7220, 11706.00
400.9190, 11317.00
402.1150, 10973.00
403.3120, 10795.00
404.5080, 10618.00
405.7040, 10435.50
406.8990, 10367.00
408.0950, 10251.00
409.2900, 10193.00
410.4860, 10128.35
411.6810, 10131.00
412.8760, 10019.00
414.0700, 10084.00
415.2650, 10030.00
416.4590, 10047.00
417.6540, 10079.00
418.8480, 10002.00
420.0420, 9965.000
421.2350, 9930.000
422.4290, 9964.000
423.6220, 10045.00
424.8150, 9961.000
426.0080, 9971.081
427.2010, 9867.000
428.3940, 9877.000
429.5860, 9831.000
430.7790, 9772.000
431.9710, 9738.000
433.1630, 9852.000
434.3540, 9850.000
435.5460, 9840.000
436.7370, 9849.000
437.9290, 9876.000
439.1200, 9876.000
440.3110, 9787.000
441.5010, 9922.000
442.6920, 9871.000
443.8820, 9851.000
445.0730, 10024.00
446.2630, 9943.000
447.4530, 9945.000
448.6420, 9976.000
449.8320, 10158.00
451.0210, 10158.00
452.2100, 10137.00
453.3990, 10084.00
454.5880, 10243.00
455.7770, 10233.00
456.9660, 10303.00
458.1540, 10213.00
459.3420, 10355.00
460.5300, 10119.00
461.7180, 10129.00
462.9050, 10125.00
464.0930, 10204.00
465.2800, 10271.00
466.4670, 10245.00
467.6540, 10206.00
468.8410, 10238.00
470.0280, 10242.00
471.2140, 10225.00
472.4000, 10188.00
473.5870, 10202.51
474.7720, 10181.74
475.9580, 10191.00
477.1440, 10171.00
478.3290, 10121.00
479.5140, 10116.00
480.6990, 10188.00
481.8840, 10294.00
483.0690, 10251.00
484.2540, 10172.00
485.4380, 10277.00
486.6220, 10248.00
487.8060, 10285.46
488.9900, 10266.00
490.1740, 10323.00
491.3570, 10292.00
492.5410, 10329.91
493.7240, 10308.00
494.9070, 10374.00
496.0900, 10465.00
497.2720, 10465.00
498.4550, 10531.00
499.6370, 10597.98
500.8190, 10687.00
502.0010, 10754.00
503.1830, 10833.00
504.3650, 10871.40
505.5460, 10892.00
506.7280, 10944.00
507.9090, 10997.00
509.0900, 11054.00
510.2710, 11086.00
511.4510, 11098.00
512.6320, 11076.00
513.8120, 11166.00
514.9920, 11074.00
516.1720, 11047.00
517.3520, 11171.00
518.5310, 11101.00
519.7110, 11125.00
520.8900, 11366.00
522.0690, 11370.00
523.2480, 11348.00
524.4270, 11416.00
525.6050, 11393.00
526.7840, 11431.00
527.9620, 11437.70
529.1400, 11447.00
530.3180, 11438.00
531.4960, 11391.00
532.6730, 11376.00
533.8510, 11337.00
535.0280, 11315.00
536.2050, 11247.47
537.3820, 11163.00
538.5590, 11111.00
539.7350, 11068.00
540.9120, 11022.00
542.0880, 10901.00
543.2640, 11032.00
544.4400, 10934.00
545.6150, 11026.00
546.7910, 11081.00
547.9660, 10965.00
549.1410, 11134.00
550.3170, 11191.00
551.4910, 11130.00
552.6660, 11163.00
553.8410, 11275.00
555.0150, 11282.00
556.1890, 11328.00
557.3630, 11241.00
558.5370, 11198.00
559.7110, 11271.00
560.8840, 11285.00
562.0570, 11172.00
563.2310, 11081.00
564.4040, 11162.00
565.5760, 11010.00
566.7490, 10977.00
567.9220, 11096.00
569.0940, 10991.00
570.2660, 11093.00
571.4380, 10980.00
572.6100, 10931.00
573.7820, 10972.00
574.9530, 10900.00
576.1240, 10874.00
577.2960, 10823.00
578.4670, 10817.00
579.6370, 10812.00
580.8080, 10812.00
581.9790, 10806.03
583.1490, 10802.00
584.3190, 10796.00
585.4890, 10801.00
586.6590, 10792.00
587.8280, 10863.00
588.9980, 10824.00
590.1670, 10855.00
591.3360, 10878.00
592.5050, 11003.00
593.6740, 10965.52
594.8430, 11009.00
596.0110, 10933.00
597.1790, 11016.00
598.3480, 10981.00
599.5160, 10965.00
600.6830, 10990.00
601.8510, 10962.00
603.0180, 10962.00
604.1860, 10995.00
605.3530, 11054.00
606.5200, 11104.00
607.6870, 10922.00
608.8530, 10935.00
610.0200, 11091.00
611.1860, 10903.00
612.3520, 11032.00
613.5180, 10972.00
614.6840, 11160.00
615.8500, 11220.00
617.0150, 11178.00
618.1800, 11382.00
619.3450, 11391.00
620.5100, 11464.00
621.6750, 11540.00
622.8400, 11563.00
624.0040, 11691.00
625.1690, 11611.00
626.3330, 11783.00
627.4970, 11805.00
628.6610, 11589.00
629.8240, 11777.00
630.9880, 11673.00
632.1510, 11626.00
633.3140, 11634.00
634.4770, 11662.00
635.6400, 11713.00
636.8020, 11821.00
637.9650, 11957.00
639.1270, 11892.00
640.2890, 12026.00
641.4510, 12233.00
642.6130, 12508.00
643.7750, 12494.00
644.9360, 12817.00
646.0980, 12881.00
647.2590, 13217.00
648.4200, 13446.00
649.5810, 13568.00
650.7410, 14100.00
651.9020, 14555.00
653.0620, 15035.00
654.2220, 15869.00
655.3820, 16782.00
656.5420, 18018.00
657.7020, 18976.00
658.8610, 20509.00
660.0200, 21913.00
661.1800, 23109.00
662.3390, 24573.00
663.4970, 25410.00
664.6560, 25802.00
665.8150, 25920.00
666.9730, 25205.00
668.1310, 23699.00
669.2890, 22168.00
670.4470, 20647.00
671.6050, 18975.00
672.7620, 17567.00
673.9200, 16339.00
675.0770, 15514.00
676.2340, 14602.00
677.3910, 14096.00
678.5470, 13745.00
679.7040, 13252.00
680.8600, 12969.00
682.0160, 12680.00
683.1720, 12522.00
684.3280, 12357.00
685.4840, 12084.00
686.6390, 11995.00
687.7950, 11863.29
688.9500, 11846.00
690.1050, 11720.00
691.2600, 11715.00
692.4150, 11693.00
693.5690, 11695.00
694.7240, 11667.00
695.8780, 11617.00
697.0320, 11566.00
698.1860, 11437.00
699.3400, 11555.00
700.4930, 11650.00
701.6470, 11546.00
702.8000, 11435.00
703.9530, 11481.00
705.1060, 11530.00
706.2590, 11538.00
707.4110, 11529.00
708.5640, 11568.22
709.7160, 11486.00
710.8680, 11597.00
712.0200, 11459.00
713.1720, 11422.00
714.3230, 11401.00
715.4750, 11306.00
716.6260, 11426.00
717.7770, 11509.00
718.9280, 11364.00
720.0790, 11437.00
721.2300, 11355.00
722.3800, 11482.00
723.5300, 11411.00
724.6810, 11354.00
725.8300, 11239.00
726.9800, 11416.00
728.1300, 11384.00
729.2790, 11490.00
730.4290, 11527.00
731.5780, 11519.01
732.7270, 11568.20
733.8760, 11521.00
735.0240, 11524.00
736.1730, 11538.00
737.3210, 11374.00
738.4700, 11501.00
739.6180, 11545.00
740.7650, 11396.00
741.9130, 11577.00
743.0610, 11566.00
744.2080, 11519.00
745.3550, 11601.00
746.5020, 11515.00
747.6490, 11617.00
748.7960, 11690.00
749.9430, 11664.00
751.0890, 11584.00
752.2350, 11761.00
753.3810, 11682.00
754.5270, 11623.00
755.6730, 11721.00
756.8190, 11694.00
757.9640, 11894.00
759.1090, 11691.00
760.2540, 11765.00
761.3990, 11904.00
762.5440, 11889.00
763.6890, 11783.00
764.8330, 11880.00
765.9780, 11973.00
767.1220, 11804.00
768.2660, 11896.00
769.4100, 11905.00
770.5530, 12003.00
771.6970, 11874.00
772.8400, 11921.00
773.9830, 11896.00
775.1260, 11899.00
776.2690, 11872.00
777.4120, 11904.00
778.5540, 11968.00
779.6970, 11923.00
780.8390, 12069.00
781.9810, 12041.00
783.1230, 11895.00
784.2650, 12003.00
785.4060, 12093.00
786.5480, 12029.00
787.6890, 11903.00
788.8300, 12134.00
789.9710, 12078.00
791.1120, 12150.00
792.2520, 12193.00
793.3930, 12134.00
794.5330, 12121.00
795.6730, 12269.00
796.8130, 12194.00
797.9530, 12266.00
799.0930, 12095.00
800.2320, 12334.00
801.3710, 12191.00
802.5110, 12253.00
803.6500, 12291.00
804.7880, 12272.00
805.9270, 12218.00
807.0660, 12175.00
808.2040, 12429.00
809.3420, 12396.00
810.4800, 12467.00
811.6180, 12425.00
812.7560, 12426.00
813.8930, 12415.00
815.0310, 12439.09
816.1680, 12567.00
817.3050, 12536.00
818.4420, 12574.00
819.5790, 12672.00
820.7150, 12619.00
821.8520, 12608.00
822.9880, 12717.00
824.1240, 12641.00
825.2600, 12736.00
826.3960, 12721.00
827.5320, 12671.00
828.6670, 12692.00
829.8020, 12832.00
830.9380, 12768.00
832.0730, 12797.00
833.2080, 12890.00
834.3420, 12723.00
835.4770, 12816.00
836.6110, 12709.00
837.7450, 12902.00
838.8790, 12896.00
840.0130, 12718.00
841.1470, 13104.00
842.2810, 13027.00
843.4140, 13096.00
844.5470, 13187.00
845.6800, 13223.00
846.8130, 13458.00
847.9460, 13567.00
849.0790, 13582.00
850.2110, 13791.00
851.3440, 13822.00
852.4760, 14172.00
853.6080, 14224.00
854.7400, 14355.00
855.8710, 14390.00
857.0030, 14471.00
858.1340, 14396.00
859.2650, 14373.00
860.3960, 14371.00
861.5270, 14216.00
862.6580, 14184.00
863.7890, 13994.00
864.9190, 14136.00
866.0490, 14030.00
867.1790, 13901.00
868.3090, 13807.00
869.4390, 13752.00
870.5690, 13899.00
871.6980, 13710.00
872.8270, 13722.00
873.9570, 13789.00
875.0860, 13602.00
876.2140, 13706.00
877.3430, 13672.00
878.4720, 13712.00
879.6000, 13754.00
880.7280, 13762.00
881.8560, 13771.00
882.9840, 13850.00
884.1120, 13854.00
885.2390, 13875.00
886.3670, 13758.00
887.4940, 13731.00
888.6210, 13832.00
889.7480, 14016.00
890.8750, 13896.00
892.0020, 14035.00
893.1280, 14104.00
894.2540, 14007.00
895.3810, 14005.00
896.5070, 13970.00
897.6320, 14128.00
898.7580, 14022.00
899.8840, 14193.00
901.0090, 14159.00
902.1340, 14108.00
903.2590, 14032.00
904.3840, 14025.00
905.5090, 14136.00
906.6340, 13938.00
907.7580, 14049.00
908.8820, 14071.00
910.0060, 13843.00
911.1300, 13913.00
912.2540, 13867.00
913.3780, 13717.00
914.5010, 13897.00
915.6250, 13949.00
916.7480, 13717.00
917.8710, 13842.00
918.9940, 13650.00
920.1160, 13789.00
921.2390, 13761.00
922.3610, 13692.00
923.4840, 13777.00
924.6060, 13782.00
925.7280, 13784.00
926.8490, 13652.00
927.9710, 13710.00
929.0930, 13694.00
930.2140, 13776.00
931.3350, 13702.00
932.4560, 13571.00
933.5770, 13729.00
934.6980, 13583.00
935.8180, 13504.00
936.9380, 13500.00
938.0590, 13498.00
939.1790, 13544.00
940.2990, 13644.00
941.4180, 13608.00
942.5380, 13508.00
943.6570, 13340.00
944.7770, 13543.00
945.8960, 13474.00
947.0150, 13523.00
948.1340, 13596.00
949.2520, 13512.00
950.3710, 13591.00
951.4890, 13763.00
952.6070, 13662.00
953.7260, 13880.00
954.8430, 13635.00
955.9610, 13754.00
957.0790, 13790.00
958.1960, 13765.00
959.3130, 13802.00
960.4310, 13875.00
961.5480, 13755.00
962.6640, 13893.00
963.7810, 13902.00
964.8970, 13847.00
966.0140, 13996.00
967.1300, 13954.00
968.2460, 13936.00
969.3620, 14064.00
970.4780, 13998.08
971.5930, 14073.15
972.7090, 14128.58
973.8240, 14165.54
974.9390, 14119.55
976.0540, 14187.77
977.1690, 14214.55
978.2830, 14242.56
979.3980, 14335.70
980.5120, 14317.65
981.6260, 14415.95
982.7400, 14472.12
983.8540, 14552.08
984.9680, 14590.32
986.0820, 14671.00
987.1950, 14741.00
988.3080, 15002.00
989.4210, 14965.00
990.5340, 15192.00
991.6470, 15390.00
992.7600, 15656.00
993.8720, 16089.00
994.9850, 16315.00
996.0970, 16965.00
997.2090, 17466.00
998.3210, 17841.00
999.4320, 18801.00
1000.544, 19770.00
1001.655, 20887.00
1002.767, 22107.00
1003.878, 23249.00
1004.989, 25298.00
1006.100, 27377.00
1007.210, 29898.00
1008.321, 32688.00
1009.431, 35336.00
1010.541, 37430.00
1011.651, 39014.00
1012.761, 38702.65
1013.871, 38137.00
1014.980, 35865.00
1016.090, 32635.00
1017.199, 29187.00
1018.308, 26301.00
1019.417, 23754.00
1020.526, 22089.00
1021.635, 20494.96
1022.743, 19500.00
1023.852, 18516.00
1024.960, 18047.00
1026.068, 17296.00
1027.176, 17068.00
1028.283, 16883.00
1029.391, 16572.00
1030.498, 16206.00
1031.606, 16302.00
1032.713, 16063.00
1033.820, 16173.00
1034.927, 15868.00
1036.033, 15815.00
1037.140, 15748.00
1038.246, 15875.00
1039.353, 15857.00
1040.459, 15818.91
1041.564, 15708.00
1042.670, 15725.00
1043.776, 15684.00
1044.881, 15642.00
1045.987, 15589.77
1047.092, 15472.22
1048.197, 15417.00
1049.302, 15240.00
1050.406, 15089.00
1051.511, 15036.00
1052.615, 14848.00
1053.720, 14820.00
1054.824, 14828.00
1055.928, 14683.00
1057.031, 14803.00
1058.135, 14790.00
1059.238, 14595.00
1060.342, 14713.00
1061.445, 14671.00
1062.548, 14499.00
1063.651, 14430.00
1064.754, 14727.00
1065.856, 14709.00
1066.959, 14672.00
1068.061, 14438.00
1069.163, 14468.00
1070.265, 14481.00
1071.367, 14425.00
1072.469, 14433.00
1073.570, 14460.25
1074.671, 14489.08
1075.773, 14557.00
1076.874, 14634.00
1077.975, 14728.00
1079.075, 14857.00
1080.176, 14746.00
1081.276, 14745.00
1082.377, 14980.00
1083.477, 14786.00
1084.577, 14713.00
1085.677, 14768.00
1086.777, 14914.00
1087.876, 14646.00
1088.975, 14703.00
1090.075, 14797.00
1091.174, 14589.00
1092.273, 14503.00
1093.372, 14605.00
1094.470, 14663.00
1095.569, 14469.00
1096.667, 14620.00
1097.765, 14507.00
1098.863, 14345.00
1099.961, 14512.00
1101.059, 14580.00
1102.157, 14507.00
1103.254, 14452.00
1104.351, 14538.00
1105.449, 14538.00
1106.546, 14650.00
1107.642, 14512.00
1108.739, 14434.00
1109.836, 14534.00
1110.932, 14478.00
1112.028, 14602.00
1113.124, 14564.00
1114.220, 14445.00
1115.316, 14627.00
1116.412, 14658.00
1117.507, 14540.00
1118.603, 14385.00
1119.698, 14406.00
1120.793, 14610.00
1121.888, 14383.00
1122.983, 14510.00
1124.077, 14772.00
1125.172, 14518.00
1126.266, 14569.00
1127.360, 14687.00
1128.454, 14668.00
1129.548, 14629.00
1130.642, 14496.00
1131.735, 14519.00
1132.829, 14481.00
1133.922, 14572.00
1135.015, 14475.00
1136.108, 14453.00
1137.201, 14465.00
1138.294, 14384.72
1139.386, 14424.00
1140.478, 14310.00
1141.571, 14342.00
1142.663, 14366.00
1143.755, 14570.00
1144.846, 14326.00
1145.938, 14135.00
1147.030, 14395.00
1148.121, 14381.00
1149.212, 14322.00
1150.303, 14416.00
1151.394, 14305.00
1152.485, 14291.00
1153.575, 14224.00
1154.666, 14228.55
1155.756, 14389.00
1156.846, 14256.00
1157.936, 14377.00
1159.026, 14374.00
1160.116, 14271.00
1161.205, 14247.00
1162.295, 14319.00
1163.384, 14316.00
1164.473, 14358.00
1165.562, 14454.00
1166.651, 14311.00
1167.739, 14506.00
1168.828, 14452.00
1169.916, 14459.00
1171.005, 14480.00
1172.093, 14394.00
1173.181, 14579.00
1174.268, 14435.00
1175.356, 14295.00
1176.443, 14410.00
1177.531, 14498.00
1178.618, 14448.00
1179.705, 14400.00
1180.792, 14370.00
1181.879, 14508.00
1182.965, 14517.00
1184.052, 14435.00
1185.138, 14535.00
1186.224, 14484.00
1187.310, 14489.00
1188.396, 14451.00
1189.482, 14439.00
1190.567, 14473.00
1191.653, 14538.00
1192.738, 14460.00
1193.823, 14500.00
1194.908, 14550.00
1195.993, 14431.00
1197.077, 14448.00
1198.162, 14533.00
1199.246, 14477.00
1200.331, 14538.40
1201.415, 14454.00
1202.499, 14573.00
1203.582, 14548.00
1204.666, 14511.00
1205.750, 14569.00
1206.833, 14591.00
1207.916, 14694.00
1208.999, 14661.00
1210.082, 14586.00
1211.165, 14596.00
1212.248, 14660.00
1213.330, 14632.00
1214.412, 14718.00
1215.495, 14681.00
1216.577, 14628.00
1217.658, 14765.00
1218.740, 14678.00
1219.822, 14675.00
1220.903, 14611.00
1221.985, 14675.00
1223.066, 14684.00
1224.147, 14733.00
1225.228, 14732.00
1226.308, 14900.00
1227.389, 14856.00
1228.469, 15032.00
1229.550, 14996.28
1230.630, 15005.07
1231.710, 14958.00
1232.790, 14989.00
1233.869, 14995.00
1234.949, 15029.00
1236.028, 15052.00
1237.108, 14996.00
1238.187, 14975.00
1239.266, 15070.00
1240.344, 14961.00
1241.423, 15067.00
1242.502, 14999.00
1243.580, 15084.00
1244.658, 15088.00
1245.736, 15004.00
1246.814, 15188.00
1247.892, 15081.00
1248.970, 15069.00
1250.047, 15008.00
1251.125, 15057.83
1252.202, 15037.00
1253.279, 15185.00
1254.356, 15197.00
1255.433, 15223.00
1256.509, 15298.78
1257.586, 15309.48
1258.662, 15363.00
1259.738, 15390.00
1260.814, 15371.00
1261.890, 15443.00
1262.966, 15482.49
1264.042, 15545.00
1265.117, 15588.00
1266.193, 15650.00
1267.268, 15649.00
1268.343, 15557.00
1269.418, 15625.84
1270.492, 15612.00
1271.567, 15648.00
1272.642, 15731.00
1273.716, 15696.00
1274.790, 15647.00
1275.864, 15791.00
1276.938, 15684.00
1278.012, 15664.00
1279.085, 15695.00
1280.159, 15460.00
1281.232, 15572.00
1282.305, 15525.00
1283.378, 15571.00
1284.451, 15516.00
1285.524, 15664.00
1286.597, 15610.00
1287.669, 15589.00
1288.741, 15509.00
1289.813, 15690.00
1290.885, 15683.00
1291.957, 15709.00
1293.029, 15606.00
1294.101, 15844.00
1295.172, 15700.00
1296.243, 15798.00
1297.315, 15611.00
1298.386, 15747.00
1299.456, 15724.00
1300.527, 15641.00
1301.598, 15701.00
1302.668, 15856.00
1303.738, 15874.31
1304.809, 15866.00
1305.879, 16028.00
1306.948, 15965.00
1308.018, 15947.00
1309.088, 16011.00
1310.157, 16026.00
1311.226, 16233.00
1312.296, 15966.00
1313.365, 16144.00
1314.433, 16148.00
1315.502, 16021.00
1316.571, 16340.00
1317.639, 16214.00
1318.707, 16253.00
1319.776, 16189.00
1320.844, 16118.00
1321.911, 16261.00
1322.979, 16143.00
1324.047, 16066.00
1325.114, 15979.00
1326.181, 15898.16
1327.249, 15893.00
1328.316, 15757.00
1329.382, 15736.00
1330.449, 15673.00
1331.516, 15575.97
1332.582, 15551.00
1333.648, 15453.00
1334.715, 15567.00
1335.781, 15618.00
1336.846, 15572.00
1337.912, 15625.00
1338.978, 15459.00
1340.043, 15498.00
1341.108, 15490.00
1342.174, 15489.00
1343.239, 15440.00
1344.303, 15627.00
1345.368, 15641.00
1346.433, 15682.00
1347.497, 15616.00
1348.561, 15684.00
1349.626, 15620.00
1350.690, 15660.00
1351.753, 15575.00
1352.817, 15502.00
1353.881, 15609.00
1354.944, 15621.00
1356.007, 15486.00
1357.071, 15445.00
1358.134, 15468.00
1359.196, 15496.00
1360.259, 15361.00
1361.322, 15583.00
1362.384, 15438.00
1363.447, 15634.00
1364.509, 15581.00
1365.571, 15567.00
1366.633, 15669.00
1367.694, 15531.00
1368.756, 15495.00
1369.817, 15744.00
1370.879, 15714.00
1371.940, 15507.00
1373.001, 15728.00
1374.062, 15721.00
1375.122, 15809.00
1376.183, 15936.00
1377.244, 15928.00
1378.304, 15843.00
1379.364, 15960.00
1380.424, 15851.00
1381.484, 15941.00
1382.544, 15767.00
1383.603, 15964.00
1384.663, 15882.00
1385.722, 15936.00
1386.781, 15807.00
1387.840, 15835.00
1388.899, 15861.00
1389.958, 15916.00
1391.017, 15834.00
1392.075, 15859.26
1393.134, 15886.00
1394.192, 15803.00
1395.250, 15736.00
1396.308, 15667.00
1397.365, 15864.00
1398.423, 15634.00
1399.481, 15937.00
1400.538, 15744.00
1401.595, 15928.00
1402.652, 15807.00
1403.709, 15893.00
1404.766, 15988.00
1405.823, 15971.00
1406.879, 15854.00
1407.936, 15885.00
1408.992, 15830.00
1410.048, 15903.00
1411.104, 15904.00
1412.160, 15751.00
1413.215, 15912.00
1414.271, 15693.00
1415.326, 15784.00
1416.382, 15870.00
1417.437, 15746.00
1418.492, 15920.00
1419.546, 15836.00
1420.601, 15883.00
1421.656, 15840.00
1422.710, 15890.00
1423.764, 15913.00
1424.819, 15953.00
1425.873, 15849.00
1426.926, 15954.00
1427.980, 15912.00
1429.034, 16030.00
1430.087, 16005.00
1431.140, 16070.00
1432.194, 16196.00
1433.247, 16251.00
1434.299, 16354.00
1435.352, 16436.00
1436.405, 16462.00
1437.457, 16553.00
1438.510, 16666.00
1439.562, 16711.00
1440.614, 16792.00
1441.666, 16912.00
1442.717, 16943.00
1443.769, 17120.00
1444.821, 17255.00
1445.872, 17300.00
1446.923, 17246.00
1447.974, 17582.00
1449.025, 17429.00
1450.076, 17482.00
1451.127, 17704.00
1452.177, 17649.00
1453.227, 17582.00
1454.278, 17720.00
1455.328, 17759.00
1456.378, 17688.00
1457.428, 17602.00
1458.477, 17691.00
1459.527, 17433.00
1460.576, 17440.00
1461.625, 17250.00
1462.675, 17294.00
1463.724, 17299.00
1464.772, 17152.00
1465.821, 17058.00
1466.870, 17028.00
1467.918, 16913.09
1468.966, 16856.00
1470.015, 16776.00
1471.063, 16709.00
1472.110, 16674.00
1473.158, 16675.00
1474.206, 16523.00
1475.253, 16513.00
1476.301, 16424.00
1477.348, 16613.00
1478.395, 16549.00
1479.442, 16614.00
1480.488, 16383.00
1481.535, 16399.00
1482.582, 16288.00
1483.628, 16290.00
1484.674, 16423.00
1485.720, 16435.00
1486.766, 16457.00
1487.812, 16152.00
1488.858, 16124.00
1489.903, 16117.00
1490.949, 16247.00
1491.994, 16072.00
1493.039, 16050.00
1494.084, 15915.00
1495.129, 16112.00
1496.173, 15925.00
1497.218, 16111.00
1498.262, 16211.00
1499.307, 15978.00
1500.351, 16025.00
1501.395, 15922.00
1502.439, 16044.00
1503.483, 15969.00
1504.526, 16050.00
1505.570, 16119.00
1506.613, 16006.00
1507.656, 15968.00
1508.699, 16027.00
1509.742, 15978.00
1510.785, 15997.63
1511.827, 16004.00
1512.870, 16047.00
1513.912, 16003.00
1514.955, 16099.00
1515.997, 16253.00
1517.039, 16107.00
1518.080, 16264.00
1519.122, 16144.00
1520.164, 16176.00
1521.205, 16142.00
1522.246, 16104.00
1523.288, 16131.00
1524.329, 16145.47
1525.369, 16212.00
1526.410, 16241.00
1527.451, 16266.00
1528.491, 16329.00
1529.531, 16369.00
1530.572, 16242.00
1531.612, 16254.00
1532.652, 16325.00
1533.691, 16265.00
1534.731, 16465.00
1535.770, 16319.00
1536.810, 16514.00
1537.849, 16352.00
1538.888, 16493.00
1539.927, 16497.00
1540.966, 16350.00
1542.005, 16239.00
1543.043, 16428.00
1544.082, 16419.00
1545.120, 16414.00
1546.158, 16436.00
1547.196, 16597.00
1548.234, 16334.00
1549.272, 16627.00
1550.309, 16421.00
1551.347, 16480.00
1552.384, 16536.00
1553.421, 16523.00
1554.458, 16472.00
1555.495, 16392.00
1556.532, 16413.00
1557.568, 16356.97
1558.605, 16439.00
1559.641, 16333.00
1560.678, 16261.00
1561.714, 16302.00
1562.750, 16490.00
1563.785, 16444.00
1564.821, 16472.00
##END=



