##NAMES=Dolomite
##RRUFFID=R050357
##IDEAL CHEMISTRY=CaMg(CO_3_)_2_
##LOCALITY=Black Rock, Lawrence County, Arkansas, USA
##OWNER=RRUFF
##SOURCE=California Institute of Technology
##DESCRIPTION=Aggregate of pale pink curved saddle-shaped crystals
##STATUS=The identification of this mineral has been confirmed by X-ray diffraction and chemical analysis
##URL=rruff.info/R050357
##MEASURED CHEMISTRY=Ca_1.00_(Mg_0.98_Fe^2+^_0.02_)_Î£=1_(CO_3_)_2_ ; CO_2_ estimated by difference
##PIN_ID=L01901
##ORIENTATION=Laser parallel to a* (1 0 0). Fiducial mark perpendicular to laser is parallel to c [0 0 1]
109.5120, 4423.000
110.7440, 4265.000
111.9760, 4157.000
113.2080, 4162.000
114.4400, 4233.000
115.6710, 4252.000
116.9030, 4297.000
118.1340, 4363.000
119.3650, 4336.000
120.5960, 4280.000
121.8270, 4353.000
123.0580, 4383.000
124.2880, 4341.000
125.5190, 4424.000
126.7490, 4427.000
127.9790, 4466.000
129.2090, 4528.000
130.4390, 4605.000
131.6680, 4531.000
132.8980, 4552.000
134.1270, 4607.000
135.3560, 4571.000
136.5850, 4637.000
137.8140, 4743.000
139.0430, 4729.000
140.2710, 4766.000
141.5000, 4753.000
142.7280, 4815.000
143.9560, 4885.000
145.1840, 4824.000
146.4120, 4877.000
147.6390, 4854.000
148.8670, 4868.000
150.0940, 4980.000
151.3210, 5000.000
152.5490, 5098.000
153.7750, 5202.000
155.0020, 5191.000
156.2290, 5360.000
157.4550, 5284.000
158.6810, 5382.000
159.9080, 5628.000
161.1340, 5934.000
162.3590, 6101.000
163.5850, 6455.000
164.8110, 7007.000
166.0360, 7772.000
167.2610, 8445.000
168.4860, 9218.000
169.7110, 10038.00
170.9360, 11154.00
172.1610, 12750.00
173.3850, 14610.00
174.6100, 16259.00
175.8340, 17145.00
177.0580, 16417.00
178.2820, 14932.00
179.5050, 12848.00
180.7290, 10912.00
181.9520, 9122.000
183.1760, 8107.000
184.3990, 7170.000
185.6220, 6653.000
186.8450, 6267.000
188.0670, 5860.000
189.2900, 5847.000
190.5120, 5695.000
191.7340, 5568.000
192.9560, 5548.000
194.1780, 5466.000
195.4000, 5370.000
196.6220, 5336.000
197.8430, 5266.000
199.0640, 5416.000
200.2860, 5289.000
201.5070, 5378.000
202.7270, 5324.000
203.9480, 5207.000
205.1690, 5271.000
206.3890, 5283.000
207.6090, 5239.000
208.8290, 5324.000
210.0490, 5316.000
211.2690, 5344.000
212.4890, 5404.466
213.7080, 5367.000
214.9280, 5479.000
216.1470, 5643.000
217.3660, 5629.000
218.5850, 5782.000
219.8030, 5970.000
221.0220, 6110.000
222.2400, 6379.000
223.4590, 6707.000
224.6770, 6805.318
225.8950, 6848.128
227.1120, 6971.000
228.3300, 6693.000
229.5480, 6489.000
230.7650, 6318.000
231.9820, 6132.699
233.1990, 5972.000
234.4160, 5850.000
235.6330, 5813.000
236.8490, 5701.000
238.0660, 5690.000
239.2820, 5558.000
240.4980, 5683.000
241.7140, 5546.000
242.9300, 5706.000
244.1460, 5576.000
245.3610, 5538.000
246.5770, 5576.000
247.7920, 5669.000
249.0070, 5590.000
250.2220, 5667.000
251.4370, 5644.000
252.6510, 5656.000
253.8660, 5709.000
255.0800, 5732.000
256.2940, 5596.000
257.5080, 5828.000
258.7220, 5999.000
259.9360, 5941.000
261.1490, 5834.000
262.3630, 5943.000
263.5760, 5809.000
264.7890, 5943.000
266.0020, 5968.000
267.2150, 5990.000
268.4270, 6111.000
269.6400, 6163.000
270.8520, 6237.000
272.0640, 6250.000
273.2760, 6464.000
274.4880, 6661.000
275.7000, 6656.000
276.9120, 6780.000
278.1230, 7034.000
279.3340, 7337.000
280.5450, 7544.000
281.7560, 7909.000
282.9670, 8307.000
284.1780, 9019.000
285.3880, 9531.000
286.5980, 10358.00
287.8090, 11566.00
289.0190, 12970.00
290.2290, 14361.00
291.4380, 16094.00
292.6480, 18142.00
293.8570, 20376.00
295.0670, 22529.00
296.2760, 25253.00
297.4850, 27338.00
298.6930, 28873.00
299.9020, 28715.00
301.1110, 27251.00
302.3190, 24596.00
303.5270, 21542.00
304.7350, 18706.00
305.9430, 16003.00
307.1510, 13814.00
308.3580, 12193.00
309.5660, 10949.00
310.7730, 9854.000
311.9800, 9165.000
313.1870, 8683.000
314.3940, 8219.000
315.6010, 7914.000
316.8070, 7619.000
318.0130, 7374.000
319.2200, 7149.073
320.4260, 7031.000
321.6310, 6821.000
322.8370, 6790.000
324.0430, 6769.000
325.2480, 6653.000
326.4540, 6664.000
327.6590, 6604.000
328.8640, 6574.000
330.0680, 6609.000
331.2730, 6739.000
332.4780, 6636.000
333.6820, 6836.000
334.8860, 6790.000
336.0900, 6837.000
337.2940, 6786.000
338.4980, 6720.000
339.7010, 6793.000
340.9050, 6636.000
342.1080, 6568.000
343.3110, 6588.000
344.5140, 6396.000
345.7170, 6347.000
346.9200, 6316.000
348.1220, 6300.000
349.3240, 6210.000
350.5270, 6184.000
351.7290, 6180.000
352.9310, 6191.000
354.1320, 6175.000
355.3340, 6286.000
356.5350, 6197.000
357.7370, 6154.000
358.9380, 6210.000
360.1390, 6130.000
361.3400, 6083.000
362.5400, 6111.000
363.7410, 6184.000
364.9410, 6135.000
366.1410, 6240.000
367.3410, 6285.000
368.5410, 6312.000
369.7410, 6203.000
370.9400, 6265.000
372.1400, 6246.000
373.3390, 6247.000
374.5380, 6214.000
375.7370, 6220.000
376.9360, 6189.000
378.1350, 6214.000
379.3330, 6169.000
380.5310, 6163.000
381.7300, 6212.000
382.9280, 6168.000
384.1260, 6213.000
385.3230, 6178.000
386.5210, 6216.000
387.7180, 6189.000
388.9160, 6201.139
390.1130, 6296.000
391.3100, 6220.000
392.5060, 6243.000
393.7030, 6254.805
394.9000, 6216.000
396.0960, 6314.000
397.2920, 6261.000
398.4880, 6294.000
399.6840, 6366.000
400.8800, 6212.000
402.0750, 6255.000
403.2710, 6293.000
404.4660, 6374.000
405.6610, 6380.647
406.8560, 6379.375
408.0510, 6374.000
409.2450, 6356.000
410.4400, 6263.000
411.6340, 6302.000
412.8280, 6300.000
414.0220, 6301.000
415.2160, 6333.000
416.4100, 6324.157
417.6030, 6377.000
418.7970, 6317.000
419.9900, 6309.000
421.1830, 6279.000
422.3760, 6349.000
423.5690, 6437.000
424.7610, 6307.000
425.9540, 6417.000
427.1460, 6350.000
428.3380, 6315.000
429.5300, 6369.000
430.7220, 6395.000
431.9140, 6464.000
433.1050, 6342.000
434.2970, 6488.000
435.4880, 6347.000
436.6790, 6462.000
437.8700, 6459.000
439.0610, 6477.000
440.2510, 6465.000
441.4420, 6545.000
442.6320, 6423.000
443.8220, 6506.000
445.0120, 6373.000
446.2020, 6539.000
447.3910, 6516.000
448.5810, 6467.000
449.7700, 6384.000
450.9600, 6467.000
452.1490, 6409.000
453.3370, 6600.000
454.5260, 6418.000
455.7150, 6587.000
456.9030, 6569.000
458.0910, 6614.000
459.2800, 6467.000
460.4670, 6532.000
461.6550, 6473.000
462.8430, 6547.000
464.0300, 6630.000
465.2180, 6596.000
466.4050, 6558.000
467.5920, 6540.000
468.7790, 6578.000
469.9650, 6667.000
471.1520, 6673.000
472.3380, 6685.000
473.5250, 6625.000
474.7110, 6600.000
475.8970, 6617.000
477.0820, 6677.000
478.2680, 6716.000
479.4540, 6602.000
480.6390, 6553.000
481.8240, 6670.000
483.0090, 6618.000
484.1940, 6715.000
485.3780, 6632.000
486.5630, 6667.000
487.7470, 6740.000
488.9320, 6748.000
490.1160, 6708.000
491.3000, 6627.000
492.4830, 6677.000
493.6670, 6786.000
494.8500, 6640.000
496.0340, 6613.000
497.2170, 6749.000
498.4000, 6726.000
499.5820, 6756.000
500.7650, 6706.000
501.9480, 6825.000
503.1300, 6741.000
504.3120, 6754.000
505.4940, 6810.000
506.6760, 6759.000
507.8580, 6853.000
509.0390, 6790.000
510.2210, 6715.000
511.4020, 6809.000
512.5830, 6742.000
513.7640, 6781.000
514.9450, 6912.000
516.1250, 6830.000
517.3060, 6871.000
518.4860, 6878.000
519.6660, 6957.000
520.8460, 6928.000
522.0260, 6784.000
523.2060, 6781.000
524.3850, 6774.000
525.5650, 6764.298
526.7440, 6799.488
527.9230, 6819.000
529.1020, 6893.000
530.2810, 6891.000
531.4590, 6971.000
532.6380, 6943.000
533.8160, 6942.000
534.9940, 6927.000
536.1720, 6858.000
537.3500, 7020.000
538.5270, 6941.000
539.7050, 6875.000
540.8820, 6956.000
542.0590, 6881.000
543.2360, 6939.000
544.4130, 6930.000
545.5900, 6900.000
546.7660, 6891.000
547.9430, 6950.000
549.1190, 7001.000
550.2950, 6947.000
551.4710, 6997.000
552.6470, 7010.000
553.8220, 7110.000
554.9980, 6978.000
556.1730, 7088.000
557.3480, 6967.000
558.5230, 7065.000
559.6980, 7072.000
560.8730, 7013.000
562.0470, 7051.000
563.2220, 7159.000
564.3960, 7100.000
565.5700, 7105.000
566.7440, 7015.000
567.9170, 7036.000
569.0910, 7077.000
570.2640, 7057.000
571.4380, 7030.000
572.6110, 7058.000
573.7840, 7082.000
574.9570, 7110.000
576.1290, 7185.000
577.3020, 7092.000
578.4740, 7124.000
579.6460, 7045.000
580.8180, 7086.000
581.9900, 7095.844
583.1620, 7125.000
584.3330, 7157.000
585.5040, 7156.000
586.6760, 7193.000
587.8470, 7175.000
589.0180, 7207.000
590.1880, 7178.000
591.3590, 7226.000
592.5290, 7176.000
593.7000, 7112.000
594.8700, 7240.000
596.0400, 7166.000
597.2090, 7191.000
598.3790, 7183.000
599.5490, 7250.000
600.7180, 7264.000
601.8870, 7245.000
603.0560, 7249.000
604.2250, 7204.000
605.3940, 7272.000
606.5620, 7159.000
607.7300, 7230.000
608.8990, 7247.000
610.0670, 7299.000
611.2350, 7315.000
612.4020, 7232.000
613.5700, 7305.000
614.7370, 7162.000
615.9050, 7201.000
617.0720, 7365.000
618.2390, 7281.000
619.4060, 7365.000
620.5720, 7265.000
621.7390, 7248.000
622.9050, 7279.000
624.0710, 7280.000
625.2370, 7386.000
626.4030, 7225.000
627.5690, 7276.000
628.7340, 7254.000
629.9000, 7370.000
631.0650, 7379.000
632.2300, 7376.000
633.3950, 7349.000
634.5600, 7290.000
635.7240, 7408.000
636.8890, 7348.000
638.0530, 7371.000
639.2170, 7403.000
640.3810, 7402.943
641.5450, 7400.000
642.7080, 7431.000
643.8720, 7458.000
645.0350, 7412.000
646.1980, 7360.000
647.3610, 7388.000
648.5240, 7453.000
649.6870, 7366.000
650.8490, 7485.000
652.0120, 7511.000
653.1740, 7538.000
654.3360, 7375.000
655.4980, 7490.000
656.6600, 7543.000
657.8210, 7491.000
658.9830, 7577.000
660.1440, 7405.000
661.3050, 7505.000
662.4660, 7499.000
663.6270, 7519.000
664.7870, 7550.000
665.9480, 7502.000
667.1080, 7567.000
668.2680, 7534.000
669.4280, 7534.000
670.5880, 7553.000
671.7480, 7515.000
672.9070, 7547.000
674.0670, 7566.000
675.2260, 7558.425
676.3850, 7583.000
677.5440, 7571.000
678.7030, 7556.000
679.8610, 7562.000
681.0200, 7673.000
682.1780, 7578.000
683.3360, 7560.000
684.4940, 7696.000
685.6520, 7683.000
686.8090, 7630.000
687.9670, 7585.000
689.1240, 7619.000
690.2810, 7557.000
691.4380, 7605.000
692.5950, 7612.009
693.7520, 7694.000
694.9080, 7650.000
696.0650, 7667.000
697.2210, 7662.000
698.3770, 7715.000
699.5330, 7761.000
700.6880, 7815.000
701.8440, 7830.914
702.9990, 7703.000
704.1550, 7853.000
705.3100, 7809.000
706.4650, 7808.000
707.6190, 7869.000
708.7740, 7764.000
709.9290, 7818.000
711.0830, 7833.000
712.2370, 7813.000
713.3910, 7815.000
714.5450, 7890.000
715.6980, 8011.000
716.8520, 8070.000
718.0050, 8306.000
719.1580, 8342.921
720.3110, 8276.000
721.4640, 8498.000
722.6170, 8548.000
723.7700, 8617.000
724.9220, 8654.000
726.0740, 8639.000
727.2260, 8443.000
728.3780, 8352.000
729.5300, 8287.000
730.6810, 8183.000
731.8330, 8176.000
732.9840, 8092.000
734.1350, 8112.000
735.2860, 7971.000
736.4370, 7983.000
737.5880, 7929.000
738.7380, 7903.000
739.8880, 7927.000
741.0390, 7937.000
742.1890, 7917.000
743.3380, 7865.000
744.4880, 7936.000
745.6380, 7973.000
746.7870, 7974.000
747.9360, 7903.000
749.0850, 7882.000
750.2340, 7879.082
751.3830, 8103.000
752.5310, 7943.000
753.6800, 7849.000
754.8280, 8009.000
755.9760, 7857.000
757.1240, 7904.000
758.2720, 7922.000
759.4190, 7985.000
760.5670, 7980.000
761.7140, 7910.000
762.8610, 7927.000
764.0080, 7862.000
765.1550, 7995.000
766.3020, 7998.000
767.4480, 8043.000
768.5950, 7952.000
769.7410, 8036.000
770.8870, 8026.000
772.0330, 7923.000
773.1780, 8004.000
774.3240, 8077.000
775.4690, 8018.000
776.6140, 8090.000
777.7590, 8022.000
778.9040, 8055.000
780.0490, 8088.000
781.1940, 8078.000
782.3380, 8075.054
783.4820, 8034.000
784.6260, 8044.000
785.7700, 8030.000
786.9140, 8049.000
788.0580, 8035.249
789.2010, 8031.125
790.3450, 8020.000
791.4880, 8041.000
792.6310, 8044.000
793.7730, 8106.000
794.9160, 8184.000
796.0590, 8031.000
797.2010, 8109.000
798.3430, 8149.000
799.4850, 8078.000
800.6270, 8110.000
801.7690, 8170.000
802.9100, 8252.000
804.0520, 8174.000
805.1930, 8210.000
806.3340, 8116.000
807.4750, 8223.000
808.6160, 8263.000
809.7560, 8213.000
810.8970, 8194.000
812.0370, 8205.000
813.1770, 8162.000
814.3170, 8170.000
815.4570, 8208.000
816.5960, 8229.000
817.7360, 8244.307
818.8750, 8170.000
820.0140, 8263.000
821.1530, 8241.000
822.2920, 8218.000
823.4310, 8314.000
824.5690, 8234.000
825.7070, 8380.000
826.8460, 8318.000
827.9840, 8302.000
829.1220, 8215.000
830.2590, 8276.000
831.3970, 8319.000
832.5340, 8290.000
833.6710, 8323.000
834.8080, 8253.000
835.9450, 8340.000
837.0820, 8338.000
838.2190, 8272.000
839.3550, 8240.000
840.4910, 8341.000
841.6270, 8438.000
842.7630, 8275.000
843.8990, 8387.000
845.0350, 8501.000
846.1700, 8413.000
847.3060, 8406.000
848.4410, 8388.000
849.5760, 8480.000
850.7100, 8453.000
851.8450, 8438.000
852.9800, 8385.000
854.1140, 8329.000
855.2480, 8523.000
856.3820, 8388.000
857.5160, 8590.000
858.6500, 8530.000
859.7830, 8496.000
860.9170, 8429.000
862.0500, 8413.000
863.1830, 8416.021
864.3160, 8460.000
865.4480, 8460.000
866.5810, 8426.000
867.7130, 8453.000
868.8460, 8443.000
869.9780, 8430.000
871.1100, 8593.000
872.2410, 8474.000
873.3730, 8683.000
874.5050, 8650.000
875.6360, 8666.000
876.7670, 8791.000
877.8980, 8829.000
879.0290, 9012.000
880.1590, 9113.000
881.2900, 9256.000
882.4200, 9168.000
883.5500, 9004.000
884.6800, 8924.000
885.8100, 8766.000
886.9400, 8736.000
888.0690, 8592.000
889.1990, 8742.000
890.3280, 8622.000
891.4570, 8659.000
892.5860, 8629.000
893.7140, 8620.000
894.8430, 8752.000
895.9710, 8589.000
897.1000, 8481.000
898.2280, 8696.000
899.3560, 8683.000
900.4830, 8638.000
901.6110, 8688.000
902.7380, 8649.000
903.8660, 8665.222
904.9930, 8646.000
906.1200, 8676.000
907.2460, 8690.000
908.3730, 8673.000
909.5000, 8846.000
910.6260, 8687.000
911.7520, 8810.000
912.8780, 8723.000
914.0040, 8743.000
915.1290, 8775.000
916.2550, 8662.000
917.3800, 8761.000
918.5050, 8801.000
919.6300, 8853.000
920.7550, 8868.414
921.8800, 8651.000
923.0040, 8815.000
924.1290, 8819.000
925.2530, 8691.000
926.3770, 8829.000
927.5010, 8827.000
928.6250, 8852.000
929.7480, 8872.000
930.8720, 8804.000
931.9950, 8887.000
933.1180, 8783.000
934.2410, 8827.000
935.3640, 8795.000
936.4860, 8878.000
937.6090, 8906.000
938.7310, 8983.000
939.8530, 8886.000
940.9750, 8880.000
942.0970, 8916.000
943.2180, 8905.000
944.3400, 8872.000
945.4610, 8890.000
946.5820, 8862.225
947.7030, 8867.388
948.8240, 8837.000
949.9450, 8880.000
951.0650, 8885.000
952.1860, 8903.000
953.3060, 8912.172
954.4260, 8919.725
955.5460, 8931.000
956.6650, 8935.000
957.7850, 8977.000
958.9040, 8989.000
960.0230, 9031.000
961.1420, 9054.694
962.2610, 9054.394
963.3800, 9085.000
964.4990, 9058.000
965.6170, 9021.000
966.7350, 9038.000
967.8530, 9019.000
968.9710, 9144.000
970.0890, 9258.000
971.2070, 9127.000
972.3240, 9044.000
973.4410, 9159.000
974.5580, 9154.000
975.6750, 9072.000
976.7920, 9039.000
977.9090, 9138.000
979.0250, 9151.000
980.1410, 9182.000
981.2580, 9061.000
982.3740, 9252.000
983.4890, 9143.000
984.6050, 9088.000
985.7200, 9150.000
986.8360, 9298.000
987.9510, 9184.000
989.0660, 9157.000
990.1810, 9182.000
991.2950, 9076.000
992.4100, 9250.000
993.5240, 9292.000
994.6390, 9255.000
995.7530, 9258.000
996.8660, 9263.000
997.9800, 9324.000
999.0940, 9309.000
1000.207, 9323.000
1001.320, 9296.000
1002.433, 9286.000
1003.546, 9348.000
1004.659, 9300.000
1005.772, 9289.000
1006.884, 9448.000
1007.996, 9364.000
1009.108, 9354.000
1010.220, 9365.000
1011.332, 9295.000
1012.444, 9422.000
1013.555, 9383.000
1014.666, 9426.000
1015.777, 9334.000
1016.888, 9312.000
1017.999, 9378.000
1019.110, 9453.000
1020.220, 9548.000
1021.331, 9471.000
1022.441, 9467.000
1023.551, 9463.000
1024.661, 9459.653
1025.770, 9541.000
1026.880, 9518.000
1027.989, 9600.000
1029.098, 9669.000
1030.207, 9662.513
1031.316, 9446.000
1032.425, 9653.000
1033.533, 9650.000
1034.642, 9570.000
1035.750, 9731.000
1036.858, 9701.000
1037.966, 9606.000
1039.073, 9666.000
1040.181, 9637.000
1041.288, 9795.000
1042.396, 9776.000
1043.503, 9726.000
1044.610, 9666.000
1045.716, 9727.000
1046.823, 9833.000
1047.929, 9692.000
1049.036, 9929.000
1050.142, 9701.000
1051.248, 9790.000
1052.353, 9997.000
1053.459, 9869.000
1054.564, 9778.000
1055.670, 9918.000
1056.775, 9897.000
1057.880, 10065.00
1058.985, 10132.00
1060.089, 10157.00
1061.194, 10290.00
1062.298, 10378.00
1063.402, 10413.00
1064.506, 10509.00
1065.610, 10660.00
1066.713, 10780.00
1067.817, 10894.00
1068.920, 10987.00
1070.023, 11146.95
1071.126, 11322.00
1072.229, 11454.00
1073.332, 11658.00
1074.435, 11805.00
1075.537, 12050.00
1076.639, 12184.00
1077.741, 12416.00
1078.843, 12471.00
1079.945, 12536.00
1081.046, 12896.00
1082.148, 13122.00
1083.249, 13555.00
1084.350, 14016.00
1085.451, 14651.00
1086.551, 15590.00
1087.652, 16701.00
1088.752, 18660.00
1089.853, 21067.00
1090.953, 24821.00
1092.053, 29861.00
1093.152, 36289.00
1094.252, 43855.00
1095.351, 52103.00
1096.451, 59328.00
1097.550, 62495.00
1098.649, 59115.00
1099.748, 50493.00
1100.846, 39964.00
1101.945, 31376.00
1103.043, 24424.00
1104.141, 19912.00
1105.239, 16743.00
1106.337, 14863.00
1107.434, 13544.00
1108.532, 12812.00
1109.629, 12108.00
1110.726, 11627.00
1111.823, 11273.00
1112.920, 10965.00
1114.017, 10749.00
1115.113, 10876.00
1116.210, 10736.00
1117.306, 10656.00
1118.402, 10533.00
1119.498, 10623.00
1120.593, 10629.00
1121.689, 10465.00
1122.784, 10497.00
1123.879, 10374.00
1124.974, 10351.00
1126.069, 10260.00
1127.164, 10188.00
1128.259, 10077.00
1129.353, 10135.00
1130.447, 10061.00
1131.541, 10167.00
1132.635, 10115.00
1133.729, 10179.00
1134.822, 10130.00
1135.916, 10125.39
1137.009, 10057.00
1138.102, 10074.00
1139.195, 10062.00
1140.288, 9997.000
1141.380, 10093.00
1142.473, 10015.00
1143.565, 10020.00
1144.657, 10063.00
1145.749, 10072.00
1146.841, 10067.00
1147.932, 9987.000
1149.024, 10091.00
1150.115, 10049.00
1151.206, 10140.00
1152.297, 10042.00
1153.388, 10073.00
1154.479, 10087.00
1155.569, 10098.00
1156.659, 10023.00
1157.750, 10150.00
1158.839, 10034.00
1159.929, 10071.00
1161.019, 10188.00
1162.108, 10075.00
1163.198, 9957.000
1164.287, 10150.00
1165.376, 10071.00
1166.465, 10083.00
1167.553, 10178.00
1168.642, 10090.00
1169.730, 10076.00
1170.818, 10168.00
1171.906, 10081.00
1172.994, 10113.00
1174.082, 10184.00
1175.170, 10132.00
1176.257, 10299.00
1177.344, 10078.00
1178.431, 10223.00
1179.518, 10132.00
1180.605, 10095.00
1181.691, 10135.00
1182.778, 10253.00
1183.864, 10170.00
1184.950, 10322.00
1186.036, 10297.00
1187.122, 10262.00
1188.207, 10332.04
1189.292, 10307.40
1190.378, 10364.00
1191.463, 10319.00
1192.548, 10315.00
1193.632, 10292.00
1194.717, 10272.00
1195.801, 10301.00
1196.886, 10270.00
1197.970, 10335.00
1199.054, 10319.09
1200.137, 10397.00
1201.221, 10318.00
1202.305, 10431.00
1203.388, 10431.00
1204.471, 10391.00
1205.554, 10425.00
1206.637, 10375.00
1207.719, 10310.00
1208.802, 10506.00
1209.884, 10359.00
1210.966, 10372.00
1212.048, 10470.00
1213.130, 10304.00
1214.212, 10339.00
1215.293, 10241.00
1216.374, 10376.00
1217.456, 10391.00
1218.536, 10445.00
1219.617, 10440.00
1220.698, 10464.00
1221.778, 10440.00
1222.859, 10442.87
1223.939, 10397.00
1225.019, 10443.00
1226.099, 10374.00
1227.178, 10403.00
1228.258, 10389.00
1229.337, 10397.44
1230.417, 10487.00
1231.496, 10438.00
1232.574, 10551.00
1233.653, 10569.00
1234.732, 10483.00
1235.810, 10524.00
1236.888, 10434.00
1237.966, 10429.00
1239.044, 10488.00
1240.122, 10453.00
1241.199, 10559.00
1242.277, 10660.00
1243.354, 10601.00
1244.431, 10610.00
1245.508, 10555.00
1246.585, 10627.00
1247.661, 10472.00
1248.738, 10595.00
1249.814, 10562.00
1250.890, 10655.00
1251.966, 10654.00
1253.042, 10556.00
1254.117, 10573.00
1255.193, 10589.00
1256.268, 10536.00
1257.343, 10697.00
1258.418, 10631.00
1259.493, 10632.00
1260.567, 10666.00
1261.642, 10559.00
1262.716, 10630.00
1263.790, 10700.00
1264.864, 10677.00
1265.938, 10776.00
1267.011, 10808.00
1268.085, 10694.00
1269.158, 10573.00
1270.231, 10719.00
1271.304, 10783.00
1272.377, 10749.00
1273.450, 10717.00
1274.522, 10717.00
1275.594, 10692.00
1276.666, 10688.00
1277.738, 10782.00
1278.810, 10729.00
1279.882, 10851.00
1280.953, 10853.00
1282.025, 10765.00
1283.096, 10827.00
1284.167, 10848.00
1285.238, 10860.00
1286.308, 10846.00
1287.379, 10792.00
1288.449, 10779.00
1289.519, 10780.00
1290.589, 10774.48
1291.659, 10807.84
1292.729, 10821.00
1293.798, 10862.00
1294.868, 10926.00
1295.937, 10901.00
1297.006, 10745.00
1298.075, 10898.00
1299.143, 10823.00
1300.212, 10962.00
1301.280, 10953.00
1302.348, 10819.00
1303.416, 10875.00
1304.484, 10855.00
1305.552, 10924.00
1306.620, 10908.00
1307.687, 10960.00
1308.754, 10951.00
1309.821, 11018.00
1310.888, 11025.00
1311.955, 11023.15
1313.021, 10972.00
1314.088, 11010.00
1315.154, 10990.00
1316.220, 10986.00
1317.286, 11000.46
1318.352, 10941.00
1319.417, 11004.00
1320.483, 11019.00
1321.548, 11006.00
1322.613, 11131.00
1323.678, 11122.00
1324.743, 11101.00
1325.807, 11112.00
1326.872, 11115.00
1327.936, 11111.62
1329.000, 11161.00
1330.064, 11125.00
1331.128, 11097.00
1332.191, 11119.00
1333.255, 11168.00
1334.318, 11105.00
1335.381, 11267.00
1336.444, 11188.00
1337.507, 11187.00
1338.569, 11090.00
1339.632, 11079.55
1340.694, 11303.00
1341.756, 11079.00
1342.818, 11174.00
1343.880, 11273.00
1344.941, 11222.00
1346.003, 11214.00
1347.064, 11249.00
1348.125, 11226.00
1349.186, 11261.00
1350.247, 11150.00
1351.308, 11250.00
1352.368, 11211.00
1353.428, 11252.00
1354.489, 11329.00
1355.549, 11299.00
1356.608, 11309.00
1357.668, 11396.00
1358.727, 11261.00
1359.787, 11408.00
1360.846, 11279.00
1361.905, 11241.00
1362.964, 11305.00
1364.022, 11381.00
1365.081, 11389.00
1366.139, 11465.00
1367.197, 11359.00
1368.255, 11465.00
1369.313, 11349.00
1370.371, 11379.00
1371.428, 11411.00
1372.486, 11400.00
1373.543, 11380.00
1374.600, 11461.00
1375.657, 11439.00
1376.713, 11385.00
1377.770, 11531.00
1378.826, 11399.00
1379.882, 11313.00
1380.938, 11473.00
1381.994, 11382.00
1383.050, 11549.00
1384.106, 11446.00
1385.161, 11581.00
1386.216, 11553.00
1387.271, 11432.00
1388.326, 11571.00
1389.381, 11393.00
1390.435, 11697.00
1391.490, 11599.00
1392.544, 11554.00
1393.598, 11550.00
1394.652, 11500.00
1395.705, 11485.00
1396.759, 11504.00
1397.812, 11519.00
1398.866, 11604.00
1399.919, 11605.72
1400.972, 11639.85
1402.024, 11654.00
1403.077, 11672.00
1404.129, 11693.53
1405.181, 11692.00
1406.233, 11707.00
1407.285, 11758.00
1408.337, 11736.10
1409.389, 11659.00
1410.440, 11707.00
1411.491, 11732.00
1412.542, 11691.00
1413.593, 11801.00
1414.644, 11641.00
1415.695, 11630.00
1416.745, 11764.00
1417.795, 11784.00
1418.845, 11790.00
1419.895, 11757.00
1420.945, 11841.00
1421.995, 11874.00
1423.044, 11786.00
1424.093, 11820.00
1425.142, 11818.13
1426.191, 11823.36
1427.240, 11837.00
1428.289, 11904.00
1429.337, 11899.00
1430.385, 11985.00
1431.433, 12203.00
1432.481, 12131.00
1433.529, 12319.00
1434.577, 12285.00
1435.624, 12402.00
1436.672, 12764.00
1437.719, 12923.00
1438.766, 13218.00
1439.812, 13441.00
1440.859, 13481.00
1441.905, 13668.00
1442.952, 13404.00
1443.998, 13113.00
1445.044, 12808.00
1446.090, 12633.00
1447.135, 12372.00
1448.181, 12408.00
1449.226, 12329.00
1450.271, 12227.00
1451.316, 12242.00
1452.361, 12214.00
1453.405, 12188.00
1454.450, 12176.00
1455.494, 12257.00
1456.538, 12227.00
1457.582, 12247.89
1458.626, 12231.00
1459.670, 12240.00
1460.713, 12120.00
1461.757, 12075.00
1462.800, 12037.00
1463.843, 12055.00
1464.886, 11936.00
1465.928, 12027.00
1466.971, 12060.00
1468.013, 12119.00
1469.055, 12048.00
1470.097, 12118.00
1471.139, 12059.00
1472.181, 12066.00
1473.222, 12188.00
1474.263, 12168.00
1475.305, 12153.00
1476.346, 12205.00
1477.386, 12222.00
1478.427, 12218.18
1479.468, 12246.00
1480.508, 12207.00
1481.548, 12148.00
1482.588, 12120.00
1483.628, 12275.00
1484.668, 12159.00
1485.707, 12177.00
1486.747, 12218.00
1487.786, 12115.00
1488.825, 12378.00
1489.864, 12243.00
1490.902, 12419.00
1491.941, 12285.00
1492.979, 12180.00
1494.017, 12336.00
1495.055, 12270.00
1496.093, 12173.00
1497.131, 12353.00
1498.168, 12278.00
1499.206, 12300.00
1500.243, 12278.00
1501.280, 12346.00
1502.317, 12383.00
1503.354, 12288.00
1504.390, 12462.00
1505.426, 12400.00
1506.463, 12310.00
1507.499, 12423.00
1508.535, 12457.00
1509.570, 12328.00
1510.606, 12397.00
1511.641, 12376.00
1512.676, 12402.00
1513.711, 12489.00
1514.746, 12530.00
1515.781, 12526.00
1516.816, 12522.00
1517.850, 12405.00
1518.884, 12279.00
1519.918, 12569.00
1520.952, 12457.00
1521.986, 12548.00
1523.019, 12542.00
1524.053, 12506.00
1525.086, 12558.00
1526.119, 12448.00
1527.152, 12517.00
1528.185, 12528.00
1529.217, 12573.00
1530.250, 12577.00
1531.282, 12610.00
1532.314, 12641.00
1533.346, 12614.00
1534.377, 12595.00
1535.409, 12637.00
1536.440, 12708.00
1537.472, 12536.00
1538.503, 12670.00
1539.534, 12747.00
1540.564, 12601.00
1541.595, 12662.00
1542.625, 12539.00
1543.656, 12614.00
1544.686, 12763.00
1545.716, 12646.00
1546.745, 12717.00
1547.775, 12706.00
1548.804, 12759.00
1549.834, 12760.00
1550.863, 12763.81
1551.892, 12770.67
1552.920, 12761.00
1553.949, 12738.00
1554.977, 12730.00
1556.006, 12681.00
1557.034, 12737.00
1558.062, 12816.00
1559.089, 12908.00
1560.117, 12863.36
1561.144, 12768.00
1562.172, 12819.00
1563.199, 12753.00
1564.226, 12839.00
1565.252, 12826.97
1566.279, 12916.00
1567.305, 12855.00
1568.332, 12827.00
1569.358, 12846.00
1570.384, 12778.00
1571.409, 12912.00
1572.435, 13053.00
##END=



