##NAMES=Dolomite
##RRUFFID=R050357
##IDEAL CHEMISTRY=CaMg(CO_3_)_2_
##LOCALITY=Black Rock, Lawrence County, Arkansas, USA
##OWNER=RRUFF
##SOURCE=California Institute of Technology
##DESCRIPTION=Aggregate of pale pink curved saddle-shaped crystals
##STATUS=The identification of this mineral has been confirmed by X-ray diffraction and chemical analysis
##URL=rruff.info/R050357
##MEASURED CHEMISTRY=Ca_1.00_(Mg_0.98_Fe^2+^_0.02_)_Î£=1_(CO_3_)_2_ ; CO_2_ estimated by difference
##PIN_ID=L00736
##ORIENTATION=Laser parallel to c* (0 0 1). Fiducial mark perpendicular to laser is parallel to a [1 0 0]
80.76000, 650.0000
82.00000, 663.0000
83.24000, 701.0000
84.48000, 745.0000
85.72000, 687.0000
86.95900, 673.0000
88.19900, 663.0000
89.43800, 718.0000
90.67700, 712.0000
91.91600, 748.0000
93.15400, 725.0000
94.39300, 760.0000
95.63100, 720.0000
96.86900, 735.0000
98.10700, 704.0000
99.34500, 748.0000
100.5820, 747.0000
101.8200, 737.0000
103.0570, 738.0000
104.2940, 708.0000
105.5310, 726.0000
106.7680, 795.0000
108.0040, 761.0000
109.2410, 754.0000
110.4770, 734.0000
111.7130, 715.0000
112.9490, 765.0000
114.1850, 775.0000
115.4200, 794.0000
116.6560, 792.8965
117.8910, 755.0000
119.1260, 764.0000
120.3610, 784.0000
121.5960, 764.0000
122.8300, 787.0000
124.0640, 778.0000
125.2990, 705.0000
126.5330, 737.0000
127.7670, 699.0000
129.0000, 741.0000
130.2340, 700.0000
131.4670, 715.0000
132.7000, 760.0000
133.9330, 746.0000
135.1660, 708.0000
136.3990, 735.0000
137.6310, 703.0000
138.8640, 771.0000
140.0960, 753.0000
141.3280, 731.0000
142.5600, 728.0000
143.7910, 730.0000
145.0230, 731.0000
146.2540, 737.0000
147.4850, 757.0000
148.7160, 766.0000
149.9470, 764.0000
151.1780, 798.0000
152.4080, 816.0000
153.6380, 798.0000
154.8690, 796.0000
156.0980, 832.0000
157.3280, 838.0000
158.5580, 845.0000
159.7870, 886.0000
161.0170, 878.0000
162.2460, 929.0000
163.4750, 981.0000
164.7030, 1070.000
165.9320, 1153.000
167.1600, 1240.000
168.3890, 1373.000
169.6170, 1616.000
170.8450, 1964.000
172.0730, 2451.000
173.3000, 2994.000
174.5280, 3608.000
175.7550, 4253.000
176.9820, 4484.000
178.2090, 4471.000
179.4350, 3835.000
180.6620, 3149.000
181.8880, 2418.000
183.1150, 1870.000
184.3410, 1526.000
185.5670, 1299.000
186.7920, 1061.000
188.0180, 1023.000
189.2430, 944.0000
190.4690, 850.0000
191.6940, 878.0000
192.9180, 797.0000
194.1430, 820.0000
195.3680, 836.0000
196.5920, 824.0000
197.8160, 823.2704
199.0400, 800.0000
200.2640, 798.0000
201.4880, 761.0000
202.7110, 759.0000
203.9350, 764.0000
205.1580, 713.0000
206.3810, 724.0000
207.6040, 706.0000
208.8270, 698.0000
210.0490, 718.0000
211.2710, 745.0000
212.4940, 739.0000
213.7160, 726.0000
214.9370, 739.0000
216.1590, 724.0000
217.3810, 720.0000
218.6020, 718.0000
219.8230, 712.0000
221.0440, 733.0000
222.2650, 732.0000
223.4860, 729.0000
224.7060, 737.0000
225.9260, 765.0000
227.1470, 723.0000
228.3670, 734.0000
229.5860, 751.0000
230.8060, 729.0000
232.0260, 706.0000
233.2450, 714.0000
234.4640, 707.0000
235.6830, 722.0000
236.9020, 738.0000
238.1200, 692.0000
239.3390, 720.0000
240.5570, 736.0000
241.7750, 728.0000
242.9930, 752.0000
244.2110, 727.0000
245.4290, 703.0000
246.6460, 731.0000
247.8630, 718.0000
249.0810, 726.0000
250.2980, 743.0000
251.5140, 730.0000
252.7310, 688.0000
253.9470, 722.0000
255.1640, 717.0000
256.3800, 753.0000
257.5960, 730.0000
258.8120, 740.0000
260.0270, 730.0000
261.2430, 751.0000
262.4580, 771.0000
263.6730, 747.0000
264.8880, 732.0000
266.1030, 746.0000
267.3170, 741.2431
268.5320, 749.9621
269.7460, 777.0000
270.9600, 770.0000
272.1740, 819.0000
273.3880, 829.0000
274.6010, 832.0000
275.8150, 807.0000
277.0280, 852.0000
278.2410, 836.0000
279.4540, 848.0000
280.6670, 919.0000
281.8790, 940.0000
283.0920, 968.0000
284.3040, 1027.000
285.5160, 1037.000
286.7280, 1116.000
287.9400, 1168.000
289.1510, 1260.000
290.3630, 1374.000
291.5740, 1509.473
292.7850, 1685.540
293.9960, 1871.000
295.2070, 2126.000
296.4170, 2393.000
297.6280, 2709.000
298.8380, 2948.000
300.0480, 3076.000
301.2580, 3038.000
302.4680, 2896.000
303.6770, 2632.000
304.8870, 2269.000
306.0960, 1973.000
307.3050, 1739.000
308.5140, 1508.000
309.7230, 1323.000
310.9310, 1242.000
312.1400, 1154.000
313.3480, 1074.000
314.5560, 1017.000
315.7640, 954.0000
316.9720, 964.0000
318.1790, 939.0000
319.3870, 934.0000
320.5940, 873.0000
321.8010, 877.0000
323.0080, 864.0000
324.2150, 876.0000
325.4210, 866.0000
326.6280, 871.0000
327.8340, 866.0000
329.0400, 855.0000
330.2460, 911.0000
331.4510, 949.0000
332.6570, 990.4066
333.8620, 999.0000
335.0680, 1119.000
336.2730, 1161.000
337.4780, 1263.000
338.6820, 1318.000
339.8870, 1345.000
341.0910, 1294.000
342.2950, 1236.000
343.5000, 1099.000
344.7030, 1038.000
345.9070, 942.0000
347.1110, 924.0000
348.3140, 927.0000
349.5170, 878.0000
350.7200, 867.0000
351.9230, 830.0000
353.1260, 816.8909
354.3290, 861.0000
355.5310, 803.0000
356.7330, 798.0000
357.9350, 806.0000
359.1370, 769.0000
360.3390, 824.0000
361.5400, 780.0000
362.7420, 805.0000
363.9430, 787.0000
365.1440, 793.0000
366.3450, 822.0000
367.5460, 827.0000
368.7460, 775.0000
369.9470, 782.0000
371.1470, 773.0000
372.3470, 790.0000
373.5470, 780.0000
374.7460, 805.0000
375.9460, 802.0000
377.1450, 809.0000
378.3450, 780.0000
379.5440, 779.0000
380.7430, 792.0000
381.9410, 805.0000
383.1400, 776.0000
384.3380, 814.0000
385.5370, 785.0000
386.7350, 777.0000
387.9320, 806.0000
389.1300, 776.0000
390.3280, 747.0000
391.5250, 779.0000
392.7220, 806.0000
393.9190, 837.0000
395.1160, 800.0000
396.3130, 794.0000
397.5100, 783.0000
398.7060, 795.0000
399.9020, 805.0000
401.0980, 800.0000
402.2940, 806.0000
403.4900, 825.0000
404.6860, 781.0000
405.8810, 809.0000
407.0760, 783.0000
408.2710, 805.0000
409.4660, 810.0000
410.6610, 783.0000
411.8550, 781.0000
413.0500, 803.0000
414.2440, 779.0000
415.4380, 790.0000
416.6320, 831.0000
417.8260, 784.0000
419.0190, 749.0000
420.2130, 782.0000
421.4060, 777.0000
422.5990, 818.0000
423.7920, 802.0000
424.9850, 811.0000
426.1770, 818.0000
427.3700, 795.0000
428.5620, 779.0000
429.7540, 833.0000
430.9460, 809.0000
432.1380, 789.0000
433.3290, 812.0000
434.5210, 788.0000
435.7120, 796.0000
436.9030, 817.0000
438.0940, 791.0000
439.2850, 806.0000
440.4750, 838.0000
441.6660, 817.0000
442.8560, 824.0000
444.0460, 808.0000
445.2360, 789.0000
446.4260, 784.0000
447.6160, 808.0000
448.8050, 795.0000
449.9940, 820.0000
451.1830, 815.0000
452.3720, 822.0000
453.5610, 815.0000
454.7500, 805.0000
455.9380, 790.0000
457.1260, 821.0000
458.3150, 835.0000
459.5020, 826.0000
460.6900, 833.0000
461.8780, 855.0000
463.0650, 838.0000
464.2530, 842.0000
465.4400, 858.0000
466.6270, 832.0000
467.8130, 840.0000
469.0000, 835.0000
470.1870, 824.0000
471.3730, 840.0000
472.5590, 817.0000
473.7450, 828.0000
474.9310, 841.0000
476.1160, 868.0000
477.3020, 852.0000
478.4870, 801.0000
479.6720, 853.0000
480.8570, 826.0000
482.0420, 886.0000
483.2270, 840.0000
484.4110, 833.0000
485.5960, 865.0000
486.7800, 908.0000
487.9640, 864.0000
489.1480, 836.0000
490.3310, 843.0000
491.5150, 850.0000
492.6980, 841.4646
493.8810, 848.1125
495.0640, 842.0000
496.2470, 850.0000
497.4300, 847.0000
498.6120, 848.0000
499.7950, 862.0000
500.9770, 832.0000
502.1590, 876.0000
503.3410, 873.0000
504.5220, 856.0000
505.7040, 856.0000
506.8850, 848.0000
508.0660, 844.6812
509.2470, 849.9788
510.4280, 849.0000
511.6090, 850.0000
512.7890, 866.0000
513.9700, 841.0000
515.1500, 877.0000
516.3300, 815.0000
517.5100, 846.0000
518.6900, 854.0000
519.8690, 888.0000
521.0490, 890.0000
522.2280, 879.0000
523.4070, 865.0000
524.5860, 856.0000
525.7640, 866.0000
526.9430, 884.0000
528.1210, 865.0000
529.3000, 892.0000
530.4780, 862.0000
531.6560, 858.0000
532.8330, 857.0000
534.0110, 900.0000
535.1880, 849.0000
536.3650, 901.0000
537.5430, 867.0000
538.7190, 886.0000
539.8960, 911.0000
541.0730, 856.0000
542.2490, 893.0000
543.4250, 873.0000
544.6020, 881.0000
545.7780, 893.0000
546.9530, 854.0000
548.1290, 847.0000
549.3040, 876.0000
550.4800, 882.0000
551.6550, 899.0000
552.8300, 890.0000
554.0040, 911.0000
555.1790, 921.0000
556.3540, 891.0000
557.5280, 895.0000
558.7020, 881.0000
559.8760, 873.6370
561.0500, 876.6892
562.2230, 874.0000
563.3970, 886.0000
564.5700, 906.0000
565.7430, 925.0000
566.9160, 921.0000
568.0890, 948.0000
569.2620, 904.0000
570.4340, 901.0000
571.6070, 901.0000
572.7790, 952.0000
573.9510, 919.0000
575.1230, 907.0000
576.2940, 914.0000
577.4660, 877.0000
578.6370, 935.0000
579.8080, 897.0000
580.9790, 897.0000
582.1500, 898.0000
583.3210, 902.0000
584.4910, 917.0000
585.6620, 952.0000
586.8320, 950.0000
588.0020, 959.0000
589.1720, 951.0000
590.3410, 953.4250
591.5110, 930.0000
592.6800, 951.0000
593.8500, 938.0000
595.0190, 935.0000
596.1880, 959.0000
597.3560, 901.0000
598.5250, 932.0000
599.6930, 932.0000
600.8620, 920.0000
602.0300, 971.0000
603.1970, 944.0000
604.3650, 953.0000
605.5330, 918.0000
606.7000, 930.0000
607.8680, 944.0000
609.0350, 944.0000
610.2020, 941.0000
611.3680, 953.0000
612.5350, 927.0000
613.7010, 928.0000
614.8680, 961.0000
616.0340, 971.0000
617.2000, 937.0000
618.3660, 944.0000
619.5310, 951.0000
620.6970, 926.0000
621.8620, 947.0000
623.0270, 987.0000
624.1920, 953.0000
625.3570, 970.0000
626.5220, 939.0000
627.6860, 976.0000
628.8500, 954.0000
630.0140, 961.0000
631.1780, 996.0000
632.3420, 946.0000
633.5060, 976.0000
634.6700, 1018.000
635.8330, 979.0000
636.9960, 946.0000
638.1590, 975.0000
639.3220, 945.0000
640.4850, 963.0000
641.6470, 946.0000
642.8100, 928.0000
643.9720, 983.0000
645.1340, 954.0000
646.2960, 974.0000
647.4570, 971.0000
648.6190, 987.0000
649.7800, 963.0000
650.9420, 942.0000
652.1030, 973.0000
653.2640, 951.9791
654.4240, 973.0000
655.5850, 954.0000
656.7450, 957.0000
657.9060, 966.0000
659.0660, 985.0000
660.2260, 955.0000
661.3850, 991.0000
662.5450, 973.0000
663.7040, 979.0000
664.8640, 980.0000
666.0230, 984.0000
667.1820, 1005.000
668.3410, 987.0000
669.4990, 959.0000
670.6580, 997.0000
671.8160, 992.0000
672.9740, 966.0000
674.1320, 984.0000
675.2900, 1021.000
676.4480, 1001.000
677.6050, 1018.000
678.7630, 1035.000
679.9200, 989.0000
681.0770, 994.0000
682.2340, 1009.000
683.3900, 1027.000
684.5470, 996.0000
685.7030, 1037.000
686.8590, 1044.000
688.0150, 1039.000
689.1710, 1085.000
690.3270, 1051.000
691.4830, 1068.000
692.6380, 1049.000
693.7930, 1111.000
694.9480, 1112.000
696.1030, 1097.000
697.2580, 1088.000
698.4130, 1134.000
699.5670, 1148.000
700.7210, 1162.196
701.8750, 1188.691
703.0290, 1191.000
704.1830, 1211.000
705.3370, 1216.000
706.4900, 1199.000
707.6430, 1251.000
708.7970, 1219.000
709.9490, 1296.000
711.1020, 1329.000
712.2550, 1388.000
713.4070, 1480.000
714.5600, 1511.000
715.7120, 1671.000
716.8640, 1763.000
718.0160, 1945.000
719.1670, 2129.000
720.3190, 2366.000
721.4700, 2637.000
722.6210, 2900.000
723.7720, 3144.000
724.9230, 3390.000
726.0740, 3448.000
727.2250, 3194.000
728.3750, 2868.000
729.5250, 2433.000
730.6750, 2138.000
731.8250, 1880.000
732.9750, 1686.000
734.1240, 1521.000
735.2740, 1426.000
736.4230, 1335.000
737.5720, 1289.000
738.7210, 1236.000
739.8700, 1214.000
741.0190, 1199.000
742.1670, 1114.000
743.3150, 1114.000
744.4630, 1089.000
745.6110, 1148.000
746.7590, 1062.000
747.9070, 1120.000
749.0540, 1145.000
750.2020, 1075.000
751.3490, 1126.000
752.4960, 1084.000
753.6430, 1083.000
754.7890, 1090.000
755.9360, 1100.000
757.0820, 1097.000
758.2280, 1099.000
759.3740, 1119.000
760.5200, 1128.000
761.6660, 1116.463
762.8120, 1061.000
763.9570, 1083.000
765.1020, 1083.000
766.2470, 1054.000
767.3920, 1068.000
768.5370, 1055.000
769.6810, 1086.000
770.8260, 1042.000
771.9700, 1110.000
773.1140, 1087.000
774.2580, 1066.000
775.4020, 1091.000
776.5460, 1087.000
777.6890, 1074.000
778.8320, 1051.000
779.9750, 1063.000
781.1180, 1065.000
782.2610, 1092.000
783.4040, 1087.000
784.5460, 1075.000
785.6890, 1064.000
786.8310, 1075.000
787.9730, 1096.000
789.1150, 1080.766
790.2560, 1053.000
791.3980, 1064.000
792.5390, 1093.000
793.6810, 1084.000
794.8220, 1044.000
795.9630, 1127.000
797.1030, 1091.000
798.2440, 1032.000
799.3840, 1122.000
800.5240, 1075.000
801.6650, 1096.000
802.8040, 1108.000
803.9440, 1108.000
805.0840, 1113.749
806.2230, 1112.944
807.3630, 1114.000
808.5020, 1108.000
809.6410, 1119.000
810.7790, 1119.000
811.9180, 1108.000
813.0570, 1119.000
814.1950, 1116.000
815.3330, 1104.000
816.4710, 1108.000
817.6090, 1141.000
818.7470, 1131.000
819.8840, 1135.000
821.0220, 1149.000
822.1590, 1093.000
823.2960, 1146.000
824.4330, 1164.000
825.5690, 1141.000
826.7060, 1112.000
827.8420, 1147.000
828.9790, 1142.000
830.1150, 1142.000
831.2510, 1135.000
832.3860, 1134.000
833.5220, 1155.000
834.6570, 1148.000
835.7930, 1148.862
836.9280, 1145.000
838.0630, 1133.000
839.1980, 1113.000
840.3320, 1090.000
841.4670, 1151.000
842.6010, 1133.000
843.7350, 1203.000
844.8690, 1165.000
846.0030, 1164.000
847.1370, 1169.000
848.2700, 1150.000
849.4040, 1135.000
850.5370, 1133.000
851.6700, 1194.000
852.8030, 1187.000
853.9360, 1199.000
855.0680, 1149.000
856.2000, 1149.000
857.3330, 1188.000
858.4650, 1161.000
859.5970, 1160.000
860.7290, 1201.000
861.8600, 1149.000
862.9920, 1169.000
864.1230, 1190.000
865.2540, 1201.000
866.3850, 1188.000
867.5160, 1206.000
868.6460, 1177.000
869.7770, 1168.000
870.9070, 1209.000
872.0370, 1207.000
873.1670, 1169.000
874.2970, 1217.000
875.4270, 1191.000
876.5570, 1207.000
877.6860, 1229.000
878.8150, 1270.000
879.9440, 1277.000
881.0730, 1362.000
882.2020, 1404.000
883.3300, 1364.000
884.4590, 1268.000
885.5870, 1244.000
886.7150, 1181.000
887.8430, 1194.000
888.9710, 1197.000
890.0990, 1147.000
891.2260, 1196.000
892.3530, 1193.000
893.4810, 1219.000
894.6080, 1208.000
895.7340, 1209.000
896.8610, 1186.000
897.9880, 1186.000
899.1140, 1213.000
900.2400, 1197.000
901.3660, 1196.000
902.4920, 1197.000
903.6180, 1197.364
904.7430, 1202.576
905.8690, 1206.000
906.9940, 1225.000
908.1190, 1222.000
909.2440, 1254.000
910.3690, 1215.000
911.4930, 1225.000
912.6180, 1203.000
913.7420, 1226.000
914.8660, 1241.000
915.9900, 1184.000
917.1140, 1209.000
918.2380, 1203.000
919.3610, 1202.000
920.4850, 1262.000
921.6080, 1216.000
922.7310, 1236.000
923.8540, 1291.000
924.9760, 1271.000
926.0990, 1257.000
927.2210, 1255.000
928.3440, 1260.000
929.4660, 1229.000
930.5880, 1261.000
931.7090, 1222.000
932.8310, 1223.000
933.9520, 1253.000
935.0740, 1234.000
936.1950, 1245.000
937.3160, 1280.000
938.4360, 1268.000
939.5570, 1231.000
940.6780, 1269.000
941.7980, 1233.000
942.9180, 1275.000
944.0380, 1296.000
945.1580, 1264.000
946.2780, 1260.000
947.3970, 1228.000
948.5170, 1235.000
949.6360, 1194.000
950.7550, 1273.000
951.8740, 1253.000
952.9930, 1264.000
954.1110, 1261.000
955.2300, 1222.000
956.3480, 1254.000
957.4660, 1267.000
958.5840, 1293.000
959.7020, 1231.000
960.8190, 1242.000
961.9370, 1259.000
963.0540, 1255.000
964.1710, 1254.000
965.2880, 1282.000
966.4050, 1276.000
967.5220, 1267.000
968.6380, 1254.000
969.7550, 1293.000
970.8710, 1304.000
971.9870, 1240.000
973.1030, 1312.000
974.2190, 1235.000
975.3340, 1293.000
976.4500, 1284.000
977.5650, 1273.000
978.6800, 1330.000
979.7950, 1302.000
980.9100, 1320.000
982.0250, 1267.000
983.1390, 1309.000
984.2530, 1316.000
985.3680, 1270.000
986.4820, 1303.000
987.5950, 1300.000
988.7090, 1317.000
989.8230, 1298.000
990.9360, 1322.000
992.0490, 1343.000
993.1620, 1353.000
994.2750, 1310.000
995.3880, 1299.000
996.5010, 1290.000
997.6130, 1322.000
998.7250, 1328.000
999.8370, 1355.000
1000.949, 1364.274
1002.061, 1389.000
1003.173, 1378.000
1004.284, 1356.000
1005.396, 1352.000
1006.507, 1340.084
1007.618, 1361.000
1008.729, 1334.000
1009.839, 1354.000
1010.950, 1373.000
1012.060, 1364.000
1013.171, 1393.000
1014.281, 1394.187
1015.391, 1376.000
1016.500, 1405.000
1017.610, 1392.000
1018.719, 1388.000
1019.829, 1363.000
1020.938, 1355.000
1022.047, 1363.000
1023.156, 1376.000
1024.264, 1380.823
1025.373, 1390.542
1026.481, 1409.000
1027.589, 1412.000
1028.697, 1436.000
1029.805, 1460.000
1030.913, 1456.000
1032.020, 1452.000
1033.128, 1435.000
1034.235, 1430.000
1035.342, 1419.758
1036.449, 1416.000
1037.556, 1414.000
1038.663, 1434.000
1039.769, 1461.000
1040.875, 1469.000
1041.981, 1510.000
1043.087, 1459.000
1044.193, 1522.000
1045.299, 1491.000
1046.404, 1520.000
1047.510, 1553.000
1048.615, 1537.000
1049.720, 1568.081
1050.825, 1529.000
1051.930, 1593.000
1053.034, 1587.000
1054.139, 1591.000
1055.243, 1619.000
1056.347, 1651.000
1057.451, 1629.000
1058.555, 1709.000
1059.658, 1717.000
1060.762, 1785.000
1061.865, 1771.000
1062.968, 1829.000
1064.071, 1889.000
1065.174, 1947.000
1066.277, 2044.000
1067.380, 2051.000
1068.482, 2181.000
1069.584, 2251.000
1070.686, 2385.000
1071.788, 2482.000
1072.890, 2581.000
1073.992, 2755.000
1075.093, 2871.000
1076.194, 3042.000
1077.295, 3116.000
1078.396, 3270.000
1079.497, 3289.000
1080.598, 3382.000
1081.698, 3524.000
1082.799, 3729.000
1083.899, 4052.000
1084.999, 4414.000
1086.099, 4680.000
1087.199, 5241.000
1088.298, 6093.000
1089.398, 6980.000
1090.497, 8436.000
1091.596, 10571.00
1092.695, 13946.00
1093.794, 19050.00
1094.892, 25901.00
1095.991, 34657.00
1097.089, 42275.00
1098.187, 45543.00
1099.285, 40944.00
1100.383, 31965.00
1101.481, 22879.00
1102.579, 15744.00
1103.676, 11181.00
1104.773, 8190.000
1105.870, 6164.000
1106.967, 4989.000
1108.064, 4060.000
1109.161, 3543.000
1110.257, 3088.000
1111.353, 2767.000
1112.449, 2505.000
1113.545, 2344.000
1114.641, 2183.000
1115.737, 2083.000
1116.832, 2048.000
1117.928, 1959.000
1119.023, 1891.000
1120.118, 1849.000
1121.213, 1792.000
1122.308, 1761.000
1123.402, 1724.000
1124.497, 1688.837
1125.591, 1647.000
1126.685, 1636.000
1127.779, 1658.000
1128.873, 1648.000
1129.967, 1673.000
1131.060, 1657.371
1132.153, 1621.000
1133.247, 1631.000
1134.340, 1575.000
1135.433, 1562.000
1136.525, 1569.000
1137.618, 1571.000
1138.710, 1556.000
1139.802, 1542.000
1140.895, 1547.000
1141.987, 1535.888
1143.078, 1520.000
1144.170, 1526.000
1145.261, 1542.000
1146.353, 1532.000
1147.444, 1513.000
1148.535, 1485.000
1149.626, 1530.000
1150.716, 1537.000
1151.807, 1519.000
1152.897, 1514.000
1153.988, 1529.000
1155.078, 1534.000
1156.168, 1480.000
1157.257, 1493.000
1158.347, 1529.000
1159.436, 1499.000
1160.526, 1578.000
1161.615, 1524.000
1162.704, 1494.000
1163.793, 1482.000
1164.881, 1511.000
1165.970, 1522.000
1167.058, 1484.000
1168.147, 1462.000
1169.235, 1493.000
1170.323, 1500.000
1171.410, 1513.000
1172.498, 1505.000
1173.585, 1531.000
1174.673, 1531.000
1175.760, 1532.000
1176.847, 1484.000
1177.934, 1542.000
1179.020, 1510.000
1180.107, 1502.000
1181.193, 1538.000
1182.279, 1553.000
1183.365, 1531.000
1184.451, 1555.000
1185.537, 1524.000
1186.623, 1529.157
1187.708, 1536.000
1188.793, 1513.000
1189.878, 1547.000
1190.963, 1517.000
1192.048, 1519.000
1193.133, 1552.000
1194.217, 1544.000
1195.302, 1534.000
1196.386, 1547.000
1197.470, 1527.000
1198.554, 1563.000
1199.638, 1553.000
1200.721, 1518.000
1201.805, 1584.000
1202.888, 1553.000
1203.971, 1540.000
1205.054, 1599.000
1206.137, 1530.000
1207.219, 1584.000
1208.302, 1550.000
1209.384, 1460.000
1210.466, 1546.000
1211.548, 1581.000
1212.630, 1617.000
1213.712, 1539.000
1214.794, 1541.000
1215.875, 1548.000
1216.956, 1554.000
1218.037, 1544.000
1219.118, 1556.000
1220.199, 1527.000
1221.280, 1554.000
1222.360, 1549.000
1223.441, 1591.000
1224.521, 1570.526
1225.601, 1539.000
1226.681, 1551.000
1227.760, 1539.000
1228.840, 1555.000
1229.919, 1585.000
1230.999, 1588.000
1232.078, 1596.000
1233.157, 1566.000
1234.236, 1537.000
1235.314, 1561.000
1236.393, 1587.000
1237.471, 1658.000
1238.549, 1543.000
1239.627, 1621.000
1240.705, 1605.000
1241.783, 1575.000
1242.860, 1631.000
1243.938, 1624.000
1245.015, 1619.000
1246.092, 1581.000
1247.169, 1604.000
1248.246, 1643.000
1249.323, 1574.000
1250.399, 1702.000
1251.475, 1598.000
1252.552, 1617.000
1253.628, 1636.000
1254.703, 1585.000
1255.779, 1638.000
1256.855, 1606.000
1257.930, 1604.000
1259.005, 1636.000
1260.080, 1660.000
1261.155, 1668.000
1262.230, 1658.000
1263.305, 1648.000
1264.379, 1662.270
1265.454, 1654.308
1266.528, 1656.378
1267.602, 1658.000
1268.676, 1656.000
1269.750, 1660.000
1270.823, 1657.639
1271.897, 1653.322
1272.970, 1649.576
1274.043, 1645.000
1275.116, 1633.000
1276.189, 1635.000
1277.261, 1620.927
1278.334, 1618.375
1279.406, 1613.000
1280.478, 1632.000
1281.550, 1641.000
1282.622, 1641.064
1283.694, 1655.410
1284.766, 1652.000
1285.837, 1655.000
1286.908, 1675.000
1287.979, 1639.000
1289.050, 1637.000
1290.121, 1673.000
1291.192, 1648.000
1292.262, 1682.000
1293.333, 1717.000
1294.403, 1661.000
1295.473, 1616.000
1296.543, 1637.000
1297.613, 1718.000
1298.682, 1648.000
1299.752, 1644.000
1300.821, 1716.000
1301.890, 1693.000
1302.959, 1715.000
1304.028, 1671.000
1305.096, 1709.000
1306.165, 1681.000
1307.233, 1732.000
1308.301, 1694.000
1309.370, 1710.000
1310.437, 1728.000
1311.505, 1741.000
1312.573, 1686.000
1313.640, 1697.000
1314.708, 1684.000
1315.775, 1734.000
1316.842, 1744.000
1317.908, 1736.000
1318.975, 1735.398
1320.042, 1744.155
1321.108, 1707.000
1322.174, 1745.000
1323.240, 1769.000
1324.306, 1740.000
1325.372, 1721.000
1326.438, 1701.000
1327.503, 1705.000
1328.568, 1706.000
1329.634, 1718.000
1330.699, 1701.000
1331.763, 1645.000
1332.828, 1701.000
1333.893, 1690.000
1334.957, 1728.000
1336.021, 1697.000
1337.085, 1700.000
1338.149, 1697.000
1339.213, 1734.000
1340.277, 1682.000
1341.340, 1735.000
1342.404, 1672.000
1343.467, 1693.000
1344.530, 1716.000
1345.593, 1720.000
1346.655, 1714.000
1347.718, 1706.000
1348.780, 1712.000
1349.843, 1723.000
1350.905, 1705.000
1351.967, 1678.000
1353.028, 1708.000
1354.090, 1744.000
1355.152, 1716.000
1356.213, 1730.000
1357.274, 1716.000
1358.335, 1724.000
1359.396, 1722.165
1360.457, 1701.000
1361.517, 1724.000
1362.578, 1720.000
1363.638, 1731.000
1364.698, 1706.000
1365.758, 1705.000
1366.818, 1742.000
1367.878, 1725.079
1368.937, 1748.000
1369.997, 1731.000
1371.056, 1743.000
1372.115, 1746.000
1373.174, 1760.000
1374.232, 1798.000
1375.291, 1788.000
1376.350, 1718.000
1377.408, 1757.000
1378.466, 1744.000
1379.524, 1787.000
1380.582, 1791.000
1381.640, 1746.000
1382.697, 1755.000
1383.754, 1770.000
1384.812, 1767.000
1385.869, 1777.000
1386.926, 1754.000
1387.983, 1768.000
1389.039, 1754.000
1390.096, 1735.000
1391.152, 1811.000
1392.208, 1747.000
1393.264, 1780.000
1394.320, 1752.000
1395.376, 1740.000
1396.431, 1755.000
1397.487, 1751.000
1398.542, 1757.919
1399.597, 1799.000
1400.652, 1776.000
1401.707, 1783.000
1402.762, 1797.000
1403.816, 1878.000
1404.871, 1761.000
1405.925, 1835.000
1406.979, 1852.000
1408.033, 1747.000
1409.086, 1797.000
1410.140, 1820.000
1411.194, 1799.000
1412.247, 1797.000
1413.300, 1801.000
1414.353, 1834.000
1415.406, 1768.000
1416.458, 1876.000
1417.511, 1837.000
1418.563, 1797.000
1419.616, 1834.000
1420.668, 1845.000
1421.720, 1899.000
1422.772, 1838.000
1423.823, 1868.000
1424.875, 1800.000
1425.926, 1836.000
1426.977, 1917.000
1428.028, 1876.000
1429.079, 1884.000
1430.130, 1944.000
1431.180, 1924.000
1432.231, 1951.000
1433.281, 1966.000
1434.331, 2038.000
1435.381, 2095.000
1436.431, 2229.000
1437.481, 2382.000
1438.530, 2462.000
1439.580, 2672.000
1440.629, 2871.000
1441.678, 3026.000
1442.727, 2848.000
1443.776, 2719.000
1444.824, 2613.000
1445.873, 2418.000
1446.921, 2285.000
1447.969, 2250.000
1449.017, 2143.000
1450.065, 2192.000
1451.113, 2091.000
1452.160, 2048.000
1453.208, 2111.000
1454.255, 2049.000
1455.302, 1990.000
1456.349, 2014.000
1457.396, 2020.000
1458.443, 2011.000
1459.489, 1979.000
1460.535, 1916.000
1461.582, 1957.000
1462.628, 1948.000
1463.674, 1948.000
1464.719, 1972.000
1465.765, 1943.000
1466.810, 1901.000
1467.856, 1878.000
1468.901, 1881.000
1469.946, 1921.000
1470.991, 1926.000
1472.035, 1910.000
1473.080, 1929.000
1474.124, 1901.000
1475.169, 1893.000
1476.213, 1901.000
1477.257, 1908.000
1478.300, 1891.252
1479.344, 1907.000
1480.388, 1871.000
1481.431, 1887.000
1482.474, 1900.000
1483.517, 1919.000
1484.560, 1867.000
1485.603, 1833.000
1486.645, 1878.000
1487.688, 1877.000
1488.730, 1869.000
1489.772, 1826.000
1490.814, 1822.000
1491.856, 1822.796
1492.898, 1825.914
1493.939, 1860.000
1494.981, 1854.000
1496.022, 1860.121
1497.063, 1909.000
1498.104, 1861.000
1499.145, 1864.000
1500.186, 1875.000
1501.226, 1901.000
1502.266, 1881.000
1503.307, 1903.000
1504.347, 1939.000
1505.387, 1922.000
1506.426, 1962.000
1507.466, 1842.000
1508.505, 1843.000
1509.545, 1874.000
1510.584, 1908.000
1511.623, 1905.000
1512.662, 1876.000
1513.700, 1860.000
1514.739, 1923.000
1515.777, 1872.000
1516.815, 1858.000
1517.854, 1928.000
1518.892, 1986.000
1519.929, 1946.000
1520.967, 1895.000
1522.004, 1956.000
1523.042, 1976.000
1524.079, 1946.000
1525.116, 1920.000
1526.153, 1959.000
1527.190, 1943.000
1528.226, 1969.000
1529.263, 1970.000
1530.299, 1948.000
1531.335, 1955.000
1532.371, 1957.000
1533.407, 1938.000
1534.443, 1950.000
1535.478, 1942.000
1536.514, 1955.000
1537.549, 1915.000
1538.584, 1975.000
1539.619, 1997.000
1540.654, 1949.000
1541.689, 1940.000
1542.723, 1952.000
1543.757, 1968.000
1544.792, 1975.000
1545.826, 1977.000
1546.860, 1969.000
1547.893, 1923.000
1548.927, 1942.000
1549.960, 1986.000
1550.994, 1909.000
1552.027, 2036.000
1553.060, 2000.000
1554.093, 1964.000
1555.126, 1991.000
1556.158, 2015.000
1557.191, 1949.000
1558.223, 1994.000
1559.255, 1933.000
1560.287, 1976.000
1561.319, 1962.000
1562.350, 2017.000
1563.382, 1958.000
1564.413, 1986.000
1565.444, 1968.000
1566.476, 1995.000
1567.506, 2003.000
1568.537, 1981.000
1569.568, 1990.000
1570.598, 1985.000
1571.629, 1985.000
1572.659, 1999.000
1573.689, 2003.000
1574.719, 1926.000
1575.749, 1968.000
1576.778, 2002.000
1577.808, 2001.000
##END=



