##NAMES=Dravite
##RRUFFID=R050077
##IDEAL CHEMISTRY=NaMg_3_Al_6_(Si_6_O_18_)(BO_3_)_3_(OH)_3_OH
##LOCALITY=Yinnietharra Station, Western Australia, Australia
##OWNER=RRUFF
##SOURCE=Rock Currier
##DESCRIPTION=Dark brown euhedral prismatic single crystal
##STATUS=The identification of this mineral has been confirmed by X-ray diffraction and chemical analysis
##URL=rruff.info/R050077
##MEASURED CHEMISTRY=(Na_0.783_Ca_0.217_)(Mg_0.771_Fe^2+^_0.221_Ti^4+^_0.008_)_3_(Al_0.956_Mg_0.044_)_6_(BO_3_)_3_[Si_6_O_18_]((OH)_0.914_F_0.086_)_4_
##PIN_ID=L00540
##ORIENTATION=Laser parallel to -a* (-1 0 0). Fiducial mark perpendicular to laser is parallel to c [0 0 1]
118.1340, 15594.00
119.3650, 15409.00
120.5960, 15176.00
121.8270, 15466.00
123.0580, 16240.00
124.2880, 16772.00
125.5190, 16009.00
126.7490, 15717.00
127.9790, 15886.00
129.2090, 16072.00
130.4390, 16105.57
131.6680, 16262.15
132.8980, 16529.00
134.1270, 16504.00
135.3560, 16850.00
136.5850, 17072.00
137.8140, 17594.00
139.0430, 18341.00
140.2710, 18817.00
141.5000, 18404.00
142.7280, 18259.00
143.9560, 18032.00
145.1840, 18522.00
146.4120, 18241.63
147.6390, 18611.00
148.8670, 18313.00
150.0940, 18360.00
151.3210, 18767.00
152.5490, 18527.00
153.7750, 17963.00
155.0020, 17703.00
156.2290, 17576.00
157.4550, 16977.00
158.6810, 16729.00
159.9080, 16653.00
161.1340, 16613.00
162.3590, 16762.00
163.5850, 16740.00
164.8110, 16714.79
166.0360, 16761.00
167.2610, 16686.00
168.4860, 16810.00
169.7110, 16952.00
170.9360, 17108.00
172.1610, 16865.00
173.3850, 16818.00
174.6100, 16702.00
175.8340, 16911.00
177.0580, 16954.00
178.2820, 17147.00
179.5050, 17291.77
180.7290, 17295.00
181.9520, 17624.00
183.1760, 17799.00
184.3990, 18002.00
185.6220, 18611.00
186.8450, 19039.00
188.0670, 19281.00
189.2900, 19836.00
190.5120, 20320.00
191.7340, 20842.00
192.9560, 21578.00
194.1780, 22299.00
195.4000, 23236.00
196.6220, 24203.00
197.8430, 25297.00
199.0640, 26654.00
200.2860, 28846.00
201.5070, 30770.00
202.7270, 33102.00
203.9480, 35171.00
205.1690, 36775.00
206.3890, 38926.00
207.6090, 40735.00
208.8290, 42639.00
210.0490, 43716.00
211.2690, 43789.00
212.4890, 43474.00
213.7080, 42570.00
214.9280, 40917.00
216.1470, 39383.00
217.3660, 37657.00
218.5850, 36771.00
219.8030, 35818.00
221.0220, 34632.00
222.2400, 33670.00
223.4590, 33515.00
224.6770, 32814.00
225.8950, 32879.00
227.1120, 32876.00
228.3300, 33847.00
229.5480, 35452.00
230.7650, 36983.00
231.9820, 37855.00
233.1990, 39435.00
234.4160, 42014.00
235.6330, 43465.00
236.8490, 44676.00
238.0660, 45752.00
239.2820, 46391.00
240.4980, 46050.00
241.7140, 44770.00
242.9300, 43271.00
244.1460, 40680.00
245.3610, 38278.00
246.5770, 35196.00
247.7920, 32879.00
249.0070, 30552.00
250.2220, 28558.00
251.4370, 26513.00
252.6510, 25231.00
253.8660, 23884.00
255.0800, 22890.00
256.2940, 22128.00
257.5080, 22006.00
258.7220, 21538.75
259.9360, 20939.52
261.1490, 21110.00
262.3630, 19865.00
263.5760, 19133.00
264.7890, 18740.00
266.0020, 18506.00
267.2150, 18165.00
268.4270, 17780.00
269.6400, 17440.00
270.8520, 16995.00
272.0640, 16742.00
273.2760, 16205.00
274.4880, 16056.00
275.7000, 15641.00
276.9120, 15503.00
278.1230, 15294.00
279.3340, 14939.00
280.5450, 14780.00
281.7560, 14494.00
282.9670, 14378.00
284.1780, 14037.00
285.3880, 13983.00
286.5980, 13833.00
287.8090, 13733.00
289.0190, 13796.00
290.2290, 13735.00
291.4380, 13570.00
292.6480, 13594.42
293.8570, 13627.00
295.0670, 13515.00
296.2760, 13765.00
297.4850, 13771.00
298.6930, 13844.00
299.9020, 13882.00
301.1110, 14203.00
302.3190, 14542.00
303.5270, 14952.00
304.7350, 15213.00
305.9430, 15752.00
307.1510, 16272.00
308.3580, 16773.00
309.5660, 17170.00
310.7730, 17540.00
311.9800, 17512.00
313.1870, 17230.00
314.3940, 16719.00
315.6010, 16274.00
316.8070, 16100.00
318.0130, 15726.00
319.2200, 15665.00
320.4260, 15573.00
321.6310, 15517.00
322.8370, 15543.00
324.0430, 15737.00
325.2480, 16084.00
326.4540, 16259.00
327.6590, 16246.00
328.8640, 16656.00
330.0680, 16819.00
331.2730, 17177.00
332.4780, 17498.00
333.6820, 17748.00
334.8860, 18158.00
336.0900, 18514.00
337.2940, 18929.31
338.4980, 19458.00
339.7010, 19817.00
340.9050, 20251.00
342.1080, 20670.00
343.3110, 21236.00
344.5140, 21501.00
345.7170, 22266.00
346.9200, 22721.00
348.1220, 23346.00
349.3240, 24532.00
350.5270, 25673.00
351.7290, 27017.00
352.9310, 28798.00
354.1320, 30633.00
355.3340, 33280.00
356.5350, 35985.00
357.7370, 39171.00
358.9380, 43001.00
360.1390, 46959.00
361.3400, 50639.00
362.5400, 55181.00
363.7410, 58352.00
364.9410, 61500.00
366.1410, 62658.00
367.3410, 62746.00
368.5410, 61193.00
369.7410, 58380.00
370.9400, 55216.00
372.1400, 51788.00
373.3390, 47648.00
374.5380, 43947.00
375.7370, 40719.00
376.9360, 37772.00
378.1350, 35203.88
379.3330, 32975.87
380.5310, 31101.00
381.7300, 29541.00
382.9280, 28280.00
384.1260, 27412.00
385.3230, 26548.00
386.5210, 25810.00
387.7180, 25256.00
388.9160, 24928.00
390.1130, 24715.00
391.3100, 24302.86
392.5060, 23986.00
393.7030, 23794.00
394.9000, 23564.00
396.0960, 23532.00
397.2920, 23378.00
398.4880, 23343.90
399.6840, 23162.04
400.8800, 22938.53
402.0750, 22777.00
403.2710, 22346.00
404.4660, 22086.00
405.6610, 21644.00
406.8560, 21377.00
408.0510, 20756.00
409.2450, 20383.00
410.4400, 19808.00
411.6340, 19274.00
412.8280, 18840.00
414.0220, 18413.12
415.2160, 18043.00
416.4100, 17710.00
417.6030, 17360.00
418.7970, 17057.00
419.9900, 16753.00
421.1830, 16401.00
422.3760, 16414.00
423.5690, 16292.00
424.7610, 15979.00
425.9540, 15837.00
427.1460, 15701.00
428.3380, 15547.00
429.5300, 15526.00
430.7220, 15447.00
431.9140, 15327.00
433.1050, 15062.00
434.2970, 15286.00
435.4880, 15325.00
436.6790, 15036.00
437.8700, 15178.00
439.0610, 15076.00
440.2510, 14983.00
441.4420, 15138.00
442.6320, 15103.00
443.8220, 15171.00
445.0120, 15138.00
446.2020, 15217.00
447.3910, 15204.00
448.5810, 15188.00
449.7700, 15337.00
450.9600, 15534.00
452.1490, 15669.00
453.3370, 16117.00
454.5260, 16668.00
455.7150, 17077.00
456.9030, 17622.00
458.0910, 18657.00
459.2800, 19674.00
460.4670, 20547.00
461.6550, 21105.00
462.8430, 21084.00
464.0300, 20592.00
465.2180, 19894.00
466.4050, 19338.00
467.5920, 18820.00
468.7790, 18497.37
469.9650, 18256.00
471.1520, 18042.00
472.3380, 18042.00
473.5250, 17851.00
474.7110, 17991.00
475.8970, 18044.00
477.0820, 18146.00
478.2680, 18254.00
479.4540, 18499.00
480.6390, 18631.00
481.8240, 18870.00
483.0090, 18971.00
484.1940, 19073.00
485.3780, 19227.00
486.5630, 19613.00
487.7470, 19752.00
488.9320, 19909.00
490.1160, 19944.00
491.3000, 19926.00
492.4830, 20085.00
493.6670, 20079.00
494.8500, 20092.00
496.0340, 19975.00
497.2170, 19812.00
498.4000, 19667.00
499.5820, 19507.00
500.7650, 19184.00
501.9480, 19005.00
503.1300, 18773.00
504.3120, 18473.00
505.4940, 18238.00
506.6760, 17948.00
507.8580, 17702.00
509.0390, 17444.00
510.2210, 17126.00
511.4020, 16935.00
512.5830, 16691.00
513.7640, 16363.00
514.9450, 16194.00
516.1250, 16024.44
517.3060, 16066.00
518.4860, 15804.00
519.6660, 15864.00
520.8460, 15805.00
522.0260, 15786.00
523.2060, 15747.00
524.3850, 16019.00
525.5650, 16026.00
526.7440, 16171.00
527.9230, 16250.00
529.1020, 16286.00
530.2810, 16344.00
531.4590, 16323.00
532.6380, 16533.00
533.8160, 16456.00
534.9940, 16312.00
536.1720, 16575.00
537.3500, 16384.00
538.5270, 16439.00
539.7050, 16328.00
540.8820, 16207.00
542.0590, 16148.00
543.2360, 16243.00
544.4130, 16081.00
545.5900, 16099.00
546.7660, 15841.00
547.9430, 15855.00
549.1190, 15772.00
550.2950, 15564.00
551.4710, 15585.00
552.6470, 15532.00
553.8220, 15205.00
554.9980, 15325.00
556.1730, 15219.00
557.3480, 15351.00
558.5230, 15100.00
559.6980, 15099.00
560.8730, 15130.00
562.0470, 15066.00
563.2220, 14936.00
564.3960, 15050.00
565.5700, 14828.00
566.7440, 15008.00
567.9170, 15010.00
569.0910, 14984.00
570.2640, 14827.00
571.4380, 14724.00
572.6110, 14894.00
573.7840, 14968.00
574.9570, 14897.00
576.1290, 14892.00
577.3020, 14766.00
578.4740, 14715.00
579.6460, 14830.00
580.8180, 14800.00
581.9900, 14835.00
583.1620, 14832.00
584.3330, 14807.95
585.5040, 14765.00
586.6760, 14792.00
587.8470, 14800.00
589.0180, 14863.00
590.1880, 14863.65
591.3590, 14890.00
592.5290, 14865.00
593.7000, 14918.00
594.8700, 14866.00
596.0400, 14914.01
597.2090, 14990.00
598.3790, 15018.00
599.5490, 15079.00
600.7180, 15208.00
601.8870, 15084.00
603.0560, 14987.00
604.2250, 15212.00
605.3940, 15302.00
606.5620, 15347.00
607.7300, 15289.00
608.8990, 15523.00
610.0670, 15753.00
611.2350, 15842.00
612.4020, 16048.00
613.5700, 16174.00
614.7370, 16274.00
615.9050, 16410.00
617.0720, 16662.00
618.2390, 17084.00
619.4060, 17466.42
620.5720, 17881.00
621.7390, 18537.00
622.9050, 19177.00
624.0710, 19873.00
625.2370, 20348.00
626.4030, 21223.00
627.5690, 22083.00
628.7340, 22325.00
629.9000, 22363.00
631.0650, 22161.00
632.2300, 22028.00
633.3950, 21933.00
634.5600, 21619.00
635.7240, 21500.00
636.8890, 21377.00
638.0530, 21456.00
639.2170, 21631.00
640.3810, 22002.00
641.5450, 22534.00
642.7080, 22689.00
643.8720, 23161.00
645.0350, 23669.00
646.1980, 24082.00
647.3610, 24474.00
648.5240, 24416.00
649.6870, 24365.00
650.8490, 24650.00
652.0120, 24401.00
653.1740, 24741.00
654.3360, 24427.00
655.4980, 24569.00
656.6600, 24710.00
657.8210, 24914.00
658.9830, 25175.00
660.1440, 25495.00
661.3050, 26012.00
662.4660, 26565.00
663.6270, 26844.00
664.7870, 27685.00
665.9480, 28177.00
667.1080, 28511.00
668.2680, 29102.00
669.4280, 29022.00
670.5880, 29141.00
671.7480, 29384.00
672.9070, 28676.00
674.0670, 28365.00
675.2260, 27879.00
676.3850, 26994.00
677.5440, 26723.00
678.7030, 26068.00
679.8610, 25375.00
681.0200, 25301.00
682.1780, 24864.00
683.3360, 24609.00
684.4940, 24619.00
685.6520, 24620.00
686.8090, 24736.00
687.9670, 25317.00
689.1240, 25669.00
690.2810, 26123.00
691.4380, 27158.00
692.5950, 27965.00
693.7520, 28665.00
694.9080, 29775.00
696.0650, 30563.00
697.2210, 31318.00
698.3770, 31887.00
699.5330, 31825.00
700.6880, 31549.00
701.8440, 30925.00
702.9990, 29841.00
704.1550, 28503.00
705.3100, 26944.00
706.4650, 25452.00
707.6190, 24285.00
708.7740, 23001.00
709.9290, 21885.00
711.0830, 21030.00
712.2370, 20341.00
713.3910, 19617.00
714.5450, 19151.00
715.6980, 18804.14
716.8520, 18818.00
718.0050, 18477.00
719.1580, 18333.00
720.3110, 18397.00
721.4640, 18238.00
722.6170, 18237.00
723.7700, 18103.00
724.9220, 17982.00
726.0740, 18059.00
727.2260, 18071.00
728.3780, 17903.00
729.5300, 18065.00
730.6810, 18077.00
731.8330, 18263.00
732.9840, 18219.00
734.1350, 18380.00
735.2860, 18381.00
736.4370, 18699.00
737.5880, 18855.00
738.7380, 19121.00
739.8880, 19190.00
741.0390, 19419.00
742.1890, 19546.00
743.3380, 19843.00
744.4880, 19901.00
745.6380, 20249.00
746.7870, 20752.00
747.9360, 20683.00
749.0850, 20884.53
750.2340, 20980.00
751.3830, 20990.00
752.5310, 21253.00
753.6800, 21198.34
754.8280, 21405.00
755.9760, 21168.00
757.1240, 21099.00
758.2720, 21003.00
759.4190, 20787.00
760.5670, 20571.00
761.7140, 20407.00
762.8610, 20315.00
764.0080, 20032.00
765.1550, 19903.00
766.3020, 19783.57
767.4480, 20078.00
768.5950, 19859.00
769.7410, 19711.00
770.8870, 19753.20
772.0330, 19587.00
773.1780, 19512.00
774.3240, 19348.00
775.4690, 19001.00
776.6140, 19119.00
777.7590, 19101.00
778.9040, 18768.00
780.0490, 19028.00
781.1940, 18930.00
782.3380, 18914.00
783.4820, 18829.00
784.6260, 18591.00
785.7700, 18393.00
786.9140, 18280.00
788.0580, 17952.00
789.2010, 17604.00
790.3450, 17440.00
791.4880, 17084.00
792.6310, 16662.00
793.7730, 16245.00
794.9160, 15786.00
796.0590, 15313.00
797.2010, 15007.00
798.3430, 14795.00
799.4850, 14669.00
800.6270, 14368.00
801.7690, 14157.00
802.9100, 14232.00
804.0520, 14338.00
805.1930, 14058.00
806.3340, 14146.00
807.4750, 14188.00
808.6160, 13986.00
809.7560, 14101.00
810.8970, 13815.00
812.0370, 14024.00
813.1770, 13716.00
814.3170, 13521.00
815.4570, 13366.00
816.5960, 13051.00
817.7360, 12875.00
818.8750, 12603.00
820.0140, 12242.00
821.1530, 12016.00
822.2920, 11839.32
823.4310, 11594.93
824.5690, 11551.00
825.7070, 11272.00
826.8460, 11068.00
827.9840, 10999.00
829.1220, 10819.00
830.2590, 10773.00
831.3970, 10713.00
832.5340, 10390.00
833.6710, 10298.00
834.8080, 10222.00
835.9450, 10086.00
837.0820, 10013.00
838.2190, 9937.000
839.3550, 9906.000
840.4910, 9856.891
841.6270, 9933.000
842.7630, 9759.000
843.8990, 9805.000
845.0350, 9681.545
846.1700, 9660.627
847.3060, 9639.000
848.4410, 9663.000
849.5760, 9554.000
850.7100, 9633.000
851.8450, 9535.000
852.9800, 9574.000
854.1140, 9649.000
855.2480, 9534.000
856.3820, 9509.000
857.5160, 9566.000
858.6500, 9602.000
859.7830, 9567.005
860.9170, 9540.000
862.0500, 9526.000
863.1830, 9527.000
864.3160, 9537.000
865.4480, 9553.230
866.5810, 9561.000
867.7130, 9619.000
868.8460, 9595.000
869.9780, 9651.000
871.1100, 9637.755
872.2410, 9666.000
873.3730, 9622.000
874.5050, 9689.000
875.6360, 9695.000
876.7670, 9666.000
877.8980, 9704.000
879.0290, 9736.000
880.1590, 9630.000
881.2900, 9782.000
882.4200, 9721.000
883.5500, 9862.000
884.6800, 9924.000
885.8100, 9878.000
886.9400, 9898.000
888.0690, 9884.000
889.1990, 10036.00
890.3280, 9976.000
891.4570, 10096.00
892.5860, 10168.00
893.7140, 10070.00
894.8430, 10124.00
895.9710, 10225.00
897.1000, 10259.00
898.2280, 10382.00
899.3560, 10339.23
900.4830, 10494.00
901.6110, 10254.00
902.7380, 10529.00
903.8660, 10510.00
904.9930, 10731.00
906.1200, 10704.08
907.2460, 10782.45
908.3730, 10614.00
909.5000, 10826.00
910.6260, 10768.00
911.7520, 10666.00
912.8780, 10798.00
914.0040, 10893.00
915.1290, 10950.00
916.2550, 10972.00
917.3800, 11081.00
918.5050, 11213.00
919.6300, 11048.00
920.7550, 11084.00
921.8800, 11248.00
923.0040, 11225.00
924.1290, 11297.00
925.2530, 11293.00
926.3770, 11268.00
927.5010, 11479.00
928.6250, 11558.00
929.7480, 11568.00
930.8720, 11579.00
931.9950, 11709.00
933.1180, 11745.00
934.2410, 11675.00
935.3640, 11911.00
936.4860, 11847.00
937.6090, 11964.00
938.7310, 12155.00
939.8530, 12364.00
940.9750, 12408.00
942.0970, 12476.00
943.2180, 12533.00
944.3400, 12800.00
945.4610, 12950.00
946.5820, 12937.00
947.7030, 12977.00
948.8240, 13399.00
949.9450, 13539.00
951.0650, 13528.00
952.1860, 13548.00
953.3060, 13951.00
954.4260, 14013.00
955.5460, 14275.00
956.6650, 14295.00
957.7850, 14494.00
958.9040, 14434.00
960.0230, 14681.00
961.1420, 14738.22
962.2610, 14778.11
963.3800, 14956.00
964.4990, 14856.00
965.6170, 14989.00
966.7350, 15006.00
967.8530, 14955.00
968.9710, 15144.00
970.0890, 15034.00
971.2070, 15073.00
972.3240, 15275.00
973.4410, 15067.00
974.5580, 15369.00
975.6750, 15173.21
976.7920, 15205.00
977.9090, 14901.00
979.0250, 15139.00
980.1410, 15061.00
981.2580, 15123.00
982.3740, 15239.00
983.4890, 15090.00
984.6050, 15154.00
985.7200, 15004.00
986.8360, 15020.00
987.9510, 15020.00
989.0660, 14979.00
990.1810, 15088.00
991.2950, 14979.00
992.4100, 15068.00
993.5240, 15156.00
994.6390, 15348.00
995.7530, 15225.00
996.8660, 15331.00
997.9800, 15392.00
999.0940, 15528.00
1000.207, 15707.00
1001.320, 15673.00
1002.433, 15863.00
1003.546, 16231.00
1004.659, 16261.00
1005.772, 16493.00
1006.884, 16705.00
1007.996, 17059.00
1009.108, 17376.00
1010.220, 17693.00
1011.332, 17992.56
1012.444, 18323.89
1013.555, 18623.00
1014.666, 18961.00
1015.777, 19304.96
1016.888, 19704.00
1017.999, 19996.00
1019.110, 20419.00
1020.220, 20737.11
1021.331, 20946.00
1022.441, 21457.00
1023.551, 21777.00
1024.661, 22093.00
1025.770, 22326.00
1026.880, 22396.00
1027.989, 22574.00
1029.098, 22716.00
1030.207, 22748.73
1031.316, 22805.00
1032.425, 22818.00
1033.533, 22827.00
1034.642, 22849.00
1035.750, 22654.00
1036.858, 22693.00
1037.966, 23384.00
1039.073, 22873.25
1040.181, 22958.00
1041.288, 22474.00
1042.396, 22492.00
1043.503, 22579.00
1044.610, 22335.00
1045.716, 22495.00
1046.823, 22428.00
1047.929, 22403.00
1049.036, 22200.00
1050.142, 22020.00
1051.248, 22026.00
1052.353, 21807.00
1053.459, 21530.00
1054.564, 21582.00
1055.670, 21016.00
1056.775, 20808.00
1057.880, 20354.00
1058.985, 20391.00
1060.089, 20244.00
1061.194, 19685.00
1062.298, 19620.00
1063.402, 19409.00
1064.506, 19317.00
1065.610, 19217.00
1066.713, 19000.00
1067.817, 18625.00
1068.920, 18516.00
1070.023, 18280.00
1071.126, 17865.00
1072.229, 17683.00
1073.332, 17423.00
1074.435, 17038.00
1075.537, 16861.00
1076.639, 16686.00
1077.741, 16285.00
1078.843, 16128.00
1079.945, 15988.00
1081.046, 15617.00
1082.148, 15325.00
1083.249, 15056.00
1084.350, 14908.00
1085.451, 14785.00
1086.551, 14627.00
1087.652, 14281.00
1088.752, 14348.00
1089.853, 14052.00
1090.953, 13939.00
1092.053, 13935.00
1093.152, 13890.00
1094.252, 13690.00
1095.351, 13763.00
1096.451, 13489.00
1097.550, 13392.00
1098.649, 13397.00
1099.748, 13277.00
1100.846, 13253.00
1101.945, 13298.00
1103.043, 13219.00
1104.141, 13097.00
1105.239, 13033.00
1106.337, 12953.77
1107.434, 12812.00
1108.532, 12822.00
1109.629, 12737.00
1110.726, 12673.00
1111.823, 12696.00
1112.920, 12601.00
1114.017, 12657.00
1115.113, 12513.00
1116.210, 12640.00
1117.306, 12725.00
1118.402, 12682.00
1119.498, 12688.00
1120.593, 12791.00
1121.689, 13004.00
1122.784, 12716.00
1123.879, 12899.00
1124.974, 12573.00
1126.069, 12501.00
1127.164, 12061.00
1128.259, 11952.00
1129.353, 11908.00
1130.447, 11635.00
1131.541, 11486.00
1132.635, 11407.00
1133.729, 11369.00
1134.822, 11393.00
1135.916, 11259.00
1137.009, 11361.00
1138.102, 11192.00
1139.195, 11266.00
1140.288, 11247.00
1141.380, 11099.00
1142.473, 11183.00
1143.565, 11156.00
1144.657, 11134.00
1145.749, 11070.00
1146.841, 10999.00
1147.932, 10981.00
1149.024, 11079.00
1150.115, 11052.00
1151.206, 10978.00
1152.297, 11129.00
1153.388, 11010.00
1154.479, 11026.00
1155.569, 10862.00
1156.659, 11040.00
1157.750, 10961.00
1158.839, 10859.00
1159.929, 10979.00
1161.019, 10934.00
1162.108, 11026.00
1163.198, 10990.51
1164.287, 10908.00
1165.376, 10966.00
1166.465, 10827.00
1167.553, 10919.00
1168.642, 10884.21
1169.730, 10731.00
1170.818, 10870.00
1171.906, 10843.00
1172.994, 10811.00
1174.082, 10787.00
1175.170, 10744.00
1176.257, 10746.00
1177.344, 10801.00
1178.431, 10774.00
1179.518, 10806.00
1180.605, 10690.00
1181.691, 10823.00
1182.778, 10626.00
1183.864, 10803.00
1184.950, 10752.00
1186.036, 10768.00
1187.122, 10638.00
1188.207, 10680.00
1189.292, 10772.00
1190.378, 10738.00
1191.463, 10816.00
1192.548, 10729.00
1193.632, 10733.00
1194.717, 10652.00
1195.801, 10682.00
1196.886, 10744.00
1197.970, 10673.00
1199.054, 10735.00
1200.137, 10758.00
1201.221, 10726.00
1202.305, 10710.00
1203.388, 10765.00
1204.471, 10676.00
1205.554, 10727.42
1206.637, 10661.00
1207.719, 10779.00
1208.802, 10767.00
1209.884, 10809.00
1210.966, 10840.92
1212.048, 10703.00
1213.130, 10865.00
1214.212, 10772.00
1215.293, 10766.00
1216.374, 10882.00
1217.456, 10865.00
1218.536, 10812.00
1219.617, 10940.00
1220.698, 10960.00
1221.778, 10966.00
1222.859, 10956.00
1223.939, 11001.00
1225.019, 11018.00
1226.099, 11016.00
1227.178, 11099.00
1228.258, 11103.00
1229.337, 11171.00
1230.417, 11095.00
1231.496, 11165.00
1232.574, 11060.00
1233.653, 11217.00
1234.732, 11125.00
1235.810, 11230.00
1236.888, 11310.00
1237.966, 11268.00
1239.044, 11207.00
1240.122, 11363.00
1241.199, 11425.00
1242.277, 11489.00
1243.354, 11527.83
1244.431, 11407.00
1245.508, 11465.00
1246.585, 11502.00
1247.661, 11316.00
1248.738, 11418.00
1249.814, 11585.00
1250.890, 11408.17
1251.966, 11623.00
1253.042, 11310.00
1254.117, 11396.00
1255.193, 11546.00
1256.268, 11557.00
1257.343, 11452.00
1258.418, 11534.00
1259.493, 11587.00
1260.567, 11506.00
1261.642, 11532.00
1262.716, 11281.00
1263.790, 11522.00
1264.864, 11268.00
1265.938, 11466.00
1267.011, 11432.00
1268.085, 11458.00
1269.158, 11549.00
1270.231, 11509.46
1271.304, 11412.00
1272.377, 11540.00
1273.450, 11408.00
1274.522, 11494.00
1275.594, 11560.00
1276.666, 11407.00
1277.738, 11353.00
1278.810, 11362.00
1279.882, 11412.00
1280.953, 11428.00
1282.025, 11488.00
1283.096, 11352.00
1284.167, 11320.00
1285.238, 11401.00
1286.308, 11382.00
1287.379, 11550.00
1288.449, 11501.00
1289.519, 11491.00
1290.589, 11530.00
1291.659, 11484.00
1292.729, 11379.00
1293.798, 11345.58
1294.868, 11535.54
1295.937, 11644.61
1297.006, 11677.14
1298.075, 11403.91
1299.143, 11525.50
1300.212, 11488.87
1301.280, 11445.75
1302.348, 11622.92
1303.416, 11394.16
1304.484, 11567.83
1305.552, 11580.86
1306.620, 11667.41
1307.687, 11594.75
1308.754, 11571.26
1309.821, 11707.04
1310.888, 11754.63
1311.955, 11476.00
1313.021, 11647.00
1314.088, 11525.00
1315.154, 11488.00
1316.220, 11480.00
1317.286, 11505.00
1318.352, 11535.00
1319.417, 11545.00
1320.483, 11510.00
1321.548, 11640.00
1322.613, 11633.00
1323.678, 11555.00
1324.743, 11522.00
1325.807, 11623.00
1326.872, 11550.00
1327.936, 11598.00
1329.000, 11578.11
1330.064, 11550.00
1331.128, 11582.00
1332.191, 11306.14
1333.255, 11492.00
1334.318, 11596.97
1335.381, 11625.41
1336.444, 11348.09
1337.507, 11465.59
1338.569, 11424.87
1339.632, 11377.66
1340.694, 11550.74
1341.756, 11433.00
1342.818, 11619.00
1343.880, 11546.00
1344.941, 11357.00
1346.003, 11476.00
1347.064, 11470.00
1348.125, 11496.00
1349.186, 11491.00
1350.247, 11405.00
1351.308, 11546.00
1352.368, 11352.00
1353.428, 11475.00
1354.489, 11396.00
1355.549, 11396.00
1356.608, 11506.00
1357.668, 11323.00
1358.727, 11295.00
1359.787, 11583.00
1360.846, 11364.00
1361.905, 11478.00
1362.964, 11511.00
1364.022, 11781.00
1365.081, 11658.00
1366.139, 11536.00
1367.197, 11440.00
1368.255, 11379.00
1369.313, 11449.00
1370.371, 11592.00
1371.428, 11523.00
1372.486, 11502.00
1373.543, 11532.00
1374.600, 11532.00
1375.657, 11648.00
1376.713, 11601.27
1377.770, 11616.04
1378.826, 11548.00
1379.882, 11543.00
1380.938, 11488.00
1381.994, 11488.77
1383.050, 11431.00
1384.106, 11429.11
1385.161, 11445.00
1386.216, 11432.00
1387.271, 11447.00
1388.326, 11479.00
1389.381, 11598.00
1390.435, 11537.00
1391.490, 11523.00
1392.544, 11412.00
1393.598, 11551.00
1394.652, 11537.00
1395.705, 11559.00
1396.759, 11557.00
1397.812, 11532.00
1398.866, 11616.00
1399.919, 11596.00
1400.972, 11580.19
1402.024, 11647.00
1403.077, 11537.00
1404.129, 11578.00
1405.181, 11601.00
1406.233, 11470.00
1407.285, 11419.00
1408.337, 11497.00
1409.389, 11438.00
1410.440, 11519.00
1411.491, 11536.00
1412.542, 11375.00
1413.593, 11380.00
1414.644, 11489.00
1415.695, 11466.00
1416.745, 11484.44
1417.795, 11414.00
1418.845, 11463.00
1419.895, 11394.00
1420.945, 11363.00
1421.995, 11355.00
1423.044, 11357.00
1424.093, 11388.00
1425.142, 11278.00
1426.191, 11365.00
1427.240, 11343.00
1428.289, 11186.00
1429.337, 11347.00
1430.385, 11252.00
1431.433, 11259.00
1432.481, 11363.00
1433.529, 11414.00
1434.577, 11177.00
1435.624, 11414.00
1436.672, 11307.00
1437.719, 11290.00
1438.766, 11477.00
1439.812, 11407.00
1440.859, 11337.00
1441.905, 11518.00
1442.952, 11411.49
1443.998, 11469.00
1445.044, 11391.00
1446.090, 11325.00
1447.135, 11345.00
1448.181, 11362.00
1449.226, 11343.35
1450.271, 11357.53
1451.316, 11344.00
1452.361, 11354.00
1453.405, 11339.00
1454.450, 11330.00
1455.494, 11209.00
1456.538, 11189.00
1457.582, 11318.00
1458.626, 11306.00
1459.670, 11435.00
1460.713, 11306.00
1461.757, 11201.00
1462.800, 11428.00
1463.843, 11261.00
1464.886, 11431.00
1465.928, 11435.00
1466.971, 11338.00
1468.013, 11397.00
1469.055, 11219.00
1470.097, 11496.00
1471.139, 11238.00
1472.181, 11458.00
1473.222, 11582.00
1474.263, 11312.00
1475.305, 11497.00
1476.346, 11458.00
1477.386, 11554.00
1478.427, 11400.03
1479.468, 11580.66
1480.508, 11680.41
1481.548, 11703.63
1482.588, 11421.08
1483.628, 11533.36
1484.668, 11487.41
1485.707, 11434.98
1486.747, 11602.84
1487.786, 11364.76
1488.825, 11529.13
1489.864, 11532.85
1490.902, 11610.09
1491.941, 11528.13
1492.979, 11495.34
1494.017, 11621.81
1495.055, 11660.10
1496.093, 11561.00
1497.131, 11612.00
1498.168, 11882.00
1499.206, 11666.00
1500.243, 11715.00
1501.280, 11673.00
1502.317, 11780.00
1503.354, 11689.00
1504.390, 11711.00
1505.426, 11704.00
1506.463, 11662.00
1507.499, 11795.00
1508.535, 11814.00
1509.570, 11785.00
1510.606, 11783.00
1511.641, 11793.00
1512.676, 11776.55
1513.711, 11827.00
1514.746, 11779.00
1515.781, 11808.00
1516.816, 11838.00
1517.850, 11829.00
1518.884, 11802.00
1519.918, 11798.78
1520.952, 11779.00
1521.986, 11751.00
1523.019, 11757.00
1524.053, 11728.00
1525.086, 11740.00
1526.119, 11655.00
1527.152, 11699.00
1528.185, 11629.00
1529.217, 11699.00
1530.250, 11738.00
1531.282, 11666.00
1532.314, 11640.00
1533.346, 11549.00
1534.377, 11506.00
1535.409, 11595.00
1536.440, 11586.00
1537.472, 11649.00
1538.503, 11594.00
1539.534, 11454.00
1540.564, 11576.00
1541.595, 11463.00
1542.625, 11195.33
1543.656, 11380.33
1544.686, 11484.44
1545.716, 11512.02
1546.745, 11233.84
1547.775, 11350.48
1548.804, 11308.90
1549.834, 11260.83
1550.863, 11433.05
1551.892, 11199.33
1552.920, 11368.06
1553.949, 11376.14
1554.977, 11457.74
1556.006, 11380.13
1557.034, 11351.70
1558.062, 11482.53
1559.089, 11525.17
1560.117, 11429.24
1561.144, 11515.51
1562.172, 11276.24
1563.199, 11322.64
1564.226, 11492.29
1565.252, 11404.36
1566.279, 11493.55
1567.305, 11419.00
1568.332, 11408.00
1569.358, 11486.00
1570.384, 11470.00
1571.409, 11356.00
1572.435, 11459.00
##END=



