##NAMES=Dravite
##RRUFFID=R060286
##IDEAL CHEMISTRY=NaMg_3_Al_6_(Si_6_O_18_)(BO_3_)_3_(OH)_3_OH
##LOCALITY=Badakshan Province, Afghanistan
##OWNER=RRUFF
##SOURCE=Herb Obodda
##DESCRIPTION=Brown prismatic tourmaline crystal
##STATUS=The identification of this mineral has been confirmed by X-ray diffraction and chemical analysis
##URL=rruff.info/R060286
##MEASURED CHEMISTRY=(Na_0.48_Ca_0.38_[box]_0.14_)_Σ=1_(Mg_2.90_Ti_0.10_)_Σ=3_Al_6.00_(B_1.00_O_3_)_3_(Si_5.56_B_0.44_)_Σ=6_O_18_(OH)_4_; (OH) assumed from stoichiometry; B estimated by difference and charge balance
##PIN_ID=L00909
##ORIENTATION=Laser parallel to a* (1 0 0). Fiducial mark perpendicular to laser is parallel to -c [0 0 -1]
118.1340, 9674.000
119.3650, 9704.000
120.5960, 9333.000
121.8270, 9217.000
123.0580, 9495.000
124.2880, 9787.000
125.5190, 9407.000
126.7490, 9386.000
127.9790, 9445.000
129.2090, 9855.000
130.4390, 9972.000
131.6680, 10298.00
132.8980, 10309.00
134.1270, 10472.00
135.3560, 10592.00
136.5850, 10849.00
137.8140, 10973.00
139.0430, 11448.00
140.2710, 11738.00
141.5000, 11646.00
142.7280, 11551.00
143.9560, 11595.00
145.1840, 11474.00
146.4120, 11433.00
147.6390, 11539.00
148.8670, 11428.00
150.0940, 11537.00
151.3210, 11459.00
152.5490, 11454.00
153.7750, 10837.00
155.0020, 10930.00
156.2290, 10557.00
157.4550, 10207.00
158.6810, 10005.00
159.9080, 9920.000
161.1340, 9618.000
162.3590, 9601.000
163.5850, 9835.000
164.8110, 9873.000
166.0360, 9697.000
167.2610, 9543.000
168.4860, 9606.000
169.7110, 9802.000
170.9360, 9889.000
172.1610, 9952.000
173.3850, 9765.000
174.6100, 9854.000
175.8340, 9941.000
177.0580, 9886.000
178.2820, 10073.00
179.5050, 10210.00
180.7290, 10288.00
181.9520, 10697.00
183.1760, 11034.00
184.3990, 11997.00
185.6220, 13113.00
186.8450, 14040.00
188.0670, 14620.00
189.2900, 15324.00
190.5120, 16316.00
191.7340, 18296.00
192.9560, 20570.00
194.1780, 22515.00
195.4000, 23500.00
196.6220, 23558.00
197.8430, 23142.00
199.0640, 22563.00
200.2860, 22384.00
201.5070, 22920.00
202.7270, 23790.00
203.9480, 24978.00
205.1690, 26507.00
206.3890, 28357.00
207.6090, 31004.00
208.8290, 33739.00
210.0490, 36921.00
211.2690, 39644.00
212.4890, 42047.00
213.7080, 43489.00
214.9280, 44041.00
216.1470, 43146.00
217.3660, 41176.00
218.5850, 38805.00
219.8030, 36029.00
221.0220, 33288.00
222.2400, 30921.00
223.4590, 28956.00
224.6770, 27398.57
225.8950, 26165.87
227.1120, 25439.00
228.3300, 24871.00
229.5480, 24807.00
230.7650, 25116.00
231.9820, 25507.00
233.1990, 26070.00
234.4160, 27207.00
235.6330, 28011.00
236.8490, 29382.00
238.0660, 30970.00
239.2820, 32373.00
240.4980, 33526.00
241.7140, 34734.00
242.9300, 35335.00
244.1460, 35306.00
245.3610, 34678.00
246.5770, 33652.00
247.7920, 32519.00
249.0070, 30510.00
250.2220, 28297.00
251.4370, 26204.00
252.6510, 24162.00
253.8660, 22214.00
255.0800, 20730.00
256.2940, 19467.00
257.5080, 18824.00
258.7220, 17988.04
259.9360, 17648.72
261.1490, 17132.00
262.3630, 17098.00
263.5760, 16925.00
264.7890, 16179.00
266.0020, 15648.00
267.2150, 15258.00
268.4270, 15255.00
269.6400, 15298.00
270.8520, 15284.00
272.0640, 15172.47
273.2760, 15056.00
274.4880, 14850.00
275.7000, 14627.00
276.9120, 14354.00
278.1230, 14127.00
279.3340, 13932.00
280.5450, 13647.00
281.7560, 13572.00
282.9670, 13328.00
284.1780, 13081.00
285.3880, 12998.00
286.5980, 12900.84
287.8090, 12768.19
289.0190, 12923.00
290.2290, 12623.00
291.4380, 12737.00
292.6480, 12754.00
293.8570, 12672.00
295.0670, 12653.00
296.2760, 12682.00
297.4850, 12740.00
298.6930, 12639.00
299.9020, 12667.00
301.1110, 12838.00
302.3190, 12871.00
303.5270, 13038.00
304.7350, 13222.00
305.9430, 13345.00
307.1510, 13604.00
308.3580, 13846.00
309.5660, 14280.00
310.7730, 14595.00
311.9800, 15074.00
313.1870, 15533.00
314.3940, 15811.00
315.6010, 15896.00
316.8070, 16114.00
318.0130, 15917.00
319.2200, 15880.00
320.4260, 15643.00
321.6310, 15598.00
322.8370, 15631.00
324.0430, 15615.00
325.2480, 15799.00
326.4540, 16004.00
327.6590, 16298.00
328.8640, 16735.00
330.0680, 17022.00
331.2730, 17569.00
332.4780, 17859.00
333.6820, 18500.00
334.8860, 19075.00
336.0900, 19400.00
337.2940, 19941.00
338.4980, 20394.00
339.7010, 20740.00
340.9050, 21049.00
342.1080, 21425.00
343.3110, 21640.00
344.5140, 21851.00
345.7170, 22149.00
346.9200, 22652.00
348.1220, 23191.00
349.3240, 23648.00
350.5270, 24625.00
351.7290, 25663.00
352.9310, 27075.00
354.1320, 28472.00
355.3340, 30504.00
356.5350, 32636.00
357.7370, 35388.00
358.9380, 38678.00
360.1390, 41897.00
361.3400, 45642.00
362.5400, 49421.00
363.7410, 52867.00
364.9410, 56155.00
366.1410, 58955.00
367.3410, 61078.00
368.5410, 62410.00
369.7410, 63043.00
370.9400, 61980.00
372.1400, 60158.00
373.3390, 57083.00
374.5380, 53875.00
375.7370, 49882.00
376.9360, 45638.00
378.1350, 41926.00
379.3330, 38522.00
380.5310, 35481.00
381.7300, 32575.00
382.9280, 30623.00
384.1260, 28874.00
385.3230, 27196.00
386.5210, 25691.00
387.7180, 24880.00
388.9160, 23992.00
390.1130, 23157.00
391.3100, 22633.00
392.5060, 21983.00
393.7030, 21546.00
394.9000, 21381.00
396.0960, 21067.00
397.2920, 20951.00
398.4880, 20619.00
399.6840, 20710.00
400.8800, 20586.00
402.0750, 20572.00
403.2710, 20416.00
404.4660, 20359.00
405.6610, 20082.00
406.8560, 19610.00
408.0510, 19360.00
409.2450, 19097.00
410.4400, 18394.00
411.6340, 18115.00
412.8280, 17365.00
414.0220, 16996.00
415.2160, 16507.00
416.4100, 16225.00
417.6030, 15827.00
418.7970, 15408.00
419.9900, 15076.00
421.1830, 14951.00
422.3760, 14701.00
423.5690, 14454.00
424.7610, 14425.00
425.9540, 14262.00
427.1460, 14341.00
428.3380, 14212.00
429.5300, 14169.00
430.7220, 14181.24
431.9140, 14218.00
433.1050, 14174.00
434.2970, 14172.00
435.4880, 14185.00
436.6790, 14075.00
437.8700, 14023.00
439.0610, 14093.00
440.2510, 14144.00
441.4420, 14160.88
442.6320, 14188.93
443.8220, 14250.00
445.0120, 14213.00
446.2020, 14254.00
447.3910, 14294.00
448.5810, 14373.00
449.7700, 14221.00
450.9600, 14377.00
452.1490, 14175.00
453.3370, 14260.00
454.5260, 14331.00
455.7150, 14302.00
456.9030, 14146.00
458.0910, 14070.00
459.2800, 14191.00
460.4670, 14210.00
461.6550, 14351.00
462.8430, 14483.00
464.0300, 14369.00
465.2180, 14659.00
466.4050, 14729.00
467.5920, 14838.00
468.7790, 15036.00
469.9650, 15324.00
471.1520, 15453.00
472.3380, 15785.00
473.5250, 16098.00
474.7110, 16237.00
475.8970, 16609.00
477.0820, 16855.00
478.2680, 17065.00
479.4540, 17166.00
480.6390, 17385.00
481.8240, 17502.00
483.0090, 17689.00
484.1940, 17729.00
485.3780, 17810.00
486.5630, 17974.00
487.7470, 17886.00
488.9320, 18036.00
490.1160, 18099.05
491.3000, 18124.00
492.4830, 18286.00
493.6670, 18344.00
494.8500, 18466.00
496.0340, 18481.45
497.2170, 18244.00
498.4000, 18434.00
499.5820, 18213.00
500.7650, 18073.00
501.9480, 17979.00
503.1300, 17752.00
504.3120, 17584.00
505.4940, 17241.00
506.6760, 16854.00
507.8580, 16812.00
509.0390, 16398.00
510.2210, 15919.00
511.4020, 15818.00
512.5830, 15619.00
513.7640, 15252.00
514.9450, 15055.00
516.1250, 14972.00
517.3060, 14807.00
518.4860, 14505.00
519.6660, 14563.00
520.8460, 14398.00
522.0260, 14295.00
523.2060, 14316.00
524.3850, 14290.02
525.5650, 14488.00
526.7440, 14474.00
527.9230, 14555.00
529.1020, 14828.00
530.2810, 14738.00
531.4590, 14971.00
532.6380, 14815.00
533.8160, 14775.00
534.9940, 14771.00
536.1720, 14731.00
537.3500, 14793.00
538.5270, 14656.00
539.7050, 14513.00
540.8820, 14518.00
542.0590, 14189.00
543.2360, 13937.00
544.4130, 13682.00
545.5900, 13581.00
546.7660, 13389.00
547.9430, 13276.00
549.1190, 12903.00
550.2950, 12988.00
551.4710, 12754.00
552.6470, 12580.00
553.8220, 12591.00
554.9980, 12515.00
556.1730, 12328.00
557.3480, 12122.00
558.5230, 12154.00
559.6980, 12010.00
560.8730, 12033.00
562.0470, 11900.00
563.2220, 11957.00
564.3960, 11921.00
565.5700, 11813.00
566.7440, 11755.00
567.9170, 11758.00
569.0910, 11798.00
570.2640, 11707.00
571.4380, 11802.00
572.6110, 11618.00
573.7840, 11780.00
574.9570, 11568.00
576.1290, 11795.00
577.3020, 11875.00
578.4740, 11904.00
579.6460, 11754.00
580.8180, 11675.00
581.9900, 11743.00
583.1620, 11636.00
584.3330, 11876.00
585.5040, 11806.00
586.6760, 11868.00
587.8470, 11876.00
589.0180, 11876.00
590.1880, 12059.00
591.3590, 12090.00
592.5290, 12148.00
593.7000, 12274.00
594.8700, 12300.00
596.0400, 12268.00
597.2090, 12413.00
598.3790, 12569.00
599.5490, 12594.00
600.7180, 12736.00
601.8870, 12666.00
603.0560, 12848.00
604.2250, 12909.00
605.3940, 12992.00
606.5620, 13077.00
607.7300, 13206.00
608.8990, 13303.00
610.0670, 13401.00
611.2350, 13421.00
612.4020, 13742.00
613.5700, 13838.00
614.7370, 13925.00
615.9050, 14263.00
617.0720, 14438.00
618.2390, 14647.00
619.4060, 14930.00
620.5720, 15143.00
621.7390, 15498.12
622.9050, 16026.00
624.0710, 16289.00
625.2370, 16684.00
626.4030, 17221.00
627.5690, 17487.00
628.7340, 17917.00
629.9000, 18153.00
631.0650, 18368.00
632.2300, 18261.00
633.3950, 18140.00
634.5600, 17785.00
635.7240, 17695.00
636.8890, 17336.00
638.0530, 17422.00
639.2170, 17394.00
640.3810, 17487.00
641.5450, 17704.00
642.7080, 17977.00
643.8720, 18429.00
645.0350, 18663.00
646.1980, 19447.00
647.3610, 19940.00
648.5240, 20632.00
649.6870, 21215.00
650.8490, 21777.00
652.0120, 22194.00
653.1740, 22518.00
654.3360, 23027.00
655.4980, 23507.00
656.6600, 23884.00
657.8210, 24343.00
658.9830, 24859.00
660.1440, 25352.00
661.3050, 25970.83
662.4660, 26647.00
663.6270, 27315.00
664.7870, 28019.50
665.9480, 28931.00
667.1080, 29466.00
668.2680, 30164.00
669.4280, 30881.00
670.5880, 31390.00
671.7480, 31765.00
672.9070, 31912.00
674.0670, 31592.00
675.2260, 31282.00
676.3850, 30692.00
677.5440, 29594.00
678.7030, 28791.00
679.8610, 27637.00
681.0200, 26721.00
682.1780, 25581.00
683.3360, 24968.00
684.4940, 24594.00
685.6520, 23771.00
686.8090, 23871.00
687.9670, 23753.00
689.1240, 24081.00
690.2810, 24380.00
691.4380, 24896.00
692.5950, 25350.00
693.7520, 26177.00
694.9080, 26909.00
696.0650, 27567.00
697.2210, 28880.00
698.3770, 29726.00
699.5330, 30789.00
700.6880, 31518.00
701.8440, 32291.00
702.9990, 33202.00
704.1550, 33029.00
705.3100, 33141.00
706.4650, 32702.00
707.6190, 31766.00
708.7740, 30528.00
709.9290, 28984.00
711.0830, 27174.00
712.2370, 25967.00
713.3910, 24520.00
714.5450, 22952.00
715.6980, 21578.00
716.8520, 20443.00
718.0050, 19457.00
719.1580, 18447.00
720.3110, 18013.00
721.4640, 17444.00
722.6170, 16787.00
723.7700, 16624.00
724.9220, 16357.00
726.0740, 16032.00
727.2260, 15705.00
728.3780, 15816.00
729.5300, 15670.00
730.6810, 15747.00
731.8330, 15760.00
732.9840, 15461.00
734.1350, 15590.00
735.2860, 15774.00
736.4370, 15601.00
737.5880, 15689.00
738.7380, 15721.00
739.8880, 15992.00
741.0390, 16040.00
742.1890, 16074.00
743.3380, 16547.00
744.4880, 16817.00
745.6380, 17185.00
746.7870, 17486.00
747.9360, 18024.00
749.0850, 18385.00
750.2340, 19037.00
751.3830, 19560.00
752.5310, 20386.00
753.6800, 20971.00
754.8280, 21603.00
755.9760, 22357.00
757.1240, 22853.00
758.2720, 23312.00
759.4190, 23734.00
760.5670, 23746.00
761.7140, 23702.00
762.8610, 23341.00
764.0080, 22774.00
765.1550, 22218.00
766.3020, 21776.00
767.4480, 21285.00
768.5950, 20583.00
769.7410, 20485.00
770.8870, 19980.00
772.0330, 19958.00
773.1780, 19812.00
774.3240, 19634.00
775.4690, 19373.00
776.6140, 19310.00
777.7590, 19106.00
778.9040, 19069.00
780.0490, 18860.00
781.1940, 18859.00
782.3380, 18640.00
783.4820, 18635.00
784.6260, 18560.00
785.7700, 18784.00
786.9140, 18643.00
788.0580, 18973.00
789.2010, 18921.00
790.3450, 19299.00
791.4880, 19285.00
792.6310, 19520.00
793.7730, 19513.00
794.9160, 19720.00
796.0590, 19825.00
797.2010, 19959.00
798.3430, 19729.00
799.4850, 19719.00
800.6270, 19536.00
801.7690, 19265.00
802.9100, 19295.00
804.0520, 18993.00
805.1930, 18769.00
806.3340, 18652.00
807.4750, 18163.00
808.6160, 18012.00
809.7560, 18008.00
810.8970, 18008.00
812.0370, 17816.00
813.1770, 17821.00
814.3170, 18059.00
815.4570, 17846.00
816.5960, 17808.00
817.7360, 18041.00
818.8750, 17727.00
820.0140, 17630.00
821.1530, 17472.00
822.2920, 17151.00
823.4310, 16913.00
824.5690, 16712.00
825.7070, 16150.00
826.8460, 15858.00
827.9840, 15454.00
829.1220, 15111.00
830.2590, 14677.00
831.3970, 14302.34
832.5340, 13818.00
833.6710, 13536.00
834.8080, 13065.00
835.9450, 12713.00
837.0820, 12406.00
838.2190, 12157.00
839.3550, 11844.00
840.4910, 11766.00
841.6270, 11456.00
842.7630, 11293.00
843.8990, 11163.00
845.0350, 10937.00
846.1700, 10889.00
847.3060, 10886.00
848.4410, 10684.00
849.5760, 10441.00
850.7100, 10534.00
851.8450, 10443.00
852.9800, 10357.00
854.1140, 10385.00
855.2480, 10266.00
856.3820, 10262.00
857.5160, 10123.00
858.6500, 10264.00
859.7830, 10312.00
860.9170, 10338.00
862.0500, 10216.00
863.1830, 10169.00
864.3160, 10169.00
865.4480, 10119.00
866.5810, 10199.00
867.7130, 10152.00
868.8460, 10197.00
869.9780, 10110.00
871.1100, 10083.00
872.2410, 10134.00
873.3730, 10247.00
874.5050, 10231.00
875.6360, 10221.00
876.7670, 10244.00
877.8980, 10266.00
879.0290, 10452.00
880.1590, 10380.00
881.2900, 10553.00
882.4200, 10415.00
883.5500, 10471.00
884.6800, 10403.00
885.8100, 10537.00
886.9400, 10625.00
888.0690, 10506.00
889.1990, 10739.00
890.3280, 10743.00
891.4570, 10781.00
892.5860, 10852.05
893.7140, 10823.07
894.8430, 10892.00
895.9710, 10826.00
897.1000, 10857.00
898.2280, 10928.00
899.3560, 10837.00
900.4830, 10946.00
901.6110, 11130.00
902.7380, 11067.51
903.8660, 11149.79
904.9930, 11085.00
906.1200, 11162.00
907.2460, 11170.00
908.3730, 11189.00
909.5000, 11311.00
910.6260, 11370.00
911.7520, 11344.00
912.8780, 11443.00
914.0040, 11552.00
915.1290, 11471.00
916.2550, 11608.00
917.3800, 11689.00
918.5050, 11636.00
919.6300, 11681.00
920.7550, 11792.00
921.8800, 11753.00
923.0040, 11752.00
924.1290, 11778.00
925.2530, 11825.12
926.3770, 11872.00
927.5010, 11989.00
928.6250, 12054.00
929.7480, 12161.00
930.8720, 12137.00
931.9950, 12088.00
933.1180, 12457.00
934.2410, 12413.00
935.3640, 12421.00
936.4860, 12677.00
937.6090, 12693.00
938.7310, 12805.00
939.8530, 13023.00
940.9750, 13027.00
942.0970, 13124.00
943.2180, 13336.00
944.3400, 13252.00
945.4610, 13590.00
946.5820, 13651.00
947.7030, 13811.00
948.8240, 13826.00
949.9450, 13956.00
951.0650, 13935.00
952.1860, 14331.00
953.3060, 14490.00
954.4260, 14546.00
955.5460, 14584.00
956.6650, 15037.00
957.7850, 15091.00
958.9040, 15231.00
960.0230, 15428.00
961.1420, 15628.00
962.2610, 15746.00
963.3800, 15910.79
964.4990, 15893.00
965.6170, 16161.00
966.7350, 16199.00
967.8530, 16291.00
968.9710, 16482.00
970.0890, 16464.00
971.2070, 16408.00
972.3240, 16677.00
973.4410, 16725.00
974.5580, 16626.00
975.6750, 16623.00
976.7920, 16699.00
977.9090, 16664.00
979.0250, 16654.39
980.1410, 16500.00
981.2580, 16519.00
982.3740, 16353.00
983.4890, 16135.00
984.6050, 16083.00
985.7200, 15856.00
986.8360, 15837.00
987.9510, 15793.00
989.0660, 15875.00
990.1810, 15757.09
991.2950, 15514.00
992.4100, 15528.00
993.5240, 15559.00
994.6390, 15345.00
995.7530, 15372.00
996.8660, 15333.00
997.9800, 15360.00
999.0940, 15301.00
1000.207, 15515.00
1001.320, 15517.00
1002.433, 15537.00
1003.546, 15775.00
1004.659, 15838.00
1005.772, 15949.00
1006.884, 16265.00
1007.996, 16428.00
1009.108, 16465.00
1010.220, 17048.00
1011.332, 17046.00
1012.444, 17553.00
1013.555, 17877.00
1014.666, 18082.00
1015.777, 18447.00
1016.888, 18849.00
1017.999, 19303.00
1019.110, 19475.00
1020.220, 19707.00
1021.331, 20322.00
1022.441, 20607.00
1023.551, 20974.00
1024.661, 21426.00
1025.770, 21741.00
1026.880, 22120.00
1027.989, 22302.00
1029.098, 22876.00
1030.207, 23430.00
1031.316, 23667.00
1032.425, 23879.00
1033.533, 24585.00
1034.642, 25052.00
1035.750, 25271.00
1036.858, 25703.00
1037.966, 25998.00
1039.073, 26411.00
1040.181, 26721.15
1041.288, 27001.54
1042.396, 27307.00
1043.503, 27493.00
1044.610, 27702.00
1045.716, 27861.00
1046.823, 28105.00
1047.929, 28214.53
1049.036, 28484.00
1050.142, 28421.00
1051.248, 28507.00
1052.353, 28544.00
1053.459, 28365.00
1054.564, 27682.00
1055.670, 27471.00
1056.775, 27023.00
1057.880, 26681.00
1058.985, 26366.00
1060.089, 26129.00
1061.194, 25983.00
1062.298, 25646.00
1063.402, 25621.00
1064.506, 25419.00
1065.610, 25180.00
1066.713, 25052.00
1067.817, 24897.63
1068.920, 24599.00
1070.023, 24686.00
1071.126, 24392.00
1072.229, 24310.00
1073.332, 24050.00
1074.435, 23614.00
1075.537, 23466.00
1076.639, 22902.00
1077.741, 22606.00
1078.843, 22327.00
1079.945, 21628.00
1081.046, 21363.00
1082.148, 21004.00
1083.249, 20418.00
1084.350, 20096.00
1085.451, 19744.00
1086.551, 19346.00
1087.652, 18768.00
1088.752, 18588.00
1089.853, 18173.00
1090.953, 17963.00
1092.053, 17752.00
1093.152, 17551.00
1094.252, 17176.00
1095.351, 17020.07
1096.451, 16709.00
1097.550, 16614.00
1098.649, 16495.00
1099.748, 16335.00
1100.846, 16144.00
1101.945, 16131.00
1103.043, 15903.00
1104.141, 15885.00
1105.239, 15825.00
1106.337, 15813.00
1107.434, 15836.00
1108.532, 15474.00
1109.629, 15648.00
1110.726, 15437.00
1111.823, 15542.00
1112.920, 15578.00
1114.017, 15334.00
1115.113, 15428.00
1116.210, 15432.00
1117.306, 15376.00
1118.402, 15284.00
1119.498, 15293.98
1120.593, 15134.00
1121.689, 15232.00
1122.784, 15188.00
1123.879, 15086.00
1124.974, 14850.00
1126.069, 14839.00
1127.164, 14472.00
1128.259, 14585.00
1129.353, 14255.00
1130.447, 14245.00
1131.541, 14012.00
1132.635, 14095.00
1133.729, 14043.00
1134.822, 13709.00
1135.916, 13616.00
1137.009, 13583.00
1138.102, 13346.00
1139.195, 13032.00
1140.288, 13046.00
1141.380, 13078.00
1142.473, 12753.00
1143.565, 12619.00
1144.657, 12552.00
1145.749, 12526.00
1146.841, 12522.00
1147.932, 12499.00
1149.024, 12453.33
1150.115, 12392.00
1151.206, 12332.00
1152.297, 12324.00
1153.388, 12224.00
1154.479, 12226.00
1155.569, 12258.00
1156.659, 12260.00
1157.750, 12167.00
1158.839, 12151.00
1159.929, 12174.00
1161.019, 12180.00
1162.108, 12280.00
1163.198, 12211.00
1164.287, 12142.00
1165.376, 12341.00
1166.465, 12100.00
1167.553, 12074.00
1168.642, 12245.00
1169.730, 12278.00
1170.818, 12040.00
1171.906, 12225.00
1172.994, 12087.00
1174.082, 12154.00
1175.170, 12009.00
1176.257, 12045.00
1177.344, 12133.00
1178.431, 12128.00
1179.518, 12113.00
1180.605, 12207.00
1181.691, 12118.00
1182.778, 12202.00
1183.864, 12178.00
1184.950, 12241.00
1186.036, 12298.00
1187.122, 12199.00
1188.207, 12089.00
1189.292, 12191.00
1190.378, 12265.00
1191.463, 12281.00
1192.548, 12303.40
1193.632, 12225.00
1194.717, 12246.00
1195.801, 12299.00
1196.886, 12217.00
1197.970, 12235.00
1199.054, 12279.00
1200.137, 12261.00
1201.221, 12336.08
1202.305, 12343.00
1203.388, 12417.00
1204.471, 12417.00
1205.554, 12348.00
1206.637, 12464.00
1207.719, 12401.00
1208.802, 12425.00
1209.884, 12594.00
1210.966, 12538.00
1212.048, 12631.00
1213.130, 12652.00
1214.212, 12747.00
1215.293, 12693.00
1216.374, 12653.00
1217.456, 12784.00
1218.536, 12890.00
1219.617, 12945.00
1220.698, 13025.24
1221.778, 13061.23
1222.859, 13110.00
1223.939, 13116.00
1225.019, 13123.00
1226.099, 13155.00
1227.178, 13089.00
1228.258, 13260.00
1229.337, 13315.00
1230.417, 13176.00
1231.496, 13331.00
1232.574, 13311.00
1233.653, 13341.00
1234.732, 13463.00
1235.810, 13276.00
1236.888, 13359.00
1237.966, 13230.00
1239.044, 13534.00
1240.122, 13407.00
1241.199, 13457.00
1242.277, 13261.00
1243.354, 13316.00
1244.431, 13529.00
1245.508, 13344.00
1246.585, 13410.00
1247.661, 13367.00
1248.738, 13491.00
1249.814, 13446.00
1250.890, 13369.00
1251.966, 13515.00
1253.042, 13480.00
1254.117, 13535.00
1255.193, 13424.00
1256.268, 13470.00
1257.343, 13474.00
1258.418, 13378.00
1259.493, 13580.00
1260.567, 13430.00
1261.642, 13378.00
1262.716, 13487.00
1263.790, 13430.00
1264.864, 13464.00
1265.938, 13505.00
1267.011, 13476.00
1268.085, 13425.00
1269.158, 13501.00
1270.231, 13441.00
1271.304, 13493.00
1272.377, 13470.00
1273.450, 13550.00
1274.522, 13385.00
1275.594, 13587.00
1276.666, 13297.00
1277.738, 13380.00
1278.810, 13552.00
1279.882, 13464.00
1280.953, 13444.00
1282.025, 13406.00
1283.096, 13593.00
1284.167, 13616.00
1285.238, 13606.00
1286.308, 13461.00
1287.379, 13474.00
1288.449, 13537.00
1289.519, 13417.00
1290.589, 13579.00
1291.659, 13692.00
1292.729, 13367.00
1293.798, 13436.00
1294.868, 13504.00
1295.937, 13487.00
1297.006, 13628.00
1298.075, 13509.00
1299.143, 13397.00
1300.212, 13545.00
1301.280, 13692.00
1302.348, 13473.00
1303.416, 13633.00
1304.484, 13530.00
1305.552, 13565.00
1306.620, 13557.00
1307.687, 13626.00
1308.754, 13613.00
1309.821, 13646.00
1310.888, 13630.00
1311.955, 13663.00
1313.021, 13623.00
1314.088, 13590.00
1315.154, 13699.00
1316.220, 13722.00
1317.286, 13572.00
1318.352, 13779.00
1319.417, 13658.00
1320.483, 13676.00
1321.548, 13785.00
1322.613, 13573.00
1323.678, 13614.00
1324.743, 13687.00
1325.807, 13586.00
1326.872, 13750.00
1327.936, 13790.00
1329.000, 13703.00
1330.064, 13666.00
1331.128, 13717.00
1332.191, 13815.00
1333.255, 13851.00
1334.318, 13779.00
1335.381, 13728.00
1336.444, 13729.00
1337.507, 13645.00
1338.569, 13716.00
1339.632, 13768.00
1340.694, 13763.00
1341.756, 13819.00
1342.818, 13882.00
1343.880, 13869.00
1344.941, 13897.12
1346.003, 13890.00
1347.064, 13869.00
1348.125, 13866.90
1349.186, 13678.00
1350.247, 13851.00
1351.308, 13885.00
1352.368, 13926.00
1353.428, 13743.00
1354.489, 13824.00
1355.549, 13774.00
1356.608, 13787.00
1357.668, 13960.00
1358.727, 13828.00
1359.787, 13816.00
1360.846, 13912.00
1361.905, 13837.00
1362.964, 13917.00
1364.022, 13976.00
1365.081, 14039.00
1366.139, 14051.00
1367.197, 14086.00
1368.255, 14016.00
1369.313, 14094.00
1370.371, 14198.00
1371.428, 14007.00
1372.486, 14118.00
1373.543, 14057.00
1374.600, 14200.00
1375.657, 14121.00
1376.713, 14346.00
1377.770, 14231.33
1378.826, 14203.00
1379.882, 14101.00
1380.938, 14266.00
1381.994, 14288.00
1383.050, 14189.00
1384.106, 14165.00
1385.161, 14195.00
1386.216, 14268.00
1387.271, 14115.00
1388.326, 14289.00
1389.381, 14296.00
1390.435, 14348.00
1391.490, 14249.00
1392.544, 14303.00
1393.598, 14309.00
1394.652, 14294.00
1395.705, 14308.00
1396.759, 14326.00
1397.812, 14208.00
1398.866, 14248.00
1399.919, 14390.00
1400.972, 14379.00
1402.024, 14205.00
1403.077, 14307.00
1404.129, 14238.00
1405.181, 14256.00
1406.233, 14374.00
1407.285, 14343.00
1408.337, 14233.00
1409.389, 14224.00
1410.440, 14193.00
1411.491, 14256.00
1412.542, 14228.00
1413.593, 14270.00
1414.644, 14264.00
1415.695, 14350.00
1416.745, 14262.00
1417.795, 14055.00
1418.845, 14262.00
1419.895, 14293.00
1420.945, 14110.00
1421.995, 14256.00
1423.044, 14232.00
1424.093, 14365.00
1425.142, 14228.00
1426.191, 14221.00
1427.240, 14245.00
1428.289, 14253.00
1429.337, 14270.00
1430.385, 14227.00
1431.433, 14129.00
1432.481, 14174.00
1433.529, 14117.00
1434.577, 14231.00
1435.624, 14191.00
1436.672, 14184.00
1437.719, 14296.00
1438.766, 14210.00
1439.812, 14180.00
1440.859, 14235.00
1441.905, 14202.00
1442.952, 14309.00
1443.998, 14302.18
1445.044, 14122.00
1446.090, 14334.00
1447.135, 14213.00
1448.181, 14204.00
1449.226, 14254.00
1450.271, 14220.00
1451.316, 14295.00
1452.361, 14235.00
1453.405, 14201.00
1454.450, 14294.00
1455.494, 14275.00
1456.538, 14289.00
1457.582, 14265.00
1458.626, 14269.00
1459.670, 14295.00
1460.713, 14325.00
1461.757, 14391.00
1462.800, 14437.00
1463.843, 14314.00
1464.886, 14250.00
1465.928, 14313.00
1466.971, 14347.00
1468.013, 14232.00
1469.055, 14373.00
1470.097, 14389.00
1471.139, 14374.00
1472.181, 14355.00
1473.222, 14519.00
1474.263, 14421.00
1475.305, 14502.00
1476.346, 14406.00
1477.386, 14441.00
1478.427, 14522.00
1479.468, 14492.00
1480.508, 14577.00
1481.548, 14491.00
1482.588, 14494.00
1483.628, 14496.00
1484.668, 14743.00
1485.707, 14561.00
1486.747, 14713.00
1487.786, 14448.00
1488.825, 14582.00
1489.864, 14699.00
1490.902, 14577.00
1491.941, 14755.00
1492.979, 14663.00
1494.017, 14643.00
1495.055, 14709.00
1496.093, 14818.00
1497.131, 14692.00
1498.168, 14809.00
1499.206, 14930.00
1500.243, 14857.00
1501.280, 14754.00
1502.317, 15007.00
1503.354, 15031.00
1504.390, 14888.00
1505.426, 15129.00
1506.463, 15112.00
1507.499, 14966.00
1508.535, 15200.00
1509.570, 15158.00
1510.606, 15241.00
1511.641, 15170.00
1512.676, 15201.00
1513.711, 15153.00
1514.746, 15198.00
1515.781, 15273.00
1516.816, 15125.00
1517.850, 15166.00
1518.884, 15127.00
1519.918, 15292.00
1520.952, 15124.00
1521.986, 15412.00
1523.019, 15379.00
1524.053, 15081.00
1525.086, 15318.00
1526.119, 15259.00
1527.152, 14987.00
1528.185, 15241.00
1529.217, 15227.00
1530.250, 15143.00
1531.282, 15178.00
1532.314, 15227.00
1533.346, 15139.00
1534.377, 15113.00
1535.409, 15035.00
1536.440, 15030.00
1537.472, 15089.00
1538.503, 14967.00
1539.534, 15093.00
1540.564, 14981.00
1541.595, 14944.00
1542.625, 14995.00
1543.656, 15044.00
1544.686, 15027.47
1545.716, 14954.00
1546.745, 15013.00
1547.775, 15020.00
1548.804, 14967.00
1549.834, 15054.00
1550.863, 15051.00
1551.892, 15115.00
1552.920, 15151.00
1553.949, 15355.00
1554.977, 15410.00
1556.006, 15213.00
1557.034, 15081.00
1558.062, 15166.00
1559.089, 14819.00
1560.117, 15137.00
1561.144, 14948.00
1562.172, 15022.00
1563.199, 14880.00
1564.226, 15193.00
1565.252, 15114.00
1566.279, 15111.00
1567.305, 14959.00
1568.332, 15113.00
1569.358, 14863.00
1570.384, 15032.00
1571.409, 15008.00
1572.435, 14991.00
##END=



