##NAMES=Dravite
##RRUFFID=R050077
##IDEAL CHEMISTRY=NaMg_3_Al_6_(Si_6_O_18_)(BO_3_)_3_(OH)_3_OH
##LOCALITY=Yinnietharra Station, Western Australia, Australia
##OWNER=RRUFF
##SOURCE=Rock Currier
##DESCRIPTION=Dark brown euhedral prismatic single crystal
##STATUS=The identification of this mineral has been confirmed by X-ray diffraction and chemical analysis
##URL=rruff.info/R050077
##MEASURED CHEMISTRY=(Na_0.783_Ca_0.217_)(Mg_0.771_Fe^2+^_0.221_Ti^4+^_0.008_)_3_(Al_0.956_Mg_0.044_)_6_(BO_3_)_3_[Si_6_O_18_]((OH)_0.914_F_0.086_)_4_
##PIN_ID=L00540
##ORIENTATION=Laser parallel to -a* (-1 0 0). Fiducial mark perpendicular to laser is parallel to c [0 0 1]
118.1340, 20511.00
119.3650, 20142.00
120.5960, 20079.00
121.8270, 20507.00
123.0580, 20271.20
124.2880, 20194.23
125.5190, 20336.00
126.7490, 20070.00
127.9790, 20105.00
129.2090, 20753.00
130.4390, 20910.00
131.6680, 21045.00
132.8980, 20892.00
134.1270, 20899.00
135.3560, 21187.00
136.5850, 21599.00
137.8140, 22271.00
139.0430, 22929.00
140.2710, 22903.00
141.5000, 22299.00
142.7280, 21864.00
143.9560, 21817.00
145.1840, 21810.00
146.4120, 21640.28
147.6390, 22091.00
148.8670, 21816.00
150.0940, 21808.00
151.3210, 21727.55
152.5490, 21567.41
153.7750, 21324.00
155.0020, 21137.00
156.2290, 20924.00
157.4550, 20281.00
158.6810, 20132.00
159.9080, 19891.00
161.1340, 20029.00
162.3590, 20237.00
163.5850, 20601.00
164.8110, 20949.00
166.0360, 20527.00
167.2610, 20091.00
168.4860, 20451.00
169.7110, 20587.00
170.9360, 20851.00
172.1610, 20677.00
173.3850, 20309.00
174.6100, 20470.00
175.8340, 20503.00
177.0580, 20510.00
178.2820, 20745.00
179.5050, 20979.00
180.7290, 21226.00
181.9520, 21258.00
183.1760, 21569.00
184.3990, 22018.00
185.6220, 22544.00
186.8450, 23084.00
188.0670, 23554.38
189.2900, 24052.00
190.5120, 24560.00
191.7340, 25224.00
192.9560, 25778.00
194.1780, 26956.00
195.4000, 27833.00
196.6220, 29069.00
197.8430, 30472.00
199.0640, 31759.00
200.2860, 34326.00
201.5070, 36544.00
202.7270, 38598.00
203.9480, 39430.00
205.1690, 40044.00
206.3890, 40625.00
207.6090, 41475.00
208.8290, 41879.00
210.0490, 42124.00
211.2690, 41780.00
212.4890, 41279.00
213.7080, 40515.00
214.9280, 39523.00
216.1470, 38614.00
217.3660, 37413.00
218.5850, 36656.00
219.8030, 35761.00
221.0220, 35283.00
222.2400, 34539.00
223.4590, 34549.00
224.6770, 34593.00
225.8950, 35105.00
227.1120, 35494.00
228.3300, 36319.00
229.5480, 37479.00
230.7650, 38770.00
231.9820, 40429.00
233.1990, 41787.00
234.4160, 42428.00
235.6330, 43499.00
236.8490, 43701.00
238.0660, 43770.00
239.2820, 43147.00
240.4980, 42385.00
241.7140, 41013.00
242.9300, 39199.00
244.1460, 37510.00
245.3610, 35691.00
246.5770, 33785.00
247.7920, 32202.00
249.0070, 30413.00
250.2220, 28860.00
251.4370, 27704.00
252.6510, 26307.77
253.8660, 25980.51
255.0800, 25558.27
256.2940, 25045.74
257.5080, 24172.51
258.7220, 23765.06
259.9360, 23170.93
261.1490, 22569.61
262.3630, 22227.69
263.5760, 21519.00
264.7890, 21093.00
266.0020, 20826.00
267.2150, 20503.00
268.4270, 20217.00
269.6400, 19983.00
270.8520, 19721.00
272.0640, 19352.00
273.2760, 19121.37
274.4880, 18767.00
275.7000, 18575.00
276.9120, 18322.00
278.1230, 18061.00
279.3340, 17781.00
280.5450, 17732.00
281.7560, 17645.00
282.9670, 17333.82
284.1780, 17220.98
285.3880, 16845.00
286.5980, 16823.00
287.8090, 16759.00
289.0190, 16627.00
290.2290, 16587.00
291.4380, 16561.00
292.6480, 16726.00
293.8570, 16758.00
295.0670, 16800.00
296.2760, 16860.00
297.4850, 16996.00
298.6930, 17132.00
299.9020, 17326.00
301.1110, 17515.00
302.3190, 17901.00
303.5270, 18288.00
304.7350, 18687.00
305.9430, 18860.00
307.1510, 19188.00
308.3580, 19456.00
309.5660, 19698.00
310.7730, 19461.00
311.9800, 19114.00
313.1870, 19185.00
314.3940, 19163.00
315.6010, 19028.00
316.8070, 19009.20
318.0130, 19062.00
319.2200, 18882.00
320.4260, 19092.00
321.6310, 19172.00
322.8370, 19107.00
324.0430, 19474.00
325.2480, 19638.00
326.4540, 20004.00
327.6590, 20165.00
328.8640, 20515.00
330.0680, 21636.00
331.2730, 22560.00
332.4780, 23069.00
333.6820, 23175.00
334.8860, 22848.00
336.0900, 23090.00
337.2940, 23562.00
338.4980, 23950.00
339.7010, 24322.00
340.9050, 24693.13
342.1080, 24741.00
343.3110, 25421.00
344.5140, 25561.00
345.7170, 26032.00
346.9200, 26566.00
348.1220, 27195.00
349.3240, 28335.00
350.5270, 29710.00
351.7290, 31051.00
352.9310, 32907.00
354.1320, 35066.00
355.3340, 37674.00
356.5350, 40511.00
357.7370, 44143.00
358.9380, 47487.00
360.1390, 50521.00
361.3400, 53857.00
362.5400, 56343.00
363.7410, 57496.00
364.9410, 57927.00
366.1410, 57791.00
367.3410, 56987.00
368.5410, 55192.00
369.7410, 52806.00
370.9400, 50612.00
372.1400, 47939.00
373.3390, 45565.00
374.5380, 42973.00
375.7370, 40698.00
376.9360, 38370.00
378.1350, 36468.00
379.3330, 34442.00
380.5310, 32579.00
381.7300, 31212.00
382.9280, 30371.00
384.1260, 29267.00
385.3230, 28561.00
386.5210, 27751.00
387.7180, 27450.00
388.9160, 27050.00
390.1130, 26590.58
391.3100, 26070.00
392.5060, 25993.00
393.7030, 25715.00
394.9000, 25626.00
396.0960, 25536.00
397.2920, 25245.00
398.4880, 25454.00
399.6840, 25016.67
400.8800, 24659.00
402.0750, 24266.00
403.2710, 24260.00
404.4660, 23752.00
405.6610, 23508.00
406.8560, 22946.00
408.0510, 22572.00
409.2450, 22168.00
410.4400, 21725.00
411.6340, 21422.00
412.8280, 20968.00
414.0220, 20557.00
415.2160, 20284.00
416.4100, 19953.00
417.6030, 19800.00
418.7970, 19804.00
419.9900, 19285.00
421.1830, 19688.00
422.3760, 19127.00
423.5690, 18848.00
424.7610, 18654.00
425.9540, 18289.00
427.1460, 18256.00
428.3380, 18281.00
429.5300, 17915.00
430.7220, 18232.00
431.9140, 17901.00
433.1050, 17695.00
434.2970, 17871.00
435.4880, 17755.00
436.6790, 17774.00
437.8700, 17715.00
439.0610, 17893.00
440.2510, 17905.00
441.4420, 17919.00
442.6320, 17751.00
443.8220, 18116.00
445.0120, 18010.00
446.2020, 18300.00
447.3910, 18345.00
448.5810, 18400.00
449.7700, 18656.00
450.9600, 19206.00
452.1490, 19622.00
453.3370, 20489.00
454.5260, 21226.00
455.7150, 22382.00
456.9030, 23565.00
458.0910, 25102.00
459.2800, 27396.00
460.4670, 26738.00
461.6550, 26430.00
462.8430, 25443.00
464.0300, 24332.00
465.2180, 23641.00
466.4050, 22939.00
467.5920, 22252.00
468.7790, 21826.00
469.9650, 21460.00
471.1520, 21278.00
472.3380, 21018.00
473.5250, 21069.00
474.7110, 21121.00
475.8970, 21270.00
477.0820, 21203.00
478.2680, 21544.00
479.4540, 21700.00
480.6390, 21793.25
481.8240, 21824.00
483.0090, 22046.00
484.1940, 22173.00
485.3780, 22286.00
486.5630, 22492.00
487.7470, 22430.00
488.9320, 22469.00
490.1160, 22648.00
491.3000, 22532.00
492.4830, 22601.00
493.6670, 22550.00
494.8500, 22321.00
496.0340, 22267.00
497.2170, 22086.00
498.4000, 21976.00
499.5820, 21877.00
500.7650, 21605.22
501.9480, 21278.00
503.1300, 21107.00
504.3120, 20714.00
505.4940, 20520.00
506.6760, 20195.00
507.8580, 20047.00
509.0390, 19850.00
510.2210, 19710.00
511.4020, 19281.00
512.5830, 19261.00
513.7640, 19196.00
514.9450, 18814.00
516.1250, 18828.00
517.3060, 18487.00
518.4860, 18617.00
519.6660, 18476.00
520.8460, 18568.00
522.0260, 18826.00
523.2060, 18641.00
524.3850, 18715.00
525.5650, 18862.00
526.7440, 18841.00
527.9230, 18860.00
529.1020, 19157.00
530.2810, 19169.00
531.4590, 19078.00
532.6380, 19267.00
533.8160, 19129.00
534.9940, 19220.00
536.1720, 19077.00
537.3500, 19154.00
538.5270, 19058.00
539.7050, 18982.00
540.8820, 18935.85
542.0590, 18800.00
543.2360, 18752.00
544.4130, 18564.00
545.5900, 18456.00
546.7660, 18547.00
547.9430, 18330.00
549.1190, 18180.00
550.2950, 18221.00
551.4710, 18150.00
552.6470, 17965.75
553.8220, 17946.00
554.9980, 17739.00
556.1730, 17536.00
557.3480, 17752.00
558.5230, 17529.00
559.6980, 17501.00
560.8730, 17511.00
562.0470, 17447.00
563.2220, 17368.00
564.3960, 17141.00
565.5700, 17056.00
566.7440, 17281.00
567.9170, 17026.00
569.0910, 16903.00
570.2640, 17166.00
571.4380, 17232.00
572.6110, 16918.00
573.7840, 17117.00
574.9570, 17015.00
576.1290, 17059.00
577.3020, 16869.00
578.4740, 16875.00
579.6460, 16812.00
580.8180, 16916.00
581.9900, 16772.00
583.1620, 16862.00
584.3330, 16789.80
585.5040, 16803.53
586.6760, 16743.00
587.8470, 16769.00
589.0180, 16906.00
590.1880, 16730.00
591.3590, 16775.00
592.5290, 16948.00
593.7000, 16735.00
594.8700, 16771.00
596.0400, 17074.00
597.2090, 17200.00
598.3790, 17030.00
599.5490, 16996.00
600.7180, 16834.00
601.8870, 17102.00
603.0560, 17127.00
604.2250, 17062.00
605.3940, 17042.00
606.5620, 17207.00
607.7300, 17183.00
608.8990, 17300.00
610.0670, 17472.38
611.2350, 17714.00
612.4020, 17825.00
613.5700, 18071.23
614.7370, 18209.32
615.9050, 18481.00
617.0720, 18767.00
618.2390, 19115.00
619.4060, 19561.00
620.5720, 20045.00
621.7390, 20551.00
622.9050, 21295.00
624.0710, 21843.00
625.2370, 22255.00
626.4030, 22759.00
627.5690, 22990.00
628.7340, 23096.00
629.9000, 23045.00
631.0650, 23045.00
632.2300, 22974.00
633.3950, 22770.00
634.5600, 22828.00
635.7240, 22687.00
636.8890, 22971.00
638.0530, 22963.00
639.2170, 23321.00
640.3810, 23616.00
641.5450, 24032.00
642.7080, 24383.00
643.8720, 24702.51
645.0350, 24940.76
646.1980, 25170.16
647.3610, 25375.66
648.5240, 25490.00
649.6870, 25681.00
650.8490, 25767.00
652.0120, 25834.00
653.1740, 25953.00
654.3360, 26123.00
655.4980, 25905.00
656.6600, 25869.00
657.8210, 26192.46
658.9830, 26677.00
660.1440, 26840.00
661.3050, 27288.00
662.4660, 27595.00
663.6270, 28112.00
664.7870, 28680.00
665.9480, 28865.00
667.1080, 29273.00
668.2680, 29716.00
669.4280, 29318.00
670.5880, 29427.00
671.7480, 29195.00
672.9070, 28761.00
674.0670, 28838.00
675.2260, 27927.00
676.3850, 27742.00
677.5440, 27182.00
678.7030, 26999.00
679.8610, 26637.00
681.0200, 26285.00
682.1780, 26092.00
683.3360, 26021.05
684.4940, 26185.00
685.6520, 26215.00
686.8090, 26651.00
687.9670, 27083.00
689.1240, 29390.00
690.2810, 28198.00
691.4380, 29244.00
692.5950, 31556.00
693.7520, 30961.00
694.9080, 31385.00
696.0650, 32154.00
697.2210, 32484.00
698.3770, 32562.00
699.5330, 32325.00
700.6880, 32088.00
701.8440, 30915.00
702.9990, 30092.00
704.1550, 29038.00
705.3100, 28112.00
706.4650, 26898.00
707.6190, 25998.00
708.7740, 24788.00
709.9290, 23985.00
711.0830, 23488.00
712.2370, 22644.00
713.3910, 22236.00
714.5450, 21830.00
715.6980, 21519.00
716.8520, 21057.00
718.0050, 21101.00
719.1580, 20718.00
720.3110, 20808.00
721.4640, 20752.00
722.6170, 20564.00
723.7700, 20292.00
724.9220, 20313.00
726.0740, 20384.00
727.2260, 20503.00
728.3780, 20514.50
729.5300, 20548.20
730.6810, 20602.00
731.8330, 20597.00
732.9840, 20660.00
734.1350, 20798.00
735.2860, 20832.00
736.4370, 20998.00
737.5880, 20967.00
738.7380, 21325.00
739.8880, 21578.00
741.0390, 21774.00
742.1890, 21795.00
743.3380, 22044.00
744.4880, 22199.00
745.6380, 22317.00
746.7870, 22637.00
747.9360, 22716.00
749.0850, 22915.00
750.2340, 23114.00
751.3830, 22793.00
752.5310, 22961.00
753.6800, 23283.00
754.8280, 22962.00
755.9760, 22970.00
757.1240, 22720.00
758.2720, 22340.00
759.4190, 22433.00
760.5670, 22408.00
761.7140, 22014.00
762.8610, 21749.00
764.0080, 21554.00
765.1550, 21356.50
766.3020, 21266.88
767.4480, 21174.00
768.5950, 21124.00
769.7410, 21162.00
770.8870, 21023.00
772.0330, 20917.00
773.1780, 20837.00
774.3240, 20684.00
775.4690, 20698.00
776.6140, 20602.00
777.7590, 20504.00
778.9040, 20502.00
780.0490, 20274.00
781.1940, 20289.00
782.3380, 20199.00
783.4820, 20000.00
784.6260, 19938.00
785.7700, 20124.00
786.9140, 19779.00
788.0580, 18972.00
789.2010, 19066.00
790.3450, 18434.00
791.4880, 18024.00
792.6310, 17784.00
793.7730, 17427.00
794.9160, 17167.00
796.0590, 16896.00
797.2010, 16705.00
798.3430, 16543.00
799.4850, 16494.00
800.6270, 16191.00
801.7690, 16256.00
802.9100, 16149.00
804.0520, 16153.00
805.1930, 16355.00
806.3340, 16167.00
807.4750, 16099.00
808.6160, 16026.00
809.7560, 15747.00
810.8970, 15899.00
812.0370, 15783.00
813.1770, 15524.00
814.3170, 15285.00
815.4570, 14928.00
816.5960, 14761.00
817.7360, 14667.00
818.8750, 14435.00
820.0140, 14015.00
821.1530, 13841.00
822.2920, 13793.00
823.4310, 13584.00
824.5690, 13555.00
825.7070, 13347.00
826.8460, 13265.00
827.9840, 13022.00
829.1220, 12882.00
830.2590, 12773.00
831.3970, 12778.00
832.5340, 12641.64
833.6710, 12554.00
834.8080, 12491.00
835.9450, 12309.00
837.0820, 12277.00
838.2190, 12221.00
839.3550, 12208.00
840.4910, 12124.73
841.6270, 12101.00
842.7630, 11932.00
843.8990, 11967.00
845.0350, 11805.00
846.1700, 11886.00
847.3060, 11822.86
848.4410, 11729.00
849.5760, 11697.00
850.7100, 11973.00
851.8450, 11779.00
852.9800, 11839.00
854.1140, 11862.00
855.2480, 11760.00
856.3820, 11787.00
857.5160, 11861.00
858.6500, 11834.00
859.7830, 11831.00
860.9170, 11855.00
862.0500, 11882.00
863.1830, 11753.00
864.3160, 11830.00
865.4480, 11867.00
866.5810, 12003.00
867.7130, 12062.00
868.8460, 11937.00
869.9780, 12049.00
871.1100, 12022.00
872.2410, 11960.00
873.3730, 11941.00
874.5050, 11945.00
875.6360, 11828.00
876.7670, 12195.00
877.8980, 12001.00
879.0290, 12171.00
880.1590, 12653.00
881.2900, 12261.00
882.4200, 12113.00
883.5500, 12237.00
884.6800, 12181.00
885.8100, 12191.00
886.9400, 12310.00
888.0690, 12411.00
889.1990, 12428.00
890.3280, 12454.00
891.4570, 12511.00
892.5860, 12532.62
893.7140, 12572.29
894.8430, 12648.00
895.9710, 12665.00
897.1000, 12816.00
898.2280, 12922.00
899.3560, 12776.00
900.4830, 12785.60
901.6110, 13052.26
902.7380, 13223.46
903.8660, 13304.43
904.9930, 13024.63
906.1200, 13210.62
907.2460, 13209.90
908.3730, 13201.57
909.5000, 13453.12
910.6260, 13225.74
911.7520, 13473.13
912.8780, 13530.99
914.0040, 13675.60
915.1290, 13632.34
916.2550, 13647.14
917.3800, 13709.00
918.5050, 13780.00
919.6300, 13854.00
920.7550, 13831.00
921.8800, 13857.00
923.0040, 13931.00
924.1290, 13992.00
925.2530, 14045.97
926.3770, 14115.00
927.5010, 14165.00
928.6250, 14202.00
929.7480, 14246.00
930.8720, 14309.00
931.9950, 14371.00
933.1180, 14507.00
934.2410, 14598.00
935.3640, 14813.00
936.4860, 14883.00
937.6090, 14887.00
938.7310, 15061.00
939.8530, 15116.00
940.9750, 15363.00
942.0970, 15401.00
943.2180, 15541.00
944.3400, 15724.00
945.4610, 15657.00
946.5820, 16018.00
947.7030, 16206.00
948.8240, 16381.00
949.9450, 16432.00
951.0650, 16665.00
952.1860, 16691.00
953.3060, 16949.00
954.4260, 17143.00
955.5460, 17217.00
956.6650, 17265.00
957.7850, 17558.00
958.9040, 17661.00
960.0230, 17757.00
961.1420, 18020.00
962.2610, 18144.00
963.3800, 18139.00
964.4990, 18583.00
965.6170, 18446.00
966.7350, 18483.00
967.8530, 18541.00
968.9710, 18356.00
970.0890, 18481.00
971.2070, 18728.00
972.3240, 18740.00
973.4410, 18699.00
974.5580, 18861.01
975.6750, 18945.24
976.7920, 18977.43
977.9090, 18960.37
979.0250, 18746.59
980.1410, 18786.88
981.2580, 18725.31
982.3740, 18659.60
983.4890, 18735.67
984.6050, 18569.00
985.7200, 18499.00
986.8360, 18497.00
987.9510, 18582.00
989.0660, 18582.00
990.1810, 18508.40
991.2950, 18543.00
992.4100, 18397.00
993.5240, 18320.00
994.6390, 18439.00
995.7530, 18413.31
996.8660, 18490.00
997.9800, 18611.00
999.0940, 18637.00
1000.207, 18828.00
1001.320, 18946.00
1002.433, 18756.00
1003.546, 19186.00
1004.659, 19522.00
1005.772, 19638.00
1006.884, 19571.00
1007.996, 20123.00
1009.108, 20335.00
1010.220, 20707.00
1011.332, 21015.00
1012.444, 21203.00
1013.555, 21621.00
1014.666, 22026.00
1015.777, 22111.00
1016.888, 22728.00
1017.999, 22968.00
1019.110, 23447.00
1020.220, 23793.00
1021.331, 23861.00
1022.441, 24012.00
1023.551, 24414.00
1024.661, 24817.00
1025.770, 24693.00
1026.880, 25190.00
1027.989, 25352.00
1029.098, 25083.00
1030.207, 25430.00
1031.316, 25379.00
1032.425, 25426.00
1033.533, 25646.00
1034.642, 25535.00
1035.750, 25412.00
1036.858, 25305.00
1037.966, 25311.48
1039.073, 25398.00
1040.181, 25391.00
1041.288, 25430.00
1042.396, 25535.00
1043.503, 25528.00
1044.610, 25404.00
1045.716, 25474.00
1046.823, 25284.00
1047.929, 25850.00
1049.036, 25248.00
1050.142, 25273.80
1051.248, 24675.00
1052.353, 24781.00
1053.459, 24695.00
1054.564, 24359.00
1055.670, 24122.00
1056.775, 23909.00
1057.880, 23645.00
1058.985, 23419.82
1060.089, 23242.00
1061.194, 22991.00
1062.298, 22744.00
1063.402, 22628.00
1064.506, 22463.00
1065.610, 22261.00
1066.713, 22133.00
1067.817, 21835.00
1068.920, 21397.00
1070.023, 21340.00
1071.126, 20967.00
1072.229, 20697.00
1073.332, 20500.00
1074.435, 20247.00
1075.537, 19745.00
1076.639, 19614.00
1077.741, 19327.00
1078.843, 19346.00
1079.945, 18875.00
1081.046, 18511.00
1082.148, 18296.00
1083.249, 18244.00
1084.350, 17961.00
1085.451, 17834.00
1086.551, 17452.00
1087.652, 17281.00
1088.752, 17411.00
1089.853, 17055.00
1090.953, 16924.00
1092.053, 16814.00
1093.152, 16598.00
1094.252, 16465.00
1095.351, 16649.00
1096.451, 16526.00
1097.550, 16591.00
1098.649, 16277.00
1099.748, 16101.00
1100.846, 16167.00
1101.945, 16217.00
1103.043, 15954.00
1104.141, 15718.00
1105.239, 16008.00
1106.337, 15762.00
1107.434, 15493.00
1108.532, 15802.00
1109.629, 15496.00
1110.726, 15529.00
1111.823, 15510.00
1112.920, 15442.00
1114.017, 15382.30
1115.113, 15290.00
1116.210, 15181.00
1117.306, 15189.00
1118.402, 15096.00
1119.498, 15037.00
1120.593, 14821.00
1121.689, 15041.00
1122.784, 14771.00
1123.879, 14577.00
1124.974, 14725.00
1126.069, 14460.27
1127.164, 14386.00
1128.259, 14195.00
1129.353, 14240.00
1130.447, 14075.00
1131.541, 14051.00
1132.635, 14016.00
1133.729, 13903.00
1134.822, 13900.59
1135.916, 13886.82
1137.009, 13829.00
1138.102, 13871.00
1139.195, 13820.00
1140.288, 13714.00
1141.380, 13711.00
1142.473, 13714.00
1143.565, 13544.00
1144.657, 13571.00
1145.749, 13573.00
1146.841, 13461.00
1147.932, 13657.00
1149.024, 13496.00
1150.115, 13668.00
1151.206, 13528.00
1152.297, 13543.00
1153.388, 13561.00
1154.479, 13570.00
1155.569, 13533.00
1156.659, 13418.00
1157.750, 13542.00
1158.839, 13537.00
1159.929, 13588.00
1161.019, 13443.00
1162.108, 13460.00
1163.198, 13347.00
1164.287, 13366.81
1165.376, 13413.00
1166.465, 13419.00
1167.553, 13312.00
1168.642, 13327.00
1169.730, 13287.00
1170.818, 13483.00
1171.906, 13342.00
1172.994, 13353.00
1174.082, 13356.29
1175.170, 13101.48
1176.257, 13216.81
1177.344, 13280.10
1178.431, 13294.14
1179.518, 13111.43
1180.605, 13182.78
1181.691, 13152.32
1182.778, 13117.68
1183.864, 13224.79
1184.950, 13070.70
1186.036, 13175.57
1187.122, 13177.07
1188.207, 13225.87
1189.292, 13172.24
1190.378, 13150.24
1191.463, 13230.72
1192.548, 13167.00
1193.632, 13280.00
1194.717, 13181.00
1195.801, 13179.00
1196.886, 13180.00
1197.970, 13009.00
1199.054, 13259.00
1200.137, 13142.00
1201.221, 13038.00
1202.305, 13096.00
1203.388, 13168.00
1204.471, 13211.00
1205.554, 13207.00
1206.637, 12983.00
1207.719, 13036.00
1208.802, 13029.00
1209.884, 13115.00
1210.966, 13144.27
1212.048, 13206.42
1213.130, 13242.00
1214.212, 13333.00
1215.293, 13388.00
1216.374, 13425.00
1217.456, 13519.00
1218.536, 13511.00
1219.617, 13495.00
1220.698, 13514.62
1221.778, 13450.00
1222.859, 13478.00
1223.939, 13470.00
1225.019, 13433.00
1226.099, 13526.12
1227.178, 13675.00
1228.258, 13675.00
1229.337, 13735.00
1230.417, 13770.00
1231.496, 13840.00
1232.574, 13926.00
1233.653, 13936.94
1234.732, 14055.00
1235.810, 13990.00
1236.888, 13952.00
1237.966, 13997.00
1239.044, 13978.00
1240.122, 14081.00
1241.199, 14141.00
1242.277, 14164.00
1243.354, 14126.00
1244.431, 14079.00
1245.508, 14119.00
1246.585, 14111.00
1247.661, 14096.00
1248.738, 14178.00
1249.814, 14134.00
1250.890, 14153.00
1251.966, 14125.00
1253.042, 14175.00
1254.117, 14075.00
1255.193, 14224.00
1256.268, 14134.00
1257.343, 13995.00
1258.418, 14295.00
1259.493, 14100.00
1260.567, 14098.00
1261.642, 14296.00
1262.716, 14003.00
1263.790, 14145.00
1264.864, 14322.00
1265.938, 14155.00
1267.011, 14208.00
1268.085, 14185.00
1269.158, 14063.00
1270.231, 14136.00
1271.304, 13999.00
1272.377, 14070.87
1273.450, 14189.73
1274.522, 14256.54
1275.594, 14274.10
1276.666, 14094.92
1277.738, 14169.79
1278.810, 14142.85
1279.882, 14111.73
1280.953, 14222.37
1282.025, 14071.80
1283.096, 14180.18
1284.167, 14185.20
1285.238, 14237.53
1286.308, 14187.41
1287.379, 14168.93
1288.449, 14252.93
1289.519, 14280.18
1290.589, 14218.27
1291.659, 14273.60
1292.729, 14119.46
1293.798, 14149.13
1294.868, 14258.12
1295.937, 14201.35
1297.006, 14258.56
1298.075, 14272.36
1299.143, 14088.90
1300.212, 14248.50
1301.280, 14259.73
1302.348, 14118.63
1303.416, 14266.47
1304.484, 14146.38
1305.552, 14121.92
1306.620, 14169.43
1307.687, 14141.92
1308.754, 14232.69
1309.821, 14209.51
1310.888, 14176.15
1311.955, 14187.21
1313.021, 14072.37
1314.088, 14191.12
1315.154, 14150.31
1316.220, 14188.81
1317.286, 14245.29
1318.352, 14164.11
1319.417, 14228.67
1320.483, 14067.23
1321.548, 14094.89
1322.613, 14102.18
1323.678, 14230.35
1324.743, 14070.01
1325.807, 14092.41
1326.872, 14192.63
1327.936, 14183.97
1329.000, 14220.83
1330.064, 14122.93
1331.128, 14151.63
1332.191, 14145.44
1333.255, 14259.82
1334.318, 14279.02
1335.381, 14183.40
1336.444, 14088.28
1337.507, 14211.34
1338.569, 14127.60
1339.632, 14155.43
1340.694, 14068.04
1341.756, 14080.13
1342.818, 14090.64
1343.880, 14152.16
1344.941, 14059.03
1346.003, 14166.50
1347.064, 14158.02
1348.125, 14183.70
1349.186, 14205.58
1350.247, 14071.88
1351.308, 14065.72
1352.368, 14242.06
1353.428, 14140.08
1354.489, 14094.27
1355.549, 14088.39
1356.608, 14270.98
1357.668, 14278.39
1358.727, 14076.42
1359.787, 14134.00
1360.846, 14019.00
1361.905, 14103.00
1362.964, 14292.00
1364.022, 14262.00
1365.081, 14421.00
1366.139, 14251.00
1367.197, 14257.00
1368.255, 14439.00
1369.313, 14284.54
1370.371, 14192.00
1371.428, 14171.00
1372.486, 14258.00
1373.543, 14188.00
1374.600, 14208.54
1375.657, 14285.00
1376.713, 14174.00
1377.770, 14396.00
1378.826, 14367.00
1379.882, 14324.00
1380.938, 14337.77
1381.994, 14285.00
1383.050, 14178.00
1384.106, 14164.00
1385.161, 14045.00
1386.216, 14102.00
1387.271, 14220.00
1388.326, 14285.00
1389.381, 14182.00
1390.435, 14303.00
1391.490, 14197.00
1392.544, 14101.00
1393.598, 14247.00
1394.652, 14146.00
1395.705, 14214.00
1396.759, 14139.00
1397.812, 14189.00
1398.866, 14199.00
1399.919, 14200.00
1400.972, 14221.00
1402.024, 14201.63
1403.077, 14204.24
1404.129, 14177.00
1405.181, 14171.00
1406.233, 14182.00
1407.285, 14130.00
1408.337, 14177.00
1409.389, 14166.00
1410.440, 14150.21
1411.491, 14004.00
1412.542, 14135.00
1413.593, 14134.00
1414.644, 14147.00
1415.695, 14241.00
1416.745, 14077.00
1417.795, 14192.00
1418.845, 14132.00
1419.895, 14227.00
1420.945, 14099.00
1421.995, 14123.00
1423.044, 14059.00
1424.093, 14019.00
1425.142, 14128.00
1426.191, 14026.00
1427.240, 14089.00
1428.289, 14137.00
1429.337, 14001.00
1430.385, 13860.00
1431.433, 14219.00
1432.481, 14048.00
1433.529, 14044.00
1434.577, 13971.00
1435.624, 13913.00
1436.672, 13887.00
1437.719, 14011.00
1438.766, 13857.00
1439.812, 13838.00
1440.859, 14035.00
1441.905, 13933.36
1442.952, 14188.00
1443.998, 13995.00
1445.044, 13927.00
1446.090, 14028.00
1447.135, 13932.09
1448.181, 14081.00
1449.226, 13948.00
1450.271, 13946.00
1451.316, 13967.00
1452.361, 13750.00
1453.405, 13938.00
1454.450, 13869.00
1455.494, 14047.00
1456.538, 13980.00
1457.582, 13884.00
1458.626, 13886.00
1459.670, 14049.00
1460.713, 14088.00
1461.757, 14031.00
1462.800, 14067.00
1463.843, 13917.00
1464.886, 14069.00
1465.928, 13701.00
1466.971, 14147.00
1468.013, 14007.00
1469.055, 14006.00
1470.097, 14184.00
1471.139, 14074.00
1472.181, 14159.00
1473.222, 14421.00
1474.263, 13881.00
1475.305, 14161.00
1476.346, 14255.00
1477.386, 14296.00
1478.427, 14180.00
1479.468, 14132.00
1480.508, 14204.00
1481.548, 14233.00
1482.588, 14228.45
1483.628, 14258.37
1484.668, 14236.00
1485.707, 14249.00
1486.747, 14227.00
1487.786, 14186.00
1488.825, 14200.00
1489.864, 14201.50
1490.902, 14336.00
1491.941, 14293.00
1492.979, 14383.00
1494.017, 14541.00
1495.055, 14345.00
1496.093, 14474.00
1497.131, 14295.00
1498.168, 14581.00
1499.206, 14415.00
1500.243, 14423.00
1501.280, 14348.00
1502.317, 14586.00
1503.354, 14510.00
1504.390, 14387.00
1505.426, 14590.00
1506.463, 14566.00
1507.499, 14458.00
1508.535, 14523.00
1509.570, 14535.00
1510.606, 14576.00
1511.641, 14580.00
1512.676, 14726.00
1513.711, 14368.00
1514.746, 14540.00
1515.781, 14356.00
1516.816, 14436.00
1517.850, 14441.00
1518.884, 14468.00
1519.918, 14563.00
1520.952, 14496.00
1521.986, 14529.00
1523.019, 14389.00
1524.053, 14567.00
1525.086, 14460.00
1526.119, 14513.00
1527.152, 14539.00
1528.185, 14429.00
1529.217, 14437.00
1530.250, 14372.00
1531.282, 14372.00
1532.314, 14493.00
1533.346, 14423.00
1534.377, 14289.00
1535.409, 14343.69
1536.440, 14451.66
1537.472, 14507.56
1538.503, 14514.23
1539.534, 14324.14
1540.564, 14388.13
1541.595, 14350.30
1542.625, 14308.29
1543.656, 14408.03
1544.686, 14246.58
1545.716, 14344.08
1546.745, 14338.22
1547.775, 14379.66
1548.804, 14318.66
1549.834, 14289.30
1550.863, 14362.42
1551.892, 14378.81
1552.920, 14306.03
1553.949, 14350.49
1554.977, 14185.47
1556.006, 14204.27
1557.034, 14302.40
1558.062, 14234.77
1559.089, 14281.12
1560.117, 14284.06
1561.144, 14089.75
1562.172, 14238.48
1563.199, 14238.86
1564.226, 14086.91
1565.252, 14160.00
1566.279, 14200.00
1567.305, 14231.00
1568.332, 14293.00
1569.358, 14350.00
1570.384, 14282.00
1571.409, 14112.00
1572.435, 14071.00
##END=



