##NAMES=Dravite
##RRUFFID=R060286
##IDEAL CHEMISTRY=NaMg_3_Al_6_(Si_6_O_18_)(BO_3_)_3_(OH)_3_OH
##LOCALITY=Badakshan Province, Afghanistan
##OWNER=RRUFF
##SOURCE=Herb Obodda
##DESCRIPTION=Brown prismatic tourmaline crystal
##STATUS=The identification of this mineral has been confirmed by X-ray diffraction and chemical analysis
##URL=rruff.info/R060286
##MEASURED CHEMISTRY=(Na_0.48_Ca_0.38_[box]_0.14_)_Σ=1_(Mg_2.90_Ti_0.10_)_Σ=3_Al_6.00_(B_1.00_O_3_)_3_(Si_5.56_B_0.44_)_Σ=6_O_18_(OH)_4_; (OH) assumed from stoichiometry; B estimated by difference and charge balance
##PIN_ID=L00909
##ORIENTATION=Laser parallel to a* (1 0 0). Fiducial mark perpendicular to laser is parallel to -c [0 0 -1]
118.1340, 6845.000
119.3650, 6790.000
120.5960, 6652.000
121.8270, 6699.000
123.0580, 6837.000
124.2880, 7005.000
125.5190, 6907.000
126.7490, 6932.000
127.9790, 7032.000
129.2090, 7154.000
130.4390, 7352.000
131.6680, 7515.000
132.8980, 7746.000
134.1270, 7777.000
135.3560, 7808.000
136.5850, 8165.000
137.8140, 8296.000
139.0430, 8595.000
140.2710, 8774.000
141.5000, 8641.000
142.7280, 8596.000
143.9560, 8651.000
145.1840, 8787.000
146.4120, 8712.000
147.6390, 8587.000
148.8670, 8568.000
150.0940, 8425.000
151.3210, 8511.000
152.5490, 8317.000
153.7750, 8035.000
155.0020, 8019.000
156.2290, 7748.000
157.4550, 7786.000
158.6810, 7489.000
159.9080, 7393.000
161.1340, 7227.000
162.3590, 7302.000
163.5850, 7245.000
164.8110, 7256.000
166.0360, 7284.000
167.2610, 7228.000
168.4860, 7259.000
169.7110, 7261.000
170.9360, 7407.000
172.1610, 7396.000
173.3850, 7383.000
174.6100, 7552.000
175.8340, 7550.000
177.0580, 7815.000
178.2820, 7899.000
179.5050, 8003.000
180.7290, 8188.000
181.9520, 8519.000
183.1760, 8973.000
184.3990, 9651.000
185.6220, 10760.00
186.8450, 11966.00
188.0670, 12402.00
189.2900, 12606.00
190.5120, 13206.00
191.7340, 14353.00
192.9560, 15840.00
194.1780, 17351.00
195.4000, 18509.00
196.6220, 18849.00
197.8430, 18815.00
199.0640, 19012.00
200.2860, 19500.00
201.5070, 20595.00
202.7270, 21978.00
203.9480, 23536.00
205.1690, 25819.00
206.3890, 28109.00
207.6090, 30726.00
208.8290, 33807.00
210.0490, 36518.00
211.2690, 39460.00
212.4890, 41235.00
213.7080, 42001.00
214.9280, 41776.00
216.1470, 40361.00
217.3660, 37937.00
218.5850, 35332.00
219.8030, 32496.00
221.0220, 30029.00
222.2400, 27775.00
223.4590, 25911.00
224.6770, 24377.00
225.8950, 23613.00
227.1120, 23129.00
228.3300, 22895.00
229.5480, 23207.00
230.7650, 23730.00
231.9820, 24423.00
233.1990, 25340.00
234.4160, 26487.00
235.6330, 27967.00
236.8490, 29161.00
238.0660, 30557.00
239.2820, 32094.00
240.4980, 33263.00
241.7140, 34355.00
242.9300, 34478.00
244.1460, 34502.00
245.3610, 33629.00
246.5770, 32190.00
247.7920, 30607.00
249.0070, 28548.00
250.2220, 26332.00
251.4370, 24049.00
252.6510, 22222.00
253.8660, 20274.00
255.0800, 18754.00
256.2940, 17591.00
257.5080, 16925.00
258.7220, 16669.00
259.9360, 15986.00
261.1490, 14995.00
262.3630, 14395.00
263.5760, 14088.00
264.7890, 13488.00
266.0020, 13467.00
267.2150, 13245.00
268.4270, 13049.00
269.6400, 12840.00
270.8520, 12628.00
272.0640, 12487.00
273.2760, 12112.00
274.4880, 11988.00
275.7000, 11628.00
276.9120, 11545.00
278.1230, 11234.00
279.3340, 11039.00
280.5450, 10695.00
281.7560, 10749.00
282.9670, 10534.00
284.1780, 10493.00
285.3880, 10396.00
286.5980, 10379.00
287.8090, 10193.00
289.0190, 10033.00
290.2290, 10046.00
291.4380, 10033.00
292.6480, 10070.84
293.8570, 10066.82
295.0670, 10076.73
296.2760, 10077.00
297.4850, 10111.00
298.6930, 10109.00
299.9020, 10165.14
301.1110, 10448.00
302.3190, 10423.00
303.5270, 10685.00
304.7350, 10908.00
305.9430, 11105.00
307.1510, 11441.00
308.3580, 11855.00
309.5660, 12099.00
310.7730, 12689.00
311.9800, 13133.00
313.1870, 13373.00
314.3940, 13735.00
315.6010, 13591.00
316.8070, 13534.00
318.0130, 13362.00
319.2200, 13278.00
320.4260, 12834.00
321.6310, 12589.00
322.8370, 12511.00
324.0430, 12262.00
325.2480, 12455.00
326.4540, 12424.00
327.6590, 12526.00
328.8640, 12838.00
330.0680, 12994.00
331.2730, 13251.57
332.4780, 13531.00
333.6820, 13725.00
334.8860, 13972.00
336.0900, 14095.00
337.2940, 14489.00
338.4980, 14763.00
339.7010, 15022.00
340.9050, 15448.00
342.1080, 16008.00
343.3110, 16235.00
344.5140, 16754.00
345.7170, 17356.00
346.9200, 18182.00
348.1220, 18917.00
349.3240, 20020.00
350.5270, 21113.00
351.7290, 22364.00
352.9310, 24110.00
354.1320, 25983.00
355.3340, 28052.00
356.5350, 30836.00
357.7370, 33349.00
358.9380, 36481.00
360.1390, 40153.00
361.3400, 43468.00
362.5400, 47245.00
363.7410, 50627.00
364.9410, 54177.00
366.1410, 56245.00
367.3410, 58005.00
368.5410, 58725.00
369.7410, 58272.00
370.9400, 56954.00
372.1400, 54134.00
373.3390, 50797.00
374.5380, 47422.00
375.7370, 43265.00
376.9360, 39492.00
378.1350, 36216.00
379.3330, 33103.00
380.5310, 30288.00
381.7300, 28072.47
382.9280, 26105.00
384.1260, 24513.00
385.3230, 23131.00
386.5210, 22073.00
387.7180, 21307.00
388.9160, 20666.00
390.1130, 19849.00
391.3100, 19432.00
392.5060, 19130.00
393.7030, 18902.00
394.9000, 18887.00
396.0960, 18648.00
397.2920, 18535.00
398.4880, 18534.00
399.6840, 18279.00
400.8800, 18544.00
402.0750, 18251.00
403.2710, 18386.00
404.4660, 18095.00
405.6610, 17970.00
406.8560, 17525.00
408.0510, 17321.00
409.2450, 16770.00
410.4400, 16271.00
411.6340, 15755.00
412.8280, 15246.00
414.0220, 14705.00
415.2160, 14286.00
416.4100, 13869.00
417.6030, 13520.00
418.7970, 13153.00
419.9900, 12761.00
421.1830, 12714.00
422.3760, 12576.00
423.5690, 12187.00
424.7610, 12157.00
425.9540, 12054.00
427.1460, 11938.00
428.3380, 11963.00
429.5300, 12010.00
430.7220, 11866.00
431.9140, 11821.00
433.1050, 11809.00
434.2970, 11754.00
435.4880, 11814.00
436.6790, 11762.00
437.8700, 11653.00
439.0610, 11711.00
440.2510, 11691.00
441.4420, 11570.00
442.6320, 11814.00
443.8220, 11716.82
445.0120, 11705.05
446.2020, 11761.00
447.3910, 11618.00
448.5810, 11691.00
449.7700, 11680.00
450.9600, 11580.00
452.1490, 11620.00
453.3370, 11653.00
454.5260, 11583.00
455.7150, 11535.00
456.9030, 11601.00
458.0910, 11576.00
459.2800, 11634.00
460.4670, 11702.00
461.6550, 11757.06
462.8430, 11826.04
464.0300, 11932.00
465.2180, 11988.00
466.4050, 12079.00
467.5920, 12219.00
468.7790, 12418.00
469.9650, 12615.00
471.1520, 12802.00
472.3380, 12964.00
473.5250, 13332.00
474.7110, 13590.00
475.8970, 13534.00
477.0820, 13832.00
478.2680, 13876.00
479.4540, 14161.00
480.6390, 14198.00
481.8240, 14258.00
483.0090, 14509.00
484.1940, 14593.00
485.3780, 14546.00
486.5630, 14753.00
487.7470, 14890.00
488.9320, 14766.00
490.1160, 14951.00
491.3000, 15097.00
492.4830, 15219.00
493.6670, 15191.00
494.8500, 15036.00
496.0340, 15255.00
497.2170, 15252.00
498.4000, 15108.00
499.5820, 15180.00
500.7650, 14932.00
501.9480, 14858.00
503.1300, 14592.00
504.3120, 14432.00
505.4940, 14260.00
506.6760, 14033.74
507.8580, 13772.00
509.0390, 13654.00
510.2210, 13384.00
511.4020, 13248.00
512.5830, 13041.00
513.7640, 12891.00
514.9450, 12532.00
516.1250, 12380.00
517.3060, 12019.00
518.4860, 12068.00
519.6660, 11905.00
520.8460, 11828.00
522.0260, 11700.00
523.2060, 11583.00
524.3850, 11623.00
525.5650, 11553.81
526.7440, 11705.00
527.9230, 11569.00
529.1020, 11639.00
530.2810, 11691.00
531.4590, 11656.00
532.6380, 11738.00
533.8160, 11636.00
534.9940, 11772.00
536.1720, 11700.00
537.3500, 11600.00
538.5270, 11610.00
539.7050, 11568.00
540.8820, 11361.00
542.0590, 11223.00
543.2360, 11226.00
544.4130, 11192.00
545.5900, 10995.00
546.7660, 10853.00
547.9430, 10908.00
549.1190, 10569.00
550.2950, 10804.00
551.4710, 10652.00
552.6470, 10507.00
553.8220, 10430.00
554.9980, 10372.00
556.1730, 10402.00
557.3480, 10334.00
558.5230, 10196.00
559.6980, 10274.00
560.8730, 10101.00
562.0470, 10062.00
563.2220, 10155.00
564.3960, 10151.00
565.5700, 10088.00
566.7440, 10109.00
567.9170, 10083.02
569.0910, 10031.00
570.2640, 10051.00
571.4380, 10096.00
572.6110, 10058.32
573.7840, 10180.00
574.9570, 10126.00
576.1290, 10226.00
577.3020, 10313.00
578.4740, 10227.00
579.6460, 10281.00
580.8180, 10376.00
581.9900, 10323.00
583.1620, 10382.76
584.3330, 10413.00
585.5040, 10405.00
586.6760, 10491.00
587.8470, 10495.00
589.0180, 10598.00
590.1880, 10524.00
591.3590, 10666.00
592.5290, 10724.00
593.7000, 10940.00
594.8700, 10797.00
596.0400, 10916.00
597.2090, 11005.00
598.3790, 11153.00
599.5490, 11207.00
600.7180, 11307.00
601.8870, 11270.00
603.0560, 11464.00
604.2250, 11410.00
605.3940, 11628.00
606.5620, 11686.00
607.7300, 11652.00
608.8990, 11788.00
610.0670, 11963.00
611.2350, 12133.00
612.4020, 12243.00
613.5700, 12357.00
614.7370, 12647.00
615.9050, 12706.00
617.0720, 12975.00
618.2390, 13285.00
619.4060, 13386.00
620.5720, 13790.00
621.7390, 14165.00
622.9050, 14820.00
624.0710, 15322.00
625.2370, 15353.00
626.4030, 15589.00
627.5690, 15891.00
628.7340, 16248.00
629.9000, 16578.00
631.0650, 16583.00
632.2300, 16540.00
633.3950, 16353.00
634.5600, 16307.00
635.7240, 16166.00
636.8890, 16157.00
638.0530, 15990.00
639.2170, 16089.00
640.3810, 16214.00
641.5450, 16664.00
642.7080, 17064.00
643.8720, 17618.00
645.0350, 18243.00
646.1980, 18701.00
647.3610, 19614.00
648.5240, 20075.00
649.6870, 20685.00
650.8490, 21263.00
652.0120, 21716.00
653.1740, 21965.00
654.3360, 22430.00
655.4980, 22650.00
656.6600, 23129.00
657.8210, 23417.00
658.9830, 23992.00
660.1440, 24594.00
661.3050, 24966.00
662.4660, 25604.00
663.6270, 26288.00
664.7870, 27012.00
665.9480, 27636.00
667.1080, 28162.00
668.2680, 28929.00
669.4280, 28911.00
670.5880, 29089.00
671.7480, 29531.00
672.9070, 28787.00
674.0670, 28449.00
675.2260, 27791.00
676.3850, 27115.00
677.5440, 26089.00
678.7030, 25306.00
679.8610, 24619.00
681.0200, 23488.00
682.1780, 22929.00
683.3360, 22441.00
684.4940, 21794.00
685.6520, 21696.00
686.8090, 21734.00
687.9670, 21669.00
689.1240, 21961.00
690.2810, 22090.00
691.4380, 22399.00
692.5950, 23045.00
693.7520, 23815.00
694.9080, 24371.00
696.0650, 25162.00
697.2210, 25810.00
698.3770, 26679.00
699.5330, 27348.00
700.6880, 28331.00
701.8440, 28697.00
702.9990, 28625.00
704.1550, 28580.00
705.3100, 28109.00
706.4650, 27410.00
707.6190, 26348.00
708.7740, 24836.00
709.9290, 23583.00
711.0830, 22073.00
712.2370, 20600.00
713.3910, 19213.00
714.5450, 18151.00
715.6980, 17086.00
716.8520, 16311.00
718.0050, 15456.00
719.1580, 14987.00
720.3110, 14344.00
721.4640, 13848.00
722.6170, 13588.00
723.7700, 13308.00
724.9220, 13060.00
726.0740, 12722.00
727.2260, 12607.00
728.3780, 12492.00
729.5300, 12316.00
730.6810, 12323.00
731.8330, 12294.00
732.9840, 12074.00
734.1350, 12099.00
735.2860, 12028.00
736.4370, 12052.00
737.5880, 11838.00
738.7380, 12041.00
739.8880, 11804.00
741.0390, 11953.00
742.1890, 11918.00
743.3380, 12087.00
744.4880, 12144.00
745.6380, 12302.00
746.7870, 12447.00
747.9360, 12484.00
749.0850, 12519.00
750.2340, 12684.00
751.3830, 12920.00
752.5310, 13311.00
753.6800, 13392.00
754.8280, 13608.00
755.9760, 13835.00
757.1240, 13931.00
758.2720, 14166.00
759.4190, 14283.00
760.5670, 14151.00
761.7140, 14104.00
762.8610, 13925.00
764.0080, 13733.00
765.1550, 13583.00
766.3020, 13414.00
767.4480, 13268.00
768.5950, 13100.00
769.7410, 13191.00
770.8870, 13155.00
772.0330, 13075.00
773.1780, 12886.00
774.3240, 12997.00
775.4690, 13008.00
776.6140, 13040.00
777.7590, 13056.00
778.9040, 13148.00
780.0490, 13101.00
781.1940, 13033.00
782.3380, 13124.00
783.4820, 13198.00
784.6260, 13325.00
785.7700, 13385.00
786.9140, 13592.00
788.0580, 13612.00
789.2010, 13803.00
790.3450, 13960.00
791.4880, 14064.00
792.6310, 14226.00
793.7730, 14192.00
794.9160, 14359.00
796.0590, 14639.00
797.2010, 14492.00
798.3430, 14616.00
799.4850, 14600.00
800.6270, 14485.00
801.7690, 14409.00
802.9100, 14240.00
804.0520, 14048.00
805.1930, 13931.00
806.3340, 13874.00
807.4750, 13726.00
808.6160, 13662.00
809.7560, 13663.00
810.8970, 13604.00
812.0370, 13557.00
813.1770, 13605.00
814.3170, 13641.00
815.4570, 13576.00
816.5960, 13672.00
817.7360, 13487.00
818.8750, 13480.00
820.0140, 13522.00
821.1530, 13394.00
822.2920, 13170.00
823.4310, 13158.00
824.5690, 12945.00
825.7070, 12721.00
826.8460, 12537.00
827.9840, 12325.00
829.1220, 12099.00
830.2590, 11873.00
831.3970, 11787.00
832.5340, 11432.00
833.6710, 11257.00
834.8080, 11189.00
835.9450, 10977.00
837.0820, 10848.00
838.2190, 10740.00
839.3550, 10692.00
840.4910, 10458.00
841.6270, 10353.00
842.7630, 10244.00
843.8990, 10112.00
845.0350, 10230.00
846.1700, 10273.00
847.3060, 10098.00
848.4410, 10098.00
849.5760, 10027.00
850.7100, 9952.000
851.8450, 10052.00
852.9800, 9985.000
854.1140, 10063.00
855.2480, 9973.000
856.3820, 9970.000
857.5160, 9982.000
858.6500, 9971.000
859.7830, 9884.000
860.9170, 10067.00
862.0500, 9944.000
863.1830, 9950.000
864.3160, 10040.00
865.4480, 9889.000
866.5810, 10014.00
867.7130, 9974.000
868.8460, 9839.000
869.9780, 9952.000
871.1100, 9765.000
872.2410, 9882.000
873.3730, 9975.000
874.5050, 10021.00
875.6360, 9914.000
876.7670, 10052.00
877.8980, 10075.00
879.0290, 10221.00
880.1590, 10208.00
881.2900, 9967.000
882.4200, 10088.00
883.5500, 10037.00
884.6800, 10153.00
885.8100, 10074.00
886.9400, 10207.00
888.0690, 10069.00
889.1990, 10153.00
890.3280, 10163.00
891.4570, 10142.00
892.5860, 10162.00
893.7140, 10269.00
894.8430, 10244.00
895.9710, 10385.00
897.1000, 10317.00
898.2280, 10419.00
899.3560, 10389.00
900.4830, 10381.00
901.6110, 10290.00
902.7380, 10460.00
903.8660, 10478.00
904.9930, 10369.00
906.1200, 10390.00
907.2460, 10568.00
908.3730, 10638.00
909.5000, 10579.00
910.6260, 10626.00
911.7520, 10568.00
912.8780, 10675.00
914.0040, 10729.00
915.1290, 10623.00
916.2550, 10743.00
917.3800, 10849.00
918.5050, 10828.00
919.6300, 10843.00
920.7550, 10797.00
921.8800, 10770.00
923.0040, 10917.00
924.1290, 10949.00
925.2530, 10931.00
926.3770, 10932.00
927.5010, 10956.00
928.6250, 10978.92
929.7480, 11184.00
930.8720, 11104.00
931.9950, 11183.00
933.1180, 11343.00
934.2410, 11208.00
935.3640, 11416.00
936.4860, 11493.00
937.6090, 11609.00
938.7310, 11629.00
939.8530, 11673.00
940.9750, 11691.00
942.0970, 11868.00
943.2180, 11962.00
944.3400, 12059.00
945.4610, 12089.00
946.5820, 12103.00
947.7030, 12185.00
948.8240, 12571.00
949.9450, 12585.00
951.0650, 12716.00
952.1860, 12771.00
953.3060, 12946.00
954.4260, 13099.00
955.5460, 13180.00
956.6650, 13313.54
957.7850, 13392.00
958.9040, 13505.00
960.0230, 13564.00
961.1420, 13650.63
962.2610, 13765.00
963.3800, 13867.00
964.4990, 13915.00
965.6170, 14035.00
966.7350, 13965.00
967.8530, 13914.00
968.9710, 14069.00
970.0890, 14023.00
971.2070, 14008.00
972.3240, 14064.00
973.4410, 14067.00
974.5580, 14034.00
975.6750, 13993.00
976.7920, 14043.00
977.9090, 13971.00
979.0250, 13771.00
980.1410, 13746.00
981.2580, 13743.00
982.3740, 13596.00
983.4890, 13552.00
984.6050, 13777.00
985.7200, 13504.00
986.8360, 13569.00
987.9510, 13370.00
989.0660, 13468.00
990.1810, 13421.00
991.2950, 13576.00
992.4100, 13524.00
993.5240, 13464.00
994.6390, 13548.00
995.7530, 13699.00
996.8660, 13632.00
997.9800, 13789.00
999.0940, 13831.00
1000.207, 13738.00
1001.320, 14106.00
1002.433, 14024.00
1003.546, 14188.00
1004.659, 14379.00
1005.772, 14392.00
1006.884, 14662.00
1007.996, 14768.00
1009.108, 15000.00
1010.220, 15179.00
1011.332, 15477.29
1012.444, 15830.00
1013.555, 16162.00
1014.666, 16453.00
1015.777, 16849.00
1016.888, 16916.00
1017.999, 17308.00
1019.110, 17746.00
1020.220, 17840.00
1021.331, 18188.00
1022.441, 18511.00
1023.551, 18960.00
1024.661, 19354.00
1025.770, 19634.75
1026.880, 19978.29
1027.989, 20195.00
1029.098, 20489.00
1030.207, 20766.00
1031.316, 20929.00
1032.425, 21390.00
1033.533, 21622.00
1034.642, 21988.00
1035.750, 22232.00
1036.858, 22741.00
1037.966, 22854.00
1039.073, 22930.00
1040.181, 23038.00
1041.288, 23579.00
1042.396, 23533.00
1043.503, 23797.00
1044.610, 23723.00
1045.716, 23978.00
1046.823, 23957.00
1047.929, 24230.00
1049.036, 23964.00
1050.142, 24045.00
1051.248, 23799.00
1052.353, 23650.00
1053.459, 23390.00
1054.564, 23242.00
1055.670, 22831.00
1056.775, 22276.00
1057.880, 22074.00
1058.985, 21730.00
1060.089, 21145.00
1061.194, 20972.00
1062.298, 20764.00
1063.402, 20547.00
1064.506, 20180.00
1065.610, 19805.00
1066.713, 19854.00
1067.817, 19445.00
1068.920, 19334.00
1070.023, 19163.00
1071.126, 18920.00
1072.229, 18713.00
1073.332, 18477.00
1074.435, 18131.00
1075.537, 17789.00
1076.639, 17610.00
1077.741, 17366.64
1078.843, 17349.00
1079.945, 17061.00
1081.046, 16840.00
1082.148, 16753.00
1083.249, 16461.00
1084.350, 16092.00
1085.451, 15906.00
1086.551, 15880.00
1087.652, 15547.00
1088.752, 15395.00
1089.853, 15397.00
1090.953, 15051.00
1092.053, 14982.00
1093.152, 15013.00
1094.252, 14928.00
1095.351, 14941.00
1096.451, 14799.36
1097.550, 14650.56
1098.649, 14542.00
1099.748, 14448.80
1100.846, 14310.00
1101.945, 14349.00
1103.043, 14289.00
1104.141, 14342.00
1105.239, 14369.00
1106.337, 14424.00
1107.434, 14220.00
1108.532, 14340.00
1109.629, 14196.00
1110.726, 14191.00
1111.823, 14432.00
1112.920, 14188.00
1114.017, 14075.00
1115.113, 14216.00
1116.210, 14107.00
1117.306, 14215.00
1118.402, 14097.00
1119.498, 14065.00
1120.593, 13964.00
1121.689, 13834.00
1122.784, 13828.00
1123.879, 13670.00
1124.974, 13505.00
1126.069, 13380.00
1127.164, 13316.00
1128.259, 13076.00
1129.353, 12979.00
1130.447, 12790.00
1131.541, 12558.00
1132.635, 12564.00
1133.729, 12516.00
1134.822, 12644.00
1135.916, 12480.00
1137.009, 12239.00
1138.102, 12340.00
1139.195, 12134.00
1140.288, 12204.00
1141.380, 12080.00
1142.473, 11981.00
1143.565, 11979.00
1144.657, 12044.00
1145.749, 11957.00
1146.841, 11943.00
1147.932, 11946.00
1149.024, 11846.00
1150.115, 11834.00
1151.206, 11860.00
1152.297, 11891.00
1153.388, 11885.21
1154.479, 11888.54
1155.569, 11877.00
1156.659, 11868.00
1157.750, 11825.00
1158.839, 11820.00
1159.929, 11857.00
1161.019, 11884.00
1162.108, 11829.00
1163.198, 11745.00
1164.287, 11766.00
1165.376, 11794.00
1166.465, 11850.00
1167.553, 11794.00
1168.642, 11816.00
1169.730, 11855.00
1170.818, 11793.00
1171.906, 11850.00
1172.994, 11827.60
1174.082, 11833.23
1175.170, 11819.00
1176.257, 11856.00
1177.344, 11867.00
1178.431, 11887.00
1179.518, 11884.00
1180.605, 11929.00
1181.691, 11889.00
1182.778, 11961.00
1183.864, 11911.00
1184.950, 12001.00
1186.036, 11854.00
1187.122, 11892.00
1188.207, 11814.00
1189.292, 11803.00
1190.378, 11942.00
1191.463, 11905.00
1192.548, 11935.00
1193.632, 11923.00
1194.717, 11959.00
1195.801, 12061.00
1196.886, 12071.00
1197.970, 12087.30
1199.054, 12060.48
1200.137, 12069.00
1201.221, 11981.00
1202.305, 11954.00
1203.388, 12003.00
1204.471, 12068.00
1205.554, 12063.00
1206.637, 12038.00
1207.719, 12075.59
1208.802, 12205.00
1209.884, 12132.00
1210.966, 12150.00
1212.048, 12247.00
1213.130, 12203.00
1214.212, 12349.00
1215.293, 12346.00
1216.374, 12344.00
1217.456, 12352.00
1218.536, 12367.00
1219.617, 12374.10
1220.698, 12458.00
1221.778, 12384.00
1222.859, 12399.00
1223.939, 12370.00
1225.019, 12600.00
1226.099, 12574.00
1227.178, 12522.00
1228.258, 12683.00
1229.337, 12576.00
1230.417, 12546.00
1231.496, 12456.00
1232.574, 12615.00
1233.653, 12661.00
1234.732, 12620.00
1235.810, 12530.00
1236.888, 12669.00
1237.966, 12700.00
1239.044, 12683.00
1240.122, 12523.00
1241.199, 12662.00
1242.277, 12713.00
1243.354, 12591.00
1244.431, 12663.00
1245.508, 12561.00
1246.585, 12716.00
1247.661, 12686.17
1248.738, 12624.00
1249.814, 12701.00
1250.890, 12719.00
1251.966, 12688.00
1253.042, 12732.00
1254.117, 12750.00
1255.193, 12675.00
1256.268, 12630.00
1257.343, 12772.00
1258.418, 12734.00
1259.493, 12631.00
1260.567, 12594.00
1261.642, 12716.00
1262.716, 12716.00
1263.790, 12724.00
1264.864, 12765.00
1265.938, 12778.00
1267.011, 12694.00
1268.085, 12814.00
1269.158, 12749.00
1270.231, 12843.00
1271.304, 12826.00
1272.377, 12881.00
1273.450, 12728.00
1274.522, 12748.00
1275.594, 12728.00
1276.666, 12727.00
1277.738, 12716.00
1278.810, 12766.00
1279.882, 12818.00
1280.953, 12927.00
1282.025, 12835.00
1283.096, 12802.00
1284.167, 12678.00
1285.238, 12900.00
1286.308, 12834.00
1287.379, 12782.00
1288.449, 12874.00
1289.519, 12671.00
1290.589, 12997.00
1291.659, 12775.00
1292.729, 12829.00
1293.798, 12939.00
1294.868, 12969.00
1295.937, 12835.00
1297.006, 12881.00
1298.075, 12850.00
1299.143, 12992.00
1300.212, 12835.00
1301.280, 12904.00
1302.348, 12946.00
1303.416, 12825.00
1304.484, 12873.00
1305.552, 12938.00
1306.620, 12977.00
1307.687, 13046.00
1308.754, 13063.75
1309.821, 12994.00
1310.888, 13052.00
1311.955, 13010.00
1313.021, 13021.46
1314.088, 12940.00
1315.154, 13066.00
1316.220, 13067.00
1317.286, 13136.00
1318.352, 13013.00
1319.417, 13073.00
1320.483, 13093.00
1321.548, 13071.00
1322.613, 13162.00
1323.678, 13273.00
1324.743, 13270.00
1325.807, 13217.00
1326.872, 13163.00
1327.936, 13129.00
1329.000, 13182.00
1330.064, 13099.00
1331.128, 13097.00
1332.191, 13214.00
1333.255, 13169.00
1334.318, 13312.00
1335.381, 13122.00
1336.444, 13260.00
1337.507, 13165.00
1338.569, 13121.00
1339.632, 13258.00
1340.694, 13208.00
1341.756, 13220.00
1342.818, 13311.00
1343.880, 13293.00
1344.941, 13350.00
1346.003, 13233.00
1347.064, 13360.00
1348.125, 13156.00
1349.186, 13246.00
1350.247, 13350.00
1351.308, 13150.00
1352.368, 13313.00
1353.428, 13359.00
1354.489, 13361.00
1355.549, 13292.00
1356.608, 13318.00
1357.668, 13329.00
1358.727, 13303.00
1359.787, 13394.00
1360.846, 13359.00
1361.905, 13345.28
1362.964, 13415.00
1364.022, 13339.00
1365.081, 13321.00
1366.139, 13454.00
1367.197, 13383.00
1368.255, 13466.00
1369.313, 13351.00
1370.371, 13556.00
1371.428, 13432.00
1372.486, 13522.00
1373.543, 13398.00
1374.600, 13356.00
1375.657, 13638.00
1376.713, 13488.00
1377.770, 13543.00
1378.826, 13457.00
1379.882, 13395.00
1380.938, 13695.00
1381.994, 13519.00
1383.050, 13637.00
1384.106, 13605.00
1385.161, 13600.00
1386.216, 13701.00
1387.271, 13670.00
1388.326, 13765.00
1389.381, 13745.00
1390.435, 13587.00
1391.490, 13809.00
1392.544, 13730.00
1393.598, 13834.00
1394.652, 13705.00
1395.705, 13727.00
1396.759, 13742.00
1397.812, 13756.00
1398.866, 13749.00
1399.919, 13913.00
1400.972, 13790.00
1402.024, 13855.00
1403.077, 13683.00
1404.129, 13792.00
1405.181, 13872.00
1406.233, 13812.00
1407.285, 13836.00
1408.337, 13852.00
1409.389, 13805.00
1410.440, 13876.00
1411.491, 13887.00
1412.542, 13825.00
1413.593, 13828.00
1414.644, 13820.94
1415.695, 13719.00
1416.745, 13822.00
1417.795, 13888.00
1418.845, 13898.00
1419.895, 13863.00
1420.945, 13855.00
1421.995, 13798.00
1423.044, 13771.00
1424.093, 13834.00
1425.142, 13925.00
1426.191, 14012.00
1427.240, 13912.00
1428.289, 13790.00
1429.337, 13893.00
1430.385, 13894.00
1431.433, 13834.00
1432.481, 13897.00
1433.529, 13963.00
1434.577, 13809.00
1435.624, 13751.00
1436.672, 13876.00
1437.719, 14016.00
1438.766, 13856.00
1439.812, 13877.00
1440.859, 13939.00
1441.905, 13861.00
1442.952, 13887.00
1443.998, 13808.00
1445.044, 13907.00
1446.090, 13868.00
1447.135, 13877.29
1448.181, 13861.00
1449.226, 13896.00
1450.271, 13809.00
1451.316, 13824.00
1452.361, 14093.00
1453.405, 14010.00
1454.450, 14079.00
1455.494, 13757.00
1456.538, 13812.00
1457.582, 13798.00
1458.626, 14048.00
1459.670, 14034.00
1460.713, 14042.00
1461.757, 13920.00
1462.800, 13998.00
1463.843, 13899.00
1464.886, 13986.00
1465.928, 14044.00
1466.971, 14180.00
1468.013, 14013.00
1469.055, 14113.00
1470.097, 13960.00
1471.139, 14052.00
1472.181, 14033.00
1473.222, 14094.00
1474.263, 13963.00
1475.305, 13966.00
1476.346, 14107.00
1477.386, 14000.00
1478.427, 14144.00
1479.468, 14064.00
1480.508, 14097.00
1481.548, 14266.00
1482.588, 14104.00
1483.628, 14117.00
1484.668, 14260.00
1485.707, 14065.00
1486.747, 14118.00
1487.786, 14155.00
1488.825, 14346.00
1489.864, 14351.00
1490.902, 14276.00
1491.941, 14353.00
1492.979, 14403.00
1494.017, 14243.00
1495.055, 14347.00
1496.093, 14445.00
1497.131, 14382.00
1498.168, 14332.00
1499.206, 14246.00
1500.243, 14467.00
1501.280, 14462.00
1502.317, 14610.00
1503.354, 14513.00
1504.390, 14540.00
1505.426, 14452.00
1506.463, 14554.00
1507.499, 14684.00
1508.535, 14528.00
1509.570, 14418.00
1510.606, 14493.00
1511.641, 14552.00
1512.676, 14695.00
1513.711, 14588.00
1514.746, 14446.00
1515.781, 14654.00
1516.816, 14570.00
1517.850, 14771.00
1518.884, 14595.00
1519.918, 14726.00
1520.952, 14668.00
1521.986, 14713.00
1523.019, 14746.00
1524.053, 14735.00
1525.086, 14898.00
1526.119, 14766.00
1527.152, 14627.00
1528.185, 14808.00
1529.217, 14745.00
1530.250, 14450.00
1531.282, 14716.00
1532.314, 14678.00
1533.346, 14742.00
1534.377, 14717.00
1535.409, 14557.00
1536.440, 14482.00
1537.472, 14672.00
1538.503, 14568.00
1539.534, 14695.00
1540.564, 14884.00
1541.595, 14609.00
1542.625, 14683.00
1543.656, 14573.00
1544.686, 14544.00
1545.716, 14533.00
1546.745, 14636.00
1547.775, 14617.00
1548.804, 14604.00
1549.834, 14572.00
1550.863, 14631.00
1551.892, 14582.00
1552.920, 14698.00
1553.949, 14799.00
1554.977, 14701.00
1556.006, 14715.00
1557.034, 14571.00
1558.062, 14599.00
1559.089, 14594.00
1560.117, 14600.00
1561.144, 14683.00
1562.172, 14692.00
1563.199, 14555.00
1564.226, 14675.00
1565.252, 14607.00
1566.279, 14638.00
1567.305, 14641.00
1568.332, 14463.00
1569.358, 14575.00
1570.384, 14584.00
1571.409, 14773.00
1572.435, 14690.00
##END=



