##NAMES=Dravite
##RRUFFID=R060280
##IDEAL CHEMISTRY=NaMg_3_Al_6_(Si_6_O_18_)(BO_3_)_3_(OH)_3_OH
##LOCALITY=near Merelani, Tanzania
##OWNER=RRUFF
##SOURCE=Herb Obodda
##DESCRIPTION=Green fragment
##STATUS=The identification of this mineral has been confirmed by X-ray diffraction and chemical analysis
##URL=rruff.info/R060280
##MEASURED CHEMISTRY=(Na_0.45_Ca_0.40_[box]_0.15_)(Mg_0.89_Al_0.07_Ti_0.04_)_3_Al_6_(BO_3_)_3_(Si_0.93_B_0.07_)_6_O_18_((OH)_0.95_O_0.05_)_4_
##PIN_ID=L01324
##ORIENTATION=Laser parallel to a* (1 0 0). Fiducial mark perpendicular to laser is parallel to c [0 0 1]
168.4860, 11991.00
169.7110, 12137.00
170.9360, 12130.00
172.1610, 12233.00
173.3850, 12190.00
174.6100, 12362.00
175.8340, 12467.00
177.0580, 12395.00
178.2820, 12525.00
179.5050, 12629.00
180.7290, 12727.00
181.9520, 12818.00
183.1760, 12958.00
184.3990, 13145.00
185.6220, 13473.00
186.8450, 13637.00
188.0670, 13989.00
189.2900, 14192.00
190.5120, 14643.00
191.7340, 15103.00
192.9560, 15388.00
194.1780, 15853.00
195.4000, 16525.00
196.6220, 17347.00
197.8430, 18073.00
199.0640, 19066.00
200.2860, 20028.00
201.5070, 21472.00
202.7270, 22897.00
203.9480, 24572.00
205.1690, 26549.00
206.3890, 28481.00
207.6090, 31005.00
208.8290, 33571.00
210.0490, 36061.00
211.2690, 38800.00
212.4890, 41001.00
213.7080, 42729.00
214.9280, 44166.00
216.1470, 44672.00
217.3660, 43881.00
218.5850, 42914.00
219.8030, 41075.00
221.0220, 39219.00
222.2400, 37131.00
223.4590, 35075.00
224.6770, 33374.00
225.8950, 32058.00
227.1120, 31016.37
228.3300, 30257.00
229.5480, 29951.00
230.7650, 29899.00
231.9820, 30126.00
233.1990, 30521.00
234.4160, 31166.00
235.6330, 32108.00
236.8490, 32960.00
238.0660, 33476.00
239.2820, 34472.00
240.4980, 35304.00
241.7140, 36271.00
242.9300, 36356.00
244.1460, 36444.00
245.3610, 36064.00
246.5770, 35467.00
247.7920, 34509.00
249.0070, 33265.00
250.2220, 32042.00
251.4370, 30790.00
252.6510, 29221.00
253.8660, 27693.00
255.0800, 26488.00
256.2940, 25125.00
257.5080, 24555.00
258.7220, 24165.00
259.9360, 23026.00
261.1490, 22524.00
262.3630, 22152.00
263.5760, 21718.00
264.7890, 21295.00
266.0020, 20951.00
267.2150, 20841.00
268.4270, 20807.00
269.6400, 20311.00
270.8520, 20228.00
272.0640, 19971.00
273.2760, 19384.00
274.4880, 19166.00
275.7000, 18686.00
276.9120, 18375.00
278.1230, 17690.00
279.3340, 17560.00
280.5450, 17013.00
281.7560, 16836.00
282.9670, 16580.00
284.1780, 16237.00
285.3880, 16196.00
286.5980, 16055.00
287.8090, 15878.00
289.0190, 15828.00
290.2290, 15589.00
291.4380, 15734.00
292.6480, 15697.00
293.8570, 15642.00
295.0670, 15931.00
296.2760, 15932.00
297.4850, 16068.00
298.6930, 16095.00
299.9020, 16181.00
301.1110, 16297.00
302.3190, 16375.00
303.5270, 16462.00
304.7350, 16833.00
305.9430, 17188.00
307.1510, 17447.00
308.3580, 17789.00
309.5660, 18246.00
310.7730, 18500.00
311.9800, 18932.00
313.1870, 19274.00
314.3940, 19380.00
315.6010, 19257.00
316.8070, 19068.00
318.0130, 18804.00
319.2200, 18445.00
320.4260, 18073.00
321.6310, 17788.00
322.8370, 17619.00
324.0430, 17276.00
325.2480, 17194.00
326.4540, 17244.00
327.6590, 17242.00
328.8640, 17476.00
330.0680, 17619.00
331.2730, 17934.00
332.4780, 17940.00
333.6820, 18209.00
334.8860, 18419.00
336.0900, 18559.00
337.2940, 18986.00
338.4980, 19216.00
339.7010, 19413.00
340.9050, 19631.00
342.1080, 20171.00
343.3110, 20617.00
344.5140, 21138.00
345.7170, 21797.00
346.9200, 22376.00
348.1220, 23028.00
349.3240, 23937.00
350.5270, 24890.00
351.7290, 26176.00
352.9310, 27718.00
354.1320, 29105.00
355.3340, 30940.00
356.5350, 32903.00
357.7370, 35577.00
358.9380, 38392.00
360.1390, 40996.00
361.3400, 44284.00
362.5400, 47529.00
363.7410, 50409.00
364.9410, 53683.00
366.1410, 56489.00
367.3410, 58503.00
368.5410, 59585.00
369.7410, 59728.00
370.9400, 59159.00
372.1400, 57716.00
373.3390, 55292.00
374.5380, 52832.00
375.7370, 49547.00
376.9360, 46344.00
378.1350, 42924.00
379.3330, 40016.00
380.5310, 37577.00
381.7300, 35021.00
382.9280, 33228.00
384.1260, 31742.00
385.3230, 30268.00
386.5210, 28868.00
387.7180, 27951.00
388.9160, 27125.00
390.1130, 26921.00
391.3100, 26276.00
392.5060, 25755.00
393.7030, 25338.00
394.9000, 25125.00
396.0960, 24772.00
397.2920, 24889.00
398.4880, 24601.00
399.6840, 24593.00
400.8800, 24522.00
402.0750, 24321.00
403.2710, 24225.00
404.4660, 24105.00
405.6610, 23867.00
406.8560, 23742.00
408.0510, 23275.00
409.2450, 22714.00
410.4400, 22461.00
411.6340, 21983.00
412.8280, 21573.00
414.0220, 20911.00
415.2160, 20447.00
416.4100, 20167.00
417.6030, 19853.00
418.7970, 19530.00
419.9900, 19467.00
421.1830, 19258.00
422.3760, 19087.00
423.5690, 18679.00
424.7610, 18694.00
425.9540, 18426.00
427.1460, 18438.00
428.3380, 18423.00
429.5300, 18320.00
430.7220, 18415.00
431.9140, 18467.00
433.1050, 18323.00
434.2970, 18407.00
435.4880, 18385.00
436.6790, 18399.00
437.8700, 18324.00
439.0610, 18335.00
440.2510, 18265.00
441.4420, 18245.99
442.6320, 18269.00
443.8220, 18180.00
445.0120, 18145.00
446.2020, 18073.00
447.3910, 18150.00
448.5810, 17916.00
449.7700, 17992.00
450.9600, 17917.00
452.1490, 17993.00
453.3370, 17999.00
454.5260, 17867.00
455.7150, 18121.00
456.9030, 17801.00
458.0910, 17986.00
459.2800, 17893.00
460.4670, 17949.00
461.6550, 17773.00
462.8430, 18108.00
464.0300, 17823.00
465.2180, 18002.00
466.4050, 17906.00
467.5920, 17988.00
468.7790, 17948.00
469.9650, 18139.00
471.1520, 18226.00
472.3380, 18223.00
473.5250, 18137.00
474.7110, 18237.00
475.8970, 18684.00
477.0820, 18650.00
478.2680, 18636.00
479.4540, 18938.00
480.6390, 18897.00
481.8240, 19046.00
483.0090, 19075.00
484.1940, 19436.00
485.3780, 19578.00
486.5630, 19673.00
487.7470, 19852.00
488.9320, 19842.00
490.1160, 20423.00
491.3000, 20476.00
492.4830, 20839.00
493.6670, 20956.00
494.8500, 21219.00
496.0340, 21491.00
497.2170, 21753.00
498.4000, 21991.00
499.5820, 22190.89
500.7650, 22259.00
501.9480, 22493.00
503.1300, 22639.00
504.3120, 22664.00
505.4940, 22601.00
506.6760, 22763.00
507.8580, 22529.00
509.0390, 22357.00
510.2210, 22311.00
511.4020, 21942.00
512.5830, 21609.00
513.7640, 21069.00
514.9450, 20801.00
516.1250, 20524.00
517.3060, 20100.00
518.4860, 19806.00
519.6660, 19483.00
520.8460, 19255.00
522.0260, 19141.00
523.2060, 18878.00
524.3850, 18665.00
525.5650, 18736.00
526.7440, 18701.00
527.9230, 18696.00
529.1020, 18725.00
530.2810, 18761.00
531.4590, 19038.00
532.6380, 18978.00
533.8160, 19180.00
534.9940, 19196.00
536.1720, 19148.00
537.3500, 19288.00
538.5270, 19295.00
539.7050, 19160.00
540.8820, 19094.00
542.0590, 18980.00
543.2360, 18909.00
544.4130, 19021.00
545.5900, 18631.00
546.7660, 18626.00
547.9430, 18294.00
549.1190, 18337.00
550.2950, 18013.00
551.4710, 17895.00
552.6470, 17772.00
553.8220, 17640.00
554.9980, 17516.43
556.1730, 17333.00
557.3480, 17235.00
558.5230, 17159.00
559.6980, 16971.00
560.8730, 17073.00
562.0470, 17093.00
563.2220, 17024.00
564.3960, 16911.00
565.5700, 16903.00
566.7440, 16906.00
567.9170, 16834.00
569.0910, 16831.00
570.2640, 16905.00
571.4380, 16827.00
572.6110, 17029.00
573.7840, 17114.00
574.9570, 17063.00
576.1290, 16938.00
577.3020, 17032.00
578.4740, 16874.00
579.6460, 17246.00
580.8180, 17101.00
581.9900, 17303.00
583.1620, 17227.00
584.3330, 17246.00
585.5040, 17359.00
586.6760, 17289.00
587.8470, 17257.00
589.0180, 17590.00
590.1880, 17623.00
591.3590, 17646.00
592.5290, 17764.00
593.7000, 17849.00
594.8700, 17924.72
596.0400, 17964.00
597.2090, 18110.00
598.3790, 18173.00
599.5490, 18275.39
600.7180, 18251.00
601.8870, 18360.00
603.0560, 18386.00
604.2250, 18314.00
605.3940, 18548.00
606.5620, 18799.00
607.7300, 18842.00
608.8990, 18881.00
610.0670, 19006.00
611.2350, 19178.00
612.4020, 19275.70
613.5700, 19410.01
614.7370, 19541.00
615.9050, 19707.00
617.0720, 19809.00
618.2390, 20088.00
619.4060, 20305.00
620.5720, 20322.00
621.7390, 20782.00
622.9050, 21037.00
624.0710, 21335.00
625.2370, 21892.00
626.4030, 22023.00
627.5690, 22550.00
628.7340, 22511.00
629.9000, 22687.00
631.0650, 22913.00
632.2300, 22631.00
633.3950, 22638.00
634.5600, 22557.00
635.7240, 22498.00
636.8890, 22473.00
638.0530, 22353.00
639.2170, 22411.00
640.3810, 22393.00
641.5450, 22432.00
642.7080, 22781.00
643.8720, 22992.00
645.0350, 23152.00
646.1980, 23504.00
647.3610, 23977.00
648.5240, 24334.00
649.6870, 24584.00
650.8490, 24861.00
652.0120, 25196.00
653.1740, 25473.00
654.3360, 25867.00
655.4980, 26054.00
656.6600, 26417.00
657.8210, 26782.00
658.9830, 26895.00
660.1440, 27039.00
661.3050, 27639.00
662.4660, 28328.00
663.6270, 28560.00
664.7870, 29121.00
665.9480, 29487.00
667.1080, 29964.00
668.2680, 30291.00
669.4280, 30627.00
670.5880, 30686.00
671.7480, 30854.00
672.9070, 30837.00
674.0670, 30610.00
675.2260, 30544.00
676.3850, 30063.00
677.5440, 29788.00
678.7030, 29350.00
679.8610, 29176.00
681.0200, 28929.00
682.1780, 28541.00
683.3360, 27979.00
684.4940, 28124.00
685.6520, 28164.00
686.8090, 27930.00
687.9670, 28219.00
689.1240, 28627.00
690.2810, 28884.00
691.4380, 29465.00
692.5950, 29875.00
693.7520, 30366.00
694.9080, 31293.00
696.0650, 31814.00
697.2210, 32991.00
698.3770, 33471.00
699.5330, 34696.00
700.6880, 35372.00
701.8440, 35676.00
702.9990, 36168.00
704.1550, 36592.00
705.3100, 36415.00
706.4650, 36320.00
707.6190, 35743.00
708.7740, 34757.00
709.9290, 33737.00
711.0830, 32445.00
712.2370, 30833.00
713.3910, 29626.00
714.5450, 27946.00
715.6980, 26756.00
716.8520, 25441.00
718.0050, 24507.00
719.1580, 23461.00
720.3110, 22746.00
721.4640, 21814.00
722.6170, 21233.00
723.7700, 20961.00
724.9220, 20645.00
726.0740, 20142.00
727.2260, 19949.00
728.3780, 19776.00
729.5300, 19618.00
730.6810, 19472.00
731.8330, 19336.56
732.9840, 19246.39
734.1350, 19103.00
735.2860, 19117.00
736.4370, 19039.00
737.5880, 19019.00
738.7380, 18805.00
739.8880, 18876.00
741.0390, 18929.00
742.1890, 18974.00
743.3380, 18783.00
744.4880, 19045.00
745.6380, 18901.00
746.7870, 19146.00
747.9360, 19084.00
749.0850, 19183.00
750.2340, 19329.00
751.3830, 19558.00
752.5310, 19626.00
753.6800, 19789.00
754.8280, 19846.00
755.9760, 19966.00
757.1240, 20105.00
758.2720, 20010.00
759.4190, 20008.00
760.5670, 19889.00
761.7140, 19736.00
762.8610, 19875.00
764.0080, 19674.00
765.1550, 19608.00
766.3020, 19347.00
767.4480, 19208.00
768.5950, 19133.00
769.7410, 19007.70
770.8870, 18978.00
772.0330, 18882.00
773.1780, 18982.00
774.3240, 18917.00
775.4690, 18884.00
776.6140, 19024.00
777.7590, 19037.00
778.9040, 19046.00
780.0490, 19127.00
781.1940, 19230.00
782.3380, 19231.00
783.4820, 19368.00
784.6260, 19321.00
785.7700, 19314.00
786.9140, 19388.00
788.0580, 19504.00
789.2010, 19498.00
790.3450, 19763.00
791.4880, 19541.00
792.6310, 19647.00
793.7730, 19654.00
794.9160, 19864.00
796.0590, 19868.00
797.2010, 19695.00
798.3430, 19677.00
799.4850, 19611.00
800.6270, 19638.31
801.7690, 20012.00
802.9100, 19815.00
804.0520, 19942.00
805.1930, 20127.00
806.3340, 20010.00
807.4750, 20096.00
808.6160, 20345.00
809.7560, 20566.00
810.8970, 20830.00
812.0370, 21357.00
813.1770, 21409.00
814.3170, 21653.00
815.4570, 21685.00
816.5960, 22021.00
817.7360, 22068.00
818.8750, 22108.00
820.0140, 21930.00
821.1530, 22189.00
822.2920, 21939.00
823.4310, 21616.00
824.5690, 21629.00
825.7070, 21380.00
826.8460, 21085.00
827.9840, 20743.00
829.1220, 20405.00
830.2590, 20269.00
831.3970, 20002.00
832.5340, 19633.00
833.6710, 19667.00
834.8080, 19201.00
835.9450, 19138.00
837.0820, 18878.00
838.2190, 18715.00
839.3550, 18618.00
840.4910, 18496.00
841.6270, 18404.00
842.7630, 18245.00
843.8990, 18028.00
845.0350, 17978.00
846.1700, 17708.00
847.3060, 17616.00
848.4410, 17404.00
849.5760, 17439.00
850.7100, 17334.00
851.8450, 17247.00
852.9800, 17182.00
854.1140, 17160.00
855.2480, 17120.00
856.3820, 17169.00
857.5160, 17096.00
858.6500, 17112.00
859.7830, 17150.00
860.9170, 17139.00
862.0500, 17170.00
863.1830, 17136.00
864.3160, 17151.00
865.4480, 17055.00
866.5810, 17204.00
867.7130, 16938.00
868.8460, 16886.00
869.9780, 17108.00
871.1100, 16967.00
872.2410, 16883.00
873.3730, 16858.00
874.5050, 16980.00
875.6360, 16920.00
876.7670, 16977.00
877.8980, 17032.00
879.0290, 17016.00
880.1590, 17029.00
881.2900, 16964.00
882.4200, 16967.00
883.5500, 17166.00
884.6800, 17007.00
885.8100, 17169.00
886.9400, 17009.00
888.0690, 17139.00
889.1990, 17071.00
890.3280, 17238.00
891.4570, 17213.00
892.5860, 17294.00
893.7140, 17333.41
894.8430, 17244.00
895.9710, 17398.00
897.1000, 17409.00
898.2280, 17481.00
899.3560, 17354.00
900.4830, 17276.00
901.6110, 17371.00
902.7380, 17510.00
903.8660, 17612.00
904.9930, 17516.00
906.1200, 17366.00
907.2460, 17442.00
908.3730, 17430.00
909.5000, 17574.00
910.6260, 17533.00
911.7520, 17449.00
912.8780, 17583.00
914.0040, 17755.00
915.1290, 17657.00
916.2550, 17661.00
917.3800, 17749.00
918.5050, 17598.00
919.6300, 17734.00
920.7550, 17751.00
921.8800, 17631.00
923.0040, 17857.00
924.1290, 17795.00
925.2530, 17891.00
926.3770, 18006.00
927.5010, 17778.00
928.6250, 17862.00
929.7480, 17926.00
930.8720, 17947.00
931.9950, 18012.99
933.1180, 18156.00
934.2410, 18130.00
935.3640, 18221.00
936.4860, 18347.00
937.6090, 18267.00
938.7310, 18465.00
939.8530, 18341.00
940.9750, 18526.00
942.0970, 18373.00
943.2180, 18535.00
944.3400, 18775.00
945.4610, 18855.00
946.5820, 18995.00
947.7030, 18825.00
948.8240, 19208.00
949.9450, 19337.00
951.0650, 19148.00
952.1860, 19270.00
953.3060, 19302.00
954.4260, 19596.00
955.5460, 19849.00
956.6650, 19759.00
957.7850, 19899.00
958.9040, 20049.00
960.0230, 20200.00
961.1420, 20061.00
962.2610, 20378.00
963.3800, 20312.00
964.4990, 20490.00
965.6170, 20553.00
966.7350, 20827.00
967.8530, 20615.00
968.9710, 20659.00
970.0890, 20785.00
971.2070, 20700.00
972.3240, 20751.00
973.4410, 20804.00
974.5580, 20822.00
975.6750, 20876.00
976.7920, 20698.00
977.9090, 20619.00
979.0250, 20660.00
980.1410, 20535.00
981.2580, 20580.00
982.3740, 20559.00
983.4890, 20556.00
984.6050, 20510.00
985.7200, 20652.00
986.8360, 20415.00
987.9510, 20409.00
989.0660, 20510.00
990.1810, 20360.00
991.2950, 20328.00
992.4100, 20421.00
993.5240, 20457.00
994.6390, 20489.00
995.7530, 20661.00
996.8660, 20760.00
997.9800, 20683.00
999.0940, 21044.00
1000.207, 21074.00
1001.320, 21102.00
1002.433, 21317.00
1003.546, 21362.09
1004.659, 21497.88
1005.772, 21600.00
1006.884, 21757.00
1007.996, 21893.00
1009.108, 22042.00
1010.220, 22095.00
1011.332, 22420.00
1012.444, 22547.00
1013.555, 22819.00
1014.666, 23175.00
1015.777, 23389.00
1016.888, 23680.00
1017.999, 23668.00
1019.110, 23954.00
1020.220, 24203.00
1021.331, 24541.00
1022.441, 24643.00
1023.551, 24634.00
1024.661, 24836.00
1025.770, 25018.00
1026.880, 25049.00
1027.989, 25301.00
1029.098, 25327.00
1030.207, 25674.00
1031.316, 25729.00
1032.425, 25772.00
1033.533, 25677.00
1034.642, 25770.00
1035.750, 26091.00
1036.858, 26350.00
1037.966, 26329.00
1039.073, 26486.00
1040.181, 26524.00
1041.288, 26666.00
1042.396, 26824.00
1043.503, 26950.00
1044.610, 27003.00
1045.716, 27190.00
1046.823, 27249.00
1047.929, 27261.00
1049.036, 27283.00
1050.142, 27127.00
1051.248, 27240.00
1052.353, 27126.00
1053.459, 27223.00
1054.564, 27329.00
1055.670, 27176.00
1056.775, 26960.00
1057.880, 27067.00
1058.985, 26861.00
1060.089, 26859.00
1061.194, 26720.00
1062.298, 26599.00
1063.402, 26583.00
1064.506, 26320.00
1065.610, 26053.00
1066.713, 26182.00
1067.817, 25793.00
1068.920, 25700.00
1070.023, 25325.00
1071.126, 25182.00
1072.229, 24996.00
1073.332, 24887.00
1074.435, 24676.17
1075.537, 24372.00
1076.639, 24256.00
1077.741, 23939.00
1078.843, 23675.00
1079.945, 23662.00
1081.046, 23447.00
1082.148, 23101.00
1083.249, 23074.00
1084.350, 22856.00
1085.451, 22628.00
1086.551, 22445.00
1087.652, 22254.72
1088.752, 22111.00
1089.853, 21906.00
1090.953, 21754.00
1092.053, 21572.00
1093.152, 21456.00
1094.252, 21099.00
1095.351, 21122.00
1096.451, 21178.00
1097.550, 20924.00
1098.649, 21032.00
1099.748, 20923.00
1100.846, 20877.00
1101.945, 20923.00
1103.043, 20682.00
1104.141, 20558.00
1105.239, 20610.00
1106.337, 20641.00
1107.434, 20869.00
1108.532, 20679.00
1109.629, 20772.00
1110.726, 20649.00
1111.823, 20515.00
1112.920, 20603.00
1114.017, 20580.00
1115.113, 20697.00
1116.210, 20771.00
1117.306, 20500.00
1118.402, 20645.00
1119.498, 20450.00
1120.593, 20515.00
1121.689, 20553.00
1122.784, 20589.00
1123.879, 20322.00
1124.974, 20203.00
1126.069, 19925.00
1127.164, 19829.00
1128.259, 19865.00
1129.353, 19611.00
1130.447, 19427.00
1131.541, 19443.00
1132.635, 19310.00
1133.729, 19136.00
1134.822, 18983.00
1135.916, 18897.07
1137.009, 18875.00
1138.102, 18793.00
1139.195, 18705.00
1140.288, 18775.00
1141.380, 18697.00
1142.473, 18701.00
1143.565, 18575.00
1144.657, 18751.00
1145.749, 18703.00
1146.841, 18673.00
1147.932, 18756.00
1149.024, 18465.00
1150.115, 18554.00
1151.206, 18188.00
1152.297, 18689.00
1153.388, 18635.00
1154.479, 18507.00
1155.569, 18691.00
1156.659, 18590.00
1157.750, 18577.00
1158.839, 18505.00
1159.929, 18366.00
1161.019, 18617.00
1162.108, 18601.00
1163.198, 18590.00
1164.287, 18477.00
1165.376, 18598.00
1166.465, 18472.00
1167.553, 18538.00
1168.642, 18613.00
1169.730, 18613.00
1170.818, 18537.00
1171.906, 18671.00
1172.994, 18558.00
1174.082, 18586.00
1175.170, 18504.00
1176.257, 18551.00
1177.344, 18575.00
1178.431, 18604.00
1179.518, 18625.00
1180.605, 18675.00
1181.691, 18520.00
1182.778, 18604.00
1183.864, 18612.00
1184.950, 18499.00
1186.036, 18612.00
1187.122, 18596.00
1188.207, 18502.00
1189.292, 18803.00
1190.378, 18600.00
1191.463, 18532.00
1192.548, 18775.00
1193.632, 18686.00
1194.717, 18794.00
1195.801, 18687.00
1196.886, 18854.00
1197.970, 18756.00
1199.054, 18726.00
1200.137, 18536.00
1201.221, 18738.00
1202.305, 18600.00
1203.388, 18671.00
1204.471, 18786.00
1205.554, 18498.00
1206.637, 18738.00
1207.719, 18734.00
1208.802, 18745.00
1209.884, 18873.00
1210.966, 19012.00
1212.048, 18841.00
1213.130, 18738.00
1214.212, 18838.00
1215.293, 18887.00
1216.374, 19009.00
1217.456, 18964.00
1218.536, 19048.04
1219.617, 19134.00
1220.698, 19068.00
1221.778, 19089.00
1222.859, 18961.00
1223.939, 19252.00
1225.019, 19363.00
1226.099, 19265.00
1227.178, 19299.00
1228.258, 19026.00
1229.337, 19058.00
1230.417, 19200.00
1231.496, 19209.00
1232.574, 19392.00
1233.653, 19299.00
1234.732, 19323.00
1235.810, 19470.00
1236.888, 19296.00
1237.966, 19318.00
1239.044, 19311.00
1240.122, 19321.00
1241.199, 19311.55
1242.277, 19233.00
1243.354, 19289.00
1244.431, 19292.00
1245.508, 19290.00
1246.585, 19424.00
1247.661, 19282.00
1248.738, 19412.00
1249.814, 19268.00
1250.890, 19317.00
1251.966, 19288.00
1253.042, 19450.00
1254.117, 19321.00
1255.193, 19472.00
1256.268, 19364.00
1257.343, 19292.00
1258.418, 19300.00
1259.493, 19427.00
1260.567, 19295.00
1261.642, 19490.00
1262.716, 19445.00
1263.790, 19303.00
1264.864, 19517.00
1265.938, 19361.00
1267.011, 19547.00
1268.085, 19613.00
1269.158, 19474.00
1270.231, 19440.00
1271.304, 19221.00
1272.377, 19308.00
1273.450, 19544.00
1274.522, 19376.00
1275.594, 19469.00
1276.666, 19482.00
1277.738, 19477.00
1278.810, 19444.00
1279.882, 19405.00
1280.953, 19573.00
1282.025, 19416.00
1283.096, 19603.00
1284.167, 19306.00
1285.238, 19321.00
1286.308, 19368.00
1287.379, 19314.00
1288.449, 19325.00
1289.519, 19291.00
1290.589, 19356.00
1291.659, 19239.00
1292.729, 19402.00
1293.798, 19541.00
1294.868, 19379.00
1295.937, 19401.00
1297.006, 19376.00
1298.075, 19418.00
1299.143, 19236.00
1300.212, 19343.00
1301.280, 19334.00
1302.348, 19405.00
1303.416, 19453.00
1304.484, 19526.00
1305.552, 19414.00
1306.620, 19613.00
1307.687, 19424.00
1308.754, 19432.00
1309.821, 19569.00
1310.888, 19518.00
1311.955, 19616.00
1313.021, 19726.00
1314.088, 19609.00
1315.154, 19564.00
1316.220, 19621.00
1317.286, 19641.00
1318.352, 19625.00
1319.417, 19703.00
1320.483, 19507.00
1321.548, 19794.00
1322.613, 19585.00
1323.678, 19584.00
1324.743, 19770.00
1325.807, 19755.00
1326.872, 19600.00
1327.936, 19643.00
1329.000, 19717.00
1330.064, 19649.00
1331.128, 19465.00
1332.191, 19439.00
1333.255, 19637.00
1334.318, 19665.00
1335.381, 19348.00
1336.444, 19618.00
1337.507, 19533.00
1338.569, 19767.00
1339.632, 19592.00
1340.694, 19468.00
1341.756, 19540.00
1342.818, 19586.00
1343.880, 19535.00
1344.941, 19651.00
1346.003, 19649.00
1347.064, 19577.00
1348.125, 19684.00
1349.186, 19676.00
1350.247, 19465.00
1351.308, 19495.00
1352.368, 19569.00
1353.428, 19647.00
1354.489, 19639.91
1355.549, 19708.00
1356.608, 19628.00
1357.668, 19595.00
1358.727, 19566.00
1359.787, 19642.00
1360.846, 19607.00
1361.905, 19710.00
1362.964, 19537.00
1364.022, 19586.00
1365.081, 19706.00
1366.139, 19659.00
1367.197, 19747.00
1368.255, 19732.00
1369.313, 19701.00
1370.371, 19631.00
1371.428, 19674.00
1372.486, 19795.00
1373.543, 19715.00
1374.600, 19840.00
1375.657, 19740.00
1376.713, 19862.00
1377.770, 19813.00
1378.826, 19896.00
1379.882, 19716.00
1380.938, 19769.00
1381.994, 19841.00
1383.050, 19599.00
1384.106, 19945.00
1385.161, 19762.00
1386.216, 20129.00
1387.271, 19780.00
1388.326, 19924.00
1389.381, 19841.00
1390.435, 19860.00
1391.490, 19930.00
1392.544, 19771.00
1393.598, 19960.00
1394.652, 19733.00
1395.705, 19801.00
1396.759, 19898.00
1397.812, 19962.00
1398.866, 19759.00
1399.919, 19625.00
1400.972, 19873.00
1402.024, 19765.00
1403.077, 19851.00
1404.129, 19952.00
1405.181, 19874.00
1406.233, 19798.00
1407.285, 19916.00
1408.337, 19929.00
1409.389, 19770.00
1410.440, 19775.00
1411.491, 19850.00
1412.542, 19861.00
1413.593, 20043.00
1414.644, 20027.00
1415.695, 19813.00
1416.745, 19828.00
1417.795, 19945.00
1418.845, 19790.00
1419.895, 19896.00
1420.945, 20009.00
1421.995, 19849.00
1423.044, 20015.00
1424.093, 19769.00
1425.142, 19862.00
1426.191, 19850.00
1427.240, 19901.00
1428.289, 19967.00
1429.337, 19946.76
1430.385, 19765.00
1431.433, 19899.00
1432.481, 19880.00
1433.529, 19764.00
1434.577, 19841.00
1435.624, 19880.00
1436.672, 19843.00
1437.719, 19933.00
1438.766, 19926.51
1439.812, 19961.83
1440.859, 19974.00
1441.905, 20030.00
1442.952, 20077.00
1443.998, 20108.00
1445.044, 20165.00
1446.090, 20173.00
1447.135, 20196.00
1448.181, 20184.00
1449.226, 20205.95
1450.271, 20272.00
1451.316, 20258.00
1452.361, 20212.00
1453.405, 20285.00
1454.450, 20134.00
1455.494, 20167.00
1456.538, 20145.00
1457.582, 20185.00
1458.626, 20129.00
1459.670, 20120.97
1460.713, 20020.00
1461.757, 20061.00
1462.800, 20025.00
1463.843, 19990.00
1464.886, 20115.00
1465.928, 19932.00
1466.971, 20014.00
1468.013, 20070.00
1469.055, 20093.00
1470.097, 20084.00
1471.139, 20066.00
1472.181, 19995.00
1473.222, 19956.00
1474.263, 19948.00
1475.305, 19917.00
1476.346, 20042.00
1477.386, 19849.00
1478.427, 20118.00
1479.468, 19938.00
1480.508, 19890.00
1481.548, 19988.00
1482.588, 20091.00
1483.628, 19915.00
1484.668, 20044.00
1485.707, 20061.00
1486.747, 19856.00
1487.786, 19949.00
1488.825, 19978.00
1489.864, 20020.00
1490.902, 20024.00
1491.941, 19957.00
1492.979, 20098.00
1494.017, 19974.00
1495.055, 19985.00
1496.093, 20000.67
1497.131, 19981.00
1498.168, 20038.00
1499.206, 20044.00
1500.243, 20065.20
1501.280, 20082.13
1502.317, 20091.00
1503.354, 20078.00
1504.390, 20043.00
1505.426, 19998.80
1506.463, 20305.00
1507.499, 20110.00
1508.535, 20143.00
1509.570, 20400.00
1510.606, 20214.00
1511.641, 20083.00
1512.676, 20244.00
1513.711, 20135.00
1514.746, 20138.00
1515.781, 20297.00
1516.816, 20203.00
1517.850, 20119.00
1518.884, 20448.00
1519.918, 20234.00
1520.952, 20198.00
1521.986, 20214.00
1523.019, 20369.00
1524.053, 20178.00
1525.086, 20199.00
1526.119, 20136.00
1527.152, 20141.00
1528.185, 20183.00
1529.217, 20219.00
1530.250, 20190.00
1531.282, 20200.00
1532.314, 20182.62
1533.346, 20179.14
1534.377, 20161.00
1535.409, 20209.00
1536.440, 20257.00
1537.472, 20350.00
1538.503, 20040.00
1539.534, 20214.00
1540.564, 20172.00
1541.595, 20384.00
1542.625, 20291.00
1543.656, 20315.00
1544.686, 20330.65
1545.716, 20221.00
1546.745, 20305.00
1547.775, 20202.00
1548.804, 20252.00
1549.834, 20162.00
1550.863, 20185.00
1551.892, 20178.00
1552.920, 20281.00
1553.949, 20278.00
1554.977, 20158.00
1556.006, 20248.00
1557.034, 20146.00
1558.062, 20209.00
1559.089, 20148.00
1560.117, 20106.00
1561.144, 20206.00
1562.172, 20066.00
1563.199, 20125.00
1564.226, 20193.00
1565.252, 20158.00
1566.279, 20239.00
1567.305, 20186.00
1568.332, 20119.00
1569.358, 20187.00
1570.384, 20342.00
1571.409, 20072.00
1572.435, 20277.00
##END=



