##NAMES=Dravite
##RRUFFID=R050077
##IDEAL CHEMISTRY=NaMg_3_Al_6_(Si_6_O_18_)(BO_3_)_3_(OH)_3_OH
##LOCALITY=Yinnietharra Station, Western Australia, Australia
##OWNER=RRUFF
##SOURCE=Rock Currier
##DESCRIPTION=Dark brown euhedral prismatic single crystal
##STATUS=The identification of this mineral has been confirmed by X-ray diffraction and chemical analysis
##URL=rruff.info/R050077
##MEASURED CHEMISTRY=(Na_0.783_Ca_0.217_)(Mg_0.771_Fe^2+^_0.221_Ti^4+^_0.008_)_3_(Al_0.956_Mg_0.044_)_6_(BO_3_)_3_[Si_6_O_18_]((OH)_0.914_F_0.086_)_4_
##PIN_ID=L00540
##ORIENTATION=Laser parallel to -a* (-1 0 0). Fiducial mark perpendicular to laser is parallel to c [0 0 1]
118.1340, 5066.000
119.3650, 4931.000
120.5960, 4872.000
121.8270, 5031.000
123.0580, 4933.185
124.2880, 5200.000
125.5190, 5030.000
126.7490, 4883.000
127.9790, 5112.000
129.2090, 5978.000
130.4390, 5725.000
131.6680, 5761.000
132.8980, 5605.000
134.1270, 5789.000
135.3560, 6006.000
136.5850, 6234.000
137.8140, 6455.000
139.0430, 6572.411
140.2710, 6674.722
141.5000, 6803.000
142.7280, 6735.000
143.9560, 6882.000
145.1840, 6850.000
146.4120, 6924.000
147.6390, 6842.000
148.8670, 6765.000
150.0940, 6831.000
151.3210, 6871.000
152.5490, 6606.000
153.7750, 6344.000
155.0020, 6297.000
156.2290, 6039.000
157.4550, 5857.000
158.6810, 5700.000
159.9080, 5599.000
161.1340, 5562.000
162.3590, 5684.000
163.5850, 5759.000
164.8110, 5865.000
166.0360, 5631.000
167.2610, 5686.000
168.4860, 5695.000
169.7110, 5787.000
170.9360, 5856.000
172.1610, 5772.000
173.3850, 5936.000
174.6100, 5952.000
175.8340, 6151.000
177.0580, 6300.000
178.2820, 6435.000
179.5050, 6793.000
180.7290, 6927.000
181.9520, 7168.000
183.1760, 7520.000
184.3990, 7829.000
185.6220, 8216.000
186.8450, 8518.000
188.0670, 9016.000
189.2900, 9495.000
190.5120, 10178.00
191.7340, 10587.00
192.9560, 11377.00
194.1780, 12362.00
195.4000, 13195.00
196.6220, 14394.00
197.8430, 15911.00
199.0640, 17587.00
200.2860, 19778.00
201.5070, 21972.00
202.7270, 24525.00
203.9480, 27248.00
205.1690, 29872.00
206.3890, 33183.00
207.6090, 35951.00
208.8290, 38188.00
210.0490, 39730.00
211.2690, 40257.00
212.4890, 39931.00
213.7080, 38785.00
214.9280, 37231.00
216.1470, 35334.00
217.3660, 33542.00
218.5850, 31738.00
219.8030, 30578.84
221.0220, 29361.20
222.2400, 28659.00
223.4590, 28009.00
224.6770, 27462.00
225.8950, 27813.00
227.1120, 28261.00
228.3300, 29370.00
229.5480, 30504.00
230.7650, 32403.00
231.9820, 34445.00
233.1990, 36769.00
234.4160, 39350.00
235.6330, 41885.00
236.8490, 44185.00
238.0660, 45932.00
239.2820, 46763.00
240.4980, 46417.00
241.7140, 45244.00
242.9300, 43388.00
244.1460, 40232.00
245.3610, 37482.00
246.5770, 34291.00
247.7920, 31345.00
249.0070, 28197.00
250.2220, 25355.00
251.4370, 23292.00
252.6510, 21312.00
253.8660, 19564.00
255.0800, 18373.00
256.2940, 17176.00
257.5080, 16723.00
258.7220, 15720.92
259.9360, 14960.37
261.1490, 14458.00
262.3630, 13581.00
263.5760, 13246.00
264.7890, 12870.00
266.0020, 12396.00
267.2150, 12000.00
268.4270, 11671.00
269.6400, 11038.00
270.8520, 10829.00
272.0640, 10242.00
273.2760, 9830.000
274.4880, 9636.000
275.7000, 9185.000
276.9120, 8901.000
278.1230, 8592.000
279.3340, 8487.000
280.5450, 8134.000
281.7560, 7952.000
282.9670, 7659.000
284.1780, 7557.000
285.3880, 7500.000
286.5980, 7366.000
287.8090, 7279.000
289.0190, 7232.000
290.2290, 7160.000
291.4380, 7114.000
292.6480, 7142.000
293.8570, 7165.705
295.0670, 7267.000
296.2760, 7336.000
297.4850, 7462.064
298.6930, 7623.000
299.9020, 7741.000
301.1110, 7999.000
302.3190, 8184.000
303.5270, 8628.000
304.7350, 9094.000
305.9430, 9684.000
307.1510, 10361.00
308.3580, 10988.00
309.5660, 11687.00
310.7730, 11927.00
311.9800, 12025.00
313.1870, 11633.00
314.3940, 11046.00
315.6010, 10675.28
316.8070, 10508.00
318.0130, 9584.000
319.2200, 9250.000
320.4260, 8975.000
321.6310, 8858.000
322.8370, 8827.000
324.0430, 9693.000
325.2480, 10398.00
326.4540, 9476.000
327.6590, 9302.000
328.8640, 9480.000
330.0680, 9671.000
331.2730, 9898.000
332.4780, 10150.00
333.6820, 10461.83
334.8860, 10711.00
336.0900, 11161.00
337.2940, 11502.00
338.4980, 11876.00
339.7010, 12450.00
340.9050, 12856.00
342.1080, 13277.00
343.3110, 13800.00
344.5140, 14557.00
345.7170, 15299.00
346.9200, 16108.00
348.1220, 16927.00
349.3240, 18141.00
350.5270, 19423.00
351.7290, 21146.00
352.9310, 23208.00
354.1320, 25545.00
355.3340, 28363.00
356.5350, 31707.00
357.7370, 35775.00
358.9380, 40269.00
360.1390, 45243.00
361.3400, 50285.00
362.5400, 55795.00
363.7410, 59759.00
364.9410, 63271.00
366.1410, 65009.00
367.3410, 64761.00
368.5410, 63460.00
369.7410, 60642.00
370.9400, 56482.00
372.1400, 51918.00
373.3390, 47511.00
374.5380, 42935.00
375.7370, 38626.00
376.9360, 35090.00
378.1350, 31902.00
379.3330, 30127.00
380.5310, 28300.00
381.7300, 26447.00
382.9280, 24179.00
384.1260, 22916.64
385.3230, 21472.73
386.5210, 20469.00
387.7180, 19524.00
388.9160, 18874.00
390.1130, 18501.00
391.3100, 18177.00
392.5060, 17768.00
393.7030, 17728.00
394.9000, 17235.00
396.0960, 17501.00
397.2920, 17199.00
398.4880, 17162.00
399.6840, 17162.00
400.8800, 17098.00
402.0750, 16858.00
403.2710, 16558.00
404.4660, 16210.00
405.6610, 15787.00
406.8560, 15417.00
408.0510, 14685.00
409.2450, 14044.00
410.4400, 13449.00
411.6340, 12869.54
412.8280, 12416.00
414.0220, 11841.00
415.2160, 11391.00
416.4100, 10926.00
417.6030, 10695.00
418.7970, 10255.00
419.9900, 10120.00
421.1830, 9752.000
422.3760, 9469.000
423.5690, 9313.000
424.7610, 9110.000
425.9540, 8985.000
427.1460, 8937.000
428.3380, 8932.000
429.5300, 8659.000
430.7220, 8579.000
431.9140, 8596.000
433.1050, 8516.000
434.2970, 8376.000
435.4880, 8366.000
436.6790, 8383.000
437.8700, 8237.000
439.0610, 8177.000
440.2510, 8084.000
441.4420, 8067.646
442.6320, 8094.000
443.8220, 8093.000
445.0120, 8041.000
446.2020, 8079.000
447.3910, 8065.000
448.5810, 7988.000
449.7700, 8157.000
450.9600, 8256.000
452.1490, 8265.000
453.3370, 8535.000
454.5260, 8609.000
455.7150, 8993.000
456.9030, 9194.000
458.0910, 9659.000
459.2800, 10126.00
460.4670, 10417.00
461.6550, 10598.24
462.8430, 10796.00
464.0300, 10608.00
465.2180, 10386.00
466.4050, 10041.00
467.5920, 10035.00
468.7790, 10166.00
469.9650, 10024.00
471.1520, 10275.00
472.3380, 10311.00
473.5250, 10414.00
474.7110, 10420.00
475.8970, 10681.00
477.0820, 10752.00
478.2680, 10818.00
479.4540, 11096.00
480.6390, 11369.00
481.8240, 11547.00
483.0090, 11647.00
484.1940, 11911.00
485.3780, 12243.00
486.5630, 12338.00
487.7470, 12648.00
488.9320, 12944.00
490.1160, 12999.00
491.3000, 12931.00
492.4830, 13109.00
493.6670, 13097.00
494.8500, 13240.00
496.0340, 13206.00
497.2170, 13024.00
498.4000, 12935.00
499.5820, 12567.00
500.7650, 12347.00
501.9480, 12069.00
503.1300, 11756.92
504.3120, 11464.00
505.4940, 11175.00
506.6760, 10903.00
507.8580, 10635.00
509.0390, 10357.50
510.2210, 9991.000
511.4020, 9853.000
512.5830, 9520.000
513.7640, 9343.000
514.9450, 9099.000
516.1250, 8889.000
517.3060, 8755.000
518.4860, 8579.000
519.6660, 8570.000
520.8460, 8510.000
522.0260, 8431.000
523.2060, 8424.000
524.3850, 8580.000
525.5650, 8594.000
526.7440, 8685.000
527.9230, 8806.000
529.1020, 8813.000
530.2810, 8878.270
531.4590, 8824.000
532.6380, 8915.000
533.8160, 8923.000
534.9940, 8907.000
536.1720, 8897.573
537.3500, 8839.000
538.5270, 8754.000
539.7050, 8681.000
540.8820, 8506.000
542.0590, 8360.000
543.2360, 8226.000
544.4130, 7980.000
545.5900, 7921.008
546.7660, 7953.000
547.9430, 7747.000
549.1190, 7616.000
550.2950, 7525.000
551.4710, 7414.000
552.6470, 7291.000
553.8220, 7225.556
554.9980, 7169.000
556.1730, 7078.000
557.3480, 7050.000
558.5230, 6967.000
559.6980, 6900.507
560.8730, 6847.000
562.0470, 6769.000
563.2220, 6728.000
564.3960, 6686.000
565.5700, 6652.000
566.7440, 6681.000
567.9170, 6660.000
569.0910, 6565.000
570.2640, 6633.000
571.4380, 6575.000
572.6110, 6628.000
573.7840, 6566.000
574.9570, 6470.000
576.1290, 6531.000
577.3020, 6471.000
578.4740, 6501.000
579.6460, 6513.000
580.8180, 6572.000
581.9900, 6514.000
583.1620, 6580.000
584.3330, 6523.000
585.5040, 6586.000
586.6760, 6622.000
587.8470, 6738.000
589.0180, 6750.615
590.1880, 6784.000
591.3590, 6814.000
592.5290, 6799.000
593.7000, 6833.000
594.8700, 6905.000
596.0400, 6860.000
597.2090, 7010.000
598.3790, 6965.000
599.5490, 7014.000
600.7180, 7058.000
601.8870, 7112.842
603.0560, 7186.289
604.2250, 7274.975
605.3940, 7361.000
606.5620, 7489.000
607.7300, 7614.000
608.8990, 7738.000
610.0670, 7871.025
611.2350, 8073.000
612.4020, 8159.000
613.5700, 8322.000
614.7370, 8517.000
615.9050, 8895.000
617.0720, 9283.000
618.2390, 9456.000
619.4060, 10081.00
620.5720, 10652.00
621.7390, 11278.00
622.9050, 12062.00
624.0710, 12781.00
625.2370, 13787.00
626.4030, 14561.00
627.5690, 15270.00
628.7340, 15751.00
629.9000, 16044.00
631.0650, 15962.00
632.2300, 15790.00
633.3950, 15755.00
634.5600, 15448.00
635.7240, 15340.00
636.8890, 15404.00
638.0530, 15432.00
639.2170, 15815.00
640.3810, 15994.00
641.5450, 16550.00
642.7080, 17101.00
643.8720, 17752.00
645.0350, 18082.00
646.1980, 18647.00
647.3610, 18869.00
648.5240, 18900.00
649.6870, 19058.00
650.8490, 19147.00
652.0120, 19034.00
653.1740, 18807.00
654.3360, 18787.00
655.4980, 18730.00
656.6600, 18610.00
657.8210, 18725.00
658.9830, 18980.00
660.1440, 19222.00
661.3050, 19691.00
662.4660, 20313.00
663.6270, 20845.00
664.7870, 21773.00
665.9480, 22296.86
667.1080, 23112.21
668.2680, 23637.00
669.4280, 24045.00
670.5880, 24118.13
671.7480, 23935.00
672.9070, 23586.00
674.0670, 23261.00
675.2260, 22370.00
676.3850, 21712.00
677.5440, 20904.00
678.7030, 20282.00
679.8610, 19632.00
681.0200, 19230.00
682.1780, 18696.00
683.3360, 18601.00
684.4940, 18446.00
685.6520, 18491.00
686.8090, 18756.00
687.9670, 18926.00
689.1240, 19488.00
690.2810, 20030.00
691.4380, 20831.00
692.5950, 21824.00
693.7520, 22910.00
694.9080, 23943.00
696.0650, 24925.00
697.2210, 25724.00
698.3770, 26338.00
699.5330, 26250.00
700.6880, 26022.00
701.8440, 25248.00
702.9990, 23857.00
704.1550, 22162.00
705.3100, 20380.00
706.4650, 18478.00
707.6190, 16710.00
708.7740, 15132.00
709.9290, 13718.00
711.0830, 12626.00
712.2370, 11396.00
713.3910, 10608.00
714.5450, 9869.000
715.6980, 9049.000
716.8520, 8599.000
718.0050, 8201.000
719.1580, 8008.000
720.3110, 7688.000
721.4640, 7398.000
722.6170, 7142.000
723.7700, 6963.000
724.9220, 6824.477
726.0740, 6688.654
727.2260, 6597.999
728.3780, 6526.000
729.5300, 6477.000
730.6810, 6435.000
731.8330, 6418.000
732.9840, 6277.000
734.1350, 6327.000
735.2860, 6197.000
736.4370, 6299.000
737.5880, 6232.000
738.7380, 6225.000
739.8880, 6330.000
741.0390, 6382.000
742.1890, 6402.000
743.3380, 6514.000
744.4880, 6525.000
745.6380, 6677.000
746.7870, 6692.000
747.9360, 6822.000
749.0850, 6900.000
750.2340, 7008.000
751.3830, 7048.000
752.5310, 7091.130
753.6800, 7057.000
754.8280, 7108.000
755.9760, 7093.000
757.1240, 7050.000
758.2720, 6858.000
759.4190, 6798.000
760.5670, 6614.000
761.7140, 6508.000
762.8610, 6345.000
764.0080, 6227.000
765.1550, 6285.000
766.3020, 6134.000
767.4480, 6150.000
768.5950, 6041.000
769.7410, 6024.000
770.8870, 5912.000
772.0330, 5949.000
773.1780, 5906.000
774.3240, 5871.000
775.4690, 5932.000
776.6140, 5818.000
777.7590, 5874.000
778.9040, 5796.000
780.0490, 5908.000
781.1940, 5716.000
782.3380, 5798.000
783.4820, 5829.000
784.6260, 5770.000
785.7700, 5750.000
786.9140, 5773.000
788.0580, 5626.000
789.2010, 5675.000
790.3450, 5598.000
791.4880, 5607.000
792.6310, 5586.000
793.7730, 5380.000
794.9160, 5363.000
796.0590, 5253.000
797.2010, 5156.000
798.3430, 5078.000
799.4850, 5035.000
800.6270, 4926.000
801.7690, 5000.000
802.9100, 4904.000
804.0520, 4951.000
805.1930, 4989.000
806.3340, 4937.000
807.4750, 4934.000
808.6160, 5066.000
809.7560, 4948.000
810.8970, 4999.000
812.0370, 4947.000
813.1770, 4963.000
814.3170, 4986.000
815.4570, 4985.000
816.5960, 4932.000
817.7360, 4797.000
818.8750, 4839.000
820.0140, 4739.000
821.1530, 4712.000
822.2920, 4632.000
823.4310, 4526.000
824.5690, 4521.000
825.7070, 4395.000
826.8460, 4360.000
827.9840, 4330.000
829.1220, 4316.000
830.2590, 4265.491
831.3970, 4221.074
832.5340, 4179.000
833.6710, 4116.000
834.8080, 4081.000
835.9450, 4047.000
837.0820, 3984.000
838.2190, 3968.157
839.3550, 4042.000
840.4910, 3929.000
841.6270, 3892.000
842.7630, 3890.000
843.8990, 3765.000
845.0350, 3829.000
846.1700, 3836.000
847.3060, 3743.000
848.4410, 3803.000
849.5760, 3749.000
850.7100, 3830.000
851.8450, 3776.000
852.9800, 3725.000
854.1140, 3731.000
855.2480, 3751.000
856.3820, 3748.000
857.5160, 3743.000
858.6500, 3767.000
859.7830, 3727.000
860.9170, 3793.000
862.0500, 3727.000
863.1830, 3807.000
864.3160, 3751.000
865.4480, 3745.000
866.5810, 3718.000
867.7130, 3718.000
868.8460, 3771.000
869.9780, 3727.000
871.1100, 3839.000
872.2410, 3759.000
873.3730, 3864.000
874.5050, 3817.000
875.6360, 3739.000
876.7670, 3866.000
877.8980, 3797.000
879.0290, 3779.000
880.1590, 3827.000
881.2900, 3815.000
882.4200, 3849.000
883.5500, 3906.000
884.6800, 3878.000
885.8100, 3934.000
886.9400, 3930.000
888.0690, 3919.000
889.1990, 3889.000
890.3280, 3912.000
891.4570, 3942.000
892.5860, 3996.000
893.7140, 4021.834
894.8430, 3958.000
895.9710, 4093.000
897.1000, 4040.000
898.2280, 4064.000
899.3560, 4106.000
900.4830, 4035.000
901.6110, 4081.000
902.7380, 4046.000
903.8660, 4078.210
904.9930, 4096.569
906.1200, 4168.000
907.2460, 4136.000
908.3730, 4198.000
909.5000, 4207.000
910.6260, 4231.000
911.7520, 4305.000
912.8780, 4409.000
914.0040, 4345.000
915.1290, 4374.000
916.2550, 4504.000
917.3800, 4400.000
918.5050, 4480.000
919.6300, 4459.000
920.7550, 4477.000
921.8800, 4503.000
923.0040, 4569.000
924.1290, 4567.000
925.2530, 4588.000
926.3770, 4687.000
927.5010, 4660.000
928.6250, 4761.000
929.7480, 4774.000
930.8720, 4750.000
931.9950, 4877.000
933.1180, 4884.000
934.2410, 4998.000
935.3640, 4943.000
936.4860, 5018.000
937.6090, 5076.000
938.7310, 5259.000
939.8530, 5338.000
940.9750, 5456.000
942.0970, 5424.000
943.2180, 5596.000
944.3400, 5619.000
945.4610, 5881.000
946.5820, 5949.000
947.7030, 6091.000
948.8240, 6188.000
949.9450, 6396.000
951.0650, 6484.000
952.1860, 6665.000
953.3060, 6724.000
954.4260, 6788.000
955.5460, 7012.000
956.6650, 7088.000
957.7850, 7189.000
958.9040, 7332.000
960.0230, 7421.000
961.1420, 7531.000
962.2610, 7666.000
963.3800, 7665.000
964.4990, 7598.000
965.6170, 7783.000
966.7350, 7625.000
967.8530, 7649.000
968.9710, 7557.000
970.0890, 7561.000
971.2070, 7396.000
972.3240, 7486.000
973.4410, 7355.000
974.5580, 7369.000
975.6750, 7283.000
976.7920, 7327.000
977.9090, 7351.000
979.0250, 7213.000
980.1410, 7340.000
981.2580, 7292.000
982.3740, 7117.000
983.4890, 7244.000
984.6050, 7297.000
985.7200, 7267.000
986.8360, 7345.000
987.9510, 7436.000
989.0660, 7415.000
990.1810, 7511.000
991.2950, 7499.000
992.4100, 7627.000
993.5240, 7756.000
994.6390, 7783.000
995.7530, 7904.000
996.8660, 7978.000
997.9800, 8084.077
999.0940, 8284.997
1000.207, 8381.000
1001.320, 8649.000
1002.433, 8940.000
1003.546, 8995.000
1004.659, 9270.000
1005.772, 9561.000
1006.884, 9845.000
1007.996, 10166.33
1009.108, 10488.77
1010.220, 10826.00
1011.332, 11177.00
1012.444, 11517.00
1013.555, 11884.00
1014.666, 12258.00
1015.777, 12614.00
1016.888, 13135.00
1017.999, 13544.00
1019.110, 13809.00
1020.220, 14247.00
1021.331, 14501.00
1022.441, 14835.00
1023.551, 15126.00
1024.661, 15561.00
1025.770, 15869.00
1026.880, 16036.00
1027.989, 16281.00
1029.098, 16504.00
1030.207, 16518.00
1031.316, 16638.00
1032.425, 16585.42
1033.533, 16491.00
1034.642, 16401.00
1035.750, 16339.00
1036.858, 16246.00
1037.966, 16248.00
1039.073, 16270.00
1040.181, 16148.00
1041.288, 16103.00
1042.396, 16226.00
1043.503, 16045.00
1044.610, 15978.00
1045.716, 15969.00
1046.823, 15808.00
1047.929, 15816.00
1049.036, 15636.00
1050.142, 15457.00
1051.248, 15182.00
1052.353, 15051.00
1053.459, 14725.00
1054.564, 14535.00
1055.670, 14229.00
1056.775, 13819.00
1057.880, 13631.00
1058.985, 13248.00
1060.089, 13094.00
1061.194, 12788.00
1062.298, 12535.00
1063.402, 12430.00
1064.506, 12024.00
1065.610, 11804.00
1066.713, 11552.00
1067.817, 11403.00
1068.920, 11111.00
1070.023, 10855.00
1071.126, 10597.25
1072.229, 10174.00
1073.332, 9985.000
1074.435, 9707.000
1075.537, 9323.000
1076.639, 9148.000
1077.741, 8966.000
1078.843, 8765.000
1079.945, 8506.000
1081.046, 8300.000
1082.148, 8039.000
1083.249, 7747.000
1084.350, 7561.000
1085.451, 7266.000
1086.551, 7267.000
1087.652, 7080.000
1088.752, 6960.000
1089.853, 6785.000
1090.953, 6699.000
1092.053, 6577.000
1093.152, 6484.000
1094.252, 6370.022
1095.351, 6318.000
1096.451, 6168.000
1097.550, 6106.000
1098.649, 6066.000
1099.748, 5952.000
1100.846, 5947.000
1101.945, 5844.000
1103.043, 5682.000
1104.141, 5736.000
1105.239, 5639.000
1106.337, 5701.000
1107.434, 5581.000
1108.532, 5605.000
1109.629, 5522.000
1110.726, 5457.000
1111.823, 5449.000
1112.920, 5513.000
1114.017, 5633.000
1115.113, 5828.000
1116.210, 5907.000
1117.306, 6121.434
1118.402, 6296.638
1119.498, 6494.000
1120.593, 6587.000
1121.689, 6602.771
1122.784, 6619.000
1123.879, 6428.000
1124.974, 6271.000
1126.069, 5964.000
1127.164, 5468.000
1128.259, 5295.000
1129.353, 4946.000
1130.447, 4780.000
1131.541, 4645.000
1132.635, 4559.000
1133.729, 4476.000
1134.822, 4442.000
1135.916, 4427.000
1137.009, 4361.000
1138.102, 4371.000
1139.195, 4354.000
1140.288, 4311.000
1141.380, 4278.000
1142.473, 4313.000
1143.565, 4271.000
1144.657, 4229.000
1145.749, 4249.000
1146.841, 4205.000
1147.932, 4152.000
1149.024, 4196.000
1150.115, 4190.000
1151.206, 4178.000
1152.297, 4241.000
1153.388, 4164.000
1154.479, 4167.000
1155.569, 4185.000
1156.659, 4119.000
1157.750, 4106.000
1158.839, 4133.000
1159.929, 4082.000
1161.019, 4091.000
1162.108, 4047.000
1163.198, 4047.000
1164.287, 4090.000
1165.376, 4082.000
1166.465, 4011.000
1167.553, 4082.000
1168.642, 4020.000
1169.730, 4034.000
1170.818, 4164.000
1171.906, 4046.000
1172.994, 4003.000
1174.082, 4112.000
1175.170, 4047.000
1176.257, 4034.000
1177.344, 4070.000
1178.431, 4060.000
1179.518, 3997.000
1180.605, 3988.000
1181.691, 4006.000
1182.778, 3970.000
1183.864, 3960.000
1184.950, 4026.000
1186.036, 3998.000
1187.122, 4093.000
1188.207, 4026.000
1189.292, 4036.000
1190.378, 4014.000
1191.463, 4054.000
1192.548, 3937.000
1193.632, 3969.000
1194.717, 3930.000
1195.801, 3999.000
1196.886, 3959.000
1197.970, 4018.000
1199.054, 3943.000
1200.137, 3953.000
1201.221, 3968.000
1202.305, 3933.000
1203.388, 4009.000
1204.471, 4010.000
1205.554, 3947.000
1206.637, 4044.000
1207.719, 3998.000
1208.802, 4017.000
1209.884, 4030.000
1210.966, 4051.000
1212.048, 4073.000
1213.130, 4101.000
1214.212, 4054.000
1215.293, 4037.000
1216.374, 4036.000
1217.456, 4001.000
1218.536, 4002.000
1219.617, 4083.000
1220.698, 4043.000
1221.778, 4032.000
1222.859, 4163.000
1223.939, 4042.000
1225.019, 4154.000
1226.099, 4020.000
1227.178, 4150.000
1228.258, 4095.000
1229.337, 4142.000
1230.417, 4184.000
1231.496, 4014.000
1232.574, 4210.000
1233.653, 4184.000
1234.732, 4135.000
1235.810, 4238.000
1236.888, 4183.000
1237.966, 4182.000
1239.044, 4214.000
1240.122, 4179.000
1241.199, 4205.000
1242.277, 4221.000
1243.354, 4264.000
1244.431, 4249.401
1245.508, 4258.000
1246.585, 4233.000
1247.661, 4218.000
1248.738, 4225.000
1249.814, 4225.000
1250.890, 4213.000
1251.966, 4229.000
1253.042, 4167.000
1254.117, 4260.000
1255.193, 4225.000
1256.268, 4239.000
1257.343, 4186.000
1258.418, 4242.000
1259.493, 4289.000
1260.567, 4191.000
1261.642, 4230.000
1262.716, 4278.000
1263.790, 4100.000
1264.864, 4196.000
1265.938, 4204.000
1267.011, 4681.000
1268.085, 4409.836
1269.158, 4871.000
1270.231, 4191.000
1271.304, 4124.000
1272.377, 4249.000
1273.450, 4237.000
1274.522, 4186.000
1275.594, 4233.000
1276.666, 4183.000
1277.738, 4270.000
1278.810, 4231.000
1279.882, 4227.000
1280.953, 4225.000
1282.025, 4271.000
1283.096, 4254.000
1284.167, 4241.000
1285.238, 4285.000
1286.308, 4271.973
1287.379, 4280.647
1288.449, 4295.000
1289.519, 4262.000
1290.589, 4279.000
1291.659, 4222.000
1292.729, 4338.000
1293.798, 4241.000
1294.868, 4315.000
1295.937, 4178.000
1297.006, 4263.000
1298.075, 4282.000
1299.143, 4272.000
1300.212, 4287.000
1301.280, 4275.000
1302.348, 4293.000
1303.416, 4325.000
1304.484, 4315.000
1305.552, 4303.000
1306.620, 4340.000
1307.687, 4366.000
1308.754, 4298.000
1309.821, 4308.000
1310.888, 4241.000
1311.955, 4283.000
1313.021, 4330.000
1314.088, 4384.000
1315.154, 4301.000
1316.220, 4376.000
1317.286, 4323.000
1318.352, 4368.000
1319.417, 4461.000
1320.483, 4350.000
1321.548, 4439.000
1322.613, 4402.000
1323.678, 4367.000
1324.743, 4438.000
1325.807, 4385.000
1326.872, 4479.000
1327.936, 4397.000
1329.000, 4474.000
1330.064, 4478.000
1331.128, 4427.000
1332.191, 4398.000
1333.255, 4467.000
1334.318, 4430.000
1335.381, 4356.000
1336.444, 4451.000
1337.507, 4460.000
1338.569, 4417.000
1339.632, 4511.000
1340.694, 4384.000
1341.756, 4402.000
1342.818, 4534.000
1343.880, 4479.000
1344.941, 4433.000
1346.003, 4416.000
1347.064, 4490.000
1348.125, 4403.000
1349.186, 4378.000
1350.247, 4356.000
1351.308, 4468.000
1352.368, 4515.000
1353.428, 4457.000
1354.489, 4385.000
1355.549, 4441.000
1356.608, 4456.000
1357.668, 4345.000
1358.727, 4476.000
1359.787, 4467.000
1360.846, 4445.000
1361.905, 4469.000
1362.964, 4472.000
1364.022, 4432.000
1365.081, 4372.000
1366.139, 4460.000
1367.197, 4418.950
1368.255, 4482.000
1369.313, 4440.000
1370.371, 4448.000
1371.428, 4463.000
1372.486, 4425.000
1373.543, 4443.000
1374.600, 4422.000
1375.657, 4534.000
1376.713, 4406.000
1377.770, 4491.000
1378.826, 4489.000
1379.882, 4464.000
1380.938, 4466.000
1381.994, 4498.000
1383.050, 4474.000
1384.106, 4561.000
1385.161, 4585.000
1386.216, 4542.000
1387.271, 4515.000
1388.326, 4715.000
1389.381, 4618.000
1390.435, 4596.000
1391.490, 4621.000
1392.544, 4531.000
1393.598, 4556.447
1394.652, 4635.000
1395.705, 4546.000
1396.759, 4600.000
1397.812, 4583.000
1398.866, 4689.000
1399.919, 4557.000
1400.972, 4603.000
1402.024, 4604.000
1403.077, 4696.000
1404.129, 4679.000
1405.181, 4638.000
1406.233, 4623.000
1407.285, 4676.000
1408.337, 4604.000
1409.389, 4539.000
1410.440, 4549.000
1411.491, 4605.000
1412.542, 4526.000
1413.593, 4563.000
1414.644, 4541.000
1415.695, 4552.000
1416.745, 4489.000
1417.795, 4516.000
1418.845, 4491.000
1419.895, 4512.000
1420.945, 4506.768
1421.995, 4520.000
1423.044, 4499.000
1424.093, 4500.149
1425.142, 4493.000
1426.191, 4464.000
1427.240, 4442.000
1428.289, 4418.000
1429.337, 4442.000
1430.385, 4459.000
1431.433, 4416.000
1432.481, 4403.000
1433.529, 4386.439
1434.577, 4373.000
1435.624, 4346.000
1436.672, 4349.000
1437.719, 4339.000
1438.766, 4360.000
1439.812, 4342.255
1440.859, 4341.061
1441.905, 4319.000
1442.952, 4317.000
1443.998, 4306.000
1445.044, 4276.480
1446.090, 4283.000
1447.135, 4260.000
1448.181, 4270.000
1449.226, 4303.000
1450.271, 4302.000
1451.316, 4201.000
1452.361, 4273.000
1453.405, 4186.000
1454.450, 4274.000
1455.494, 4249.000
1456.538, 4187.000
1457.582, 4368.000
1458.626, 4301.000
1459.670, 4229.000
1460.713, 4241.000
1461.757, 4257.000
1462.800, 4327.000
1463.843, 4299.000
1464.886, 4194.000
1465.928, 4290.000
1466.971, 4217.000
1468.013, 4247.980
1469.055, 4264.177
1470.097, 4261.000
1471.139, 4302.000
1472.181, 4221.000
1473.222, 4272.000
1474.263, 4315.000
1475.305, 4237.000
1476.346, 4287.000
1477.386, 4297.000
1478.427, 4284.000
1479.468, 4303.000
1480.508, 4321.000
1481.548, 4330.000
1482.588, 4281.000
1483.628, 4382.000
1484.668, 4320.000
1485.707, 4342.000
1486.747, 4404.000
1487.786, 4322.000
1488.825, 4433.000
1489.864, 4323.000
1490.902, 4424.000
1491.941, 4460.000
1492.979, 4445.000
1494.017, 4436.000
1495.055, 4436.000
1496.093, 4460.000
1497.131, 4453.000
1498.168, 4443.000
1499.206, 4481.000
1500.243, 4521.000
1501.280, 4565.000
1502.317, 4545.000
1503.354, 4529.000
1504.390, 4569.000
1505.426, 4592.000
1506.463, 4600.000
1507.499, 4633.000
1508.535, 4612.703
1509.570, 4632.000
1510.606, 4580.000
1511.641, 4588.000
1512.676, 4588.000
1513.711, 4557.737
1514.746, 4562.896
1515.781, 4548.000
1516.816, 4546.000
1517.850, 4599.000
1518.884, 4594.000
1519.918, 4484.000
1520.952, 4568.000
1521.986, 4523.000
1523.019, 4511.000
1524.053, 4540.000
1525.086, 4575.000
1526.119, 4564.000
1527.152, 4563.628
1528.185, 4579.000
1529.217, 4510.000
1530.250, 4473.000
1531.282, 4415.000
1532.314, 4436.000
1533.346, 4403.000
1534.377, 4368.000
1535.409, 4429.000
1536.440, 4504.000
1537.472, 4540.000
1538.503, 4370.000
1539.534, 4413.000
1540.564, 4327.000
1541.595, 4334.000
1542.625, 4390.000
1543.656, 4347.000
1544.686, 4428.000
1545.716, 4356.000
1546.745, 4324.000
1547.775, 4411.000
1548.804, 4383.000
1549.834, 4453.000
1550.863, 4444.000
1551.892, 4535.000
1552.920, 4583.000
1553.949, 4716.000
1554.977, 4731.000
1556.006, 4490.000
1557.034, 4265.000
1558.062, 4369.000
1559.089, 4288.000
1560.117, 4208.000
1561.144, 4280.000
1562.172, 4254.000
1563.199, 4301.000
1564.226, 4307.000
1565.252, 4289.000
1566.279, 4272.000
1567.305, 4278.399
1568.332, 4338.000
1569.358, 4286.000
1570.384, 4251.000
1571.409, 4260.000
1572.435, 4290.000
##END=



