##NAMES=Dravite
##RRUFFID=R060534
##IDEAL CHEMISTRY=NaMg_3_Al_6_(Si_6_O_18_)(BO_3_)_3_(OH)_3_OH
##LOCALITY=Sri Lanka
##OWNER=RRUFF
##SOURCE=Gemological Institute of America
##DESCRIPTION=Black trigonal prism
##STATUS=The identification of this mineral has been confirmed by X-ray diffraction and chemical analysis
##URL=rruff.info/R060534
##MEASURED CHEMISTRY=(Na_0.79_Ca_0.21_)(Mg_0.68_Fe^2+^_0.29_Ti_0.02_Al_0.01_)_3_Al_6.00_(BO_3_)_3_(Si_0.95_Al_005_)_6.00_O_18_(OH)_4_
##PIN_ID=L01264
##ORIENTATION=Laser parallel to a* (1 0 0). Fiducial mark perpendicular to laser is parallel to -c [0 0 -1]
168.4860, 11454.41
169.7110, 11566.09
170.9360, 11591.98
172.1610, 11191.00
173.3850, 11283.00
174.6100, 11299.00
175.8340, 11459.00
177.0580, 11452.00
178.2820, 11781.00
179.5050, 12004.00
180.7290, 12130.00
181.9520, 12038.00
183.1760, 12472.00
184.3990, 12832.00
185.6220, 13232.00
186.8450, 13641.00
188.0670, 13953.00
189.2900, 14435.61
190.5120, 14805.00
191.7340, 15301.00
192.9560, 15892.00
194.1780, 16223.00
195.4000, 17321.00
196.6220, 17730.00
197.8430, 18597.00
199.0640, 19708.00
200.2860, 21083.00
201.5070, 22676.00
202.7270, 23730.00
203.9480, 24227.00
205.1690, 25201.00
206.3890, 26956.00
207.6090, 28909.00
208.8290, 31368.00
210.0490, 33693.00
211.2690, 35865.00
212.4890, 37395.00
213.7080, 38070.00
214.9280, 37859.00
216.1470, 37267.00
217.3660, 36583.00
218.5850, 35430.00
219.8030, 34195.98
221.0220, 32860.00
222.2400, 31697.00
223.4590, 30522.00
224.6770, 30407.00
225.8950, 30091.00
227.1120, 29166.00
228.3300, 29707.00
229.5480, 29709.00
230.7650, 30576.00
231.9820, 31642.00
233.1990, 33079.00
234.4160, 34606.00
235.6330, 36993.00
236.8490, 39391.00
238.0660, 41984.00
239.2820, 44321.00
240.4980, 46831.00
241.7140, 48306.00
242.9300, 49161.00
244.1460, 48976.00
245.3610, 47569.00
246.5770, 45475.00
247.7920, 42603.00
249.0070, 39417.00
250.2220, 36298.00
251.4370, 33086.00
252.6510, 30567.00
253.8660, 27866.00
255.0800, 25993.00
256.2940, 24433.00
257.5080, 25316.00
258.7220, 22958.38
259.9360, 23147.00
261.1490, 20308.00
262.3630, 19104.00
263.5760, 18335.00
264.7890, 17786.00
266.0020, 17371.00
267.2150, 16995.00
268.4270, 16511.00
269.6400, 16057.00
270.8520, 17026.00
272.0640, 15988.70
273.2760, 15726.00
274.4880, 14879.00
275.7000, 14429.00
276.9120, 13969.00
278.1230, 13820.00
279.3340, 13290.00
280.5450, 13037.00
281.7560, 12812.00
282.9670, 12606.00
284.1780, 12418.00
285.3880, 12280.73
286.5980, 12289.00
287.8090, 12066.00
289.0190, 11964.56
290.2290, 11893.49
291.4380, 11724.00
292.6480, 11655.00
293.8570, 11629.00
295.0670, 11462.00
296.2760, 11651.00
297.4850, 11542.00
298.6930, 11456.00
299.9020, 11670.00
301.1110, 11742.00
302.3190, 11897.90
303.5270, 12237.00
304.7350, 12311.00
305.9430, 12605.00
307.1510, 12865.00
308.3580, 13336.00
309.5660, 13788.00
310.7730, 14653.00
311.9800, 16490.00
313.1870, 16452.00
314.3940, 17314.00
315.6010, 16966.00
316.8070, 16922.00
318.0130, 16604.00
319.2200, 16002.00
320.4260, 15361.00
321.6310, 14745.00
322.8370, 14173.00
324.0430, 13964.00
325.2480, 13817.00
326.4540, 13904.00
327.6590, 13801.00
328.8640, 13838.00
330.0680, 14128.00
331.2730, 14295.00
332.4780, 14453.53
333.6820, 14651.00
334.8860, 14831.00
336.0900, 15105.73
337.2940, 15439.00
338.4980, 15718.00
339.7010, 16141.00
340.9050, 16523.00
342.1080, 17005.00
343.3110, 17377.00
344.5140, 17877.00
345.7170, 18471.00
346.9200, 19228.00
348.1220, 19844.00
349.3240, 20580.00
350.5270, 21619.00
351.7290, 22686.00
352.9310, 23931.00
354.1320, 25288.00
355.3340, 27098.00
356.5350, 28978.00
357.7370, 31263.00
358.9380, 34118.00
360.1390, 37368.00
361.3400, 41012.00
362.5400, 45317.00
363.7410, 49468.00
364.9410, 53680.00
366.1410, 57716.00
367.3410, 61445.00
368.5410, 63322.00
369.7410, 64271.68
370.9400, 64469.00
372.1400, 62689.00
373.3390, 60234.00
374.5380, 56675.00
375.7370, 52391.00
376.9360, 48543.00
378.1350, 44613.00
379.3330, 41298.00
380.5310, 37933.00
381.7300, 35455.00
382.9280, 33191.00
384.1260, 31341.00
385.3230, 29621.00
386.5210, 28517.00
387.7180, 27414.00
388.9160, 26462.00
390.1130, 25599.00
391.3100, 24838.44
392.5060, 24197.00
393.7030, 23673.00
394.9000, 23156.00
396.0960, 22886.00
397.2920, 22597.00
398.4880, 22256.62
399.6840, 22280.00
400.8800, 21791.00
402.0750, 21890.00
403.2710, 21865.00
404.4660, 21366.00
405.6610, 21483.00
406.8560, 21160.00
408.0510, 20919.00
409.2450, 20503.00
410.4400, 20021.00
411.6340, 19455.00
412.8280, 19026.00
414.0220, 18651.00
415.2160, 18039.00
416.4100, 17460.00
417.6030, 17306.00
418.7970, 16618.55
419.9900, 16767.00
421.1830, 15711.00
422.3760, 15260.00
423.5690, 15152.00
424.7610, 14678.00
425.9540, 14538.00
427.1460, 14413.00
428.3380, 14038.00
429.5300, 13877.00
430.7220, 13888.00
431.9140, 13670.00
433.1050, 13731.00
434.2970, 13570.00
435.4880, 13496.00
436.6790, 13481.00
437.8700, 13316.00
439.0610, 13235.00
440.2510, 13191.00
441.4420, 13215.00
442.6320, 12998.00
443.8220, 12978.00
445.0120, 12954.00
446.2020, 13019.00
447.3910, 12968.31
448.5810, 12915.00
449.7700, 12887.00
450.9600, 12848.00
452.1490, 12728.00
453.3370, 12682.00
454.5260, 12875.00
455.7150, 12733.00
456.9030, 12713.00
458.0910, 12866.00
459.2800, 12833.00
460.4670, 12816.00
461.6550, 12862.00
462.8430, 12967.00
464.0300, 13371.00
465.2180, 13151.40
466.4050, 13248.00
467.5920, 13012.00
468.7790, 13269.20
469.9650, 13492.00
471.1520, 13379.00
472.3380, 13579.00
473.5250, 13763.00
474.7110, 13931.00
475.8970, 14081.00
477.0820, 14183.00
478.2680, 14314.00
479.4540, 14351.00
480.6390, 14573.00
481.8240, 14728.08
483.0090, 15126.00
484.1940, 15136.00
485.3780, 15411.00
486.5630, 15607.00
487.7470, 15772.00
488.9320, 15938.00
490.1160, 16059.00
491.3000, 16298.92
492.4830, 16760.00
493.6670, 16780.00
494.8500, 17001.00
496.0340, 17273.00
497.2170, 17093.00
498.4000, 17367.00
499.5820, 17381.00
500.7650, 17319.00
501.9480, 17165.00
503.1300, 16973.00
504.3120, 16683.00
505.4940, 16585.00
506.6760, 16282.00
507.8580, 16061.00
509.0390, 15783.76
510.2210, 15506.00
511.4020, 15164.00
512.5830, 14982.00
513.7640, 14692.00
514.9450, 14494.00
516.1250, 14370.00
517.3060, 13984.00
518.4860, 14063.00
519.6660, 13772.99
520.8460, 13458.00
522.0260, 13400.00
523.2060, 13339.00
524.3850, 13192.00
525.5650, 13081.00
526.7440, 13231.00
527.9230, 13222.00
529.1020, 13110.00
530.2810, 13247.00
531.4590, 13431.00
532.6380, 13498.00
533.8160, 13568.00
534.9940, 13658.00
536.1720, 13649.00
537.3500, 13528.00
538.5270, 13522.00
539.7050, 13570.00
540.8820, 13482.58
542.0590, 13493.00
543.2360, 13373.00
544.4130, 13294.00
545.5900, 13170.00
546.7660, 13105.75
547.9430, 12984.23
549.1190, 12946.00
550.2950, 12786.00
551.4710, 12636.00
552.6470, 12598.00
553.8220, 12308.00
554.9980, 12160.00
556.1730, 12137.00
557.3480, 12045.00
558.5230, 11997.00
559.6980, 11986.00
560.8730, 11872.00
562.0470, 11887.00
563.2220, 11684.00
564.3960, 11773.00
565.5700, 11827.00
566.7440, 11577.00
567.9170, 11777.00
569.0910, 11698.00
570.2640, 11587.00
571.4380, 11633.00
572.6110, 11541.00
573.7840, 11584.00
574.9570, 11556.00
576.1290, 11551.00
577.3020, 11486.00
578.4740, 11526.00
579.6460, 11450.00
580.8180, 11392.00
581.9900, 11500.00
583.1620, 11480.00
584.3330, 11549.00
585.5040, 11571.62
586.6760, 11479.00
587.8470, 11634.00
589.0180, 11694.00
590.1880, 11784.00
591.3590, 11610.00
592.5290, 11740.00
593.7000, 11711.00
594.8700, 11821.00
596.0400, 11994.00
597.2090, 11929.00
598.3790, 11910.00
599.5490, 11985.00
600.7180, 12025.00
601.8870, 12133.00
603.0560, 12059.00
604.2250, 12196.00
605.3940, 12282.00
606.5620, 12696.00
607.7300, 12631.71
608.8990, 12728.99
610.0670, 12764.00
611.2350, 12735.00
612.4020, 12990.00
613.5700, 13073.00
614.7370, 13207.00
615.9050, 13494.00
617.0720, 13532.00
618.2390, 13834.00
619.4060, 14064.00
620.5720, 14553.00
621.7390, 14851.00
622.9050, 15340.00
624.0710, 15757.00
625.2370, 16507.00
626.4030, 17234.00
627.5690, 18122.00
628.7340, 19087.00
629.9000, 19930.00
631.0650, 20584.00
632.2300, 20972.00
633.3950, 21392.00
634.5600, 21449.00
635.7240, 21480.00
636.8890, 21677.00
638.0530, 21568.00
639.2170, 21495.00
640.3810, 21583.00
641.5450, 22016.00
642.7080, 22270.00
643.8720, 22954.00
645.0350, 23542.00
646.1980, 23992.00
647.3610, 24215.00
648.5240, 24213.00
649.6870, 24382.00
650.8490, 24070.00
652.0120, 24014.00
653.1740, 23896.00
654.3360, 23321.00
655.4980, 23338.00
656.6600, 23269.00
657.8210, 23205.00
658.9830, 23310.00
660.1440, 23534.00
661.3050, 23973.00
662.4660, 24401.00
663.6270, 24895.00
664.7870, 25424.00
665.9480, 25967.90
667.1080, 26919.00
668.2680, 27134.00
669.4280, 27590.00
670.5880, 28153.00
671.7480, 28047.00
672.9070, 27916.00
674.0670, 27568.00
675.2260, 27039.00
676.3850, 26405.00
677.5440, 25549.00
678.7030, 24873.00
679.8610, 24382.00
681.0200, 23834.00
682.1780, 23331.00
683.3360, 22968.00
684.4940, 22343.00
685.6520, 22397.00
686.8090, 22284.00
687.9670, 22344.00
689.1240, 22716.00
690.2810, 22794.00
691.4380, 23416.00
692.5950, 24249.00
693.7520, 24784.00
694.9080, 25556.00
696.0650, 26617.00
697.2210, 27665.00
698.3770, 28714.00
699.5330, 30016.00
700.6880, 30741.00
701.8440, 31307.00
702.9990, 31119.00
704.1550, 30744.00
705.3100, 29670.00
706.4650, 28316.00
707.6190, 26293.00
708.7740, 24597.00
709.9290, 22554.00
711.0830, 20853.00
712.2370, 19327.00
713.3910, 18083.00
714.5450, 16992.00
715.6980, 16161.00
716.8520, 15397.17
718.0050, 14739.95
719.1580, 14368.00
720.3110, 13828.00
721.4640, 13576.00
722.6170, 13433.00
723.7700, 13026.00
724.9220, 12898.00
726.0740, 12845.00
727.2260, 12700.00
728.3780, 12653.00
729.5300, 12541.00
730.6810, 12489.12
731.8330, 12414.32
732.9840, 12435.00
734.1350, 12285.00
735.2860, 12321.00
736.4370, 12286.00
737.5880, 12246.00
738.7380, 12189.00
739.8880, 12246.00
741.0390, 12244.00
742.1890, 12305.00
743.3380, 12550.00
744.4880, 12451.00
745.6380, 12791.00
746.7870, 12821.00
747.9360, 12739.00
749.0850, 12904.00
750.2340, 13121.00
751.3830, 13183.00
752.5310, 13401.00
753.6800, 13295.00
754.8280, 13387.00
755.9760, 13426.00
757.1240, 13524.00
758.2720, 13516.00
759.4190, 13354.00
760.5670, 13210.00
761.7140, 13162.00
762.8610, 13044.00
764.0080, 12955.26
765.1550, 12851.00
766.3020, 12796.00
767.4480, 12682.00
768.5950, 12635.09
769.7410, 12514.00
770.8870, 12472.00
772.0330, 12357.00
773.1780, 12285.00
774.3240, 12404.00
775.4690, 12211.00
776.6140, 12266.00
777.7590, 12069.00
778.9040, 12087.00
780.0490, 12020.00
781.1940, 11991.00
782.3380, 11976.00
783.4820, 11883.00
784.6260, 11871.00
785.7700, 11905.00
786.9140, 11803.00
788.0580, 11727.00
789.2010, 11726.00
790.3450, 11737.00
791.4880, 11660.00
792.6310, 11777.00
793.7730, 11526.00
794.9160, 11561.00
796.0590, 11484.00
797.2010, 11332.00
798.3430, 11212.00
799.4850, 11158.00
800.6270, 11094.00
801.7690, 11083.00
802.9100, 10884.00
804.0520, 10734.00
805.1930, 10784.00
806.3340, 10676.00
807.4750, 10687.00
808.6160, 10668.00
809.7560, 10626.00
810.8970, 10512.00
812.0370, 10599.00
813.1770, 10515.25
814.3170, 10556.00
815.4570, 10495.00
816.5960, 10465.00
817.7360, 10538.00
818.8750, 10453.00
820.0140, 10410.00
821.1530, 10546.00
822.2920, 10283.00
823.4310, 10283.00
824.5690, 10134.00
825.7070, 10198.00
826.8460, 10186.00
827.9840, 10186.00
829.1220, 10031.00
830.2590, 9943.000
831.3970, 9919.000
832.5340, 9881.000
833.6710, 9929.000
834.8080, 9819.000
835.9450, 9694.000
837.0820, 9737.000
838.2190, 9701.000
839.3550, 9622.000
840.4910, 9585.000
841.6270, 9612.000
842.7630, 9549.000
843.8990, 9628.000
845.0350, 9632.000
846.1700, 9635.000
847.3060, 9599.000
848.4410, 9695.000
849.5760, 9665.000
850.7100, 9571.000
851.8450, 9676.000
852.9800, 9687.000
854.1140, 9722.000
855.2480, 9625.000
856.3820, 9594.000
857.5160, 9610.000
858.6500, 9635.000
859.7830, 9702.000
860.9170, 9623.000
862.0500, 9533.000
863.1830, 9657.000
864.3160, 9567.000
865.4480, 9715.000
866.5810, 9685.000
867.7130, 9734.000
868.8460, 9839.000
869.9780, 9740.000
871.1100, 9901.000
872.2410, 9699.000
873.3730, 9829.000
874.5050, 9819.000
875.6360, 9638.000
876.7670, 9837.000
877.8980, 9798.000
879.0290, 9872.000
880.1590, 9801.000
881.2900, 9792.000
882.4200, 10032.00
883.5500, 9950.576
884.6800, 10006.00
885.8100, 9950.000
886.9400, 10016.00
888.0690, 9923.000
889.1990, 10028.00
890.3280, 10095.00
891.4570, 10113.00
892.5860, 10140.53
893.7140, 10049.00
894.8430, 10145.00
895.9710, 10075.00
897.1000, 10117.00
898.2280, 10109.00
899.3560, 9963.000
900.4830, 10338.00
901.6110, 10321.00
902.7380, 10209.00
903.8660, 10317.00
904.9930, 10210.00
906.1200, 10295.00
907.2460, 10387.00
908.3730, 10280.00
909.5000, 10430.00
910.6260, 10431.00
911.7520, 10413.00
912.8780, 10422.00
914.0040, 10448.00
915.1290, 10553.00
916.2550, 10623.00
917.3800, 10655.00
918.5050, 10550.00
919.6300, 10681.00
920.7550, 10679.00
921.8800, 10664.00
923.0040, 10717.00
924.1290, 10815.00
925.2530, 10825.00
926.3770, 10892.00
927.5010, 10879.00
928.6250, 10859.00
929.7480, 10876.00
930.8720, 10940.00
931.9950, 10984.00
933.1180, 11021.00
934.2410, 11075.00
935.3640, 11230.00
936.4860, 11133.00
937.6090, 11348.00
938.7310, 11428.00
939.8530, 11399.00
940.9750, 11541.00
942.0970, 11673.00
943.2180, 11819.00
944.3400, 11949.00
945.4610, 11980.00
946.5820, 11988.00
947.7030, 12117.00
948.8240, 12264.00
949.9450, 12345.00
951.0650, 12581.00
952.1860, 12765.00
953.3060, 12892.02
954.4260, 12968.00
955.5460, 13173.00
956.6650, 13231.00
957.7850, 13342.00
958.9040, 13320.00
960.0230, 13561.00
961.1420, 13875.00
962.2610, 13614.00
963.3800, 13863.00
964.4990, 13737.00
965.6170, 14003.00
966.7350, 13854.00
967.8530, 13900.17
968.9710, 14429.00
970.0890, 13944.00
971.2070, 13972.00
972.3240, 14110.00
973.4410, 13863.00
974.5580, 13870.00
975.6750, 13933.00
976.7920, 13846.00
977.9090, 13836.00
979.0250, 13829.45
980.1410, 13796.00
981.2580, 13798.00
982.3740, 13810.00
983.4890, 13806.00
984.6050, 13899.00
985.7200, 13727.00
986.8360, 13768.00
987.9510, 13900.00
989.0660, 13821.00
990.1810, 13924.00
991.2950, 13837.00
992.4100, 14046.00
993.5240, 14096.00
994.6390, 14063.00
995.7530, 14214.10
996.8660, 14343.00
997.9800, 14376.00
999.0940, 14442.00
1000.207, 14525.00
1001.320, 14843.00
1002.433, 14912.00
1003.546, 15193.00
1004.659, 15385.44
1005.772, 15544.00
1006.884, 15871.00
1007.996, 16052.00
1009.108, 16461.00
1010.220, 16861.00
1011.332, 17279.00
1012.444, 17587.00
1013.555, 17942.00
1014.666, 18423.00
1015.777, 18643.00
1016.888, 19171.00
1017.999, 19706.00
1019.110, 20034.00
1020.220, 20521.00
1021.331, 20957.00
1022.441, 21368.00
1023.551, 21888.00
1024.661, 22095.00
1025.770, 22524.00
1026.880, 22799.00
1027.989, 23024.11
1029.098, 23293.00
1030.207, 23498.00
1031.316, 23688.00
1032.425, 24011.00
1033.533, 24293.00
1034.642, 23905.00
1035.750, 23903.00
1036.858, 24088.00
1037.966, 23861.00
1039.073, 24018.00
1040.181, 23793.00
1041.288, 23901.00
1042.396, 23782.00
1043.503, 23691.00
1044.610, 23712.00
1045.716, 23532.00
1046.823, 23253.00
1047.929, 23283.00
1049.036, 22894.00
1050.142, 22995.00
1051.248, 22688.00
1052.353, 22551.00
1053.459, 22137.00
1054.564, 22020.00
1055.670, 21605.00
1056.775, 21349.00
1057.880, 20825.00
1058.985, 20666.00
1060.089, 20540.00
1061.194, 20109.00
1062.298, 19919.00
1063.402, 19517.00
1064.506, 19390.00
1065.610, 19203.00
1066.713, 19070.00
1067.817, 18803.00
1068.920, 18635.00
1070.023, 18349.00
1071.126, 18078.00
1072.229, 17914.00
1073.332, 17653.00
1074.435, 17372.00
1075.537, 17174.00
1076.639, 16926.25
1077.741, 16675.00
1078.843, 16496.00
1079.945, 16128.00
1081.046, 15919.00
1082.148, 15687.33
1083.249, 15374.00
1084.350, 15261.00
1085.451, 15128.00
1086.551, 14945.20
1087.652, 14600.00
1088.752, 14499.00
1089.853, 14340.00
1090.953, 14023.00
1092.053, 13965.00
1093.152, 13760.00
1094.252, 13684.00
1095.351, 13454.00
1096.451, 13484.00
1097.550, 13386.00
1098.649, 13293.00
1099.748, 13194.00
1100.846, 12985.00
1101.945, 12925.00
1103.043, 12924.00
1104.141, 12985.00
1105.239, 12840.00
1106.337, 12835.76
1107.434, 12729.00
1108.532, 12681.00
1109.629, 12581.00
1110.726, 12461.00
1111.823, 12484.00
1112.920, 12482.00
1114.017, 12288.00
1115.113, 12395.00
1116.210, 12326.00
1117.306, 12306.00
1118.402, 12234.00
1119.498, 12202.00
1120.593, 12175.76
1121.689, 12113.00
1122.784, 12130.00
1123.879, 12042.00
1124.974, 12014.00
1126.069, 12140.00
1127.164, 11842.00
1128.259, 11803.00
1129.353, 11616.00
1130.447, 11682.00
1131.541, 11592.00
1132.635, 11658.00
1133.729, 11584.46
1134.822, 11630.00
1135.916, 11464.00
1137.009, 11478.00
1138.102, 11448.00
1139.195, 11355.00
1140.288, 11307.00
1141.380, 11372.00
1142.473, 11369.00
1143.565, 11317.00
1144.657, 11364.00
1145.749, 11368.90
1146.841, 11368.00
1147.932, 11355.81
1149.024, 11283.00
1150.115, 11293.00
1151.206, 11276.00
1152.297, 11242.00
1153.388, 11111.00
1154.479, 11145.00
1155.569, 11090.00
1156.659, 11321.00
1157.750, 11218.00
1158.839, 11352.00
1159.929, 11219.00
1161.019, 11210.00
1162.108, 11151.00
1163.198, 11235.00
1164.287, 11272.00
1165.376, 11209.26
1166.465, 11194.86
1167.553, 11194.00
1168.642, 11191.69
1169.730, 11241.00
1170.818, 11244.00
1171.906, 11236.00
1172.994, 11284.61
1174.082, 11234.55
1175.170, 11237.00
1176.257, 11207.00
1177.344, 11105.00
1178.431, 11190.00
1179.518, 11078.00
1180.605, 11142.00
1181.691, 11180.00
1182.778, 11188.45
1183.864, 11236.13
1184.950, 11245.00
1186.036, 11269.00
1187.122, 11200.00
1188.207, 11153.00
1189.292, 11100.00
1190.378, 11131.00
1191.463, 11169.00
1192.548, 11131.00
1193.632, 11119.00
1194.717, 11192.00
1195.801, 11087.00
1196.886, 11295.00
1197.970, 11025.00
1199.054, 11061.00
1200.137, 11164.00
1201.221, 11156.00
1202.305, 11136.00
1203.388, 11207.23
1204.471, 11135.00
1205.554, 11232.00
1206.637, 11190.00
1207.719, 11078.00
1208.802, 11134.00
1209.884, 11106.00
1210.966, 11129.00
1212.048, 11262.00
1213.130, 11294.00
1214.212, 11252.00
1215.293, 11293.00
1216.374, 11163.00
1217.456, 11270.00
1218.536, 11158.00
1219.617, 11268.00
1220.698, 11244.00
1221.778, 11406.00
1222.859, 11245.00
1223.939, 11304.00
1225.019, 11267.00
1226.099, 11333.00
1227.178, 11366.00
1228.258, 11466.00
1229.337, 11342.00
1230.417, 11296.00
1231.496, 11486.00
1232.574, 11393.00
1233.653, 11447.00
1234.732, 11371.00
1235.810, 11580.00
1236.888, 11531.00
1237.966, 11623.00
1239.044, 11391.00
1240.122, 11465.00
1241.199, 11599.00
1242.277, 11499.60
1243.354, 11515.98
1244.431, 11501.00
1245.508, 11468.00
1246.585, 11456.40
1247.661, 11612.00
1248.738, 11551.00
1249.814, 11613.00
1250.890, 11633.00
1251.966, 11631.00
1253.042, 11551.00
1254.117, 11770.00
1255.193, 11683.76
1256.268, 11589.00
1257.343, 11677.00
1258.418, 11564.00
1259.493, 11547.00
1260.567, 11668.00
1261.642, 11656.00
1262.716, 11585.00
1263.790, 11601.00
1264.864, 11611.00
1265.938, 11755.00
1267.011, 11773.00
1268.085, 11766.00
1269.158, 11722.00
1270.231, 11867.00
1271.304, 11794.00
1272.377, 11835.00
1273.450, 11797.00
1274.522, 11699.00
1275.594, 11739.00
1276.666, 11765.00
1277.738, 11864.00
1278.810, 11786.00
1279.882, 11858.00
1280.953, 11833.00
1282.025, 11865.00
1283.096, 11847.00
1284.167, 11796.00
1285.238, 11923.00
1286.308, 11922.00
1287.379, 11887.00
1288.449, 11812.00
1289.519, 11864.00
1290.589, 11922.00
1291.659, 11996.00
1292.729, 11825.00
1293.798, 11936.00
1294.868, 11940.00
1295.937, 11657.00
1297.006, 11963.00
1298.075, 11802.00
1299.143, 11717.00
1300.212, 11728.00
1301.280, 11830.00
1302.348, 11824.00
1303.416, 11924.00
1304.484, 11836.00
1305.552, 11698.06
1306.620, 11905.84
1307.687, 12027.83
1308.754, 12068.65
1309.821, 11785.17
1310.888, 11920.45
1311.955, 11887.91
1313.021, 11848.47
1314.088, 12042.70
1315.154, 11806.37
1316.220, 11996.88
1317.286, 12017.00
1318.352, 12115.10
1319.417, 12044.33
1320.483, 12025.73
1321.548, 12176.03
1322.613, 12232.81
1323.678, 12142.60
1324.743, 12245.65
1325.807, 12003.40
1326.872, 12064.15
1327.936, 12301.00
1329.000, 12260.00
1330.064, 12325.00
1331.128, 12222.00
1332.191, 12288.00
1333.255, 12368.00
1334.318, 12418.00
1335.381, 12294.00
1336.444, 12456.00
1337.507, 12278.00
1338.569, 12301.00
1339.632, 12401.00
1340.694, 12276.00
1341.756, 12413.00
1342.818, 12473.00
1343.880, 12381.00
1344.941, 12262.00
1346.003, 12396.00
1347.064, 12357.00
1348.125, 12274.00
1349.186, 12305.00
1350.247, 12261.67
1351.308, 12210.00
1352.368, 12240.00
1353.428, 12256.00
1354.489, 12247.18
1355.549, 12334.00
1356.608, 12348.00
1357.668, 12347.00
1358.727, 12377.00
1359.787, 12431.00
1360.846, 12407.00
1361.905, 12344.00
1362.964, 12420.00
1364.022, 12429.71
1365.081, 12356.00
1366.139, 12439.00
1367.197, 12545.00
1368.255, 12328.00
1369.313, 12333.00
1370.371, 12423.00
1371.428, 12472.00
1372.486, 12425.00
1373.543, 12489.00
1374.600, 12544.00
1375.657, 12409.00
1376.713, 12419.00
1377.770, 12481.00
1378.826, 12362.00
1379.882, 12341.79
1380.938, 12657.00
1381.994, 12463.00
1383.050, 12918.00
1384.106, 12750.86
1385.161, 12552.00
1386.216, 12518.00
1387.271, 12738.00
1388.326, 12549.00
1389.381, 12620.00
1390.435, 12656.00
1391.490, 12653.00
1392.544, 12619.00
1393.598, 12665.00
1394.652, 12590.00
1395.705, 12655.00
1396.759, 12884.00
1397.812, 12709.00
1398.866, 12764.00
1399.919, 12684.00
1400.972, 12559.00
1402.024, 12749.00
1403.077, 12769.00
1404.129, 12530.00
1405.181, 12699.00
1406.233, 12665.00
1407.285, 12721.00
1408.337, 12727.00
1409.389, 12744.00
1410.440, 12601.00
1411.491, 12739.00
1412.542, 12711.00
1413.593, 12853.00
1414.644, 12659.00
1415.695, 12524.00
1416.745, 12648.00
1417.795, 12622.00
1418.845, 12709.00
1419.895, 12640.00
1420.945, 12645.00
1421.995, 12586.00
1423.044, 12587.10
1424.093, 12615.00
1425.142, 12592.00
1426.191, 12687.00
1427.240, 12701.00
1428.289, 12658.00
1429.337, 12648.00
1430.385, 12479.00
1431.433, 12557.00
1432.481, 12576.00
1433.529, 12540.33
1434.577, 12687.00
1435.624, 12589.00
1436.672, 12625.00
1437.719, 12711.00
1438.766, 12679.00
1439.812, 12691.07
1440.859, 12668.40
1441.905, 12675.00
1442.952, 12573.00
1443.998, 12628.00
1445.044, 12575.00
1446.090, 12754.00
1447.135, 12585.00
1448.181, 12687.00
1449.226, 12599.00
1450.271, 12657.00
1451.316, 12547.00
1452.361, 12635.00
1453.405, 12821.00
1454.450, 12622.00
1455.494, 12647.00
1456.538, 12577.00
1457.582, 12772.00
1458.626, 12665.00
1459.670, 12665.00
1460.713, 12744.00
1461.757, 12674.00
1462.800, 12668.00
1463.843, 12655.00
1464.886, 12750.00
1465.928, 12697.00
1466.971, 12809.00
1468.013, 12798.00
1469.055, 12625.00
1470.097, 12606.00
1471.139, 12727.00
1472.181, 12785.00
1473.222, 12742.83
1474.263, 12835.00
1475.305, 12613.00
1476.346, 12774.00
1477.386, 12617.00
1478.427, 12700.00
1479.468, 12657.00
1480.508, 12813.00
1481.548, 12787.00
1482.588, 12850.00
1483.628, 12928.00
1484.668, 12776.00
1485.707, 12882.00
1486.747, 12827.00
1487.786, 12872.00
1488.825, 13003.00
1489.864, 12945.00
1490.902, 12870.00
1491.941, 12811.00
1492.979, 13112.00
1494.017, 12901.00
1495.055, 13091.00
1496.093, 13008.00
1497.131, 12933.00
1498.168, 13009.00
1499.206, 13184.00
1500.243, 13047.00
1501.280, 13053.00
1502.317, 13169.00
1503.354, 13049.00
1504.390, 13337.00
1505.426, 13326.90
1506.463, 13331.78
1507.499, 13438.00
1508.535, 13308.00
1509.570, 13258.00
1510.606, 13214.00
1511.641, 13203.00
1512.676, 13291.00
1513.711, 13331.00
1514.746, 13237.00
1515.781, 13270.00
1516.816, 13248.00
1517.850, 13299.00
1518.884, 13318.00
1519.918, 13232.00
1520.952, 13202.00
1521.986, 13357.00
1523.019, 13343.00
1524.053, 13209.00
1525.086, 13093.00
1526.119, 13115.00
1527.152, 13116.00
1528.185, 13225.00
1529.217, 13267.00
1530.250, 13185.00
1531.282, 13234.00
1532.314, 13199.00
1533.346, 13237.00
1534.377, 13148.00
1535.409, 13142.00
1536.440, 13313.00
1537.472, 13089.00
1538.503, 13239.00
1539.534, 13186.00
1540.564, 12964.71
1541.595, 13160.46
1542.625, 13270.42
1543.656, 13299.21
1544.686, 13003.70
1545.716, 13126.95
1546.745, 13082.38
1547.775, 13030.93
1548.804, 13213.13
1549.834, 12964.79
1550.863, 13143.28
1551.892, 13151.38
1552.920, 13237.47
1553.949, 13154.69
1554.977, 13124.08
1556.006, 13262.37
1557.034, 13307.14
1558.062, 13204.93
1559.089, 13295.97
1560.117, 13041.73
1561.144, 13090.48
1562.172, 13269.96
1563.199, 13176.24
1564.226, 13045.00
1565.252, 13030.70
1566.279, 13108.00
1567.305, 13049.00
1568.332, 13175.00
1569.358, 13252.00
1570.384, 13101.00
1571.409, 13121.00
1572.435, 13163.00
##END=



