##NAMES=Eckermannite
##RRUFFID=R060320
##IDEAL CHEMISTRY=NaNa_2_(Mg_4_Al)Si_8_O_22_(OH)_2_
##LOCALITY=Norra Karr Complex, near Granna, Ostergotsland, Sweden
##OWNER=RRUFF
##SOURCE=Michael Scott
##DESCRIPTION=Parallel aggregate of blue elongated bladed crystals
##STATUS=The identification of this mineral is confirmed by single-crystal X-ray diffraction and chemical analysis.
##URL=rruff.info/R060320
##MEASURED CHEMISTRY=(Na_2.50_K_0.30_[box]_0.20_)_Σ=3_(Mg_2.35_Fe^2+^_1.35_Al_1.20_Mn_0.10_)_Σ=5_Si_8.00_O_22_((OH)_1.18_F_0.82_)_Σ=2_; OH estimated by charge balance, dark material
##PIN_ID=M01072
##ORIENTATION=Laser parallel to -c* (0 0 -1). Fiducial mark perpendicular to laser is parallel to -a [-1 0 0]
102.8230, 9897.000
104.0530, 10250.00
105.2840, 10299.00
106.5140, 10552.00
107.7440, 11204.00
108.9730, 11581.00
110.2030, 11371.00
111.4320, 11585.00
112.6620, 11745.00
113.8910, 12511.00
115.1200, 12910.00
116.3490, 13412.00
117.5780, 13759.40
118.8060, 14324.00
120.0350, 14282.00
121.2630, 14430.00
122.4920, 14702.00
123.7200, 14531.00
124.9480, 14009.00
126.1750, 13248.00
127.4030, 12432.00
128.6310, 11957.00
129.8580, 11302.00
131.0850, 11162.00
132.3120, 10595.00
133.5390, 10275.00
134.7660, 10343.00
135.9930, 9989.000
137.2200, 10123.00
138.4460, 10169.00
139.6720, 10098.00
140.8980, 10312.00
142.1240, 10526.00
143.3500, 10665.00
144.5760, 11243.00
145.8020, 11531.00
147.0270, 12148.00
148.2520, 13016.00
149.4780, 13752.00
150.7030, 14596.00
151.9270, 15514.00
153.1520, 16397.00
154.3770, 17080.00
155.6010, 17563.00
156.8260, 17333.00
158.0500, 16816.00
159.2740, 16288.00
160.4980, 15358.00
161.7210, 14617.00
162.9450, 14167.00
164.1690, 14012.00
165.3920, 14113.00
166.6150, 14236.00
167.8380, 14860.00
169.0610, 15283.00
170.2840, 15928.00
171.5070, 16719.00
172.7290, 17528.00
173.9510, 18596.00
175.1740, 19861.00
176.3960, 20873.00
177.6180, 21618.00
178.8390, 22888.00
180.0610, 23898.00
181.2830, 24649.00
182.5040, 24899.00
183.7250, 25090.00
184.9460, 25059.00
186.1670, 24215.00
187.3880, 22807.00
188.6090, 21769.00
189.8290, 19951.00
191.0500, 18602.00
192.2700, 17504.00
193.4900, 16808.00
194.7100, 16148.73
195.9300, 15633.00
197.1490, 15670.00
198.3690, 15741.00
199.5880, 16104.00
200.8080, 16561.00
202.0270, 17385.00
203.2460, 18048.00
204.4650, 18644.00
205.6830, 19298.00
206.9020, 20392.00
208.1200, 21196.00
209.3380, 21974.00
210.5570, 22716.00
211.7750, 23372.00
212.9920, 23761.00
214.2100, 24067.00
215.4280, 24195.00
216.6450, 24485.00
217.8620, 24762.00
219.0790, 25053.00
220.2960, 25531.00
221.5130, 25804.00
222.7300, 26582.00
223.9460, 26686.00
225.1630, 27357.00
226.3790, 27626.00
227.5950, 27863.00
228.8110, 27104.00
230.0270, 26691.00
231.2430, 25517.00
232.4580, 24553.00
233.6740, 23206.00
234.8890, 21947.00
236.1040, 20696.00
237.3190, 20027.00
238.5340, 19183.00
239.7490, 18469.00
240.9630, 18063.00
242.1780, 17396.00
243.3920, 17307.00
244.6060, 17001.00
245.8200, 16733.00
247.0340, 16538.00
248.2470, 16577.00
249.4610, 16451.00
250.6740, 16475.00
251.8880, 16479.00
253.1010, 15978.00
254.3140, 15784.00
255.5270, 15200.00
256.7390, 14645.00
257.9520, 14404.00
259.1640, 13861.00
260.3760, 13188.00
261.5880, 12831.00
262.8000, 12324.00
264.0120, 11965.00
265.2240, 11510.00
266.4350, 11152.00
267.6470, 10939.00
268.8580, 10622.00
270.0690, 10574.00
271.2800, 10258.00
272.4910, 10159.00
273.7020, 9842.000
274.9120, 9959.000
276.1230, 9677.000
277.3330, 9738.000
278.5430, 9659.849
279.7530, 9635.000
280.9630, 9569.000
282.1720, 9496.000
283.3820, 9505.000
284.5910, 9508.000
285.8000, 9473.000
287.0090, 9386.000
288.2180, 9377.000
289.4270, 9280.000
290.6360, 9381.000
291.8440, 9464.000
293.0530, 9395.000
294.2610, 9425.000
295.4690, 9730.000
296.6770, 9674.000
297.8850, 9974.000
299.0920, 10101.57
300.3000, 10287.21
301.5070, 10517.00
302.7140, 10755.00
303.9210, 11164.00
305.1280, 11447.00
306.3350, 11852.00
307.5420, 12203.00
308.7480, 12578.00
309.9540, 12983.00
311.1600, 13165.00
312.3660, 13443.00
313.5720, 13598.65
314.7780, 13934.00
315.9840, 13740.00
317.1890, 13578.00
318.3940, 13442.00
319.6000, 13021.00
320.8050, 12702.00
322.0090, 12543.00
323.2140, 12140.00
324.4190, 11918.00
325.6230, 11611.00
326.8270, 11387.00
328.0320, 11318.00
329.2360, 11197.00
330.4390, 11178.00
331.6430, 11193.00
332.8470, 11115.00
334.0500, 11184.00
335.2530, 11207.00
336.4560, 11380.00
337.6590, 11278.00
338.8620, 11151.00
340.0650, 11314.00
341.2670, 11274.00
342.4700, 11340.00
343.6720, 11254.00
344.8740, 11124.00
346.0760, 11113.00
347.2780, 11052.00
348.4790, 10991.00
349.6810, 10879.00
350.8820, 10807.02
352.0830, 10747.74
353.2840, 10616.00
354.4850, 10672.00
355.6860, 10575.00
356.8870, 10606.00
358.0870, 10425.00
359.2870, 10590.00
360.4880, 10416.00
361.6880, 10518.00
362.8870, 10601.00
364.0870, 10485.00
365.2870, 10593.00
366.4860, 10466.40
367.6850, 10427.00
368.8850, 10233.00
370.0840, 10317.00
371.2820, 10194.00
372.4810, 10202.00
373.6800, 10011.00
374.8780, 10177.00
376.0760, 10089.00
377.2740, 10043.38
378.4720, 9955.000
379.6700, 10007.00
380.8680, 9866.000
382.0650, 9965.000
383.2630, 10024.00
384.4600, 9881.000
385.6570, 9996.000
386.8540, 10029.00
388.0510, 10073.00
389.2470, 10177.00
390.4440, 10150.00
391.6400, 10340.00
392.8360, 10449.00
394.0320, 10295.00
395.2280, 10322.00
396.4240, 10306.00
397.6190, 10350.00
398.8150, 10479.00
400.0100, 10396.00
401.2050, 10516.00
402.4000, 10519.00
403.5950, 10596.00
404.7900, 10648.00
405.9840, 10883.00
407.1790, 11071.00
408.3730, 11176.00
409.5670, 11548.00
410.7610, 11813.00
411.9550, 12148.00
413.1480, 12458.00
414.3420, 12825.00
415.5350, 13220.00
416.7280, 13540.00
417.9220, 13813.00
419.1140, 13824.00
420.3070, 13675.00
421.5000, 13477.00
422.6920, 12969.00
423.8850, 12280.00
425.0770, 11622.00
426.2690, 10712.00
427.4610, 10024.00
428.6520, 9351.852
429.8440, 8871.007
431.0350, 8425.494
432.2260, 8015.743
433.4180, 7595.256
434.6090, 7305.896
435.7990, 7187.000
436.9900, 7062.000
438.1800, 6906.000
439.3710, 6798.000
440.5610, 6627.000
441.7510, 6576.000
442.9410, 6519.000
444.1310, 6512.000
445.3200, 6509.000
446.5100, 6402.000
447.6990, 6507.000
448.8880, 6514.000
450.0770, 6346.000
451.2660, 6442.000
452.4550, 6366.000
453.6430, 6408.000
454.8320, 6380.000
456.0200, 6356.000
457.2080, 6339.000
458.3960, 6364.000
459.5840, 6245.000
460.7720, 6265.000
461.9590, 6183.067
463.1460, 6218.315
464.3340, 6237.253
465.5210, 6240.760
466.7080, 6182.615
467.8940, 6204.083
469.0810, 6193.645
470.2670, 6181.899
471.4540, 6178.000
472.6400, 6196.000
473.8260, 6223.000
475.0120, 6240.000
476.1970, 6317.000
477.3830, 6292.000
478.5680, 6295.000
479.7540, 6332.000
480.9390, 6404.000
482.1240, 6385.000
483.3080, 6446.000
484.4930, 6473.000
485.6780, 6464.000
486.8620, 6524.000
488.0460, 6459.000
489.2300, 6450.000
490.4140, 6485.627
491.5980, 6522.000
492.7810, 6559.000
493.9650, 6594.000
495.1480, 6671.000
496.3310, 6734.660
497.5140, 6824.481
498.6970, 6913.000
499.8800, 7005.000
501.0620, 7125.000
502.2440, 7173.000
503.4270, 7341.000
504.6090, 7585.000
505.7910, 7605.000
506.9720, 7870.000
508.1540, 7948.000
509.3350, 8040.000
510.5170, 8187.000
511.6980, 8254.000
512.8790, 8291.000
514.0600, 8362.205
515.2400, 8387.000
516.4210, 8420.000
517.6010, 8381.000
518.7810, 8382.000
519.9620, 8399.919
521.1410, 8390.000
522.3210, 8451.000
523.5010, 8423.000
524.6800, 8486.000
525.8600, 8569.000
527.0390, 8671.000
528.2180, 8774.607
529.3970, 8930.000
530.5750, 9045.000
531.7540, 9193.000
532.9320, 9396.000
534.1110, 9358.000
535.2890, 9755.000
536.4670, 9932.000
537.6440, 10311.00
538.8220, 10647.00
540.0000, 11187.00
541.1770, 11807.00
542.3540, 12283.00
543.5310, 12833.00
544.7080, 13345.00
545.8850, 13998.00
547.0610, 14466.00
548.2380, 15021.00
549.4140, 15387.00
550.5900, 15723.00
551.7660, 15857.00
552.9420, 16032.00
554.1170, 16107.00
555.2930, 16046.00
556.4680, 15628.00
557.6430, 15152.00
558.8180, 14580.00
559.9930, 14090.00
561.1680, 13427.00
562.3430, 12862.61
563.5170, 12050.00
564.6910, 11601.00
565.8650, 10941.00
567.0390, 10219.00
568.2130, 9795.000
569.3870, 9229.000
570.5600, 8918.000
571.7340, 8626.000
572.9070, 8256.000
574.0800, 7966.000
575.2530, 7698.000
576.4250, 7319.000
577.5980, 7161.379
578.7700, 6963.839
579.9430, 6850.000
581.1150, 6729.000
582.2870, 6671.000
583.4590, 6612.000
584.6300, 6556.000
585.8020, 6382.000
586.9730, 6237.000
588.1440, 6055.000
589.3150, 6140.000
590.4860, 5943.000
591.6570, 5992.000
592.8270, 5845.000
593.9980, 5921.000
595.1680, 5840.000
596.3380, 5722.000
597.5080, 5626.000
598.6780, 5624.255
599.8480, 5576.000
601.0170, 5640.000
602.1860, 5566.000
603.3550, 5563.000
604.5240, 5455.000
605.6930, 5509.000
606.8620, 5370.000
608.0310, 5394.000
609.1990, 5354.000
610.3670, 5283.000
611.5350, 5254.000
612.7030, 5233.000
613.8710, 5187.000
615.0390, 5175.000
616.2060, 5159.000
617.3730, 5234.000
618.5410, 5166.000
619.7080, 5200.000
620.8740, 5209.000
622.0410, 5126.000
623.2080, 5203.000
624.3740, 5234.000
625.5400, 5292.000
626.7060, 5327.000
627.8720, 5331.826
629.0380, 5356.209
630.2040, 5322.000
631.3690, 5355.000
632.5340, 5338.000
633.6990, 5315.000
634.8640, 5384.000
636.0290, 5348.000
637.1940, 5485.000
638.3580, 5507.000
639.5230, 5485.000
640.6870, 5457.000
641.8510, 5453.000
643.0150, 5543.768
644.1790, 5603.454
645.3420, 5722.000
646.5060, 5797.000
647.6690, 5782.000
648.8320, 5808.000
649.9950, 5973.000
651.1580, 5964.000
652.3200, 5984.000
653.4830, 6198.000
654.6450, 6185.000
655.8070, 6342.000
656.9690, 6399.000
658.1310, 6554.000
659.2930, 6736.000
660.4540, 6844.000
661.6160, 7068.000
662.7770, 7262.000
663.9380, 7551.000
665.0990, 7660.000
666.2600, 8065.000
667.4200, 8365.000
668.5810, 8879.000
669.7410, 9467.000
670.9010, 10075.00
672.0610, 10917.00
673.2210, 11899.00
674.3810, 13257.00
675.5400, 14601.00
676.6990, 16547.00
677.8590, 18957.00
679.0180, 21566.00
680.1760, 24576.00
681.3350, 28423.00
682.4940, 32262.00
683.6520, 36526.00
684.8100, 40768.00
685.9680, 44196.00
687.1260, 46574.00
688.2840, 47294.00
689.4420, 46111.00
690.5990, 42786.00
691.7560, 38852.00
692.9140, 34198.00
694.0710, 29569.00
695.2270, 25628.00
696.3840, 22358.00
697.5410, 19371.00
698.6970, 16692.00
699.8530, 14971.00
701.0090, 13304.00
702.1650, 12376.00
703.3210, 11538.00
704.4760, 10709.00
705.6320, 10193.00
706.7870, 9786.000
707.9420, 9414.000
709.0970, 9077.000
710.2520, 8764.000
711.4060, 8550.000
712.5610, 8487.000
713.7150, 8220.000
714.8690, 8118.000
716.0230, 7757.524
717.1770, 7784.000
718.3310, 7554.000
719.4840, 7412.689
720.6380, 7275.446
721.7910, 7122.042
722.9440, 6953.216
724.0970, 6722.727
725.2490, 6571.997
726.4020, 6389.224
727.5540, 6205.281
728.7070, 6065.618
729.8590, 5844.243
731.0110, 5759.000
732.1620, 5695.241
733.3140, 5553.000
734.4650, 5526.000
735.6170, 5489.000
736.7680, 5311.000
737.9190, 5357.000
739.0700, 5327.000
740.2200, 5347.000
741.3710, 5378.000
742.5210, 5322.000
743.6710, 5460.000
744.8210, 5422.000
745.9710, 5521.000
747.1210, 5515.000
748.2700, 5589.000
749.4200, 5630.000
750.5690, 5778.000
751.7180, 5809.000
752.8670, 5931.000
754.0160, 6140.000
755.1640, 6162.000
756.3130, 6253.000
757.4610, 6316.000
758.6090, 6348.000
759.7570, 6391.000
760.9050, 6289.000
762.0530, 6176.000
763.2000, 6025.000
764.3470, 5981.000
765.4940, 5748.000
766.6410, 5590.000
767.7880, 5499.000
768.9350, 5478.000
770.0810, 5383.000
771.2280, 5232.000
772.3740, 5168.573
773.5200, 5165.522
774.6660, 5146.163
775.8120, 5111.371
776.9570, 5014.963
778.1030, 4998.127
779.2480, 4949.425
780.3930, 4899.412
781.5380, 4863.000
782.6830, 4927.000
783.8270, 4747.031
784.9720, 4784.138
786.1160, 4804.937
787.2600, 4810.304
788.4040, 4754.018
789.5480, 4777.344
790.6910, 4768.765
791.8350, 4758.878
792.9780, 4793.409
794.1210, 4746.090
795.2640, 4779.917
796.4070, 4781.352
797.5500, 4797.612
798.6920, 4781.771
799.8350, 4802.000
800.9770, 4781.000
802.1190, 4759.000
803.2610, 4732.000
804.4030, 4630.000
805.5440, 4796.000
806.6850, 4760.000
807.8270, 4820.000
808.9680, 4744.000
810.1090, 4741.000
811.2490, 4781.000
812.3900, 4698.000
813.5300, 4765.000
814.6710, 4736.000
815.8110, 4766.000
816.9510, 4773.000
818.0910, 4763.000
819.2300, 4782.965
820.3700, 4787.906
821.5090, 4841.000
822.6480, 4795.000
823.7870, 4911.000
824.9260, 4886.000
826.0640, 4888.000
827.2030, 5031.000
828.3410, 4980.000
829.4790, 5041.000
830.6170, 5010.000
831.7550, 5027.368
832.8930, 5039.000
834.0310, 5089.000
835.1680, 5069.000
836.3050, 5164.000
837.4420, 5133.000
838.5790, 5004.000
839.7160, 5200.000
840.8520, 5104.000
841.9890, 5190.000
843.1250, 5177.000
844.2610, 5147.000
845.3970, 5214.000
846.5330, 5196.000
847.6680, 5200.000
848.8040, 5140.000
849.9390, 5208.000
851.0740, 5199.000
852.2090, 5227.000
853.3440, 5239.000
854.4780, 5205.000
855.6130, 5224.960
856.7470, 5152.000
857.8810, 5203.000
859.0150, 5238.000
860.1490, 5189.000
861.2830, 5302.000
862.4160, 5181.000
863.5490, 5294.000
864.6830, 5274.000
865.8160, 5261.000
866.9480, 5259.000
868.0810, 5281.000
869.2140, 5299.000
870.3460, 5273.000
871.4780, 5272.000
872.6100, 5331.000
873.7420, 5348.000
874.8740, 5428.000
876.0050, 5441.494
877.1370, 5444.000
878.2680, 5494.000
879.3990, 5482.000
880.5300, 5522.000
881.6600, 5581.000
882.7910, 5639.000
883.9210, 5681.746
885.0520, 5704.000
886.1820, 5790.000
887.3120, 5847.000
888.4410, 5934.000
889.5710, 6038.342
890.7000, 6174.000
891.8300, 6298.000
892.9590, 6423.672
894.0880, 6632.000
895.2160, 6730.000
896.3450, 6963.000
897.4730, 7168.000
898.6020, 7286.000
899.7300, 7446.000
900.8580, 7644.000
901.9860, 7992.000
903.1130, 8011.000
904.2410, 8390.000
905.3680, 8553.000
906.4950, 8886.000
907.6220, 9042.000
908.7490, 9361.000
909.8760, 9572.000
911.0020, 9637.000
912.1280, 9983.000
913.2550, 10221.00
914.3810, 10358.00
915.5060, 10526.00
916.6320, 10955.00
917.7580, 10800.00
918.8830, 10891.00
920.0080, 10837.16
921.1330, 10675.25
922.2580, 10543.00
923.3830, 10356.00
924.5070, 10195.00
925.6310, 10061.00
926.7560, 9848.000
927.8800, 9766.000
929.0040, 9447.000
930.1270, 9286.000
931.2510, 9199.000
932.3740, 8842.000
933.4970, 8706.000
934.6200, 8661.000
935.7430, 8569.000
936.8660, 8451.000
937.9890, 8286.000
939.1110, 8321.000
940.2330, 8294.000
941.3550, 8124.000
942.4770, 8101.000
943.5990, 8029.000
944.7200, 8071.000
945.8420, 7930.000
946.9630, 8031.000
948.0840, 8012.000
949.2050, 8127.000
950.3260, 8157.000
951.4460, 8286.000
952.5670, 8409.000
953.6870, 8596.000
954.8070, 8946.000
955.9270, 9089.000
957.0470, 9351.000
958.1660, 9470.000
959.2860, 9522.000
960.4050, 9880.000
961.5240, 9789.000
962.6430, 10097.00
963.7620, 10297.00
964.8810, 10538.00
965.9990, 10670.00
967.1170, 11147.00
968.2350, 11522.00
969.3530, 12151.00
970.4710, 12445.00
971.5890, 12910.00
972.7060, 13579.00
973.8240, 14149.00
974.9410, 14762.00
976.0580, 15490.00
977.1740, 16412.00
978.2910, 17049.00
979.4080, 18046.00
980.5240, 18875.37
981.6400, 19851.00
982.7560, 20561.00
983.8720, 21697.00
984.9870, 22350.00
986.1030, 23294.00
987.2180, 23767.00
988.3330, 24120.00
989.4480, 24570.00
990.5630, 24445.00
991.6780, 24480.00
992.7920, 24246.00
993.9070, 23844.00
995.0210, 23404.00
996.1350, 22998.00
997.2490, 22410.00
998.3620, 21821.00
999.4760, 21353.00
1000.589, 20715.00
1001.702, 20011.00
1002.815, 19507.00
1003.928, 18854.00
1005.041, 18514.00
1006.153, 17937.00
1007.266, 17408.00
1008.378, 16781.00
1009.490, 16707.00
1010.602, 16143.00
1011.713, 15702.00
1012.825, 15390.00
1013.936, 14884.00
1015.047, 14467.00
1016.158, 14066.00
1017.269, 13417.00
1018.380, 12945.00
1019.490, 12564.00
1020.601, 12093.00
1021.711, 11725.32
1022.821, 11271.00
1023.931, 11013.00
1025.040, 10624.00
1026.150, 10321.00
1027.259, 9965.000
1028.368, 9627.000
1029.477, 9325.000
1030.586, 9067.000
1031.695, 8867.112
1032.803, 8811.000
1033.912, 8545.000
1035.020, 8484.000
1036.128, 8321.000
1037.236, 8176.000
1038.343, 8171.000
1039.451, 8028.560
1040.558, 8040.000
1041.665, 7872.000
1042.772, 7817.000
1043.879, 7767.000
1044.986, 7738.000
1046.093, 7723.000
1047.199, 7739.000
1048.305, 7673.000
1049.411, 7710.865
1050.517, 7636.000
1051.623, 7768.000
1052.728, 7758.000
1053.833, 7818.000
1054.939, 7810.000
1056.044, 7881.000
1057.148, 7877.000
1058.253, 7998.000
1059.358, 8074.000
1060.462, 8156.000
1061.566, 8239.503
1062.670, 8298.000
1063.774, 8404.000
1064.878, 8505.000
1065.981, 8635.000
1067.085, 8765.000
1068.188, 9024.000
1069.291, 9227.000
1070.394, 9426.000
1071.496, 9892.000
1072.599, 10187.00
1073.701, 10594.00
1074.803, 11204.00
1075.905, 11656.00
1077.007, 12403.00
1078.109, 13192.00
1079.210, 13924.00
1080.312, 14984.00
1081.413, 15970.00
1082.514, 16817.00
1083.615, 17951.00
1084.715, 18600.51
1085.816, 19159.00
1086.916, 19166.54
1088.016, 19079.00
1089.116, 18295.00
1090.216, 17487.00
1091.316, 16291.00
1092.415, 15105.00
1093.515, 13850.00
1094.614, 12777.00
1095.713, 11983.00
1096.812, 11294.00
1097.910, 10648.34
1099.009, 10270.00
1100.107, 9726.000
1101.205, 9399.000
1102.303, 9097.000
1103.401, 8779.000
1104.499, 8713.000
1105.596, 8615.000
1106.693, 8526.000
1107.791, 8331.000
1108.888, 8269.011
1109.984, 8140.000
1111.081, 8120.000
1112.177, 7926.000
1113.274, 7930.000
1114.370, 7758.000
1115.466, 7742.000
1116.562, 7726.000
1117.657, 7638.000
1118.753, 7458.000
1119.848, 7595.000
1120.943, 7491.000
1122.038, 7423.000
1123.133, 7496.000
1124.228, 7431.000
1125.322, 7476.000
1126.416, 7408.000
1127.510, 7289.000
1128.604, 7181.000
1129.698, 7069.000
1130.792, 7059.000
1131.885, 7134.000
1132.978, 7010.000
1134.071, 6958.000
1135.164, 6856.000
1136.257, 6826.000
1137.350, 6798.242
1138.442, 6688.000
1139.534, 6769.000
1140.627, 6741.000
1141.718, 6698.000
1142.810, 6658.727
1143.902, 6568.988
1144.993, 6510.000
1146.084, 6382.000
1147.176, 6339.000
1148.266, 6275.000
1149.357, 6301.000
1150.448, 6216.000
1151.538, 6195.932
1152.628, 6140.084
1153.718, 6108.000
1154.808, 5999.000
1155.898, 5919.000
1156.988, 5824.000
1158.077, 5865.000
1159.166, 5777.000
1160.255, 5784.000
1161.344, 5759.000
1162.433, 5799.000
1163.521, 5635.000
1164.610, 5716.000
1165.698, 5647.000
1166.786, 5530.000
1167.874, 5510.000
1168.961, 5486.000
1170.049, 5446.000
1171.136, 5427.000
1172.224, 5417.000
1173.311, 5270.000
1174.397, 5186.000
1175.484, 5361.000
1176.571, 5178.000
1177.657, 5088.000
1178.743, 5214.000
1179.829, 5197.000
1180.915, 5067.000
1182.001, 5160.000
1183.086, 5091.000
1184.171, 5210.000
1185.256, 5120.000
1186.341, 5172.000
1187.426, 5064.000
1188.511, 5129.000
1189.595, 5003.000
1190.680, 5019.393
1191.764, 5024.000
1192.848, 5028.000
1193.932, 5030.000
1195.015, 5065.000
1196.099, 5097.000
1197.182, 5108.451
1198.265, 5096.000
1199.348, 5139.000
1200.431, 5116.000
1201.513, 5114.560
1202.596, 5037.000
1203.678, 5031.000
1204.760, 5072.000
1205.842, 5017.000
1206.924, 5075.000
1208.005, 5008.000
1209.087, 5012.000
1210.168, 5084.000
1211.249, 5018.000
1212.330, 5113.000
1213.411, 4948.000
1214.491, 5061.000
1215.572, 5032.632
1216.652, 5025.037
1217.732, 5044.000
1218.812, 5025.000
1219.891, 5031.000
1220.971, 5053.031
1222.050, 5005.000
1223.129, 5094.000
1224.208, 5080.000
1225.287, 5083.000
1226.366, 5030.000
1227.444, 5015.000
1228.523, 4987.000
1229.601, 4958.063
1230.679, 4999.000
1231.757, 4942.000
1232.834, 4950.000
1233.912, 5008.000
1234.989, 4976.000
1236.066, 5008.716
1237.143, 5070.000
1238.220, 5032.000
1239.297, 5029.000
1240.373, 5034.000
1241.449, 5075.000
1242.526, 5036.000
1243.601, 5021.000
1244.677, 4965.000
1245.753, 5045.000
1246.828, 5024.000
1247.904, 5093.000
1248.979, 4953.000
1250.054, 5020.000
1251.128, 4942.000
1252.203, 5074.000
1253.277, 5032.000
1254.351, 5022.000
1255.426, 5117.000
1256.499, 5116.000
1257.573, 5110.000
1258.647, 4992.000
1259.720, 5090.000
1260.793, 5057.000
1261.866, 5034.583
1262.939, 5042.889
1264.012, 5034.000
1265.084, 5020.000
1266.157, 5079.000
1267.229, 5138.000
1268.301, 5094.000
1269.373, 5079.000
1270.444, 5071.000
1271.516, 4994.000
1272.587, 5084.000
1273.658, 5074.000
1274.729, 5074.000
1275.800, 5253.000
1276.871, 5047.000
1277.941, 5210.000
1279.011, 5181.000
1280.082, 5221.000
1281.151, 5092.000
1282.221, 5131.000
1283.291, 5028.000
1284.360, 5128.000
1285.430, 5113.000
1286.499, 5137.000
1287.568, 5113.000
1288.636, 5153.000
1289.705, 5164.000
1290.773, 5198.000
1291.841, 5180.518
1292.909, 5109.000
1293.977, 5156.000
1295.045, 5128.000
1296.113, 5158.000
1297.180, 5078.000
1298.247, 5132.000
1299.314, 5167.000
1300.381, 5222.000
1301.448, 5251.000
1302.514, 5190.000
1303.580, 5193.000
1304.647, 5210.000
1305.713, 5193.000
1306.778, 5216.000
1307.844, 5170.000
1308.910, 5175.981
1309.975, 5174.000
1311.040, 5156.000
1312.105, 5175.787
1313.170, 5161.223
1314.234, 5175.000
1315.299, 5197.000
1316.363, 5193.000
1317.427, 5199.000
1318.491, 5196.736
1319.555, 5239.000
1320.618, 5176.000
1321.682, 5178.000
1322.745, 5154.000
1323.808, 5217.000
1324.871, 5215.000
1325.933, 5256.000
1326.996, 5198.000
1328.058, 5303.000
1329.121, 5219.000
1330.183, 5294.000
1331.244, 5269.000
1332.306, 5187.000
1333.368, 5194.000
1334.429, 5273.000
1335.490, 5308.000
1336.551, 5206.000
1337.612, 5246.000
1338.672, 5178.000
1339.733, 5232.000
1340.793, 5225.000
1341.853, 5288.000
1342.913, 5255.000
1343.973, 5263.000
1345.033, 5292.000
1346.092, 5186.000
1347.151, 5289.000
1348.210, 5203.000
1349.269, 5189.000
1350.328, 5256.000
1351.386, 5163.000
1352.445, 5351.000
1353.503, 5291.000
1354.561, 5244.000
1355.619, 5204.000
1356.677, 5163.403
1357.734, 5191.000
1358.791, 5134.000
1359.849, 5207.000
1360.906, 5279.000
1361.962, 5269.000
1363.019, 5309.000
1364.075, 5285.000
1365.132, 5334.000
1366.188, 5318.058
1367.244, 5306.000
1368.300, 5307.000
1369.355, 5329.000
1370.411, 5342.000
1371.466, 5339.741
1372.521, 5296.000
1373.576, 5330.000
1374.631, 5324.000
1375.685, 5305.000
1376.740, 5335.000
1377.794, 5291.417
1378.848, 5485.000
1379.902, 5255.000
1380.955, 5297.000
1382.009, 5348.000
1383.062, 5218.000
1384.115, 5393.000
1385.168, 5304.000
1386.221, 5296.000
1387.274, 5169.000
1388.326, 5236.000
1389.379, 5268.000
1390.431, 5256.000
1391.483, 5220.000
1392.534, 5307.000
1393.586, 5350.000
1394.637, 5395.000
1395.689, 5267.000
1396.740, 5160.000
1397.791, 5272.000
1398.841, 5258.000
1399.892, 5397.000
1400.942, 5250.000
1401.993, 5239.000
1403.043, 5316.000
1404.092, 5346.000
1405.142, 5310.000
1406.192, 5323.000
1407.241, 5257.000
1408.290, 5315.000
1409.339, 5273.000
1410.388, 5291.000
1411.437, 5352.000
1412.485, 5309.000
1413.533, 5306.000
1414.581, 5320.000
1415.629, 5271.000
1416.677, 5193.000
1417.725, 5294.000
1418.772, 5352.000
1419.819, 5170.000
1420.867, 5336.000
1421.913, 5380.000
1422.960, 5316.000
1424.007, 5357.000
1425.053, 5276.000
1426.099, 5394.000
1427.145, 5382.000
1428.191, 5294.000
1429.237, 5444.000
1430.282, 5357.000
1431.328, 5295.000
1432.373, 5311.000
1433.418, 5281.901
1434.462, 5283.680
1435.507, 5285.000
1436.552, 5325.000
1437.596, 5283.000
1438.640, 5348.000
1439.684, 5424.000
1440.728, 5424.000
1441.771, 5377.000
1442.815, 5313.000
1443.858, 5436.000
1444.901, 5338.000
1445.944, 5347.000
1446.986, 5441.000
1448.029, 5430.000
1449.071, 5320.000
1450.113, 5361.000
1451.155, 5345.000
1452.197, 5290.000
1453.239, 5361.000
1454.280, 5295.000
1455.322, 5396.000
1456.363, 5263.000
1457.404, 5298.000
1458.444, 5381.000
1459.485, 5361.000
1460.525, 5330.000
1461.566, 5370.000
1462.606, 5349.000
1463.646, 5386.000
1464.685, 5383.000
1465.725, 5375.000
1466.764, 5354.000
1467.803, 5370.000
1468.842, 5329.000
1469.881, 5311.000
1470.920, 5459.000
1471.958, 5330.000
1472.997, 5419.000
1474.035, 5354.000
1475.073, 5356.000
1476.111, 5420.000
1477.148, 5359.000
1478.186, 5365.000
1479.223, 5353.000
1480.260, 5432.000
1481.297, 5293.000
1482.334, 5385.000
1483.370, 5521.000
1484.407, 5382.000
1485.443, 5350.000
1486.479, 5399.000
1487.515, 5331.000
1488.550, 5484.000
1489.586, 5417.000
1490.621, 5315.000
1491.656, 5487.000
1492.691, 5452.000
1493.726, 5513.000
1494.761, 5454.000
1495.795, 5427.000
1496.829, 5432.000
1497.863, 5371.000
1498.897, 5416.000
1499.931, 5400.000
1500.965, 5451.000
1501.998, 5446.000
1503.031, 5504.000
1504.064, 5399.000
1505.097, 5467.000
1506.130, 5427.000
1507.162, 5472.000
1508.195, 5393.000
1509.227, 5462.000
1510.259, 5458.000
1511.291, 5472.000
1512.322, 5512.000
1513.354, 5496.000
1514.385, 5483.000
1515.416, 5547.000
1516.447, 5580.000
1517.478, 5512.000
1518.508, 5507.000
1519.539, 5458.000
1520.569, 5498.000
1521.599, 5566.000
1522.629, 5514.000
1523.658, 5463.000
1524.688, 5541.000
1525.717, 5509.654
1526.746, 5487.000
1527.775, 5544.000
1528.804, 5487.000
1529.833, 5489.000
1530.861, 5494.000
1531.890, 5543.000
1532.918, 5452.000
1533.946, 5523.000
1534.973, 5555.000
1536.001, 5453.000
1537.028, 5496.000
1538.055, 5516.000
1539.082, 5490.000
1540.109, 5516.000
1541.136, 5514.000
1542.163, 5577.000
1543.189, 5537.000
1544.215, 5632.000
1545.241, 5509.000
1546.267, 5616.000
1547.292, 5594.947
1548.318, 5581.948
1549.343, 5618.000
1550.368, 5581.000
1551.393, 5620.000
1552.418, 5616.000
1553.442, 5617.902
1554.467, 5633.889
1555.491, 5621.000
1556.515, 5642.000
1557.539, 5623.000
1558.562, 5615.000
1559.586, 5558.000
1560.609, 5468.000
1561.632, 5518.000
1562.655, 5513.000
1563.678, 5565.000
1564.701, 5725.000
1565.723, 5624.000
1566.745, 5658.000
1567.768, 5562.000
1568.789, 5690.000
1569.811, 5516.000
1570.833, 5584.000
1571.854, 5581.000
1572.875, 5691.000
1573.896, 5613.000
1574.917, 5602.000
1575.938, 5583.000
1576.958, 5746.000
##END=



