##NAMES=Edenite
##RRUFFID=R060029
##IDEAL CHEMISTRY=NaCa_2_Mg_5_(Si_7_Al)O_22_(OH)_2_
##LOCALITY=Renfrew County, Ontario, Canada
##OWNER=RRUFF
##SOURCE=University of Arizona Mineral Museum
##DESCRIPTION=Black prismatic
##STATUS=The identification of this mineral has been confirmed by X-ray diffraction and chemical analysis
##URL=rruff.info/R060029
##MEASURED CHEMISTRY=(Na_0.62_K_0.34_[box]_0.04_)(Ca_0.86_Na_0.14_)_2_(Mg_0.57_Fe^2+^_0.30_Fe^3+^_0.07_Al_0.05_Ti_0.01_Mn_0.01_)_5_(Si_6.61_Al_1.39_)O_22_((OH)_0.69_F_0.31_)_2_
##PIN_ID=M00136
##ORIENTATION=Laser parallel to b* (0 1 0). Fiducial mark perpendicular to laser is parallel to c [0 0 1]
257.5080, 11284.06
258.7220, 11346.04
259.9360, 11311.48
261.1490, 11272.97
262.3630, 11368.85
263.5760, 11217.08
264.7890, 11467.00
266.0020, 11466.00
267.2150, 11428.00
268.4270, 11313.00
269.6400, 11393.00
270.8520, 11525.00
272.0640, 11498.00
273.2760, 11554.00
274.4880, 11673.00
275.7000, 12058.00
276.9120, 12131.00
278.1230, 12086.00
279.3340, 12171.00
280.5450, 12075.00
281.7560, 12162.00
282.9670, 12314.00
284.1780, 12161.00
285.3880, 12444.00
286.5980, 12404.00
287.8090, 12449.00
289.0190, 12380.00
290.2290, 12609.00
291.4380, 12494.00
292.6480, 12502.00
293.8570, 12498.00
295.0670, 12289.00
296.2760, 12335.00
297.4850, 12073.00
298.6930, 12183.00
299.9020, 12197.00
301.1110, 12047.67
302.3190, 12026.14
303.5270, 11925.00
304.7350, 11818.00
305.9430, 11894.00
307.1510, 11868.00
308.3580, 11682.00
309.5660, 11679.00
310.7730, 11718.00
311.9800, 11607.00
313.1870, 11487.00
314.3940, 11458.00
315.6010, 11423.00
316.8070, 11379.13
318.0130, 11411.00
319.2200, 11329.00
320.4260, 11265.99
321.6310, 11205.27
322.8370, 11089.00
324.0430, 11131.00
325.2480, 11199.00
326.4540, 11141.00
327.6590, 11093.00
328.8640, 10948.00
330.0680, 10902.00
331.2730, 11024.00
332.4780, 11093.00
333.6820, 11005.00
334.8860, 10963.00
336.0900, 11083.00
337.2940, 11104.00
338.4980, 11215.00
339.7010, 11282.00
340.9050, 11278.00
342.1080, 11350.00
343.3110, 11652.00
344.5140, 11534.70
345.7170, 12013.00
346.9200, 11940.00
348.1220, 12093.00
349.3240, 12330.51
350.5270, 12442.00
351.7290, 12681.00
352.9310, 12797.00
354.1320, 12961.00
355.3340, 13030.67
356.5350, 13097.00
357.7370, 13101.00
358.9380, 13047.00
360.1390, 13051.00
361.3400, 13129.00
362.5400, 13037.00
363.7410, 13082.00
364.9410, 13000.00
366.1410, 12813.00
367.3410, 12863.00
368.5410, 12731.99
369.7410, 12696.63
370.9400, 12603.00
372.1400, 12564.00
373.3390, 12531.00
374.5380, 12327.00
375.7370, 12211.00
376.9360, 11937.72
378.1350, 11930.41
379.3330, 11873.86
380.5310, 11770.62
381.7300, 11480.73
382.9280, 11431.83
384.1260, 11286.39
385.3230, 11137.09
386.5210, 11122.08
387.7180, 11122.00
388.9160, 10921.00
390.1130, 10810.00
391.3100, 10760.00
392.5060, 10629.12
393.7030, 10653.00
394.9000, 10527.00
396.0960, 10465.00
397.2920, 10543.00
398.4880, 10322.00
399.6840, 10154.00
400.8800, 10215.00
402.0750, 10175.00
403.2710, 10136.00
404.4660, 10087.00
405.6610, 10072.06
406.8560, 10065.08
408.0510, 10005.00
409.2450, 10118.00
410.4400, 10017.00
411.6340, 10115.00
412.8280, 9956.000
414.0220, 10087.00
415.2160, 10351.00
416.4100, 10486.00
417.6030, 10212.00
418.7970, 10168.00
419.9900, 10286.00
421.1830, 10246.00
422.3760, 10356.00
423.5690, 10381.00
424.7610, 10392.00
425.9540, 10467.00
427.1460, 10372.00
428.3380, 10395.00
429.5300, 10438.00
430.7220, 10330.00
431.9140, 10294.00
433.1050, 10353.00
434.2970, 10146.00
435.4880, 10215.00
436.6790, 10028.00
437.8700, 10092.00
439.0610, 10211.00
440.2510, 10020.00
441.4420, 10064.00
442.6320, 10118.00
443.8220, 9862.000
445.0120, 10007.00
446.2020, 9875.000
447.3910, 9845.000
448.5810, 9930.000
449.7700, 9887.000
450.9600, 9741.000
452.1490, 9725.000
453.3370, 9782.000
454.5260, 9687.000
455.7150, 9697.000
456.9030, 9651.000
458.0910, 9545.000
459.2800, 9626.000
460.4670, 9501.000
461.6550, 9510.000
462.8430, 9484.000
464.0300, 9484.000
465.2180, 9334.000
466.4050, 9326.000
467.5920, 9275.000
468.7790, 9405.000
469.9650, 9388.000
471.1520, 9323.000
472.3380, 9348.000
473.5250, 9246.000
474.7110, 9300.000
475.8970, 9309.347
477.0820, 9467.873
478.2680, 9577.095
479.4540, 9639.623
480.6390, 9515.573
481.8240, 9632.401
483.0090, 9652.696
484.1940, 9669.032
485.3780, 9819.725
486.5630, 9722.806
487.7470, 9871.367
488.9320, 9921.960
490.1160, 10017.37
491.3000, 10015.65
492.4830, 10043.89
493.6670, 10169.33
494.8500, 10240.94
496.0340, 10228.03
497.2170, 10365.00
498.4000, 10469.00
499.5820, 10539.00
500.7650, 10634.00
501.9480, 10835.00
503.1300, 10924.00
504.3120, 11060.00
505.4940, 10932.00
506.6760, 11065.00
507.8580, 11196.00
509.0390, 11336.97
510.2210, 11437.00
511.4020, 11550.66
512.5830, 11768.00
513.7640, 11751.00
514.9450, 11757.00
516.1250, 11857.00
517.3060, 12031.00
518.4860, 12146.00
519.6660, 12380.00
520.8460, 12388.00
522.0260, 12635.00
523.2060, 12603.00
524.3850, 12674.00
525.5650, 12789.00
526.7440, 12874.00
527.9230, 12884.00
529.1020, 12905.00
530.2810, 12842.00
531.4590, 12896.00
532.6380, 12781.00
533.8160, 12883.00
534.9940, 12800.22
536.1720, 12550.00
537.3500, 12656.00
538.5270, 12537.00
539.7050, 12385.00
540.8820, 12395.00
542.0590, 12234.97
543.2360, 12293.13
544.4130, 12301.95
545.5900, 12264.07
546.7660, 12039.70
547.9430, 12056.16
549.1190, 11976.13
550.2950, 11892.14
551.4710, 11967.00
552.6470, 12030.00
553.8220, 11828.00
554.9980, 11863.00
556.1730, 11766.00
557.3480, 11595.00
558.5230, 11566.00
559.6980, 11495.00
560.8730, 11387.00
562.0470, 11251.00
563.2220, 11247.00
564.3960, 11080.00
565.5700, 11086.00
566.7440, 10838.00
567.9170, 10895.00
569.0910, 10611.00
570.2640, 10655.00
571.4380, 10807.00
572.6110, 10493.00
573.7840, 10184.00
574.9570, 10027.00
576.1290, 9985.000
577.3020, 9741.000
578.4740, 9828.000
579.6460, 9594.000
580.8180, 9485.000
581.9900, 9409.000
583.1620, 9510.000
584.3330, 9258.000
585.5040, 9234.000
586.6760, 8985.000
587.8470, 8966.000
589.0180, 8954.000
590.1880, 8913.000
591.3590, 8985.000
592.5290, 8961.000
593.7000, 8921.068
594.8700, 8930.000
596.0400, 8837.000
597.2090, 8839.000
598.3790, 8844.000
599.5490, 8827.658
600.7180, 8968.223
601.8870, 9059.444
603.0560, 9103.973
604.2250, 8961.959
605.3940, 9060.826
606.5620, 9063.136
607.7300, 9061.486
608.8990, 9194.256
610.0670, 9141.000
611.2350, 9163.000
612.4020, 9219.000
613.5700, 9242.000
614.7370, 9330.000
615.9050, 9352.000
617.0720, 9375.000
618.2390, 9415.000
619.4060, 9549.000
620.5720, 9706.000
621.7390, 9677.000
622.9050, 9783.000
624.0710, 9748.875
625.2370, 9957.377
626.4030, 10116.54
627.5690, 10229.00
628.7340, 10154.84
629.9000, 10321.65
631.0650, 10391.84
632.2300, 10458.07
633.3950, 10605.00
634.5600, 10717.00
635.7240, 10862.00
636.8890, 10929.00
638.0530, 11152.00
639.2170, 11433.00
640.3810, 11558.00
641.5450, 11743.00
642.7080, 11932.00
643.8720, 12077.00
645.0350, 12449.00
646.1980, 12539.00
647.3610, 12843.00
648.5240, 13021.00
649.6870, 13493.00
650.8490, 13860.00
652.0120, 14026.00
653.1740, 14615.00
654.3360, 15010.00
655.4980, 15659.00
656.6600, 16245.00
657.8210, 16904.00
658.9830, 17444.73
660.1440, 18015.00
661.3050, 18458.00
662.4660, 19196.00
663.6270, 19572.00
664.7870, 19629.00
665.9480, 19607.00
667.1080, 19519.00
668.2680, 19211.88
669.4280, 18753.00
670.5880, 18329.00
671.7480, 17791.00
672.9070, 17134.00
674.0670, 16706.68
675.2260, 16115.25
676.3850, 15694.00
677.5440, 15133.00
678.7030, 14574.00
679.8610, 14281.00
681.0200, 13844.03
682.1780, 13766.00
683.3360, 13282.00
684.4940, 13039.00
685.6520, 12942.00
686.8090, 12634.00
687.9670, 12321.00
689.1240, 12211.00
690.2810, 12241.00
691.4380, 12023.00
692.5950, 11873.00
693.7520, 11724.00
694.9080, 11692.00
696.0650, 11662.00
697.2210, 11605.00
698.3770, 11608.00
699.5330, 11693.00
700.6880, 11605.00
701.8440, 11768.00
702.9990, 11741.67
704.1550, 11793.83
705.3100, 11800.00
706.4650, 11940.00
707.6190, 12033.00
708.7740, 12201.00
709.9290, 12325.00
711.0830, 12452.00
712.2370, 12502.00
713.3910, 12482.00
714.5450, 12611.00
715.6980, 12689.00
716.8520, 12573.00
718.0050, 12719.00
719.1580, 12774.00
720.3110, 12807.00
721.4640, 12829.00
722.6170, 12823.57
723.7700, 12825.56
724.9220, 12790.00
726.0740, 12789.00
727.2260, 12795.00
728.3780, 12761.58
729.5300, 12547.00
730.6810, 12646.00
731.8330, 12648.00
732.9840, 12526.00
734.1350, 12254.00
735.2860, 12299.00
736.4370, 12131.00
737.5880, 11961.00
738.7380, 11985.00
739.8880, 11880.00
741.0390, 11892.00
742.1890, 11582.00
743.3380, 11472.00
744.4880, 11251.00
745.6380, 11279.00
746.7870, 11014.00
747.9360, 10986.00
749.0850, 10933.00
750.2340, 10672.00
751.3830, 10681.00
752.5310, 10708.00
753.6800, 10560.00
754.8280, 10490.00
755.9760, 10476.00
757.1240, 10434.00
758.2720, 10381.00
759.4190, 10385.00
760.5670, 10361.10
761.7140, 10336.00
762.8610, 10351.00
764.0080, 10345.00
765.1550, 10330.00
766.3020, 10386.42
767.4480, 10282.00
768.5950, 10458.00
769.7410, 10569.00
770.8870, 10531.68
772.0330, 10343.00
773.1780, 10509.00
774.3240, 10438.00
775.4690, 10595.00
776.6140, 10472.00
777.7590, 10384.00
778.9040, 10406.00
780.0490, 10409.00
781.1940, 10508.00
782.3380, 10542.03
783.4820, 10588.12
784.6260, 10596.00
785.7700, 10645.00
786.9140, 10498.46
788.0580, 10429.47
789.2010, 10354.00
790.3450, 10310.00
791.4880, 10236.93
792.6310, 10163.61
793.7730, 10259.49
794.9160, 10306.02
796.0590, 10305.85
797.2010, 10119.16
798.3430, 10173.34
799.4850, 10130.99
800.6270, 10084.68
801.7690, 10172.77
802.9100, 10013.22
804.0520, 10099.18
805.1930, 10087.14
806.3340, 10119.96
807.4750, 10055.65
808.6160, 10021.34
809.7560, 10084.21
810.8970, 10093.26
812.0370, 10017.78
813.1770, 10053.47
814.3170, 9890.540
815.4570, 9901.898
816.5960, 9988.467
817.7360, 9917.873
818.8750, 9955.350
820.0140, 9951.673
821.1530, 9760.972
822.2920, 9895.523
823.4310, 9889.414
824.5690, 9738.893
825.7070, 9862.314
826.8460, 9786.000
827.9840, 9716.000
829.1220, 9670.000
830.2590, 9592.000
831.3970, 9537.000
832.5340, 9670.000
833.6710, 9779.000
834.8080, 9671.981
835.9450, 9674.000
837.0820, 9556.000
838.2190, 9535.000
839.3550, 9592.000
840.4910, 9712.000
841.6270, 9672.000
842.7630, 9962.000
843.8990, 9875.785
845.0350, 9912.000
846.1700, 9852.000
847.3060, 9937.000
848.4410, 9983.000
849.5760, 10007.00
850.7100, 10039.00
851.8450, 10046.00
852.9800, 10131.00
854.1140, 10143.00
855.2480, 10186.00
856.3820, 10135.00
857.5160, 10237.00
858.6500, 10284.76
859.7830, 10319.02
860.9170, 10400.00
862.0500, 10462.00
863.1830, 10502.11
864.3160, 10523.00
865.4480, 10592.00
866.5810, 10645.00
867.7130, 10697.00
868.8460, 10783.00
869.9780, 10804.00
871.1100, 10824.00
872.2410, 10823.00
873.3730, 10893.00
874.5050, 10988.00
875.6360, 10997.00
876.7670, 10964.00
877.8980, 11074.00
879.0290, 10908.00
880.1590, 11146.00
881.2900, 11044.00
882.4200, 11170.00
883.5500, 11407.00
884.6800, 11398.00
885.8100, 11629.00
886.9400, 11538.00
888.0690, 11438.00
889.1990, 11393.00
890.3280, 11632.00
891.4570, 11647.00
892.5860, 11665.00
893.7140, 11723.00
894.8430, 11683.00
895.9710, 11778.00
897.1000, 11917.00
898.2280, 11931.00
899.3560, 11809.00
900.4830, 11949.00
901.6110, 11982.00
902.7380, 12055.00
903.8660, 12097.00
904.9930, 12085.00
906.1200, 12223.00
907.2460, 12188.00
908.3730, 12291.00
909.5000, 12193.00
910.6260, 12378.00
911.7520, 12207.00
912.8780, 12456.00
914.0040, 12549.00
915.1290, 12494.00
916.2550, 12633.00
917.3800, 12538.00
918.5050, 12595.00
919.6300, 12625.00
920.7550, 12675.00
921.8800, 12704.00
923.0040, 12735.75
924.1290, 12705.70
925.2530, 12704.00
926.3770, 12664.00
927.5010, 12453.00
928.6250, 12515.00
929.7480, 12617.00
930.8720, 12427.00
931.9950, 12535.00
933.1180, 12437.00
934.2410, 12270.00
935.3640, 12228.00
936.4860, 12354.00
937.6090, 12258.00
938.7310, 12284.00
939.8530, 12330.00
940.9750, 12223.00
942.0970, 12240.00
943.2180, 12252.00
944.3400, 12210.00
945.4610, 12194.00
946.5820, 12112.00
947.7030, 12058.00
948.8240, 12159.00
949.9450, 12026.00
951.0650, 12116.00
952.1860, 12114.00
953.3060, 12133.00
954.4260, 12077.44
955.5460, 12068.00
956.6650, 11955.00
957.7850, 12005.00
958.9040, 12058.00
960.0230, 11954.00
961.1420, 12074.00
962.2610, 11963.00
963.3800, 11945.98
964.4990, 11945.00
965.6170, 11891.00
966.7350, 11843.00
967.8530, 11891.00
968.9710, 11865.99
970.0890, 11914.16
971.2070, 11883.00
972.3240, 12007.00
973.4410, 11995.00
974.5580, 12007.00
975.6750, 12044.00
976.7920, 11944.00
977.9090, 12025.00
979.0250, 12108.29
980.1410, 12315.00
981.2580, 12293.00
982.3740, 12237.00
983.4890, 12162.00
984.6050, 12276.85
985.7200, 12268.46
986.8360, 12534.00
987.9510, 12340.00
989.0660, 12487.00
990.1810, 12409.00
991.2950, 12431.06
992.4100, 12571.00
993.5240, 12532.00
994.6390, 12810.00
995.7530, 12940.00
996.8660, 12932.00
997.9800, 12877.00
999.0940, 12899.00
1000.207, 13129.00
1001.320, 13217.00
1002.433, 13033.00
1003.546, 13215.00
1004.659, 13189.00
1005.772, 13322.00
1006.884, 13339.00
1007.996, 13527.00
1009.108, 13481.04
1010.220, 13593.00
1011.332, 13452.00
1012.444, 13425.00
1013.555, 13474.00
1014.666, 13521.00
1015.777, 13510.00
1016.888, 13526.00
1017.999, 13596.00
1019.110, 13379.00
1020.220, 13499.00
1021.331, 13426.00
1022.441, 13511.00
1023.551, 13344.00
1024.661, 13427.00
1025.770, 13400.38
1026.880, 13392.85
1027.989, 13394.00
1029.098, 13422.00
1030.207, 13409.00
1031.316, 13342.43
1032.425, 13433.28
1033.533, 13474.80
1034.642, 13469.62
1035.750, 13277.90
1036.858, 13327.07
1037.966, 13279.71
1039.073, 13228.41
1040.181, 13311.48
1041.288, 13146.92
1042.396, 13290.00
1043.503, 13085.00
1044.610, 13218.00
1045.716, 13154.00
1046.823, 13240.00
1047.929, 13055.00
1049.036, 13047.00
1050.142, 13026.00
1051.248, 13236.00
1052.353, 13085.00
1053.459, 13115.00
1054.564, 13065.00
1055.670, 13298.00
1056.775, 13200.00
1057.880, 12866.00
1058.985, 13125.63
1060.089, 12920.91
1061.194, 13262.00
1062.298, 12837.00
1063.402, 12693.00
1064.506, 12666.00
1065.610, 12649.00
1066.713, 12448.00
1067.817, 12339.00
1068.920, 12361.00
1070.023, 12332.00
1071.126, 12267.00
1072.229, 12260.00
1073.332, 12160.00
1074.435, 12067.00
1075.537, 12152.00
1076.639, 11998.00
1077.741, 11806.00
1078.843, 11896.00
1079.945, 11768.00
1081.046, 11761.00
1082.148, 11732.00
1083.249, 11671.00
1084.350, 11718.00
1085.451, 11606.00
1086.551, 11570.00
1087.652, 11636.00
1088.752, 11527.00
1089.853, 11489.00
1090.953, 11315.00
1092.053, 11467.00
1093.152, 11322.00
1094.252, 11247.00
1095.351, 11252.00
1096.451, 11170.00
1097.550, 11123.61
1098.649, 11207.00
1099.748, 11003.00
1100.846, 11013.60
1101.945, 10951.00
1103.043, 10798.00
1104.141, 10955.00
1105.239, 10817.00
1106.337, 10791.00
1107.434, 10691.00
1108.532, 10630.09
1109.629, 10546.00
1110.726, 10553.00
1111.823, 10503.00
1112.920, 10537.00
1114.017, 10480.00
1115.113, 10537.00
1116.210, 10544.00
1117.306, 10556.00
1118.402, 10588.00
1119.498, 10583.11
1120.593, 10592.72
1121.689, 10571.00
1122.784, 10594.00
1123.879, 10555.00
1124.974, 10556.00
1126.069, 10453.00
1127.164, 10235.00
1128.259, 10142.00
1129.353, 10246.00
1130.447, 10114.00
1131.541, 10144.00
1132.635, 9863.000
1133.729, 9876.000
1134.822, 9876.000
1135.916, 9766.000
1137.009, 9716.000
1138.102, 9860.000
1139.195, 9666.000
1140.288, 9852.000
1141.380, 9778.000
1142.473, 9704.000
1143.565, 9710.000
1144.657, 9640.000
1145.749, 9659.000
1146.841, 9463.000
1147.932, 9505.000
1149.024, 9539.000
1150.115, 9647.000
1151.206, 9563.000
1152.297, 9544.000
1153.388, 9423.000
1154.479, 9579.000
1155.569, 9626.000
1156.659, 9537.000
1157.750, 9405.000
1158.839, 9441.009
1159.929, 9403.808
1161.019, 9410.000
1162.108, 9467.000
1163.198, 9431.000
1164.287, 9496.000
1165.376, 9438.000
1166.465, 9339.000
1167.553, 9434.000
1168.642, 9314.000
1169.730, 9397.000
1170.818, 9436.000
1171.906, 9371.000
1172.994, 9281.000
1174.082, 9392.000
1175.170, 9293.000
1176.257, 9357.000
1177.344, 9244.000
1178.431, 9406.000
1179.518, 9370.000
1180.605, 9401.000
1181.691, 9302.000
1182.778, 9205.000
1183.864, 9363.000
1184.950, 9225.000
1186.036, 9307.000
1187.122, 9373.000
1188.207, 9387.000
1189.292, 9382.001
1190.378, 9357.000
1191.463, 9294.000
1192.548, 9271.000
1193.632, 9205.000
1194.717, 9206.000
1195.801, 9193.000
1196.886, 9168.931
1197.970, 9198.767
1199.054, 9146.000
1200.137, 9247.000
1201.221, 9239.000
1202.305, 9250.000
1203.388, 9224.000
1204.471, 9217.000
1205.554, 9202.720
1206.637, 9244.000
1207.719, 9203.000
1208.802, 9154.000
1209.884, 9229.628
1210.966, 9213.261
1212.048, 9247.940
1213.130, 9236.000
1214.212, 9334.000
1215.293, 9266.000
1216.374, 9326.000
1217.456, 9389.000
1218.536, 9370.000
1219.617, 9421.000
1220.698, 9299.000
1221.778, 9088.000
1222.859, 9286.000
1223.939, 9201.000
1225.019, 9335.000
1226.099, 9214.000
1227.178, 9257.000
1228.258, 9287.000
1229.337, 9342.000
1230.417, 9333.672
1231.496, 9238.000
1232.574, 9332.000
1233.653, 9277.000
1234.732, 9304.000
1235.810, 9274.000
1236.888, 9268.000
1237.966, 9186.000
1239.044, 9211.000
1240.122, 9302.000
1241.199, 9194.000
1242.277, 9342.000
1243.354, 9282.000
1244.431, 9292.000
1245.508, 9123.000
1246.585, 9336.000
1247.661, 9213.000
1248.738, 9286.000
1249.814, 9250.000
1250.890, 9341.000
1251.966, 9272.000
1253.042, 9262.000
1254.117, 9201.000
1255.193, 9315.000
1256.268, 9192.000
1257.343, 9145.000
1258.418, 9362.000
1259.493, 9209.000
1260.567, 9207.000
1261.642, 9260.000
1262.716, 9164.000
1263.790, 9216.000
1264.864, 9215.000
1265.938, 9292.000
1267.011, 9264.000
1268.085, 9278.000
1269.158, 9176.000
1270.231, 9303.000
1271.304, 9217.000
1272.377, 9240.793
1273.450, 9177.867
1274.522, 9286.181
1275.594, 9345.150
1276.666, 9357.428
1277.738, 9183.164
1278.810, 9249.780
1279.882, 9219.862
1280.953, 9185.990
1282.025, 9286.509
1283.096, 9139.382
1284.167, 9237.773
1285.238, 9238.158
1286.308, 9283.402
1287.379, 9231.513
1288.449, 9209.627
1289.519, 9284.902
1290.589, 9358.000
1291.659, 9283.000
1292.729, 9265.000
1293.798, 9150.000
1294.868, 9253.000
1295.937, 9223.000
1297.006, 9184.000
1298.075, 9429.000
1299.143, 9270.000
1300.212, 9338.000
1301.280, 9171.000
1302.348, 9193.000
1303.416, 9291.000
1304.484, 9375.000
1305.552, 9290.000
1306.620, 9312.000
1307.687, 9222.000
1308.754, 9274.000
1309.821, 9276.000
1310.888, 9217.000
1311.955, 9231.000
1313.021, 9219.000
1314.088, 9157.000
1315.154, 9380.000
1316.220, 9332.000
1317.286, 9442.000
1318.352, 9289.000
1319.417, 9322.000
1320.483, 9356.000
1321.548, 9462.000
1322.613, 9381.000
1323.678, 9284.000
1324.743, 9326.000
1325.807, 9378.000
1326.872, 9177.000
1327.936, 9329.000
1329.000, 9288.000
1330.064, 9331.000
1331.128, 9278.000
1332.191, 9254.000
1333.255, 9229.873
1334.318, 9227.000
1335.381, 9176.000
1336.444, 9283.000
1337.507, 9332.000
1338.569, 9402.000
1339.632, 9345.000
1340.694, 9286.000
1341.756, 9189.000
1342.818, 9295.000
1343.880, 9346.000
1344.941, 9366.000
1346.003, 9375.000
1347.064, 9304.000
1348.125, 9443.000
1349.186, 9262.000
1350.247, 9295.000
1351.308, 9475.000
1352.368, 9457.000
1353.428, 9323.000
1354.489, 9289.000
1355.549, 9301.669
1356.608, 9288.099
1357.668, 9347.000
1358.727, 9352.000
1359.787, 9343.000
1360.846, 9338.000
1361.905, 9388.000
1362.964, 9310.000
1364.022, 9368.327
1365.081, 9336.000
1366.139, 9431.000
1367.197, 9360.000
1368.255, 9387.000
1369.313, 9242.000
1370.371, 9346.000
1371.428, 9309.000
1372.486, 9377.000
1373.543, 9316.000
1374.600, 9324.000
1375.657, 9271.000
1376.713, 9315.000
1377.770, 9461.000
1378.826, 9374.742
1379.882, 9400.000
1380.938, 9333.000
1381.994, 9364.000
1383.050, 9399.000
1384.106, 9299.000
1385.161, 9447.000
1386.216, 9437.914
1387.271, 9528.000
1388.326, 9468.000
1389.381, 9437.000
1390.435, 9458.492
1391.490, 9621.000
1392.544, 9459.646
1393.598, 9427.000
1394.652, 9460.000
1395.705, 9284.000
1396.759, 9400.000
1397.812, 9533.000
1398.866, 9430.452
1399.919, 9460.111
1400.972, 9407.000
1402.024, 9358.000
1403.077, 9408.000
1404.129, 9426.000
1405.181, 9446.000
1406.233, 9413.000
1407.285, 9394.000
1408.337, 9383.000
1409.389, 9360.000
1410.440, 9369.309
1411.491, 9375.282
1412.542, 9399.000
1413.593, 9455.000
1414.644, 9494.000
1415.695, 9631.000
1416.745, 9519.696
1417.795, 9520.872
1418.845, 9346.000
1419.895, 9456.000
1420.945, 9442.000
1421.995, 9598.000
1423.044, 9549.000
1424.093, 9375.000
1425.142, 9385.000
1426.191, 9505.000
1427.240, 9486.846
1428.289, 9710.000
1429.337, 9648.000
1430.385, 9448.000
1431.433, 9506.000
1432.481, 9629.000
1433.529, 9527.000
1434.577, 9527.000
1435.624, 9580.000
1436.672, 9623.000
1437.719, 9508.000
1438.766, 9635.000
1439.812, 9542.000
1440.859, 9633.854
1441.905, 9607.000
1442.952, 9655.000
1443.998, 9745.000
1445.044, 9429.979
1446.090, 9717.000
1447.135, 9463.000
1448.181, 9563.000
1449.226, 9480.000
1450.271, 9507.533
1451.316, 9501.359
1452.361, 9706.000
1453.405, 9452.000
1454.450, 9655.000
1455.494, 9614.000
1456.538, 9564.000
1457.582, 9684.000
1458.626, 9742.000
1459.670, 9509.000
1460.713, 9687.000
1461.757, 9613.000
1462.800, 9698.000
1463.843, 9614.000
1464.886, 9627.000
1465.928, 9635.000
1466.971, 9653.000
1468.013, 9647.499
1469.055, 9594.000
1470.097, 9672.463
1471.139, 9627.305
1472.181, 9712.000
1473.222, 9561.000
1474.263, 9677.000
1475.305, 9657.000
1476.346, 9733.000
1477.386, 9762.000
1478.427, 9612.000
1479.468, 9649.000
1480.508, 9552.000
1481.548, 9691.000
1482.588, 9796.000
1483.628, 9743.000
1484.668, 9563.000
1485.707, 9669.000
1486.747, 9609.000
1487.786, 9632.000
1488.825, 9695.000
1489.864, 9604.000
1490.902, 9683.000
1491.941, 9703.000
1492.979, 9679.000
1494.017, 9727.000
1495.055, 9686.000
1496.093, 9695.000
1497.131, 9565.651
1498.168, 9679.354
1499.206, 9743.715
1500.243, 9761.382
1501.280, 9592.508
1502.317, 9664.513
1503.354, 9639.984
1504.390, 9611.497
1505.426, 9717.404
1506.463, 9575.662
1507.499, 9679.438
1508.535, 9685.206
1509.570, 9735.829
1510.606, 9689.324
1511.641, 9672.817
1512.676, 9753.473
1513.711, 9780.328
1514.746, 9722.641
1515.781, 9776.115
1516.816, 9630.979
1517.850, 9660.125
1518.884, 9764.467
1519.918, 9711.662
1520.952, 9766.911
1521.986, 9781.007
1523.019, 9608.080
1524.053, 9760.404
1525.086, 9772.068
1526.119, 9639.304
1527.152, 9780.483
1528.185, 9667.630
1529.217, 9645.449
1530.250, 9691.509
1531.282, 9666.431
1532.314, 9753.507
1533.346, 9732.537
1534.377, 9701.912
1535.409, 9713.417
1536.440, 9605.543
1537.472, 9719.140
1538.503, 9681.453
1539.534, 9718.965
1540.564, 9773.521
1541.595, 9697.566
1542.625, 9759.781
1543.656, 9607.727
1544.686, 9634.958
1545.716, 9642.885
1546.745, 9765.406
1547.775, 9614.396
1548.804, 9636.646
1549.834, 9732.669
1550.863, 9725.467
1551.892, 9761.423
1552.920, 9669.610
1553.949, 9697.827
1554.977, 9692.959
1556.006, 9802.416
1557.034, 9821.618
1558.062, 9731.974
1559.089, 9642.789
1560.117, 9760.474
1561.144, 9682.085
1562.172, 9709.477
1563.199, 9627.620
1564.226, 9640.090
1565.252, 9651.062
1566.279, 9710.392
1567.305, 9623.096
1568.332, 9725.994
1569.358, 9651.000
1570.384, 9725.000
1571.409, 9862.000
##END=



