##NAMES=Edenite
##RRUFFID=R060029
##IDEAL CHEMISTRY=NaCa_2_Mg_5_(Si_7_Al)O_22_(OH)_2_
##LOCALITY=Renfrew County, Ontario, Canada
##OWNER=RRUFF
##SOURCE=University of Arizona Mineral Museum
##DESCRIPTION=Black prismatic
##STATUS=The identification of this mineral has been confirmed by X-ray diffraction and chemical analysis
##URL=rruff.info/R060029
##MEASURED CHEMISTRY=(Na_0.62_K_0.34_[box]_0.04_)(Ca_0.86_Na_0.14_)_2_(Mg_0.57_Fe^2+^_0.30_Fe^3+^_0.07_Al_0.05_Ti_0.01_Mn_0.01_)_5_(Si_6.61_Al_1.39_)O_22_((OH)_0.69_F_0.31_)_2_
##PIN_ID=M00286
##ORIENTATION=Laser parallel to (-1 0 -1). Fiducial mark perpendicular to laser is parallel to b [0 1 0]
125.5190, 16367.24
126.7490, 16232.06
127.9790, 16292.18
129.2090, 16274.04
130.4390, 16252.68
131.6680, 16340.29
132.8980, 16227.11
134.1270, 16430.00
135.3560, 16448.00
136.5850, 16602.00
137.8140, 16987.00
139.0430, 17028.82
140.2710, 17151.45
141.5000, 17417.00
142.7280, 17270.00
143.9560, 17591.00
145.1840, 17759.00
146.4120, 18317.00
147.6390, 18932.00
148.8670, 19586.00
150.0940, 20605.00
151.3210, 21860.00
152.5490, 22389.00
153.7750, 22818.00
155.0020, 22968.00
156.2290, 22119.00
157.4550, 21147.00
158.6810, 20726.00
159.9080, 20036.00
161.1340, 19473.00
162.3590, 19360.00
163.5850, 19739.00
164.8110, 19853.00
166.0360, 19884.00
167.2610, 19919.00
168.4860, 20086.00
169.7110, 20105.00
170.9360, 20325.98
172.1610, 20756.00
173.3850, 20881.00
174.6100, 21330.00
175.8340, 21886.00
177.0580, 22196.00
178.2820, 22880.00
179.5050, 22786.00
180.7290, 23073.00
181.9520, 23134.00
183.1760, 23019.00
184.3990, 22807.00
185.6220, 22867.00
186.8450, 22640.00
188.0670, 22526.78
189.2900, 22439.00
190.5120, 22317.00
191.7340, 22366.00
192.9560, 22474.00
194.1780, 22519.00
195.4000, 22547.00
196.6220, 22794.00
197.8430, 22930.00
199.0640, 23263.00
200.2860, 23857.00
201.5070, 24633.00
202.7270, 24695.00
203.9480, 23969.00
205.1690, 23068.00
206.3890, 22439.00
207.6090, 22866.00
208.8290, 23702.00
210.0490, 24617.00
211.2690, 25679.00
212.4890, 27228.00
213.7080, 28665.00
214.9280, 30111.00
216.1470, 31803.00
217.3660, 33567.00
218.5850, 34995.00
219.8030, 37184.00
221.0220, 38074.00
222.2400, 38557.30
223.4590, 38837.00
224.6770, 38352.00
225.8950, 37566.00
227.1120, 36781.00
228.3300, 35545.00
229.5480, 34234.00
230.7650, 32862.00
231.9820, 31583.00
233.1990, 30535.00
234.4160, 29272.00
235.6330, 28275.00
236.8490, 27242.00
238.0660, 26235.00
239.2820, 25322.13
240.4980, 24436.17
241.7140, 23621.00
242.9300, 22860.00
244.1460, 22233.00
245.3610, 21629.00
246.5770, 21165.24
247.7920, 20679.10
249.0070, 20433.00
250.2220, 19987.00
251.4370, 19718.00
252.6510, 19665.00
253.8660, 19338.56
255.0800, 19341.06
256.2940, 19303.56
257.5080, 19228.20
258.7220, 19001.60
259.9360, 18970.29
261.1490, 18860.80
262.3630, 18748.02
263.5760, 18744.28
264.7890, 18649.00
266.0020, 18798.00
267.2150, 18857.00
268.4270, 18721.00
269.6400, 19049.00
270.8520, 19017.72
272.0640, 19021.00
273.2760, 19277.00
274.4880, 19579.00
275.7000, 19902.00
276.9120, 19972.00
278.1230, 20304.00
279.3340, 20528.00
280.5450, 20884.00
281.7560, 20945.00
282.9670, 21153.00
284.1780, 21469.00
285.3880, 21765.00
286.5980, 21806.00
287.8090, 22305.00
289.0190, 22474.00
290.2290, 22382.00
291.4380, 22647.00
292.6480, 22713.00
293.8570, 22671.00
295.0670, 22390.33
296.2760, 22345.66
297.4850, 22260.98
298.6930, 22138.56
299.9020, 21991.38
301.1110, 21786.30
302.3190, 21629.66
303.5270, 21451.00
304.7350, 21277.00
305.9430, 20959.00
307.1510, 20834.00
308.3580, 20586.00
309.5660, 20564.00
310.7730, 20294.00
311.9800, 20037.00
313.1870, 19826.00
314.3940, 19619.00
315.6010, 19474.66
316.8070, 19381.00
318.0130, 19284.00
319.2200, 19196.00
320.4260, 19087.18
321.6310, 18957.42
322.8370, 18889.00
324.0430, 18716.00
325.2480, 18650.00
326.4540, 18617.00
327.6590, 18481.00
328.8640, 18529.00
330.0680, 18261.00
331.2730, 18424.00
332.4780, 18120.00
333.6820, 18055.00
334.8860, 18058.00
336.0900, 17953.00
337.2940, 18145.00
338.4980, 18106.00
339.7010, 18210.00
340.9050, 18216.00
342.1080, 18269.00
343.3110, 18383.00
344.5140, 18349.00
345.7170, 18634.00
346.9200, 18790.00
348.1220, 18752.00
349.3240, 19080.00
350.5270, 19489.00
351.7290, 19749.00
352.9310, 20053.00
354.1320, 20432.00
355.3340, 20799.00
356.5350, 20998.00
357.7370, 21387.00
358.9380, 21568.00
360.1390, 21741.02
361.3400, 21942.00
362.5400, 21979.00
363.7410, 21862.00
364.9410, 21904.00
366.1410, 21895.00
367.3410, 21615.00
368.5410, 21672.00
369.7410, 21393.00
370.9400, 21307.00
372.1400, 21199.00
373.3390, 21081.00
374.5380, 20764.00
375.7370, 20540.00
376.9360, 20423.00
378.1350, 20221.41
379.3330, 20103.96
380.5310, 19949.00
381.7300, 19853.00
382.9280, 19685.00
384.1260, 19502.00
385.3230, 19177.00
386.5210, 19025.00
387.7180, 18813.00
388.9160, 18633.00
390.1130, 18493.00
391.3100, 18243.00
392.5060, 18081.00
393.7030, 17940.00
394.9000, 17787.00
396.0960, 17413.00
397.2920, 17447.00
398.4880, 17279.00
399.6840, 17039.00
400.8800, 17039.00
402.0750, 16911.00
403.2710, 16959.00
404.4660, 16871.00
405.6610, 16711.00
406.8560, 16453.00
408.0510, 16549.00
409.2450, 16437.00
410.4400, 16440.00
411.6340, 16474.00
412.8280, 16148.00
414.0220, 16206.00
415.2160, 16190.00
416.4100, 16137.00
417.6030, 16334.00
418.7970, 16125.00
419.9900, 16270.00
421.1830, 16361.00
422.3760, 16419.00
423.5690, 16646.00
424.7610, 16609.00
425.9540, 16735.00
427.1460, 16728.00
428.3380, 16751.00
429.5300, 16864.00
430.7220, 16857.00
431.9140, 16973.00
433.1050, 16941.00
434.2970, 16865.00
435.4880, 17006.00
436.6790, 16899.00
437.8700, 16796.00
439.0610, 16826.00
440.2510, 16629.00
441.4420, 16802.00
442.6320, 16624.00
443.8220, 16597.00
445.0120, 16547.00
446.2020, 16621.00
447.3910, 16591.00
448.5810, 16554.00
449.7700, 16570.00
450.9600, 16455.00
452.1490, 16337.00
453.3370, 16492.00
454.5260, 16334.00
455.7150, 16351.00
456.9030, 16149.00
458.0910, 16221.00
459.2800, 16012.00
460.4670, 16089.00
461.6550, 16031.00
462.8430, 15955.00
464.0300, 15907.00
465.2180, 16005.00
466.4050, 15757.00
467.5920, 15775.00
468.7790, 15710.00
469.9650, 15833.00
471.1520, 15631.00
472.3380, 15584.00
473.5250, 15595.00
474.7110, 15592.00
475.8970, 15431.00
477.0820, 15550.00
478.2680, 15376.00
479.4540, 15252.00
480.6390, 15342.00
481.8240, 15283.00
483.0090, 15403.00
484.1940, 15263.00
485.3780, 15586.00
486.5630, 15532.00
487.7470, 15458.00
488.9320, 15549.00
490.1160, 15611.00
491.3000, 15755.00
492.4830, 15819.00
493.6670, 15874.00
494.8500, 16028.00
496.0340, 16126.00
497.2170, 16134.00
498.4000, 16242.00
499.5820, 16384.00
500.7650, 16471.00
501.9480, 16498.00
503.1300, 16728.00
504.3120, 16683.00
505.4940, 17036.00
506.6760, 17000.00
507.8580, 16992.00
509.0390, 17243.00
510.2210, 17250.00
511.4020, 17552.00
512.5830, 17517.00
513.7640, 17677.00
514.9450, 17775.00
516.1250, 18070.00
517.3060, 18135.00
518.4860, 18267.00
519.6660, 18493.00
520.8460, 18553.00
522.0260, 18905.00
523.2060, 18960.00
524.3850, 19339.00
525.5650, 19435.00
526.7440, 19664.00
527.9230, 19868.00
529.1020, 20127.00
530.2810, 20201.00
531.4590, 20038.00
532.6380, 20148.00
533.8160, 20060.00
534.9940, 20115.00
536.1720, 19728.00
537.3500, 19852.00
538.5270, 19630.00
539.7050, 19533.00
540.8820, 19358.00
542.0590, 19216.00
543.2360, 18798.00
544.4130, 18800.00
545.5900, 18848.00
546.7660, 18660.00
547.9430, 18783.00
549.1190, 18631.98
550.2950, 18479.68
551.4710, 18386.00
552.6470, 18217.00
553.8220, 18033.00
554.9980, 18131.00
556.1730, 17848.00
557.3480, 17753.00
558.5230, 17655.00
559.6980, 17832.00
560.8730, 17688.00
562.0470, 17469.00
563.2220, 17226.00
564.3960, 17284.00
565.5700, 17179.00
566.7440, 17229.00
567.9170, 17197.00
569.0910, 17088.00
570.2640, 16958.00
571.4380, 16949.00
572.6110, 16749.00
573.7840, 16750.00
574.9570, 16594.28
576.1290, 16500.20
577.3020, 16329.00
578.4740, 16281.00
579.6460, 16185.00
580.8180, 16022.00
581.9900, 16033.00
583.1620, 15814.00
584.3330, 15692.00
585.5040, 15663.00
586.6760, 15548.00
587.8470, 15338.00
589.0180, 15181.00
590.1880, 15244.00
591.3590, 15165.00
592.5290, 15141.00
593.7000, 15045.00
594.8700, 15056.00
596.0400, 15072.00
597.2090, 15056.00
598.3790, 14988.00
599.5490, 14933.00
600.7180, 14976.88
601.8870, 15110.00
603.0560, 15130.00
604.2250, 15134.00
605.3940, 15340.00
606.5620, 15265.00
607.7300, 15394.00
608.8990, 15530.00
610.0670, 15538.00
611.2350, 15504.00
612.4020, 15650.00
613.5700, 15813.00
614.7370, 15892.00
615.9050, 16082.00
617.0720, 16268.00
618.2390, 16432.00
619.4060, 16494.00
620.5720, 16606.00
621.7390, 16728.00
622.9050, 16940.00
624.0710, 17153.00
625.2370, 17327.00
626.4030, 17548.21
627.5690, 17675.00
628.7340, 17932.00
629.9000, 18185.00
631.0650, 18311.00
632.2300, 18806.00
633.3950, 18887.00
634.5600, 19272.00
635.7240, 19511.00
636.8890, 19589.00
638.0530, 19986.00
639.2170, 20079.38
640.3810, 20476.90
641.5450, 20877.20
642.7080, 21282.09
643.8720, 21578.83
645.0350, 22113.22
646.1980, 22612.08
647.3610, 23150.45
648.5240, 23840.47
649.6870, 24372.45
650.8490, 25145.57
652.0120, 25882.55
653.1740, 26697.90
654.3360, 27477.14
655.4980, 28323.34
656.6600, 29219.00
657.8210, 30535.00
658.9830, 31854.00
660.1440, 33519.00
661.3050, 34950.00
662.4660, 36535.00
663.6270, 37947.00
664.7870, 38964.00
665.9480, 40311.00
667.1080, 41020.00
668.2680, 41004.00
669.4280, 41099.74
670.5880, 40399.00
671.7480, 39812.00
672.9070, 38262.00
674.0670, 36751.00
675.2260, 35206.00
676.3850, 33430.00
677.5440, 32067.00
678.7030, 30586.00
679.8610, 28982.00
681.0200, 27799.00
682.1780, 26622.00
683.3360, 25744.00
684.4940, 24777.00
685.6520, 24272.00
686.8090, 23308.00
687.9670, 22730.00
689.1240, 21975.00
690.2810, 21385.00
691.4380, 20933.00
692.5950, 20395.00
693.7520, 19810.00
694.9080, 19489.00
696.0650, 19146.00
697.2210, 18910.00
698.3770, 18497.00
699.5330, 18172.00
700.6880, 18089.00
701.8440, 17737.00
702.9990, 17664.00
704.1550, 17661.00
705.3100, 17477.00
706.4650, 17533.00
707.6190, 17516.00
708.7740, 17567.00
709.9290, 17391.00
711.0830, 17458.00
712.2370, 17217.00
713.3910, 17314.00
714.5450, 17450.00
715.6980, 17415.00
716.8520, 17315.00
718.0050, 17393.00
719.1580, 17537.00
720.3110, 17511.00
721.4640, 17288.00
722.6170, 17305.00
723.7700, 17534.00
724.9220, 17336.22
726.0740, 17551.00
727.2260, 17237.00
728.3780, 17351.00
729.5300, 17389.00
730.6810, 17269.00
731.8330, 17113.00
732.9840, 17105.00
734.1350, 17029.00
735.2860, 16915.00
736.4370, 16992.00
737.5880, 16688.00
738.7380, 16738.00
739.8880, 16770.00
741.0390, 16502.00
742.1890, 16635.00
743.3380, 16629.00
744.4880, 16253.00
745.6380, 16323.00
746.7870, 16388.00
747.9360, 16217.00
749.0850, 16043.00
750.2340, 16086.00
751.3830, 16049.00
752.5310, 15950.00
753.6800, 15998.00
754.8280, 15892.00
755.9760, 15845.00
757.1240, 15835.00
758.2720, 15658.00
759.4190, 15815.00
760.5670, 15681.00
761.7140, 15808.00
762.8610, 15872.00
764.0080, 15907.00
765.1550, 16025.00
766.3020, 16012.00
767.4480, 16029.98
768.5950, 16041.00
769.7410, 16034.00
770.8870, 16073.84
772.0330, 16058.00
773.1780, 16166.00
774.3240, 16193.00
775.4690, 16288.00
776.6140, 16305.00
777.7590, 16324.00
778.9040, 16335.02
780.0490, 16483.00
781.1940, 16358.00
782.3380, 16475.00
783.4820, 16611.00
784.6260, 16640.00
785.7700, 16552.00
786.9140, 16543.00
788.0580, 16569.00
789.2010, 16542.00
790.3450, 16711.00
791.4880, 16723.77
792.6310, 16737.00
793.7730, 16768.00
794.9160, 16750.91
796.0590, 16780.00
797.2010, 16800.03
798.3430, 16853.00
799.4850, 16842.00
800.6270, 16840.00
801.7690, 16838.00
802.9100, 16997.00
804.0520, 17068.00
805.1930, 16962.00
806.3340, 17075.00
807.4750, 16919.00
808.6160, 17161.00
809.7560, 17001.00
810.8970, 17202.00
812.0370, 17149.00
813.1770, 17064.00
814.3170, 17048.00
815.4570, 17095.00
816.5960, 16995.75
817.7360, 16911.00
818.8750, 17119.00
820.0140, 17028.00
821.1530, 16971.57
822.2920, 16755.00
823.4310, 16734.00
824.5690, 16662.00
825.7070, 16478.00
826.8460, 16429.00
827.9840, 16318.00
829.1220, 16277.00
830.2590, 16209.00
831.3970, 16217.00
832.5340, 16174.00
833.6710, 15990.00
834.8080, 16171.00
835.9450, 15988.00
837.0820, 15898.00
838.2190, 15978.00
839.3550, 15859.00
840.4910, 15834.00
841.6270, 15899.00
842.7630, 15780.00
843.8990, 15713.00
845.0350, 16015.00
846.1700, 15873.00
847.3060, 15930.00
848.4410, 16018.00
849.5760, 15936.00
850.7100, 16007.00
851.8450, 16245.00
852.9800, 16175.00
854.1140, 16246.00
855.2480, 16251.00
856.3820, 16259.00
857.5160, 16433.00
858.6500, 16398.00
859.7830, 16374.00
860.9170, 16572.00
862.0500, 16702.00
863.1830, 16615.00
864.3160, 16881.00
865.4480, 16819.00
866.5810, 17029.00
867.7130, 16941.00
868.8460, 17016.00
869.9780, 17310.00
871.1100, 17216.00
872.2410, 17498.00
873.3730, 17293.00
874.5050, 17307.00
875.6360, 17567.00
876.7670, 17637.00
877.8980, 17633.00
879.0290, 17632.00
880.1590, 17781.00
881.2900, 17832.00
882.4200, 17963.00
883.5500, 17895.00
884.6800, 18055.00
885.8100, 18157.00
886.9400, 18057.00
888.0690, 18261.00
889.1990, 18312.00
890.3280, 18341.00
891.4570, 18330.00
892.5860, 18648.00
893.7140, 18670.00
894.8430, 18876.00
895.9710, 18906.00
897.1000, 19173.00
898.2280, 19208.00
899.3560, 19146.00
900.4830, 19446.00
901.6110, 19573.00
902.7380, 19707.00
903.8660, 19754.00
904.9930, 19852.17
906.1200, 19940.00
907.2460, 19975.00
908.3730, 20053.49
909.5000, 20106.00
910.6260, 20267.00
911.7520, 20179.00
912.8780, 20415.00
914.0040, 20487.00
915.1290, 20414.00
916.2550, 20676.00
917.3800, 20682.00
918.5050, 20604.00
919.6300, 20633.00
920.7550, 20900.00
921.8800, 20710.00
923.0040, 20829.00
924.1290, 20822.00
925.2530, 20677.00
926.3770, 20583.00
927.5010, 20557.00
928.6250, 20417.00
929.7480, 20411.00
930.8720, 20227.00
931.9950, 20177.00
933.1180, 20175.00
934.2410, 19816.00
935.3640, 19718.00
936.4860, 19622.00
937.6090, 19618.00
938.7310, 19404.00
939.8530, 19480.00
940.9750, 19234.00
942.0970, 19139.00
943.2180, 19196.00
944.3400, 19017.00
945.4610, 18968.00
946.5820, 19073.00
947.7030, 18989.00
948.8240, 19060.00
949.9450, 18868.00
951.0650, 18744.00
952.1860, 18694.00
953.3060, 18584.00
954.4260, 18531.91
955.5460, 18480.43
956.6650, 18449.00
957.7850, 18415.00
958.9040, 18411.00
960.0230, 18424.00
961.1420, 18403.00
962.2610, 18286.00
963.3800, 18214.40
964.4990, 18255.00
965.6170, 18025.00
966.7350, 18120.00
967.8530, 18173.00
968.9710, 18012.00
970.0890, 17923.00
971.2070, 18160.00
972.3240, 18160.00
973.4410, 18045.00
974.5580, 18121.00
975.6750, 18141.00
976.7920, 18172.00
977.9090, 18308.00
979.0250, 18311.60
980.1410, 18359.55
981.2580, 18385.00
982.3740, 18414.00
983.4890, 18424.00
984.6050, 18469.00
985.7200, 18583.00
986.8360, 18607.00
987.9510, 18586.00
989.0660, 18834.00
990.1810, 18827.00
991.2950, 18753.00
992.4100, 19036.00
993.5240, 19008.00
994.6390, 19103.37
995.7530, 19319.79
996.8660, 19496.09
997.9800, 19634.64
999.0940, 19621.96
1000.207, 19804.45
1001.320, 19908.68
1002.433, 20009.70
1003.546, 20296.00
1004.659, 20400.00
1005.772, 20630.00
1006.884, 20639.00
1007.996, 20686.00
1009.108, 20893.00
1010.220, 20864.00
1011.332, 21045.00
1012.444, 21209.00
1013.555, 21286.00
1014.666, 21562.00
1015.777, 21564.00
1016.888, 21530.00
1017.999, 21439.00
1019.110, 21718.00
1020.220, 21678.00
1021.331, 21849.00
1022.441, 21851.00
1023.551, 21827.00
1024.661, 21966.00
1025.770, 21836.00
1026.880, 21901.00
1027.989, 22000.00
1029.098, 21986.00
1030.207, 22075.23
1031.316, 21944.00
1032.425, 22108.00
1033.533, 22033.00
1034.642, 21862.00
1035.750, 22008.00
1036.858, 21944.00
1037.966, 21800.00
1039.073, 21938.00
1040.181, 21875.00
1041.288, 21899.00
1042.396, 21947.00
1043.503, 21871.00
1044.610, 21911.00
1045.716, 21913.00
1046.823, 21924.00
1047.929, 21786.00
1049.036, 21750.38
1050.142, 21758.00
1051.248, 21629.00
1052.353, 21577.00
1053.459, 21661.00
1054.564, 21528.00
1055.670, 21417.00
1056.775, 21286.00
1057.880, 21223.00
1058.985, 21081.19
1060.089, 21011.00
1061.194, 20915.00
1062.298, 20862.00
1063.402, 20963.00
1064.506, 20691.00
1065.610, 20514.00
1066.713, 20125.00
1067.817, 19998.00
1068.920, 19849.00
1070.023, 19593.00
1071.126, 19531.00
1072.229, 19400.00
1073.332, 19392.00
1074.435, 19037.00
1075.537, 18861.00
1076.639, 18959.00
1077.741, 18799.00
1078.843, 18386.00
1079.945, 18598.00
1081.046, 18202.00
1082.148, 18155.00
1083.249, 17950.00
1084.350, 17921.00
1085.451, 17923.00
1086.551, 17780.00
1087.652, 17865.00
1088.752, 17551.00
1089.853, 17484.00
1090.953, 17454.00
1092.053, 17396.00
1093.152, 17329.00
1094.252, 17131.00
1095.351, 17276.00
1096.451, 17290.00
1097.550, 16907.00
1098.649, 16995.00
1099.748, 16801.00
1100.846, 16742.00
1101.945, 16939.00
1103.043, 16674.00
1104.141, 16554.00
1105.239, 16710.00
1106.337, 16412.00
1107.434, 16319.00
1108.532, 16352.00
1109.629, 16328.80
1110.726, 16349.05
1111.823, 16329.27
1112.920, 16271.64
1114.017, 16062.78
1115.113, 16049.27
1116.210, 15957.44
1117.306, 15862.45
1118.402, 15876.43
1119.498, 15689.62
1120.593, 15701.94
1121.689, 15634.74
1122.784, 15603.96
1123.879, 15654.00
1124.974, 15685.00
1126.069, 15378.00
1127.164, 15496.00
1128.259, 15423.00
1129.353, 15364.00
1130.447, 15409.00
1131.541, 15218.00
1132.635, 15244.00
1133.729, 15089.00
1134.822, 15033.00
1135.916, 15028.00
1137.009, 15021.00
1138.102, 15125.00
1139.195, 15019.00
1140.288, 14962.00
1141.380, 15061.00
1142.473, 14943.00
1143.565, 15125.00
1144.657, 15034.00
1145.749, 14959.00
1146.841, 14995.00
1147.932, 14833.00
1149.024, 14935.00
1150.115, 14783.00
1151.206, 14807.14
1152.297, 14887.73
1153.388, 14928.31
1154.479, 14931.04
1155.569, 14782.53
1156.659, 14829.31
1157.750, 14797.83
1158.839, 14763.15
1159.929, 14837.43
1161.019, 14710.92
1162.108, 14783.48
1163.198, 14776.57
1164.287, 14806.03
1165.376, 14756.75
1166.465, 14778.05
1167.553, 14681.12
1168.642, 14729.99
1169.730, 14741.00
1170.818, 14600.77
1171.906, 14655.83
1172.994, 14632.63
1174.082, 14606.22
1175.170, 14688.77
1176.257, 14570.54
1177.344, 14651.37
1178.431, 14652.74
1179.518, 14690.47
1180.605, 14595.00
1181.691, 14702.00
1182.778, 14627.85
1183.864, 14657.00
1184.950, 14601.00
1186.036, 14592.00
1187.122, 14654.00
1188.207, 14489.00
1189.292, 14535.00
1190.378, 14690.00
1191.463, 14499.00
1192.548, 14474.00
1193.632, 14448.00
1194.717, 14627.00
1195.801, 14634.00
1196.886, 14608.00
1197.970, 14546.00
1199.054, 14445.00
1200.137, 14596.00
1201.221, 14492.67
1202.305, 14608.00
1203.388, 14547.00
1204.471, 14493.00
1205.554, 14734.00
1206.637, 14491.00
1207.719, 14563.00
1208.802, 14643.00
1209.884, 14529.00
1210.966, 14708.00
1212.048, 14578.00
1213.130, 14722.00
1214.212, 14542.00
1215.293, 14601.65
1216.374, 14621.00
1217.456, 14631.00
1218.536, 14520.00
1219.617, 14499.00
1220.698, 14664.00
1221.778, 14735.00
1222.859, 14553.00
1223.939, 14464.00
1225.019, 14630.00
1226.099, 14573.00
1227.178, 14579.00
1228.258, 14613.00
1229.337, 14479.00
1230.417, 14613.00
1231.496, 14557.00
1232.574, 14537.00
1233.653, 14488.00
1234.732, 14621.00
1235.810, 14577.00
1236.888, 14684.00
1237.966, 14608.00
1239.044, 14512.00
1240.122, 14560.00
1241.199, 14583.00
1242.277, 14665.00
1243.354, 14603.00
1244.431, 14545.00
1245.508, 14620.00
1246.585, 14578.00
1247.661, 14663.00
1248.738, 14530.00
1249.814, 14615.67
1250.890, 14578.36
1251.966, 14621.67
1253.042, 14710.66
1254.117, 14759.64
1255.193, 14770.77
1256.268, 14630.65
1257.343, 14685.83
1258.418, 14662.75
1259.493, 14636.46
1260.567, 14719.13
1261.642, 14601.01
1262.716, 14681.96
1263.790, 14683.44
1264.864, 14721.29
1265.938, 14680.39
1267.011, 14663.81
1268.085, 14726.01
1269.158, 14744.60
1270.231, 14694.63
1271.304, 14734.80
1272.377, 14613.93
1273.450, 14634.37
1274.522, 14715.78
1275.594, 14669.78
1276.666, 14467.00
1277.738, 14573.00
1278.810, 14494.00
1279.882, 14619.00
1280.953, 14630.00
1282.025, 14574.00
1283.096, 14484.00
1284.167, 14420.00
1285.238, 14436.62
1286.308, 14585.00
1287.379, 14526.00
1288.449, 14514.00
1289.519, 14625.00
1290.589, 14501.00
1291.659, 14747.00
1292.729, 14638.00
1293.798, 14648.00
1294.868, 14635.00
1295.937, 14567.00
1297.006, 14660.00
1298.075, 14569.00
1299.143, 14628.00
1300.212, 14638.00
1301.280, 14722.00
1302.348, 14737.00
1303.416, 14711.09
1304.484, 14581.00
1305.552, 14599.00
1306.620, 14651.00
1307.687, 14537.00
1308.754, 14660.00
1309.821, 14655.00
1310.888, 14698.00
1311.955, 14563.00
1313.021, 14643.00
1314.088, 14578.13
1315.154, 14543.98
1316.220, 14558.00
1317.286, 14487.00
1318.352, 14584.00
1319.417, 14575.00
1320.483, 14686.00
1321.548, 14856.00
1322.613, 14734.00
1323.678, 14525.00
1324.743, 14565.00
1325.807, 14664.00
1326.872, 14506.00
1327.936, 14707.00
1329.000, 14729.00
1330.064, 14594.00
1331.128, 14569.00
1332.191, 14540.00
1333.255, 14510.66
1334.318, 14530.10
1335.381, 14527.00
1336.444, 14610.00
1337.507, 14637.00
1338.569, 14745.00
1339.632, 14428.00
1340.694, 14586.00
1341.756, 14547.00
1342.818, 14663.00
1343.880, 14589.00
1344.941, 14634.00
1346.003, 14659.44
1347.064, 14793.00
1348.125, 14678.00
1349.186, 14723.00
1350.247, 14694.00
1351.308, 14547.00
1352.368, 14678.00
1353.428, 14484.00
1354.489, 14547.00
1355.549, 14658.00
1356.608, 14691.00
1357.668, 14704.27
1358.727, 14797.00
1359.787, 14690.00
1360.846, 14672.00
1361.905, 14685.00
1362.964, 14656.00
1364.022, 14524.00
1365.081, 14440.00
1366.139, 14603.00
1367.197, 14706.00
1368.255, 14439.00
1369.313, 14670.00
1370.371, 14601.00
1371.428, 14580.00
1372.486, 14698.00
1373.543, 14553.00
1374.600, 14663.00
1375.657, 14611.00
1376.713, 14646.00
1377.770, 14662.00
1378.826, 14644.00
1379.882, 14850.00
1380.938, 14624.00
1381.994, 14430.00
1383.050, 14580.00
1384.106, 14656.00
1385.161, 14519.00
1386.216, 14569.86
1387.271, 14577.75
1388.326, 14510.00
1389.381, 14610.00
1390.435, 14704.00
1391.490, 14689.00
1392.544, 14493.00
1393.598, 14456.00
1394.652, 14515.37
1395.705, 14632.00
1396.759, 14685.00
1397.812, 14636.00
1398.866, 14686.00
1399.919, 14603.00
1400.972, 14668.00
1402.024, 14704.00
1403.077, 14710.00
1404.129, 14657.00
1405.181, 14596.00
1406.233, 14674.00
1407.285, 14752.00
1408.337, 14683.00
1409.389, 14775.90
1410.440, 14567.00
1411.491, 14813.00
1412.542, 14699.00
1413.593, 14611.00
1414.644, 14669.00
1415.695, 14733.00
1416.745, 14612.00
1417.795, 14649.00
1418.845, 14651.00
1419.895, 14533.00
1420.945, 14642.00
1421.995, 14718.00
1423.044, 14721.00
1424.093, 14708.00
1425.142, 14810.00
1426.191, 14588.00
1427.240, 14517.00
1428.289, 14763.00
1429.337, 14633.00
1430.385, 14720.00
1431.433, 14788.00
1432.481, 14670.00
1433.529, 14738.00
1434.577, 14693.00
1435.624, 14715.00
1436.672, 14761.00
1437.719, 14787.00
1438.766, 14800.00
1439.812, 14662.00
1440.859, 14738.00
1441.905, 14766.00
1442.952, 14624.00
1443.998, 14745.00
1445.044, 14819.00
1446.090, 14700.00
1447.135, 14726.00
1448.181, 14624.00
1449.226, 14654.00
1450.271, 14642.54
1451.316, 14726.00
1452.361, 14605.00
1453.405, 14726.00
1454.450, 14610.00
1455.494, 14768.00
1456.538, 14802.00
1457.582, 14733.00
1458.626, 14796.00
1459.670, 14688.00
1460.713, 14684.00
1461.757, 14645.00
1462.800, 14695.00
1463.843, 14698.00
1464.886, 14788.00
1465.928, 14771.00
1466.971, 14806.00
1468.013, 14700.00
1469.055, 14730.00
1470.097, 14658.00
1471.139, 14713.00
1472.181, 14750.00
1473.222, 14828.00
1474.263, 14629.00
1475.305, 14599.00
1476.346, 14842.00
1477.386, 14685.00
1478.427, 14752.00
1479.468, 14873.00
1480.508, 14742.00
1481.548, 14866.00
1482.588, 14805.00
1483.628, 14765.00
1484.668, 14783.00
1485.707, 14928.00
1486.747, 14692.00
1487.786, 14697.00
1488.825, 14795.00
1489.864, 14614.00
1490.902, 14921.00
1491.941, 14755.00
1492.979, 14857.00
1494.017, 14731.00
1495.055, 14778.00
1496.093, 14713.00
1497.131, 14695.00
1498.168, 14761.00
1499.206, 14692.56
1500.243, 14806.00
1501.280, 14691.00
1502.317, 14769.00
1503.354, 14894.00
1504.390, 14950.00
1505.426, 14706.00
1506.463, 14985.00
1507.499, 14839.00
1508.535, 14776.00
1509.570, 14913.00
1510.606, 14836.00
1511.641, 14679.00
1512.676, 14830.00
1513.711, 14803.00
1514.746, 14811.00
1515.781, 14781.00
1516.816, 14927.00
1517.850, 14885.00
1518.884, 14820.00
1519.918, 14893.00
1520.952, 14728.00
1521.986, 14819.00
1523.019, 14872.00
1524.053, 14814.00
1525.086, 14866.00
1526.119, 14752.56
1527.152, 14848.42
1528.185, 14904.27
1529.217, 14922.26
1530.250, 14789.00
1531.282, 14851.05
1532.314, 14834.82
1533.346, 14815.39
1534.377, 14904.92
1535.409, 14793.66
1536.440, 14881.46
1537.472, 14889.80
1538.503, 14934.50
1539.534, 14900.46
1540.564, 14890.73
1541.595, 14959.78
1542.625, 14985.21
1543.656, 14942.10
1544.686, 14989.12
1545.716, 14875.10
1546.745, 14902.38
1547.775, 14990.64
1548.804, 14951.48
1549.834, 14999.93
1550.863, 15015.01
1551.892, 14878.46
1552.920, 15005.61
1553.949, 15018.72
1554.977, 14914.72
1556.006, 15032.84
1557.034, 14944.99
1558.062, 14930.66
1559.089, 14971.65
1560.117, 14954.96
1561.144, 15029.21
1562.172, 15015.86
1563.199, 14994.67
1564.226, 15007.64
1565.252, 14989.11
1566.279, 15019.57
1567.305, 14992.66
1568.332, 15026.72
1569.358, 15074.59
1570.384, 15016.65
1571.409, 15145.00
##END=



