##NAMES=Edenite
##RRUFFID=R060029
##IDEAL CHEMISTRY=NaCa_2_Mg_5_(Si_7_Al)O_22_(OH)_2_
##LOCALITY=Renfrew County, Ontario, Canada
##OWNER=RRUFF
##SOURCE=University of Arizona Mineral Museum
##DESCRIPTION=Black prismatic
##STATUS=The identification of this mineral has been confirmed by X-ray diffraction and chemical analysis
##URL=rruff.info/R060029
##MEASURED CHEMISTRY=(Na_0.62_K_0.34_[box]_0.04_)(Ca_0.86_Na_0.14_)_2_(Mg_0.57_Fe^2+^_0.30_Fe^3+^_0.07_Al_0.05_Ti_0.01_Mn_0.01_)_5_(Si_6.61_Al_1.39_)O_22_((OH)_0.69_F_0.31_)_2_
##PIN_ID=L01054
##ORIENTATION=Laser parallel to -a* (-1 0 0). Fiducial mark perpendicular to laser is parallel to b [0 1 0]
192.9560, 13227.00
194.1780, 13220.33
195.4000, 13244.06
196.6220, 13244.78
197.8430, 13223.76
199.0640, 13115.75
200.2860, 13120.03
201.5070, 13079.33
202.7270, 13036.81
203.9480, 13056.93
205.1690, 12961.57
206.3890, 12980.71
207.6090, 12954.16
208.8290, 12948.53
210.0490, 12897.60
211.2690, 12860.66
212.4890, 12946.00
213.7080, 13222.00
214.9280, 13331.00
216.1470, 13356.00
217.3660, 13353.00
218.5850, 13526.00
219.8030, 13846.00
221.0220, 13895.00
222.2400, 14064.00
223.4590, 14074.00
224.6770, 14209.00
225.8950, 14289.00
227.1120, 14346.00
228.3300, 14326.00
229.5480, 14314.22
230.7650, 14152.00
231.9820, 14151.00
233.1990, 13971.00
234.4160, 13772.00
235.6330, 13666.00
236.8490, 13449.00
238.0660, 13269.00
239.2820, 13301.00
240.4980, 13087.00
241.7140, 12989.00
242.9300, 12941.00
244.1460, 12793.48
245.3610, 12718.00
246.5770, 12572.00
247.7920, 12514.00
249.0070, 12346.00
250.2220, 12345.00
251.4370, 12290.00
252.6510, 12429.00
253.8660, 12161.22
255.0800, 12199.00
256.2940, 12213.78
257.5080, 12206.78
258.7220, 12112.80
259.9360, 12131.14
261.1490, 12104.48
262.3630, 12075.96
263.5760, 12110.13
264.7890, 12028.81
266.0020, 12101.00
267.2150, 12071.00
268.4270, 12131.00
269.6400, 12161.00
270.8520, 12069.00
272.0640, 12140.00
273.2760, 12066.00
274.4880, 12123.00
275.7000, 12402.00
276.9120, 12310.96
278.1230, 12460.00
279.3340, 12398.00
280.5450, 12376.00
281.7560, 12534.00
282.9670, 12414.00
284.1780, 12703.00
285.3880, 12545.00
286.5980, 12527.00
287.8090, 12509.00
289.0190, 12651.00
290.2290, 12683.00
291.4380, 12683.00
292.6480, 12733.00
293.8570, 12716.00
295.0670, 12869.00
296.2760, 12700.00
297.4850, 12603.00
298.6930, 12700.00
299.9020, 12664.00
301.1110, 12684.00
302.3190, 12591.00
303.5270, 12574.00
304.7350, 12790.00
305.9430, 12502.00
307.1510, 12706.00
308.3580, 12645.00
309.5660, 12546.00
310.7730, 12502.00
311.9800, 12451.00
313.1870, 12462.00
314.3940, 12543.00
315.6010, 12435.00
316.8070, 12460.00
318.0130, 12309.00
319.2200, 12386.00
320.4260, 12443.00
321.6310, 12393.00
322.8370, 12271.00
324.0430, 12405.00
325.2480, 12374.00
326.4540, 12494.00
327.6590, 12499.00
328.8640, 12452.00
330.0680, 12317.00
331.2730, 12293.00
332.4780, 12438.00
333.6820, 12444.00
334.8860, 12473.00
336.0900, 12513.00
337.2940, 12493.00
338.4980, 12438.00
339.7010, 12422.00
340.9050, 12447.00
342.1080, 12450.00
343.3110, 12448.11
344.5140, 12493.00
345.7170, 12510.83
346.9200, 12561.00
348.1220, 12582.00
349.3240, 12621.00
350.5270, 12655.00
351.7290, 12763.00
352.9310, 12647.00
354.1320, 12831.00
355.3340, 12947.00
356.5350, 12973.00
357.7370, 12765.00
358.9380, 12724.00
360.1390, 12838.00
361.3400, 12840.00
362.5400, 12901.00
363.7410, 12897.00
364.9410, 12939.00
366.1410, 13037.00
367.3410, 12947.00
368.5410, 12955.00
369.7410, 12937.00
370.9400, 13067.00
372.1400, 12976.00
373.3390, 13139.00
374.5380, 13053.00
375.7370, 13120.00
376.9360, 12990.00
378.1350, 13072.00
379.3330, 13117.00
380.5310, 13111.00
381.7300, 12847.00
382.9280, 12943.00
384.1260, 12765.00
385.3230, 12780.00
386.5210, 12726.00
387.7180, 12599.00
388.9160, 12679.00
390.1130, 12595.00
391.3100, 12544.00
392.5060, 12491.00
393.7030, 12525.00
394.9000, 12437.00
396.0960, 12555.00
397.2920, 12392.00
398.4880, 12457.00
399.6840, 12370.00
400.8800, 12436.00
402.0750, 12454.00
403.2710, 12378.00
404.4660, 12440.00
405.6610, 12522.00
406.8560, 12500.00
408.0510, 12376.00
409.2450, 12396.00
410.4400, 12335.00
411.6340, 12377.44
412.8280, 12492.00
414.0220, 12594.00
415.2160, 12706.00
416.4100, 12761.77
417.6030, 12792.00
418.7970, 12808.00
419.9900, 12983.00
421.1830, 12904.00
422.3760, 13108.00
423.5690, 13137.00
424.7610, 13156.00
425.9540, 13250.00
427.1460, 13210.00
428.3380, 13360.00
429.5300, 13190.00
430.7220, 13329.00
431.9140, 13191.00
433.1050, 13231.00
434.2970, 13206.00
435.4880, 13073.00
436.6790, 13004.00
437.8700, 12899.00
439.0610, 12847.89
440.2510, 12871.00
441.4420, 12750.00
442.6320, 12824.00
443.8220, 12750.00
445.0120, 12729.00
446.2020, 12820.00
447.3910, 12650.00
448.5810, 12628.00
449.7700, 12620.00
450.9600, 12620.00
452.1490, 12514.00
453.3370, 12628.00
454.5260, 12420.00
455.7150, 12470.00
456.9030, 12523.00
458.0910, 12388.00
459.2800, 12474.00
460.4670, 12432.00
461.6550, 12279.00
462.8430, 12167.00
464.0300, 12285.00
465.2180, 12367.00
466.4050, 12312.00
467.5920, 12045.00
468.7790, 12281.00
469.9650, 12245.00
471.1520, 12124.00
472.3380, 12232.00
473.5250, 12198.00
474.7110, 12158.00
475.8970, 12192.00
477.0820, 12219.00
478.2680, 12852.00
479.4540, 12667.08
480.6390, 12719.03
481.8240, 12639.00
483.0090, 12575.00
484.1940, 12451.00
485.3780, 12594.00
486.5630, 12720.00
487.7470, 12681.00
488.9320, 12689.00
490.1160, 12822.00
491.3000, 12797.00
492.4830, 13141.00
493.6670, 13175.00
494.8500, 13281.00
496.0340, 13364.00
497.2170, 13454.00
498.4000, 13593.00
499.5820, 13592.00
500.7650, 13716.00
501.9480, 13796.00
503.1300, 13941.00
504.3120, 14035.00
505.4940, 14076.00
506.6760, 14081.00
507.8580, 14162.00
509.0390, 14175.15
510.2210, 14281.00
511.4020, 14252.00
512.5830, 14363.00
513.7640, 14443.00
514.9450, 14435.00
516.1250, 14562.00
517.3060, 14523.00
518.4860, 14611.00
519.6660, 14764.00
520.8460, 14727.00
522.0260, 15039.00
523.2060, 15029.00
524.3850, 15044.00
525.5650, 15128.00
526.7440, 15135.00
527.9230, 15189.68
529.1020, 15130.00
530.2810, 15245.00
531.4590, 15298.00
532.6380, 15250.00
533.8160, 15184.00
534.9940, 15238.00
536.1720, 15191.00
537.3500, 15204.60
538.5270, 15207.79
539.7050, 15223.00
540.8820, 15199.00
542.0590, 15197.00
543.2360, 15181.00
544.4130, 15141.95
545.5900, 15122.59
546.7660, 15062.00
547.9430, 15069.00
549.1190, 15040.00
550.2950, 15040.00
551.4710, 14983.00
552.6470, 14958.78
553.8220, 14838.00
554.9980, 14864.00
556.1730, 14785.00
557.3480, 14697.00
558.5230, 14677.00
559.6980, 14755.00
560.8730, 14486.00
562.0470, 14550.00
563.2220, 14617.00
564.3960, 14347.00
565.5700, 14346.00
566.7440, 14330.00
567.9170, 14379.00
569.0910, 14298.00
570.2640, 14265.00
571.4380, 14103.00
572.6110, 13920.00
573.7840, 13706.00
574.9570, 13627.00
576.1290, 13417.00
577.3020, 13403.00
578.4740, 13108.00
579.6460, 13081.00
580.8180, 12844.00
581.9900, 12464.00
583.1620, 12540.00
584.3330, 12235.00
585.5040, 12150.00
586.6760, 12133.00
587.8470, 11880.00
589.0180, 11766.00
590.1880, 11787.00
591.3590, 11695.00
592.5290, 11626.00
593.7000, 11847.00
594.8700, 11702.00
596.0400, 11650.00
597.2090, 11678.00
598.3790, 11595.00
599.5490, 11748.00
600.7180, 11762.00
601.8870, 11697.00
603.0560, 11667.00
604.2250, 11718.00
605.3940, 11616.00
606.5620, 11632.00
607.7300, 11694.00
608.8990, 11587.00
610.0670, 11787.00
611.2350, 11730.00
612.4020, 11847.00
613.5700, 11565.00
614.7370, 11891.00
615.9050, 11922.00
617.0720, 11750.00
618.2390, 11888.00
619.4060, 11948.00
620.5720, 11989.00
621.7390, 12023.00
622.9050, 12040.00
624.0710, 12089.00
625.2370, 12066.00
626.4030, 12020.00
627.5690, 12263.00
628.7340, 12095.00
629.9000, 12298.00
631.0650, 12383.00
632.2300, 12328.00
633.3950, 12398.00
634.5600, 12387.00
635.7240, 12470.00
636.8890, 12484.00
638.0530, 12711.00
639.2170, 12768.00
640.3810, 12761.00
641.5450, 13050.00
642.7080, 13039.00
643.8720, 13125.00
645.0350, 13195.00
646.1980, 13482.00
647.3610, 13373.00
648.5240, 13397.00
649.6870, 13711.00
650.8490, 13613.00
652.0120, 14062.00
653.1740, 14172.00
654.3360, 14259.00
655.4980, 14622.00
656.6600, 14873.00
657.8210, 15140.00
658.9830, 15365.00
660.1440, 15542.00
661.3050, 15988.00
662.4660, 16256.00
663.6270, 16474.00
664.7870, 16593.00
665.9480, 16709.30
667.1080, 16767.59
668.2680, 16761.00
669.4280, 16730.00
670.5880, 16645.00
671.7480, 16466.00
672.9070, 16094.00
674.0670, 15832.00
675.2260, 15585.00
676.3850, 15300.00
677.5440, 15107.00
678.7030, 14786.00
679.8610, 14474.00
681.0200, 14261.00
682.1780, 14081.79
683.3360, 14078.00
684.4940, 13854.00
685.6520, 13813.00
686.8090, 13744.00
687.9670, 13476.00
689.1240, 13518.00
690.2810, 13464.00
691.4380, 13434.00
692.5950, 13394.00
693.7520, 13138.00
694.9080, 13140.00
696.0650, 13177.00
697.2210, 13242.00
698.3770, 13251.05
699.5330, 13303.39
700.6880, 13317.00
701.8440, 13401.00
702.9990, 13462.00
704.1550, 13553.00
705.3100, 13682.00
706.4650, 13782.00
707.6190, 13705.00
708.7740, 13839.00
709.9290, 13867.51
711.0830, 13868.00
712.2370, 13958.00
713.3910, 14114.00
714.5450, 14100.00
715.6980, 14268.00
716.8520, 14249.00
718.0050, 14295.00
719.1580, 14379.00
720.3110, 14313.00
721.4640, 14416.00
722.6170, 14579.00
723.7700, 14440.00
724.9220, 14579.00
726.0740, 14559.00
727.2260, 14539.00
728.3780, 14557.00
729.5300, 14491.00
730.6810, 14550.00
731.8330, 14668.00
732.9840, 14449.00
734.1350, 14337.00
735.2860, 14437.00
736.4370, 14413.00
737.5880, 14136.00
738.7380, 14060.00
739.8880, 14073.00
741.0390, 13973.00
742.1890, 13974.00
743.3380, 13774.00
744.4880, 13845.00
745.6380, 13698.00
746.7870, 13778.00
747.9360, 13672.00
749.0850, 13556.00
750.2340, 13500.00
751.3830, 13445.00
752.5310, 13338.00
753.6800, 13209.00
754.8280, 13268.00
755.9760, 13300.00
757.1240, 13245.00
758.2720, 13188.00
759.4190, 12989.00
760.5670, 12996.00
761.7140, 13010.00
762.8610, 13074.00
764.0080, 13044.00
765.1550, 13097.00
766.3020, 13161.00
767.4480, 13096.00
768.5950, 13155.00
769.7410, 13061.00
770.8870, 13094.00
772.0330, 13060.00
773.1780, 13134.00
774.3240, 13279.00
775.4690, 13166.00
776.6140, 13198.00
777.7590, 13191.00
778.9040, 13140.00
780.0490, 13105.00
781.1940, 13110.00
782.3380, 13159.00
783.4820, 13017.00
784.6260, 12960.00
785.7700, 13042.00
786.9140, 13114.00
788.0580, 12861.00
789.2010, 13082.00
790.3450, 13035.00
791.4880, 12912.00
792.6310, 12950.00
793.7730, 12840.00
794.9160, 12763.00
796.0590, 12699.00
797.2010, 12885.00
798.3430, 12714.00
799.4850, 12680.00
800.6270, 12622.00
801.7690, 12492.00
802.9100, 12555.00
804.0520, 12477.00
805.1930, 12509.00
806.3340, 12489.00
807.4750, 12434.00
808.6160, 12560.00
809.7560, 12410.00
810.8970, 12450.00
812.0370, 12252.00
813.1770, 12410.00
814.3170, 12424.00
815.4570, 12457.00
816.5960, 12341.00
817.7360, 12279.00
818.8750, 12323.00
820.0140, 12114.00
821.1530, 12171.00
822.2920, 12218.00
823.4310, 12228.00
824.5690, 12150.00
825.7070, 12326.00
826.8460, 12161.00
827.9840, 12086.00
829.1220, 12184.00
830.2590, 12124.00
831.3970, 12162.00
832.5340, 12138.00
833.6710, 12232.00
834.8080, 12207.00
835.9450, 12158.00
837.0820, 12005.00
838.2190, 12208.00
839.3550, 12077.00
840.4910, 12255.00
841.6270, 12186.00
842.7630, 12051.00
843.8990, 12102.00
845.0350, 12121.00
846.1700, 12145.00
847.3060, 12225.00
848.4410, 12217.00
849.5760, 12170.00
850.7100, 12375.00
851.8450, 12191.00
852.9800, 12283.00
854.1140, 12356.00
855.2480, 12234.00
856.3820, 12161.00
857.5160, 12283.00
858.6500, 12323.00
859.7830, 12286.00
860.9170, 12369.00
862.0500, 12237.00
863.1830, 12267.00
864.3160, 12345.00
865.4480, 12412.00
866.5810, 12434.00
867.7130, 12486.00
868.8460, 12592.00
869.9780, 12404.00
871.1100, 12569.00
872.2410, 12477.00
873.3730, 12499.00
874.5050, 12655.00
875.6360, 12565.84
876.7670, 12741.00
877.8980, 12473.00
879.0290, 12816.00
880.1590, 12668.00
881.2900, 12740.00
882.4200, 12666.00
883.5500, 12742.00
884.6800, 12910.00
885.8100, 12729.00
886.9400, 12834.00
888.0690, 12914.00
889.1990, 12815.00
890.3280, 12927.00
891.4570, 12827.00
892.5860, 12770.00
893.7140, 12900.00
894.8430, 13027.00
895.9710, 12900.00
897.1000, 12994.00
898.2280, 12999.00
899.3560, 12786.00
900.4830, 13056.00
901.6110, 12919.00
902.7380, 12917.00
903.8660, 13000.00
904.9930, 12997.00
906.1200, 13041.00
907.2460, 13077.00
908.3730, 13008.00
909.5000, 12946.00
910.6260, 12944.00
911.7520, 13043.00
912.8780, 13125.00
914.0040, 13192.00
915.1290, 13063.00
916.2550, 13011.00
917.3800, 13070.00
918.5050, 13084.00
919.6300, 13070.83
920.7550, 13125.00
921.8800, 13126.00
923.0040, 13206.00
924.1290, 13367.00
925.2530, 13113.00
926.3770, 13293.00
927.5010, 13066.00
928.6250, 13213.00
929.7480, 13221.00
930.8720, 13225.00
931.9950, 13180.00
933.1180, 13225.00
934.2410, 13244.00
935.3640, 13233.00
936.4860, 13320.00
937.6090, 13330.00
938.7310, 13216.00
939.8530, 13349.00
940.9750, 13276.00
942.0970, 13273.00
943.2180, 13249.00
944.3400, 13211.00
945.4610, 13258.00
946.5820, 13394.00
947.7030, 13334.00
948.8240, 13323.00
949.9450, 13460.00
951.0650, 13390.00
952.1860, 13287.00
953.3060, 13612.00
954.4260, 13361.00
955.5460, 13548.00
956.6650, 13453.00
957.7850, 13432.00
958.9040, 13426.00
960.0230, 13426.00
961.1420, 13474.00
962.2610, 13499.25
963.3800, 13538.00
964.4990, 13554.00
965.6170, 13470.00
966.7350, 13397.00
967.8530, 13559.00
968.9710, 13451.00
970.0890, 13475.00
971.2070, 13567.00
972.3240, 13470.00
973.4410, 13580.00
974.5580, 13528.00
975.6750, 13416.00
976.7920, 13637.00
977.9090, 13611.00
979.0250, 13389.00
980.1410, 13505.00
981.2580, 13646.00
982.3740, 13701.00
983.4890, 13736.00
984.6050, 13707.00
985.7200, 13669.00
986.8360, 13697.34
987.9510, 13710.17
989.0660, 13734.00
990.1810, 13816.00
991.2950, 13872.00
992.4100, 13978.00
993.5240, 13854.00
994.6390, 14006.00
995.7530, 14002.00
996.8660, 14056.00
997.9800, 14194.00
999.0940, 14111.00
1000.207, 14293.00
1001.320, 14276.00
1002.433, 14252.00
1003.546, 14220.00
1004.659, 14291.00
1005.772, 14329.00
1006.884, 14285.00
1007.996, 14427.00
1009.108, 14334.00
1010.220, 14313.00
1011.332, 14356.00
1012.444, 14423.00
1013.555, 14459.00
1014.666, 14284.00
1015.777, 14353.00
1016.888, 14314.00
1017.999, 14498.00
1019.110, 14406.00
1020.220, 14391.00
1021.331, 14347.00
1022.441, 14301.00
1023.551, 14451.00
1024.661, 14309.00
1025.770, 14519.00
1026.880, 14489.00
1027.989, 14433.00
1029.098, 14437.00
1030.207, 14417.29
1031.316, 14424.00
1032.425, 14408.00
1033.533, 14428.00
1034.642, 14412.00
1035.750, 14393.00
1036.858, 14385.00
1037.966, 14373.76
1039.073, 14371.63
1040.181, 14366.00
1041.288, 14357.00
1042.396, 14367.10
1043.503, 14324.58
1044.610, 14330.00
1045.716, 14161.00
1046.823, 14082.00
1047.929, 13901.00
1049.036, 14055.00
1050.142, 14100.00
1051.248, 14020.00
1052.353, 13984.00
1053.459, 14069.00
1054.564, 14047.00
1055.670, 13956.00
1056.775, 13924.00
1057.880, 13787.00
1058.985, 13928.00
1060.089, 13695.00
1061.194, 13914.00
1062.298, 13874.00
1063.402, 13667.00
1064.506, 13831.00
1065.610, 13700.00
1066.713, 13763.00
1067.817, 13531.00
1068.920, 13810.00
1070.023, 13478.00
1071.126, 13612.00
1072.229, 13532.00
1073.332, 13599.00
1074.435, 13589.00
1075.537, 13512.64
1076.639, 13565.00
1077.741, 13468.00
1078.843, 13335.00
1079.945, 13529.00
1081.046, 13414.00
1082.148, 13514.00
1083.249, 13468.00
1084.350, 13458.00
1085.451, 13296.00
1086.551, 13401.00
1087.652, 13253.00
1088.752, 13278.00
1089.853, 13151.00
1090.953, 13259.00
1092.053, 13294.00
1093.152, 13238.00
1094.252, 13151.00
1095.351, 13154.00
1096.451, 13093.19
1097.550, 13070.75
1098.649, 13047.00
1099.748, 13038.00
1100.846, 13066.00
1101.945, 13066.00
1103.043, 12977.00
1104.141, 13073.00
1105.239, 12892.00
1106.337, 12990.00
1107.434, 12834.00
1108.532, 12895.00
1109.629, 12860.00
1110.726, 12834.00
1111.823, 12794.00
1112.920, 12731.00
1114.017, 12781.00
1115.113, 12734.00
1116.210, 12766.00
1117.306, 12739.00
1118.402, 12810.00
1119.498, 12808.79
1120.593, 12687.00
1121.689, 12771.00
1122.784, 12751.00
1123.879, 12568.00
1124.974, 12600.00
1126.069, 12615.00
1127.164, 12557.00
1128.259, 12573.00
1129.353, 12581.46
1130.447, 12416.00
1131.541, 12517.00
1132.635, 12544.00
1133.729, 12289.00
1134.822, 12276.00
1135.916, 12390.00
1137.009, 12386.00
1138.102, 12383.00
1139.195, 12419.00
1140.288, 12261.00
1141.380, 12164.00
1142.473, 12283.00
1143.565, 12274.00
1144.657, 12277.00
1145.749, 12356.00
1146.841, 12270.00
1147.932, 12182.00
1149.024, 12133.00
1150.115, 12126.20
1151.206, 12108.67
1152.297, 12160.00
1153.388, 12137.00
1154.479, 12149.00
1155.569, 12159.00
1156.659, 12149.00
1157.750, 12030.00
1158.839, 12099.00
1159.929, 12086.00
1161.019, 12105.00
1162.108, 12134.00
1163.198, 12206.00
1164.287, 12157.00
1165.376, 12190.54
1166.465, 12091.00
1167.553, 12163.00
1168.642, 12175.00
1169.730, 12111.00
1170.818, 11964.00
1171.906, 12082.00
1172.994, 12030.00
1174.082, 12077.00
1175.170, 12033.00
1176.257, 12110.00
1177.344, 12111.00
1178.431, 12160.00
1179.518, 12024.00
1180.605, 12098.00
1181.691, 12142.00
1182.778, 12087.00
1183.864, 12233.00
1184.950, 12237.00
1186.036, 12193.84
1187.122, 12191.47
1188.207, 12102.00
1189.292, 12086.00
1190.378, 12072.00
1191.463, 12089.00
1192.548, 12019.00
1193.632, 12073.00
1194.717, 11934.00
1195.801, 12025.00
1196.886, 11958.00
1197.970, 12102.00
1199.054, 12053.00
1200.137, 12041.00
1201.221, 12006.00
1202.305, 11982.00
1203.388, 11979.31
1204.471, 11980.00
1205.554, 12003.00
1206.637, 12001.00
1207.719, 12073.00
1208.802, 12062.00
1209.884, 12140.00
1210.966, 12006.00
1212.048, 11994.00
1213.130, 12086.00
1214.212, 12068.00
1215.293, 12087.00
1216.374, 12127.00
1217.456, 12043.00
1218.536, 12068.00
1219.617, 12118.00
1220.698, 12200.00
1221.778, 12005.00
1222.859, 12014.00
1223.939, 12014.00
1225.019, 12010.00
1226.099, 12053.96
1227.178, 12033.17
1228.258, 12107.00
1229.337, 12032.00
1230.417, 11969.00
1231.496, 11989.00
1232.574, 12146.00
1233.653, 12027.00
1234.732, 12140.00
1235.810, 12108.00
1236.888, 12083.00
1237.966, 12014.00
1239.044, 12023.00
1240.122, 12097.00
1241.199, 11994.00
1242.277, 11901.00
1243.354, 12098.00
1244.431, 12069.00
1245.508, 12245.00
1246.585, 12145.00
1247.661, 12128.00
1248.738, 12189.00
1249.814, 11930.00
1250.890, 12017.00
1251.966, 11951.00
1253.042, 12043.00
1254.117, 12087.00
1255.193, 12040.00
1256.268, 12083.00
1257.343, 11919.00
1258.418, 11973.00
1259.493, 12030.00
1260.567, 11956.00
1261.642, 12006.00
1262.716, 12021.00
1263.790, 12068.00
1264.864, 12129.00
1265.938, 12104.04
1267.011, 12020.00
1268.085, 12021.00
1269.158, 12113.00
1270.231, 11981.00
1271.304, 12051.00
1272.377, 12031.00
1273.450, 11967.00
1274.522, 12092.00
1275.594, 12020.00
1276.666, 12099.00
1277.738, 11922.00
1278.810, 11985.00
1279.882, 11996.00
1280.953, 12164.00
1282.025, 12088.00
1283.096, 12007.00
1284.167, 12058.00
1285.238, 12092.00
1286.308, 11979.00
1287.379, 12066.00
1288.449, 12159.00
1289.519, 11864.79
1290.589, 12048.92
1291.659, 12152.52
1292.729, 12179.91
1293.798, 11902.86
1294.868, 12018.94
1295.937, 11977.46
1297.006, 11929.53
1298.075, 12100.94
1299.143, 11868.17
1300.212, 12106.00
1301.280, 12049.00
1302.348, 12010.00
1303.416, 12123.00
1304.484, 12068.00
1305.552, 12008.00
1306.620, 11958.00
1307.687, 12054.00
1308.754, 12217.00
1309.821, 12178.00
1310.888, 12043.00
1311.955, 11947.00
1313.021, 12137.00
1314.088, 12075.00
1315.154, 12121.00
1316.220, 11985.00
1317.286, 12052.00
1318.352, 12097.00
1319.417, 12026.00
1320.483, 12057.00
1321.548, 12066.00
1322.613, 12019.00
1323.678, 12025.53
1324.743, 12048.00
1325.807, 11958.00
1326.872, 12006.00
1327.936, 11927.00
1329.000, 12003.00
1330.064, 12116.00
1331.128, 12082.00
1332.191, 12141.00
1333.255, 12153.00
1334.318, 12127.66
1335.381, 12136.17
1336.444, 12090.00
1337.507, 12074.00
1338.569, 12071.00
1339.632, 12000.00
1340.694, 12039.00
1341.756, 12056.00
1342.818, 12136.00
1343.880, 12185.00
1344.941, 12089.00
1346.003, 11953.00
1347.064, 12070.00
1348.125, 11984.00
1349.186, 11977.00
1350.247, 12088.00
1351.308, 12016.00
1352.368, 12005.00
1353.428, 12047.00
1354.489, 12010.00
1355.549, 12038.79
1356.608, 12028.14
1357.668, 12068.00
1358.727, 12030.00
1359.787, 12036.00
1360.846, 12082.00
1361.905, 12068.00
1362.964, 12114.00
1364.022, 12102.87
1365.081, 12104.42
1366.139, 12085.00
1367.197, 12047.00
1368.255, 12034.00
1369.313, 12019.63
1370.371, 12008.00
1371.428, 11991.00
1372.486, 11996.65
1373.543, 11994.00
1374.600, 12010.00
1375.657, 12025.00
1376.713, 12032.00
1377.770, 12025.00
1378.826, 12110.00
1379.882, 12042.00
1380.938, 12007.00
1381.994, 11946.00
1383.050, 12067.00
1384.106, 12035.00
1385.161, 12014.00
1386.216, 12082.00
1387.271, 11956.00
1388.326, 12113.00
1389.381, 12069.00
1390.435, 11948.00
1391.490, 12041.00
1392.544, 12071.00
1393.598, 12115.00
1394.652, 12132.49
1395.705, 12073.00
1396.759, 12082.00
1397.812, 12091.00
1398.866, 11958.00
1399.919, 12052.00
1400.972, 11960.74
1402.024, 12177.00
1403.077, 11893.00
1404.129, 12149.00
1405.181, 12207.00
1406.233, 12137.00
1407.285, 12084.00
1408.337, 12281.00
1409.389, 12029.00
1410.440, 12111.00
1411.491, 12199.00
1412.542, 12097.00
1413.593, 12149.00
1414.644, 12129.00
1415.695, 12150.00
1416.745, 12050.00
1417.795, 12224.00
1418.845, 12180.00
1419.895, 12026.00
1420.945, 12125.00
1421.995, 12138.00
1423.044, 12282.00
1424.093, 12056.00
1425.142, 12291.00
1426.191, 12001.00
1427.240, 12082.00
1428.289, 12111.00
1429.337, 12101.00
1430.385, 12165.00
1431.433, 12104.00
1432.481, 12163.00
1433.529, 12147.54
1434.577, 12142.82
1435.624, 12126.00
1436.672, 12168.00
1437.719, 12145.00
1438.766, 12211.00
1439.812, 12202.00
1440.859, 12177.00
1441.905, 12244.00
1442.952, 12201.00
1443.998, 12087.00
1445.044, 12281.00
1446.090, 12184.00
1447.135, 12266.00
1448.181, 12153.00
1449.226, 12209.00
1450.271, 12300.00
1451.316, 12251.00
1452.361, 12310.00
1453.405, 12281.10
1454.450, 12224.00
1455.494, 12221.00
1456.538, 12285.00
1457.582, 12369.69
1458.626, 12411.62
1459.670, 12430.54
1460.713, 12427.70
1461.757, 12337.86
1462.800, 12360.36
1463.843, 12337.84
1464.886, 12313.48
1465.928, 12265.00
1466.971, 12062.00
1468.013, 12131.00
1469.055, 12360.00
1470.097, 12317.00
1471.139, 12312.00
1472.181, 12377.00
1473.222, 12312.12
1474.263, 12252.00
1475.305, 12267.00
1476.346, 12282.88
1477.386, 12313.00
1478.427, 12275.00
1479.468, 12422.00
1480.508, 12352.00
1481.548, 12435.00
1482.588, 12310.00
1483.628, 12294.00
1484.668, 12273.00
1485.707, 12223.00
1486.747, 12240.00
1487.786, 12247.00
1488.825, 12206.00
1489.864, 12318.00
1490.902, 12152.00
1491.941, 12279.00
1492.979, 12183.00
1494.017, 12359.00
1495.055, 12285.00
1496.093, 12321.00
1497.131, 12409.00
1498.168, 12306.00
1499.206, 12286.00
1500.243, 12257.00
1501.280, 12352.00
1502.317, 12216.00
1503.354, 12209.00
1504.390, 12352.00
1505.426, 12093.00
1506.463, 12368.00
1507.499, 12319.00
1508.535, 12224.00
1509.570, 12360.00
1510.606, 12233.00
1511.641, 12287.00
1512.676, 12249.00
1513.711, 12210.00
1514.746, 12267.00
1515.781, 12338.00
1516.816, 12330.00
1517.850, 12072.00
1518.884, 12247.00
1519.918, 12232.00
1520.952, 12079.00
1521.986, 12198.00
1523.019, 12287.00
1524.053, 12217.00
1525.086, 12226.00
1526.119, 12243.00
1527.152, 12302.00
1528.185, 12209.00
1529.217, 12344.00
1530.250, 12343.00
1531.282, 12397.00
1532.314, 12213.00
1533.346, 12158.00
1534.377, 12218.22
1535.409, 12271.59
1536.440, 12301.95
1537.472, 12310.53
1538.503, 12232.13
1539.534, 12266.05
1540.564, 12254.96
1541.595, 12242.02
1542.625, 12291.75
1543.656, 12226.00
1544.686, 12274.74
1545.716, 12277.78
1546.745, 12301.73
1547.775, 12280.39
1548.804, 12273.04
1549.834, 12310.99
1550.863, 12323.86
1551.892, 12297.31
1552.920, 12322.59
1553.949, 12255.25
1554.977, 12269.19
1556.006, 12318.19
1557.034, 12293.91
1558.062, 12320.02
1559.089, 12326.94
1560.117, 12246.65
1561.144, 12318.02
1562.172, 12323.80
1563.199, 12262.24
1564.226, 12328.42
1565.252, 12276.14
1566.279, 12300.00
1567.305, 12216.00
1568.332, 12242.00
1569.358, 12227.00
1570.384, 12441.00
1571.409, 12226.00
##END=



