##NAMES=Edenite
##RRUFFID=R060029
##IDEAL CHEMISTRY=NaCa_2_Mg_5_(Si_7_Al)O_22_(OH)_2_
##LOCALITY=Renfrew County, Ontario, Canada
##OWNER=RRUFF
##SOURCE=University of Arizona Mineral Museum
##DESCRIPTION=Black prismatic
##STATUS=The identification of this mineral has been confirmed by X-ray diffraction and chemical analysis
##URL=rruff.info/R060029
##MEASURED CHEMISTRY=(Na_0.62_K_0.34_[box]_0.04_)(Ca_0.86_Na_0.14_)_2_(Mg_0.57_Fe^2+^_0.30_Fe^3+^_0.07_Al_0.05_Ti_0.01_Mn_0.01_)_5_(Si_6.61_Al_1.39_)O_22_((OH)_0.69_F_0.31_)_2_
##PIN_ID=L01054
##ORIENTATION=Laser parallel to -a* (-1 0 0). Fiducial mark perpendicular to laser is parallel to b [0 1 0]
192.9560, 12506.22
194.1780, 12597.09
195.4000, 12446.21
196.6220, 12535.01
197.8430, 12528.13
199.0640, 12565.05
200.2860, 12507.14
201.5070, 12478.52
202.7270, 12544.77
203.9480, 12558.48
205.1690, 12489.66
206.3890, 12529.37
207.6090, 12375.20
208.8290, 12508.00
210.0490, 12757.00
211.2690, 12851.00
212.4890, 13214.00
213.7080, 13615.00
214.9280, 13902.00
216.1470, 13982.00
217.3660, 14186.00
218.5850, 14537.00
219.8030, 14841.00
221.0220, 15149.00
222.2400, 15272.00
223.4590, 15631.00
224.6770, 15685.00
225.8950, 15855.00
227.1120, 16004.00
228.3300, 15842.00
229.5480, 15725.00
230.7650, 15559.00
231.9820, 15378.00
233.1990, 15230.00
234.4160, 14951.14
235.6330, 14638.99
236.8490, 14367.00
238.0660, 13947.00
239.2820, 13609.00
240.4980, 13370.00
241.7140, 13078.00
242.9300, 12837.00
244.1460, 12618.67
245.3610, 12416.00
246.5770, 12233.00
247.7920, 12022.00
249.0070, 11893.00
250.2220, 11968.00
251.4370, 11630.00
252.6510, 11689.00
253.8660, 11619.00
255.0800, 11427.96
256.2940, 11496.86
257.5080, 11517.60
258.7220, 11492.75
259.9360, 11285.81
261.1490, 11314.04
262.3630, 11248.00
263.5760, 11178.14
264.7890, 11204.00
266.0020, 11246.00
267.2150, 11133.00
268.4270, 11193.00
269.6400, 11209.00
270.8520, 11101.00
272.0640, 11240.00
273.2760, 11329.00
274.4880, 11490.00
275.7000, 11610.00
276.9120, 11613.00
278.1230, 11853.00
279.3340, 11915.00
280.5450, 11736.00
281.7560, 11880.00
282.9670, 11908.00
284.1780, 12096.00
285.3880, 12036.00
286.5980, 12150.00
287.8090, 12226.00
289.0190, 12125.00
290.2290, 12411.00
291.4380, 12325.00
292.6480, 12352.00
293.8570, 12314.00
295.0670, 12311.00
296.2760, 12388.00
297.4850, 12169.00
298.6930, 12397.00
299.9020, 12178.00
301.1110, 11915.00
302.3190, 12001.00
303.5270, 12071.00
304.7350, 11993.00
305.9430, 11951.00
307.1510, 11911.00
308.3580, 11861.00
309.5660, 11821.96
310.7730, 11776.68
311.9800, 11733.00
313.1870, 11671.00
314.3940, 11614.00
315.6010, 11522.00
316.8070, 11527.00
318.0130, 11453.00
319.2200, 11376.00
320.4260, 11435.00
321.6310, 11508.00
322.8370, 11393.00
324.0430, 11345.00
325.2480, 11124.00
326.4540, 11279.00
327.6590, 11258.00
328.8640, 11433.00
330.0680, 11317.00
331.2730, 11357.00
332.4780, 11345.00
333.6820, 11262.00
334.8860, 11229.00
336.0900, 11433.00
337.2940, 11229.00
338.4980, 11399.00
339.7010, 11301.00
340.9050, 11287.00
342.1080, 11405.00
343.3110, 11176.00
344.5140, 11288.00
345.7170, 11416.00
346.9200, 11412.00
348.1220, 11397.00
349.3240, 11518.00
350.5270, 11488.00
351.7290, 11592.00
352.9310, 11658.00
354.1320, 11501.00
355.3340, 11581.00
356.5350, 11610.00
357.7370, 11751.00
358.9380, 11681.00
360.1390, 11842.00
361.3400, 11926.00
362.5400, 11966.00
363.7410, 11913.00
364.9410, 12030.00
366.1410, 12069.00
367.3410, 12234.00
368.5410, 12226.00
369.7410, 12312.00
370.9400, 12439.00
372.1400, 12493.00
373.3390, 12527.00
374.5380, 12536.00
375.7370, 12559.00
376.9360, 12767.00
378.1350, 12679.00
379.3330, 12753.00
380.5310, 12573.00
381.7300, 12405.00
382.9280, 12436.00
384.1260, 12329.00
385.3230, 12315.00
386.5210, 12190.00
387.7180, 12031.00
388.9160, 12068.00
390.1130, 11839.00
391.3100, 11804.00
392.5060, 11726.00
393.7030, 11656.00
394.9000, 11698.00
396.0960, 11537.00
397.2920, 11652.00
398.4880, 11612.00
399.6840, 11561.00
400.8800, 11647.00
402.0750, 11587.00
403.2710, 11637.11
404.4660, 11614.00
405.6610, 11715.00
406.8560, 11736.00
408.0510, 11781.00
409.2450, 11782.00
410.4400, 11841.32
411.6340, 11814.00
412.8280, 11948.00
414.0220, 12043.00
415.2160, 12102.00
416.4100, 12065.00
417.6030, 12112.00
418.7970, 12360.00
419.9900, 12510.00
421.1830, 12667.80
422.3760, 12876.30
423.5690, 13012.00
424.7610, 13194.00
425.9540, 13345.00
427.1460, 13384.00
428.3380, 13540.00
429.5300, 13497.00
430.7220, 13416.00
431.9140, 13462.00
433.1050, 13249.00
434.2970, 13256.00
435.4880, 13170.00
436.6790, 12980.00
437.8700, 12949.00
439.0610, 12977.00
440.2510, 12588.12
441.4420, 12601.10
442.6320, 12565.98
443.8220, 12485.28
445.0120, 12222.48
446.2020, 12194.83
447.3910, 12073.02
448.5810, 11947.27
449.7700, 11952.79
450.9600, 11716.48
452.1490, 11719.93
453.3370, 11627.78
454.5260, 11542.00
455.7150, 11495.00
456.9030, 11338.00
458.0910, 11302.00
459.2800, 11171.00
460.4670, 11030.00
461.6550, 11013.00
462.8430, 10871.00
464.0300, 10931.00
465.2180, 10783.00
466.4050, 10738.00
467.5920, 10685.00
468.7790, 10591.00
469.9650, 10683.00
471.1520, 10664.00
472.3380, 10571.00
473.5250, 10576.00
474.7110, 10559.00
475.8970, 10483.00
477.0820, 10510.00
478.2680, 10625.00
479.4540, 10761.00
480.6390, 10792.00
481.8240, 10910.16
483.0090, 10860.00
484.1940, 10990.00
485.3780, 11016.00
486.5630, 11072.50
487.7470, 11131.00
488.9320, 11185.00
490.1160, 11329.00
491.3000, 11338.00
492.4830, 11461.00
493.6670, 11699.00
494.8500, 11746.25
496.0340, 12065.00
497.2170, 11972.00
498.4000, 12162.00
499.5820, 12258.00
500.7650, 12355.00
501.9480, 12598.00
503.1300, 12678.00
504.3120, 12870.00
505.4940, 12931.00
506.6760, 13237.00
507.8580, 13299.00
509.0390, 13442.00
510.2210, 13479.00
511.4020, 13536.00
512.5830, 13616.00
513.7640, 13726.00
514.9450, 13940.00
516.1250, 13938.00
517.3060, 14046.00
518.4860, 13899.00
519.6660, 14126.00
520.8460, 14072.00
522.0260, 14209.00
523.2060, 14148.00
524.3850, 14239.00
525.5650, 14379.00
526.7440, 14152.00
527.9230, 14398.00
529.1020, 14421.00
530.2810, 14533.00
531.4590, 14387.00
532.6380, 14378.00
533.8160, 14427.00
534.9940, 14312.00
536.1720, 14384.00
537.3500, 14170.00
538.5270, 14265.00
539.7050, 14152.00
540.8820, 13995.00
542.0590, 13872.00
543.2360, 14028.00
544.4130, 13928.00
545.5900, 13872.00
546.7660, 13685.00
547.9430, 13576.00
549.1190, 13730.00
550.2950, 13482.00
551.4710, 13558.00
552.6470, 13253.00
553.8220, 13306.00
554.9980, 13109.00
556.1730, 13061.00
557.3480, 12918.00
558.5230, 12914.00
559.6980, 12746.00
560.8730, 12714.00
562.0470, 12726.00
563.2220, 12613.00
564.3960, 12520.00
565.5700, 12345.00
566.7440, 12337.00
567.9170, 12224.00
569.0910, 12076.00
570.2640, 11948.00
571.4380, 11864.00
572.6110, 11855.06
573.7840, 11818.00
574.9570, 11630.72
576.1290, 11343.00
577.3020, 11234.00
578.4740, 11036.00
579.6460, 10824.00
580.8180, 10631.00
581.9900, 10546.00
583.1620, 10312.00
584.3330, 10159.00
585.5040, 9916.000
586.6760, 9888.000
587.8470, 9722.000
589.0180, 9523.000
590.1880, 9377.000
591.3590, 9406.000
592.5290, 9269.000
593.7000, 9118.000
594.8700, 9235.000
596.0400, 9078.000
597.2090, 9218.000
598.3790, 9122.000
599.5490, 9225.000
600.7180, 9228.000
601.8870, 9119.000
603.0560, 9130.000
604.2250, 9191.000
605.3940, 9208.000
606.5620, 9177.000
607.7300, 9200.000
608.8990, 9146.000
610.0670, 9182.000
611.2350, 9102.000
612.4020, 9241.000
613.5700, 9336.000
614.7370, 9310.000
615.9050, 9346.000
617.0720, 9388.150
618.2390, 9440.000
619.4060, 9555.000
620.5720, 9580.000
621.7390, 9670.955
622.9050, 9739.180
624.0710, 9817.000
625.2370, 9896.000
626.4030, 9958.000
627.5690, 10080.00
628.7340, 10208.00
629.9000, 10205.00
631.0650, 10264.00
632.2300, 10308.00
633.3950, 10330.00
634.5600, 10529.00
635.7240, 10685.00
636.8890, 10720.00
638.0530, 10888.00
639.2170, 11184.00
640.3810, 11177.04
641.5450, 11108.00
642.7080, 11417.00
643.8720, 11507.00
645.0350, 11875.00
646.1980, 11830.00
647.3610, 12002.00
648.5240, 12267.00
649.6870, 12480.00
650.8490, 12760.00
652.0120, 13067.00
653.1740, 13398.00
654.3360, 13747.00
655.4980, 14107.00
656.6600, 14506.00
657.8210, 14992.00
658.9830, 15681.00
660.1440, 16021.00
661.3050, 16505.00
662.4660, 17245.00
663.6270, 17489.00
664.7870, 18011.00
665.9480, 18122.00
667.1080, 18234.00
668.2680, 18149.00
669.4280, 18199.00
670.5880, 17801.00
671.7480, 17330.00
672.9070, 16634.00
674.0670, 16207.00
675.2260, 15714.00
676.3850, 15148.00
677.5440, 14616.00
678.7030, 14129.00
679.8610, 13563.00
681.0200, 13325.00
682.1780, 12954.00
683.3360, 12542.00
684.4940, 12183.00
685.6520, 11960.94
686.8090, 11677.90
687.9670, 11643.00
689.1240, 11311.00
690.2810, 11282.00
691.4380, 11206.00
692.5950, 11124.00
693.7520, 11036.00
694.9080, 11062.00
696.0650, 10912.00
697.2210, 10933.00
698.3770, 11076.00
699.5330, 10867.00
700.6880, 10933.00
701.8440, 10995.00
702.9990, 11104.00
704.1550, 11002.00
705.3100, 11360.00
706.4650, 11291.00
707.6190, 11381.00
708.7740, 11699.00
709.9290, 11767.00
711.0830, 11686.00
712.2370, 11806.00
713.3910, 11751.00
714.5450, 12126.00
715.6980, 12094.00
716.8520, 12161.00
718.0050, 12367.00
719.1580, 12233.00
720.3110, 12431.00
721.4640, 12499.00
722.6170, 12525.00
723.7700, 12579.00
724.9220, 12628.00
726.0740, 12582.14
727.2260, 12446.00
728.3780, 12479.00
729.5300, 12463.00
730.6810, 12412.00
731.8330, 12441.00
732.9840, 12412.00
734.1350, 12375.06
735.2860, 12430.00
736.4370, 12293.00
737.5880, 12266.00
738.7380, 12222.00
739.8880, 12088.00
741.0390, 11980.00
742.1890, 11849.00
743.3380, 11796.00
744.4880, 11722.00
745.6380, 11568.00
746.7870, 11417.00
747.9360, 11394.00
749.0850, 11406.00
750.2340, 11263.00
751.3830, 11203.00
752.5310, 11036.00
753.6800, 10810.00
754.8280, 11033.00
755.9760, 10935.00
757.1240, 10927.00
758.2720, 10767.00
759.4190, 10714.00
760.5670, 10892.00
761.7140, 10772.00
762.8610, 10906.00
764.0080, 10725.00
765.1550, 10685.00
766.3020, 10735.00
767.4480, 10686.00
768.5950, 10892.00
769.7410, 10817.00
770.8870, 10823.00
772.0330, 10649.00
773.1780, 10745.00
774.3240, 10724.00
775.4690, 10862.00
776.6140, 10843.44
777.7590, 10770.82
778.9040, 10889.00
780.0490, 10624.00
781.1940, 10715.00
782.3380, 10790.00
783.4820, 10625.00
784.6260, 10595.00
785.7700, 10679.00
786.9140, 10546.00
788.0580, 10599.00
789.2010, 10565.00
790.3450, 10541.00
791.4880, 10589.00
792.6310, 10712.56
793.7730, 10553.13
794.9160, 10514.74
796.0590, 10324.00
797.2010, 10315.00
798.3430, 10293.00
799.4850, 10368.00
800.6270, 10198.00
801.7690, 10060.00
802.9100, 10202.00
804.0520, 10072.00
805.1930, 10050.00
806.3340, 10186.00
807.4750, 9944.000
808.6160, 9991.000
809.7560, 9970.000
810.8970, 10011.00
812.0370, 9829.000
813.1770, 9873.000
814.3170, 9783.000
815.4570, 9867.000
816.5960, 9847.000
817.7360, 9725.000
818.8750, 9704.000
820.0140, 9765.000
821.1530, 9667.000
822.2920, 9768.000
823.4310, 9651.000
824.5690, 9568.000
825.7070, 9528.000
826.8460, 9563.000
827.9840, 9620.000
829.1220, 9648.000
830.2590, 9648.000
831.3970, 9504.000
832.5340, 9429.000
833.6710, 9544.000
834.8080, 9576.000
835.9450, 9606.000
837.0820, 9653.258
838.2190, 9664.000
839.3550, 9662.000
840.4910, 9776.000
841.6270, 9717.950
842.7630, 9663.000
843.8990, 9583.000
845.0350, 9626.000
846.1700, 9705.000
847.3060, 9699.000
848.4410, 9737.000
849.5760, 9693.000
850.7100, 9708.000
851.8450, 9719.271
852.9800, 9722.000
854.1140, 9774.000
855.2480, 9824.000
856.3820, 9917.000
857.5160, 9942.000
858.6500, 9934.000
859.7830, 9809.000
860.9170, 9921.000
862.0500, 9930.969
863.1830, 9988.667
864.3160, 10063.00
865.4480, 10159.00
866.5810, 10185.00
867.7130, 10235.00
868.8460, 10303.00
869.9780, 10264.00
871.1100, 10459.00
872.2410, 10359.00
873.3730, 10453.00
874.5050, 10349.00
875.6360, 10338.00
876.7670, 10509.00
877.8980, 10188.00
879.0290, 10393.00
880.1590, 10475.00
881.2900, 10601.00
882.4200, 10499.00
883.5500, 10466.00
884.6800, 10544.00
885.8100, 10582.00
886.9400, 10539.00
888.0690, 10654.00
889.1990, 10559.00
890.3280, 10688.00
891.4570, 10585.00
892.5860, 10555.00
893.7140, 10670.00
894.8430, 10714.00
895.9710, 10686.00
897.1000, 10751.00
898.2280, 10690.00
899.3560, 10679.00
900.4830, 10823.00
901.6110, 10722.00
902.7380, 10631.00
903.8660, 10871.00
904.9930, 10895.00
906.1200, 10869.13
907.2460, 10865.00
908.3730, 10841.00
909.5000, 10736.00
910.6260, 10780.00
911.7520, 10737.00
912.8780, 10777.00
914.0040, 10901.00
915.1290, 10862.00
916.2550, 10933.00
917.3800, 11025.00
918.5050, 10845.00
919.6300, 11041.00
920.7550, 11218.00
921.8800, 11039.00
923.0040, 11051.00
924.1290, 11185.00
925.2530, 11131.00
926.3770, 11133.00
927.5010, 11109.00
928.6250, 11148.00
929.7480, 11176.00
930.8720, 11280.00
931.9950, 11203.00
933.1180, 11269.00
934.2410, 11103.00
935.3640, 11292.00
936.4860, 11155.00
937.6090, 11291.00
938.7310, 11253.00
939.8530, 11308.00
940.9750, 11370.00
942.0970, 11399.00
943.2180, 11531.00
944.3400, 11454.00
945.4610, 11569.00
946.5820, 11467.00
947.7030, 11702.00
948.8240, 11710.00
949.9450, 11693.00
951.0650, 11700.00
952.1860, 11776.00
953.3060, 11780.00
954.4260, 11881.00
955.5460, 11887.17
956.6650, 11768.00
957.7850, 11924.00
958.9040, 11946.00
960.0230, 11965.00
961.1420, 11840.00
962.2610, 12181.00
963.3800, 12020.93
964.4990, 12321.00
965.6170, 11880.00
966.7350, 12097.00
967.8530, 11918.00
968.9710, 12111.00
970.0890, 11994.00
971.2070, 11997.00
972.3240, 12102.00
973.4410, 12036.00
974.5580, 12043.00
975.6750, 12250.00
976.7920, 12090.00
977.9090, 12268.00
979.0250, 12317.00
980.1410, 12321.00
981.2580, 12409.00
982.3740, 12612.00
983.4890, 12440.00
984.6050, 12646.00
985.7200, 12578.00
986.8360, 12765.00
987.9510, 12693.00
989.0660, 13068.00
990.1810, 12915.00
991.2950, 13090.00
992.4100, 13112.00
993.5240, 13344.00
994.6390, 13336.00
995.7530, 13390.00
996.8660, 13492.57
997.9800, 13749.00
999.0940, 13609.00
1000.207, 13840.80
1001.320, 13908.00
1002.433, 13843.00
1003.546, 13965.00
1004.659, 13940.00
1005.772, 14017.00
1006.884, 14022.00
1007.996, 14236.00
1009.108, 14188.00
1010.220, 14120.00
1011.332, 14322.00
1012.444, 14124.00
1013.555, 14152.00
1014.666, 14251.00
1015.777, 14361.00
1016.888, 14297.00
1017.999, 14370.00
1019.110, 14179.00
1020.220, 14318.00
1021.331, 14510.00
1022.441, 14342.00
1023.551, 14344.00
1024.661, 14489.00
1025.770, 14343.00
1026.880, 14227.00
1027.989, 14375.00
1029.098, 14168.00
1030.207, 14311.00
1031.316, 14228.00
1032.425, 14117.00
1033.533, 14257.00
1034.642, 14176.00
1035.750, 14029.00
1036.858, 14046.00
1037.966, 13937.00
1039.073, 13817.00
1040.181, 13766.00
1041.288, 13778.00
1042.396, 13644.00
1043.503, 13649.00
1044.610, 13510.00
1045.716, 13401.00
1046.823, 13293.00
1047.929, 13225.00
1049.036, 13170.00
1050.142, 13140.00
1051.248, 13126.00
1052.353, 13129.00
1053.459, 13130.00
1054.564, 13028.00
1055.670, 13006.00
1056.775, 12941.91
1057.880, 12945.00
1058.985, 12777.00
1060.089, 12824.61
1061.194, 12672.61
1062.298, 12757.00
1063.402, 12589.00
1064.506, 12667.00
1065.610, 12372.00
1066.713, 12533.00
1067.817, 12427.00
1068.920, 12177.00
1070.023, 12140.00
1071.126, 12178.00
1072.229, 12235.00
1073.332, 12122.00
1074.435, 12137.41
1075.537, 12035.00
1076.639, 12044.00
1077.741, 11902.00
1078.843, 11846.00
1079.945, 11933.00
1081.046, 11763.00
1082.148, 11777.00
1083.249, 11733.00
1084.350, 11711.00
1085.451, 11566.00
1086.551, 11601.00
1087.652, 11467.00
1088.752, 11437.00
1089.853, 11573.00
1090.953, 11457.00
1092.053, 11465.00
1093.152, 11294.00
1094.252, 11253.00
1095.351, 11297.00
1096.451, 11259.00
1097.550, 11158.00
1098.649, 11160.00
1099.748, 11111.00
1100.846, 10978.00
1101.945, 10958.00
1103.043, 11059.00
1104.141, 10899.00
1105.239, 10697.00
1106.337, 10832.00
1107.434, 10824.00
1108.532, 10656.62
1109.629, 10671.00
1110.726, 10429.00
1111.823, 10484.00
1112.920, 10526.00
1114.017, 10376.00
1115.113, 10450.00
1116.210, 10538.00
1117.306, 10278.00
1118.402, 10191.00
1119.498, 10386.00
1120.593, 10258.00
1121.689, 10353.00
1122.784, 10250.00
1123.879, 10273.00
1124.974, 10185.00
1126.069, 10199.00
1127.164, 10077.00
1128.259, 10025.00
1129.353, 9895.000
1130.447, 9890.000
1131.541, 9809.000
1132.635, 9900.000
1133.729, 9747.000
1134.822, 9732.000
1135.916, 10002.00
1137.009, 9859.000
1138.102, 9807.405
1139.195, 9597.000
1140.288, 9604.000
1141.380, 9517.000
1142.473, 9628.000
1143.565, 9469.000
1144.657, 9556.000
1145.749, 9460.000
1146.841, 9631.000
1147.932, 9537.000
1149.024, 9420.000
1150.115, 9405.000
1151.206, 9377.000
1152.297, 9566.000
1153.388, 9387.000
1154.479, 9539.000
1155.569, 9486.380
1156.659, 9347.000
1157.750, 9410.000
1158.839, 9446.000
1159.929, 9408.000
1161.019, 9356.000
1162.108, 9394.420
1163.198, 9358.000
1164.287, 9393.000
1165.376, 9422.000
1166.465, 9341.000
1167.553, 9273.000
1168.642, 9217.000
1169.730, 9293.000
1170.818, 9234.000
1171.906, 9317.000
1172.994, 9269.000
1174.082, 9235.000
1175.170, 9293.000
1176.257, 9144.000
1177.344, 9225.000
1178.431, 9228.000
1179.518, 9261.000
1180.605, 9178.000
1181.691, 9210.000
1182.778, 9272.000
1183.864, 9161.000
1184.950, 9247.000
1186.036, 9251.000
1187.122, 9157.000
1188.207, 9193.000
1189.292, 9161.000
1190.378, 9151.000
1191.463, 9289.000
1192.548, 9220.000
1193.632, 9212.000
1194.717, 9090.000
1195.801, 9285.000
1196.886, 9208.000
1197.970, 9199.000
1199.054, 9196.000
1200.137, 9159.000
1201.221, 9122.000
1202.305, 9168.000
1203.388, 9238.000
1204.471, 9171.000
1205.554, 9245.000
1206.637, 9266.000
1207.719, 9199.000
1208.802, 9111.000
1209.884, 9156.000
1210.966, 9119.000
1212.048, 9074.000
1213.130, 9218.000
1214.212, 9241.000
1215.293, 9221.000
1216.374, 9277.000
1217.456, 9126.000
1218.536, 9203.000
1219.617, 9326.000
1220.698, 9327.000
1221.778, 9159.000
1222.859, 9111.000
1223.939, 9193.000
1225.019, 9164.000
1226.099, 9297.000
1227.178, 9136.000
1228.258, 9267.000
1229.337, 9235.000
1230.417, 9206.000
1231.496, 9063.000
1232.574, 9216.000
1233.653, 9297.000
1234.732, 9302.000
1235.810, 9174.000
1236.888, 9125.000
1237.966, 9129.000
1239.044, 9186.000
1240.122, 9249.000
1241.199, 9192.000
1242.277, 9206.000
1243.354, 9185.000
1244.431, 9076.000
1245.508, 9244.000
1246.585, 9154.000
1247.661, 9231.000
1248.738, 9146.000
1249.814, 9129.000
1250.890, 9275.000
1251.966, 9171.000
1253.042, 9105.000
1254.117, 9209.000
1255.193, 9207.000
1256.268, 9188.000
1257.343, 9294.000
1258.418, 9227.000
1259.493, 9241.000
1260.567, 9150.000
1261.642, 9151.000
1262.716, 9158.689
1263.790, 9244.000
1264.864, 9193.000
1265.938, 9209.000
1267.011, 9217.000
1268.085, 9218.000
1269.158, 9221.000
1270.231, 9213.024
1271.304, 9191.000
1272.377, 9206.000
1273.450, 9121.000
1274.522, 9142.000
1275.594, 9079.000
1276.666, 9135.000
1277.738, 9198.000
1278.810, 9186.000
1279.882, 9256.000
1280.953, 9151.000
1282.025, 9191.000
1283.096, 9174.000
1284.167, 9131.000
1285.238, 9292.000
1286.308, 9474.000
1287.379, 9390.000
1288.449, 9179.000
1289.519, 9290.000
1290.589, 9135.000
1291.659, 9158.000
1292.729, 9178.000
1293.798, 9155.000
1294.868, 9212.000
1295.937, 9179.000
1297.006, 9221.000
1298.075, 9220.000
1299.143, 9307.000
1300.212, 9161.000
1301.280, 9147.000
1302.348, 9167.000
1303.416, 9293.000
1304.484, 9191.000
1305.552, 9148.000
1306.620, 9279.000
1307.687, 9224.000
1308.754, 9210.000
1309.821, 9292.000
1310.888, 9156.000
1311.955, 9301.000
1313.021, 9198.000
1314.088, 9141.000
1315.154, 9194.000
1316.220, 9220.000
1317.286, 9251.000
1318.352, 9154.000
1319.417, 9165.000
1320.483, 9222.000
1321.548, 9327.000
1322.613, 9174.000
1323.678, 9203.000
1324.743, 9186.000
1325.807, 9174.000
1326.872, 9335.000
1327.936, 9199.000
1329.000, 9120.000
1330.064, 9250.000
1331.128, 9184.000
1332.191, 9240.000
1333.255, 9079.000
1334.318, 9241.000
1335.381, 9105.000
1336.444, 9182.000
1337.507, 9149.000
1338.569, 9213.000
1339.632, 9093.000
1340.694, 9230.000
1341.756, 9219.000
1342.818, 9078.000
1343.880, 9238.000
1344.941, 9215.000
1346.003, 9206.000
1347.064, 9232.000
1348.125, 9148.000
1349.186, 9219.000
1350.247, 9126.000
1351.308, 9225.000
1352.368, 9251.000
1353.428, 9227.000
1354.489, 9233.000
1355.549, 9236.000
1356.608, 9216.479
1357.668, 9154.000
1358.727, 9177.000
1359.787, 9186.000
1360.846, 9143.000
1361.905, 9170.000
1362.964, 9198.521
1364.022, 9291.961
1365.081, 9290.821
1366.139, 9193.000
1367.197, 9227.000
1368.255, 9118.000
1369.313, 9138.797
1370.371, 9215.000
1371.428, 9152.000
1372.486, 9276.000
1373.543, 9277.000
1374.600, 9236.000
1375.657, 9316.000
1376.713, 9143.000
1377.770, 9166.000
1378.826, 9351.000
1379.882, 9271.000
1380.938, 9255.000
1381.994, 9253.000
1383.050, 9202.000
1384.106, 9233.000
1385.161, 9217.000
1386.216, 9239.000
1387.271, 9129.000
1388.326, 9250.000
1389.381, 9347.000
1390.435, 9192.000
1391.490, 9206.000
1392.544, 9424.000
1393.598, 9359.000
1394.652, 9388.000
1395.705, 9376.019
1396.759, 9364.038
1397.812, 9243.000
1398.866, 9365.000
1399.919, 9307.000
1400.972, 9309.000
1402.024, 9381.000
1403.077, 9292.000
1404.129, 9361.000
1405.181, 9231.000
1406.233, 9270.000
1407.285, 9342.000
1408.337, 9313.655
1409.389, 9348.597
1410.440, 9377.000
1411.491, 9330.000
1412.542, 9355.000
1413.593, 9290.000
1414.644, 9383.000
1415.695, 9445.000
1416.745, 9361.000
1417.795, 9470.000
1418.845, 9389.000
1419.895, 9290.000
1420.945, 9419.000
1421.995, 9381.000
1423.044, 9341.000
1424.093, 9396.000
1425.142, 9354.000
1426.191, 9385.000
1427.240, 9484.000
1428.289, 9454.000
1429.337, 9486.000
1430.385, 9411.000
1431.433, 9524.000
1432.481, 9509.446
1433.529, 9538.961
1434.577, 9535.000
1435.624, 9552.000
1436.672, 9503.000
1437.719, 9383.000
1438.766, 9522.000
1439.812, 9401.000
1440.859, 9553.000
1441.905, 9441.000
1442.952, 9638.000
1443.998, 9572.000
1445.044, 9585.000
1446.090, 9662.000
1447.135, 9602.000
1448.181, 9492.000
1449.226, 9602.000
1450.271, 9663.000
1451.316, 9363.000
1452.361, 9539.000
1453.405, 9548.000
1454.450, 9599.000
1455.494, 9519.000
1456.538, 9518.000
1457.582, 9686.000
1458.626, 9405.000
1459.670, 9623.000
1460.713, 9576.000
1461.757, 9432.000
1462.800, 9638.000
1463.843, 9446.000
1464.886, 9494.000
1465.928, 9597.000
1466.971, 9615.000
1468.013, 9684.000
1469.055, 9483.000
1470.097, 9502.000
1471.139, 9631.000
1472.181, 9392.000
1473.222, 9570.000
1474.263, 9605.000
1475.305, 9559.000
1476.346, 9468.000
1477.386, 9621.000
1478.427, 9496.000
1479.468, 9673.000
1480.508, 9526.000
1481.548, 9690.000
1482.588, 9541.000
1483.628, 9707.000
1484.668, 9458.000
1485.707, 9720.000
1486.747, 9637.000
1487.786, 9683.000
1488.825, 9665.961
1489.864, 9529.000
1490.902, 9526.000
1491.941, 9609.000
1492.979, 9578.000
1494.017, 9692.000
1495.055, 9630.490
1496.093, 9644.000
1497.131, 9624.000
1498.168, 9518.000
1499.206, 9553.425
1500.243, 9529.725
1501.280, 9580.000
1502.317, 9573.000
1503.354, 9645.000
1504.390, 9720.000
1505.426, 9622.000
1506.463, 9687.504
1507.499, 9728.000
1508.535, 9670.000
1509.570, 9668.000
1510.606, 9615.967
1511.641, 9605.000
1512.676, 9615.000
1513.711, 9676.000
1514.746, 9681.000
1515.781, 9615.000
1516.816, 9733.000
1517.850, 9942.000
1518.884, 9768.150
1519.918, 9818.000
1520.952, 9575.000
1521.986, 9641.000
1523.019, 9642.000
1524.053, 9781.000
1525.086, 9664.000
1526.119, 9768.000
1527.152, 9719.000
1528.185, 9518.000
1529.217, 9706.000
1530.250, 9539.000
1531.282, 9617.000
1532.314, 9815.000
1533.346, 9647.000
1534.377, 9596.000
1535.409, 9614.000
1536.440, 9737.000
1537.472, 9637.000
1538.503, 9717.000
1539.534, 9635.000
1540.564, 9674.000
1541.595, 9616.000
1542.625, 9579.875
1543.656, 9687.078
1544.686, 9746.115
1545.716, 9759.572
1546.745, 9590.934
1547.775, 9657.435
1548.804, 9629.703
1549.834, 9598.105
1550.863, 9697.704
1551.892, 9555.551
1552.920, 9653.072
1553.949, 9654.918
1554.977, 9700.553
1556.006, 9651.369
1557.034, 9631.474
1558.062, 9706.426
1559.089, 9728.862
1560.117, 9668.767
1561.144, 9717.188
1562.172, 9571.726
1563.199, 9596.398
1564.226, 9694.478
1565.252, 9639.154
1566.279, 9689.309
1567.305, 9699.294
1568.332, 9591.000
1569.358, 9645.000
1570.384, 9661.000
1571.409, 9626.000
##END=



