##NAMES=Edenite
##RRUFFID=R060029
##IDEAL CHEMISTRY=NaCa_2_Mg_5_(Si_7_Al)O_22_(OH)_2_
##LOCALITY=Renfrew County, Ontario, Canada
##OWNER=RRUFF
##SOURCE=University of Arizona Mineral Museum
##DESCRIPTION=Black prismatic
##STATUS=The identification of this mineral has been confirmed by X-ray diffraction and chemical analysis
##URL=rruff.info/R060029
##MEASURED CHEMISTRY=(Na_0.62_K_0.34_[box]_0.04_)(Ca_0.86_Na_0.14_)_2_(Mg_0.57_Fe^2+^_0.30_Fe^3+^_0.07_Al_0.05_Ti_0.01_Mn_0.01_)_5_(Si_6.61_Al_1.39_)O_22_((OH)_0.69_F_0.31_)_2_
##PIN_ID=M00136
##ORIENTATION=Laser parallel to b* (0 1 0). Fiducial mark perpendicular to laser is parallel to c [0 0 1]
263.5760, 12296.98
264.7890, 12263.24
266.0020, 12265.99
267.2150, 12189.72
268.4270, 12137.88
269.6400, 12108.00
270.8520, 12069.00
272.0640, 12144.00
273.2760, 12270.00
274.4880, 12347.00
275.7000, 12525.00
276.9120, 12575.00
278.1230, 12704.90
279.3340, 12771.08
280.5450, 12916.00
281.7560, 13074.00
282.9670, 13164.05
284.1780, 13286.01
285.3880, 13403.00
286.5980, 13475.00
287.8090, 13591.00
289.0190, 13678.00
290.2290, 13578.00
291.4380, 13753.00
292.6480, 13924.00
293.8570, 14024.00
295.0670, 13924.00
296.2760, 13727.00
297.4850, 13801.00
298.6930, 13748.85
299.9020, 13900.00
301.1110, 13753.00
302.3190, 13648.00
303.5270, 13501.00
304.7350, 13367.30
305.9430, 13410.16
307.1510, 13412.87
308.3580, 13377.64
309.5660, 13190.62
310.7730, 13199.59
311.9800, 13130.04
313.1870, 13057.26
314.3940, 13093.82
315.6010, 12928.90
316.8070, 12963.77
318.0130, 12918.90
319.2200, 12910.49
320.4260, 12823.09
321.6310, 12760.14
322.8370, 12776.20
324.0430, 12748.49
325.2480, 12652.04
326.4540, 12645.98
327.6590, 12478.39
328.8640, 12452.58
330.0680, 12487.99
331.2730, 12395.51
332.4780, 12390.94
333.6820, 12352.93
334.8860, 12214.00
336.0900, 12236.00
337.2940, 12431.00
338.4980, 12580.00
339.7010, 12488.00
340.9050, 12642.00
342.1080, 12603.00
343.3110, 12639.00
344.5140, 12863.00
345.7170, 12920.00
346.9200, 13028.00
348.1220, 13196.00
349.3240, 13287.00
350.5270, 13441.00
351.7290, 13487.00
352.9310, 13609.00
354.1320, 13699.00
355.3340, 13559.00
356.5350, 13807.00
357.7370, 13570.00
358.9380, 13820.00
360.1390, 13754.00
361.3400, 13690.00
362.5400, 13644.00
363.7410, 13600.93
364.9410, 13616.00
366.1410, 13533.00
367.3410, 13568.00
368.5410, 13536.00
369.7410, 13468.00
370.9400, 13475.00
372.1400, 13441.00
373.3390, 13407.84
374.5380, 13469.00
375.7370, 13368.00
376.9360, 13192.00
378.1350, 13196.00
379.3330, 13010.00
380.5310, 12771.00
381.7300, 12591.00
382.9280, 12623.00
384.1260, 12255.00
385.3230, 12241.00
386.5210, 12162.00
387.7180, 11825.00
388.9160, 11862.00
390.1130, 11705.00
391.3100, 11438.00
392.5060, 11518.00
393.7030, 11288.61
394.9000, 11242.39
396.0960, 11026.00
397.2920, 11172.00
398.4880, 11071.00
399.6840, 11143.00
400.8800, 10839.00
402.0750, 10869.00
403.2710, 10887.00
404.4660, 10833.00
405.6610, 10882.00
406.8560, 10870.00
408.0510, 10886.00
409.2450, 10806.00
410.4400, 10899.00
411.6340, 10885.00
412.8280, 10865.00
414.0220, 10946.00
415.2160, 11094.00
416.4100, 11097.00
417.6030, 11233.00
418.7970, 11212.00
419.9900, 11299.00
421.1830, 11555.00
422.3760, 11523.00
423.5690, 11666.00
424.7610, 11701.13
425.9540, 11700.00
427.1460, 11714.00
428.3380, 11668.00
429.5300, 11644.00
430.7220, 11578.00
431.9140, 11650.00
433.1050, 11511.00
434.2970, 11256.00
435.4880, 11364.00
436.6790, 11185.00
437.8700, 11180.04
439.0610, 10933.00
440.2510, 11058.00
441.4420, 11033.00
442.6320, 10728.00
443.8220, 10897.00
445.0120, 10793.00
446.2020, 10728.00
447.3910, 10773.00
448.5810, 10734.00
449.7700, 10540.00
450.9600, 10673.00
452.1490, 10497.00
453.3370, 10449.00
454.5260, 10584.00
455.7150, 10481.00
456.9030, 10417.00
458.0910, 10341.00
459.2800, 10175.00
460.4670, 10257.00
461.6550, 10187.31
462.8430, 10271.00
464.0300, 10241.00
465.2180, 9955.000
466.4050, 10054.00
467.5920, 10027.00
468.7790, 9947.000
469.9650, 9969.000
471.1520, 10052.00
472.3380, 10047.00
473.5250, 10162.00
474.7110, 10192.00
475.8970, 10051.00
477.0820, 10094.00
478.2680, 10148.00
479.4540, 10092.00
480.6390, 10204.98
481.8240, 10231.00
483.0090, 10299.00
484.1940, 10333.52
485.3780, 10480.59
486.5630, 10587.58
487.7470, 10656.53
488.9320, 10573.76
490.1160, 10686.92
491.3000, 10721.54
492.4830, 10752.89
493.6670, 10893.63
494.8500, 10832.84
496.0340, 10971.84
497.2170, 11031.07
498.4000, 11126.78
499.5820, 11143.43
500.7650, 11184.53
501.9480, 11268.85
503.1300, 11296.65
504.3120, 11408.64
505.4940, 11482.00
506.6760, 11607.00
507.8580, 11795.00
509.0390, 11990.00
510.2210, 12133.00
511.4020, 12393.00
512.5830, 12117.00
513.7640, 12310.00
514.9450, 12455.00
516.1250, 12457.15
517.3060, 12800.00
518.4860, 12709.00
519.6660, 13098.00
520.8460, 13287.00
522.0260, 13535.00
523.2060, 13589.00
524.3850, 13793.00
525.5650, 14112.00
526.7440, 14386.00
527.9230, 14430.00
529.1020, 14422.00
530.2810, 14526.00
531.4590, 14561.00
532.6380, 14552.10
533.8160, 14677.00
534.9940, 14536.00
536.1720, 14332.00
537.3500, 14322.00
538.5270, 14282.00
539.7050, 14174.00
540.8820, 14152.00
542.0590, 13902.00
543.2360, 13877.00
544.4130, 13770.00
545.5900, 13583.00
546.7660, 13470.00
547.9430, 13338.21
549.1190, 13198.00
550.2950, 13125.00
551.4710, 13057.00
552.6470, 13030.00
553.8220, 12960.00
554.9980, 12720.00
556.1730, 12499.00
557.3480, 12461.00
558.5230, 12443.00
559.6980, 12182.00
560.8730, 12188.00
562.0470, 12144.13
563.2220, 11944.07
564.3960, 12096.00
565.5700, 11685.00
566.7440, 11517.00
567.9170, 11498.00
569.0910, 11360.00
570.2640, 11327.00
571.4380, 11276.00
572.6110, 11072.00
573.7840, 10844.00
574.9570, 10677.00
576.1290, 10618.00
577.3020, 10493.00
578.4740, 10392.05
579.6460, 10271.65
580.8180, 10179.00
581.9900, 10040.00
583.1620, 9879.000
584.3330, 9834.000
585.5040, 9671.000
586.6760, 9618.000
587.8470, 9493.000
589.0180, 9497.000
590.1880, 9506.000
591.3590, 9492.000
592.5290, 9409.000
593.7000, 9404.000
594.8700, 9429.000
596.0400, 9329.000
597.2090, 9321.000
598.3790, 9351.000
599.5490, 9414.000
600.7180, 9337.000
601.8870, 9326.000
603.0560, 9528.000
604.2250, 9482.000
605.3940, 9591.000
606.5620, 9614.000
607.7300, 9678.000
608.8990, 9588.000
610.0670, 9637.000
611.2350, 9713.000
612.4020, 9764.000
613.5700, 9836.000
614.7370, 9982.000
615.9050, 10029.00
617.0720, 10037.00
618.2390, 10262.00
619.4060, 10380.00
620.5720, 10290.00
621.7390, 10485.00
622.9050, 10556.00
624.0710, 10681.00
625.2370, 10830.00
626.4030, 11054.00
627.5690, 10955.00
628.7340, 11069.00
629.9000, 11287.00
631.0650, 11410.00
632.2300, 11574.00
633.3950, 11763.00
634.5600, 11745.00
635.7240, 11991.00
636.8890, 12087.00
638.0530, 12231.00
639.2170, 12550.00
640.3810, 12641.00
641.5450, 12961.00
642.7080, 13125.00
643.8720, 13402.00
645.0350, 13590.00
646.1980, 13979.00
647.3610, 14224.00
648.5240, 14417.00
649.6870, 15024.00
650.8490, 15432.00
652.0120, 15675.00
653.1740, 16383.00
654.3360, 16808.00
655.4980, 17542.00
656.6600, 18195.00
657.8210, 18923.00
658.9830, 19951.00
660.1440, 20579.41
661.3050, 21216.56
662.4660, 21928.00
663.6270, 22179.00
664.7870, 22479.00
665.9480, 22689.00
667.1080, 22534.00
668.2680, 22312.00
669.4280, 21835.00
670.5880, 21300.00
671.7480, 20519.00
672.9070, 20061.00
674.0670, 19180.00
675.2260, 18460.00
676.3850, 17530.00
677.5440, 16938.00
678.7030, 16412.00
679.8610, 15679.00
681.0200, 15282.00
682.1780, 14814.00
683.3360, 14502.00
684.4940, 14193.00
685.6520, 13747.00
686.8090, 13419.00
687.9670, 13255.00
689.1240, 12913.00
690.2810, 12692.00
691.4380, 12612.00
692.5950, 12146.00
693.7520, 12131.00
694.9080, 12085.00
696.0650, 11969.00
697.2210, 11970.00
698.3770, 11814.00
699.5330, 11778.00
700.6880, 11833.00
701.8440, 11731.00
702.9990, 11785.00
704.1550, 11918.00
705.3100, 11884.00
706.4650, 11950.00
707.6190, 12170.00
708.7740, 12242.00
709.9290, 12332.86
711.0830, 12337.00
712.2370, 12464.00
713.3910, 12488.00
714.5450, 12526.00
715.6980, 12673.11
716.8520, 12681.50
718.0050, 12868.00
719.1580, 12802.00
720.3110, 12728.00
721.4640, 12823.00
722.6170, 12678.00
723.7700, 12889.00
724.9220, 12782.37
726.0740, 12633.66
727.2260, 12644.00
728.3780, 12656.00
729.5300, 12510.00
730.6810, 12506.38
731.8330, 12459.00
732.9840, 12435.00
734.1350, 12390.00
735.2860, 12475.00
736.4370, 12632.00
737.5880, 12120.00
738.7380, 11982.00
739.8880, 12054.00
741.0390, 11937.00
742.1890, 11486.00
743.3380, 11639.00
744.4880, 11387.00
745.6380, 11412.00
746.7870, 11328.00
747.9360, 11366.00
749.0850, 11166.97
750.2340, 11137.00
751.3830, 11069.52
752.5310, 10883.00
753.6800, 10907.00
754.8280, 10806.00
755.9760, 10662.00
757.1240, 10735.00
758.2720, 10610.00
759.4190, 10553.00
760.5670, 10596.00
761.7140, 10514.00
762.8610, 10499.00
764.0080, 10532.00
765.1550, 10661.00
766.3020, 10527.00
767.4480, 10571.00
768.5950, 10640.00
769.7410, 10552.00
770.8870, 10452.00
772.0330, 10639.00
773.1780, 10588.00
774.3240, 10482.00
775.4690, 10510.00
776.6140, 10538.00
777.7590, 10641.00
778.9040, 10734.00
780.0490, 10583.00
781.1940, 10743.00
782.3380, 10558.00
783.4820, 10493.00
784.6260, 10642.00
785.7700, 10547.00
786.9140, 10526.00
788.0580, 10443.00
789.2010, 10469.00
790.3450, 10368.00
791.4880, 10381.00
792.6310, 10401.00
793.7730, 10349.00
794.9160, 10322.00
796.0590, 10322.00
797.2010, 10224.00
798.3430, 10123.00
799.4850, 10131.05
800.6270, 10212.00
801.7690, 10123.00
802.9100, 10047.00
804.0520, 10073.00
805.1930, 9996.000
806.3340, 10066.00
807.4750, 9952.000
808.6160, 9924.000
809.7560, 9821.000
810.8970, 9790.000
812.0370, 9903.000
813.1770, 9970.000
814.3170, 9828.000
815.4570, 9878.000
816.5960, 9753.000
817.7360, 9782.000
818.8750, 9872.000
820.0140, 10049.00
821.1530, 9938.340
822.2920, 9836.000
823.4310, 9790.000
824.5690, 9731.970
825.7070, 9693.459
826.8460, 9689.000
827.9840, 9674.000
829.1220, 9685.000
830.2590, 9736.000
831.3970, 9658.000
832.5340, 9777.000
833.6710, 9616.000
834.8080, 9657.000
835.9450, 9627.000
837.0820, 9702.000
838.2190, 9906.000
839.3550, 9838.000
840.4910, 9911.000
841.6270, 9886.000
842.7630, 9861.000
843.8990, 9948.000
845.0350, 9939.000
846.1700, 10000.00
847.3060, 9885.000
848.4410, 9929.000
849.5760, 10174.00
850.7100, 10091.00
851.8450, 10152.00
852.9800, 10175.00
854.1140, 10112.00
855.2480, 10339.00
856.3820, 10381.00
857.5160, 10380.00
858.6500, 10407.00
859.7830, 10408.00
860.9170, 10858.00
862.0500, 10653.00
863.1830, 10720.00
864.3160, 10867.99
865.4480, 10761.03
866.5810, 11007.00
867.7130, 10809.00
868.8460, 10832.00
869.9780, 10997.00
871.1100, 11184.00
872.2410, 11189.00
873.3730, 11166.00
874.5050, 11199.00
875.6360, 11249.35
876.7670, 11353.00
877.8980, 11373.00
879.0290, 11510.00
880.1590, 11538.00
881.2900, 11628.00
882.4200, 11642.00
883.5500, 11788.00
884.6800, 11795.00
885.8100, 12215.00
886.9400, 12343.00
888.0690, 12252.70
889.1990, 12500.00
890.3280, 12140.00
891.4570, 12135.00
892.5860, 12384.00
893.7140, 12447.00
894.8430, 12447.00
895.9710, 12449.00
897.1000, 12540.00
898.2280, 12724.00
899.3560, 12779.00
900.4830, 12763.00
901.6110, 12696.00
902.7380, 12846.00
903.8660, 12957.00
904.9930, 13080.00
906.1200, 13180.82
907.2460, 13278.09
908.3730, 13329.00
909.5000, 13553.00
910.6260, 13566.00
911.7520, 13901.00
912.8780, 13857.00
914.0040, 14005.00
915.1290, 14135.00
916.2550, 14231.00
917.3800, 14331.98
918.5050, 14370.80
919.6300, 14458.00
920.7550, 14398.00
921.8800, 14382.00
923.0040, 14356.00
924.1290, 14517.00
925.2530, 14323.00
926.3770, 14364.00
927.5010, 14141.00
928.6250, 14299.00
929.7480, 14185.00
930.8720, 14158.00
931.9950, 14166.00
933.1180, 14311.00
934.2410, 14182.49
935.3640, 14189.00
936.4860, 14009.00
937.6090, 13997.00
938.7310, 13902.00
939.8530, 13966.00
940.9750, 13952.00
942.0970, 13728.00
943.2180, 13919.00
944.3400, 13908.00
945.4610, 13886.00
946.5820, 13700.00
947.7030, 13910.00
948.8240, 13743.00
949.9450, 13765.00
951.0650, 13769.00
952.1860, 13729.00
953.3060, 13754.00
954.4260, 13803.00
955.5460, 13851.00
956.6650, 13719.00
957.7850, 13668.00
958.9040, 13791.00
960.0230, 13697.00
961.1420, 13801.00
962.2610, 13759.91
963.3800, 13705.00
964.4990, 13673.00
965.6170, 13619.00
966.7350, 13531.00
967.8530, 13539.43
968.9710, 13414.00
970.0890, 13487.00
971.2070, 13509.00
972.3240, 13388.00
973.4410, 13214.00
974.5580, 13377.00
975.6750, 13371.00
976.7920, 13252.00
977.9090, 13429.00
979.0250, 13310.00
980.1410, 13210.00
981.2580, 13240.00
982.3740, 13295.00
983.4890, 13115.00
984.6050, 13435.00
985.7200, 13355.15
986.8360, 13357.00
987.9510, 13462.00
989.0660, 13419.00
990.1810, 13525.00
991.2950, 13445.00
992.4100, 13352.00
993.5240, 13466.00
994.6390, 13706.00
995.7530, 13874.00
996.8660, 13907.89
997.9800, 13862.00
999.0940, 13902.00
1000.207, 14053.00
1001.320, 13949.00
1002.433, 13974.00
1003.546, 14027.00
1004.659, 14305.00
1005.772, 14037.00
1006.884, 14129.00
1007.996, 14243.00
1009.108, 14136.00
1010.220, 14291.00
1011.332, 14336.00
1012.444, 14316.00
1013.555, 14368.00
1014.666, 14374.00
1015.777, 14430.00
1016.888, 14440.38
1017.999, 14464.00
1019.110, 14454.00
1020.220, 14414.00
1021.331, 14385.00
1022.441, 14318.00
1023.551, 14274.00
1024.661, 14456.00
1025.770, 14293.00
1026.880, 14313.00
1027.989, 14328.00
1029.098, 14223.00
1030.207, 14395.00
1031.316, 14392.00
1032.425, 14182.00
1033.533, 14249.00
1034.642, 14272.00
1035.750, 14160.00
1036.858, 14119.00
1037.966, 14083.90
1039.073, 14029.00
1040.181, 14021.00
1041.288, 14064.00
1042.396, 14094.00
1043.503, 14088.00
1044.610, 14106.00
1045.716, 14073.00
1046.823, 14041.00
1047.929, 13954.00
1049.036, 13995.00
1050.142, 13934.00
1051.248, 13929.00
1052.353, 13839.00
1053.459, 13927.00
1054.564, 13950.00
1055.670, 13901.15
1056.775, 13875.75
1057.880, 13839.00
1058.985, 13665.00
1060.089, 13621.00
1061.194, 13409.00
1062.298, 13459.00
1063.402, 13296.00
1064.506, 13271.00
1065.610, 13255.00
1066.713, 13019.00
1067.817, 12937.00
1068.920, 12991.00
1070.023, 12838.00
1071.126, 12684.00
1072.229, 12640.00
1073.332, 12539.00
1074.435, 12501.00
1075.537, 12377.00
1076.639, 12297.89
1077.741, 12257.66
1078.843, 12132.00
1079.945, 12141.00
1081.046, 12119.00
1082.148, 11991.00
1083.249, 11959.00
1084.350, 11955.00
1085.451, 11919.00
1086.551, 11957.00
1087.652, 11762.00
1088.752, 11685.00
1089.853, 11713.00
1090.953, 11767.00
1092.053, 11704.00
1093.152, 11589.00
1094.252, 11495.00
1095.351, 11528.00
1096.451, 11525.00
1097.550, 11451.00
1098.649, 11331.00
1099.748, 11299.00
1100.846, 11257.00
1101.945, 11193.00
1103.043, 11169.00
1104.141, 11115.00
1105.239, 11101.24
1106.337, 10960.58
1107.434, 11014.88
1108.532, 11029.01
1109.629, 11005.18
1110.726, 10829.59
1111.823, 10849.97
1112.920, 10791.82
1114.017, 10730.44
1115.113, 10778.44
1116.210, 10624.93
1117.306, 10671.19
1118.402, 10637.72
1119.498, 10640.73
1120.593, 10564.77
1121.689, 10513.18
1122.784, 10540.66
1123.879, 10524.38
1124.974, 10439.32
1126.069, 10444.70
1127.164, 10288.50
1128.259, 10274.08
1129.353, 10320.87
1130.447, 10239.82
1131.541, 10246.67
1132.635, 10220.04
1133.729, 10041.27
1134.822, 10127.13
1135.916, 10098.52
1137.009, 9962.000
1138.102, 9942.000
1139.195, 9900.000
1140.288, 9954.000
1141.380, 9868.000
1142.473, 9918.000
1143.565, 9884.183
1144.657, 9855.000
1145.749, 9835.000
1146.841, 9824.000
1147.932, 9796.000
1149.024, 9663.000
1150.115, 9792.000
1151.206, 9819.000
1152.297, 9615.000
1153.388, 9649.000
1154.479, 9693.000
1155.569, 9705.000
1156.659, 9640.000
1157.750, 9642.000
1158.839, 9642.000
1159.929, 9589.000
1161.019, 9567.000
1162.108, 9595.000
1163.198, 9544.000
1164.287, 9563.781
1165.376, 9517.000
1166.465, 9605.000
1167.553, 9547.000
1168.642, 9624.000
1169.730, 9583.228
1170.818, 9577.802
1171.906, 9543.000
1172.994, 9500.000
1174.082, 9553.000
1175.170, 9415.000
1176.257, 9517.000
1177.344, 9529.000
1178.431, 9466.000
1179.518, 9507.000
1180.605, 9370.000
1181.691, 9560.000
1182.778, 9510.000
1183.864, 9393.000
1184.950, 9434.000
1186.036, 9513.000
1187.122, 9336.000
1188.207, 9528.000
1189.292, 9394.000
1190.378, 9476.000
1191.463, 9514.000
1192.548, 9471.000
1193.632, 9329.000
1194.717, 9430.000
1195.801, 9413.000
1196.886, 9468.000
1197.970, 9431.000
1199.054, 9571.000
1200.137, 9467.000
1201.221, 9454.000
1202.305, 9516.000
1203.388, 9398.000
1204.471, 9388.000
1205.554, 9445.000
1206.637, 9372.000
1207.719, 9294.000
1208.802, 9427.000
1209.884, 9351.000
1210.966, 9439.000
1212.048, 9426.000
1213.130, 9353.000
1214.212, 9375.000
1215.293, 9414.000
1216.374, 9397.987
1217.456, 9487.000
1218.536, 9458.000
1219.617, 9450.000
1220.698, 9533.000
1221.778, 9453.904
1222.859, 9486.000
1223.939, 9391.000
1225.019, 9392.000
1226.099, 9433.000
1227.178, 9576.000
1228.258, 9415.000
1229.337, 9573.000
1230.417, 9435.000
1231.496, 9432.000
1232.574, 9429.000
1233.653, 9390.313
1234.732, 9373.838
1235.810, 9465.351
1236.888, 9516.721
1237.966, 9530.104
1239.044, 9391.728
1240.122, 9449.316
1241.199, 9428.372
1242.277, 9404.207
1243.354, 9489.378
1244.431, 9373.075
1245.508, 9456.512
1246.585, 9460.216
1247.661, 9500.412
1248.738, 9461.589
1249.814, 9447.173
1250.890, 9511.801
1251.966, 9532.661
1253.042, 9484.742
1254.117, 9527.258
1255.193, 9408.194
1256.268, 9430.919
1257.343, 9514.819
1258.418, 9470.873
1259.493, 9514.834
1260.567, 9525.314
1261.642, 9383.645
1262.716, 9506.580
1263.790, 9515.083
1264.864, 9406.087
1265.938, 9519.957
1267.011, 9427.159
1268.085, 9408.130
1269.158, 9444.614
1270.231, 9423.228
1271.304, 9493.082
1272.377, 9475.037
1273.450, 9449.139
1274.522, 9457.514
1275.594, 9368.769
1276.666, 9460.199
1277.738, 9428.556
1278.810, 9458.089
1279.882, 9501.489
1280.953, 9438.713
1282.025, 9488.344
1283.096, 9363.656
1284.167, 9384.827
1285.238, 9390.293
1286.308, 9488.987
1287.379, 9365.149
1288.449, 9382.269
1289.519, 9459.404
1290.589, 9452.562
1291.659, 9480.833
1292.729, 9405.157
1293.798, 9427.131
1294.868, 9422.188
1295.937, 9510.255
1297.006, 9524.895
1298.075, 9450.983
1299.143, 9377.448
1300.212, 9472.208
1301.280, 9407.455
1302.348, 9498.000
1303.416, 9372.000
1304.484, 9495.000
1305.552, 9553.000
1306.620, 9552.000
1307.687, 9410.000
1308.754, 9466.000
1309.821, 9381.000
1310.888, 9461.000
1311.955, 9519.000
1313.021, 9520.000
1314.088, 9621.000
1315.154, 9525.000
1316.220, 9450.000
1317.286, 9590.000
1318.352, 9549.000
1319.417, 9477.000
1320.483, 9624.000
1321.548, 9533.000
1322.613, 9515.000
1323.678, 9451.000
1324.743, 9486.440
1325.807, 9510.000
1326.872, 9547.000
1327.936, 9570.446
1329.000, 9516.125
1330.064, 9555.000
1331.128, 9551.000
1332.191, 9630.000
1333.255, 9574.000
1334.318, 9600.570
1335.381, 9601.563
1336.444, 9600.000
1337.507, 9591.000
1338.569, 9599.000
1339.632, 9599.000
1340.694, 9517.000
1341.756, 9528.384
1342.818, 9427.000
1343.880, 9483.000
1344.941, 9551.000
1346.003, 9525.000
1347.064, 9526.000
1348.125, 9456.000
1349.186, 9501.000
1350.247, 9605.000
1351.308, 9644.000
1352.368, 9591.000
1353.428, 9551.000
1354.489, 9467.000
1355.549, 9545.000
1356.608, 9407.000
1357.668, 9523.000
1358.727, 9650.000
1359.787, 9542.788
1360.846, 9606.926
1361.905, 9510.000
1362.964, 9493.000
1364.022, 9609.000
1365.081, 9435.000
1366.139, 9605.000
1367.197, 9696.000
1368.255, 9522.000
1369.313, 9434.000
1370.371, 9676.000
1371.428, 9521.000
1372.486, 9592.000
1373.543, 9584.000
1374.600, 9493.000
1375.657, 9544.000
1376.713, 9412.000
1377.770, 9541.000
1378.826, 9611.000
1379.882, 9508.000
1380.938, 9533.000
1381.994, 9552.000
1383.050, 9547.000
1384.106, 9671.000
1385.161, 9591.000
1386.216, 9514.000
1387.271, 9596.000
1388.326, 9984.000
1389.381, 9544.000
1390.435, 9809.000
1391.490, 9706.967
1392.544, 9616.000
1393.598, 9570.000
1394.652, 9653.000
1395.705, 9623.000
1396.759, 9606.000
1397.812, 9671.000
1398.866, 9618.000
1399.919, 9684.000
1400.972, 9724.000
1402.024, 9702.193
1403.077, 9595.000
1404.129, 9704.000
1405.181, 9570.000
1406.233, 9576.000
1407.285, 9664.000
1408.337, 9635.000
1409.389, 9641.000
1410.440, 9710.000
1411.491, 9757.000
1412.542, 9758.729
1413.593, 9685.000
1414.644, 9757.000
1415.695, 9628.000
1416.745, 9586.000
1417.795, 9733.000
1418.845, 9676.000
1419.895, 9773.000
1420.945, 9604.000
1421.995, 9715.000
1423.044, 9585.000
1424.093, 9604.935
1425.142, 9773.000
1426.191, 9654.000
1427.240, 9752.000
1428.289, 9835.000
1429.337, 9811.000
1430.385, 9902.023
1431.433, 9685.000
1432.481, 9933.000
1433.529, 9748.000
1434.577, 9607.000
1435.624, 9829.000
1436.672, 9740.188
1437.719, 9720.000
1438.766, 9869.000
1439.812, 9744.000
1440.859, 9782.000
1441.905, 9858.000
1442.952, 9795.000
1443.998, 9825.374
1445.044, 9915.000
1446.090, 9786.000
1447.135, 9835.000
1448.181, 9797.000
1449.226, 9736.000
1450.271, 9823.000
1451.316, 9812.000
1452.361, 9729.000
1453.405, 9672.000
1454.450, 9840.000
1455.494, 9871.000
1456.538, 9742.000
1457.582, 9913.000
1458.626, 9792.000
1459.670, 9774.000
1460.713, 9755.000
1461.757, 9723.238
1462.800, 9752.815
1463.843, 9751.000
1464.886, 9783.000
1465.928, 9857.000
1466.971, 9809.000
1468.013, 9823.000
1469.055, 9811.000
1470.097, 9872.000
1471.139, 9898.000
1472.181, 9812.000
1473.222, 9916.000
1474.263, 9929.171
1475.305, 9865.095
1476.346, 10030.00
1477.386, 9829.000
1478.427, 9822.000
1479.468, 9969.000
1480.508, 10127.00
1481.548, 9917.000
1482.588, 9806.000
1483.628, 9862.000
1484.668, 9817.000
1485.707, 9819.484
1486.747, 9952.000
1487.786, 9851.000
1488.825, 9862.000
1489.864, 9885.000
1490.902, 9996.000
1491.941, 9916.000
1492.979, 9952.000
1494.017, 9896.000
1495.055, 9906.000
1496.093, 9933.000
1497.131, 9997.000
1498.168, 10007.00
1499.206, 9918.000
1500.243, 10017.14
1501.280, 9994.000
1502.317, 10052.05
1503.354, 10010.00
1504.390, 9855.000
1505.426, 9931.000
1506.463, 9962.000
1507.499, 10059.00
1508.535, 9893.000
1509.570, 9949.000
1510.606, 9997.000
1511.641, 9914.000
1512.676, 9962.000
1513.711, 9887.000
1514.746, 9946.000
1515.781, 9910.000
1516.816, 9962.000
1517.850, 9911.000
1518.884, 9974.000
1519.918, 9935.000
1520.952, 9930.000
1521.986, 9918.000
1523.019, 9876.000
1524.053, 9942.000
1525.086, 9902.000
1526.119, 9954.000
1527.152, 9993.000
1528.185, 9999.000
1529.217, 9950.000
1530.250, 9971.467
1531.282, 10059.12
1532.314, 10106.62
1533.346, 10116.14
1534.377, 9973.908
1535.409, 10027.63
1536.440, 10002.83
1537.472, 9974.803
1538.503, 10056.11
1539.534, 9935.952
1540.564, 10015.53
1541.595, 10015.38
1542.625, 10051.72
1543.656, 10009.04
1544.686, 9990.767
1545.716, 10051.54
1546.745, 10068.55
1547.775, 10016.77
1548.804, 10055.44
1549.834, 9932.520
1550.863, 9951.393
1551.892, 10031.44
1552.920, 9983.646
1553.949, 10023.76
1554.977, 10030.39
1556.006, 9884.867
1557.034, 10003.96
1558.062, 10008.61
1559.089, 9895.771
1560.117, 10005.79
1561.144, 9909.151
1562.172, 9886.274
1563.199, 9918.915
1564.226, 9893.685
1565.252, 9959.699
1566.279, 9975.000
1567.305, 9954.000
1568.332, 9901.000
1569.358, 10012.00
1570.384, 9952.000
1571.409, 9997.000
##END=



