##NAMES=Edenite
##RRUFFID=R060029
##IDEAL CHEMISTRY=NaCa_2_Mg_5_(Si_7_Al)O_22_(OH)_2_
##LOCALITY=Renfrew County, Ontario, Canada
##OWNER=RRUFF
##SOURCE=University of Arizona Mineral Museum
##DESCRIPTION=Black prismatic
##STATUS=The identification of this mineral has been confirmed by X-ray diffraction and chemical analysis
##URL=rruff.info/R060029
##MEASURED CHEMISTRY=(Na_0.62_K_0.34_[box]_0.04_)(Ca_0.86_Na_0.14_)_2_(Mg_0.57_Fe^2+^_0.30_Fe^3+^_0.07_Al_0.05_Ti_0.01_Mn_0.01_)_5_(Si_6.61_Al_1.39_)O_22_((OH)_0.69_F_0.31_)_2_
##PIN_ID=M00136
##ORIENTATION=Laser parallel to b* (0 1 0). Fiducial mark perpendicular to laser is parallel to c [0 0 1]
261.1490, 13324.81
262.3630, 13388.04
263.5760, 13380.60
264.7890, 13405.50
266.0020, 13360.37
267.2150, 13336.87
268.4270, 13383.44
269.6400, 13391.20
270.8520, 13338.01
272.0640, 13416.00
273.2760, 13389.00
274.4880, 13381.25
275.7000, 13513.50
276.9120, 13610.16
278.1230, 13673.10
279.3340, 13601.54
280.5450, 13703.67
281.7560, 13736.19
282.9670, 13765.86
284.1780, 13972.00
285.3880, 13892.00
286.5980, 14001.00
287.8090, 14019.00
289.0190, 13964.00
290.2290, 14063.00
291.4380, 14222.00
292.6480, 14127.00
293.8570, 14150.00
295.0670, 14100.00
296.2760, 14022.00
297.4850, 14060.00
298.6930, 14046.00
299.9020, 13878.00
301.1110, 14068.00
302.3190, 14027.00
303.5270, 14146.00
304.7350, 13824.00
305.9430, 14010.00
307.1510, 13904.00
308.3580, 13647.00
309.5660, 13710.00
310.7730, 13618.00
311.9800, 13727.00
313.1870, 13549.00
314.3940, 13521.00
315.6010, 13610.00
316.8070, 13540.00
318.0130, 13503.00
319.2200, 13532.00
320.4260, 13287.00
321.6310, 13615.00
322.8370, 13380.00
324.0430, 13206.00
325.2480, 13350.00
326.4540, 13457.00
327.6590, 13497.00
328.8640, 13484.00
330.0680, 13477.00
331.2730, 13389.00
332.4780, 13403.32
333.6820, 13336.00
334.8860, 13395.00
336.0900, 13397.00
337.2940, 13423.00
338.4980, 13528.00
339.7010, 13459.00
340.9050, 13710.00
342.1080, 13546.00
343.3110, 13827.00
344.5140, 13874.00
345.7170, 13947.00
346.9200, 13976.00
348.1220, 14166.00
349.3240, 14119.00
350.5270, 14281.00
351.7290, 14580.00
352.9310, 14727.00
354.1320, 14697.00
355.3340, 14872.00
356.5350, 14892.00
357.7370, 14764.00
358.9380, 14852.29
360.1390, 14828.00
361.3400, 14875.00
362.5400, 14893.00
363.7410, 14996.00
364.9410, 14969.65
366.1410, 14942.45
367.3410, 14893.00
368.5410, 14882.00
369.7410, 14723.00
370.9400, 14826.00
372.1400, 14688.00
373.3390, 14694.00
374.5380, 14598.00
375.7370, 14536.00
376.9360, 14572.00
378.1350, 14443.47
379.3330, 14530.00
380.5310, 14308.00
381.7300, 14055.00
382.9280, 14066.00
384.1260, 13851.00
385.3230, 13857.00
386.5210, 13745.00
387.7180, 13548.00
388.9160, 13776.00
390.1130, 13569.00
391.3100, 13487.00
392.5060, 13489.00
393.7030, 13446.00
394.9000, 13207.00
396.0960, 13222.00
397.2920, 13166.00
398.4880, 13335.00
399.6840, 13215.22
400.8800, 13211.67
402.0750, 13097.00
403.2710, 13111.00
404.4660, 13098.00
405.6610, 13081.00
406.8560, 13093.60
408.0510, 12957.00
409.2450, 13067.00
410.4400, 13146.00
411.6340, 13059.00
412.8280, 13223.00
414.0220, 13254.00
415.2160, 13174.00
416.4100, 13281.00
417.6030, 13225.00
418.7970, 13348.00
419.9900, 13451.00
421.1830, 13469.00
422.3760, 13448.00
423.5690, 13562.00
424.7610, 13522.00
425.9540, 13469.00
427.1460, 13505.00
428.3380, 13465.48
429.5300, 13529.00
430.7220, 13424.00
431.9140, 13384.00
433.1050, 13311.27
434.2970, 13217.00
435.4880, 13256.00
436.6790, 13251.00
437.8700, 13292.00
439.0610, 13134.00
440.2510, 13059.00
441.4420, 13006.00
442.6320, 13090.00
443.8220, 12977.00
445.0120, 12992.00
446.2020, 12975.00
447.3910, 12978.00
448.5810, 12860.00
449.7700, 12819.00
450.9600, 12770.00
452.1490, 12839.00
453.3370, 12634.00
454.5260, 12821.00
455.7150, 12862.00
456.9030, 12726.00
458.0910, 12688.00
459.2800, 12538.00
460.4670, 12652.00
461.6550, 12555.00
462.8430, 12537.00
464.0300, 12608.00
465.2180, 12595.00
466.4050, 12466.00
467.5920, 12369.00
468.7790, 12643.00
469.9650, 12402.00
471.1520, 12556.00
472.3380, 12634.00
473.5250, 12574.00
474.7110, 12596.42
475.8970, 12653.00
477.0820, 12494.00
478.2680, 12578.00
479.4540, 12581.00
480.6390, 12579.00
481.8240, 12638.00
483.0090, 12722.00
484.1940, 12719.00
485.3780, 12746.00
486.5630, 12752.00
487.7470, 12904.00
488.9320, 13010.00
490.1160, 13085.86
491.3000, 13231.00
492.4830, 13287.00
493.6670, 13372.00
494.8500, 13483.00
496.0340, 13434.00
497.2170, 13536.00
498.4000, 13465.00
499.5820, 13661.00
500.7650, 13771.00
501.9480, 13907.00
503.1300, 13922.00
504.3120, 14139.00
505.4940, 14187.66
506.6760, 14319.00
507.8580, 14317.00
509.0390, 14457.00
510.2210, 14429.00
511.4020, 14575.00
512.5830, 14660.00
513.7640, 14867.00
514.9450, 14903.00
516.1250, 14883.00
517.3060, 15084.00
518.4860, 15254.00
519.6660, 15343.00
520.8460, 15804.00
522.0260, 15828.00
523.2060, 15918.00
524.3850, 15796.00
525.5650, 16084.00
526.7440, 16229.00
527.9230, 16228.00
529.1020, 16182.00
530.2810, 16173.00
531.4590, 16090.00
532.6380, 16266.00
533.8160, 16221.00
534.9940, 16311.00
536.1720, 16222.00
537.3500, 16012.00
538.5270, 16172.00
539.7050, 15933.00
540.8820, 15891.00
542.0590, 16005.00
543.2360, 15912.00
544.4130, 15922.00
545.5900, 15679.00
546.7660, 15741.00
547.9430, 15700.00
549.1190, 15696.00
550.2950, 15463.00
551.4710, 15465.00
552.6470, 15506.00
553.8220, 15382.00
554.9980, 15472.00
556.1730, 15346.00
557.3480, 15297.00
558.5230, 15129.00
559.6980, 15059.00
560.8730, 15086.00
562.0470, 15110.00
563.2220, 14843.00
564.3960, 14833.00
565.5700, 14677.00
566.7440, 14736.00
567.9170, 14509.00
569.0910, 14478.00
570.2640, 14256.00
571.4380, 14165.24
572.6110, 14065.57
573.7840, 13926.00
574.9570, 13857.00
576.1290, 13672.00
577.3020, 13539.00
578.4740, 13420.00
579.6460, 13290.01
580.8180, 13188.00
581.9900, 13096.00
583.1620, 12987.00
584.3330, 12933.00
585.5040, 12831.00
586.6760, 12703.00
587.8470, 12729.00
589.0180, 12707.00
590.1880, 12566.00
591.3590, 12423.00
592.5290, 12565.00
593.7000, 12573.00
594.8700, 12422.00
596.0400, 12685.00
597.2090, 12580.00
598.3790, 12609.00
599.5490, 12633.00
600.7180, 12586.00
601.8870, 12578.00
603.0560, 12553.00
604.2250, 12615.00
605.3940, 12759.00
606.5620, 12659.00
607.7300, 12999.85
608.8990, 12892.02
610.0670, 12861.48
611.2350, 12888.00
612.4020, 12766.00
613.5700, 12863.00
614.7370, 13041.00
615.9050, 12939.00
617.0720, 12978.00
618.2390, 13070.00
619.4060, 13022.00
620.5720, 13107.00
621.7390, 13177.00
622.9050, 13329.00
624.0710, 13390.00
625.2370, 13298.00
626.4030, 13408.00
627.5690, 13442.16
628.7340, 13530.53
629.9000, 13636.00
631.0650, 13750.00
632.2300, 13949.00
633.3950, 14000.00
634.5600, 14059.00
635.7240, 14072.00
636.8890, 14136.00
638.0530, 14412.00
639.2170, 14278.00
640.3810, 14651.00
641.5450, 14644.00
642.7080, 14837.00
643.8720, 15098.00
645.0350, 15188.00
646.1980, 15341.06
647.3610, 15546.00
648.5240, 15618.00
649.6870, 15819.00
650.8490, 16136.00
652.0120, 16536.00
653.1740, 16740.00
654.3360, 17138.00
655.4980, 17552.00
656.6600, 17906.00
657.8210, 18407.00
658.9830, 18830.00
660.1440, 19455.00
661.3050, 19915.00
662.4660, 20251.78
663.6270, 20592.07
664.7870, 20703.00
665.9480, 20905.00
667.1080, 20775.00
668.2680, 20610.00
669.4280, 20612.00
670.5880, 20133.00
671.7480, 19705.00
672.9070, 19499.00
674.0670, 18953.00
675.2260, 18649.00
676.3850, 18148.00
677.5440, 17826.00
678.7030, 17413.00
679.8610, 17121.43
681.0200, 16881.00
682.1780, 16632.00
683.3360, 16594.00
684.4940, 16441.00
685.6520, 16339.00
686.8090, 16184.00
687.9670, 15774.00
689.1240, 15902.00
690.2810, 15680.00
691.4380, 15740.00
692.5950, 15544.00
693.7520, 15434.00
694.9080, 15610.00
696.0650, 15697.00
697.2210, 15402.00
698.3770, 15394.00
699.5330, 15448.00
700.6880, 15739.00
701.8440, 15600.00
702.9990, 15816.02
704.1550, 15885.49
705.3100, 16028.00
706.4650, 16101.00
707.6190, 16115.00
708.7740, 16319.00
709.9290, 16312.00
711.0830, 16538.00
712.2370, 16555.00
713.3910, 16492.00
714.5450, 16663.00
715.6980, 16810.00
716.8520, 16935.00
718.0050, 16901.00
719.1580, 17070.00
720.3110, 17091.00
721.4640, 17045.00
722.6170, 17197.00
723.7700, 17077.00
724.9220, 17009.00
726.0740, 17008.00
727.2260, 16988.14
728.3780, 17179.00
729.5300, 17028.00
730.6810, 16988.00
731.8330, 16966.00
732.9840, 16839.00
734.1350, 16737.00
735.2860, 16679.00
736.4370, 16568.82
737.5880, 16463.70
738.7380, 16382.00
739.8880, 16208.00
741.0390, 16078.00
742.1890, 15897.00
743.3380, 15706.00
744.4880, 15700.00
745.6380, 15610.00
746.7870, 15420.80
747.9360, 15513.00
749.0850, 15065.00
750.2340, 15111.00
751.3830, 14969.00
752.5310, 14932.00
753.6800, 14885.00
754.8280, 14776.00
755.9760, 14642.00
757.1240, 14641.00
758.2720, 14577.90
759.4190, 14600.00
760.5670, 14564.00
761.7140, 14492.00
762.8610, 14507.00
764.0080, 14644.00
765.1550, 14455.00
766.3020, 14542.62
767.4480, 14578.49
768.5950, 14531.00
769.7410, 14659.00
770.8870, 14633.00
772.0330, 14590.00
773.1780, 14514.00
774.3240, 14492.00
775.4690, 14594.00
776.6140, 14717.00
777.7590, 14658.77
778.9040, 14655.00
780.0490, 14600.00
781.1940, 14610.00
782.3380, 14584.00
783.4820, 14606.00
784.6260, 14355.00
785.7700, 14509.00
786.9140, 14431.00
788.0580, 14543.00
789.2010, 14477.00
790.3450, 14647.00
791.4880, 14475.00
792.6310, 14422.00
793.7730, 14269.00
794.9160, 14229.00
796.0590, 14364.00
797.2010, 14274.21
798.3430, 14391.00
799.4850, 14294.00
800.6270, 14216.00
801.7690, 14234.00
802.9100, 14115.00
804.0520, 14311.00
805.1930, 14160.00
806.3340, 14242.00
807.4750, 14196.00
808.6160, 14039.00
809.7560, 14289.00
810.8970, 14020.00
812.0370, 13955.00
813.1770, 14199.00
814.3170, 14020.00
815.4570, 13882.00
816.5960, 14156.00
817.7360, 13988.00
818.8750, 14061.00
820.0140, 13977.00
821.1530, 13832.00
822.2920, 13961.00
823.4310, 13771.00
824.5690, 13796.00
825.7070, 13850.00
826.8460, 13895.00
827.9840, 13869.00
829.1220, 13741.00
830.2590, 13762.00
831.3970, 13756.00
832.5340, 13876.00
833.6710, 13875.00
834.8080, 13687.00
835.9450, 13852.00
837.0820, 13776.00
838.2190, 13990.00
839.3550, 13903.00
840.4910, 13978.25
841.6270, 14081.00
842.7630, 14045.00
843.8990, 13990.00
845.0350, 13974.00
846.1700, 13980.00
847.3060, 13997.16
848.4410, 14049.00
849.5760, 14085.00
850.7100, 14175.00
851.8450, 14229.00
852.9800, 14284.00
854.1140, 14322.02
855.2480, 14349.06
856.3820, 14342.54
857.5160, 14456.87
858.6500, 14535.61
859.7830, 14580.65
860.9170, 14491.20
862.0500, 14575.43
863.1830, 14590.04
864.3160, 14601.80
865.4480, 14710.45
866.5810, 14640.54
867.7130, 14747.64
868.8460, 14784.11
869.9780, 14852.88
871.1100, 14851.62
872.2410, 14871.96
873.3730, 14962.40
874.5050, 15014.04
875.6360, 15004.68
876.7670, 15075.49
877.8980, 15003.07
879.0290, 15118.00
880.1590, 15161.00
881.2900, 15269.00
882.4200, 15393.00
883.5500, 15434.00
884.6800, 15302.00
885.8100, 15407.00
886.9400, 15452.00
888.0690, 15537.00
889.1990, 15599.00
890.3280, 15415.00
891.4570, 15570.56
892.5860, 15687.59
893.7140, 15769.01
894.8430, 15816.79
895.9710, 15730.02
897.1000, 15816.99
898.2280, 15834.31
899.3560, 15848.78
900.4830, 15960.13
901.6110, 15892.93
902.7380, 16002.74
903.8660, 16041.91
904.9930, 16113.39
906.1200, 16114.84
907.2460, 16137.88
908.3730, 16231.02
909.5000, 16285.37
910.6260, 16278.71
911.7520, 16352.22
912.8780, 16282.51
914.0040, 16481.00
915.1290, 16428.00
916.2550, 16422.00
917.3800, 16616.00
918.5050, 16492.00
919.6300, 16596.00
920.7550, 16507.00
921.8800, 16568.00
923.0040, 16539.00
924.1290, 16639.00
925.2530, 16485.00
926.3770, 16468.00
927.5010, 16534.00
928.6250, 16451.00
929.7480, 16514.00
930.8720, 16503.00
931.9950, 16301.00
933.1180, 16615.00
934.2410, 16463.17
935.3640, 16350.00
936.4860, 16485.00
937.6090, 16223.00
938.7310, 16338.00
939.8530, 16459.00
940.9750, 16378.00
942.0970, 16340.00
943.2180, 16267.00
944.3400, 16252.10
945.4610, 16236.74
946.5820, 16284.00
947.7030, 16290.00
948.8240, 16421.00
949.9450, 16565.00
951.0650, 16521.44
952.1860, 16494.37
953.3060, 16514.00
954.4260, 16461.85
955.5460, 16372.00
956.6650, 16423.00
957.7850, 16370.00
958.9040, 16405.00
960.0230, 16454.00
961.1420, 16455.00
962.2610, 16446.00
963.3800, 16567.00
964.4990, 16506.00
965.6170, 16263.00
966.7350, 16462.00
967.8530, 16291.00
968.9710, 16447.00
970.0890, 16472.00
971.2070, 16359.00
972.3240, 16381.00
973.4410, 16604.00
974.5580, 16501.97
975.6750, 16513.61
976.7920, 16509.00
977.9090, 16493.00
979.0250, 16503.00
980.1410, 16418.35
981.2580, 16546.47
982.3740, 16638.97
983.4890, 16697.76
984.6050, 16622.07
985.7200, 16720.03
986.8360, 16748.43
987.9510, 16773.94
989.0660, 16896.35
990.1810, 16840.18
991.2950, 16961.02
992.4100, 17011.22
993.5240, 17093.73
994.6390, 17106.24
995.7530, 17140.34
996.8660, 17244.46
997.9800, 17309.83
999.0940, 17314.24
1000.207, 17388.00
1001.320, 17394.00
1002.433, 17448.00
1003.546, 17481.00
1004.659, 17512.04
1005.772, 17568.00
1006.884, 17596.00
1007.996, 17612.69
1009.108, 17677.00
1010.220, 17587.00
1011.332, 17580.00
1012.444, 17542.00
1013.555, 17611.00
1014.666, 17548.00
1015.777, 17589.00
1016.888, 17562.00
1017.999, 17573.00
1019.110, 17772.00
1020.220, 17635.22
1021.331, 17699.00
1022.441, 17542.00
1023.551, 17689.00
1024.661, 17775.00
1025.770, 17639.00
1026.880, 17721.00
1027.989, 17600.00
1029.098, 17528.11
1030.207, 17597.46
1031.316, 17631.24
1032.425, 17631.34
1033.533, 17496.93
1034.642, 17536.21
1035.750, 17505.89
1036.858, 17472.72
1037.966, 17536.47
1039.073, 17421.63
1040.181, 17483.84
1041.288, 17475.38
1042.396, 17499.26
1043.503, 17518.00
1044.610, 17479.00
1045.716, 17600.00
1046.823, 17459.00
1047.929, 17602.00
1049.036, 17327.00
1050.142, 17459.00
1051.248, 17653.00
1052.353, 17492.00
1053.459, 17482.00
1054.564, 17488.00
1055.670, 17390.00
1056.775, 17384.00
1057.880, 17420.00
1058.985, 17329.00
1060.089, 17376.00
1061.194, 17438.00
1062.298, 17186.00
1063.402, 17266.00
1064.506, 17121.00
1065.610, 17242.00
1066.713, 17329.00
1067.817, 16953.00
1068.920, 17036.00
1070.023, 16926.00
1071.126, 16865.00
1072.229, 16807.00
1073.332, 16845.00
1074.435, 16732.00
1075.537, 16642.00
1076.639, 16674.00
1077.741, 16745.00
1078.843, 16595.00
1079.945, 16732.00
1081.046, 16528.00
1082.148, 16522.00
1083.249, 16559.00
1084.350, 16441.00
1085.451, 16377.26
1086.551, 16419.76
1087.652, 16426.64
1088.752, 16399.88
1089.853, 16238.57
1090.953, 16251.00
1092.053, 16193.81
1093.152, 16133.81
1094.252, 16170.69
1095.351, 16029.01
1096.451, 15929.00
1097.550, 16111.00
1098.649, 15980.00
1099.748, 15950.00
1100.846, 16043.00
1101.945, 15882.00
1103.043, 15968.00
1104.141, 15718.00
1105.239, 15782.00
1106.337, 15899.00
1107.434, 15549.00
1108.532, 15817.00
1109.629, 15243.42
1110.726, 15535.66
1111.823, 15690.91
1112.920, 15716.52
1114.017, 15224.25
1115.113, 15400.74
1116.210, 15309.21
1117.306, 15206.71
1118.402, 15477.33
1119.498, 15060.39
1120.593, 15325.11
1121.689, 15317.72
1122.784, 15434.87
1123.879, 15282.37
1124.974, 15213.15
1126.069, 15413.68
1127.164, 15464.85
1128.259, 15281.30
1129.353, 15406.39
1130.447, 14980.08
1131.541, 15037.63
1132.635, 15303.95
1133.729, 15133.98
1134.822, 15264.01
1135.916, 15279.78
1137.009, 14776.33
1138.102, 15175.88
1139.195, 15184.92
1140.288, 14790.00
1141.380, 14960.00
1142.473, 14867.00
1143.565, 14756.00
1144.657, 14803.00
1145.749, 14785.00
1146.841, 14706.00
1147.932, 14728.00
1149.024, 14701.74
1150.115, 14619.00
1151.206, 14691.00
1152.297, 14754.00
1153.388, 14742.00
1154.479, 14653.00
1155.569, 14674.00
1156.659, 14547.00
1157.750, 14592.87
1158.839, 14565.56
1159.929, 14647.00
1161.019, 14553.00
1162.108, 14553.00
1163.198, 14520.00
1164.287, 14514.00
1165.376, 14669.00
1166.465, 14620.74
1167.553, 14493.00
1168.642, 14654.00
1169.730, 14388.00
1170.818, 14388.00
1171.906, 14713.00
1172.994, 14523.00
1174.082, 14455.00
1175.170, 14711.00
1176.257, 14962.00
1177.344, 14602.00
1178.431, 14570.00
1179.518, 14503.00
1180.605, 14509.00
1181.691, 14424.00
1182.778, 14420.00
1183.864, 14546.00
1184.950, 14537.00
1186.036, 14448.00
1187.122, 14586.00
1188.207, 14640.00
1189.292, 14496.00
1190.378, 14511.00
1191.463, 14323.00
1192.548, 14326.77
1193.632, 14671.00
1194.717, 14372.00
1195.801, 14469.00
1196.886, 14683.00
1197.970, 14552.76
1199.054, 14455.00
1200.137, 14489.00
1201.221, 14443.76
1202.305, 14424.00
1203.388, 14499.00
1204.471, 14544.00
1205.554, 14602.00
1206.637, 14439.00
1207.719, 14458.00
1208.802, 14453.00
1209.884, 14317.00
1210.966, 14599.00
1212.048, 14395.00
1213.130, 14302.00
1214.212, 14743.00
1215.293, 14439.00
1216.374, 14491.00
1217.456, 14434.00
1218.536, 14444.00
1219.617, 14470.00
1220.698, 14408.00
1221.778, 14538.00
1222.859, 14476.00
1223.939, 14440.00
1225.019, 14497.00
1226.099, 14562.00
1227.178, 14509.00
1228.258, 14410.00
1229.337, 14613.00
1230.417, 14504.00
1231.496, 14371.00
1232.574, 14658.00
1233.653, 14589.00
1234.732, 14403.00
1235.810, 14466.00
1236.888, 14516.00
1237.966, 14462.00
1239.044, 14589.00
1240.122, 14524.00
1241.199, 14624.00
1242.277, 14529.00
1243.354, 14487.00
1244.431, 14538.00
1245.508, 14552.00
1246.585, 14386.00
1247.661, 14560.00
1248.738, 14498.00
1249.814, 14636.00
1250.890, 14676.00
1251.966, 14550.00
1253.042, 14619.00
1254.117, 14413.00
1255.193, 14434.00
1256.268, 14673.00
1257.343, 14602.00
1258.418, 14569.00
1259.493, 14462.00
1260.567, 14454.00
1261.642, 14506.00
1262.716, 14616.00
1263.790, 14500.00
1264.864, 14575.00
1265.938, 14568.00
1267.011, 14559.00
1268.085, 14497.00
1269.158, 14537.00
1270.231, 14565.00
1271.304, 14554.39
1272.377, 14542.41
1273.450, 14591.00
1274.522, 14509.00
1275.594, 14544.00
1276.666, 14613.00
1277.738, 14599.00
1278.810, 14627.00
1279.882, 14695.00
1280.953, 14514.00
1282.025, 14575.00
1283.096, 14589.00
1284.167, 14736.00
1285.238, 14688.00
1286.308, 14499.00
1287.379, 14642.00
1288.449, 14474.00
1289.519, 14605.00
1290.589, 14444.00
1291.659, 14692.00
1292.729, 14730.00
1293.798, 14507.00
1294.868, 14791.00
1295.937, 14647.00
1297.006, 14623.00
1298.075, 14694.00
1299.143, 14693.00
1300.212, 14576.00
1301.280, 14531.00
1302.348, 14573.00
1303.416, 14617.00
1304.484, 14669.00
1305.552, 14636.00
1306.620, 14598.00
1307.687, 14594.00
1308.754, 14691.00
1309.821, 14723.00
1310.888, 14584.00
1311.955, 14822.00
1313.021, 14718.57
1314.088, 14635.00
1315.154, 14724.00
1316.220, 14688.00
1317.286, 14771.00
1318.352, 14669.00
1319.417, 14664.00
1320.483, 14829.00
1321.548, 14764.00
1322.613, 14800.00
1323.678, 14761.00
1324.743, 14745.00
1325.807, 14673.86
1326.872, 14819.39
1327.936, 14902.65
1329.000, 14926.98
1330.064, 14715.91
1331.128, 14808.81
1332.191, 14779.89
1333.255, 14745.98
1334.318, 14881.67
1335.381, 14704.83
1336.444, 14837.83
1337.507, 14847.14
1338.569, 14913.06
1339.632, 14856.41
1340.694, 14837.62
1341.756, 14941.43
1342.818, 14977.36
1343.880, 14906.59
1344.941, 14976.11
1346.003, 14794.99
1347.064, 14833.80
1348.125, 14967.51
1349.186, 14902.90
1350.247, 14974.66
1351.308, 14994.48
1352.368, 14778.28
1353.428, 14972.54
1354.489, 14989.29
1355.549, 14823.78
1356.608, 15003.97
1357.668, 14863.58
1358.727, 14837.62
1359.787, 14897.78
1360.846, 14868.16
1361.905, 14980.08
1362.964, 14955.64
1364.022, 14919.02
1365.081, 14935.57
1366.139, 14801.46
1367.197, 14946.84
1368.255, 14901.31
1369.313, 14950.68
1370.371, 15021.55
1371.428, 14927.72
1372.486, 15008.26
1373.543, 14818.40
1374.600, 14854.79
1375.657, 14866.82
1376.713, 15023.46
1377.770, 14834.92
1378.826, 14865.02
1379.882, 14988.22
1380.938, 14981.15
1381.994, 15028.55
1383.050, 14914.71
1384.106, 14952.34
1385.161, 14948.22
1386.216, 15088.37
1387.271, 15114.62
1388.326, 15003.52
1389.381, 14893.00
1390.435, 15043.53
1391.490, 14946.63
1392.544, 14983.21
1393.598, 14881.93
1394.652, 14899.69
1395.705, 14915.55
1396.759, 14992.44
1397.812, 14884.30
1398.866, 15016.17
1399.919, 15009.32
1400.972, 15043.33
1402.024, 15072.79
1403.077, 14916.10
1404.129, 14912.01
1405.181, 15126.28
1406.233, 15007.54
1407.285, 14956.01
1408.337, 14952.26
1409.389, 15174.01
1410.440, 15186.15
1411.491, 14947.78
1412.542, 15159.58
1413.593, 15094.43
1414.644, 15111.57
1415.695, 15098.69
1416.745, 15094.70
1417.795, 14977.64
1418.845, 15009.58
1419.895, 15162.66
1420.945, 15109.21
1421.995, 15196.10
1423.044, 15027.22
1424.093, 15010.16
1425.142, 15033.39
1426.191, 15071.32
1427.240, 14991.83
1428.289, 15147.17
1429.337, 15146.15
1430.385, 15009.62
1431.433, 15020.09
1432.481, 15006.15
1433.529, 15246.30
1434.577, 15137.10
1435.624, 15003.17
1436.672, 15146.18
1437.719, 15200.42
1438.766, 15134.66
1439.812, 15132.66
1440.859, 15009.69
1441.905, 15072.24
1442.952, 15070.98
1443.998, 15174.85
1445.044, 15052.36
1446.090, 15190.46
1447.135, 15074.04
1448.181, 15222.69
1449.226, 15100.89
1450.271, 15220.01
1451.316, 15051.55
1452.361, 15091.24
1453.405, 15147.42
1454.450, 15256.89
1455.494, 15161.49
1456.538, 15283.60
1457.582, 15214.83
1458.626, 15270.30
1459.670, 15256.88
1460.713, 15157.22
1461.757, 15300.78
1462.800, 15222.51
1463.843, 15294.03
1464.886, 15122.94
1465.928, 15246.77
1466.971, 15307.10
1468.013, 15354.36
1469.055, 15346.60
1470.097, 15314.33
1471.139, 15320.53
1472.181, 15262.53
1473.222, 15110.77
1474.263, 15153.54
1475.305, 15255.15
1476.346, 15327.58
1477.386, 15202.54
1478.427, 15290.02
1479.468, 15281.81
1480.508, 15364.15
1481.548, 15272.91
1482.588, 15388.33
1483.628, 15225.89
1484.668, 15362.29
1485.707, 15417.61
1486.747, 15434.00
1487.786, 15312.00
1488.825, 15344.00
1489.864, 15194.00
1490.902, 15213.00
1491.941, 15252.00
1492.979, 15411.00
1494.017, 15239.00
1495.055, 15315.00
1496.093, 15374.00
1497.131, 15310.36
1498.168, 15354.64
1499.206, 15304.00
1500.243, 15319.00
1501.280, 15325.00
1502.317, 15269.00
1503.354, 15259.00
1504.390, 15327.00
1505.426, 15422.00
1506.463, 15411.00
1507.499, 15410.00
1508.535, 15317.00
1509.570, 15456.00
1510.606, 15406.00
1511.641, 15280.00
1512.676, 15562.00
1513.711, 15447.00
1514.746, 15456.00
1515.781, 15429.00
1516.816, 15352.00
1517.850, 15404.00
1518.884, 15481.00
1519.918, 15507.00
1520.952, 15280.00
1521.986, 15285.09
1523.019, 15428.76
1524.053, 15510.16
1525.086, 15532.64
1526.119, 15319.71
1527.152, 15410.76
1528.185, 15379.99
1529.217, 15344.22
1530.250, 15478.06
1531.282, 15299.37
1532.314, 15430.51
1533.346, 15437.97
1534.377, 15502.04
1535.409, 15443.53
1536.440, 15422.88
1537.472, 15524.85
1538.503, 15558.92
1539.534, 15486.30
1540.564, 15553.97
1541.595, 15370.99
1542.625, 15407.96
1543.656, 15539.81
1544.686, 15473.36
1545.716, 15543.26
1546.745, 15561.23
1547.775, 15343.19
1548.804, 15535.59
1549.834, 15550.50
1550.863, 15383.14
1551.892, 15561.48
1552.920, 15419.24
1553.949, 15391.44
1554.977, 15449.74
1556.006, 15418.28
1557.034, 15528.34
1558.062, 15502.06
1559.089, 15463.60
1560.117, 15478.30
1561.144, 15342.35
1562.172, 15485.88
1563.199, 15438.50
1564.226, 15486.02
1565.252, 15555.05
1566.279, 15459.38
1567.305, 15538.08
1568.332, 15346.37
1569.358, 15380.92
1570.384, 15391.10
1571.409, 15545.90
##END=



