##NAMES=Edenite
##RRUFFID=R060029
##IDEAL CHEMISTRY=NaCa_2_Mg_5_(Si_7_Al)O_22_(OH)_2_
##LOCALITY=Renfrew County, Ontario, Canada
##OWNER=RRUFF
##SOURCE=University of Arizona Mineral Museum
##DESCRIPTION=Black prismatic
##STATUS=The identification of this mineral has been confirmed by X-ray diffraction and chemical analysis
##URL=rruff.info/R060029
##MEASURED CHEMISTRY=(Na_0.62_K_0.34_[box]_0.04_)(Ca_0.86_Na_0.14_)_2_(Mg_0.57_Fe^2+^_0.30_Fe^3+^_0.07_Al_0.05_Ti_0.01_Mn_0.01_)_5_(Si_6.61_Al_1.39_)O_22_((OH)_0.69_F_0.31_)_2_
##PIN_ID=M00136
##ORIENTATION=Laser parallel to b* (0 1 0). Fiducial mark perpendicular to laser is parallel to c [0 0 1]
261.1490, 11919.47
262.3630, 11738.88
263.5760, 11785.18
264.7890, 11740.92
266.0020, 11738.11
267.2150, 11645.56
268.4270, 11580.77
269.6400, 11605.70
270.8520, 11461.00
272.0640, 11452.00
273.2760, 11719.00
274.4880, 12084.00
275.7000, 12294.00
276.9120, 12288.00
278.1230, 12278.00
279.3340, 12390.00
280.5450, 12320.00
281.7560, 12477.00
282.9670, 12469.00
284.1780, 12675.00
285.3880, 12824.00
286.5980, 13093.00
287.8090, 13062.00
289.0190, 13116.00
290.2290, 13176.00
291.4380, 13378.00
292.6480, 13323.00
293.8570, 13262.00
295.0670, 13438.00
296.2760, 13294.00
297.4850, 13137.00
298.6930, 13123.00
299.9020, 13204.00
301.1110, 13130.00
302.3190, 13006.00
303.5270, 12872.00
304.7350, 12786.00
305.9430, 12849.00
307.1510, 12763.00
308.3580, 12755.44
309.5660, 12652.64
310.7730, 12721.00
311.9800, 12426.00
313.1870, 12406.00
314.3940, 12354.00
315.6010, 12164.00
316.8070, 12107.00
318.0130, 12058.00
319.2200, 11990.00
320.4260, 11879.00
321.6310, 11913.00
322.8370, 11762.00
324.0430, 11864.00
325.2480, 11713.00
326.4540, 11798.00
327.6590, 11667.00
328.8640, 11580.00
330.0680, 11691.22
331.2730, 11820.87
332.4780, 11904.93
333.6820, 11945.82
334.8860, 11814.36
336.0900, 11905.47
337.2940, 11907.37
338.4980, 11905.62
339.7010, 12028.03
340.9050, 11996.00
342.1080, 12233.00
343.3110, 12094.00
344.5140, 12289.00
345.7170, 12480.00
346.9200, 12567.00
348.1220, 12554.00
349.3240, 12588.00
350.5270, 12678.00
351.7290, 12755.00
352.9310, 12763.00
354.1320, 12794.00
355.3340, 12710.00
356.5350, 12743.00
357.7370, 12740.00
358.9380, 12666.00
360.1390, 12668.00
361.3400, 12696.00
362.5400, 12490.00
363.7410, 12403.00
364.9410, 12472.00
366.1410, 12394.00
367.3410, 12362.00
368.5410, 12323.00
369.7410, 12385.00
370.9400, 12579.00
372.1400, 12407.31
373.3390, 12442.56
374.5380, 12163.00
375.7370, 12207.00
376.9360, 12084.00
378.1350, 11784.00
379.3330, 11994.00
380.5310, 11482.00
381.7300, 11386.00
382.9280, 11199.00
384.1260, 11045.00
385.3230, 11012.00
386.5210, 10776.89
387.7180, 10794.53
388.9160, 10766.50
390.1130, 10695.41
391.3100, 10451.96
392.5060, 10431.14
393.7030, 10321.05
394.9000, 10207.31
396.0960, 10217.82
397.2920, 9999.506
398.4880, 10008.04
399.6840, 9926.023
400.8800, 9942.000
402.0750, 9776.000
403.2710, 9877.000
404.4660, 9847.000
405.6610, 9893.000
406.8560, 9763.000
408.0510, 9717.742
409.2450, 9876.902
410.4400, 9990.518
411.6340, 10060.94
412.8280, 9959.018
414.0220, 10079.65
415.2160, 10111.09
416.4100, 10138.88
417.6030, 10290.79
418.7970, 10213.93
419.9900, 10363.88
421.1830, 10526.00
422.3760, 10643.00
423.5690, 10823.00
424.7610, 10795.00
425.9540, 10842.00
427.1460, 10750.00
428.3380, 10705.00
429.5300, 10620.00
430.7220, 10586.00
431.9140, 10486.00
433.1050, 10317.00
434.2970, 10354.00
435.4880, 10198.00
436.6790, 10341.00
437.8700, 10149.00
439.0610, 10142.00
440.2510, 9969.000
441.4420, 10063.00
442.6320, 9909.000
443.8220, 9797.000
445.0120, 9817.000
446.2020, 9686.000
447.3910, 9804.000
448.5810, 9843.000
449.7700, 9722.000
450.9600, 9617.000
452.1490, 9484.000
453.3370, 9386.000
454.5260, 9620.000
455.7150, 9442.437
456.9030, 9399.291
458.0910, 9400.000
459.2800, 9165.000
460.4670, 9265.000
461.6550, 9178.000
462.8430, 9164.000
464.0300, 9192.000
465.2180, 9072.000
466.4050, 9056.000
467.5920, 9109.000
468.7790, 9089.000
469.9650, 9013.000
471.1520, 9100.000
472.3380, 8903.000
473.5250, 8974.000
474.7110, 9067.000
475.8970, 9088.000
477.0820, 9161.000
478.2680, 9058.000
479.4540, 9187.000
480.6390, 9155.000
481.8240, 9257.000
483.0090, 9213.000
484.1940, 9291.000
485.3780, 9262.000
486.5630, 9417.000
487.7470, 9460.000
488.9320, 9414.000
490.1160, 9475.000
491.3000, 9622.000
492.4830, 9690.000
493.6670, 9784.000
494.8500, 9757.000
496.0340, 9833.000
497.2170, 9843.000
498.4000, 9977.000
499.5820, 10117.00
500.7650, 10158.00
501.9480, 10159.00
503.1300, 10161.00
504.3120, 10367.00
505.4940, 10473.00
506.6760, 10479.00
507.8580, 10529.00
509.0390, 10606.00
510.2210, 10654.00
511.4020, 10778.00
512.5830, 10893.00
513.7640, 11058.00
514.9450, 11146.00
516.1250, 11167.00
517.3060, 11467.00
518.4860, 11522.00
519.6660, 11632.00
520.8460, 11881.00
522.0260, 12010.00
523.2060, 12369.00
524.3850, 12549.00
525.5650, 12825.00
526.7440, 13094.00
527.9230, 13122.78
529.1020, 13320.00
530.2810, 13102.00
531.4590, 13237.00
532.6380, 13076.00
533.8160, 12949.00
534.9940, 13090.00
536.1720, 13026.00
537.3500, 12855.00
538.5270, 12770.00
539.7050, 12708.00
540.8820, 12542.26
542.0590, 12924.00
543.2360, 12247.00
544.4130, 12304.00
545.5900, 12135.00
546.7660, 12476.00
547.9430, 11879.00
549.1190, 11642.00
550.2950, 11618.00
551.4710, 11558.00
552.6470, 11292.00
553.8220, 11135.00
554.9980, 11055.00
556.1730, 10943.00
557.3480, 10855.00
558.5230, 10706.00
559.6980, 10640.00
560.8730, 10505.00
562.0470, 10336.00
563.2220, 10330.00
564.3960, 10195.00
565.5700, 10051.00
566.7440, 10098.00
567.9170, 9877.000
569.0910, 9820.000
570.2640, 9885.000
571.4380, 9705.000
572.6110, 9555.000
573.7840, 9537.000
574.9570, 9371.000
576.1290, 9187.000
577.3020, 9126.000
578.4740, 8986.000
579.6460, 8902.000
580.8180, 8921.000
581.9900, 8759.000
583.1620, 8699.000
584.3330, 8405.000
585.5040, 8388.000
586.6760, 8267.000
587.8470, 8184.000
589.0180, 8386.000
590.1880, 8487.000
591.3590, 8203.000
592.5290, 8045.000
593.7000, 8019.000
594.8700, 8071.000
596.0400, 8143.000
597.2090, 8124.469
598.3790, 8067.000
599.5490, 8138.000
600.7180, 8117.000
601.8870, 8125.000
603.0560, 8291.000
604.2250, 8200.000
605.3940, 8245.000
606.5620, 8277.000
607.7300, 8507.000
608.8990, 8638.000
610.0670, 8612.021
611.2350, 8552.000
612.4020, 8579.000
613.5700, 8692.000
614.7370, 8741.000
615.9050, 8855.000
617.0720, 9002.000
618.2390, 8975.000
619.4060, 9025.000
620.5720, 9283.000
621.7390, 9339.000
622.9050, 9432.000
624.0710, 9669.000
625.2370, 9629.000
626.4030, 9836.000
627.5690, 9865.000
628.7340, 10099.00
629.9000, 10248.00
631.0650, 10326.19
632.2300, 10482.00
633.3950, 10541.00
634.5600, 10814.00
635.7240, 10988.00
636.8890, 11287.00
638.0530, 11183.00
639.2170, 11469.00
640.3810, 11770.00
641.5450, 11960.00
642.7080, 12251.00
643.8720, 12408.00
645.0350, 12697.00
646.1980, 13038.00
647.3610, 13354.00
648.5240, 13754.00
649.6870, 14096.00
650.8490, 14536.00
652.0120, 15334.00
653.1740, 16172.00
654.3360, 16911.00
655.4980, 17202.00
656.6600, 17633.00
657.8210, 18580.00
658.9830, 19325.00
660.1440, 19842.00
661.3050, 20571.00
662.4660, 21142.00
663.6270, 21567.00
664.7870, 21662.33
665.9480, 21586.72
667.1080, 21383.00
668.2680, 20806.00
669.4280, 20332.00
670.5880, 19582.00
671.7480, 18781.00
672.9070, 17927.00
674.0670, 17257.00
675.2260, 16471.00
676.3850, 15831.00
677.5440, 15113.00
678.7030, 14444.00
679.8610, 13860.00
681.0200, 13345.56
682.1780, 12880.34
683.3360, 12499.00
684.4940, 12151.00
685.6520, 11838.00
686.8090, 11536.84
687.9670, 11302.00
689.1240, 11004.00
690.2810, 10817.00
691.4380, 10578.00
692.5950, 10370.00
693.7520, 10304.00
694.9080, 10135.00
696.0650, 9936.000
697.2210, 9806.000
698.3770, 9809.000
699.5330, 9809.000
700.6880, 9760.000
701.8440, 9836.000
702.9990, 9860.000
704.1550, 9735.000
705.3100, 9911.000
706.4650, 10009.00
707.6190, 9945.000
708.7740, 10005.00
709.9290, 10068.00
711.0830, 10171.00
712.2370, 10230.00
713.3910, 10265.85
714.5450, 10173.00
715.6980, 10343.00
716.8520, 10305.00
718.0050, 10399.00
719.1580, 10318.00
720.3110, 10192.00
721.4640, 10286.00
722.6170, 10410.00
723.7700, 10323.00
724.9220, 10400.00
726.0740, 10243.00
727.2260, 10301.00
728.3780, 10262.00
729.5300, 10249.00
730.6810, 10213.00
731.8330, 10122.00
732.9840, 10059.00
734.1350, 9978.000
735.2860, 9919.000
736.4370, 9839.000
737.5880, 9780.000
738.7380, 9542.150
739.8880, 9587.684
741.0390, 9587.576
742.1890, 9544.377
743.3380, 9328.875
744.4880, 9335.885
745.6380, 9253.698
746.7870, 9167.907
747.9360, 9206.291
749.0850, 9015.854
750.2340, 9052.269
751.3830, 8998.129
752.5310, 8985.482
753.6800, 8883.044
754.8280, 8808.374
755.9760, 8823.476
757.1240, 8659.194
758.2720, 8771.307
759.4190, 8837.821
760.5670, 8861.201
761.7140, 8712.219
762.8610, 8785.797
764.0080, 8770.184
765.1550, 8750.912
766.3020, 8855.814
767.4480, 8731.894
768.5950, 8834.827
769.7410, 8847.200
770.8870, 8901.017
772.0330, 8865.091
773.1780, 8856.876
774.3240, 8852.000
775.4690, 8891.000
776.6140, 8842.000
777.7590, 8911.000
778.9040, 8881.659
780.0490, 9042.000
781.1940, 8809.000
782.3380, 8895.000
783.4820, 8765.000
784.6260, 8884.000
785.7700, 8750.000
786.9140, 8594.000
788.0580, 8676.000
789.2010, 8634.000
790.3450, 8614.000
791.4880, 8510.000
792.6310, 8556.000
793.7730, 8521.000
794.9160, 8757.659
796.0590, 8565.176
797.2010, 8520.003
798.3430, 8341.000
799.4850, 8277.000
800.6270, 8286.000
801.7690, 8296.000
802.9100, 8177.000
804.0520, 8237.000
805.1930, 8184.000
806.3340, 8179.000
807.4750, 8147.000
808.6160, 8170.000
809.7560, 8090.000
810.8970, 8100.000
812.0370, 8022.000
813.1770, 7945.000
814.3170, 8012.000
815.4570, 8035.000
816.5960, 8071.000
817.7360, 7990.000
818.8750, 8127.000
820.0140, 8045.000
821.1530, 8012.000
822.2920, 8097.000
823.4310, 8055.000
824.5690, 8007.000
825.7070, 7980.000
826.8460, 7982.000
827.9840, 7994.770
829.1220, 7988.922
830.2590, 8013.841
831.3970, 7990.000
832.5340, 8060.000
833.6710, 8039.000
834.8080, 8058.000
835.9450, 8041.000
837.0820, 8128.000
838.2190, 8150.000
839.3550, 8083.000
840.4910, 8183.153
841.6270, 8176.650
842.7630, 8264.000
843.8990, 8283.000
845.0350, 8256.000
846.1700, 8389.000
847.3060, 8357.000
848.4410, 8440.000
849.5760, 8482.062
850.7100, 8553.000
851.8450, 8503.000
852.9800, 8728.000
854.1140, 8632.000
855.2480, 8720.000
856.3820, 8676.000
857.5160, 8739.000
858.6500, 8846.000
859.7830, 8868.771
860.9170, 8995.000
862.0500, 9022.000
863.1830, 9050.000
864.3160, 9153.000
865.4480, 9251.000
866.5810, 9283.000
867.7130, 9282.000
868.8460, 9452.000
869.9780, 9451.000
871.1100, 9590.000
872.2410, 9598.000
873.3730, 9683.000
874.5050, 9850.000
875.6360, 9788.000
876.7670, 9873.000
877.8980, 9895.000
879.0290, 9966.697
880.1590, 10107.00
881.2900, 10176.00
882.4200, 10201.00
883.5500, 10338.00
884.6800, 10388.98
885.8100, 10476.00
886.9400, 10568.00
888.0690, 10688.00
889.1990, 10817.00
890.3280, 10883.00
891.4570, 10889.00
892.5860, 11098.00
893.7140, 11012.00
894.8430, 11135.00
895.9710, 11234.00
897.1000, 11405.00
898.2280, 11471.04
899.3560, 11526.00
900.4830, 11654.00
901.6110, 11738.31
902.7380, 11877.01
903.8660, 12051.00
904.9930, 12055.00
906.1200, 12256.00
907.2460, 12368.00
908.3730, 12517.12
909.5000, 12664.16
910.6260, 12834.68
911.7520, 12913.00
912.8780, 12992.93
914.0040, 13065.00
915.1290, 13227.00
916.2550, 13396.00
917.3800, 13549.00
918.5050, 13981.00
919.6300, 13603.00
920.7550, 13690.00
921.8800, 14097.00
923.0040, 13643.00
924.1290, 13527.00
925.2530, 13435.00
926.3770, 13523.00
927.5010, 13477.00
928.6250, 13425.00
929.7480, 13499.00
930.8720, 13294.00
931.9950, 13327.00
933.1180, 13348.00
934.2410, 13376.00
935.3640, 13326.42
936.4860, 13260.00
937.6090, 13191.00
938.7310, 13097.00
939.8530, 12993.00
940.9750, 13047.00
942.0970, 13133.00
943.2180, 13102.34
944.3400, 13062.00
945.4610, 13041.75
946.5820, 13125.87
947.7030, 13164.39
948.8240, 13159.77
949.9450, 12982.80
951.0650, 13028.41
952.1860, 12984.80
953.3060, 12937.56
954.4260, 13014.49
955.5460, 12862.60
956.6650, 12937.58
957.7850, 12921.99
958.9040, 12947.85
960.0230, 12883.98
961.1420, 12847.83
962.2610, 12901.44
963.3800, 12905.35
964.4990, 12831.15
965.6170, 12859.67
966.7350, 12704.68
967.8530, 12710.73
968.9710, 12786.25
970.0890, 12716.57
971.2070, 12746.74
972.3240, 12557.00
973.4410, 12405.00
974.5580, 12452.00
975.6750, 12457.00
976.7920, 12370.00
977.9090, 12297.00
979.0250, 12271.00
980.1410, 12305.00
981.2580, 12371.00
982.3740, 12320.00
983.4890, 12318.88
984.6050, 12345.17
985.7200, 12306.00
986.8360, 12384.00
987.9510, 12541.00
989.0660, 12589.00
990.1810, 12589.88
991.2950, 12644.00
992.4100, 12704.19
993.5240, 12743.00
994.6390, 12841.00
995.7530, 12891.59
996.8660, 12944.11
997.9800, 13105.00
999.0940, 12989.00
1000.207, 13149.00
1001.320, 13267.00
1002.433, 13530.00
1003.546, 13068.00
1004.659, 13308.00
1005.772, 13241.00
1006.884, 13334.00
1007.996, 13405.00
1009.108, 13378.00
1010.220, 13324.00
1011.332, 13507.00
1012.444, 13422.00
1013.555, 13453.00
1014.666, 13517.00
1015.777, 13446.00
1016.888, 13477.00
1017.999, 13490.99
1019.110, 13549.00
1020.220, 13511.00
1021.331, 13411.00
1022.441, 13379.00
1023.551, 13529.00
1024.661, 13470.80
1025.770, 13534.00
1026.880, 13443.00
1027.989, 13537.00
1029.098, 13347.00
1030.207, 13481.00
1031.316, 13348.00
1032.425, 13340.00
1033.533, 13320.00
1034.642, 13391.00
1035.750, 13343.00
1036.858, 13320.64
1037.966, 13302.65
1039.073, 13240.00
1040.181, 13180.00
1041.288, 13171.00
1042.396, 13040.00
1043.503, 13219.00
1044.610, 13063.00
1045.716, 13153.00
1046.823, 13167.00
1047.929, 13034.00
1049.036, 12938.00
1050.142, 13099.00
1051.248, 12937.00
1052.353, 13025.00
1053.459, 13055.00
1054.564, 12856.18
1055.670, 12851.00
1056.775, 12617.00
1057.880, 12524.00
1058.985, 12641.00
1060.089, 12578.00
1061.194, 12459.83
1062.298, 12302.00
1063.402, 12204.00
1064.506, 11973.00
1065.610, 11909.00
1066.713, 11892.00
1067.817, 11594.00
1068.920, 11463.00
1070.023, 11515.00
1071.126, 11469.00
1072.229, 11271.00
1073.332, 11183.00
1074.435, 11032.00
1075.537, 11138.00
1076.639, 11002.00
1077.741, 10966.00
1078.843, 10785.00
1079.945, 10842.00
1081.046, 10575.00
1082.148, 10634.00
1083.249, 10418.00
1084.350, 10497.00
1085.451, 10357.00
1086.551, 10242.00
1087.652, 10186.00
1088.752, 10276.00
1089.853, 10164.31
1090.953, 10123.40
1092.053, 10102.00
1093.152, 9970.000
1094.252, 9991.000
1095.351, 9952.000
1096.451, 9840.000
1097.550, 9798.000
1098.649, 9832.000
1099.748, 9721.000
1100.846, 9790.000
1101.945, 9699.000
1103.043, 9625.000
1104.141, 9494.000
1105.239, 9456.006
1106.337, 9403.950
1107.434, 9333.000
1108.532, 9363.000
1109.629, 9166.736
1110.726, 9239.312
1111.823, 9266.292
1112.920, 9250.131
1114.017, 9061.618
1115.113, 9095.690
1116.210, 9040.547
1117.306, 8981.770
1118.402, 9047.170
1119.498, 8883.751
1120.593, 8947.210
1121.689, 8920.088
1122.784, 8934.435
1123.879, 8859.042
1124.974, 8811.368
1126.069, 8853.466
1127.164, 8845.856
1128.259, 8760.129
1129.353, 8777.142
1130.447, 8610.647
1131.541, 8605.184
1132.635, 8669.196
1133.729, 8588.013
1134.822, 8606.694
1135.916, 8587.325
1137.009, 8395.184
1138.102, 8503.558
1139.195, 8481.973
1140.288, 8326.940
1141.380, 8425.046
1142.473, 8288.410
1143.565, 8235.584
1144.657, 8245.804
1145.749, 8190.297
1146.841, 8238.418
1147.932, 8186.735
1149.024, 8126.105
1150.115, 8104.431
1151.206, 7972.453
1152.297, 8045.106
1153.388, 7977.982
1154.479, 7980.335
1155.569, 7998.468
1156.659, 7896.010
1157.750, 7921.191
1158.839, 7869.000
1159.929, 7958.000
1161.019, 7839.000
1162.108, 7732.000
1163.198, 7806.000
1164.287, 7826.000
1165.376, 7731.000
1166.465, 7721.000
1167.553, 7657.000
1168.642, 7753.000
1169.730, 7781.000
1170.818, 7641.000
1171.906, 7901.000
1172.994, 7716.000
1174.082, 7597.000
1175.170, 7596.000
1176.257, 7677.000
1177.344, 7665.000
1178.431, 7681.000
1179.518, 7571.000
1180.605, 7534.000
1181.691, 7598.000
1182.778, 7543.000
1183.864, 7555.000
1184.950, 7483.000
1186.036, 7509.000
1187.122, 7604.000
1188.207, 7539.000
1189.292, 7632.000
1190.378, 7600.000
1191.463, 7465.000
1192.548, 7590.000
1193.632, 7542.000
1194.717, 7645.000
1195.801, 7553.000
1196.886, 7583.000
1197.970, 7550.000
1199.054, 7482.000
1200.137, 7607.000
1201.221, 7558.000
1202.305, 7620.000
1203.388, 7661.000
1204.471, 7499.000
1205.554, 7463.667
1206.637, 7567.938
1207.719, 7626.617
1208.802, 7642.155
1209.884, 7485.339
1210.966, 7551.083
1212.048, 7527.635
1213.130, 7500.530
1214.212, 7597.598
1215.293, 7465.850
1216.374, 7560.949
1217.456, 7565.495
1218.536, 7611.485
1219.617, 7567.732
1220.698, 7551.697
1221.778, 7625.435
1222.859, 7649.465
1223.939, 7595.381
1225.019, 7644.005
1226.099, 7509.122
1227.178, 7535.269
1228.258, 7630.893
1229.337, 7581.321
1230.417, 7631.586
1231.496, 7643.828
1232.574, 7483.269
1233.653, 7623.227
1234.732, 7633.221
1235.810, 7509.771
1236.888, 7639.433
1237.966, 7534.379
1239.044, 7513.105
1240.122, 7554.879
1241.199, 7530.927
1242.277, 7610.600
1243.354, 7590.443
1244.431, 7561.368
1245.508, 7476.000
1246.585, 7488.000
1247.661, 7508.000
1248.738, 7515.000
1249.814, 7524.938
1250.890, 7561.000
1251.966, 7531.000
1253.042, 7521.813
1254.117, 7508.568
1255.193, 7449.000
1256.268, 7470.000
1257.343, 7397.000
1258.418, 7432.000
1259.493, 7437.000
1260.567, 7488.000
1261.642, 7437.000
1262.716, 7692.000
1263.790, 7497.000
1264.864, 7435.000
1265.938, 7660.000
1267.011, 7361.000
1268.085, 7502.000
1269.158, 7422.000
1270.231, 7454.000
1271.304, 7461.000
1272.377, 7558.000
1273.450, 7470.000
1274.522, 7431.000
1275.594, 7565.000
1276.666, 7566.000
1277.738, 7496.000
1278.810, 7523.000
1279.882, 7471.000
1280.953, 7444.000
1282.025, 7438.000
1283.096, 7562.000
1284.167, 7533.104
1285.238, 7533.000
1286.308, 7574.000
1287.379, 7548.000
1288.449, 7552.000
1289.519, 7505.000
1290.589, 7526.000
1291.659, 7526.000
1292.729, 7527.000
1293.798, 7533.391
1294.868, 7508.000
1295.937, 7444.870
1297.006, 7548.291
1298.075, 7606.121
1299.143, 7620.810
1300.212, 7463.143
1301.280, 7528.038
1302.348, 7503.740
1303.416, 7475.785
1304.484, 7572.004
1305.552, 7439.407
1306.620, 7533.657
1307.687, 7537.354
1308.754, 7582.495
1309.821, 7537.893
1310.888, 7521.010
1311.955, 7593.899
1313.021, 7617.081
1314.088, 7562.148
1315.154, 7609.924
1316.220, 7474.193
1317.286, 7499.493
1318.352, 7594.269
1319.417, 7543.850
1320.483, 7593.267
1321.548, 7604.661
1322.613, 7443.255
1323.678, 7582.366
1324.743, 7591.514
1325.807, 7467.217
1326.872, 7596.031
1327.936, 7490.131
1329.000, 7468.011
1330.064, 7508.938
1331.128, 7484.140
1332.191, 7562.967
1333.255, 7541.964
1334.318, 7512.043
1335.381, 7521.046
1336.444, 7419.750
1337.507, 7523.081
1338.569, 7486.634
1339.632, 7519.668
1340.694, 7568.451
1341.756, 7496.646
1342.818, 7552.505
1343.880, 7410.389
1344.941, 7433.926
1346.003, 7439.625
1347.064, 7551.207
1348.125, 7410.056
1349.186, 7428.991
1350.247, 7516.088
1351.308, 7507.811
1352.368, 7539.410
1353.428, 7452.958
1354.489, 7477.406
1355.549, 7471.287
1356.608, 7570.798
1357.668, 7586.918
1358.727, 7502.471
1359.787, 7418.448
1360.846, 7525.562
1361.905, 7451.516
1362.964, 7475.203
1364.022, 7397.952
1365.081, 7407.854
1366.139, 7416.375
1367.197, 7469.571
1368.255, 7604.000
1369.313, 7563.268
1370.371, 7556.000
1371.428, 7542.000
1372.486, 7503.000
1373.543, 7515.000
1374.600, 7443.000
1375.657, 7515.000
1376.713, 7473.000
1377.770, 7533.000
1378.826, 7502.000
1379.882, 7502.000
1380.938, 7476.000
1381.994, 7577.000
1383.050, 7430.000
1384.106, 7600.000
1385.161, 7660.000
1386.216, 7592.000
1387.271, 7484.000
1388.326, 7573.000
1389.381, 7526.000
1390.435, 7471.000
1391.490, 7521.000
1392.544, 7455.000
1393.598, 7438.000
1394.652, 7471.000
1395.705, 7587.000
1396.759, 7450.000
1397.812, 7569.000
1398.866, 7607.000
1399.919, 7527.000
1400.972, 7596.000
1402.024, 7450.000
1403.077, 7529.000
1404.129, 7591.000
1405.181, 7441.000
1406.233, 7498.000
1407.285, 7480.000
1408.337, 7540.000
1409.389, 7465.000
1410.440, 7421.000
1411.491, 7542.000
1412.542, 7517.000
1413.593, 7617.000
1414.644, 7558.479
1415.695, 7540.185
1416.745, 7448.000
1417.795, 7486.000
1418.845, 7482.000
1419.895, 7558.000
1420.945, 7516.000
1421.995, 7553.000
1423.044, 7485.000
1424.093, 7643.000
1425.142, 7661.000
1426.191, 7595.000
1427.240, 7533.000
1428.289, 7595.000
1429.337, 7624.000
1430.385, 7593.000
1431.433, 7518.000
1432.481, 7615.000
1433.529, 7547.996
1434.577, 7664.000
1435.624, 7517.000
1436.672, 7536.000
1437.719, 7530.000
1438.766, 7580.000
1439.812, 7549.000
1440.859, 7602.000
1441.905, 7528.000
1442.952, 7616.000
1443.998, 7556.000
1445.044, 7576.000
1446.090, 7600.000
1447.135, 7604.000
1448.181, 7577.000
1449.226, 7675.000
1450.271, 7557.000
1451.316, 7744.000
1452.361, 7515.000
1453.405, 7644.000
1454.450, 7521.000
1455.494, 7851.000
1456.538, 7757.349
1457.582, 7681.000
1458.626, 7732.000
1459.670, 7595.000
1460.713, 7544.000
1461.757, 7635.000
1462.800, 7628.000
1463.843, 7552.000
1464.886, 7648.000
1465.928, 7662.000
1466.971, 7780.000
1468.013, 7740.638
1469.055, 7623.000
1470.097, 7705.000
1471.139, 7580.000
1472.181, 7628.000
1473.222, 7700.000
1474.263, 7667.000
1475.305, 7659.000
1476.346, 7693.000
1477.386, 7691.000
1478.427, 7577.000
1479.468, 7669.000
1480.508, 7685.000
1481.548, 7655.000
1482.588, 7758.000
1483.628, 7589.000
1484.668, 7583.000
1485.707, 7657.000
1486.747, 7635.000
1487.786, 7713.000
1488.825, 7709.921
1489.864, 7664.000
1490.902, 7706.000
1491.941, 7697.000
1492.979, 7667.000
1494.017, 7716.000
1495.055, 7720.000
1496.093, 7760.000
1497.131, 7662.000
1498.168, 7627.000
1499.206, 7573.000
1500.243, 7604.000
1501.280, 7619.000
1502.317, 7746.000
1503.354, 7693.000
1504.390, 7684.000
1505.426, 7817.000
1506.463, 7649.000
1507.499, 7760.000
1508.535, 7720.000
1509.570, 7721.588
1510.606, 7713.041
1511.641, 7745.000
1512.676, 7671.000
1513.711, 7618.000
1514.746, 7675.000
1515.781, 7694.000
1516.816, 7739.000
1517.850, 7881.000
1518.884, 7752.000
1519.918, 7826.591
1520.952, 7689.000
1521.986, 7821.000
1523.019, 7685.000
1524.053, 7667.000
1525.086, 7657.000
1526.119, 7639.232
1527.152, 7669.000
1528.185, 7716.000
1529.217, 7698.000
1530.250, 7792.000
1531.282, 7751.000
1532.314, 7662.000
1533.346, 7776.000
1534.377, 7622.000
1535.409, 7870.000
1536.440, 7762.000
1537.472, 7792.000
1538.503, 7707.000
1539.534, 7655.000
1540.564, 7669.000
1541.595, 7727.000
1542.625, 7631.331
1543.656, 7737.680
1544.686, 7798.436
1545.716, 7816.049
1546.745, 7661.307
1547.775, 7729.127
1548.804, 7707.752
1549.834, 7682.723
1550.863, 7781.865
1551.892, 7652.191
1552.920, 7749.362
1553.949, 7755.981
1554.977, 7804.042
1556.006, 7762.363
1557.034, 7748.400
1558.062, 7824.209
1559.089, 7850.309
1560.117, 7798.296
1561.144, 7848.990
1562.172, 7716.179
1563.199, 7744.395
1564.226, 7842.089
1565.252, 7794.584
1566.279, 7846.919
1567.305, 7861.228
1568.332, 7773.000
1569.358, 7689.000
1570.384, 7733.000
1571.409, 7750.000
##END=



