##NAMES=Edenite
##RRUFFID=R060029
##IDEAL CHEMISTRY=NaCa_2_Mg_5_(Si_7_Al)O_22_(OH)_2_
##LOCALITY=Renfrew County, Ontario, Canada
##OWNER=RRUFF
##SOURCE=University of Arizona Mineral Museum
##DESCRIPTION=Black prismatic
##STATUS=The identification of this mineral has been confirmed by X-ray diffraction and chemical analysis
##URL=rruff.info/R060029
##MEASURED CHEMISTRY=(Na_0.62_K_0.34_[box]_0.04_)(Ca_0.86_Na_0.14_)_2_(Mg_0.57_Fe^2+^_0.30_Fe^3+^_0.07_Al_0.05_Ti_0.01_Mn_0.01_)_5_(Si_6.61_Al_1.39_)O_22_((OH)_0.69_F_0.31_)_2_
##PIN_ID=L01054
##ORIENTATION=Laser parallel to -a* (-1 0 0). Fiducial mark perpendicular to laser is parallel to b [0 1 0]
192.9560, 15153.00
194.1780, 15131.66
195.4000, 15089.85
196.6220, 15025.04
197.8430, 14938.54
199.0640, 14765.04
200.2860, 14703.80
201.5070, 14597.61
202.7270, 14489.66
203.9480, 14444.30
205.1690, 14283.46
206.3890, 14237.18
207.6090, 14145.21
208.8290, 14196.00
210.0490, 14248.00
211.2690, 14432.00
212.4890, 14489.00
213.7080, 14819.00
214.9280, 14812.00
216.1470, 14996.00
217.3660, 15089.00
218.5850, 15204.46
219.8030, 15356.00
221.0220, 15484.00
222.2400, 15697.00
223.4590, 15856.00
224.6770, 15885.00
225.8950, 15958.00
227.1120, 15922.00
228.3300, 15885.00
229.5480, 15749.00
230.7650, 15763.00
231.9820, 15525.00
233.1990, 15431.00
234.4160, 15125.00
235.6330, 15030.00
236.8490, 14630.00
238.0660, 14405.00
239.2820, 14360.00
240.4980, 14141.00
241.7140, 13898.00
242.9300, 13840.00
244.1460, 13642.00
245.3610, 13472.00
246.5770, 13325.00
247.7920, 13252.00
249.0070, 13120.00
250.2220, 13097.00
251.4370, 13027.00
252.6510, 12997.53
253.8660, 13033.91
255.0800, 13047.30
256.2940, 13038.92
257.5080, 12943.56
258.7220, 12960.51
259.9360, 12932.45
261.1490, 12902.56
262.3630, 12935.33
263.5760, 12852.63
264.7890, 12884.41
266.0020, 12870.50
267.2150, 12877.50
268.4270, 12839.22
269.6400, 12817.00
270.8520, 12782.00
272.0640, 12824.00
273.2760, 12718.00
274.4880, 12977.00
275.7000, 13144.00
276.9120, 13066.00
278.1230, 13201.00
279.3340, 13215.00
280.5450, 13205.00
281.7560, 13181.00
282.9670, 13276.00
284.1780, 13182.00
285.3880, 13352.00
286.5980, 13477.00
287.8090, 13326.00
289.0190, 13453.00
290.2290, 13586.00
291.4380, 13508.00
292.6480, 13425.00
293.8570, 13544.00
295.0670, 13686.00
296.2760, 13625.00
297.4850, 13618.00
298.6930, 13449.00
299.9020, 13522.00
301.1110, 13449.00
302.3190, 13238.00
303.5270, 13268.00
304.7350, 13398.00
305.9430, 13215.00
307.1510, 13266.00
308.3580, 13234.00
309.5660, 13255.00
310.7730, 13196.00
311.9800, 13099.00
313.1870, 13088.00
314.3940, 13115.00
315.6010, 12974.00
316.8070, 13091.00
318.0130, 13001.00
319.2200, 13084.00
320.4260, 13047.00
321.6310, 12985.00
322.8370, 12819.00
324.0430, 13008.00
325.2480, 12772.00
326.4540, 13021.00
327.6590, 12900.00
328.8640, 12867.00
330.0680, 12889.00
331.2730, 12954.00
332.4780, 12983.00
333.6820, 13025.98
334.8860, 13032.00
336.0900, 13080.00
337.2940, 13109.20
338.4980, 12944.00
339.7010, 13189.00
340.9050, 13137.00
342.1080, 13189.00
343.3110, 13340.00
344.5140, 13163.00
345.7170, 13349.00
346.9200, 13426.00
348.1220, 13412.00
349.3240, 13669.00
350.5270, 13694.00
351.7290, 13746.00
352.9310, 13971.00
354.1320, 13987.00
355.3340, 14306.00
356.5350, 14379.00
357.7370, 14387.00
358.9380, 14575.00
360.1390, 14611.96
361.3400, 14753.00
362.5400, 14785.42
363.7410, 14898.00
364.9410, 14992.00
366.1410, 15028.00
367.3410, 14956.00
368.5410, 14980.00
369.7410, 14945.65
370.9400, 14896.00
372.1400, 14836.00
373.3390, 14769.00
374.5380, 14605.00
375.7370, 14570.00
376.9360, 14337.00
378.1350, 14342.00
379.3330, 14375.00
380.5310, 14050.00
381.7300, 14104.00
382.9280, 13972.00
384.1260, 14031.00
385.3230, 14126.71
386.5210, 14138.00
387.7180, 14224.00
388.9160, 13996.00
390.1130, 13652.00
391.3100, 13257.00
392.5060, 13222.00
393.7030, 13255.00
394.9000, 13128.00
396.0960, 13041.00
397.2920, 12997.00
398.4880, 12945.00
399.6840, 12862.00
400.8800, 12859.51
402.0750, 12809.00
403.2710, 12805.00
404.4660, 12790.00
405.6610, 12802.40
406.8560, 12737.00
408.0510, 12851.00
409.2450, 12813.00
410.4400, 12825.00
411.6340, 13133.00
412.8280, 12976.00
414.0220, 12939.00
415.2160, 13125.00
416.4100, 13034.00
417.6030, 12980.00
418.7970, 13001.00
419.9900, 13046.47
421.1830, 13272.00
422.3760, 13270.00
423.5690, 13356.00
424.7610, 13525.00
425.9540, 13377.00
427.1460, 13392.00
428.3380, 13424.00
429.5300, 13429.00
430.7220, 13476.00
431.9140, 13118.00
433.1050, 13124.00
434.2970, 13135.00
435.4880, 12923.00
436.6790, 12894.00
437.8700, 12719.00
439.0610, 12710.00
440.2510, 12779.00
441.4420, 12543.00
442.6320, 12475.00
443.8220, 12576.00
445.0120, 12537.00
446.2020, 12563.00
447.3910, 12451.00
448.5810, 12503.00
449.7700, 12502.00
450.9600, 12536.00
452.1490, 12395.00
453.3370, 12339.00
454.5260, 12237.00
455.7150, 12310.00
456.9030, 12269.00
458.0910, 12324.00
459.2800, 12100.00
460.4670, 12138.00
461.6550, 11991.00
462.8430, 12028.00
464.0300, 12033.00
465.2180, 12026.00
466.4050, 12069.00
467.5920, 11939.00
468.7790, 11943.00
469.9650, 12011.00
471.1520, 11861.00
472.3380, 11916.00
473.5250, 11936.00
474.7110, 12046.00
475.8970, 11936.00
477.0820, 11910.00
478.2680, 12089.00
479.4540, 12036.00
480.6390, 12075.00
481.8240, 12158.00
483.0090, 12089.00
484.1940, 12184.00
485.3780, 12356.00
486.5630, 12246.00
487.7470, 12296.00
488.9320, 12392.00
490.1160, 12506.00
491.3000, 12601.00
492.4830, 12656.00
493.6670, 12793.00
494.8500, 12710.00
496.0340, 12925.00
497.2170, 12881.00
498.4000, 12976.00
499.5820, 13000.00
500.7650, 13165.00
501.9480, 13267.00
503.1300, 13393.00
504.3120, 13543.00
505.4940, 13615.00
506.6760, 13644.00
507.8580, 13815.00
509.0390, 13842.00
510.2210, 13954.00
511.4020, 14165.00
512.5830, 14059.00
513.7640, 14186.00
514.9450, 14383.00
516.1250, 14477.00
517.3060, 14527.00
518.4860, 14590.00
519.6660, 14713.00
520.8460, 15039.00
522.0260, 15056.00
523.2060, 15255.00
524.3850, 15320.00
525.5650, 15627.00
526.7440, 15623.00
527.9230, 15928.00
529.1020, 15984.00
530.2810, 16089.00
531.4590, 16104.00
532.6380, 16120.00
533.8160, 16187.00
534.9940, 16226.00
536.1720, 16112.00
537.3500, 16325.00
538.5270, 16071.00
539.7050, 16161.00
540.8820, 16107.00
542.0590, 15928.00
543.2360, 15921.00
544.4130, 15745.00
545.5900, 15770.00
546.7660, 15731.00
547.9430, 15706.00
549.1190, 15573.00
550.2950, 15504.00
551.4710, 15417.00
552.6470, 15331.00
553.8220, 15438.00
554.9980, 15242.00
556.1730, 15286.00
557.3480, 15167.00
558.5230, 15029.00
559.6980, 14875.00
560.8730, 14856.00
562.0470, 14796.00
563.2220, 14649.00
564.3960, 14623.00
565.5700, 14590.00
566.7440, 14541.00
567.9170, 14449.00
569.0910, 14317.42
570.2640, 13949.00
571.4380, 13981.00
572.6110, 13751.00
573.7840, 13556.00
574.9570, 13476.00
576.1290, 13363.00
577.3020, 13162.00
578.4740, 13185.00
579.6460, 12911.00
580.8180, 12700.00
581.9900, 12625.00
583.1620, 12576.00
584.3330, 12499.00
585.5040, 12348.00
586.6760, 12387.00
587.8470, 12212.00
589.0180, 12181.00
590.1880, 12082.00
591.3590, 12032.00
592.5290, 12010.00
593.7000, 11932.00
594.8700, 12006.00
596.0400, 11895.00
597.2090, 11940.00
598.3790, 11847.00
599.5490, 11981.00
600.7180, 11910.00
601.8870, 11917.00
603.0560, 11967.00
604.2250, 11903.00
605.3940, 11803.00
606.5620, 11798.00
607.7300, 11831.20
608.8990, 11835.17
610.0670, 11965.00
611.2350, 11984.00
612.4020, 12019.24
613.5700, 12193.00
614.7370, 12163.00
615.9050, 12146.00
617.0720, 12313.00
618.2390, 12332.00
619.4060, 12422.00
620.5720, 12405.00
621.7390, 12362.00
622.9050, 12553.00
624.0710, 12586.00
625.2370, 12510.00
626.4030, 12620.00
627.5690, 12665.00
628.7340, 12825.00
629.9000, 12770.00
631.0650, 12934.00
632.2300, 13014.00
633.3950, 12931.00
634.5600, 13166.00
635.7240, 13059.00
636.8890, 13261.00
638.0530, 13457.00
639.2170, 13492.00
640.3810, 13670.00
641.5450, 13854.00
642.7080, 13869.00
643.8720, 14145.00
645.0350, 14144.00
646.1980, 14352.00
647.3610, 14499.00
648.5240, 14657.00
649.6870, 15086.00
650.8490, 15324.00
652.0120, 15512.00
653.1740, 15806.00
654.3360, 16059.00
655.4980, 16411.00
656.6600, 16813.00
657.8210, 17159.00
658.9830, 17626.00
660.1440, 17990.00
661.3050, 18629.00
662.4660, 19047.00
663.6270, 19632.00
664.7870, 19866.00
665.9480, 20260.00
667.1080, 20342.00
668.2680, 20273.00
669.4280, 20182.00
670.5880, 20105.00
671.7480, 19694.00
672.9070, 19322.00
674.0670, 18993.00
675.2260, 18629.00
676.3850, 18301.00
677.5440, 18011.00
678.7030, 17577.00
679.8610, 17224.00
681.0200, 17033.00
682.1780, 16854.00
683.3360, 16669.00
684.4940, 16458.00
685.6520, 16216.00
686.8090, 16018.00
687.9670, 16159.00
689.1240, 15937.00
690.2810, 15713.00
691.4380, 16147.00
692.5950, 16351.00
693.7520, 15764.00
694.9080, 15641.00
696.0650, 15711.00
697.2210, 15777.00
698.3770, 15852.00
699.5330, 15806.00
700.6880, 15829.00
701.8440, 16152.00
702.9990, 16141.00
704.1550, 16295.00
705.3100, 16294.00
706.4650, 16598.00
707.6190, 16662.00
708.7740, 16792.00
709.9290, 17014.00
711.0830, 17139.00
712.2370, 17314.00
713.3910, 17392.00
714.5450, 17611.00
715.6980, 17674.30
716.8520, 17749.00
718.0050, 17816.00
719.1580, 17813.00
720.3110, 17832.00
721.4640, 17995.00
722.6170, 17968.00
723.7700, 17884.00
724.9220, 17948.00
726.0740, 17737.00
727.2260, 17935.00
728.3780, 17829.00
729.5300, 17650.00
730.6810, 17587.00
731.8330, 17545.00
732.9840, 17497.00
734.1350, 17382.00
735.2860, 17182.00
736.4370, 17104.00
737.5880, 17015.00
738.7380, 16736.00
739.8880, 16660.00
741.0390, 16370.00
742.1890, 16451.00
743.3380, 16250.00
744.4880, 16193.00
745.6380, 15930.00
746.7870, 15682.00
747.9360, 15534.00
749.0850, 15357.00
750.2340, 15181.00
751.3830, 15106.00
752.5310, 14954.00
753.6800, 14897.00
754.8280, 14740.00
755.9760, 14721.00
757.1240, 14610.00
758.2720, 14661.00
759.4190, 14573.00
760.5670, 14438.00
761.7140, 14306.00
762.8610, 14428.00
764.0080, 14231.00
765.1550, 14288.00
766.3020, 14495.00
767.4480, 14296.17
768.5950, 14294.00
769.7410, 14157.00
770.8870, 14170.00
772.0330, 14201.00
773.1780, 14265.00
774.3240, 14193.00
775.4690, 14203.00
776.6140, 14063.00
777.7590, 14285.00
778.9040, 14298.00
780.0490, 14219.00
781.1940, 14546.00
782.3380, 14364.80
783.4820, 14373.00
784.6260, 14236.00
785.7700, 14243.00
786.9140, 14229.00
788.0580, 13951.00
789.2010, 14109.00
790.3450, 14007.00
791.4880, 13974.00
792.6310, 14040.00
793.7730, 13897.00
794.9160, 13809.00
796.0590, 13954.00
797.2010, 13704.00
798.3430, 13722.00
799.4850, 13625.00
800.6270, 13677.00
801.7690, 13598.00
802.9100, 13562.47
804.0520, 13559.00
805.1930, 13473.00
806.3340, 13395.00
807.4750, 13350.42
808.6160, 13336.40
809.7560, 13322.00
810.8970, 13365.00
812.0370, 13368.00
813.1770, 13404.00
814.3170, 13257.00
815.4570, 13231.00
816.5960, 13188.00
817.7360, 13295.00
818.8750, 13089.00
820.0140, 13021.00
821.1530, 13146.00
822.2920, 13041.00
823.4310, 13003.00
824.5690, 12907.00
825.7070, 12971.00
826.8460, 13109.00
827.9840, 12948.00
829.1220, 12954.00
830.2590, 12874.00
831.3970, 13005.00
832.5340, 12988.00
833.6710, 12984.00
834.8080, 12949.00
835.9450, 13034.00
837.0820, 13045.00
838.2190, 13054.00
839.3550, 13064.66
840.4910, 13050.25
841.6270, 13045.00
842.7630, 13026.00
843.8990, 13037.00
845.0350, 13050.00
846.1700, 13139.00
847.3060, 13058.00
848.4410, 13155.00
849.5760, 13202.00
850.7100, 13122.00
851.8450, 13206.00
852.9800, 13218.00
854.1140, 13377.00
855.2480, 13311.00
856.3820, 13304.00
857.5160, 13443.00
858.6500, 13351.00
859.7830, 13277.00
860.9170, 13534.00
862.0500, 13387.00
863.1830, 13529.00
864.3160, 13421.00
865.4480, 13393.00
866.5810, 13602.00
867.7130, 13586.00
868.8460, 13687.00
869.9780, 13653.00
871.1100, 13819.00
872.2410, 13706.00
873.3730, 13809.00
874.5050, 13909.00
875.6360, 13883.00
876.7670, 13924.00
877.8980, 14001.00
879.0290, 13918.00
880.1590, 14146.00
881.2900, 14142.00
882.4200, 14079.00
883.5500, 14059.00
884.6800, 14129.00
885.8100, 14086.00
886.9400, 14209.00
888.0690, 14228.00
889.1990, 14289.00
890.3280, 14339.00
891.4570, 14382.00
892.5860, 14412.00
893.7140, 14331.00
894.8430, 14458.00
895.9710, 14450.00
897.1000, 14386.00
898.2280, 14229.00
899.3560, 14302.00
900.4830, 14156.00
901.6110, 14114.00
902.7380, 14157.00
903.8660, 14145.00
904.9930, 14134.00
906.1200, 14016.00
907.2460, 14161.00
908.3730, 14339.00
909.5000, 14181.00
910.6260, 14185.00
911.7520, 14347.00
912.8780, 14214.00
914.0040, 14382.00
915.1290, 14158.00
916.2550, 14168.00
917.3800, 14244.00
918.5050, 14329.00
919.6300, 14298.00
920.7550, 14198.00
921.8800, 14290.00
923.0040, 14203.00
924.1290, 14217.00
925.2530, 14139.00
926.3770, 14174.00
927.5010, 14335.00
928.6250, 14175.00
929.7480, 14258.00
930.8720, 14206.00
931.9950, 14105.00
933.1180, 14271.00
934.2410, 14137.00
935.3640, 14228.00
936.4860, 14235.00
937.6090, 14211.00
938.7310, 14172.00
939.8530, 14256.00
940.9750, 14263.00
942.0970, 14243.00
943.2180, 14290.00
944.3400, 14214.00
945.4610, 14311.00
946.5820, 14227.00
947.7030, 14147.00
948.8240, 14317.00
949.9450, 14237.00
951.0650, 14360.00
952.1860, 14263.00
953.3060, 14401.00
954.4260, 14314.00
955.5460, 14465.00
956.6650, 14394.00
957.7850, 14667.00
958.9040, 14452.00
960.0230, 14588.00
961.1420, 14581.00
962.2610, 14716.00
963.3800, 14734.00
964.4990, 14808.00
965.6170, 14728.00
966.7350, 14744.00
967.8530, 15024.00
968.9710, 15056.00
970.0890, 14878.00
971.2070, 14998.00
972.3240, 14880.00
973.4410, 14930.00
974.5580, 14876.00
975.6750, 14826.00
976.7920, 14606.00
977.9090, 14738.00
979.0250, 14907.00
980.1410, 14695.00
981.2580, 14779.00
982.3740, 14772.00
983.4890, 14845.00
984.6050, 14783.78
985.7200, 14844.56
986.8360, 14693.00
987.9510, 14681.52
989.0660, 14918.76
990.1810, 15067.41
991.2950, 15132.20
992.4100, 14862.13
993.5240, 15024.48
994.6390, 15013.55
995.7530, 14995.48
996.8660, 15218.66
997.9800, 14997.27
999.0940, 15216.65
1000.207, 15260.05
1001.320, 15383.98
1002.433, 15333.54
1003.546, 15336.95
1004.659, 15514.80
1005.772, 15596.06
1006.884, 15525.51
1007.996, 15368.00
1009.108, 15365.00
1010.220, 15311.00
1011.332, 15376.00
1012.444, 15321.00
1013.555, 15349.00
1014.666, 15374.00
1015.777, 15233.00
1016.888, 15257.00
1017.999, 15396.00
1019.110, 15122.00
1020.220, 15465.00
1021.331, 15429.00
1022.441, 15332.00
1023.551, 15281.00
1024.661, 15359.00
1025.770, 15262.00
1026.880, 15402.00
1027.989, 15201.00
1029.098, 15352.00
1030.207, 15311.00
1031.316, 15329.00
1032.425, 15358.00
1033.533, 15343.00
1034.642, 15452.00
1035.750, 15409.00
1036.858, 15414.01
1037.966, 15393.84
1039.073, 15347.00
1040.181, 15327.00
1041.288, 15249.00
1042.396, 15285.00
1043.503, 15550.00
1044.610, 15345.00
1045.716, 15251.00
1046.823, 15426.00
1047.929, 15171.00
1049.036, 15152.00
1050.142, 15333.00
1051.248, 15303.00
1052.353, 15179.00
1053.459, 15346.00
1054.564, 15285.00
1055.670, 15183.00
1056.775, 15201.00
1057.880, 15144.00
1058.985, 15266.00
1060.089, 15104.00
1061.194, 15278.00
1062.298, 15123.00
1063.402, 15369.00
1064.506, 15290.31
1065.610, 15555.00
1066.713, 15240.00
1067.817, 15140.00
1068.920, 15131.00
1070.023, 15029.00
1071.126, 14995.00
1072.229, 15049.00
1073.332, 14924.00
1074.435, 14804.00
1075.537, 14852.00
1076.639, 14871.00
1077.741, 14876.00
1078.843, 14907.00
1079.945, 14877.00
1081.046, 15010.00
1082.148, 14857.00
1083.249, 14674.00
1084.350, 14665.00
1085.451, 14717.00
1086.551, 14613.00
1087.652, 14601.00
1088.752, 14608.00
1089.853, 14596.00
1090.953, 14623.00
1092.053, 14601.74
1093.152, 14572.00
1094.252, 14595.00
1095.351, 14456.00
1096.451, 14489.00
1097.550, 14407.00
1098.649, 14270.00
1099.748, 14423.00
1100.846, 14214.00
1101.945, 14230.00
1103.043, 14313.00
1104.141, 14297.00
1105.239, 14309.00
1106.337, 14277.81
1107.434, 14278.00
1108.532, 14162.00
1109.629, 14144.00
1110.726, 13914.00
1111.823, 14099.17
1112.920, 14195.75
1114.017, 14208.51
1115.113, 13886.40
1116.210, 13996.71
1117.306, 13933.73
1118.402, 13863.65
1119.498, 14034.83
1120.593, 13761.44
1121.689, 13928.81
1122.784, 13920.24
1123.879, 13992.20
1124.974, 13889.79
1126.069, 13841.23
1127.164, 13967.10
1128.259, 13996.39
1129.353, 13873.92
1130.447, 13951.01
1131.541, 13671.55
1132.635, 13704.97
1133.729, 13873.38
1134.822, 13759.69
1135.916, 13839.97
1137.009, 13691.00
1138.102, 13591.00
1139.195, 13669.00
1140.288, 13448.00
1141.380, 13507.00
1142.473, 13660.00
1143.565, 13451.00
1144.657, 13470.00
1145.749, 13578.00
1146.841, 13427.00
1147.932, 13626.00
1149.024, 13524.00
1150.115, 13403.00
1151.206, 13435.00
1152.297, 13398.29
1153.388, 13414.61
1154.479, 13371.00
1155.569, 13489.00
1156.659, 13321.00
1157.750, 13329.00
1158.839, 13450.00
1159.929, 13326.00
1161.019, 13371.00
1162.108, 13388.00
1163.198, 13411.00
1164.287, 13317.00
1165.376, 13297.00
1166.465, 13484.00
1167.553, 13400.79
1168.642, 13220.00
1169.730, 13378.00
1170.818, 13474.00
1171.906, 13378.00
1172.994, 13398.00
1174.082, 13288.00
1175.170, 13367.00
1176.257, 13347.25
1177.344, 13419.00
1178.431, 13363.00
1179.518, 13378.00
1180.605, 13341.00
1181.691, 13352.00
1182.778, 13320.54
1183.864, 13362.00
1184.950, 13224.00
1186.036, 13314.00
1187.122, 13199.06
1188.207, 13309.00
1189.292, 13198.00
1190.378, 13242.00
1191.463, 13352.00
1192.548, 13336.00
1193.632, 13334.00
1194.717, 13329.00
1195.801, 13306.00
1196.886, 13340.00
1197.970, 13420.00
1199.054, 13359.00
1200.137, 13397.00
1201.221, 13460.00
1202.305, 13358.00
1203.388, 13396.00
1204.471, 13401.00
1205.554, 13475.00
1206.637, 13479.71
1207.719, 13465.00
1208.802, 13476.00
1209.884, 13451.80
1210.966, 13404.00
1212.048, 13413.67
1213.130, 13379.94
1214.212, 13374.00
1215.293, 13355.00
1216.374, 13380.00
1217.456, 13430.00
1218.536, 13415.68
1219.617, 13484.00
1220.698, 13461.00
1221.778, 13479.00
1222.859, 13580.00
1223.939, 13580.00
1225.019, 13431.00
1226.099, 13483.00
1227.178, 13558.00
1228.258, 13384.00
1229.337, 13426.00
1230.417, 13514.00
1231.496, 13471.00
1232.574, 13445.00
1233.653, 13534.00
1234.732, 13515.00
1235.810, 13466.00
1236.888, 13548.00
1237.966, 13419.00
1239.044, 13464.00
1240.122, 13474.00
1241.199, 13582.00
1242.277, 13601.00
1243.354, 13474.00
1244.431, 13576.00
1245.508, 13465.00
1246.585, 13531.00
1247.661, 13746.00
1248.738, 13412.00
1249.814, 13606.00
1250.890, 13532.00
1251.966, 13528.00
1253.042, 13330.00
1254.117, 13542.00
1255.193, 13417.00
1256.268, 13530.00
1257.343, 13427.00
1258.418, 13443.00
1259.493, 13455.00
1260.567, 13439.00
1261.642, 13612.00
1262.716, 13545.00
1263.790, 13757.00
1264.864, 13495.00
1265.938, 13511.00
1267.011, 13486.00
1268.085, 13483.00
1269.158, 13661.00
1270.231, 13535.11
1271.304, 13796.00
1272.377, 13427.00
1273.450, 13396.00
1274.522, 13401.00
1275.594, 13566.00
1276.666, 13569.00
1277.738, 13410.00
1278.810, 13542.89
1279.882, 13658.00
1280.953, 13531.00
1282.025, 13613.00
1283.096, 13434.00
1284.167, 13668.00
1285.238, 13547.00
1286.308, 13562.00
1287.379, 13560.00
1288.449, 13514.00
1289.519, 13426.00
1290.589, 13463.42
1291.659, 13453.70
1292.729, 13536.00
1293.798, 13535.00
1294.868, 13649.00
1295.937, 13731.00
1297.006, 13557.00
1298.075, 13637.00
1299.143, 13565.00
1300.212, 13596.00
1301.280, 13512.00
1302.348, 13617.00
1303.416, 13508.00
1304.484, 13554.00
1305.552, 13634.00
1306.620, 13673.00
1307.687, 13572.00
1308.754, 13590.00
1309.821, 13528.00
1310.888, 13681.00
1311.955, 13710.00
1313.021, 13641.00
1314.088, 13794.00
1315.154, 13637.00
1316.220, 13544.00
1317.286, 13512.00
1318.352, 13782.00
1319.417, 13761.00
1320.483, 13828.00
1321.548, 13700.00
1322.613, 13712.00
1323.678, 13664.00
1324.743, 13568.00
1325.807, 13768.00
1326.872, 13604.00
1327.936, 13768.00
1329.000, 13700.00
1330.064, 13693.00
1331.128, 13796.00
1332.191, 13694.00
1333.255, 13725.89
1334.318, 13717.89
1335.381, 13744.00
1336.444, 13673.00
1337.507, 13786.00
1338.569, 13742.00
1339.632, 13645.00
1340.694, 13725.00
1341.756, 13715.00
1342.818, 13699.00
1343.880, 13829.00
1344.941, 13667.00
1346.003, 13767.00
1347.064, 13633.00
1348.125, 13719.00
1349.186, 13842.00
1350.247, 13776.00
1351.308, 13853.00
1352.368, 13862.00
1353.428, 13774.00
1354.489, 13811.28
1355.549, 13739.00
1356.608, 13767.00
1357.668, 13728.00
1358.727, 13685.00
1359.787, 13674.70
1360.846, 13672.08
1361.905, 13628.00
1362.964, 13726.00
1364.022, 13744.00
1365.081, 13830.00
1366.139, 13748.00
1367.197, 13812.00
1368.255, 13686.00
1369.313, 13786.00
1370.371, 13879.00
1371.428, 13688.00
1372.486, 13739.00
1373.543, 13764.00
1374.600, 13717.00
1375.657, 13747.00
1376.713, 13637.00
1377.770, 13693.00
1378.826, 13710.99
1379.882, 13742.00
1380.938, 13782.00
1381.994, 13790.59
1383.050, 13810.00
1384.106, 13819.00
1385.161, 13833.24
1386.216, 13850.86
1387.271, 13849.00
1388.326, 13883.00
1389.381, 13900.00
1390.435, 13851.00
1391.490, 13957.00
1392.544, 13772.00
1393.598, 13893.00
1394.652, 13989.00
1395.705, 13876.00
1396.759, 13799.00
1397.812, 13860.00
1398.866, 13809.00
1399.919, 13887.00
1400.972, 13920.00
1402.024, 13849.00
1403.077, 13867.00
1404.129, 13964.00
1405.181, 13845.00
1406.233, 13831.00
1407.285, 13917.00
1408.337, 13956.00
1409.389, 13863.00
1410.440, 13659.00
1411.491, 13901.00
1412.542, 13889.00
1413.593, 13928.00
1414.644, 14050.00
1415.695, 14026.00
1416.745, 14061.96
1417.795, 14053.03
1418.845, 14047.00
1419.895, 13963.00
1420.945, 13922.00
1421.995, 13827.00
1423.044, 13941.00
1424.093, 13941.00
1425.142, 13951.00
1426.191, 13768.00
1427.240, 13950.00
1428.289, 14105.00
1429.337, 13792.00
1430.385, 14105.00
1431.433, 14148.00
1432.481, 13925.00
1433.529, 14069.00
1434.577, 14038.00
1435.624, 13983.00
1436.672, 14236.00
1437.719, 14056.00
1438.766, 14023.00
1439.812, 13998.00
1440.859, 13949.00
1441.905, 14017.00
1442.952, 14101.00
1443.998, 14248.00
1445.044, 14102.00
1446.090, 14097.00
1447.135, 14189.00
1448.181, 14262.00
1449.226, 14046.00
1450.271, 14213.00
1451.316, 14120.00
1452.361, 14027.00
1453.405, 14220.00
1454.450, 14216.00
1455.494, 14129.00
1456.538, 14351.00
1457.582, 14134.00
1458.626, 14163.00
1459.670, 14087.00
1460.713, 14057.00
1461.757, 14165.00
1462.800, 14076.00
1463.843, 14181.00
1464.886, 14186.00
1465.928, 14089.00
1466.971, 14211.00
1468.013, 14228.00
1469.055, 14177.00
1470.097, 14316.00
1471.139, 14291.00
1472.181, 14157.00
1473.222, 14283.00
1474.263, 14217.00
1475.305, 14173.00
1476.346, 14149.00
1477.386, 14232.00
1478.427, 14160.00
1479.468, 14105.00
1480.508, 14397.00
1481.548, 14168.00
1482.588, 14265.00
1483.628, 14268.00
1484.668, 14057.00
1485.707, 14161.00
1486.747, 14201.00
1487.786, 14217.00
1488.825, 14173.00
1489.864, 14296.00
1490.902, 14363.00
1491.941, 14348.00
1492.979, 14001.90
1494.017, 14219.08
1495.055, 14347.69
1496.093, 14392.46
1497.131, 14102.35
1498.168, 14244.66
1499.206, 14213.69
1500.243, 14175.59
1501.280, 14378.77
1502.317, 14137.35
1503.354, 14336.70
1504.390, 14360.09
1505.426, 14464.01
1506.463, 14393.56
1507.499, 14376.96
1508.535, 14534.79
1509.570, 14596.02
1510.606, 14343.00
1511.641, 14387.00
1512.676, 14351.00
1513.711, 14316.00
1514.746, 14329.00
1515.781, 14357.00
1516.816, 14254.00
1517.850, 14410.00
1518.884, 14264.00
1519.918, 14335.00
1520.952, 14351.00
1521.986, 14388.00
1523.019, 14408.00
1524.053, 14321.00
1525.086, 14301.00
1526.119, 14445.00
1527.152, 14270.00
1528.185, 14459.00
1529.217, 14441.00
1530.250, 14386.00
1531.282, 14380.00
1532.314, 14508.00
1533.346, 14428.55
1534.377, 14471.00
1535.409, 14462.00
1536.440, 14320.00
1537.472, 14496.00
1538.503, 14262.00
1539.534, 14376.00
1540.564, 14472.00
1541.595, 14360.00
1542.625, 14302.00
1543.656, 14487.00
1544.686, 14343.00
1545.716, 14486.00
1546.745, 14313.16
1547.775, 14511.20
1548.804, 14620.66
1549.834, 14646.29
1550.863, 14337.04
1551.892, 14460.22
1552.920, 14410.11
1553.949, 14352.88
1554.977, 14536.94
1556.006, 14276.39
1557.034, 14456.62
1558.062, 14460.90
1559.089, 14545.71
1560.117, 14456.14
1561.144, 14420.44
1562.172, 14559.16
1563.199, 14428.00
1564.226, 14435.00
1565.252, 14315.00
1566.279, 14499.00
1567.305, 14422.00
1568.332, 14386.00
1569.358, 14510.00
1570.384, 14506.00
1571.409, 14540.00
##END=



