##NAMES=Edingtonite
##RRUFFID=R040003
##IDEAL CHEMISTRY=Ba(Si_3_Al_2_)O_10_&#183;4H_2_O
##LOCALITY=Bohl, Sweden
##OWNER=RRUFF
##SOURCE=University of Arizona Mineral Museum
##DESCRIPTION=Colorless tetragonal prism
##STATUS=The identification of this mineral has been confirmed by X-ray diffraction and chemical analysis
##URL=rruff.info/R040003
##MEASURED CHEMISTRY=Ba_1.00_(Si_3.00_Al_2.00_)O_10_Â·4H_2_O; trace amounts of Na; H_2_O estimated by difference
##PIN_ID=m00029
##ORIENTATION=Laser parallel to c* (0 0 1). Fiducial mark perpendicular to laser is parallel to a [1 0 0]
26.288, 1.518e+004
27.694, 1.430e+004
29.099, 1.383e+004
30.504, 1.313e+004
31.909, 1.268e+004
33.313, 1.209e+004
34.717, 1.171e+004
36.121, 1.139e+004
37.525, 1.111e+004
38.929, 1.086e+004
40.332, 1.062e+004
41.735, 1.021e+004
43.138, 1.040e+004
44.541, 9.946e+003
45.943, 9.873e+003
47.345, 9.907e+003
48.747, 9.580e+003
50.149, 9.520e+003
51.551, 9.218e+003
52.952, 8.974e+003
54.353, 9.131e+003
55.754, 8.822e+003
57.155, 8.561e+003
58.555, 8.277e+003
59.955, 7.930e+003
61.355, 7.712e+003
62.755, 7.607e+003
64.154, 7.409e+003
65.553, 7.429e+003
66.952, 7.100e+003
68.351, 7.087e+003
69.750, 6.889e+003
71.148, 6.798e+003
72.546, 6.960e+003
73.944, 6.559e+003
75.342, 6.665e+003
76.739, 6.626e+003
78.136, 6.540e+003
79.533, 6.528e+003
80.930, 6.473e+003
82.327, 6.410e+003
83.723, 6.187e+003
85.119, 6.025e+003
86.515, 5.883e+003
87.910, 5.905e+003
89.306, 5.888e+003
90.701, 5.814e+003
92.096, 5.772e+003
93.490, 5.788e+003
94.885, 5.769e+003
96.279, 5.664e+003
97.673, 5.726e+003
99.067, 5.711e+003
100.461, 5.814e+003
101.854, 6.006e+003
103.247, 6.169e+003
104.640, 6.442e+003
106.032, 6.601e+003
107.425, 6.827e+003
108.817, 6.940e+003
110.209, 7.075e+003
111.601, 7.372e+003
112.992, 7.984e+003
114.384, 1.181e+004
115.775, 2.393e+004
117.166, 1.484e+004
118.556, 1.089e+004
119.947, 1.048e+004
121.337, 1.044e+004
122.727, 1.083e+004
124.116, 1.146e+004
125.506, 1.217e+004
126.895, 1.299e+004
128.284, 1.406e+004
129.673, 1.520e+004
131.062, 1.668e+004
132.450, 1.815e+004
133.838, 1.969e+004
135.226, 2.054e+004
136.614, 2.123e+004
138.001, 2.126e+004
139.388, 2.162e+004
140.775, 2.164e+004
142.162, 2.175e+004
143.549, 2.194e+004
144.935, 2.310e+004
146.321, 2.400e+004
147.707, 2.601e+004
149.093, 2.837e+004
150.478, 3.058e+004
151.863, 3.345e+004
153.248, 3.569e+004
154.633, 3.649e+004
156.018, 3.630e+004
157.402, 3.439e+004
158.786, 3.160e+004
160.170, 2.849e+004
161.554, 2.518e+004
162.937, 2.286e+004
164.320, 2.064e+004
165.703, 1.884e+004
167.086, 1.753e+004
168.469, 1.644e+004
169.851, 1.563e+004
171.233, 1.495e+004
172.615, 1.433e+004
173.996, 1.376e+004
175.378, 1.324e+004
176.759, 1.304e+004
178.140, 1.269e+004
179.521, 1.244e+004
180.901, 1.211e+004
182.281, 1.205e+004
183.662, 1.182e+004
185.041, 1.173e+004
186.421, 1.149e+004
187.800, 1.148e+004
189.180, 1.120e+004
190.558, 1.105e+004
191.937, 1.094e+004
193.316, 1.087e+004
194.694, 1.072e+004
196.072, 1.058e+004
197.450, 1.051e+004
198.827, 1.045e+004
200.205, 1.025e+004
201.582, 1.020e+004
202.959, 1.019e+004
204.336, 9.952e+003
205.712, 1.005e+004
207.088, 9.971e+003
208.465, 9.859e+003
209.840, 9.549e+003
211.216, 9.380e+003
212.591, 9.305e+003
213.967, 9.127e+003
215.341, 9.105e+003
216.716, 8.995e+003
218.091, 8.906e+003
219.465, 8.913e+003
220.839, 8.865e+003
222.213, 8.949e+003
223.586, 8.876e+003
224.960, 8.828e+003
226.333, 8.845e+003
227.706, 8.937e+003
229.079, 9.009e+003
230.451, 9.304e+003
231.823, 9.653e+003
233.195, 9.565e+003
234.567, 9.829e+003
235.939, 9.608e+003
237.310, 9.441e+003
238.682, 8.910e+003
240.052, 8.577e+003
241.423, 8.288e+003
242.794, 8.267e+003
244.164, 8.110e+003
245.534, 8.106e+003
246.904, 8.086e+003
248.274, 8.109e+003
249.643, 7.963e+003
251.012, 8.008e+003
252.381, 7.996e+003
253.750, 7.994e+003
255.118, 8.061e+003
256.487, 8.074e+003
257.855, 8.066e+003
259.223, 8.002e+003
260.590, 7.999e+003
261.958, 8.151e+003
263.325, 8.229e+003
264.692, 8.249e+003
266.059, 8.385e+003
267.425, 8.370e+003
268.791, 8.533e+003
270.158, 8.674e+003
271.523, 8.832e+003
272.889, 9.157e+003
274.255, 9.298e+003
275.620, 9.411e+003
276.985, 9.628e+003
278.350, 9.695e+003
279.714, 9.558e+003
281.078, 9.350e+003
282.443, 9.145e+003
283.806, 8.841e+003
285.170, 8.711e+003
286.534, 8.573e+003
287.897, 8.435e+003
289.260, 8.296e+003
290.623, 8.268e+003
291.985, 8.140e+003
293.348, 8.121e+003
294.710, 8.040e+003
296.072, 8.008e+003
297.433, 8.088e+003
298.795, 7.973e+003
300.156, 8.056e+003
301.517, 8.024e+003
302.878, 7.980e+003
304.239, 7.975e+003
305.599, 8.023e+003
306.959, 8.087e+003
308.319, 7.985e+003
309.679, 8.080e+003
311.038, 8.030e+003
312.398, 8.116e+003
313.757, 8.108e+003
315.116, 8.000e+003
316.474, 8.008e+003
317.833, 7.960e+003
319.191, 8.051e+003
320.549, 7.984e+003
321.907, 7.995e+003
323.264, 8.030e+003
324.622, 7.974e+003
325.979, 7.953e+003
327.336, 7.987e+003
328.692, 7.956e+003
330.049, 7.994e+003
331.405, 8.022e+003
332.761, 7.930e+003
334.117, 8.067e+003
335.473, 8.048e+003
336.828, 8.038e+003
338.183, 8.050e+003
339.538, 8.021e+003
340.893, 8.105e+003
342.247, 8.194e+003
343.602, 8.064e+003
344.956, 8.096e+003
346.310, 8.208e+003
347.663, 8.211e+003
349.017, 8.241e+003
350.370, 8.151e+003
351.723, 8.268e+003
353.076, 8.280e+003
354.428, 8.282e+003
355.780, 8.331e+003
357.133, 8.383e+003
358.484, 8.427e+003
359.836, 8.490e+003
361.188, 8.625e+003
362.539, 8.712e+003
363.890, 8.674e+003
365.241, 8.729e+003
366.591, 8.682e+003
367.942, 8.641e+003
369.292, 8.618e+003
370.642, 8.586e+003
371.992, 8.650e+003
373.341, 8.574e+003
374.691, 8.630e+003
376.040, 8.654e+003
377.388, 8.689e+003
378.737, 8.660e+003
380.086, 8.844e+003
381.434, 8.774e+003
382.782, 8.835e+003
384.130, 8.868e+003
385.477, 9.013e+003
386.825, 8.916e+003
388.172, 9.000e+003
389.519, 9.133e+003
390.865, 9.100e+003
392.212, 9.163e+003
393.558, 9.299e+003
394.904, 9.332e+003
396.250, 9.503e+003
397.596, 9.642e+003
398.941, 9.826e+003
400.286, 9.964e+003
401.631, 1.011e+004
402.976, 1.018e+004
404.321, 1.041e+004
405.665, 1.022e+004
407.009, 1.028e+004
408.353, 1.039e+004
409.697, 1.013e+004
411.040, 9.910e+003
412.384, 9.720e+003
413.727, 9.722e+003
415.070, 9.857e+003
416.412, 9.840e+003
417.755, 1.003e+004
419.097, 1.011e+004
420.439, 1.024e+004
421.781, 1.045e+004
423.122, 1.074e+004
424.464, 1.076e+004
425.805, 1.106e+004
427.146, 1.131e+004
428.486, 1.150e+004
429.827, 1.167e+004
431.167, 1.179e+004
432.507, 1.191e+004
433.847, 1.193e+004
435.187, 1.167e+004
436.526, 1.161e+004
437.865, 1.134e+004
439.204, 1.104e+004
440.543, 1.078e+004
441.882, 1.051e+004
443.220, 1.027e+004
444.558, 1.015e+004
445.896, 9.957e+003
447.234, 9.851e+003
448.572, 9.604e+003
449.909, 9.618e+003
451.246, 9.522e+003
452.583, 9.479e+003
453.919, 9.568e+003
455.256, 9.497e+003
456.592, 9.522e+003
457.928, 9.538e+003
459.264, 9.577e+003
460.600, 9.496e+003
461.935, 9.520e+003
463.270, 9.653e+003
464.605, 9.704e+003
465.940, 9.658e+003
467.274, 9.903e+003
468.609, 9.915e+003
469.943, 1.000e+004
471.277, 1.011e+004
472.610, 1.021e+004
473.944, 1.036e+004
475.277, 1.052e+004
476.610, 1.063e+004
477.943, 1.074e+004
479.275, 1.087e+004
480.608, 1.108e+004
481.940, 1.133e+004
483.272, 1.144e+004
484.604, 1.166e+004
485.935, 1.207e+004
487.267, 1.219e+004
488.598, 1.248e+004
489.929, 1.277e+004
491.260, 1.655e+004
492.590, 1.334e+004
493.920, 1.360e+004
495.250, 1.385e+004
496.580, 1.414e+004
497.910, 1.420e+004
499.239, 1.452e+004
500.569, 1.426e+004
501.898, 1.451e+004
503.226, 1.422e+004
504.555, 1.436e+004
505.883, 1.411e+004
507.212, 1.429e+004
508.540, 1.433e+004
509.867, 1.452e+004
511.195, 1.473e+004
512.522, 1.529e+004
513.849, 1.576e+004
515.176, 1.679e+004
516.503, 1.815e+004
517.829, 1.985e+004
519.156, 2.227e+004
520.482, 2.568e+004
521.808, 3.003e+004
523.133, 3.664e+004
524.459, 4.455e+004
525.784, 5.483e+004
527.109, 6.519e+004
528.434, 6.554e+004
529.758, 6.554e+004
531.083, 6.554e+004
532.407, 6.113e+004
533.731, 5.110e+004
535.055, 4.228e+004
536.378, 3.486e+004
537.701, 2.925e+004
539.025, 2.509e+004
540.348, 2.173e+004
541.670, 1.934e+004
542.993, 1.767e+004
544.315, 1.633e+004
545.637, 1.499e+004
546.959, 1.416e+004
548.281, 1.349e+004
549.602, 1.278e+004
550.923, 1.228e+004
552.244, 1.201e+004
553.565, 1.162e+004
554.886, 1.140e+004
556.206, 1.117e+004
557.526, 1.079e+004
558.846, 1.064e+004
560.166, 1.046e+004
561.486, 1.038e+004
562.805, 1.014e+004
564.124, 1.014e+004
565.443, 1.010e+004
566.762, 9.782e+003
568.080, 9.715e+003
569.399, 9.731e+003
570.717, 9.673e+003
572.035, 9.714e+003
573.352, 9.644e+003
574.670, 9.475e+003
575.987, 9.519e+003
577.304, 9.499e+003
578.621, 9.472e+003
579.938, 9.315e+003
581.254, 9.397e+003
582.570, 9.326e+003
583.886, 9.300e+003
585.202, 9.352e+003
586.518, 9.321e+003
587.833, 9.230e+003
589.148, 9.290e+003
590.463, 9.200e+003
591.778, 9.186e+003
593.093, 9.194e+003
594.407, 9.129e+003
595.721, 9.259e+003
597.035, 9.147e+003
598.349, 9.086e+003
599.662, 9.129e+003
600.976, 9.116e+003
602.289, 9.066e+003
603.602, 9.036e+003
604.914, 9.118e+003
606.227, 8.966e+003
607.539, 8.962e+003
608.851, 9.020e+003
610.163, 8.948e+003
611.475, 8.895e+003
612.786, 8.911e+003
614.097, 8.931e+003
615.408, 8.887e+003
616.719, 8.886e+003
618.030, 8.813e+003
619.340, 8.844e+003
620.651, 8.850e+003
621.961, 8.873e+003
623.270, 8.890e+003
624.580, 8.811e+003
625.889, 8.809e+003
627.199, 8.843e+003
628.507, 8.800e+003
629.816, 8.777e+003
631.125, 8.817e+003
632.433, 8.789e+003
633.741, 8.848e+003
635.049, 8.649e+003
636.357, 8.780e+003
637.664, 8.811e+003
638.972, 8.752e+003
640.279, 8.753e+003
641.586, 8.783e+003
642.893, 8.738e+003
644.199, 8.833e+003
645.505, 8.708e+003
646.811, 8.820e+003
648.117, 8.752e+003
649.423, 8.832e+003
650.728, 8.830e+003
652.034, 8.793e+003
653.339, 8.862e+003
654.644, 8.696e+003
655.948, 8.817e+003
657.253, 8.790e+003
658.557, 8.822e+003
659.861, 8.826e+003
661.165, 8.764e+003
662.468, 8.806e+003
663.772, 8.838e+003
665.075, 8.909e+003
666.378, 8.836e+003
667.681, 8.757e+003
668.983, 8.824e+003
670.286, 8.937e+003
671.588, 8.777e+003
672.890, 8.906e+003
674.192, 8.961e+003
675.493, 8.987e+003
676.795, 9.020e+003
678.096, 8.975e+003
679.397, 9.095e+003
680.697, 9.103e+003
681.998, 9.056e+003
683.298, 9.174e+003
684.598, 9.134e+003
685.898, 9.164e+003
687.198, 9.308e+003
688.498, 9.323e+003
689.797, 9.399e+003
691.096, 9.487e+003
692.395, 9.578e+003
693.694, 9.763e+003
694.992, 9.780e+003
696.290, 1.012e+004
697.589, 1.023e+004
698.886, 1.046e+004
700.184, 1.084e+004
701.482, 1.099e+004
702.779, 1.144e+004
704.076, 1.165e+004
705.373, 1.187e+004
706.669, 1.203e+004
707.966, 1.184e+004
709.262, 1.165e+004
710.558, 1.137e+004
711.854, 1.113e+004
713.150, 1.081e+004
714.445, 1.064e+004
715.740, 1.043e+004
717.035, 1.038e+004
718.330, 1.010e+004
719.625, 1.006e+004
720.919, 9.962e+003
722.214, 9.860e+003
723.508, 9.819e+003
724.801, 9.622e+003
726.095, 9.677e+003
727.388, 9.505e+003
728.682, 9.370e+003
729.975, 9.404e+003
731.267, 9.393e+003
732.560, 9.291e+003
733.852, 9.333e+003
735.145, 9.236e+003
736.437, 9.329e+003
737.728, 9.138e+003
739.020, 9.236e+003
740.311, 9.261e+003
741.603, 9.285e+003
742.894, 9.191e+003
744.184, 9.265e+003
745.475, 9.190e+003
746.765, 9.175e+003
748.055, 9.147e+003
749.345, 9.152e+003
750.635, 9.238e+003
751.925, 9.200e+003
753.214, 9.195e+003
754.503, 9.061e+003
755.792, 9.217e+003
757.081, 9.227e+003
758.370, 9.186e+003
759.658, 9.227e+003
760.946, 9.257e+003
762.234, 9.146e+003
763.522, 9.164e+003
764.809, 9.260e+003
766.097, 9.281e+003
767.384, 9.236e+003
768.671, 9.280e+003
769.958, 9.156e+003
771.244, 9.304e+003
772.530, 9.300e+003
773.817, 9.164e+003
775.102, 9.280e+003
776.388, 9.289e+003
777.674, 9.247e+003
778.959, 9.157e+003
780.244, 9.253e+003
781.529, 9.204e+003
782.814, 9.205e+003
784.098, 9.275e+003
785.383, 9.298e+003
786.667, 9.367e+003
787.951, 9.285e+003
789.235, 9.294e+003
790.518, 9.247e+003
791.801, 9.259e+003
793.084, 9.342e+003
794.367, 9.338e+003
795.650, 9.323e+003
796.933, 9.425e+003
798.215, 9.430e+003
799.497, 9.376e+003
800.779, 9.404e+003
802.061, 9.416e+003
803.342, 9.514e+003
804.624, 9.539e+003
805.905, 9.503e+003
807.186, 9.873e+003
808.466, 9.426e+003
809.747, 9.532e+003
811.027, 9.480e+003
812.307, 9.546e+003
813.587, 9.696e+003
814.867, 9.444e+003
816.146, 9.553e+003
817.426, 9.694e+003
818.705, 9.603e+003
819.984, 9.649e+003
821.263, 9.579e+003
822.541, 9.598e+003
823.819, 9.664e+003
825.098, 9.638e+003
826.375, 9.698e+003
827.653, 9.580e+003
828.931, 9.695e+003
830.208, 9.583e+003
831.485, 9.692e+003
832.762, 9.757e+003
834.039, 9.569e+003
835.315, 9.581e+003
836.592, 9.778e+003
837.868, 9.734e+003
839.144, 9.804e+003
840.420, 9.725e+003
841.695, 9.841e+003
842.970, 9.856e+003
844.246, 9.728e+003
845.521, 9.815e+003
846.795, 9.805e+003
848.070, 9.789e+003
849.344, 9.883e+003
850.618, 9.844e+003
851.892, 9.904e+003
853.166, 9.802e+003
854.440, 9.804e+003
855.713, 9.850e+003
856.986, 9.885e+003
858.259, 9.982e+003
859.532, 9.949e+003
860.804, 9.916e+003
862.077, 1.019e+004
863.349, 1.001e+004
864.621, 9.998e+003
865.893, 1.001e+004
867.164, 9.909e+003
868.436, 1.001e+004
869.707, 9.991e+003
870.978, 1.008e+004
872.248, 1.014e+004
873.519, 9.976e+003
874.789, 1.007e+004
876.060, 1.007e+004
877.330, 1.009e+004
878.599, 1.015e+004
879.869, 1.009e+004
881.138, 1.009e+004
882.408, 1.017e+004
883.677, 1.007e+004
884.945, 1.012e+004
886.214, 1.012e+004
887.482, 1.026e+004
888.751, 1.028e+004
890.019, 1.015e+004
891.287, 1.022e+004
892.554, 1.027e+004
893.822, 1.022e+004
895.089, 1.037e+004
896.356, 1.026e+004
897.623, 1.041e+004
898.889, 1.026e+004
900.156, 1.036e+004
901.422, 1.033e+004
902.688, 1.033e+004
903.954, 1.050e+004
905.220, 1.046e+004
906.485, 1.038e+004
907.750, 1.055e+004
909.015, 1.045e+004
910.280, 1.045e+004
911.545, 1.056e+004
912.809, 1.041e+004
914.074, 1.056e+004
915.338, 1.054e+004
916.602, 1.048e+004
917.865, 1.057e+004
919.129, 1.057e+004
920.392, 1.064e+004
921.655, 1.057e+004
922.918, 1.056e+004
924.181, 1.067e+004
925.443, 1.063e+004
926.706, 1.069e+004
927.968, 1.058e+004
929.230, 1.065e+004
930.491, 1.082e+004
931.753, 1.082e+004
933.014, 1.084e+004
934.276, 1.093e+004
935.536, 1.086e+004
936.797, 1.105e+004
938.058, 1.082e+004
939.318, 1.102e+004
940.578, 1.110e+004
941.838, 1.115e+004
943.098, 1.137e+004
944.358, 1.132e+004
945.617, 1.155e+004
946.876, 1.165e+004
948.135, 1.188e+004
949.394, 1.225e+004
950.653, 1.260e+004
951.911, 1.288e+004
953.169, 1.345e+004
954.427, 1.378e+004
955.685, 1.441e+004
956.943, 1.385e+004
958.200, 1.349e+004
959.458, 1.329e+004
960.715, 1.314e+004
961.971, 1.287e+004
963.228, 1.270e+004
964.485, 1.268e+004
965.741, 1.254e+004
966.997, 1.260e+004
968.253, 1.266e+004
969.508, 1.270e+004
970.764, 1.255e+004
972.019, 1.270e+004
973.274, 1.277e+004
974.529, 1.297e+004
975.784, 1.318e+004
977.039, 1.350e+004
978.293, 1.382e+004
979.547, 1.435e+004
980.801, 1.460e+004
982.055, 1.500e+004
983.308, 1.558e+004
984.562, 1.562e+004
985.815, 1.599e+004
987.068, 1.638e+004
988.321, 1.687e+004
989.573, 1.748e+004
990.826, 1.800e+004
992.078, 1.897e+004
993.330, 1.962e+004
994.582, 2.023e+004
995.833, 2.035e+004
997.085, 2.006e+004
998.336, 1.930e+004
999.587, 1.818e+004
1000.838, 1.718e+004
1002.088, 1.619e+004
1003.339, 1.530e+004
1004.589, 1.472e+004
1005.839, 1.416e+004
1007.089, 1.352e+004
1008.339, 1.323e+004
1009.588, 1.296e+004
1010.838, 1.270e+004
1012.087, 1.265e+004
1013.336, 1.245e+004
1014.584, 1.227e+004
1015.833, 1.216e+004
1017.081, 1.204e+004
1018.330, 1.225e+004
1019.577, 1.215e+004
1020.825, 1.206e+004
1022.073, 1.219e+004
1023.320, 1.204e+004
1024.567, 1.225e+004
1025.814, 1.217e+004
1027.061, 1.225e+004
1028.308, 1.231e+004
1029.554, 1.234e+004
1030.800, 1.256e+004
1032.046, 1.259e+004
1033.292, 1.246e+004
1034.538, 1.281e+004
1035.783, 1.265e+004
1037.029, 1.291e+004
1038.274, 1.308e+004
1039.519, 1.326e+004
1040.763, 1.369e+004
1042.008, 1.561e+004
1043.252, 1.566e+004
1044.496, 1.479e+004
1045.740, 1.534e+004
1046.984, 1.615e+004
1048.228, 1.703e+004
1049.471, 1.809e+004
1050.714, 1.930e+004
1051.957, 2.017e+004
1053.200, 2.110e+004
1054.442, 2.144e+004
1055.685, 2.102e+004
1056.927, 2.054e+004
1058.169, 1.923e+004
1059.411, 1.848e+004
1060.652, 1.746e+004
1061.894, 1.669e+004
1063.135, 1.568e+004
1064.376, 1.541e+004
1065.617, 1.483e+004
1066.858, 1.427e+004
1068.098, 1.412e+004
1069.339, 1.382e+004
1070.579, 1.342e+004
1071.819, 1.346e+004
1073.058, 1.311e+004
1074.298, 1.301e+004
1075.537, 1.274e+004
1076.776, 1.285e+004
1078.015, 1.261e+004
1079.254, 1.247e+004
1080.493, 1.242e+004
1081.731, 1.240e+004
1082.969, 1.242e+004
1084.207, 1.240e+004
1085.445, 1.232e+004
1086.683, 1.242e+004
1087.920, 1.221e+004
1089.157, 1.230e+004
1090.394, 1.224e+004
1091.631, 1.231e+004
1092.868, 1.225e+004
1094.105, 1.236e+004
1095.341, 1.223e+004
1096.577, 1.233e+004
1097.813, 1.257e+004
1099.049, 1.242e+004
1100.284, 1.264e+004
1101.519, 1.264e+004
1102.755, 1.257e+004
1103.990, 1.253e+004
1105.224, 1.237e+004
1106.459, 1.250e+004
1107.693, 1.227e+004
1108.928, 1.229e+004
1110.162, 1.222e+004
1111.395, 1.218e+004
1112.629, 1.228e+004
1113.863, 1.222e+004
1115.096, 1.211e+004
1116.329, 1.206e+004
1117.562, 1.210e+004
1118.795, 1.209e+004
1120.027, 1.219e+004
1121.259, 1.263e+004
1122.492, 1.341e+004
1123.723, 1.322e+004
1124.955, 1.274e+004
1126.187, 1.236e+004
1127.418, 1.229e+004
1128.649, 1.195e+004
1129.880, 1.209e+004
1131.111, 1.197e+004
1132.342, 1.208e+004
1133.572, 1.205e+004
1134.802, 1.209e+004
1136.033, 1.197e+004
1137.262, 1.207e+004
1138.492, 1.203e+004
1139.722, 1.210e+004
1140.951, 1.203e+004
1142.180, 1.205e+004
1143.409, 1.205e+004
1144.638, 1.203e+004
1145.866, 1.209e+004
1147.095, 1.204e+004
1148.323, 1.202e+004
1149.551, 1.206e+004
1150.779, 1.201e+004
1152.006, 1.218e+004
1153.234, 1.197e+004
1154.461, 1.210e+004
1155.688, 1.219e+004
1156.915, 1.194e+004
1158.141, 1.211e+004
1159.368, 1.227e+004
1160.594, 1.219e+004
1161.820, 1.215e+004
1163.046, 1.216e+004
1164.272, 1.221e+004
1165.498, 1.234e+004
1166.723, 1.227e+004
1167.948, 1.217e+004
1169.173, 1.233e+004
1170.398, 1.225e+004
1171.623, 1.232e+004
1172.847, 1.214e+004
1174.071, 1.225e+004
1175.295, 1.228e+004
1176.519, 1.400e+004
1177.743, 1.247e+004
1178.966, 1.236e+004
1180.190, 1.228e+004
1181.413, 1.241e+004
1182.636, 1.235e+004
1183.858, 1.243e+004
1185.081, 1.253e+004
1186.303, 1.229e+004
1187.526, 1.240e+004
1188.748, 1.241e+004
1189.969, 1.229e+004
1191.191, 1.245e+004
1192.412, 1.248e+004
1193.634, 1.256e+004
1194.855, 1.398e+004
1196.076, 1.241e+004
1197.296, 1.255e+004
1198.517, 1.249e+004
1199.737, 1.232e+004
1200.957, 1.262e+004
1202.177, 1.249e+004
1203.397, 1.239e+004
1204.617, 1.246e+004
1205.836, 1.259e+004
1207.055, 1.252e+004
1208.274, 1.266e+004
1209.493, 1.246e+004
1210.712, 1.265e+004
1211.930, 1.253e+004
1213.148, 1.264e+004
1214.367, 1.266e+004
1215.584, 1.252e+004
1216.802, 1.271e+004
1218.020, 1.269e+004
1219.237, 1.267e+004
1220.454, 1.275e+004
1221.671, 1.265e+004
1222.888, 1.254e+004
1224.105, 1.280e+004
1225.321, 1.267e+004
1226.537, 1.267e+004
1227.753, 1.283e+004
1228.969, 1.261e+004
1230.185, 1.270e+004
1231.400, 1.282e+004
1232.616, 1.274e+004
1233.831, 1.274e+004
1235.046, 1.278e+004
1236.261, 1.282e+004
1237.475, 1.283e+004
1238.689, 1.290e+004
1239.904, 1.276e+004
1241.118, 1.290e+004
1242.332, 1.271e+004
1243.545, 1.300e+004
1244.759, 1.283e+004
1245.972, 1.289e+004
1247.185, 1.294e+004
1248.398, 1.285e+004
1249.611, 1.305e+004
1250.823, 1.304e+004
1252.036, 1.279e+004
1253.248, 1.305e+004
1254.460, 1.304e+004
1255.671, 1.305e+004
1256.883, 1.302e+004
1258.095, 1.301e+004
1259.306, 1.299e+004
1260.517, 1.306e+004
1261.728, 1.298e+004
1262.938, 1.297e+004
1264.149, 1.300e+004
1265.359, 1.299e+004
1266.569, 1.311e+004
1267.779, 1.317e+004
1268.989, 1.313e+004
1270.199, 1.314e+004
1271.408, 1.319e+004
1272.617, 1.309e+004
1273.826, 1.312e+004
1275.035, 1.318e+004
1276.244, 1.320e+004
1277.452, 1.316e+004
1278.661, 1.311e+004
1279.869, 1.320e+004
1281.077, 1.317e+004
1282.285, 1.331e+004
1283.492, 1.321e+004
1284.700, 1.328e+004
1285.907, 1.333e+004
1287.114, 1.329e+004
1288.321, 1.319e+004
1289.527, 1.339e+004
1290.734, 1.322e+004
1291.940, 1.334e+004
1293.146, 1.344e+004
1294.352, 1.339e+004
1295.558, 1.343e+004
1296.763, 1.345e+004
1297.969, 1.346e+004
1299.174, 1.348e+004
1300.379, 1.358e+004
1301.584, 1.351e+004
1302.788, 1.356e+004
1303.993, 1.349e+004
1305.197, 1.351e+004
1306.401, 1.368e+004
1307.605, 1.353e+004
1308.809, 1.365e+004
1310.013, 1.364e+004
1311.216, 1.359e+004
1312.419, 1.360e+004
1313.622, 1.360e+004
1314.825, 1.374e+004
1316.028, 1.385e+004
1317.230, 1.371e+004
1318.432, 1.408e+004
1319.634, 1.389e+004
1320.836, 1.382e+004
1322.038, 1.396e+004
1323.240, 1.388e+004
1324.441, 1.389e+004
1325.642, 1.382e+004
1326.843, 1.368e+004
1328.044, 1.398e+004
1329.245, 1.393e+004
1330.445, 1.388e+004
1331.645, 1.400e+004
1332.845, 1.402e+004
1334.045, 1.396e+004
1335.245, 1.392e+004
1336.445, 1.420e+004
1337.644, 1.402e+004
1338.843, 1.412e+004
1340.042, 1.406e+004
1341.241, 1.420e+004
1342.440, 1.403e+004
1343.638, 1.407e+004
1344.836, 1.418e+004
1346.034, 1.412e+004
1347.232, 1.429e+004
1348.430, 1.417e+004
1349.628, 1.411e+004
1350.825, 1.427e+004
1352.022, 1.430e+004
1353.219, 1.412e+004
1354.416, 1.428e+004
1355.613, 1.430e+004
1356.809, 1.424e+004
1358.005, 1.431e+004
1359.202, 1.415e+004
1360.398, 1.493e+004
1361.593, 1.511e+004
1362.789, 1.430e+004
1363.984, 1.437e+004
1365.179, 1.461e+004
1366.374, 1.442e+004
1367.569, 1.446e+004
1368.764, 1.452e+004
1369.958, 1.465e+004
1371.153, 1.441e+004
1372.347, 1.453e+004
1373.541, 1.462e+004
1374.735, 1.455e+004
1375.928, 1.461e+004
1377.122, 1.469e+004
1378.315, 1.459e+004
1379.508, 1.465e+004
1380.701, 1.470e+004
1381.893, 1.461e+004
1383.086, 1.479e+004
1384.278, 1.469e+004
1385.470, 1.482e+004
1386.662, 1.474e+004
1387.854, 1.478e+004
1389.046, 1.479e+004
1390.237, 1.482e+004
1391.428, 1.469e+004
1392.619, 1.476e+004
1393.810, 1.491e+004
1395.001, 1.480e+004
1396.191, 1.484e+004
1397.382, 1.499e+004
1398.572, 1.489e+004
1399.762, 1.493e+004
1400.952, 1.495e+004
1402.141, 1.495e+004
1403.331, 1.485e+004
1404.520, 1.514e+004
1405.709, 1.500e+004
1406.898, 1.513e+004
1408.087, 1.496e+004
1409.275, 1.509e+004
1410.464, 1.517e+004
1411.652, 1.509e+004
1412.840, 1.520e+004
1414.028, 1.514e+004
1415.215, 1.526e+004
1416.403, 1.523e+004
1417.590, 1.523e+004
1418.777, 1.522e+004
1419.964, 1.559e+004
1421.151, 1.525e+004
1422.338, 1.545e+004
1423.524, 1.543e+004
1424.710, 1.539e+004
1425.896, 1.539e+004
1427.082, 1.543e+004
1428.268, 1.558e+004
1429.453, 1.547e+004
1430.639, 1.560e+004
1431.824, 1.546e+004
1433.009, 1.560e+004
1434.194, 1.554e+004
1435.378, 1.563e+004
1436.563, 1.561e+004
1437.747, 1.575e+004
1438.931, 1.571e+004
1440.115, 1.581e+004
1441.299, 1.574e+004
1442.482, 1.584e+004
1443.666, 1.584e+004
1444.849, 1.579e+004
1446.032, 1.594e+004
1447.215, 1.595e+004
1448.397, 1.596e+004
1449.580, 1.589e+004
1450.762, 1.598e+004
1451.944, 1.597e+004
1453.126, 1.601e+004
1454.308, 1.603e+004
1455.490, 1.608e+004
1456.671, 1.593e+004
1457.852, 1.597e+004
1459.033, 1.599e+004
1460.214, 1.611e+004
1461.395, 1.601e+004
1462.575, 1.619e+004
1463.756, 1.609e+004
1464.936, 1.595e+004
1466.116, 1.615e+004
1467.296, 1.602e+004
1468.475, 1.623e+004
1469.655, 1.602e+004
1470.834, 1.614e+004
1472.013, 1.691e+004
1473.192, 1.607e+004
1474.371, 1.598e+004
1475.550, 1.625e+004
1476.728, 1.603e+004
1477.906, 1.616e+004
1479.084, 1.613e+004
1480.262, 1.615e+004
1481.440, 1.622e+004
1482.617, 1.623e+004
1483.795, 1.601e+004
1484.972, 1.621e+004
1486.149, 1.631e+004
1487.326, 1.609e+004
1488.502, 1.639e+004
1489.679, 1.616e+004
1490.855, 1.634e+004
1492.031, 1.638e+004
1493.207, 1.619e+004
1494.383, 1.642e+004
1495.559, 1.622e+004
1496.734, 1.618e+004
1497.909, 1.652e+004
1499.084, 1.636e+004
1500.259, 1.633e+004
1501.434, 1.657e+004
1502.608, 1.629e+004
1503.783, 1.707e+004
1504.957, 1.930e+002
##END=



