##NAMES=Edingtonite
##RRUFFID=R040003
##IDEAL CHEMISTRY=Ba(Si_3_Al_2_)O_10_&#183;4H_2_O
##LOCALITY=Bohl, Sweden
##OWNER=RRUFF
##SOURCE=University of Arizona Mineral Museum
##DESCRIPTION=Colorless tetragonal prism
##STATUS=The identification of this mineral has been confirmed by X-ray diffraction and chemical analysis
##URL=rruff.info/R040003
##MEASURED CHEMISTRY=Ba_1.00_(Si_3.00_Al_2.00_)O_10_Â·4H_2_O; trace amounts of Na; H_2_O estimated by difference
##PIN_ID=m00026
##ORIENTATION=Laser parallel to a* (1 0 0). Fiducial mark perpendicular to laser is parallel to c [0 0 1]
26.288, 3.354e+003
27.694, 3.389e+003
29.099, 3.579e+003
30.504, 3.096e+003
31.909, 2.922e+003
33.313, 2.855e+003
34.717, 2.742e+003
36.121, 2.707e+003
37.525, 2.709e+003
38.929, 2.695e+003
40.332, 2.649e+003
41.735, 2.606e+003
43.138, 2.554e+003
44.541, 2.480e+003
45.943, 2.471e+003
47.345, 2.424e+003
48.747, 2.392e+003
50.149, 2.352e+003
51.551, 2.318e+003
52.952, 2.262e+003
54.353, 2.170e+003
55.754, 2.178e+003
57.155, 2.171e+003
58.555, 2.162e+003
59.955, 2.352e+003
61.355, 2.146e+003
62.755, 2.070e+003
64.154, 2.123e+003
65.553, 2.135e+003
66.952, 2.034e+003
68.351, 2.024e+003
69.750, 2.018e+003
71.148, 2.043e+003
72.546, 2.121e+003
73.944, 2.069e+003
75.342, 3.127e+003
76.739, 3.674e+003
78.136, 2.740e+003
79.533, 2.398e+003
80.930, 2.294e+003
82.327, 2.324e+003
83.723, 2.474e+003
85.119, 2.497e+003
86.515, 2.577e+003
87.910, 2.733e+003
89.306, 2.924e+003
90.701, 3.265e+003
92.096, 3.582e+003
93.490, 3.766e+003
94.885, 4.201e+003
96.279, 4.512e+003
97.673, 4.864e+003
99.067, 5.432e+003
100.461, 5.974e+003
101.854, 6.721e+003
103.247, 7.152e+003
104.640, 7.780e+003
106.032, 8.180e+003
107.425, 8.547e+003
108.817, 8.768e+003
110.209, 9.595e+003
111.601, 1.264e+004
112.992, 2.867e+004
114.384, 5.591e+004
115.775, 2.367e+004
117.166, 1.404e+004
118.556, 1.318e+004
119.947, 1.267e+004
121.337, 1.288e+004
122.727, 1.304e+004
124.116, 1.371e+004
125.506, 1.405e+004
126.895, 1.451e+004
128.284, 1.513e+004
129.673, 1.577e+004
131.062, 1.656e+004
132.450, 1.726e+004
133.838, 1.811e+004
135.226, 1.867e+004
136.614, 1.889e+004
138.001, 1.900e+004
139.388, 1.913e+004
140.775, 1.924e+004
142.162, 1.944e+004
143.549, 1.991e+004
144.935, 2.132e+004
146.321, 2.239e+004
147.707, 2.461e+004
149.093, 2.685e+004
150.478, 2.962e+004
151.863, 3.229e+004
153.248, 3.443e+004
154.633, 3.497e+004
156.018, 3.449e+004
157.402, 3.219e+004
158.786, 2.893e+004
160.170, 2.642e+004
161.554, 2.303e+004
162.937, 2.092e+004
164.320, 1.874e+004
165.703, 1.701e+004
167.086, 1.583e+004
168.469, 1.458e+004
169.851, 1.372e+004
171.233, 1.291e+004
172.615, 1.220e+004
173.996, 1.182e+004
175.378, 1.130e+004
176.759, 1.109e+004
178.140, 1.077e+004
179.521, 1.055e+004
180.901, 1.018e+004
182.281, 1.004e+004
183.662, 9.737e+003
185.041, 9.662e+003
186.421, 9.505e+003
187.800, 9.483e+003
189.180, 9.306e+003
190.558, 9.150e+003
191.937, 8.968e+003
193.316, 8.934e+003
194.694, 8.740e+003
196.072, 8.784e+003
197.450, 8.742e+003
198.827, 8.618e+003
200.205, 8.591e+003
201.582, 8.532e+003
202.959, 8.517e+003
204.336, 8.432e+003
205.712, 8.646e+003
207.088, 8.669e+003
208.465, 8.506e+003
209.840, 8.079e+003
211.216, 7.517e+003
212.591, 7.421e+003
213.967, 7.168e+003
215.341, 7.143e+003
216.716, 7.102e+003
218.091, 6.937e+003
219.465, 6.903e+003
220.839, 6.880e+003
222.213, 6.849e+003
223.586, 6.770e+003
224.960, 6.705e+003
226.333, 6.745e+003
227.706, 6.756e+003
229.079, 6.745e+003
230.451, 6.737e+003
231.823, 6.795e+003
233.195, 6.912e+003
234.567, 6.902e+003
235.939, 6.887e+003
237.310, 6.734e+003
238.682, 6.590e+003
240.052, 6.424e+003
241.423, 6.481e+003
242.794, 6.440e+003
244.164, 6.473e+003
245.534, 6.376e+003
246.904, 6.346e+003
248.274, 6.451e+003
249.643, 6.308e+003
251.012, 6.317e+003
252.381, 6.271e+003
253.750, 6.212e+003
255.118, 6.289e+003
256.487, 6.231e+003
257.855, 6.313e+003
259.223, 6.360e+003
260.590, 6.375e+003
261.958, 6.440e+003
263.325, 6.547e+003
264.692, 6.499e+003
266.059, 6.491e+003
267.425, 6.698e+003
268.791, 6.589e+003
270.158, 6.741e+003
271.523, 6.879e+003
272.889, 6.998e+003
274.255, 7.141e+003
275.620, 7.191e+003
276.985, 7.458e+003
278.350, 7.397e+003
279.714, 7.242e+003
281.078, 7.118e+003
282.443, 6.882e+003
283.806, 6.636e+003
285.170, 6.554e+003
286.534, 6.487e+003
287.897, 6.326e+003
289.260, 6.190e+003
290.623, 6.225e+003
291.985, 6.049e+003
293.348, 6.054e+003
294.710, 6.037e+003
296.072, 6.060e+003
297.433, 6.026e+003
298.795, 5.948e+003
300.156, 6.099e+003
301.517, 6.023e+003
302.878, 6.092e+003
304.239, 6.120e+003
305.599, 6.086e+003
306.959, 6.159e+003
308.319, 6.157e+003
309.679, 6.248e+003
311.038, 6.204e+003
312.398, 6.259e+003
313.757, 6.267e+003
315.116, 6.264e+003
316.474, 6.251e+003
317.833, 6.138e+003
319.191, 6.137e+003
320.549, 6.114e+003
321.907, 6.060e+003
323.264, 6.149e+003
324.622, 5.973e+003
325.979, 5.975e+003
327.336, 5.972e+003
328.692, 6.000e+003
330.049, 5.945e+003
331.405, 6.008e+003
332.761, 6.055e+003
334.117, 6.010e+003
335.473, 6.044e+003
336.828, 6.085e+003
338.183, 6.217e+003
339.538, 6.141e+003
340.893, 6.152e+003
342.247, 6.319e+003
343.602, 6.291e+003
344.956, 6.311e+003
346.310, 6.365e+003
347.663, 6.320e+003
349.017, 6.319e+003
350.370, 6.235e+003
351.723, 6.254e+003
353.076, 6.233e+003
354.428, 6.324e+003
355.780, 6.242e+003
357.133, 6.318e+003
358.484, 6.472e+003
359.836, 6.489e+003
361.188, 6.542e+003
362.539, 6.590e+003
363.890, 6.595e+003
365.241, 6.517e+003
366.591, 6.520e+003
367.942, 6.466e+003
369.292, 6.424e+003
370.642, 6.387e+003
371.992, 6.484e+003
373.341, 6.389e+003
374.691, 6.413e+003
376.040, 6.491e+003
377.388, 6.442e+003
378.737, 6.633e+003
380.086, 6.742e+003
381.434, 6.766e+003
382.782, 6.898e+003
384.130, 7.008e+003
385.477, 7.062e+003
386.825, 7.078e+003
388.172, 7.243e+003
389.519, 7.198e+003
390.865, 7.233e+003
392.212, 7.288e+003
393.558, 7.374e+003
394.904, 7.391e+003
396.250, 7.483e+003
397.596, 7.686e+003
398.941, 7.787e+003
400.286, 7.920e+003
401.631, 8.062e+003
402.976, 8.142e+003
404.321, 8.190e+003
405.665, 7.988e+003
407.009, 7.961e+003
408.353, 7.728e+003
409.697, 7.600e+003
411.040, 7.532e+003
412.384, 7.430e+003
413.727, 7.418e+003
415.070, 7.443e+003
416.412, 7.476e+003
417.755, 7.668e+003
419.097, 7.708e+003
420.439, 7.990e+003
421.781, 8.050e+003
423.122, 8.498e+003
424.464, 8.607e+003
425.805, 8.955e+003
427.146, 9.221e+003
428.486, 9.371e+003
429.827, 9.792e+003
431.167, 9.929e+003
432.507, 9.932e+003
433.847, 9.910e+003
435.187, 9.742e+003
436.526, 9.594e+003
437.865, 9.203e+003
439.204, 8.926e+003
440.543, 8.566e+003
441.882, 8.240e+003
443.220, 7.987e+003
444.558, 7.636e+003
445.896, 7.489e+003
447.234, 7.412e+003
448.572, 7.176e+003
449.909, 7.191e+003
451.246, 6.881e+003
452.583, 7.044e+003
453.919, 6.902e+003
455.256, 6.920e+003
456.592, 6.949e+003
457.928, 6.959e+003
459.264, 6.971e+003
460.600, 6.913e+003
461.935, 7.066e+003
463.270, 6.963e+003
464.605, 7.178e+003
465.940, 7.138e+003
467.274, 7.212e+003
468.609, 7.289e+003
469.943, 7.351e+003
471.277, 7.497e+003
472.610, 7.547e+003
473.944, 7.702e+003
475.277, 7.912e+003
476.610, 7.930e+003
477.943, 8.135e+003
479.275, 8.243e+003
480.608, 8.374e+003
481.940, 8.664e+003
483.272, 8.655e+003
484.604, 8.990e+003
485.935, 9.403e+003
487.267, 9.520e+003
488.598, 9.844e+003
489.929, 1.004e+004
491.260, 1.050e+004
492.590, 1.069e+004
493.920, 1.096e+004
495.250, 1.125e+004
496.580, 1.154e+004
497.910, 1.166e+004
499.239, 1.178e+004
500.569, 1.159e+004
501.898, 1.189e+004
503.226, 1.173e+004
504.555, 1.189e+004
505.883, 1.174e+004
507.212, 1.198e+004
508.540, 1.204e+004
509.867, 1.224e+004
511.195, 1.260e+004
512.522, 1.329e+004
513.849, 1.387e+004
515.176, 1.530e+004
516.503, 1.683e+004
517.829, 1.892e+004
519.156, 2.178e+004
520.482, 2.598e+004
521.808, 3.128e+004
523.133, 3.853e+004
524.459, 4.795e+004
525.784, 5.920e+004
527.109, 6.554e+004
528.434, 6.554e+004
529.758, 6.554e+004
531.083, 6.554e+004
532.407, 6.303e+004
533.731, 5.196e+004
535.055, 4.222e+004
536.378, 3.425e+004
537.701, 2.843e+004
539.025, 2.381e+004
540.348, 2.032e+004
541.670, 1.750e+004
542.993, 1.579e+004
544.315, 1.422e+004
545.637, 1.291e+004
546.959, 1.206e+004
548.281, 1.104e+004
549.602, 1.047e+004
550.923, 9.902e+003
552.244, 9.488e+003
553.565, 9.057e+003
554.886, 8.813e+003
556.206, 8.580e+003
557.526, 8.234e+003
558.846, 8.162e+003
560.166, 7.928e+003
561.486, 7.732e+003
562.805, 7.558e+003
564.124, 7.462e+003
565.443, 7.463e+003
566.762, 7.269e+003
568.080, 7.145e+003
569.399, 7.147e+003
570.717, 7.065e+003
572.035, 7.139e+003
573.352, 6.961e+003
574.670, 6.939e+003
575.987, 6.941e+003
577.304, 6.749e+003
578.621, 6.788e+003
579.938, 6.796e+003
581.254, 6.787e+003
582.570, 6.848e+003
583.886, 6.843e+003
585.202, 6.922e+003
586.518, 6.937e+003
587.833, 6.924e+003
589.148, 6.966e+003
590.463, 6.918e+003
591.778, 6.798e+003
593.093, 6.819e+003
594.407, 6.758e+003
595.721, 6.848e+003
597.035, 6.826e+003
598.349, 6.915e+003
599.662, 6.894e+003
600.976, 6.933e+003
602.289, 6.798e+003
603.602, 6.733e+003
604.914, 6.776e+003
606.227, 6.702e+003
607.539, 6.643e+003
608.851, 6.475e+003
610.163, 6.442e+003
611.475, 6.407e+003
612.786, 6.580e+003
614.097, 6.680e+003
615.408, 6.642e+003
616.719, 6.851e+003
618.030, 6.958e+003
619.340, 7.046e+003
620.651, 7.268e+003
621.961, 7.715e+003
623.270, 8.132e+003
624.580, 8.616e+003
625.889, 8.719e+003
627.199, 8.696e+003
628.507, 8.354e+003
629.816, 7.851e+003
631.125, 7.515e+003
632.433, 7.022e+003
633.741, 6.840e+003
635.049, 6.606e+003
636.357, 6.604e+003
637.664, 6.595e+003
638.972, 6.657e+003
640.279, 6.747e+003
641.586, 6.970e+003
642.893, 7.085e+003
644.199, 7.453e+003
645.505, 7.603e+003
646.811, 7.614e+003
648.117, 7.672e+003
649.423, 7.610e+003
650.728, 7.483e+003
652.034, 7.346e+003
653.339, 7.426e+003
654.644, 7.118e+003
655.948, 6.974e+003
657.253, 6.818e+003
658.557, 6.456e+003
659.861, 6.222e+003
661.165, 6.022e+003
662.468, 5.912e+003
663.772, 5.820e+003
665.075, 5.675e+003
666.378, 5.685e+003
667.681, 5.575e+003
668.983, 5.600e+003
670.286, 5.590e+003
671.588, 5.559e+003
672.890, 5.563e+003
674.192, 5.490e+003
675.493, 5.508e+003
676.795, 5.523e+003
678.096, 5.421e+003
679.397, 5.497e+003
680.697, 5.474e+003
681.998, 5.474e+003
683.298, 5.534e+003
684.598, 5.638e+003
685.898, 5.510e+003
687.198, 5.620e+003
688.498, 5.634e+003
689.797, 5.748e+003
691.096, 5.808e+003
692.395, 5.880e+003
693.694, 5.986e+003
694.992, 6.044e+003
696.290, 6.319e+003
697.589, 6.414e+003
698.886, 6.648e+003
700.184, 6.882e+003
701.482, 7.016e+003
702.779, 7.358e+003
704.076, 7.442e+003
705.373, 7.680e+003
706.669, 7.705e+003
707.966, 7.606e+003
709.262, 7.488e+003
710.558, 7.178e+003
711.854, 7.079e+003
713.150, 6.748e+003
714.445, 6.691e+003
715.740, 6.596e+003
717.035, 6.537e+003
718.330, 6.460e+003
719.625, 6.335e+003
720.919, 6.316e+003
722.214, 6.104e+003
723.508, 6.059e+003
724.801, 6.013e+003
726.095, 5.997e+003
727.388, 5.919e+003
728.682, 5.983e+003
729.975, 5.861e+003
731.267, 5.955e+003
732.560, 5.825e+003
733.852, 5.857e+003
735.145, 5.817e+003
736.437, 5.741e+003
737.728, 5.728e+003
739.020, 5.769e+003
740.311, 5.725e+003
741.603, 5.632e+003
742.894, 5.730e+003
744.184, 5.762e+003
745.475, 5.780e+003
746.765, 5.727e+003
748.055, 5.807e+003
749.345, 5.746e+003
750.635, 5.952e+003
751.925, 5.853e+003
753.214, 5.832e+003
754.503, 5.813e+003
755.792, 5.728e+003
757.081, 5.807e+003
758.370, 5.801e+003
759.658, 5.768e+003
760.946, 5.805e+003
762.234, 5.860e+003
763.522, 5.892e+003
764.809, 5.931e+003
766.097, 5.856e+003
767.384, 5.887e+003
768.671, 5.764e+003
769.958, 5.769e+003
771.244, 5.801e+003
772.530, 5.788e+003
773.817, 5.796e+003
775.102, 5.779e+003
776.388, 5.808e+003
777.674, 5.781e+003
778.959, 5.763e+003
780.244, 5.772e+003
781.529, 5.781e+003
782.814, 5.681e+003
784.098, 5.790e+003
785.383, 5.741e+003
786.667, 5.890e+003
787.951, 6.206e+003
789.235, 5.906e+003
790.518, 5.942e+003
791.801, 5.985e+003
793.084, 6.076e+003
794.367, 6.063e+003
795.650, 6.099e+003
796.933, 6.154e+003
798.215, 6.130e+003
799.497, 6.199e+003
800.779, 6.174e+003
802.061, 6.141e+003
803.342, 6.110e+003
804.624, 6.090e+003
805.905, 6.158e+003
807.186, 6.201e+003
808.466, 6.075e+003
809.747, 6.253e+003
811.027, 6.172e+003
812.307, 6.187e+003
813.587, 6.239e+003
814.867, 6.159e+003
816.146, 6.336e+003
817.426, 6.347e+003
818.705, 6.308e+003
819.984, 6.351e+003
821.263, 6.322e+003
822.541, 6.439e+003
823.819, 6.537e+003
825.098, 6.529e+003
826.375, 6.529e+003
827.653, 6.524e+003
828.931, 6.720e+003
830.208, 7.003e+003
831.485, 6.616e+003
832.762, 6.740e+003
834.039, 6.692e+003
835.315, 6.708e+003
836.592, 6.758e+003
837.868, 6.708e+003
839.144, 6.959e+003
840.420, 6.939e+003
841.695, 7.062e+003
842.970, 7.215e+003
844.246, 7.246e+003
845.521, 7.423e+003
846.795, 7.378e+003
848.070, 7.414e+003
849.344, 7.450e+003
850.618, 7.440e+003
851.892, 7.567e+003
853.166, 7.747e+003
854.440, 7.880e+003
855.713, 8.007e+003
856.986, 8.355e+003
858.259, 8.704e+003
859.532, 8.857e+003
860.804, 8.904e+003
862.077, 9.138e+003
863.349, 8.548e+003
864.621, 8.425e+003
865.893, 8.179e+003
867.164, 7.942e+003
868.436, 7.846e+003
869.707, 7.561e+003
870.978, 7.601e+003
872.248, 7.559e+003
873.519, 7.415e+003
874.789, 7.388e+003
876.060, 7.514e+003
877.330, 7.394e+003
878.599, 7.453e+003
879.869, 7.375e+003
881.138, 7.297e+003
882.408, 7.382e+003
883.677, 7.360e+003
884.945, 7.339e+003
886.214, 7.209e+003
887.482, 7.357e+003
888.751, 7.364e+003
890.019, 7.262e+003
891.287, 7.466e+003
892.554, 7.274e+003
893.822, 7.432e+003
895.089, 7.468e+003
896.356, 7.416e+003
897.623, 7.493e+003
898.889, 7.463e+003
900.156, 7.522e+003
901.422, 7.498e+003
902.688, 7.367e+003
903.954, 7.501e+003
905.220, 7.406e+003
906.485, 7.397e+003
907.750, 7.495e+003
909.015, 7.362e+003
910.280, 7.360e+003
911.545, 7.483e+003
912.809, 7.260e+003
914.074, 7.360e+003
915.338, 7.277e+003
916.602, 7.076e+003
917.865, 6.940e+003
919.129, 6.989e+003
920.392, 7.004e+003
921.655, 6.731e+003
922.918, 6.938e+003
924.181, 6.946e+003
925.443, 6.876e+003
926.706, 7.032e+003
927.968, 7.010e+003
929.230, 6.993e+003
930.491, 7.143e+003
931.753, 6.978e+003
933.014, 7.159e+003
934.276, 7.186e+003
935.536, 7.030e+003
936.797, 7.310e+003
938.058, 7.122e+003
939.318, 7.227e+003
940.578, 7.286e+003
941.838, 7.351e+003
943.098, 7.571e+003
944.358, 7.550e+003
945.617, 7.627e+003
946.876, 7.883e+003
948.135, 8.118e+003
949.394, 8.640e+003
950.653, 8.966e+003
951.911, 9.380e+003
953.169, 9.990e+003
954.427, 1.013e+004
955.685, 1.032e+004
956.943, 1.009e+004
958.200, 9.775e+003
959.458, 9.764e+003
960.715, 9.255e+003
961.971, 9.006e+003
963.228, 8.910e+003
964.485, 8.614e+003
965.741, 8.735e+003
966.997, 8.578e+003
968.253, 8.526e+003
969.508, 8.532e+003
970.764, 8.437e+003
972.019, 8.509e+003
973.274, 8.485e+003
974.529, 8.521e+003
975.784, 8.760e+003
977.039, 8.928e+003
978.293, 9.225e+003
979.547, 9.764e+003
980.801, 1.002e+004
982.055, 1.048e+004
983.308, 1.086e+004
984.562, 1.107e+004
985.815, 1.164e+004
987.068, 1.192e+004
988.321, 1.248e+004
989.573, 1.301e+004
990.826, 1.348e+004
992.078, 1.435e+004
993.330, 1.469e+004
994.582, 1.526e+004
995.833, 1.550e+004
997.085, 1.517e+004
998.336, 1.484e+004
999.587, 1.439e+004
1000.838, 1.458e+004
1002.088, 1.451e+004
1003.339, 1.333e+004
1004.589, 1.178e+004
1005.839, 1.032e+004
1007.089, 9.212e+003
1008.339, 8.799e+003
1009.588, 8.444e+003
1010.838, 8.196e+003
1012.087, 8.192e+003
1013.336, 7.854e+003
1014.584, 7.928e+003
1015.833, 7.858e+003
1017.081, 7.890e+003
1018.330, 8.167e+003
1019.577, 8.139e+003
1020.825, 8.518e+003
1022.073, 8.486e+003
1023.320, 8.470e+003
1024.567, 8.927e+003
1025.814, 8.384e+003
1027.061, 8.356e+003
1028.308, 8.374e+003
1029.554, 8.128e+003
1030.800, 8.350e+003
1032.046, 8.271e+003
1033.292, 8.209e+003
1034.538, 8.393e+003
1035.783, 8.275e+003
1037.029, 8.546e+003
1038.274, 8.762e+003
1039.519, 8.841e+003
1040.763, 9.226e+003
1042.008, 9.494e+003
1043.252, 9.882e+003
1044.496, 1.052e+004
1045.740, 1.090e+004
1046.984, 1.213e+004
1048.228, 1.302e+004
1049.471, 1.415e+004
1050.714, 1.571e+004
1051.957, 1.656e+004
1053.200, 1.758e+004
1054.442, 1.771e+004
1055.685, 1.703e+004
1056.927, 1.646e+004
1058.169, 1.517e+004
1059.411, 1.401e+004
1060.652, 1.317e+004
1061.894, 1.229e+004
1063.135, 1.136e+004
1064.376, 1.083e+004
1065.617, 1.035e+004
1066.858, 9.906e+003
1068.098, 9.477e+003
1069.339, 9.243e+003
1070.579, 9.056e+003
1071.819, 8.638e+003
1073.058, 8.678e+003
1074.298, 8.550e+003
1075.537, 8.386e+003
1076.776, 8.576e+003
1078.015, 8.467e+003
1079.254, 8.440e+003
1080.493, 8.622e+003
1081.731, 8.591e+003
1082.969, 8.749e+003
1084.207, 8.674e+003
1085.445, 8.275e+003
1086.683, 8.389e+003
1087.920, 8.019e+003
1089.157, 7.992e+003
1090.394, 7.983e+003
1091.631, 7.808e+003
1092.868, 7.816e+003
1094.105, 7.827e+003
1095.341, 7.749e+003
1096.577, 7.878e+003
1097.813, 7.860e+003
1099.049, 7.946e+003
1100.284, 8.033e+003
1101.519, 7.872e+003
1102.755, 7.888e+003
1103.990, 7.871e+003
1105.224, 7.677e+003
1106.459, 7.939e+003
1107.693, 7.675e+003
1108.928, 7.792e+003
1110.162, 7.682e+003
1111.395, 7.538e+003
1112.629, 7.557e+003
1113.863, 7.400e+003
1115.096, 7.306e+003
1116.329, 7.276e+003
1117.562, 7.178e+003
1118.795, 7.298e+003
1120.027, 7.365e+003
1121.259, 7.696e+003
1122.492, 8.158e+003
1123.723, 7.886e+003
1124.955, 7.502e+003
1126.187, 7.262e+003
1127.418, 7.054e+003
1128.649, 7.049e+003
1129.880, 7.016e+003
1131.111, 7.009e+003
1132.342, 7.177e+003
1133.572, 6.968e+003
1134.802, 7.009e+003
1136.033, 6.998e+003
1137.262, 6.899e+003
1138.492, 7.232e+003
1139.722, 7.471e+003
1140.951, 7.177e+003
1142.180, 1.079e+004
1143.409, 6.751e+003
1144.638, 6.695e+003
1145.866, 6.674e+003
1147.095, 6.610e+003
1148.323, 6.725e+003
1149.551, 6.705e+003
1150.779, 6.654e+003
1152.006, 6.692e+003
1153.234, 6.683e+003
1154.461, 6.766e+003
1155.688, 6.746e+003
1156.915, 6.720e+003
1158.141, 6.859e+003
1159.368, 6.823e+003
1160.594, 6.848e+003
1161.820, 6.960e+003
1163.046, 6.769e+003
1164.272, 6.878e+003
1165.498, 7.002e+003
1166.723, 6.961e+003
1167.948, 7.070e+003
1169.173, 6.985e+003
1170.398, 7.109e+003
1171.623, 7.148e+003
1172.847, 6.998e+003
1174.071, 7.168e+003
1175.295, 7.036e+003
1176.519, 7.076e+003
1177.743, 7.174e+003
1178.966, 7.038e+003
1180.190, 6.990e+003
1181.413, 7.009e+003
1182.636, 6.869e+003
1183.858, 7.030e+003
1185.081, 6.964e+003
1186.303, 6.930e+003
1187.526, 7.028e+003
1188.748, 6.974e+003
1189.969, 6.939e+003
1191.191, 7.022e+003
1192.412, 6.753e+003
1193.634, 6.890e+003
1194.855, 6.907e+003
1196.076, 6.750e+003
1197.296, 6.896e+003
1198.517, 6.880e+003
1199.737, 6.903e+003
1200.957, 7.015e+003
1202.177, 6.978e+003
1203.397, 7.086e+003
1204.617, 6.966e+003
1205.836, 6.870e+003
1207.055, 6.865e+003
1208.274, 6.910e+003
1209.493, 6.774e+003
1210.712, 6.846e+003
1211.930, 6.861e+003
1213.148, 6.998e+003
1214.367, 7.146e+003
1215.584, 7.053e+003
1216.802, 7.302e+003
1218.020, 7.134e+003
1219.237, 6.997e+003
1220.454, 7.058e+003
1221.671, 6.991e+003
1222.888, 6.955e+003
1224.105, 6.954e+003
1225.321, 6.968e+003
1226.537, 7.093e+003
1227.753, 7.016e+003
1228.969, 7.013e+003
1230.185, 7.139e+003
1231.400, 7.206e+003
1232.616, 7.335e+003
1233.831, 7.393e+003
1235.046, 7.388e+003
1236.261, 7.626e+003
1237.475, 7.628e+003
1238.689, 7.640e+003
1239.904, 7.574e+003
1241.118, 7.558e+003
1242.332, 7.423e+003
1243.545, 7.606e+003
1244.759, 7.367e+003
1245.972, 7.610e+003
1247.185, 7.591e+003
1248.398, 7.533e+003
1249.611, 7.674e+003
1250.823, 7.582e+003
1252.036, 7.559e+003
1253.248, 7.488e+003
1254.460, 7.445e+003
1255.671, 7.450e+003
1256.883, 7.473e+003
1258.095, 7.471e+003
1259.306, 7.609e+003
1260.517, 7.452e+003
1261.728, 7.591e+003
1262.938, 7.646e+003
1264.149, 7.733e+003
1265.359, 7.831e+003
1266.569, 7.981e+003
1267.779, 7.972e+003
1268.989, 8.177e+003
1270.199, 8.166e+003
1271.408, 8.209e+003
1272.617, 8.256e+003
1273.826, 8.278e+003
1275.035, 8.306e+003
1276.244, 8.352e+003
1277.452, 8.244e+003
1278.661, 8.198e+003
1279.869, 7.953e+003
1281.077, 7.903e+003
1282.285, 7.973e+003
1283.492, 7.664e+003
1284.700, 7.829e+003
1285.907, 7.843e+003
1287.114, 7.648e+003
1288.321, 7.636e+003
1289.527, 7.816e+003
1290.734, 7.622e+003
1291.940, 7.918e+003
1293.146, 8.114e+003
1294.352, 8.209e+003
1295.558, 8.167e+003
1296.763, 8.044e+003
1297.969, 8.020e+003
1299.174, 7.814e+003
1300.379, 7.766e+003
1301.584, 7.915e+003
1302.788, 7.795e+003
1303.993, 7.839e+003
1305.197, 8.003e+003
1306.401, 8.037e+003
1307.605, 8.122e+003
1308.809, 8.335e+003
1310.013, 8.313e+003
1311.216, 8.586e+003
1312.419, 8.562e+003
1313.622, 8.388e+003
1314.825, 8.516e+003
1316.028, 8.438e+003
1317.230, 8.556e+003
1318.432, 8.501e+003
1319.634, 8.508e+003
1320.836, 8.604e+003
1322.038, 8.557e+003
1323.240, 8.316e+003
1324.441, 8.232e+003
1325.642, 8.175e+003
1326.843, 8.014e+003
1328.044, 7.941e+003
1329.245, 7.678e+003
1330.445, 7.644e+003
1331.645, 7.595e+003
1332.845, 7.426e+003
1334.045, 7.424e+003
1335.245, 7.214e+003
1336.445, 7.303e+003
1337.644, 7.264e+003
1338.843, 7.204e+003
1340.042, 7.171e+003
1341.241, 7.267e+003
1342.440, 7.038e+003
1343.638, 7.281e+003
1344.836, 7.236e+003
1346.034, 7.182e+003
1347.232, 7.362e+003
1348.430, 7.150e+003
1349.628, 7.183e+003
1350.825, 7.212e+003
1352.022, 7.180e+003
1353.219, 7.201e+003
1354.416, 7.222e+003
1355.613, 7.086e+003
1356.809, 7.196e+003
1358.005, 7.053e+003
1359.202, 7.051e+003
1360.398, 7.188e+003
1361.593, 7.029e+003
1362.789, 7.069e+003
1363.984, 7.197e+003
1365.179, 7.194e+003
1366.374, 7.286e+003
1367.569, 7.222e+003
1368.764, 7.120e+003
1369.958, 7.429e+003
1371.153, 7.246e+003
1372.347, 7.369e+003
1373.541, 7.428e+003
1374.735, 7.302e+003
1375.928, 7.421e+003
1377.122, 7.536e+003
1378.315, 7.434e+003
1379.508, 7.614e+003
1380.701, 7.583e+003
1381.893, 7.468e+003
1383.086, 7.619e+003
1384.278, 7.606e+003
1385.470, 7.564e+003
1386.662, 7.636e+003
1387.854, 7.467e+003
1389.046, 7.600e+003
1390.237, 7.646e+003
1391.428, 7.487e+003
1392.619, 7.666e+003
1393.810, 7.497e+003
1395.001, 7.266e+003
1396.191, 7.392e+003
1397.382, 7.258e+003
1398.572, 7.237e+003
1399.762, 7.300e+003
1400.952, 7.239e+003
1402.141, 7.202e+003
1403.331, 7.313e+003
1404.520, 7.143e+003
1405.709, 7.384e+003
1406.898, 7.295e+003
1408.087, 7.225e+003
1409.275, 7.402e+003
1410.464, 7.331e+003
1411.652, 7.413e+003
1412.840, 7.558e+003
1414.028, 7.336e+003
1415.215, 7.384e+003
1416.403, 7.436e+003
1417.590, 7.276e+003
1418.777, 7.552e+003
1419.964, 7.497e+003
1421.151, 7.385e+003
1422.338, 7.529e+003
1423.524, 7.355e+003
1424.710, 7.514e+003
1425.896, 7.628e+003
1427.082, 7.500e+003
1428.268, 7.800e+003
1429.453, 7.855e+003
1430.639, 7.782e+003
1431.824, 7.986e+003
1433.009, 8.048e+003
1434.194, 8.126e+003
1435.378, 8.473e+003
1436.563, 8.616e+003
1437.747, 9.031e+003
1438.931, 9.406e+003
1440.115, 9.581e+003
1441.299, 9.994e+003
1442.482, 1.031e+004
1443.666, 1.033e+004
1444.849, 1.055e+004
1446.032, 1.085e+004
1447.215, 1.074e+004
1448.397, 1.099e+004
1449.580, 1.115e+004
1450.762, 1.132e+004
1451.944, 1.138e+004
1453.126, 1.139e+004
1454.308, 1.151e+004
1455.490, 1.160e+004
1456.671, 1.137e+004
1457.852, 1.135e+004
1459.033, 1.134e+004
1460.214, 1.097e+004
1461.395, 1.096e+004
1462.575, 1.054e+004
1463.756, 1.051e+004
1464.936, 1.023e+004
1466.116, 1.001e+004
1467.296, 9.530e+003
1468.475, 9.690e+003
1469.655, 9.263e+003
1470.834, 9.153e+003
1472.013, 9.038e+003
1473.192, 8.809e+003
1474.371, 8.816e+003
1475.550, 8.698e+003
1476.728, 8.577e+003
1477.906, 8.772e+003
1479.084, 8.578e+003
1480.262, 8.610e+003
1481.440, 8.690e+003
1482.617, 8.530e+003
1483.795, 8.569e+003
1484.972, 8.566e+003
1486.149, 8.192e+003
1487.326, 8.273e+003
1488.502, 8.121e+003
1489.679, 7.862e+003
1490.855, 7.863e+003
1492.031, 7.675e+003
1493.207, 7.522e+003
1494.383, 7.621e+003
1495.559, 7.412e+003
1496.734, 7.333e+003
1497.909, 7.467e+003
1499.084, 7.184e+003
1500.259, 7.251e+003
1501.434, 7.301e+003
1502.608, 7.160e+003
1503.783, 7.660e+003
1504.957, 1.820e+002
##END=



