##NAMES=Edingtonite
##RRUFFID=R040110
##IDEAL CHEMISTRY=Ba(Si_3_Al_2_)O_10_&#183;4H_2_O
##LOCALITY=2350 level, Brunswick 12 mine, Bathhurst, New Brunswick, Canada
##OWNER=RRUFF
##SOURCE=National Museums of Canada
##DESCRIPTION=Colorless rectangular prism
##STATUS=The identification of this mineral has been confirmed by X-ray diffraction and chemical analysis
##URL=rruff.info/R040110
##MEASURED CHEMISTRY=Ba_1.00_(Si_3.00_Al_2.00_)O_10_Â·4H_2_O
##PIN_ID=M00390
##ORIENTATION=Laser parallel to -c* (0 0 -1). Fiducial mark perpendicular to laser is parallel to a [1 0 0]
53.91000, 532.0000
55.14900, 549.0000
56.38700, 543.0000
57.62600, 587.0000
58.86400, 583.0000
60.10300, 612.0000
61.34100, 680.0000
62.57900, 737.0000
63.81700, 796.0000
65.05400, 890.0000
66.29200, 1014.491
67.52900, 1142.000
68.76700, 1336.000
70.00400, 1527.000
71.24100, 1753.000
72.47700, 1908.000
73.71400, 2249.000
74.95100, 2544.000
76.18700, 2947.000
77.42300, 3205.000
78.65900, 3738.000
79.89500, 4061.000
81.13100, 4544.000
82.36700, 5083.000
83.60200, 5504.000
84.83700, 5912.000
86.07200, 6342.000
87.30800, 6766.000
88.54200, 7175.042
89.77700, 7593.985
91.01200, 8001.000
92.24600, 8421.000
93.48000, 8841.000
94.71400, 9267.000
95.94800, 9621.000
97.18200, 9963.000
98.41600, 10387.00
99.64900, 10868.00
100.8830, 11626.00
102.1160, 12040.00
103.3490, 12719.00
104.5820, 13258.00
105.8150, 14128.00
107.0470, 14804.00
108.2800, 15567.00
109.5120, 15858.00
110.7440, 16075.00
111.9760, 16510.00
113.2080, 17161.00
114.4400, 17766.00
115.6710, 18535.00
116.9030, 19242.00
118.1340, 19833.00
119.3650, 20651.00
120.5960, 21582.00
121.8270, 22622.00
123.0580, 23821.82
124.2880, 25214.00
125.5190, 26597.00
126.7490, 28111.00
127.9790, 29840.00
129.2090, 31369.00
130.4390, 32706.00
131.6680, 33663.00
132.8980, 33966.00
134.1270, 33377.00
135.3560, 32227.00
136.5850, 30499.00
137.8140, 28512.00
139.0430, 26387.00
140.2710, 24385.00
141.5000, 22521.00
142.7280, 21198.00
143.9560, 19796.00
145.1840, 18896.00
146.4120, 17888.00
147.6390, 17390.00
148.8670, 16933.00
150.0940, 16677.00
151.3210, 16179.00
152.5490, 15754.00
153.7750, 15577.00
155.0020, 14952.00
156.2290, 14583.00
157.4550, 14041.00
158.6810, 13504.00
159.9080, 12926.00
161.1340, 12562.00
162.3590, 12220.00
163.5850, 11935.00
164.8110, 11637.00
166.0360, 11486.00
167.2610, 11207.00
168.4860, 11116.00
169.7110, 11043.00
170.9360, 10810.00
172.1610, 10659.00
173.3850, 10729.00
174.6100, 10689.00
175.8340, 10577.00
177.0580, 10564.00
178.2820, 10372.00
179.5050, 10287.00
180.7290, 10360.00
181.9520, 10230.00
183.1760, 10296.00
184.3990, 10076.00
185.6220, 10111.00
186.8450, 10031.00
188.0670, 9970.000
189.2900, 9969.000
190.5120, 9886.000
191.7340, 9883.000
192.9560, 9779.000
194.1780, 9738.000
195.4000, 9719.000
196.6220, 9676.000
197.8430, 9716.000
199.0640, 9722.000
200.2860, 9761.000
201.5070, 9654.000
202.7270, 9600.000
203.9480, 9646.000
205.1690, 9392.000
206.3890, 9511.000
207.6090, 9411.000
208.8290, 9453.000
210.0490, 9607.000
211.2690, 9497.000
212.4890, 9755.000
213.7080, 9762.000
214.9280, 9947.000
216.1470, 10178.00
217.3660, 10225.00
218.5850, 10594.00
219.8030, 11075.00
221.0220, 11525.00
222.2400, 12438.00
223.4590, 13454.00
224.6770, 14726.00
225.8950, 16337.00
227.1120, 17815.00
228.3300, 19498.00
229.5480, 21420.00
230.7650, 24247.00
231.9820, 27019.00
233.1990, 29328.00
234.4160, 30234.00
235.6330, 29558.00
236.8490, 26903.00
238.0660, 23480.00
239.2820, 20057.00
240.4980, 17204.00
241.7140, 15180.00
242.9300, 13414.00
244.1460, 12155.00
245.3610, 11559.00
246.5770, 11120.00
247.7920, 10700.00
249.0070, 10489.00
250.2220, 10125.00
251.4370, 9843.000
252.6510, 9926.000
253.8660, 9707.000
255.0800, 9809.000
256.2940, 9770.000
257.5080, 9791.000
258.7220, 9778.000
259.9360, 9686.000
261.1490, 9522.000
262.3630, 9339.000
263.5760, 9446.000
264.7890, 9263.000
266.0020, 9319.000
267.2150, 9405.000
268.4270, 9451.000
269.6400, 9445.000
270.8520, 9465.000
272.0640, 9415.000
273.2760, 9411.000
274.4880, 9431.000
275.7000, 9397.195
276.9120, 9435.000
278.1230, 9378.000
279.3340, 9252.000
280.5450, 9249.000
281.7560, 9242.000
282.9670, 9332.000
284.1780, 9212.000
285.3880, 9370.000
286.5980, 9158.000
287.8090, 9259.000
289.0190, 9277.000
290.2290, 9308.000
291.4380, 9320.000
292.6480, 9518.000
293.8570, 9568.000
295.0670, 9667.000
296.2760, 9813.000
297.4850, 9813.000
298.6930, 9947.000
299.9020, 10148.00
301.1110, 10237.00
302.3190, 10466.00
303.5270, 10650.00
304.7350, 10752.00
305.9430, 10863.00
307.1510, 11065.00
308.3580, 11165.00
309.5660, 11432.00
310.7730, 11456.00
311.9800, 11577.00
313.1870, 11765.00
314.3940, 11625.00
315.6010, 11460.00
316.8070, 11517.00
318.0130, 11354.00
319.2200, 11348.00
320.4260, 11144.00
321.6310, 11108.00
322.8370, 10986.00
324.0430, 10674.00
325.2480, 10685.00
326.4540, 10507.00
327.6590, 10452.00
328.8640, 10313.00
330.0680, 10394.00
331.2730, 10320.00
332.4780, 10270.00
333.6820, 10184.00
334.8860, 10182.14
336.0900, 10301.00
337.2940, 10208.00
338.4980, 10243.00
339.7010, 10319.00
340.9050, 10531.00
342.1080, 10684.00
343.3110, 10835.00
344.5140, 10945.00
345.7170, 11001.00
346.9200, 11231.00
348.1220, 11303.00
349.3240, 11848.00
350.5270, 12099.00
351.7290, 12389.00
352.9310, 12504.00
354.1320, 12905.00
355.3340, 13181.00
356.5350, 13361.00
357.7370, 13514.00
358.9380, 13534.05
360.1390, 13492.00
361.3400, 13354.00
362.5400, 13145.00
363.7410, 12836.00
364.9410, 12384.00
366.1410, 11899.00
367.3410, 11665.00
368.5410, 11401.00
369.7410, 11052.00
370.9400, 10806.00
372.1400, 10545.00
373.3390, 10378.00
374.5380, 10441.00
375.7370, 10281.00
376.9360, 10247.00
378.1350, 10112.00
379.3330, 10169.00
380.5310, 10112.00
381.7300, 10155.00
382.9280, 10108.00
384.1260, 10147.00
385.3230, 10118.00
386.5210, 10103.00
387.7180, 10203.00
388.9160, 10337.00
390.1130, 10274.00
391.3100, 10585.00
392.5060, 10741.00
393.7030, 10871.00
394.9000, 10948.00
396.0960, 11203.00
397.2920, 11476.00
398.4880, 11616.00
399.6840, 11946.00
400.8800, 12112.00
402.0750, 12367.00
403.2710, 12522.00
404.4660, 12392.00
405.6610, 12421.00
406.8560, 12525.00
408.0510, 12516.00
409.2450, 12482.00
410.4400, 12528.00
411.6340, 12506.00
412.8280, 12556.00
414.0220, 12538.00
415.2160, 12897.00
416.4100, 13100.00
417.6030, 13160.00
418.7970, 13595.00
419.9900, 13961.00
421.1830, 14351.00
422.3760, 14798.35
423.5690, 15141.00
424.7610, 15618.00
425.9540, 15938.00
427.1460, 16193.00
428.3380, 16578.00
429.5300, 17039.00
430.7220, 17194.00
431.9140, 17226.00
433.1050, 17466.00
434.2970, 17249.00
435.4880, 16888.00
436.6790, 16662.00
437.8700, 16170.00
439.0610, 15634.00
440.2510, 15201.00
441.4420, 14737.00
442.6320, 14318.00
443.8220, 13913.00
445.0120, 13592.00
446.2020, 13148.00
447.3910, 12923.00
448.5810, 12598.00
449.7700, 12384.00
450.9600, 12103.00
452.1490, 11899.00
453.3370, 11755.00
454.5260, 11631.00
455.7150, 11372.00
456.9030, 11326.00
458.0910, 11204.00
459.2800, 11001.00
460.4670, 10982.00
461.6550, 10828.36
462.8430, 10962.00
464.0300, 10648.00
465.2180, 10745.00
466.4050, 10741.00
467.5920, 10645.00
468.7790, 10589.00
469.9650, 10613.00
471.1520, 10620.00
472.3380, 10462.00
473.5250, 10567.00
474.7110, 10487.00
475.8970, 10568.00
477.0820, 10542.00
478.2680, 10555.00
479.4540, 10597.00
480.6390, 10671.00
481.8240, 10567.00
483.0090, 10775.00
484.1940, 10732.00
485.3780, 10882.00
486.5630, 10757.00
487.7470, 10956.00
488.9320, 10996.00
490.1160, 11123.00
491.3000, 11146.00
492.4830, 11354.00
493.6670, 11426.28
494.8500, 11546.63
496.0340, 11669.00
497.2170, 11768.00
498.4000, 11927.00
499.5820, 11998.00
500.7650, 12135.00
501.9480, 12375.00
503.1300, 12655.00
504.3120, 12868.00
505.4940, 13116.00
506.6760, 13536.00
507.8580, 13934.00
509.0390, 14434.00
510.2210, 15233.00
511.4020, 16014.00
512.5830, 17142.00
513.7640, 18148.00
514.9450, 20122.00
516.1250, 22215.00
517.3060, 24800.00
518.4860, 28616.00
519.6660, 32079.00
520.8460, 36666.00
522.0260, 41439.00
523.2060, 46852.00
524.3850, 51954.00
525.5650, 57194.00
526.7440, 60215.00
527.9230, 61676.00
529.1020, 60385.00
530.2810, 56340.00
531.4590, 50966.00
532.6380, 44823.00
533.8160, 38899.00
534.9940, 34097.00
536.1720, 29448.00
537.3500, 26017.00
538.5270, 23377.00
539.7050, 21227.00
540.8820, 19467.00
542.0590, 17907.00
543.2360, 16923.00
544.4130, 16139.00
545.5900, 15445.00
546.7660, 14836.00
547.9430, 14089.00
549.1190, 13877.00
550.2950, 13568.00
551.4710, 13077.00
552.6470, 12965.00
553.8220, 12595.00
554.9980, 12505.00
556.1730, 12525.00
557.3480, 12236.00
558.5230, 12006.00
559.6980, 11927.00
560.8730, 11919.00
562.0470, 11862.00
563.2220, 11839.00
564.3960, 11757.00
565.5700, 11724.30
566.7440, 11677.00
567.9170, 11628.00
569.0910, 11561.00
570.2640, 11495.00
571.4380, 11458.00
572.6110, 11355.00
573.7840, 11318.00
574.9570, 11597.00
576.1290, 11432.00
577.3020, 11606.00
578.4740, 11496.00
579.6460, 11506.00
580.8180, 11608.00
581.9900, 11477.00
583.1620, 11692.00
584.3330, 11714.00
585.5040, 11795.00
586.6760, 11805.00
587.8470, 11965.00
589.0180, 12250.00
590.1880, 12331.00
591.3590, 12400.00
592.5290, 12561.00
593.7000, 12642.00
594.8700, 12727.00
596.0400, 12922.00
597.2090, 13160.00
598.3790, 13286.00
599.5490, 13265.00
600.7180, 13147.00
601.8870, 13271.00
603.0560, 13223.00
604.2250, 12856.00
605.3940, 12819.00
606.5620, 12427.00
607.7300, 12383.00
608.8990, 12294.00
610.0670, 12169.00
611.2350, 11936.00
612.4020, 11714.00
613.5700, 11724.00
614.7370, 11443.00
615.9050, 11332.00
617.0720, 11372.00
618.2390, 11315.00
619.4060, 11169.00
620.5720, 11158.00
621.7390, 11211.00
622.9050, 11172.00
624.0710, 11267.00
625.2370, 11204.00
626.4030, 11250.00
627.5690, 11117.00
628.7340, 11272.00
629.9000, 11225.00
631.0650, 11179.00
632.2300, 11222.00
633.3950, 11184.00
634.5600, 11359.00
635.7240, 11460.00
636.8890, 11357.00
638.0530, 11498.00
639.2170, 11698.00
640.3810, 11706.00
641.5450, 11952.00
642.7080, 11956.00
643.8720, 12272.00
645.0350, 12345.00
646.1980, 12671.00
647.3610, 12950.00
648.5240, 13319.00
649.6870, 13498.00
650.8490, 13702.00
652.0120, 14085.00
653.1740, 14414.00
654.3360, 14306.00
655.4980, 14416.00
656.6600, 14420.00
657.8210, 14305.00
658.9830, 13984.00
660.1440, 13841.00
661.3050, 13470.00
662.4660, 13132.00
663.6270, 12919.00
664.7870, 12551.00
665.9480, 12372.00
667.1080, 12177.00
668.2680, 11914.00
669.4280, 11852.00
670.5880, 11629.00
671.7480, 11675.00
672.9070, 11466.00
674.0670, 11324.00
675.2260, 11538.00
676.3850, 11410.00
677.5440, 11370.00
678.7030, 11270.00
679.8610, 11270.00
681.0200, 11154.00
682.1780, 11253.00
683.3360, 11265.00
684.4940, 11337.00
685.6520, 11286.00
686.8090, 11225.00
687.9670, 11302.00
689.1240, 11292.00
690.2810, 11490.00
691.4380, 11484.00
692.5950, 11413.00
693.7520, 11567.00
694.9080, 11776.00
696.0650, 11804.00
697.2210, 11878.00
698.3770, 12139.00
699.5330, 12268.00
700.6880, 12570.00
701.8440, 12568.00
702.9990, 12819.00
704.1550, 13137.00
705.3100, 13351.00
706.4650, 13668.00
707.6190, 13811.00
708.7740, 14045.00
709.9290, 14199.00
711.0830, 14311.00
712.2370, 14399.00
713.3910, 14438.00
714.5450, 14363.00
715.6980, 14153.00
716.8520, 14043.00
718.0050, 13927.00
719.1580, 13535.00
720.3110, 13358.00
721.4640, 13098.00
722.6170, 12801.00
723.7700, 12673.00
724.9220, 12456.00
726.0740, 12219.00
727.2260, 12009.00
728.3780, 11887.00
729.5300, 11755.10
730.6810, 11722.00
731.8330, 11629.00
732.9840, 11543.00
734.1350, 11554.00
735.2860, 11494.00
736.4370, 11466.26
737.5880, 11454.00
738.7380, 11372.00
739.8880, 11347.79
741.0390, 11321.87
742.1890, 11278.00
743.3380, 11241.00
744.4880, 11256.00
745.6380, 11134.00
746.7870, 11193.00
747.9360, 11223.00
749.0850, 11212.00
750.2340, 11060.00
751.3830, 11217.00
752.5310, 11069.00
753.6800, 11102.00
754.8280, 11124.00
755.9760, 11022.00
757.1240, 11090.00
758.2720, 11075.00
759.4190, 11153.00
760.5670, 11208.00
761.7140, 11130.00
762.8610, 11052.00
764.0080, 11159.00
765.1550, 11105.00
766.3020, 11107.00
767.4480, 11195.00
768.5950, 11096.00
769.7410, 11182.00
770.8870, 11105.00
772.0330, 11229.00
773.1780, 11184.00
774.3240, 11097.00
775.4690, 11328.00
776.6140, 11105.00
777.7590, 11173.00
778.9040, 11036.00
780.0490, 11210.00
781.1940, 11264.00
782.3380, 11106.00
783.4820, 11241.00
784.6260, 11262.00
785.7700, 11234.00
786.9140, 11342.00
788.0580, 11252.00
789.2010, 11307.00
790.3450, 11306.00
791.4880, 11280.00
792.6310, 11226.00
793.7730, 11276.30
794.9160, 11378.00
796.0590, 11344.00
797.2010, 11325.00
798.3430, 11322.00
799.4850, 11336.00
800.6270, 11352.00
801.7690, 11366.00
802.9100, 11282.00
804.0520, 11376.00
805.1930, 11441.00
806.3340, 11377.00
807.4750, 11337.00
808.6160, 11346.00
809.7560, 11333.00
810.8970, 11414.00
812.0370, 11371.00
813.1770, 11434.00
814.3170, 11561.00
815.4570, 11483.00
816.5960, 11460.00
817.7360, 11551.00
818.8750, 11446.00
820.0140, 11495.00
821.1530, 11457.00
822.2920, 11528.00
823.4310, 11525.47
824.5690, 11551.00
825.7070, 11533.00
826.8460, 11535.00
827.9840, 11497.00
829.1220, 11525.11
830.2590, 11604.00
831.3970, 11588.00
832.5340, 11583.00
833.6710, 11647.00
834.8080, 11510.00
835.9450, 11642.00
837.0820, 11606.00
838.2190, 11521.00
839.3550, 11575.00
840.4910, 11617.00
841.6270, 11594.00
842.7630, 11592.00
843.8990, 11686.00
845.0350, 11631.00
846.1700, 11515.00
847.3060, 11743.00
848.4410, 11762.00
849.5760, 11671.00
850.7100, 11639.00
851.8450, 11711.00
852.9800, 11701.00
854.1140, 11621.00
855.2480, 11762.00
856.3820, 11660.00
857.5160, 11619.00
858.6500, 11802.00
859.7830, 11723.00
860.9170, 11818.00
862.0500, 11706.00
863.1830, 11792.00
864.3160, 11830.00
865.4480, 11698.00
866.5810, 11824.00
867.7130, 11765.00
868.8460, 11865.00
869.9780, 11734.00
871.1100, 11802.00
872.2410, 11823.00
873.3730, 11769.00
874.5050, 11757.00
875.6360, 11890.00
876.7670, 11833.00
877.8980, 11832.00
879.0290, 11691.00
880.1590, 11838.00
881.2900, 11830.00
882.4200, 11832.00
883.5500, 11939.00
884.6800, 11712.00
885.8100, 11927.00
886.9400, 11670.00
888.0690, 11887.00
889.1990, 11887.00
890.3280, 11804.00
891.4570, 11936.00
892.5860, 11918.00
893.7140, 11936.00
894.8430, 11876.00
895.9710, 11864.00
897.1000, 11881.00
898.2280, 11893.00
899.3560, 11953.00
900.4830, 11872.00
901.6110, 11955.00
902.7380, 11935.00
903.8660, 12043.00
904.9930, 11827.00
906.1200, 11954.00
907.2460, 11925.00
908.3730, 11893.00
909.5000, 11993.00
910.6260, 11995.00
911.7520, 11837.00
912.8780, 11874.00
914.0040, 11967.00
915.1290, 11906.00
916.2550, 12025.00
917.3800, 11915.00
918.5050, 12019.00
919.6300, 11932.00
920.7550, 12074.00
921.8800, 11969.00
923.0040, 11900.00
924.1290, 12031.00
925.2530, 12029.00
926.3770, 12023.00
927.5010, 12086.00
928.6250, 12111.00
929.7480, 12166.00
930.8720, 12030.00
931.9950, 12296.00
933.1180, 12162.00
934.2410, 12011.00
935.3640, 12207.00
936.4860, 12206.00
937.6090, 12231.00
938.7310, 12355.00
939.8530, 12265.00
940.9750, 12433.00
942.0970, 12389.00
943.2180, 12710.00
944.3400, 12523.00
945.4610, 12797.00
946.5820, 12791.00
947.7030, 12961.00
948.8240, 13096.00
949.9450, 13465.00
951.0650, 13584.00
952.1860, 13577.00
953.3060, 13668.00
954.4260, 13642.00
955.5460, 13593.79
956.6650, 13689.00
957.7850, 13452.00
958.9040, 13341.00
960.0230, 13291.00
961.1420, 13148.00
962.2610, 13071.00
963.3800, 12884.00
964.4990, 12839.00
965.6170, 12691.00
966.7350, 12712.00
967.8530, 12539.00
968.9710, 12575.00
970.0890, 12549.00
971.2070, 12500.00
972.3240, 12502.00
973.4410, 12479.00
974.5580, 12458.00
975.6750, 12537.00
976.7920, 12691.00
977.9090, 12691.00
979.0250, 12449.00
980.1410, 12809.00
981.2580, 12700.00
982.3740, 12608.00
983.4890, 12793.00
984.6050, 12740.00
985.7200, 12536.00
986.8360, 12785.00
987.9510, 12723.00
989.0660, 12593.00
990.1810, 12768.00
991.2950, 12715.00
992.4100, 12686.00
993.5240, 12604.00
994.6390, 12683.00
995.7530, 12638.00
996.8660, 12755.00
997.9800, 12705.00
999.0940, 12776.00
1000.207, 12831.00
1001.320, 12700.00
1002.433, 12666.00
1003.546, 12839.00
1004.659, 12797.00
1005.772, 12826.00
1006.884, 12776.00
1007.996, 12757.00
1009.108, 12750.78
1010.220, 12763.17
1011.332, 12746.00
1012.444, 12803.00
1013.555, 12863.00
1014.666, 12836.00
1015.777, 12903.29
1016.888, 12748.00
1017.999, 12901.00
1019.110, 12933.00
1020.220, 12768.00
1021.331, 12933.00
1022.441, 13110.00
1023.551, 13044.00
1024.661, 13114.00
1025.770, 12970.00
1026.880, 12972.00
1027.989, 13149.00
1029.098, 13181.00
1030.207, 13287.00
1031.316, 13353.00
1032.425, 13420.00
1033.533, 13569.00
1034.642, 13696.00
1035.750, 13729.00
1036.858, 13705.00
1037.966, 14038.00
1039.073, 14108.00
1040.181, 14172.00
1041.288, 14451.00
1042.396, 14814.00
1043.503, 15164.00
1044.610, 15436.00
1045.716, 16035.00
1046.823, 16351.00
1047.929, 16975.00
1049.036, 17470.00
1050.142, 18166.00
1051.248, 18721.00
1052.353, 19088.00
1053.459, 19291.00
1054.564, 19360.00
1055.670, 19240.00
1056.775, 18912.00
1057.880, 18390.00
1058.985, 18074.00
1060.089, 17560.00
1061.194, 17089.00
1062.298, 16517.00
1063.402, 16388.00
1064.506, 15955.00
1065.610, 15662.00
1066.713, 15526.00
1067.817, 15170.00
1068.920, 15027.00
1070.023, 14852.00
1071.126, 14718.00
1072.229, 14532.00
1073.332, 14327.00
1074.435, 14196.00
1075.537, 14108.96
1076.639, 14047.00
1077.741, 14003.00
1078.843, 14002.00
1079.945, 13945.00
1081.046, 13711.00
1082.148, 13799.00
1083.249, 13870.00
1084.350, 13653.00
1085.451, 13746.00
1086.551, 13572.00
1087.652, 13690.00
1088.752, 13551.00
1089.853, 13618.00
1090.953, 13615.00
1092.053, 13610.00
1093.152, 13786.00
1094.252, 13810.00
1095.351, 13663.00
1096.451, 13890.00
1097.550, 13757.00
1098.649, 13743.00
1099.748, 13888.00
1100.846, 13767.00
1101.945, 13681.00
1103.043, 13774.00
1104.141, 13680.00
1105.239, 13684.00
1106.337, 13682.00
1107.434, 13493.00
1108.532, 13577.00
1109.629, 13591.00
1110.726, 13425.00
1111.823, 13510.00
1112.920, 13396.00
1114.017, 13458.00
1115.113, 13482.00
1116.210, 13346.00
1117.306, 13312.00
1118.402, 13425.00
1119.498, 13551.00
1120.593, 13385.00
1121.689, 13585.00
1122.784, 13433.00
1123.879, 13392.00
1124.974, 13363.00
1126.069, 13359.00
1127.164, 13499.00
1128.259, 13450.00
1129.353, 13308.00
1130.447, 13451.00
1131.541, 13356.00
1132.635, 13389.00
1133.729, 13382.00
1134.822, 13300.00
1135.916, 13470.00
1137.009, 13616.00
1138.102, 13353.00
1139.195, 13166.00
1140.288, 13243.00
1141.380, 13296.00
1142.473, 13274.00
1143.565, 13390.00
1144.657, 13376.00
1145.749, 13259.00
1146.841, 13457.00
1147.932, 13384.00
1149.024, 13398.00
1150.115, 13309.00
1151.206, 13336.00
1152.297, 13324.54
1153.388, 13334.63
1154.479, 13342.00
1155.569, 13380.00
1156.659, 13399.00
1157.750, 13379.00
1158.839, 13386.00
1159.929, 13475.00
1161.019, 13384.00
1162.108, 13471.00
1163.198, 13487.00
1164.287, 13433.00
1165.376, 13282.00
1166.465, 13547.00
1167.553, 13389.00
1168.642, 13638.00
1169.730, 13640.00
1170.818, 13422.00
1171.906, 13479.00
1172.994, 13394.00
1174.082, 13561.00
1175.170, 13532.00
1176.257, 13535.25
1177.344, 13443.00
1178.431, 13493.00
1179.518, 13557.00
1180.605, 13477.00
1181.691, 13630.00
1182.778, 13444.00
1183.864, 13343.00
1184.950, 13438.00
1186.036, 13608.00
1187.122, 13681.00
1188.207, 13654.00
1189.292, 13529.00
1190.378, 13639.00
1191.463, 13505.00
1192.548, 13574.00
1193.632, 13421.00
1194.717, 13438.00
1195.801, 13559.00
1196.886, 13690.00
1197.970, 13683.47
1199.054, 13605.00
1200.137, 13710.00
1201.221, 13680.00
1202.305, 13679.00
1203.388, 13693.11
1204.471, 13667.87
1205.554, 13667.00
1206.637, 13659.00
1207.719, 13653.00
1208.802, 13686.00
1209.884, 13719.00
1210.966, 13706.00
1212.048, 13700.00
1213.130, 13680.00
1214.212, 13690.17
1215.293, 13635.00
1216.374, 13698.00
1217.456, 13701.00
1218.536, 13681.00
1219.617, 13594.00
1220.698, 13706.00
1221.778, 13676.67
1222.859, 13611.00
1223.939, 13705.00
1225.019, 13777.00
1226.099, 13730.00
1227.178, 13722.00
1228.258, 13774.00
1229.337, 13741.00
1230.417, 13691.00
1231.496, 13838.00
1232.574, 13888.00
1233.653, 13803.00
1234.732, 13722.00
1235.810, 13736.00
1236.888, 13604.00
1237.966, 13736.00
1239.044, 13780.00
1240.122, 13597.00
1241.199, 13945.00
1242.277, 13918.00
1243.354, 13765.00
1244.431, 13766.00
1245.508, 13790.00
1246.585, 13868.00
1247.661, 13922.00
1248.738, 13854.00
1249.814, 13801.00
1250.890, 13993.00
1251.966, 13879.00
1253.042, 13871.00
1254.117, 13877.00
1255.193, 13805.00
1256.268, 13797.00
1257.343, 13989.00
1258.418, 13836.00
1259.493, 13941.00
1260.567, 13793.00
1261.642, 13973.00
1262.716, 14046.00
1263.790, 13964.00
1264.864, 14084.00
1265.938, 14065.00
1267.011, 14051.00
1268.085, 14019.00
1269.158, 13974.00
1270.231, 14031.00
1271.304, 13938.00
1272.377, 14018.00
1273.450, 14053.00
1274.522, 14084.00
1275.594, 13936.00
1276.666, 13985.00
1277.738, 13916.00
1278.810, 13909.00
1279.882, 13929.00
1280.953, 13950.00
1282.025, 14006.00
1283.096, 14052.00
1284.167, 14041.68
1285.238, 14011.00
1286.308, 14013.00
1287.379, 13976.00
1288.449, 13944.00
1289.519, 14075.00
1290.589, 13980.00
1291.659, 14069.00
1292.729, 14124.00
1293.798, 14031.00
1294.868, 14113.00
1295.937, 14088.00
1297.006, 14142.00
1298.075, 14180.00
1299.143, 14083.00
1300.212, 14134.00
1301.280, 14072.00
1302.348, 14097.00
1303.416, 14194.00
1304.484, 14094.00
1305.552, 14178.00
1306.620, 14151.00
1307.687, 14181.00
1308.754, 14280.00
1309.821, 14315.00
1310.888, 14242.00
1311.955, 14235.00
1313.021, 14183.00
1314.088, 14193.00
1315.154, 14170.00
1316.220, 14174.43
1317.286, 14256.00
1318.352, 14214.00
1319.417, 14246.00
1320.483, 14300.00
1321.548, 14222.00
1322.613, 14302.00
1323.678, 14278.00
1324.743, 14294.00
1325.807, 14265.00
1326.872, 14275.00
1327.936, 14352.00
1329.000, 14279.00
1330.064, 14474.00
1331.128, 14254.00
1332.191, 14345.00
1333.255, 14272.00
1334.318, 14228.00
1335.381, 14259.00
1336.444, 14296.00
1337.507, 14389.00
1338.569, 14376.00
1339.632, 14199.00
1340.694, 14387.00
1341.756, 14290.00
1342.818, 14487.00
1343.880, 14468.00
1344.941, 14456.00
1346.003, 14362.00
1347.064, 14303.00
1348.125, 14427.00
1349.186, 14300.00
1350.247, 14474.00
1351.308, 14348.00
1352.368, 14391.00
1353.428, 14395.00
1354.489, 14392.00
1355.549, 14457.00
1356.608, 14332.00
1357.668, 14423.00
1358.727, 14390.00
1359.787, 14474.00
1360.846, 14402.00
1361.905, 14591.00
1362.964, 14522.00
1364.022, 14429.00
1365.081, 14650.00
1366.139, 14530.00
1367.197, 14310.00
1368.255, 14540.00
1369.313, 14441.00
1370.371, 14543.00
1371.428, 14562.00
1372.486, 14495.00
1373.543, 14744.00
1374.600, 14476.00
1375.657, 14471.00
1376.713, 14475.00
1377.770, 14633.00
1378.826, 14520.00
1379.882, 14564.00
1380.938, 14630.00
1381.994, 14559.00
1383.050, 14627.00
1384.106, 14610.00
1385.161, 14635.00
1386.216, 14604.00
1387.271, 14706.00
1388.326, 14750.00
1389.381, 14751.00
1390.435, 14677.00
1391.490, 14656.00
1392.544, 14681.76
1393.598, 14457.00
1394.652, 14739.00
1395.705, 14738.00
1396.759, 14745.00
1397.812, 14574.00
1398.866, 14696.00
1399.919, 14676.00
1400.972, 14511.00
1402.024, 14732.00
1403.077, 14693.00
1404.129, 14643.00
1405.181, 14640.00
1406.233, 14646.42
1407.285, 14641.00
1408.337, 14657.00
1409.389, 14743.00
1410.440, 14659.00
1411.491, 14725.00
1412.542, 14626.00
1413.593, 14765.00
1414.644, 14651.00
1415.695, 14757.00
1416.745, 14781.00
1417.795, 14816.00
1418.845, 14743.00
1419.895, 14807.00
1420.945, 14849.00
1421.995, 14749.00
1423.044, 14738.00
1424.093, 14831.00
1425.142, 14872.00
1426.191, 14879.00
1427.240, 14806.00
1428.289, 14918.00
1429.337, 14921.00
1430.385, 14812.00
1431.433, 14809.00
1432.481, 14852.00
1433.529, 14858.00
1434.577, 14762.00
1435.624, 14847.00
1436.672, 14821.00
1437.719, 14876.00
1438.766, 14831.00
1439.812, 14901.13
1440.859, 14986.00
1441.905, 15013.00
1442.952, 15019.00
1443.998, 15044.00
1445.044, 15043.11
1446.090, 15034.00
1447.135, 15042.00
1448.181, 15059.00
1449.226, 15065.00
1450.271, 15061.84
1451.316, 15132.00
1452.361, 15058.00
1453.405, 15053.00
1454.450, 15072.00
1455.494, 15144.00
1456.538, 15173.00
1457.582, 15217.00
1458.626, 15121.00
1459.670, 15214.00
1460.713, 15237.00
1461.757, 15049.00
1462.800, 15007.00
1463.843, 15048.00
1464.886, 15067.00
1465.928, 15096.00
1466.971, 15165.00
1468.013, 15057.00
1469.055, 15055.00
1470.097, 15098.00
1471.139, 15010.00
1472.181, 15217.00
1473.222, 15047.00
1474.263, 15013.00
1475.305, 15098.00
1476.346, 15221.00
1477.386, 15166.41
1478.427, 15050.00
1479.468, 15162.00
1480.508, 15112.00
1481.548, 15177.00
1482.588, 15134.00
1483.628, 15152.00
1484.668, 15166.55
1485.707, 15018.00
1486.747, 15167.00
1487.786, 15209.00
1488.825, 15177.00
1489.864, 15025.00
1490.902, 15092.00
1491.941, 15275.00
1492.979, 15344.00
1494.017, 15135.00
1495.055, 15109.00
1496.093, 15075.00
1497.131, 15195.00
1498.168, 15274.00
1499.206, 15235.00
1500.243, 15133.00
1501.280, 15337.00
1502.317, 15049.00
1503.354, 15164.00
1504.390, 15255.00
1505.426, 15154.00
1506.463, 15143.00
1507.499, 15312.00
1508.535, 15349.00
1509.570, 15149.00
1510.606, 15294.00
1511.641, 15248.00
1512.676, 15429.00
1513.711, 15166.00
1514.746, 15249.00
1515.781, 15433.00
1516.816, 15309.00
1517.850, 15376.00
1518.884, 15481.00
1519.918, 15114.00
1520.952, 15211.00
1521.986, 15292.00
1523.019, 15237.00
1524.053, 15288.00
1525.086, 15290.00
1526.119, 15420.00
1527.152, 15466.00
1528.185, 15472.00
1529.217, 15289.00
1530.250, 15405.00
1531.282, 15356.00
1532.314, 15459.00
1533.346, 15245.00
1534.377, 15356.00
1535.409, 15327.00
1536.440, 15383.00
1537.472, 15319.00
1538.503, 15406.00
1539.534, 15402.00
1540.564, 15389.00
1541.595, 15343.00
1542.625, 15321.00
1543.656, 15201.00
1544.686, 15257.28
1545.716, 15486.00
1546.745, 15362.00
1547.775, 15457.00
1548.804, 15576.00
1549.834, 15349.00
1550.863, 15489.00
1551.892, 15441.00
1552.920, 15436.00
1553.949, 15475.00
1554.977, 15495.00
1556.006, 15555.00
1557.034, 15541.00
1558.062, 15382.00
1559.089, 15475.00
1560.117, 15304.00
1561.144, 15498.00
1562.172, 15557.00
1563.199, 15465.00
1564.226, 15630.00
1565.252, 15460.00
1566.279, 15515.00
1567.305, 15609.00
1568.332, 15531.00
1569.358, 15628.00
1570.384, 15492.00
1571.409, 15492.00
1572.435, 15462.00
##END=



