##NAMES=Edingtonite
##RRUFFID=R040110
##IDEAL CHEMISTRY=Ba(Si_3_Al_2_)O_10_&#183;4H_2_O
##LOCALITY=2350 level, Brunswick 12 mine, Bathhurst, New Brunswick, Canada
##OWNER=RRUFF
##SOURCE=National Museums of Canada
##DESCRIPTION=Colorless rectangular prism
##STATUS=The identification of this mineral has been confirmed by X-ray diffraction and chemical analysis
##URL=rruff.info/R040110
##MEASURED CHEMISTRY=Ba_1.00_(Si_3.00_Al_2.00_)O_10_Â·4H_2_O
##PIN_ID=L01449
##ORIENTATION=Laser parallel to b* (0 1 0). Fiducial mark perpendicular to laser is parallel to c [0 0 1]
91.01200, 6532.000
92.24600, 7092.463
93.48000, 7644.000
94.71400, 8295.000
95.94800, 8906.000
97.18200, 9503.000
98.41600, 10096.00
99.64900, 10658.00
100.8830, 11224.00
102.1160, 11737.00
103.3490, 12362.12
104.5820, 12949.00
105.8150, 13601.00
107.0470, 14211.00
108.2800, 14852.00
109.5120, 14483.00
110.7440, 14121.00
111.9760, 14181.00
113.2080, 14538.00
114.4400, 15164.00
115.6710, 15657.00
116.9030, 15973.00
118.1340, 16334.00
119.3650, 16554.00
120.5960, 16816.00
121.8270, 17141.00
123.0580, 17398.00
124.2880, 17897.00
125.5190, 18135.00
126.7490, 18582.00
127.9790, 19464.00
129.2090, 19796.00
130.4390, 20850.00
131.6680, 21841.00
132.8980, 22353.00
134.1270, 23070.00
135.3560, 23325.00
136.5850, 23223.00
137.8140, 22936.00
139.0430, 22182.00
140.2710, 21022.00
141.5000, 20137.00
142.7280, 19427.00
143.9560, 18737.00
145.1840, 18342.00
146.4120, 17880.00
147.6390, 17740.00
148.8670, 18047.00
150.0940, 18232.00
151.3210, 18407.00
152.5490, 18662.00
153.7750, 18818.00
155.0020, 18925.00
156.2290, 18800.25
157.4550, 18592.04
158.6810, 18184.00
159.9080, 17692.00
161.1340, 16946.00
162.3590, 16035.00
163.5850, 15332.00
164.8110, 14578.00
166.0360, 13863.00
167.2610, 13178.00
168.4860, 12780.00
169.7110, 12240.00
170.9360, 11866.00
172.1610, 11517.00
173.3850, 11166.00
174.6100, 10936.00
175.8340, 10708.00
177.0580, 10504.00
178.2820, 10408.00
179.5050, 10119.00
180.7290, 10149.00
181.9520, 10077.00
183.1760, 9979.000
184.3990, 9768.000
185.6220, 9776.000
186.8450, 9674.000
188.0670, 9657.000
189.2900, 9704.000
190.5120, 9686.000
191.7340, 9693.000
192.9560, 9799.000
194.1780, 9718.000
195.4000, 9735.000
196.6220, 9590.000
197.8430, 9695.000
199.0640, 9629.000
200.2860, 9648.000
201.5070, 9690.000
202.7270, 9673.000
203.9480, 9517.000
205.1690, 9543.000
206.3890, 9492.000
207.6090, 9471.000
208.8290, 9581.000
210.0490, 9550.000
211.2690, 9569.866
212.4890, 9430.000
213.7080, 9530.000
214.9280, 9460.000
216.1470, 9349.000
217.3660, 9321.000
218.5850, 9219.000
219.8030, 9311.000
221.0220, 9128.000
222.2400, 9226.000
223.4590, 9395.000
224.6770, 9522.000
225.8950, 9720.000
227.1120, 9867.000
228.3300, 10219.00
229.5480, 10923.00
230.7650, 11650.00
231.9820, 12880.00
233.1990, 14337.00
234.4160, 16104.00
235.6330, 17531.00
236.8490, 18591.00
238.0660, 18310.00
239.2820, 16817.00
240.4980, 14934.00
241.7140, 13174.00
242.9300, 11811.00
244.1460, 10968.49
245.3610, 10075.04
246.5770, 10090.00
247.7920, 9152.000
249.0070, 9104.000
250.2220, 8885.000
251.4370, 8740.000
252.6510, 8639.000
253.8660, 8503.000
255.0800, 8413.000
256.2940, 8389.000
257.5080, 8679.000
258.7220, 8859.000
259.9360, 8835.000
261.1490, 8454.000
262.3630, 8423.000
263.5760, 8434.000
264.7890, 8351.000
266.0020, 8432.000
267.2150, 8437.000
268.4270, 8464.000
269.6400, 8475.000
270.8520, 8465.000
272.0640, 8353.000
273.2760, 8539.000
274.4880, 8470.000
275.7000, 8432.000
276.9120, 8524.000
278.1230, 8429.000
279.3340, 8357.000
280.5450, 8376.000
281.7560, 8301.008
282.9670, 8376.000
284.1780, 8272.000
285.3880, 8296.000
286.5980, 8370.000
287.8090, 8354.000
289.0190, 8331.000
290.2290, 8509.000
291.4380, 8484.000
292.6480, 8441.000
293.8570, 8548.000
295.0670, 8505.000
296.2760, 8505.000
297.4850, 8622.000
298.6930, 8662.000
299.9020, 8831.000
301.1110, 8786.000
302.3190, 8878.000
303.5270, 8830.000
304.7350, 9019.000
305.9430, 9039.000
307.1510, 9193.000
308.3580, 9411.000
309.5660, 9319.000
310.7730, 9344.000
311.9800, 9471.000
313.1870, 9607.000
314.3940, 9697.000
315.6010, 9594.000
316.8070, 9528.000
318.0130, 9524.000
319.2200, 9568.000
320.4260, 9415.000
321.6310, 9531.000
322.8370, 9320.000
324.0430, 9366.000
325.2480, 9223.000
326.4540, 9311.000
327.6590, 9325.000
328.8640, 9266.000
330.0680, 9159.000
331.2730, 9300.000
332.4780, 9397.000
333.6820, 9322.000
334.8860, 9571.000
336.0900, 9623.000
337.2940, 9574.000
338.4980, 9691.000
339.7010, 9636.000
340.9050, 9662.000
342.1080, 9854.000
343.3110, 9826.000
344.5140, 9737.000
345.7170, 9821.000
346.9200, 9810.000
348.1220, 9813.000
349.3240, 9921.000
350.5270, 9980.000
351.7290, 10017.00
352.9310, 10220.00
354.1320, 10389.00
355.3340, 10572.00
356.5350, 10851.00
357.7370, 11021.00
358.9380, 11233.00
360.1390, 11508.00
361.3400, 11664.00
362.5400, 11675.00
363.7410, 11503.00
364.9410, 11311.00
366.1410, 10970.00
367.3410, 10600.00
368.5410, 10425.00
369.7410, 10123.00
370.9400, 9931.000
372.1400, 9801.000
373.3390, 9401.000
374.5380, 9372.000
375.7370, 9194.000
376.9360, 9230.000
378.1350, 9176.000
379.3330, 9149.000
380.5310, 9009.000
381.7300, 8975.000
382.9280, 8986.000
384.1260, 8967.000
385.3230, 8818.000
386.5210, 9012.000
387.7180, 8818.000
388.9160, 8854.000
390.1130, 8803.000
391.3100, 8911.000
392.5060, 9064.000
393.7030, 9090.000
394.9000, 9029.000
396.0960, 9204.000
397.2920, 9152.000
398.4880, 9321.000
399.6840, 9451.000
400.8800, 9628.000
402.0750, 9756.000
403.2710, 9856.973
404.4660, 9917.000
405.6610, 10049.00
406.8560, 10025.00
408.0510, 10142.00
409.2450, 10073.00
410.4400, 10132.00
411.6340, 10030.00
412.8280, 10097.00
414.0220, 10101.00
415.2160, 10116.00
416.4100, 10215.71
417.6030, 10297.76
418.7970, 10434.00
419.9900, 10574.00
421.1830, 10748.00
422.3760, 10944.00
423.5690, 11148.49
424.7610, 11494.00
425.9540, 11638.00
427.1460, 12017.00
428.3380, 12347.00
429.5300, 12654.00
430.7220, 12882.00
431.9140, 12924.00
433.1050, 13263.00
434.2970, 13320.00
435.4880, 13201.00
436.6790, 13141.00
437.8700, 12774.00
439.0610, 12533.00
440.2510, 12293.00
441.4420, 11988.56
442.6320, 11707.00
443.8220, 11431.00
445.0120, 11196.00
446.2020, 10951.27
447.3910, 10714.07
448.5810, 10513.00
449.7700, 10282.00
450.9600, 10082.00
452.1490, 9917.000
453.3370, 9805.000
454.5260, 9616.000
455.7150, 9533.100
456.9030, 9451.000
458.0910, 9353.000
459.2800, 9347.000
460.4670, 9264.000
461.6550, 9219.000
462.8430, 9140.000
464.0300, 9079.000
465.2180, 9101.000
466.4050, 9047.000
467.5920, 9097.000
468.7790, 9025.000
469.9650, 8951.000
471.1520, 8908.000
472.3380, 8954.000
473.5250, 8901.000
474.7110, 8869.000
475.8970, 8862.000
477.0820, 8965.000
478.2680, 8971.000
479.4540, 9125.000
480.6390, 9028.000
481.8240, 9043.000
483.0090, 9136.000
484.1940, 9069.000
485.3780, 9156.000
486.5630, 9353.000
487.7470, 9358.000
488.9320, 9391.000
490.1160, 9470.000
491.3000, 9490.976
492.4830, 9591.000
493.6670, 9606.000
494.8500, 9763.000
496.0340, 9880.000
497.2170, 9902.000
498.4000, 10069.00
499.5820, 10059.00
500.7650, 10239.00
501.9480, 10301.00
503.1300, 10434.00
504.3120, 10589.00
505.4940, 10821.00
506.6760, 11071.00
507.8580, 11338.00
509.0390, 11637.00
510.2210, 11999.00
511.4020, 12510.12
512.5830, 12878.00
513.7640, 13730.00
514.9450, 14650.00
516.1250, 15452.00
517.3060, 16748.00
518.4860, 18624.00
519.6660, 20554.00
520.8460, 23012.00
522.0260, 26311.00
523.2060, 30261.00
524.3850, 35000.00
525.5650, 41201.00
526.7440, 47170.00
527.9230, 52523.00
529.1020, 57125.00
530.2810, 58602.00
531.4590, 56981.00
532.6380, 52318.00
533.8160, 46537.00
534.9940, 40250.00
536.1720, 34562.00
537.3500, 29891.00
538.5270, 25914.00
539.7050, 22906.00
540.8820, 20501.00
542.0590, 18571.00
543.2360, 17015.00
544.4130, 15840.00
545.5900, 14887.00
546.7660, 14092.00
547.9430, 13421.00
549.1190, 13011.00
550.2950, 12575.00
551.4710, 12171.00
552.6470, 11867.00
553.8220, 11545.00
554.9980, 11362.00
556.1730, 11179.00
557.3480, 10890.00
558.5230, 10883.00
559.6980, 10845.00
560.8730, 10517.00
562.0470, 10472.00
563.2220, 10328.00
564.3960, 10299.00
565.5700, 10243.00
566.7440, 10176.00
567.9170, 10134.55
569.0910, 10126.00
570.2640, 10041.00
571.4380, 10018.00
572.6110, 9999.000
573.7840, 9882.000
574.9570, 9945.000
576.1290, 9855.000
577.3020, 9853.000
578.4740, 9944.000
579.6460, 9810.000
580.8180, 9803.000
581.9900, 9768.000
583.1620, 9888.000
584.3330, 9817.000
585.5040, 9882.000
586.6760, 9784.000
587.8470, 9945.000
589.0180, 9807.000
590.1880, 10040.00
591.3590, 9959.000
592.5290, 10102.00
593.7000, 10031.00
594.8700, 10191.00
596.0400, 10260.00
597.2090, 10189.00
598.3790, 10288.00
599.5490, 10513.00
600.7180, 10276.00
601.8870, 10452.00
603.0560, 10383.00
604.2250, 10379.00
605.3940, 10378.00
606.5620, 10368.00
607.7300, 10252.00
608.8990, 10251.00
610.0670, 10094.00
611.2350, 10080.00
612.4020, 9917.000
613.5700, 9773.000
614.7370, 9836.000
615.9050, 9759.000
617.0720, 9744.000
618.2390, 9554.000
619.4060, 9463.000
620.5720, 9540.000
621.7390, 9534.000
622.9050, 9626.000
624.0710, 9596.000
625.2370, 9482.000
626.4030, 9613.000
627.5690, 9524.000
628.7340, 9673.000
629.9000, 9559.000
631.0650, 9587.000
632.2300, 9564.000
633.3950, 9553.000
634.5600, 9499.000
635.7240, 9531.000
636.8890, 9670.000
638.0530, 9714.000
639.2170, 9839.000
640.3810, 9824.000
641.5450, 9944.000
642.7080, 10042.00
643.8720, 10091.00
645.0350, 10195.00
646.1980, 10271.00
647.3610, 10456.27
648.5240, 10644.00
649.6870, 10874.00
650.8490, 11069.00
652.0120, 11300.00
653.1740, 11501.00
654.3360, 11653.00
655.4980, 11869.00
656.6600, 11916.00
657.8210, 12034.00
658.9830, 11830.00
660.1440, 11805.00
661.3050, 11676.00
662.4660, 11537.00
663.6270, 11274.00
664.7870, 10987.00
665.9480, 10841.00
667.1080, 10673.00
668.2680, 10467.00
669.4280, 10429.00
670.5880, 10176.00
671.7480, 10128.00
672.9070, 10040.00
674.0670, 9963.000
675.2260, 9958.000
676.3850, 9946.000
677.5440, 9958.000
678.7030, 9876.000
679.8610, 9922.000
681.0200, 9832.000
682.1780, 9762.000
683.3360, 9858.000
684.4940, 9934.000
685.6520, 9850.000
686.8090, 9816.000
687.9670, 9899.000
689.1240, 9951.000
690.2810, 9974.000
691.4380, 10007.54
692.5950, 10053.00
693.7520, 10047.00
694.9080, 10036.00
696.0650, 10095.00
697.2210, 10112.00
698.3770, 10244.00
699.5330, 10350.00
700.6880, 10368.00
701.8440, 10506.00
702.9990, 10629.00
704.1550, 10753.00
705.3100, 10855.00
706.4650, 11092.00
707.6190, 11107.00
708.7740, 11358.00
709.9290, 11381.00
711.0830, 11504.00
712.2370, 11724.00
713.3910, 11588.00
714.5450, 11892.00
715.6980, 11827.00
716.8520, 11744.00
718.0050, 11791.00
719.1580, 11651.00
720.3110, 11593.00
721.4640, 11492.00
722.6170, 11181.00
723.7700, 10976.00
724.9220, 10855.00
726.0740, 10648.00
727.2260, 10539.00
728.3780, 10356.00
729.5300, 10201.00
730.6810, 10179.00
731.8330, 10164.00
732.9840, 9973.000
734.1350, 10024.00
735.2860, 9984.000
736.4370, 9877.000
737.5880, 9786.000
738.7380, 9917.000
739.8880, 9905.000
741.0390, 9710.000
742.1890, 9786.000
743.3380, 9715.000
744.4880, 9690.000
745.6380, 9783.000
746.7870, 9639.000
747.9360, 9805.000
749.0850, 9575.000
750.2340, 9674.000
751.3830, 9620.000
752.5310, 9618.000
753.6800, 9699.000
754.8280, 9519.000
755.9760, 9678.000
757.1240, 9774.000
758.2720, 9723.000
759.4190, 9722.000
760.5670, 9762.000
761.7140, 9658.000
762.8610, 9733.000
764.0080, 9820.000
765.1550, 9575.000
766.3020, 9717.000
767.4480, 9533.000
768.5950, 9645.000
769.7410, 9690.000
770.8870, 9637.000
772.0330, 9700.000
773.1780, 9634.000
774.3240, 9617.000
775.4690, 9690.000
776.6140, 9708.000
777.7590, 9638.000
778.9040, 9598.000
780.0490, 9666.000
781.1940, 9722.000
782.3380, 9635.000
783.4820, 9630.000
784.6260, 9687.000
785.7700, 9687.000
786.9140, 9691.000
788.0580, 9720.170
789.2010, 9709.000
790.3450, 9759.000
791.4880, 9717.000
792.6310, 9749.000
793.7730, 9699.000
794.9160, 9784.000
796.0590, 9727.000
797.2010, 9728.000
798.3430, 9725.000
799.4850, 9734.295
800.6270, 9774.000
801.7690, 9807.000
802.9100, 9844.000
804.0520, 9916.000
805.1930, 9881.000
806.3340, 9834.000
807.4750, 9904.000
808.6160, 9870.000
809.7560, 9863.000
810.8970, 9847.375
812.0370, 9841.563
813.1770, 9809.000
814.3170, 9851.000
815.4570, 9831.916
816.5960, 9949.000
817.7360, 9856.000
818.8750, 9845.000
820.0140, 9902.000
821.1530, 9785.000
822.2920, 9910.000
823.4310, 10068.00
824.5690, 9803.000
825.7070, 9952.000
826.8460, 9978.000
827.9840, 9995.000
829.1220, 9959.000
830.2590, 9959.000
831.3970, 9951.000
832.5340, 9929.000
833.6710, 10040.00
834.8080, 9911.000
835.9450, 9885.000
837.0820, 10144.00
838.2190, 9935.000
839.3550, 10016.00
840.4910, 10135.00
841.6270, 10068.00
842.7630, 10164.00
843.8990, 9995.000
845.0350, 10021.00
846.1700, 10070.00
847.3060, 10239.00
848.4410, 10116.00
849.5760, 10217.00
850.7100, 10007.00
851.8450, 10038.00
852.9800, 10028.00
854.1140, 10239.00
855.2480, 10243.00
856.3820, 10235.00
857.5160, 10315.00
858.6500, 10291.00
859.7830, 10201.00
860.9170, 10261.00
862.0500, 10239.00
863.1830, 10370.00
864.3160, 10179.00
865.4480, 10201.00
866.5810, 10266.00
867.7130, 10214.00
868.8460, 10195.00
869.9780, 10248.00
871.1100, 10340.00
872.2410, 10309.00
873.3730, 10190.00
874.5050, 10215.00
875.6360, 10095.00
876.7670, 10346.00
877.8980, 10269.00
879.0290, 10297.00
880.1590, 10214.00
881.2900, 10272.00
882.4200, 10279.00
883.5500, 10233.00
884.6800, 10383.00
885.8100, 10409.00
886.9400, 10315.00
888.0690, 10425.00
889.1990, 10209.00
890.3280, 10316.00
891.4570, 10372.00
892.5860, 10409.00
893.7140, 10287.00
894.8430, 10385.00
895.9710, 10318.00
897.1000, 10363.00
898.2280, 10391.00
899.3560, 10467.00
900.4830, 10378.00
901.6110, 10335.00
902.7380, 10447.00
903.8660, 10462.00
904.9930, 10356.00
906.1200, 10411.00
907.2460, 10367.00
908.3730, 10458.00
909.5000, 10396.00
910.6260, 10397.00
911.7520, 10425.00
912.8780, 10337.00
914.0040, 10393.00
915.1290, 10624.00
916.2550, 10422.00
917.3800, 10275.00
918.5050, 10499.00
919.6300, 10545.00
920.7550, 10536.00
921.8800, 10443.00
923.0040, 10494.00
924.1290, 10486.00
925.2530, 10545.00
926.3770, 10460.00
927.5010, 10576.00
928.6250, 10482.00
929.7480, 10560.00
930.8720, 10661.00
931.9950, 10619.00
933.1180, 10611.00
934.2410, 10737.00
935.3640, 10686.00
936.4860, 10700.00
937.6090, 10722.00
938.7310, 10677.00
939.8530, 10785.00
940.9750, 10792.00
942.0970, 10926.00
943.2180, 10896.00
944.3400, 10839.00
945.4610, 10905.00
946.5820, 10921.21
947.7030, 11068.00
948.8240, 11072.00
949.9450, 11267.00
951.0650, 11411.00
952.1860, 11568.00
953.3060, 11750.00
954.4260, 11847.00
955.5460, 11929.76
956.6650, 11989.00
957.7850, 11983.00
958.9040, 11959.00
960.0230, 11892.00
961.1420, 11831.87
962.2610, 11721.70
963.3800, 11630.00
964.4990, 11511.00
965.6170, 11346.00
966.7350, 11332.00
967.8530, 11218.00
968.9710, 11325.00
970.0890, 11095.00
971.2070, 11252.00
972.3240, 11156.00
973.4410, 11286.00
974.5580, 11137.00
975.6750, 11130.00
976.7920, 11265.00
977.9090, 11187.00
979.0250, 11281.00
980.1410, 11235.00
981.2580, 11220.00
982.3740, 11429.00
983.4890, 11279.00
984.6050, 11507.00
985.7200, 11432.00
986.8360, 11587.00
987.9510, 11624.00
989.0660, 11535.00
990.1810, 11629.45
991.2950, 11587.00
992.4100, 11660.00
993.5240, 11567.00
994.6390, 11571.00
995.7530, 11569.00
996.8660, 11666.00
997.9800, 11628.00
999.0940, 11626.00
1000.207, 11530.00
1001.320, 11540.00
1002.433, 11572.00
1003.546, 11439.00
1004.659, 11568.00
1005.772, 11521.00
1006.884, 11421.00
1007.996, 11350.00
1009.108, 11332.26
1010.220, 11425.00
1011.332, 11363.00
1012.444, 11334.00
1013.555, 11475.00
1014.666, 11264.00
1015.777, 11306.00
1016.888, 11401.00
1017.999, 11432.00
1019.110, 11460.42
1020.220, 11449.00
1021.331, 11483.00
1022.441, 11441.00
1023.551, 11436.00
1024.661, 11508.00
1025.770, 11547.00
1026.880, 11415.00
1027.989, 11482.00
1029.098, 11509.00
1030.207, 11653.00
1031.316, 11676.00
1032.425, 11786.00
1033.533, 11796.00
1034.642, 11866.00
1035.750, 11884.00
1036.858, 12046.00
1037.966, 12060.00
1039.073, 12184.00
1040.181, 12280.00
1041.288, 12519.00
1042.396, 12746.00
1043.503, 12685.00
1044.610, 13015.00
1045.716, 13357.00
1046.823, 13654.00
1047.929, 14076.00
1049.036, 14329.00
1050.142, 14942.00
1051.248, 15419.00
1052.353, 15970.00
1053.459, 16284.00
1054.564, 16621.00
1055.670, 16635.00
1056.775, 16579.00
1057.880, 16337.00
1058.985, 15997.00
1060.089, 15702.00
1061.194, 15271.00
1062.298, 14845.00
1063.402, 14575.00
1064.506, 14286.00
1065.610, 14039.00
1066.713, 13872.00
1067.817, 13447.00
1068.920, 13341.00
1070.023, 13121.00
1071.126, 13110.00
1072.229, 12849.00
1073.332, 12885.00
1074.435, 12712.00
1075.537, 12695.00
1076.639, 12516.00
1077.741, 12424.00
1078.843, 12456.00
1079.945, 12461.00
1081.046, 12330.00
1082.148, 12375.00
1083.249, 12187.00
1084.350, 12197.00
1085.451, 12223.00
1086.551, 12220.00
1087.652, 12148.00
1088.752, 12089.00
1089.853, 12080.00
1090.953, 12159.00
1092.053, 12201.00
1093.152, 12130.00
1094.252, 12042.00
1095.351, 12160.00
1096.451, 12079.00
1097.550, 12250.00
1098.649, 11961.00
1099.748, 12305.00
1100.846, 12143.00
1101.945, 12227.00
1103.043, 12059.00
1104.141, 12209.00
1105.239, 12231.00
1106.337, 12167.00
1107.434, 12079.00
1108.532, 12060.00
1109.629, 12171.00
1110.726, 12052.00
1111.823, 12059.00
1112.920, 12178.00
1114.017, 11923.00
1115.113, 12044.00
1116.210, 12119.00
1117.306, 11973.00
1118.402, 11972.00
1119.498, 11942.00
1120.593, 11855.00
1121.689, 11962.00
1122.784, 11911.00
1123.879, 11869.00
1124.974, 11858.00
1126.069, 11909.71
1127.164, 12019.00
1128.259, 11995.00
1129.353, 11954.00
1130.447, 11835.00
1131.541, 11823.00
1132.635, 11842.00
1133.729, 11875.00
1134.822, 11877.19
1135.916, 11849.00
1137.009, 11922.00
1138.102, 11800.00
1139.195, 11840.00
1140.288, 11864.00
1141.380, 11925.00
1142.473, 11910.00
1143.565, 11844.00
1144.657, 11855.00
1145.749, 11711.00
1146.841, 11755.00
1147.932, 11741.00
1149.024, 11867.00
1150.115, 11900.00
1151.206, 11854.00
1152.297, 11891.00
1153.388, 11988.00
1154.479, 11768.00
1155.569, 11931.00
1156.659, 11852.00
1157.750, 11939.00
1158.839, 11891.00
1159.929, 11854.00
1161.019, 11888.00
1162.108, 11929.00
1163.198, 11918.00
1164.287, 11898.00
1165.376, 11934.00
1166.465, 11996.00
1167.553, 11932.00
1168.642, 11806.00
1169.730, 11914.00
1170.818, 11904.00
1171.906, 11973.00
1172.994, 11875.00
1174.082, 11963.00
1175.170, 11873.00
1176.257, 12068.00
1177.344, 12015.00
1178.431, 11833.00
1179.518, 11951.00
1180.605, 11941.00
1181.691, 12003.00
1182.778, 11976.00
1183.864, 12028.00
1184.950, 12022.00
1186.036, 11927.00
1187.122, 12080.00
1188.207, 12092.00
1189.292, 12113.00
1190.378, 11937.00
1191.463, 11998.00
1192.548, 12042.00
1193.632, 12096.00
1194.717, 12179.00
1195.801, 12110.00
1196.886, 12070.00
1197.970, 11992.00
1199.054, 12012.00
1200.137, 12070.00
1201.221, 11876.00
1202.305, 12085.00
1203.388, 11996.00
1204.471, 12117.00
1205.554, 11992.00
1206.637, 12092.00
1207.719, 12073.00
1208.802, 11965.00
1209.884, 12023.00
1210.966, 12061.00
1212.048, 12048.00
1213.130, 11992.00
1214.212, 12214.00
1215.293, 12017.00
1216.374, 12198.00
1217.456, 12014.00
1218.536, 12167.00
1219.617, 12174.00
1220.698, 12158.00
1221.778, 12061.00
1222.859, 12257.00
1223.939, 12104.00
1225.019, 12085.00
1226.099, 12282.00
1227.178, 12171.00
1228.258, 12204.00
1229.337, 12180.00
1230.417, 12257.00
1231.496, 12180.00
1232.574, 12193.00
1233.653, 12280.00
1234.732, 12145.00
1235.810, 12254.00
1236.888, 12203.00
1237.966, 12088.00
1239.044, 12242.00
1240.122, 12265.00
1241.199, 12269.00
1242.277, 12395.00
1243.354, 12216.00
1244.431, 12340.00
1245.508, 12470.00
1246.585, 12462.00
1247.661, 12280.00
1248.738, 12376.00
1249.814, 12311.00
1250.890, 12269.00
1251.966, 12319.00
1253.042, 12403.00
1254.117, 12395.00
1255.193, 12514.00
1256.268, 12481.00
1257.343, 12346.00
1258.418, 12261.00
1259.493, 12309.00
1260.567, 12171.00
1261.642, 12430.00
1262.716, 12378.00
1263.790, 12335.00
1264.864, 12498.00
1265.938, 12400.00
1267.011, 12386.00
1268.085, 12460.00
1269.158, 12536.00
1270.231, 12467.00
1271.304, 12405.00
1272.377, 12451.00
1273.450, 12322.00
1274.522, 12470.00
1275.594, 12500.00
1276.666, 12502.00
1277.738, 12472.00
1278.810, 12462.00
1279.882, 12456.00
1280.953, 12470.00
1282.025, 12466.73
1283.096, 12590.00
1284.167, 12494.00
1285.238, 12558.00
1286.308, 12610.00
1287.379, 12494.00
1288.449, 12504.00
1289.519, 12618.00
1290.589, 12517.00
1291.659, 12636.00
1292.729, 12488.00
1293.798, 12662.00
1294.868, 12418.00
1295.937, 12469.00
1297.006, 12690.00
1298.075, 12620.00
1299.143, 12532.00
1300.212, 12431.00
1301.280, 12596.00
1302.348, 12536.00
1303.416, 12570.00
1304.484, 12571.00
1305.552, 12620.00
1306.620, 12681.00
1307.687, 12802.00
1308.754, 12653.00
1309.821, 12530.00
1310.888, 12615.00
1311.955, 12745.00
1313.021, 12627.00
1314.088, 12659.00
1315.154, 12736.00
1316.220, 12723.00
1317.286, 12766.00
1318.352, 12711.00
1319.417, 12813.00
1320.483, 12835.00
1321.548, 12828.00
1322.613, 12889.00
1323.678, 12772.00
1324.743, 12769.00
1325.807, 12770.00
1326.872, 12845.00
1327.936, 12832.00
1329.000, 12833.00
1330.064, 12795.00
1331.128, 12829.00
1332.191, 12665.00
1333.255, 12705.00
1334.318, 12805.00
1335.381, 12711.00
1336.444, 12813.00
1337.507, 12661.00
1338.569, 12824.00
1339.632, 12851.00
1340.694, 12808.00
1341.756, 12984.00
1342.818, 12765.00
1343.880, 12774.00
1344.941, 12731.00
1346.003, 12903.00
1347.064, 12858.00
1348.125, 12850.00
1349.186, 12919.00
1350.247, 12739.00
1351.308, 12858.00
1352.368, 12938.00
1353.428, 12908.00
1354.489, 12772.00
1355.549, 12828.00
1356.608, 12889.00
1357.668, 12859.00
1358.727, 12920.00
1359.787, 12903.00
1360.846, 12891.00
1361.905, 12865.00
1362.964, 12859.98
1364.022, 12893.00
1365.081, 12855.00
1366.139, 12935.00
1367.197, 12962.00
1368.255, 12993.00
1369.313, 13033.51
1370.371, 13012.00
1371.428, 13093.00
1372.486, 13062.00
1373.543, 13102.77
1374.600, 13072.00
1375.657, 13045.00
1376.713, 13062.00
1377.770, 13032.96
1378.826, 13089.00
1379.882, 13033.00
1380.938, 13028.00
1381.994, 13079.00
1383.050, 13178.00
1384.106, 13231.00
1385.161, 13105.00
1386.216, 13028.00
1387.271, 13093.00
1388.326, 13001.00
1389.381, 13148.00
1390.435, 13103.00
1391.490, 13068.00
1392.544, 13190.00
1393.598, 13082.00
1394.652, 13016.00
1395.705, 13129.00
1396.759, 13046.00
1397.812, 13058.00
1398.866, 13158.00
1399.919, 13232.00
1400.972, 13221.00
1402.024, 13143.00
1403.077, 13159.00
1404.129, 13130.70
1405.181, 13101.00
1406.233, 13158.00
1407.285, 13077.00
1408.337, 13184.00
1409.389, 13139.00
1410.440, 13160.00
1411.491, 13114.00
1412.542, 13101.00
1413.593, 13138.06
1414.644, 13077.00
1415.695, 13211.00
1416.745, 13281.00
1417.795, 13316.00
1418.845, 13249.00
1419.895, 13260.00
1420.945, 13207.00
1421.995, 13279.00
1423.044, 13369.00
1424.093, 13197.00
1425.142, 13307.00
1426.191, 13373.00
1427.240, 13274.00
1428.289, 13221.00
1429.337, 13265.00
1430.385, 13149.00
1431.433, 13180.00
1432.481, 13280.00
1433.529, 13344.00
1434.577, 13465.00
1435.624, 13458.00
1436.672, 13408.00
1437.719, 13345.00
1438.766, 13521.00
1439.812, 13285.00
1440.859, 13434.00
1441.905, 13318.00
1442.952, 13559.00
1443.998, 13612.00
1445.044, 13558.00
1446.090, 13438.00
1447.135, 13538.00
1448.181, 13440.00
1449.226, 13631.00
1450.271, 13578.00
1451.316, 13635.00
1452.361, 13509.00
1453.405, 13630.00
1454.450, 13549.00
1455.494, 13598.00
1456.538, 13679.00
1457.582, 13558.00
1458.626, 13414.00
1459.670, 13613.00
1460.713, 13561.00
1461.757, 13516.00
1462.800, 13725.00
1463.843, 13664.00
1464.886, 13554.00
1465.928, 13720.00
1466.971, 13672.00
1468.013, 13500.00
1469.055, 13779.00
1470.097, 13738.00
1471.139, 13601.00
1472.181, 13766.00
1473.222, 13629.00
1474.263, 13694.00
1475.305, 13737.00
1476.346, 13739.00
1477.386, 13699.00
1478.427, 13743.00
1479.468, 13693.00
1480.508, 13713.00
1481.548, 13645.00
1482.588, 13644.00
1483.628, 13577.00
1484.668, 13581.25
1485.707, 13575.00
1486.747, 13569.00
1487.786, 13696.00
1488.825, 13662.00
1489.864, 13662.00
1490.902, 13662.00
1491.941, 13492.00
1492.979, 13777.00
1494.017, 13699.00
1495.055, 13850.00
1496.093, 13663.00
1497.131, 13731.00
1498.168, 13810.00
1499.206, 13758.00
1500.243, 13737.00
1501.280, 13749.00
1502.317, 13753.80
1503.354, 13756.00
1504.390, 13805.00
1505.426, 13799.00
1506.463, 13800.00
1507.499, 13723.00
1508.535, 13708.00
1509.570, 13853.00
1510.606, 13836.00
1511.641, 13678.00
1512.676, 13827.00
1513.711, 13745.00
1514.746, 13948.00
1515.781, 13782.00
1516.816, 13899.00
1517.850, 13786.00
1518.884, 13809.00
1519.918, 13814.00
1520.952, 13818.00
1521.986, 13902.00
1523.019, 13913.00
1524.053, 14027.00
1525.086, 13886.00
1526.119, 13915.00
1527.152, 13853.00
1528.185, 14041.00
1529.217, 13965.00
1530.250, 13949.00
1531.282, 14071.00
1532.314, 13873.00
1533.346, 13965.00
1534.377, 13926.00
1535.409, 13811.00
1536.440, 13974.00
1537.472, 13951.00
1538.503, 13985.00
1539.534, 13971.00
1540.564, 13988.00
1541.595, 14012.00
1542.625, 13668.00
1543.656, 13882.00
1544.686, 13800.00
1545.716, 13938.00
1546.745, 13994.00
1547.775, 14146.00
1548.804, 13966.00
1549.834, 14178.00
1550.863, 14157.00
1551.892, 14126.00
1552.920, 14187.00
1553.949, 14101.00
1554.977, 14140.00
1556.006, 14146.00
1557.034, 14117.00
1558.062, 13942.00
1559.089, 14097.00
1560.117, 14058.00
1561.144, 14170.00
1562.172, 14155.14
1563.199, 14263.00
1564.226, 14154.00
1565.252, 14013.00
1566.279, 14088.00
1567.305, 14032.00
1568.332, 13955.00
1569.358, 14165.00
1570.384, 14051.00
1571.409, 14132.00
1572.435, 14227.00
##END=



