##NAMES=Edingtonite
##RRUFFID=R040110
##IDEAL CHEMISTRY=Ba(Si_3_Al_2_)O_10_&#183;4H_2_O
##LOCALITY=2350 level, Brunswick 12 mine, Bathhurst, New Brunswick, Canada
##OWNER=RRUFF
##SOURCE=National Museums of Canada
##DESCRIPTION=Colorless rectangular prism
##STATUS=The identification of this mineral has been confirmed by X-ray diffraction and chemical analysis
##URL=rruff.info/R040110
##MEASURED CHEMISTRY=Ba_1.00_(Si_3.00_Al_2.00_)O_10_Â·4H_2_O
##PIN_ID=M00390
##ORIENTATION=Laser parallel to -c* (0 0 -1). Fiducial mark perpendicular to laser is parallel to a [1 0 0]
53.91000, 609.0000
55.14900, 612.0000
56.38700, 606.0000
57.62600, 643.0000
58.86400, 685.0000
60.10300, 664.0000
61.34100, 708.0000
62.57900, 769.0000
63.81700, 820.0000
65.05400, 874.0000
66.29200, 993.0000
67.52900, 1138.000
68.76700, 1308.000
70.00400, 1432.000
71.24100, 1563.000
72.47700, 1653.000
73.71400, 1966.000
74.95100, 2169.000
76.18700, 2535.000
77.42300, 2716.000
78.65900, 3000.000
79.89500, 3355.000
81.13100, 3642.000
82.36700, 4041.000
83.60200, 4352.000
84.83700, 4823.000
86.07200, 5106.000
87.30800, 5472.000
88.54200, 5826.000
89.77700, 6183.000
91.01200, 6617.000
92.24600, 7008.000
93.48000, 7266.000
94.71400, 7708.000
95.94800, 8010.000
97.18200, 8305.000
98.41600, 8700.000
99.64900, 9093.000
100.8830, 9292.000
102.1160, 9492.000
103.3490, 9717.000
104.5820, 9539.000
105.8150, 9638.000
107.0470, 9689.000
108.2800, 9993.000
109.5120, 9755.000
110.7440, 9422.000
111.9760, 9573.000
113.2080, 9768.000
114.4400, 10283.00
115.6710, 10626.00
116.9030, 10916.00
118.1340, 11323.00
119.3650, 11869.00
120.5960, 12459.00
121.8270, 12984.00
123.0580, 13691.00
124.2880, 14456.00
125.5190, 15201.00
126.7490, 16018.00
127.9790, 17012.00
129.2090, 17842.00
130.4390, 18640.00
131.6680, 19354.00
132.8980, 20035.53
134.1270, 20597.73
135.3560, 21138.00
136.5850, 21536.00
137.8140, 21752.00
139.0430, 22052.00
140.2710, 22396.00
141.5000, 22994.00
142.7280, 23908.00
143.9560, 24927.00
145.1840, 25977.00
146.4120, 27099.00
147.6390, 28243.00
148.8670, 29397.00
150.0940, 30603.00
151.3210, 31602.00
152.5490, 31701.00
153.7750, 31373.00
155.0020, 30490.00
156.2290, 28484.00
157.4550, 26742.00
158.6810, 24817.00
159.9080, 22615.00
161.1340, 20648.00
162.3590, 18964.00
163.5850, 17530.00
164.8110, 16269.00
166.0360, 15168.00
167.2610, 14630.00
168.4860, 13733.00
169.7110, 13173.00
170.9360, 12786.00
172.1610, 12295.00
173.3850, 11879.00
174.6100, 11575.00
175.8340, 11323.00
177.0580, 11010.00
178.2820, 10835.00
179.5050, 10641.00
180.7290, 10406.00
181.9520, 10315.00
183.1760, 10224.00
184.3990, 9896.000
185.6220, 9965.000
186.8450, 9771.000
188.0670, 9656.000
189.2900, 9585.000
190.5120, 9555.000
191.7340, 9393.000
192.9560, 9270.000
194.1780, 9151.000
195.4000, 9020.000
196.6220, 8943.000
197.8430, 8959.000
199.0640, 8778.000
200.2860, 8914.000
201.5070, 8926.000
202.7270, 8710.000
203.9480, 8600.000
205.1690, 8416.000
206.3890, 8319.000
207.6090, 8187.000
208.8290, 8165.000
210.0490, 8155.000
211.2690, 8161.000
212.4890, 8136.864
213.7080, 8137.000
214.9280, 8117.000
216.1470, 8000.000
217.3660, 8007.534
218.5850, 8008.000
219.8030, 8040.000
221.0220, 8119.000
222.2400, 8157.000
223.4590, 8115.000
224.6770, 8226.000
225.8950, 8326.000
227.1120, 8353.000
228.3300, 8566.000
229.5480, 8640.000
230.7650, 8650.000
231.9820, 8749.000
233.1990, 8658.000
234.4160, 8677.000
235.6330, 8580.000
236.8490, 8185.000
238.0660, 8086.000
239.2820, 7959.000
240.4980, 7786.000
241.7140, 7797.000
242.9300, 7690.000
244.1460, 7646.000
245.3610, 7644.000
246.5770, 7573.000
247.7920, 7602.000
249.0070, 7557.000
250.2220, 7571.000
251.4370, 7637.000
252.6510, 7665.000
253.8660, 7685.000
255.0800, 7745.000
256.2940, 7712.000
257.5080, 7953.000
258.7220, 8131.000
259.9360, 8058.000
261.1490, 7984.000
262.3630, 7961.000
263.5760, 8039.000
264.7890, 8067.880
266.0020, 8180.554
267.2150, 8266.000
268.4270, 8479.000
269.6400, 8628.000
270.8520, 8850.000
272.0640, 8950.000
273.2760, 9022.000
274.4880, 9061.637
275.7000, 8965.000
276.9120, 8968.000
278.1230, 8876.000
279.3340, 8704.000
280.5450, 8643.000
281.7560, 8559.000
282.9670, 8327.000
284.1780, 8341.000
285.3880, 8216.000
286.5980, 8135.000
287.8090, 8085.000
289.0190, 8008.000
290.2290, 7987.000
291.4380, 8061.000
292.6480, 7888.000
293.8570, 7928.000
295.0670, 7822.000
296.2760, 7950.000
297.4850, 7831.000
298.6930, 7898.000
299.9020, 7876.000
301.1110, 7891.000
302.3190, 7872.000
303.5270, 7883.000
304.7350, 7952.000
305.9430, 7928.000
307.1510, 7889.000
308.3580, 7880.000
309.5660, 7996.000
310.7730, 8017.000
311.9800, 8033.000
313.1870, 8097.000
314.3940, 7953.000
315.6010, 8154.000
316.8070, 8123.000
318.0130, 8039.000
319.2200, 8127.000
320.4260, 8031.000
321.6310, 7954.000
322.8370, 8020.000
324.0430, 8036.000
325.2480, 8095.000
326.4540, 8113.000
327.6590, 8044.000
328.8640, 8151.000
330.0680, 8047.000
331.2730, 8017.000
332.4780, 8132.000
333.6820, 8111.000
334.8860, 8229.000
336.0900, 8102.000
337.2940, 8181.000
338.4980, 8144.000
339.7010, 8183.000
340.9050, 8127.000
342.1080, 8201.000
343.3110, 8239.000
344.5140, 8398.000
345.7170, 8386.000
346.9200, 8447.951
348.1220, 8467.741
349.3240, 8503.000
350.5270, 8483.000
351.7290, 8510.000
352.9310, 8578.000
354.1320, 8648.000
355.3340, 8656.000
356.5350, 8643.000
357.7370, 8783.000
358.9380, 8706.000
360.1390, 8814.000
361.3400, 8782.000
362.5400, 8793.000
363.7410, 8825.000
364.9410, 8866.000
366.1410, 8970.000
367.3410, 8938.984
368.5410, 8825.000
369.7410, 8921.000
370.9400, 8935.000
372.1400, 8949.000
373.3390, 8768.000
374.5380, 9002.000
375.7370, 8921.000
376.9360, 8881.000
378.1350, 8999.000
379.3330, 9053.000
380.5310, 9176.000
381.7300, 9200.799
382.9280, 9085.000
384.1260, 9242.000
385.3230, 9262.000
386.5210, 9262.000
387.7180, 9336.000
388.9160, 9318.000
390.1130, 9490.000
391.3100, 9489.000
392.5060, 9705.000
393.7030, 9726.000
394.9000, 9725.000
396.0960, 9891.000
397.2920, 10131.00
398.4880, 10140.00
399.6840, 10286.00
400.8800, 10355.00
402.0750, 10222.00
403.2710, 10328.00
404.4660, 10171.00
405.6610, 10150.00
406.8560, 10139.00
408.0510, 10222.00
409.2450, 10128.00
410.4400, 10169.00
411.6340, 10065.00
412.8280, 10241.00
414.0220, 10057.00
415.2160, 10140.00
416.4100, 10318.00
417.6030, 10467.00
418.7970, 10623.00
419.9900, 10706.00
421.1830, 10994.00
422.3760, 11005.00
423.5690, 11146.00
424.7610, 11183.00
425.9540, 11424.00
427.1460, 11454.00
428.3380, 11725.00
429.5300, 11683.00
430.7220, 11537.00
431.9140, 11664.00
433.1050, 11591.00
434.2970, 11596.00
435.4880, 11310.00
436.6790, 11189.00
437.8700, 10879.00
439.0610, 10819.00
440.2510, 10582.00
441.4420, 10453.00
442.6320, 10482.00
443.8220, 10295.00
445.0120, 10166.00
446.2020, 10088.00
447.3910, 9936.000
448.5810, 9942.000
449.7700, 9951.000
450.9600, 9786.000
452.1490, 9851.000
453.3370, 9747.000
454.5260, 9686.000
455.7150, 9804.000
456.9030, 9867.000
458.0910, 9726.000
459.2800, 9982.000
460.4670, 9892.000
461.6550, 10062.00
462.8430, 10071.00
464.0300, 10086.00
465.2180, 10181.00
466.4050, 10141.00
467.5920, 10262.00
468.7790, 10373.00
469.9650, 10570.00
471.1520, 10517.00
472.3380, 10651.00
473.5250, 10802.00
474.7110, 10742.00
475.8970, 11208.00
477.0820, 11071.00
478.2680, 11303.00
479.4540, 11608.00
480.6390, 11792.00
481.8240, 11996.80
483.0090, 12194.98
484.1940, 12301.00
485.3780, 12565.00
486.5630, 12641.00
487.7470, 12894.00
488.9320, 13181.00
490.1160, 13375.00
491.3000, 13527.00
492.4830, 13735.00
493.6670, 13779.00
494.8500, 13793.00
496.0340, 13878.00
497.2170, 13931.99
498.4000, 14113.00
499.5820, 14091.00
500.7650, 14174.00
501.9480, 14272.00
503.1300, 14063.00
504.3120, 14206.00
505.4940, 14165.00
506.6760, 14442.00
507.8580, 14793.00
509.0390, 15106.00
510.2210, 15601.00
511.4020, 16412.00
512.5830, 17516.00
513.7640, 18639.00
514.9450, 20691.00
516.1250, 23042.00
517.3060, 25981.00
518.4860, 29807.00
519.6660, 34219.00
520.8460, 38679.00
522.0260, 44166.00
523.2060, 49215.00
524.3850, 54183.00
525.5650, 58483.00
526.7440, 61249.00
527.9230, 61165.00
529.1020, 59066.00
530.2810, 54219.00
531.4590, 49083.00
532.6380, 42190.00
533.8160, 36655.00
534.9940, 31647.00
536.1720, 27394.00
537.3500, 24252.00
538.5270, 21703.00
539.7050, 19337.00
540.8820, 17694.00
542.0590, 16557.00
543.2360, 15350.00
544.4130, 14485.00
545.5900, 13925.00
546.7660, 13335.00
547.9430, 12803.00
549.1190, 12283.00
550.2950, 11959.18
551.4710, 11709.00
552.6470, 11472.00
553.8220, 11372.00
554.9980, 11272.00
556.1730, 11103.00
557.3480, 10946.00
558.5230, 10754.00
559.6980, 10631.00
560.8730, 10500.00
562.0470, 10540.00
563.2220, 10358.00
564.3960, 10415.00
565.5700, 10248.00
566.7440, 10235.00
567.9170, 10107.00
569.0910, 10124.00
570.2640, 9993.000
571.4380, 10100.00
572.6110, 9911.000
573.7840, 9913.000
574.9570, 10012.00
576.1290, 9912.398
577.3020, 9939.740
578.4740, 9868.000
579.6460, 9903.000
580.8180, 9845.000
581.9900, 9843.000
583.1620, 9758.000
584.3330, 9785.000
585.5040, 9809.000
586.6760, 9837.000
587.8470, 9613.000
589.0180, 9575.000
590.1880, 9716.000
591.3590, 9733.000
592.5290, 9793.000
593.7000, 9653.000
594.8700, 9717.000
596.0400, 9627.000
597.2090, 9633.000
598.3790, 9747.000
599.5490, 9615.000
600.7180, 9535.000
601.8870, 9671.000
603.0560, 9696.000
604.2250, 9593.000
605.3940, 9677.000
606.5620, 9517.000
607.7300, 9541.000
608.8990, 9557.000
610.0670, 9540.000
611.2350, 9559.274
612.4020, 9624.000
613.5700, 9536.000
614.7370, 9542.000
615.9050, 9460.000
617.0720, 9555.000
618.2390, 9524.000
619.4060, 9588.000
620.5720, 9671.000
621.7390, 9481.000
622.9050, 9548.000
624.0710, 9500.000
625.2370, 9546.000
626.4030, 9575.000
627.5690, 9494.000
628.7340, 9576.000
629.9000, 9489.000
631.0650, 9472.000
632.2300, 9582.000
633.3950, 9613.000
634.5600, 9498.000
635.7240, 9553.000
636.8890, 9452.000
638.0530, 9544.000
639.2170, 9600.000
640.3810, 9495.000
641.5450, 9597.000
642.7080, 9580.000
643.8720, 9479.000
645.0350, 9558.000
646.1980, 9531.000
647.3610, 9527.000
648.5240, 9565.000
649.6870, 9574.000
650.8490, 9649.000
652.0120, 9670.000
653.1740, 9555.000
654.3360, 9682.000
655.4980, 9551.000
656.6600, 9582.000
657.8210, 9436.000
658.9830, 9508.000
660.1440, 9538.000
661.3050, 9565.000
662.4660, 9568.000
663.6270, 9591.316
664.7870, 9625.000
665.9480, 9598.000
667.1080, 9681.000
668.2680, 9649.000
669.4280, 9736.000
670.5880, 9722.000
671.7480, 9672.000
672.9070, 9753.000
674.0670, 9624.000
675.2260, 9719.000
676.3850, 9657.000
677.5440, 9774.000
678.7030, 9860.000
679.8610, 9856.000
681.0200, 9915.061
682.1780, 9889.000
683.3360, 9915.000
684.4940, 9970.000
685.6520, 9922.000
686.8090, 10035.00
687.9670, 10183.00
689.1240, 10188.00
690.2810, 10283.00
691.4380, 10377.00
692.5950, 10446.00
693.7520, 10478.00
694.9080, 10581.00
696.0650, 10985.00
697.2210, 11058.00
698.3770, 11304.00
699.5330, 11498.00
700.6880, 11698.00
701.8440, 11865.00
702.9990, 11904.00
704.1550, 12053.00
705.3100, 12041.00
706.4650, 11957.00
707.6190, 11946.00
708.7740, 11696.00
709.9290, 11448.00
711.0830, 11352.00
712.2370, 11193.00
713.3910, 10944.00
714.5450, 10938.00
715.6980, 10733.00
716.8520, 10557.00
718.0050, 10537.00
719.1580, 10561.00
720.3110, 10397.00
721.4640, 10470.00
722.6170, 10217.00
723.7700, 10235.00
724.9220, 10229.00
726.0740, 10116.00
727.2260, 10103.00
728.3780, 10061.00
729.5300, 10024.00
730.6810, 9973.248
731.8330, 10094.00
732.9840, 9960.000
734.1350, 9787.000
735.2860, 9998.000
736.4370, 9910.000
737.5880, 9903.000
738.7380, 9906.000
739.8880, 10016.00
741.0390, 9830.000
742.1890, 9879.000
743.3380, 9990.000
744.4880, 9929.000
745.6380, 9810.000
746.7870, 9949.000
747.9360, 9843.000
749.0850, 9843.000
750.2340, 9788.000
751.3830, 9744.771
752.5310, 9822.000
753.6800, 9761.000
754.8280, 9748.000
755.9760, 9937.000
757.1240, 9718.000
758.2720, 9900.000
759.4190, 9850.000
760.5670, 9909.000
761.7140, 9934.000
762.8610, 10003.00
764.0080, 9890.000
765.1550, 9835.000
766.3020, 9937.000
767.4480, 9858.000
768.5950, 9904.000
769.7410, 9935.000
770.8870, 9980.000
772.0330, 9815.000
773.1780, 9916.000
774.3240, 9928.000
775.4690, 9902.000
776.6140, 10031.00
777.7590, 9951.000
778.9040, 9918.000
780.0490, 9989.000
781.1940, 9994.000
782.3380, 9927.000
783.4820, 9929.000
784.6260, 9931.000
785.7700, 9968.000
786.9140, 9968.758
788.0580, 10010.00
789.2010, 9994.000
790.3450, 10024.00
791.4880, 10034.00
792.6310, 10055.00
793.7730, 10094.15
794.9160, 9983.000
796.0590, 10108.00
797.2010, 10051.00
798.3430, 9907.000
799.4850, 10075.00
800.6270, 10055.00
801.7690, 10135.00
802.9100, 10180.00
804.0520, 10200.00
805.1930, 10163.00
806.3340, 10129.00
807.4750, 10154.00
808.6160, 10166.00
809.7560, 10054.00
810.8970, 10223.00
812.0370, 10123.00
813.1770, 10102.00
814.3170, 10234.00
815.4570, 10201.00
816.5960, 10175.00
817.7360, 10187.00
818.8750, 10151.00
820.0140, 10175.00
821.1530, 10191.00
822.2920, 10252.00
823.4310, 10278.15
824.5690, 10270.00
825.7070, 10344.00
826.8460, 10347.67
827.9840, 10341.00
829.1220, 10343.00
830.2590, 10301.00
831.3970, 10242.00
832.5340, 10263.00
833.6710, 10252.00
834.8080, 10305.00
835.9450, 10235.00
837.0820, 10294.00
838.2190, 10289.00
839.3550, 10309.00
840.4910, 10390.00
841.6270, 10326.00
842.7630, 10318.00
843.8990, 10383.00
845.0350, 10430.00
846.1700, 10309.00
847.3060, 10377.00
848.4410, 10426.00
849.5760, 10323.00
850.7100, 10468.00
851.8450, 10351.00
852.9800, 10623.00
854.1140, 10503.00
855.2480, 10503.00
856.3820, 10565.00
857.5160, 10427.00
858.6500, 10539.00
859.7830, 10387.00
860.9170, 10474.00
862.0500, 10588.00
863.1830, 10573.00
864.3160, 10448.00
865.4480, 10482.00
866.5810, 10524.00
867.7130, 10634.00
868.8460, 10555.00
869.9780, 10575.00
871.1100, 10574.00
872.2410, 10483.00
873.3730, 10600.00
874.5050, 10545.00
875.6360, 10579.00
876.7670, 10632.00
877.8980, 10692.00
879.0290, 10526.00
880.1590, 10547.00
881.2900, 10620.00
882.4200, 10540.00
883.5500, 10647.00
884.6800, 10544.00
885.8100, 10758.00
886.9400, 10698.00
888.0690, 10495.00
889.1990, 10683.00
890.3280, 10627.00
891.4570, 10778.00
892.5860, 10750.00
893.7140, 10647.00
894.8430, 10712.00
895.9710, 10712.00
897.1000, 10680.84
898.2280, 10742.00
899.3560, 10622.00
900.4830, 10749.00
901.6110, 10654.00
902.7380, 10691.00
903.8660, 10755.00
904.9930, 10699.00
906.1200, 10852.00
907.2460, 10718.00
908.3730, 10830.00
909.5000, 10681.00
910.6260, 10790.00
911.7520, 10835.00
912.8780, 10808.00
914.0040, 10864.00
915.1290, 10806.00
916.2550, 10873.00
917.3800, 10957.00
918.5050, 10962.00
919.6300, 10860.00
920.7550, 10961.00
921.8800, 10823.00
923.0040, 10875.00
924.1290, 10928.00
925.2530, 10999.00
926.3770, 11032.87
927.5010, 11066.76
928.6250, 11087.00
929.7480, 11086.00
930.8720, 11061.00
931.9950, 11016.00
933.1180, 11055.00
934.2410, 11050.00
935.3640, 11244.00
936.4860, 11194.00
937.6090, 11342.00
938.7310, 11275.00
939.8530, 11299.00
940.9750, 11432.00
942.0970, 11487.00
943.2180, 11510.00
944.3400, 11676.00
945.4610, 11756.00
946.5820, 12101.00
947.7030, 12364.00
948.8240, 12511.00
949.9450, 12754.00
951.0650, 13089.00
952.1860, 13319.00
953.3060, 13333.00
954.4260, 13368.00
955.5460, 13343.78
956.6650, 13247.00
957.7850, 13140.00
958.9040, 13020.00
960.0230, 12879.00
961.1420, 12760.60
962.2610, 12712.00
963.3800, 12529.00
964.4990, 12431.00
965.6170, 12380.00
966.7350, 12460.00
967.8530, 12491.00
968.9710, 12436.00
970.0890, 12577.00
971.2070, 12596.00
972.3240, 12752.00
973.4410, 12842.00
974.5580, 13001.00
975.6750, 13305.00
976.7920, 13356.00
977.9090, 13689.00
979.0250, 14201.00
980.1410, 14227.00
981.2580, 14519.00
982.3740, 14758.00
983.4890, 15023.00
984.6050, 15290.00
985.7200, 15489.00
986.8360, 15952.00
987.9510, 16337.00
989.0660, 16742.00
990.1810, 17456.00
991.2950, 17673.00
992.4100, 17820.00
993.5240, 18064.00
994.6390, 18083.00
995.7530, 17847.00
996.8660, 17305.00
997.9800, 16928.00
999.0940, 16201.00
1000.207, 15630.00
1001.320, 15220.00
1002.433, 14508.00
1003.546, 14079.00
1004.659, 13599.00
1005.772, 13210.00
1006.884, 13047.00
1007.996, 12739.00
1009.108, 12479.00
1010.220, 12402.00
1011.332, 12216.00
1012.444, 12129.00
1013.555, 12093.00
1014.666, 11955.00
1015.777, 11961.00
1016.888, 12034.00
1017.999, 11851.00
1019.110, 11926.00
1020.220, 11901.00
1021.331, 11917.00
1022.441, 11977.00
1023.551, 11844.00
1024.661, 11971.00
1025.770, 11998.00
1026.880, 12147.00
1027.989, 12155.80
1029.098, 12148.00
1030.207, 12177.00
1031.316, 12224.00
1032.425, 12204.00
1033.533, 12216.00
1034.642, 12390.00
1035.750, 12755.00
1036.858, 12694.00
1037.966, 12816.00
1039.073, 13114.00
1040.181, 13201.00
1041.288, 13506.00
1042.396, 14050.00
1043.503, 14233.00
1044.610, 14673.00
1045.716, 15218.00
1046.823, 15822.00
1047.929, 16568.00
1049.036, 17357.00
1050.142, 17803.00
1051.248, 18185.00
1052.353, 18777.00
1053.459, 18929.00
1054.564, 18843.00
1055.670, 18545.00
1056.775, 17799.00
1057.880, 17343.00
1058.985, 16854.00
1060.089, 16135.00
1061.194, 15726.00
1062.298, 15084.00
1063.402, 14637.00
1064.506, 14541.00
1065.610, 14022.00
1066.713, 13624.00
1067.817, 13533.00
1068.920, 13362.00
1070.023, 13344.00
1071.126, 13125.00
1072.229, 12990.00
1073.332, 12872.00
1074.435, 12539.00
1075.537, 12637.00
1076.639, 12435.00
1077.741, 12598.00
1078.843, 12436.00
1079.945, 12279.00
1081.046, 12226.00
1082.148, 12257.00
1083.249, 12370.00
1084.350, 12298.75
1085.451, 12195.00
1086.551, 12249.00
1087.652, 12125.00
1088.752, 12096.00
1089.853, 12048.00
1090.953, 12016.00
1092.053, 12137.00
1093.152, 12253.00
1094.252, 12166.00
1095.351, 12252.00
1096.451, 12176.00
1097.550, 12288.00
1098.649, 12245.00
1099.748, 12391.00
1100.846, 12260.00
1101.945, 12224.00
1103.043, 12247.00
1104.141, 12258.00
1105.239, 12101.00
1106.337, 12081.00
1107.434, 12035.00
1108.532, 12028.00
1109.629, 12043.00
1110.726, 12073.42
1111.823, 12033.59
1112.920, 12150.00
1114.017, 11991.00
1115.113, 11934.00
1116.210, 11964.00
1117.306, 12040.00
1118.402, 11892.00
1119.498, 12064.00
1120.593, 11871.00
1121.689, 11951.00
1122.784, 12021.00
1123.879, 11989.00
1124.974, 11908.00
1126.069, 12084.00
1127.164, 11936.00
1128.259, 11878.00
1129.353, 11877.00
1130.447, 11803.00
1131.541, 11909.00
1132.635, 11895.00
1133.729, 11931.00
1134.822, 11951.00
1135.916, 11866.00
1137.009, 11769.00
1138.102, 11881.00
1139.195, 11914.00
1140.288, 11979.00
1141.380, 11883.00
1142.473, 11979.00
1143.565, 11944.00
1144.657, 11840.00
1145.749, 11853.00
1146.841, 11927.00
1147.932, 11931.00
1149.024, 11881.00
1150.115, 11705.00
1151.206, 11989.00
1152.297, 11811.00
1153.388, 11980.00
1154.479, 11814.00
1155.569, 11844.00
1156.659, 11870.00
1157.750, 11926.00
1158.839, 11966.00
1159.929, 11967.00
1161.019, 12000.29
1162.108, 11880.00
1163.198, 12009.00
1164.287, 11966.00
1165.376, 11930.00
1166.465, 12052.00
1167.553, 11962.00
1168.642, 11959.00
1169.730, 12046.00
1170.818, 11845.00
1171.906, 11903.00
1172.994, 11935.00
1174.082, 12058.00
1175.170, 12050.00
1176.257, 11969.00
1177.344, 12017.00
1178.431, 12052.00
1179.518, 11973.00
1180.605, 11965.00
1181.691, 12010.00
1182.778, 11969.06
1183.864, 12158.00
1184.950, 11965.00
1186.036, 12152.00
1187.122, 12165.00
1188.207, 11972.00
1189.292, 11970.00
1190.378, 12143.00
1191.463, 12067.00
1192.548, 12075.00
1193.632, 12068.00
1194.717, 12021.00
1195.801, 12039.00
1196.886, 12014.00
1197.970, 12175.00
1199.054, 12079.00
1200.137, 12138.00
1201.221, 12124.00
1202.305, 12091.00
1203.388, 12191.00
1204.471, 12072.00
1205.554, 12144.00
1206.637, 12079.00
1207.719, 12063.00
1208.802, 12107.00
1209.884, 12133.00
1210.966, 12198.00
1212.048, 12199.00
1213.130, 12120.00
1214.212, 12214.00
1215.293, 12136.00
1216.374, 12197.00
1217.456, 12195.00
1218.536, 12144.00
1219.617, 12184.58
1220.698, 12255.00
1221.778, 12164.00
1222.859, 12202.00
1223.939, 12121.00
1225.019, 12143.00
1226.099, 12266.00
1227.178, 12352.00
1228.258, 12248.00
1229.337, 12313.00
1230.417, 12326.00
1231.496, 12262.00
1232.574, 12314.00
1233.653, 12180.00
1234.732, 12203.00
1235.810, 12356.00
1236.888, 12224.00
1237.966, 12417.00
1239.044, 12330.00
1240.122, 12126.00
1241.199, 12329.00
1242.277, 12279.00
1243.354, 12306.00
1244.431, 12290.00
1245.508, 12328.00
1246.585, 12299.00
1247.661, 12410.00
1248.738, 12372.00
1249.814, 12290.00
1250.890, 12472.00
1251.966, 12444.00
1253.042, 12411.00
1254.117, 12391.00
1255.193, 12341.00
1256.268, 12381.00
1257.343, 12311.00
1258.418, 12456.00
1259.493, 12347.00
1260.567, 12326.00
1261.642, 12281.00
1262.716, 12369.00
1263.790, 12273.00
1264.864, 12479.00
1265.938, 12417.00
1267.011, 12357.00
1268.085, 12337.00
1269.158, 12417.00
1270.231, 12349.00
1271.304, 12330.00
1272.377, 12479.00
1273.450, 12547.00
1274.522, 12327.00
1275.594, 12321.00
1276.666, 12426.00
1277.738, 12451.00
1278.810, 12607.00
1279.882, 12537.00
1280.953, 12396.00
1282.025, 12515.00
1283.096, 12432.00
1284.167, 12523.00
1285.238, 12532.00
1286.308, 12637.00
1287.379, 12505.00
1288.449, 12542.00
1289.519, 12506.00
1290.589, 12509.00
1291.659, 12557.00
1292.729, 12508.00
1293.798, 12471.00
1294.868, 12633.00
1295.937, 12588.00
1297.006, 12641.00
1298.075, 12625.00
1299.143, 12550.00
1300.212, 12652.00
1301.280, 12586.00
1302.348, 12701.00
1303.416, 12533.00
1304.484, 12611.00
1305.552, 12536.00
1306.620, 12557.00
1307.687, 12705.00
1308.754, 12679.00
1309.821, 12625.00
1310.888, 12719.00
1311.955, 12711.00
1313.021, 12808.00
1314.088, 12545.00
1315.154, 12643.00
1316.220, 12774.00
1317.286, 12573.00
1318.352, 12800.00
1319.417, 12690.00
1320.483, 12708.00
1321.548, 12787.00
1322.613, 12800.00
1323.678, 12803.73
1324.743, 12703.00
1325.807, 12757.00
1326.872, 12737.00
1327.936, 12655.00
1329.000, 12667.00
1330.064, 12656.68
1331.128, 12772.00
1332.191, 12713.00
1333.255, 12707.00
1334.318, 12799.00
1335.381, 12685.00
1336.444, 12758.00
1337.507, 12732.00
1338.569, 12733.00
1339.632, 12790.00
1340.694, 12882.00
1341.756, 12912.00
1342.818, 12913.41
1343.880, 12792.00
1344.941, 12877.00
1346.003, 12901.00
1347.064, 12900.00
1348.125, 12676.00
1349.186, 12866.00
1350.247, 12798.00
1351.308, 12794.00
1352.368, 12861.00
1353.428, 12826.00
1354.489, 12831.00
1355.549, 12927.00
1356.608, 12877.00
1357.668, 12866.00
1358.727, 12801.00
1359.787, 12933.00
1360.846, 12829.00
1361.905, 12918.00
1362.964, 12906.00
1364.022, 13079.00
1365.081, 12912.00
1366.139, 12874.00
1367.197, 12940.00
1368.255, 12783.00
1369.313, 12979.00
1370.371, 12928.00
1371.428, 13099.00
1372.486, 12937.00
1373.543, 13087.00
1374.600, 12940.00
1375.657, 12937.00
1376.713, 12931.00
1377.770, 13025.00
1378.826, 13021.00
1379.882, 13025.00
1380.938, 13096.00
1381.994, 13119.00
1383.050, 13099.27
1384.106, 13081.44
1385.161, 13060.00
1386.216, 13042.16
1387.271, 13001.00
1388.326, 13010.00
1389.381, 13034.00
1390.435, 13032.00
1391.490, 12939.00
1392.544, 13062.00
1393.598, 12960.00
1394.652, 13093.00
1395.705, 12953.00
1396.759, 13080.00
1397.812, 13028.00
1398.866, 13216.00
1399.919, 13109.00
1400.972, 13090.00
1402.024, 13174.00
1403.077, 13136.00
1404.129, 13106.00
1405.181, 13076.00
1406.233, 13067.00
1407.285, 13045.00
1408.337, 13198.00
1409.389, 13198.00
1410.440, 13286.00
1411.491, 13129.00
1412.542, 13127.00
1413.593, 13181.00
1414.644, 13240.00
1415.695, 13311.00
1416.745, 13182.00
1417.795, 13131.00
1418.845, 13174.00
1419.895, 13138.00
1420.945, 13196.00
1421.995, 13127.00
1423.044, 13253.00
1424.093, 13250.00
1425.142, 13102.00
1426.191, 13265.00
1427.240, 13222.00
1428.289, 13304.00
1429.337, 13263.00
1430.385, 13173.00
1431.433, 13316.00
1432.481, 13215.00
1433.529, 13306.00
1434.577, 13220.00
1435.624, 13314.00
1436.672, 13493.00
1437.719, 13354.00
1438.766, 13516.00
1439.812, 13351.00
1440.859, 13476.00
1441.905, 13463.00
1442.952, 13450.00
1443.998, 13434.00
1445.044, 13291.00
1446.090, 13481.00
1447.135, 13348.00
1448.181, 13451.00
1449.226, 13479.00
1450.271, 13517.00
1451.316, 13517.00
1452.361, 13460.00
1453.405, 13553.00
1454.450, 13539.00
1455.494, 13589.00
1456.538, 13457.00
1457.582, 13466.00
1458.626, 13626.00
1459.670, 13572.00
1460.713, 13368.00
1461.757, 13525.00
1462.800, 13467.00
1463.843, 13435.00
1464.886, 13475.00
1465.928, 13521.00
1466.971, 13381.00
1468.013, 13470.00
1469.055, 13397.00
1470.097, 13365.00
1471.139, 13554.00
1472.181, 13603.00
1473.222, 13467.00
1474.263, 13510.00
1475.305, 13550.00
1476.346, 13484.00
1477.386, 13508.00
1478.427, 13481.00
1479.468, 13472.00
1480.508, 13488.00
1481.548, 13448.00
1482.588, 13465.00
1483.628, 13277.00
1484.668, 13410.00
1485.707, 13706.00
1486.747, 13680.00
1487.786, 13589.00
1488.825, 13408.00
1489.864, 13400.00
1490.902, 13355.73
1491.941, 13481.00
1492.979, 13433.00
1494.017, 13465.00
1495.055, 13641.00
1496.093, 13561.00
1497.131, 13469.00
1498.168, 13596.00
1499.206, 13624.00
1500.243, 13446.00
1501.280, 13692.00
1502.317, 13590.00
1503.354, 13473.00
1504.390, 13488.00
1505.426, 13734.00
1506.463, 13553.00
1507.499, 13690.00
1508.535, 13603.00
1509.570, 13564.00
1510.606, 13599.00
1511.641, 13484.00
1512.676, 13567.00
1513.711, 13621.00
1514.746, 13606.00
1515.781, 13524.00
1516.816, 13511.00
1517.850, 13559.00
1518.884, 13514.28
1519.918, 13728.00
1520.952, 13572.00
1521.986, 13581.00
1523.019, 13748.00
1524.053, 13707.00
1525.086, 13635.00
1526.119, 13671.00
1527.152, 13648.00
1528.185, 13621.00
1529.217, 13720.00
1530.250, 13637.00
1531.282, 13788.00
1532.314, 13735.00
1533.346, 13764.00
1534.377, 13766.00
1535.409, 13747.00
1536.440, 13868.00
1537.472, 13718.00
1538.503, 13822.00
1539.534, 13678.00
1540.564, 13818.00
1541.595, 13619.00
1542.625, 13704.00
1543.656, 13769.00
1544.686, 13899.00
1545.716, 13788.00
1546.745, 13727.00
1547.775, 13746.00
1548.804, 13785.00
1549.834, 13652.00
1550.863, 13786.00
1551.892, 13587.00
1552.920, 13917.00
1553.949, 13752.00
1554.977, 13833.00
1556.006, 13748.00
1557.034, 13872.00
1558.062, 13886.00
1559.089, 13803.00
1560.117, 13768.00
1561.144, 13724.00
1562.172, 13785.00
1563.199, 13748.00
1564.226, 13796.00
1565.252, 13780.00
1566.279, 13794.00
1567.305, 13847.00
1568.332, 13835.00
1569.358, 13877.00
1570.384, 14057.00
1571.409, 13801.00
1572.435, 13938.00
##END=



