##NAMES=Edingtonite
##RRUFFID=R040003
##IDEAL CHEMISTRY=Ba(Si_3_Al_2_)O_10_&#183;4H_2_O
##LOCALITY=Bohl, Sweden
##OWNER=RRUFF
##SOURCE=University of Arizona Mineral Museum
##DESCRIPTION=Colorless tetragonal prism
##STATUS=The identification of this mineral has been confirmed by X-ray diffraction and chemical analysis
##URL=rruff.info/R040003
##MEASURED CHEMISTRY=Ba_1.00_(Si_3.00_Al_2.00_)O_10_Â·4H_2_O; trace amounts of Na; H_2_O estimated by difference
##PIN_ID=m00026
##ORIENTATION=Laser parallel to a* (1 0 0). Fiducial mark perpendicular to laser is parallel to c [0 0 1]
26.288, 2.760e+003
27.694, 2.624e+003
29.099, 2.582e+003
30.504, 2.510e+003
31.909, 2.443e+003
33.313, 2.359e+003
34.717, 2.378e+003
36.121, 2.273e+003
37.525, 2.249e+003
38.929, 2.260e+003
40.332, 2.227e+003
41.735, 2.171e+003
43.138, 2.131e+003
44.541, 2.106e+003
45.943, 2.068e+003
47.345, 2.057e+003
48.747, 1.986e+003
50.149, 1.976e+003
51.551, 1.926e+003
52.952, 1.878e+003
54.353, 1.875e+003
55.754, 1.894e+003
57.155, 1.900e+003
58.555, 1.856e+003
59.955, 1.831e+003
61.355, 1.858e+003
62.755, 1.845e+003
64.154, 1.854e+003
65.553, 1.909e+003
66.952, 1.864e+003
68.351, 1.843e+003
69.750, 1.828e+003
71.148, 1.878e+003
72.546, 1.985e+003
73.944, 2.103e+003
75.342, 2.782e+003
76.739, 3.506e+003
78.136, 2.861e+003
79.533, 2.660e+003
80.930, 2.398e+003
82.327, 2.442e+003
83.723, 2.589e+003
85.119, 2.771e+003
86.515, 2.898e+003
87.910, 3.077e+003
89.306, 3.409e+003
90.701, 3.833e+003
92.096, 4.386e+003
93.490, 4.737e+003
94.885, 5.300e+003
96.279, 5.844e+003
97.673, 6.433e+003
99.067, 7.301e+003
100.461, 8.056e+003
101.854, 8.884e+003
103.247, 9.473e+003
104.640, 1.008e+004
106.032, 1.030e+004
107.425, 1.104e+004
108.817, 1.163e+004
110.209, 1.313e+004
111.601, 1.624e+004
112.992, 3.091e+004
114.384, 5.818e+004
115.775, 2.932e+004
117.166, 1.929e+004
118.556, 1.865e+004
119.947, 1.869e+004
121.337, 1.905e+004
122.727, 1.901e+004
124.116, 1.951e+004
125.506, 1.954e+004
126.895, 1.936e+004
128.284, 1.943e+004
129.673, 1.928e+004
131.062, 1.902e+004
132.450, 1.861e+004
133.838, 1.841e+004
135.226, 1.794e+004
136.614, 1.768e+004
138.001, 1.743e+004
139.388, 1.730e+004
140.775, 1.724e+004
142.162, 1.738e+004
143.549, 1.736e+004
144.935, 1.785e+004
146.321, 1.809e+004
147.707, 1.882e+004
149.093, 1.949e+004
150.478, 2.041e+004
151.863, 2.140e+004
153.248, 2.211e+004
154.633, 2.237e+004
156.018, 2.275e+004
157.402, 2.200e+004
158.786, 2.110e+004
160.170, 2.050e+004
161.554, 1.916e+004
162.937, 1.841e+004
164.320, 1.783e+004
165.703, 1.714e+004
167.086, 1.679e+004
168.469, 1.593e+004
169.851, 1.582e+004
171.233, 1.545e+004
172.615, 1.490e+004
173.996, 1.477e+004
175.378, 1.436e+004
176.759, 1.454e+004
178.140, 1.415e+004
179.521, 1.412e+004
180.901, 1.386e+004
182.281, 1.396e+004
183.662, 1.368e+004
185.041, 1.341e+004
186.421, 1.365e+004
187.800, 1.348e+004
189.180, 1.341e+004
190.558, 1.327e+004
191.937, 1.329e+004
193.316, 1.330e+004
194.694, 1.324e+004
196.072, 1.334e+004
197.450, 1.337e+004
198.827, 1.333e+004
200.205, 1.324e+004
201.582, 1.348e+004
202.959, 1.358e+004
204.336, 1.351e+004
205.712, 1.374e+004
207.088, 1.375e+004
208.465, 1.373e+004
209.840, 1.338e+004
211.216, 1.287e+004
212.591, 1.275e+004
213.967, 1.263e+004
215.341, 1.268e+004
216.716, 1.257e+004
218.091, 1.250e+004
219.465, 1.253e+004
220.839, 1.255e+004
222.213, 1.262e+004
223.586, 1.251e+004
224.960, 1.244e+004
226.333, 1.255e+004
227.706, 1.260e+004
229.079, 1.274e+004
230.451, 1.287e+004
231.823, 1.303e+004
233.195, 1.351e+004
234.567, 1.386e+004
235.939, 1.411e+004
237.310, 1.411e+004
238.682, 1.395e+004
240.052, 1.370e+004
241.423, 1.344e+004
242.794, 1.333e+004
244.164, 1.318e+004
245.534, 1.301e+004
246.904, 1.297e+004
248.274, 1.300e+004
249.643, 1.281e+004
251.012, 1.289e+004
252.381, 1.288e+004
253.750, 1.310e+004
255.118, 1.438e+004
256.487, 1.325e+004
257.855, 1.333e+004
259.223, 1.296e+004
260.590, 1.304e+004
261.958, 1.301e+004
263.325, 1.299e+004
264.692, 1.317e+004
266.059, 1.302e+004
267.425, 1.309e+004
268.791, 1.300e+004
270.158, 1.306e+004
271.523, 1.305e+004
272.889, 1.297e+004
274.255, 1.306e+004
275.620, 1.271e+004
276.985, 1.280e+004
278.350, 1.280e+004
279.714, 1.282e+004
281.078, 1.279e+004
282.443, 1.263e+004
283.806, 1.263e+004
285.170, 1.264e+004
286.534, 1.274e+004
287.897, 1.257e+004
289.260, 1.255e+004
290.623, 1.261e+004
291.985, 1.252e+004
293.348, 1.260e+004
294.710, 1.283e+004
296.072, 1.276e+004
297.433, 1.283e+004
298.795, 1.261e+004
300.156, 1.279e+004
301.517, 1.284e+004
302.878, 1.297e+004
304.239, 1.291e+004
305.599, 1.298e+004
306.959, 1.314e+004
308.319, 1.316e+004
309.679, 1.327e+004
311.038, 1.317e+004
312.398, 1.342e+004
313.757, 1.350e+004
315.116, 1.347e+004
316.474, 1.354e+004
317.833, 1.331e+004
319.191, 1.345e+004
320.549, 1.336e+004
321.907, 1.312e+004
323.264, 1.323e+004
324.622, 1.310e+004
325.979, 1.310e+004
327.336, 1.298e+004
328.692, 1.294e+004
330.049, 1.303e+004
331.405, 1.301e+004
332.761, 1.297e+004
334.117, 1.300e+004
335.473, 1.298e+004
336.828, 1.293e+004
338.183, 1.305e+004
339.538, 1.301e+004
340.893, 1.308e+004
342.247, 1.320e+004
343.602, 1.304e+004
344.956, 1.345e+004
346.310, 1.353e+004
347.663, 1.353e+004
349.017, 1.368e+004
350.370, 1.373e+004
351.723, 1.411e+004
353.076, 1.434e+004
354.428, 1.466e+004
355.780, 1.487e+004
357.133, 1.539e+004
358.484, 1.565e+004
359.836, 1.577e+004
361.188, 1.616e+004
362.539, 1.606e+004
363.890, 1.594e+004
365.241, 1.556e+004
366.591, 1.506e+004
367.942, 1.483e+004
369.292, 1.446e+004
370.642, 1.405e+004
371.992, 1.388e+004
373.341, 1.369e+004
374.691, 1.342e+004
376.040, 1.341e+004
377.388, 1.327e+004
378.737, 1.326e+004
380.086, 1.313e+004
381.434, 1.314e+004
382.782, 1.323e+004
384.130, 1.321e+004
385.477, 1.329e+004
386.825, 1.331e+004
388.172, 1.352e+004
389.519, 1.351e+004
390.865, 1.356e+004
392.212, 1.353e+004
393.558, 1.354e+004
394.904, 1.342e+004
396.250, 1.347e+004
397.596, 1.347e+004
398.941, 1.363e+004
400.286, 1.350e+004
401.631, 1.336e+004
402.976, 1.342e+004
404.321, 1.347e+004
405.665, 1.342e+004
407.009, 1.350e+004
408.353, 1.322e+004
409.697, 1.341e+004
411.040, 1.340e+004
412.384, 1.334e+004
413.727, 1.353e+004
415.070, 1.353e+004
416.412, 1.370e+004
417.755, 1.365e+004
419.097, 1.387e+004
420.439, 1.465e+004
421.781, 1.427e+004
423.122, 1.437e+004
424.464, 1.448e+004
425.805, 1.550e+004
427.146, 1.500e+004
428.486, 1.501e+004
429.827, 1.530e+004
431.167, 1.523e+004
432.507, 1.543e+004
433.847, 1.529e+004
435.187, 1.524e+004
436.526, 1.502e+004
437.865, 1.489e+004
439.204, 1.449e+004
440.543, 1.441e+004
441.882, 1.413e+004
443.220, 1.393e+004
444.558, 1.354e+004
445.896, 1.363e+004
447.234, 1.342e+004
448.572, 1.338e+004
449.909, 1.330e+004
451.246, 1.317e+004
452.583, 1.323e+004
453.919, 1.317e+004
455.256, 1.310e+004
456.592, 1.322e+004
457.928, 1.307e+004
459.264, 1.314e+004
460.600, 1.307e+004
461.935, 1.311e+004
463.270, 1.317e+004
464.605, 1.322e+004
465.940, 1.309e+004
467.274, 1.328e+004
468.609, 1.333e+004
469.943, 1.332e+004
471.277, 1.318e+004
472.610, 1.336e+004
473.944, 1.335e+004
475.277, 1.350e+004
476.610, 1.326e+004
477.943, 1.362e+004
479.275, 1.329e+004
480.608, 1.338e+004
481.940, 1.352e+004
483.272, 1.345e+004
484.604, 1.348e+004
485.935, 1.357e+004
487.267, 1.366e+004
488.598, 1.361e+004
489.929, 1.369e+004
491.260, 1.383e+004
492.590, 1.382e+004
493.920, 1.383e+004
495.250, 1.409e+004
496.580, 1.414e+004
497.910, 1.429e+004
499.239, 1.427e+004
500.569, 1.449e+004
501.898, 1.472e+004
503.226, 1.479e+004
504.555, 1.519e+004
505.883, 1.564e+004
507.212, 1.558e+004
508.540, 1.616e+004
509.867, 1.640e+004
511.195, 1.696e+004
512.522, 1.763e+004
513.849, 1.836e+004
515.176, 1.936e+004
516.503, 2.057e+004
517.829, 2.220e+004
519.156, 2.429e+004
520.482, 2.738e+004
521.808, 3.114e+004
523.133, 3.645e+004
524.459, 4.314e+004
525.784, 5.132e+004
527.109, 6.002e+004
528.434, 6.469e+004
529.758, 6.535e+004
531.083, 6.090e+004
532.407, 5.417e+004
533.731, 4.660e+004
535.055, 3.934e+004
536.378, 3.382e+004
537.701, 2.960e+004
539.025, 2.648e+004
540.348, 2.498e+004
541.670, 2.200e+004
542.993, 2.080e+004
544.315, 1.962e+004
545.637, 1.876e+004
546.959, 1.794e+004
548.281, 1.740e+004
549.602, 1.710e+004
550.923, 1.649e+004
552.244, 1.637e+004
553.565, 1.595e+004
554.886, 1.588e+004
556.206, 1.579e+004
557.526, 1.535e+004
558.846, 1.524e+004
560.166, 1.534e+004
561.486, 1.506e+004
562.805, 1.502e+004
564.124, 1.500e+004
565.443, 1.510e+004
566.762, 1.478e+004
568.080, 1.485e+004
569.399, 1.496e+004
570.717, 1.464e+004
572.035, 1.482e+004
573.352, 1.481e+004
574.670, 1.460e+004
575.987, 1.459e+004
577.304, 1.454e+004
578.621, 1.469e+004
579.938, 1.459e+004
581.254, 1.460e+004
582.570, 1.472e+004
583.886, 1.494e+004
585.202, 1.500e+004
586.518, 1.503e+004
587.833, 1.511e+004
589.148, 1.509e+004
590.463, 1.486e+004
591.778, 1.501e+004
593.093, 1.489e+004
594.407, 1.489e+004
595.721, 1.510e+004
597.035, 1.503e+004
598.349, 1.517e+004
599.662, 1.511e+004
600.976, 1.525e+004
602.289, 1.513e+004
603.602, 1.509e+004
604.914, 1.542e+004
606.227, 1.510e+004
607.539, 1.504e+004
608.851, 1.511e+004
610.163, 1.516e+004
611.475, 1.506e+004
612.786, 1.502e+004
614.097, 1.540e+004
615.408, 1.552e+004
616.719, 1.590e+004
618.030, 1.619e+004
619.340, 1.631e+004
620.651, 1.670e+004
621.961, 1.739e+004
623.270, 1.817e+004
624.580, 1.881e+004
625.889, 1.924e+004
627.199, 1.914e+004
628.507, 1.854e+004
629.816, 1.790e+004
631.125, 1.744e+004
632.433, 1.666e+004
633.741, 1.641e+004
635.049, 1.624e+004
636.357, 1.622e+004
637.664, 1.635e+004
638.972, 1.637e+004
640.279, 1.666e+004
641.586, 1.725e+004
642.893, 1.743e+004
644.199, 1.800e+004
645.505, 1.841e+004
646.811, 1.876e+004
648.117, 1.883e+004
649.423, 1.921e+004
650.728, 1.920e+004
652.034, 1.935e+004
653.339, 1.989e+004
654.644, 1.939e+004
655.948, 1.941e+004
657.253, 1.890e+004
658.557, 1.832e+004
659.861, 1.783e+004
661.165, 1.729e+004
662.468, 1.696e+004
663.772, 1.659e+004
665.075, 1.606e+004
666.378, 1.666e+004
667.681, 1.646e+004
668.983, 1.623e+004
670.286, 1.553e+004
671.588, 1.523e+004
672.890, 1.548e+004
674.192, 1.512e+004
675.493, 1.518e+004
676.795, 1.514e+004
678.096, 1.481e+004
679.397, 1.499e+004
680.697, 1.480e+004
681.998, 1.485e+004
683.298, 1.501e+004
684.598, 1.471e+004
685.898, 1.482e+004
687.198, 1.483e+004
688.498, 1.472e+004
689.797, 1.494e+004
691.096, 1.494e+004
692.395, 1.495e+004
693.694, 1.505e+004
694.992, 1.496e+004
696.290, 1.521e+004
697.589, 1.513e+004
698.886, 1.526e+004
700.184, 1.548e+004
701.482, 1.546e+004
702.779, 1.559e+004
704.076, 1.560e+004
705.373, 1.577e+004
706.669, 1.570e+004
707.966, 1.567e+004
709.262, 1.588e+004
710.558, 1.576e+004
711.854, 1.605e+004
713.150, 1.591e+004
714.445, 1.608e+004
715.740, 1.630e+004
717.035, 1.607e+004
718.330, 1.619e+004
719.625, 1.609e+004
720.919, 1.593e+004
722.214, 1.590e+004
723.508, 1.560e+004
724.801, 1.563e+004
726.095, 1.559e+004
727.388, 1.546e+004
728.682, 1.551e+004
729.975, 1.537e+004
731.267, 1.570e+004
732.560, 1.543e+004
733.852, 1.548e+004
735.145, 1.544e+004
736.437, 1.544e+004
737.728, 1.521e+004
739.020, 1.529e+004
740.311, 1.534e+004
741.603, 1.523e+004
742.894, 1.519e+004
744.184, 1.526e+004
745.475, 1.533e+004
746.765, 1.540e+004
748.055, 1.513e+004
749.345, 1.489e+004
750.635, 1.570e+004
751.925, 1.539e+004
753.214, 1.541e+004
754.503, 1.541e+004
755.792, 1.534e+004
757.081, 1.539e+004
758.370, 1.535e+004
759.658, 1.530e+004
760.946, 1.550e+004
762.234, 1.552e+004
763.522, 1.556e+004
764.809, 1.556e+004
766.097, 1.548e+004
767.384, 1.564e+004
768.671, 1.558e+004
769.958, 1.549e+004
771.244, 1.573e+004
772.530, 1.556e+004
773.817, 1.559e+004
775.102, 1.552e+004
776.388, 1.543e+004
777.674, 1.553e+004
778.959, 1.556e+004
780.244, 1.570e+004
781.529, 1.585e+004
782.814, 1.565e+004
784.098, 1.577e+004
785.383, 1.578e+004
786.667, 1.602e+004
787.951, 1.588e+004
789.235, 1.607e+004
790.518, 1.613e+004
791.801, 1.607e+004
793.084, 1.638e+004
794.367, 1.626e+004
795.650, 1.649e+004
796.933, 1.636e+004
798.215, 1.636e+004
799.497, 1.652e+004
800.779, 1.653e+004
802.061, 1.634e+004
803.342, 1.643e+004
804.624, 1.648e+004
805.905, 1.647e+004
807.186, 1.662e+004
808.466, 1.628e+004
809.747, 1.674e+004
811.027, 1.658e+004
812.307, 1.656e+004
813.587, 1.671e+004
814.867, 1.658e+004
816.146, 1.678e+004
817.426, 1.663e+004
818.705, 1.659e+004
819.984, 1.702e+004
821.263, 1.680e+004
822.541, 1.690e+004
823.819, 1.711e+004
825.098, 1.709e+004
826.375, 1.736e+004
827.653, 1.708e+004
828.931, 1.742e+004
830.208, 1.752e+004
831.485, 1.738e+004
832.762, 1.760e+004
834.039, 1.743e+004
835.315, 1.761e+004
836.592, 1.770e+004
837.868, 1.749e+004
839.144, 1.815e+004
840.420, 1.782e+004
841.695, 1.815e+004
842.970, 1.823e+004
844.246, 1.817e+004
845.521, 1.840e+004
846.795, 1.836e+004
848.070, 1.842e+004
849.344, 1.837e+004
850.618, 1.834e+004
851.892, 1.883e+004
853.166, 1.871e+004
854.440, 1.910e+004
855.713, 1.956e+004
856.986, 1.981e+004
858.259, 2.052e+004
859.532, 2.080e+004
860.804, 2.088e+004
862.077, 2.128e+004
863.349, 2.035e+004
864.621, 2.024e+004
865.893, 1.991e+004
867.164, 1.959e+004
868.436, 1.935e+004
869.707, 1.902e+004
870.978, 1.899e+004
872.248, 1.913e+004
873.519, 1.886e+004
874.789, 1.880e+004
876.060, 1.883e+004
877.330, 1.877e+004
878.599, 1.890e+004
879.869, 1.878e+004
881.138, 1.890e+004
882.408, 1.880e+004
883.677, 1.847e+004
884.945, 1.880e+004
886.214, 1.838e+004
887.482, 1.882e+004
888.751, 1.882e+004
890.019, 1.862e+004
891.287, 1.896e+004
892.554, 1.871e+004
893.822, 1.881e+004
895.089, 1.893e+004
896.356, 1.871e+004
897.623, 1.910e+004
898.889, 1.880e+004
900.156, 1.908e+004
901.422, 1.902e+004
902.688, 1.878e+004
903.954, 1.912e+004
905.220, 1.880e+004
906.485, 1.890e+004
907.750, 1.907e+004
909.015, 1.867e+004
910.280, 1.889e+004
911.545, 1.888e+004
912.809, 1.865e+004
914.074, 1.883e+004
915.338, 1.861e+004
916.602, 1.841e+004
917.865, 1.819e+004
919.129, 1.827e+004
920.392, 1.821e+004
921.655, 1.784e+004
922.918, 1.816e+004
924.181, 1.819e+004
925.443, 1.808e+004
926.706, 1.841e+004
927.968, 1.823e+004
929.230, 1.819e+004
930.491, 1.841e+004
931.753, 1.833e+004
933.014, 1.852e+004
934.276, 1.859e+004
935.536, 1.825e+004
936.797, 1.872e+004
938.058, 1.815e+004
939.318, 1.844e+004
940.578, 1.848e+004
941.838, 1.835e+004
943.098, 1.852e+004
944.358, 1.834e+004
945.617, 1.829e+004
946.876, 1.861e+004
948.135, 1.859e+004
949.394, 1.894e+004
950.653, 1.902e+004
951.911, 1.906e+004
953.169, 1.963e+004
954.427, 1.942e+004
955.685, 1.965e+004
956.943, 1.945e+004
958.200, 1.911e+004
959.458, 1.935e+004
960.715, 1.920e+004
961.971, 1.888e+004
963.228, 1.908e+004
964.485, 1.865e+004
965.741, 1.921e+004
966.997, 1.878e+004
968.253, 1.894e+004
969.508, 1.894e+004
970.764, 1.850e+004
972.019, 1.880e+004
973.274, 1.888e+004
974.529, 1.865e+004
975.784, 1.869e+004
977.039, 1.864e+004
978.293, 1.875e+004
979.547, 1.901e+004
980.801, 1.878e+004
982.055, 1.939e+004
983.308, 1.933e+004
984.562, 1.959e+004
985.815, 1.996e+004
987.068, 1.990e+004
988.321, 2.011e+004
989.573, 2.007e+004
990.826, 1.996e+004
992.078, 2.039e+004
993.330, 2.002e+004
994.582, 2.018e+004
995.833, 2.034e+004
997.085, 2.026e+004
998.336, 2.132e+004
999.587, 2.164e+004
1000.838, 2.327e+004
1002.088, 2.455e+004
1003.339, 2.358e+004
1004.589, 2.205e+004
1005.839, 2.069e+004
1007.089, 1.966e+004
1008.339, 1.985e+004
1009.588, 1.919e+004
1010.838, 1.935e+004
1012.087, 1.928e+004
1013.336, 1.928e+004
1014.584, 1.923e+004
1015.833, 1.918e+004
1017.081, 1.964e+004
1018.330, 2.014e+004
1019.577, 2.000e+004
1020.825, 2.039e+004
1022.073, 2.082e+004
1023.320, 2.055e+004
1024.567, 2.098e+004
1025.814, 2.060e+004
1027.061, 2.053e+004
1028.308, 2.075e+004
1029.554, 2.028e+004
1030.800, 2.040e+004
1032.046, 2.021e+004
1033.292, 1.996e+004
1034.538, 2.009e+004
1035.783, 1.977e+004
1037.029, 2.026e+004
1038.274, 2.014e+004
1039.519, 1.995e+004
1040.763, 2.043e+004
1042.008, 2.032e+004
1043.252, 2.047e+004
1044.496, 2.083e+004
1045.740, 2.076e+004
1046.984, 2.162e+004
1048.228, 2.188e+004
1049.471, 2.233e+004
1050.714, 2.326e+004
1051.957, 2.339e+004
1053.200, 2.378e+004
1054.442, 2.397e+004
1055.685, 2.333e+004
1056.927, 2.322e+004
1058.169, 2.251e+004
1059.411, 2.194e+004
1060.652, 2.197e+004
1061.894, 2.139e+004
1063.135, 2.108e+004
1064.376, 2.093e+004
1065.617, 2.064e+004
1066.858, 2.102e+004
1068.098, 2.051e+004
1069.339, 2.074e+004
1070.579, 2.065e+004
1071.819, 2.033e+004
1073.058, 2.079e+004
1074.298, 2.074e+004
1075.537, 2.044e+004
1076.776, 2.108e+004
1078.015, 2.085e+004
1079.254, 2.088e+004
1080.493, 2.113e+004
1081.731, 2.110e+004
1082.969, 2.135e+004
1084.207, 2.149e+004
1085.445, 2.091e+004
1086.683, 2.110e+004
1087.920, 2.044e+004
1089.157, 2.053e+004
1090.394, 2.079e+004
1091.631, 2.015e+004
1092.868, 2.060e+004
1094.105, 2.013e+004
1095.341, 1.988e+004
1096.577, 2.034e+004
1097.813, 1.976e+004
1099.049, 1.995e+004
1100.284, 1.994e+004
1101.519, 1.980e+004
1102.755, 2.004e+004
1103.990, 2.006e+004
1105.224, 1.993e+004
1106.459, 2.032e+004
1107.693, 2.009e+004
1108.928, 2.046e+004
1110.162, 2.080e+004
1111.395, 2.045e+004
1112.629, 2.078e+004
1113.863, 2.024e+004
1115.096, 2.036e+004
1116.329, 2.052e+004
1117.562, 2.045e+004
1118.795, 2.048e+004
1120.027, 2.032e+004
1121.259, 2.087e+004
1122.492, 2.142e+004
1123.723, 2.078e+004
1124.955, 2.075e+004
1126.187, 2.048e+004
1127.418, 2.033e+004
1128.649, 2.033e+004
1129.880, 2.029e+004
1131.111, 2.022e+004
1132.342, 2.038e+004
1133.572, 2.013e+004
1134.802, 2.025e+004
1136.033, 2.019e+004
1137.262, 1.998e+004
1138.492, 1.997e+004
1139.722, 2.002e+004
1140.951, 2.008e+004
1142.180, 2.033e+004
1143.409, 1.958e+004
1144.638, 2.014e+004
1145.866, 2.001e+004
1147.095, 1.981e+004
1148.323, 2.022e+004
1149.551, 1.987e+004
1150.779, 1.985e+004
1152.006, 2.009e+004
1153.234, 1.984e+004
1154.461, 2.022e+004
1155.688, 2.024e+004
1156.915, 2.005e+004
1158.141, 2.056e+004
1159.368, 2.029e+004
1160.594, 2.040e+004
1161.820, 2.071e+004
1163.046, 2.045e+004
1164.272, 2.073e+004
1165.498, 2.056e+004
1166.723, 2.076e+004
1167.948, 2.082e+004
1169.173, 2.075e+004
1170.398, 2.107e+004
1171.623, 2.112e+004
1172.847, 2.066e+004
1174.071, 2.130e+004
1175.295, 2.101e+004
1176.519, 2.097e+004
1177.743, 2.101e+004
1178.966, 2.079e+004
1180.190, 2.073e+004
1181.413, 2.091e+004
1182.636, 2.062e+004
1183.858, 2.097e+004
1185.081, 2.069e+004
1186.303, 2.072e+004
1187.526, 2.105e+004
1188.748, 2.091e+004
1189.969, 2.101e+004
1191.191, 2.123e+004
1192.412, 2.047e+004
1193.634, 2.107e+004
1194.855, 2.102e+004
1196.076, 2.047e+004
1197.296, 2.114e+004
1198.517, 2.085e+004
1199.737, 2.120e+004
1200.957, 2.119e+004
1202.177, 2.110e+004
1203.397, 2.107e+004
1204.617, 2.130e+004
1205.836, 2.105e+004
1207.055, 2.127e+004
1208.274, 2.085e+004
1209.493, 2.100e+004
1210.712, 2.108e+004
1211.930, 2.077e+004
1213.148, 2.148e+004
1214.367, 2.152e+004
1215.584, 2.106e+004
1216.802, 2.183e+004
1218.020, 2.160e+004
1219.237, 2.130e+004
1220.454, 2.159e+004
1221.671, 2.119e+004
1222.888, 2.148e+004
1224.105, 2.137e+004
1225.321, 2.134e+004
1226.537, 2.187e+004
1227.753, 2.139e+004
1228.969, 2.167e+004
1230.185, 2.204e+004
1231.400, 2.187e+004
1232.616, 2.220e+004
1233.831, 2.224e+004
1235.046, 2.189e+004
1236.261, 2.256e+004
1237.475, 2.266e+004
1238.689, 2.254e+004
1239.904, 2.262e+004
1241.118, 2.257e+004
1242.332, 2.221e+004
1243.545, 2.298e+004
1244.759, 2.210e+004
1245.972, 2.278e+004
1247.185, 2.266e+004
1248.398, 2.243e+004
1249.611, 2.279e+004
1250.823, 2.227e+004
1252.036, 2.256e+004
1253.248, 2.240e+004
1254.460, 2.228e+004
1255.671, 2.238e+004
1256.883, 2.241e+004
1258.095, 2.239e+004
1259.306, 2.290e+004
1260.517, 2.244e+004
1261.728, 2.303e+004
1262.938, 2.291e+004
1264.149, 2.302e+004
1265.359, 2.336e+004
1266.569, 2.353e+004
1267.779, 2.356e+004
1268.989, 2.382e+004
1270.199, 2.361e+004
1271.408, 2.402e+004
1272.617, 2.428e+004
1273.826, 2.386e+004
1275.035, 2.414e+004
1276.244, 2.415e+004
1277.452, 2.390e+004
1278.661, 2.403e+004
1279.869, 2.334e+004
1281.077, 2.359e+004
1282.285, 2.393e+004
1283.492, 2.302e+004
1284.700, 2.366e+004
1285.907, 2.347e+004
1287.114, 2.312e+004
1288.321, 2.348e+004
1289.527, 2.363e+004
1290.734, 2.326e+004
1291.940, 2.380e+004
1293.146, 2.379e+004
1294.352, 2.410e+004
1295.558, 2.414e+004
1296.763, 2.352e+004
1297.969, 2.389e+004
1299.174, 2.359e+004
1300.379, 2.366e+004
1301.584, 2.390e+004
1302.788, 2.353e+004
1303.993, 2.346e+004
1305.197, 2.408e+004
1306.401, 2.365e+004
1307.605, 2.451e+004
1308.809, 2.500e+004
1310.013, 2.439e+004
1311.216, 2.515e+004
1312.419, 2.473e+004
1313.622, 2.480e+004
1314.825, 2.530e+004
1316.028, 2.478e+004
1317.230, 2.504e+004
1318.432, 2.558e+004
1319.634, 2.511e+004
1320.836, 2.566e+004
1322.038, 2.488e+004
1323.240, 2.495e+004
1324.441, 2.500e+004
1325.642, 2.453e+004
1326.843, 2.435e+004
1328.044, 2.460e+004
1329.245, 2.379e+004
1330.445, 2.403e+004
1331.645, 2.410e+004
1332.845, 2.349e+004
1334.045, 2.386e+004
1335.245, 2.347e+004
1336.445, 2.351e+004
1337.644, 2.358e+004
1338.843, 2.346e+004
1340.042, 2.364e+004
1341.241, 2.380e+004
1342.440, 2.326e+004
1343.638, 2.404e+004
1344.836, 2.354e+004
1346.034, 2.328e+004
1347.232, 2.417e+004
1348.430, 2.334e+004
1349.628, 2.367e+004
1350.825, 2.403e+004
1352.022, 2.336e+004
1353.219, 2.383e+004
1354.416, 2.362e+004
1355.613, 2.329e+004
1356.809, 2.387e+004
1358.005, 2.345e+004
1359.202, 2.350e+004
1360.398, 2.380e+004
1361.593, 2.373e+004
1362.789, 2.353e+004
1363.984, 2.345e+004
1365.179, 2.371e+004
1366.374, 2.404e+004
1367.569, 2.368e+004
1368.764, 2.347e+004
1369.958, 2.431e+004
1371.153, 2.360e+004
1372.347, 2.370e+004
1373.541, 2.424e+004
1374.735, 2.352e+004
1375.928, 2.398e+004
1377.122, 2.436e+004
1378.315, 2.395e+004
1379.508, 2.457e+004
1380.701, 2.458e+004
1381.893, 2.408e+004
1383.086, 2.457e+004
1384.278, 2.445e+004
1385.470, 2.440e+004
1386.662, 2.471e+004
1387.854, 2.421e+004
1389.046, 2.468e+004
1390.237, 2.477e+004
1391.428, 2.424e+004
1392.619, 2.502e+004
1393.810, 2.437e+004
1395.001, 2.434e+004
1396.191, 2.441e+004
1397.382, 2.414e+004
1398.572, 2.432e+004
1399.762, 2.475e+004
1400.952, 2.406e+004
1402.141, 2.446e+004
1403.331, 2.456e+004
1404.520, 2.403e+004
1405.709, 2.491e+004
1406.898, 2.452e+004
1408.087, 2.421e+004
1409.275, 2.496e+004
1410.464, 2.454e+004
1411.652, 2.480e+004
1412.840, 2.506e+004
1414.028, 2.456e+004
1415.215, 2.480e+004
1416.403, 2.490e+004
1417.590, 2.455e+004
1418.777, 2.497e+004
1419.964, 2.519e+004
1421.151, 2.463e+004
1422.338, 2.533e+004
1423.524, 2.457e+004
1424.710, 2.546e+004
1425.896, 2.562e+004
1427.082, 2.493e+004
1428.268, 2.603e+004
1429.453, 2.570e+004
1430.639, 2.535e+004
1431.824, 2.627e+004
1433.009, 2.607e+004
1434.194, 2.646e+004
1435.378, 2.693e+004
1436.563, 2.684e+004
1437.747, 2.795e+004
1438.931, 2.838e+004
1440.115, 2.843e+004
1441.299, 2.940e+004
1442.482, 2.977e+004
1443.666, 2.972e+004
1444.849, 3.017e+004
1446.032, 3.035e+004
1447.215, 3.069e+004
1448.397, 3.118e+004
1449.580, 3.074e+004
1450.762, 3.137e+004
1451.944, 3.148e+004
1453.126, 3.137e+004
1454.308, 3.200e+004
1455.490, 3.173e+004
1456.671, 3.133e+004
1457.852, 3.148e+004
1459.033, 3.142e+004
1460.214, 3.091e+004
1461.395, 3.111e+004
1462.575, 3.023e+004
1463.756, 3.016e+004
1464.936, 2.991e+004
1466.116, 2.936e+004
1467.296, 2.896e+004
1468.475, 2.917e+004
1469.655, 2.834e+004
1470.834, 2.848e+004
1472.013, 2.823e+004
1473.192, 2.766e+004
1474.371, 2.758e+004
1475.550, 2.752e+004
1476.728, 2.743e+004
1477.906, 2.789e+004
1479.084, 2.717e+004
1480.262, 2.779e+004
1481.440, 2.750e+004
1482.617, 2.740e+004
1483.795, 2.784e+004
1484.972, 2.747e+004
1486.149, 2.685e+004
1487.326, 2.710e+004
1488.502, 2.682e+004
1489.679, 2.632e+004
1490.855, 2.676e+004
1492.031, 2.611e+004
1493.207, 2.583e+004
1494.383, 2.616e+004
1495.559, 2.543e+004
1496.734, 2.557e+004
1497.909, 2.611e+004
1499.084, 2.518e+004
1500.259, 2.581e+004
1501.434, 2.544e+004
1502.608, 2.512e+004
1503.783, 2.680e+004
1504.957, 2.010e+002
##END=



