##NAMES=Edingtonite
##RRUFFID=R040110
##IDEAL CHEMISTRY=Ba(Si_3_Al_2_)O_10_&#183;4H_2_O
##LOCALITY=2350 level, Brunswick 12 mine, Bathhurst, New Brunswick, Canada
##OWNER=RRUFF
##SOURCE=National Museums of Canada
##DESCRIPTION=Colorless rectangular prism
##STATUS=The identification of this mineral has been confirmed by X-ray diffraction and chemical analysis
##URL=rruff.info/R040110
##MEASURED CHEMISTRY=Ba_1.00_(Si_3.00_Al_2.00_)O_10_Â·4H_2_O
##PIN_ID=L01449
##ORIENTATION=Laser parallel to b* (0 1 0). Fiducial mark perpendicular to laser is parallel to c [0 0 1]
91.01200, 5967.000
92.24600, 6617.000
93.48000, 7084.000
94.71400, 7505.000
95.94800, 8143.000
97.18200, 8579.000
98.41600, 9142.000
99.64900, 9638.000
100.8830, 10145.00
102.1160, 10557.00
103.3490, 11012.00
104.5820, 11363.00
105.8150, 11654.00
107.0470, 11818.00
108.2800, 12243.00
109.5120, 11535.00
110.7440, 10974.00
111.9760, 11072.00
113.2080, 11328.00
114.4400, 11981.00
115.6710, 12398.00
116.9030, 12888.00
118.1340, 13211.83
119.3650, 13436.25
120.5960, 13727.00
121.8270, 13661.00
123.0580, 13879.00
124.2880, 13820.00
125.5190, 13905.00
126.7490, 13630.00
127.9790, 13730.00
129.2090, 13560.00
130.4390, 13330.00
131.6680, 13139.00
132.8980, 12860.00
134.1270, 12617.00
135.3560, 12380.00
136.5850, 12334.00
137.8140, 12306.00
139.0430, 12166.00
140.2710, 12067.00
141.5000, 11965.00
142.7280, 12035.00
143.9560, 12291.00
145.1840, 12489.00
146.4120, 12831.00
147.6390, 13151.00
148.8670, 13713.00
150.0940, 14325.00
151.3210, 15169.00
152.5490, 15852.00
153.7750, 16428.00
155.0020, 16884.00
156.2290, 16966.00
157.4550, 16919.00
158.6810, 16417.00
159.9080, 15799.00
161.1340, 14854.00
162.3590, 14054.00
163.5850, 13127.00
164.8110, 12332.00
166.0360, 11692.00
167.2610, 11025.00
168.4860, 10457.00
169.7110, 9988.000
170.9360, 9678.000
172.1610, 9274.000
173.3850, 9073.000
174.6100, 8702.000
175.8340, 8482.000
177.0580, 8326.000
178.2820, 8090.000
179.5050, 8003.000
180.7290, 7901.000
181.9520, 7745.000
183.1760, 7702.000
184.3990, 7579.000
185.6220, 7603.000
186.8450, 7513.000
188.0670, 7511.000
189.2900, 7359.000
190.5120, 7367.000
191.7340, 7251.000
192.9560, 7301.000
194.1780, 7273.000
195.4000, 7322.000
196.6220, 7165.000
197.8430, 7190.000
199.0640, 7208.000
200.2860, 7258.000
201.5070, 7202.000
202.7270, 7129.000
203.9480, 7136.000
205.1690, 6964.000
206.3890, 6952.000
207.6090, 6915.000
208.8290, 6820.000
210.0490, 6880.000
211.2690, 6857.000
212.4890, 6862.000
213.7080, 6838.514
214.9280, 6787.000
216.1470, 6776.000
217.3660, 6736.167
218.5850, 6683.000
219.8030, 6674.000
221.0220, 6643.000
222.2400, 6619.000
223.4590, 6637.000
224.6770, 6655.000
225.8950, 6697.000
227.1120, 6671.000
228.3300, 6631.000
229.5480, 6808.000
230.7650, 6788.000
231.9820, 6928.000
233.1990, 7253.000
234.4160, 7503.000
235.6330, 7669.000
236.8490, 7986.000
238.0660, 8050.000
239.2820, 7904.000
240.4980, 7641.000
241.7140, 7492.000
242.9300, 7357.000
244.1460, 7143.000
245.3610, 7047.000
246.5770, 6908.000
247.7920, 6893.000
249.0070, 6828.000
250.2220, 6804.000
251.4370, 6959.000
252.6510, 6743.000
253.8660, 6990.000
255.0800, 6922.000
256.2940, 6888.000
257.5080, 7065.000
258.7220, 7310.000
259.9360, 7175.000
261.1490, 7098.000
262.3630, 6890.000
263.5760, 7023.000
264.7890, 6927.000
266.0020, 7020.000
267.2150, 7036.000
268.4270, 7012.000
269.6400, 7089.000
270.8520, 6959.000
272.0640, 6966.000
273.2760, 7011.000
274.4880, 7076.000
275.7000, 6962.000
276.9120, 6922.000
278.1230, 7016.000
279.3340, 6988.000
280.5450, 6992.000
281.7560, 6960.000
282.9670, 6974.000
284.1780, 6958.220
285.3880, 6929.396
286.5980, 6950.000
287.8090, 6876.000
289.0190, 6886.048
290.2290, 6876.557
291.4380, 6911.000
292.6480, 6977.000
293.8570, 7019.000
295.0670, 7184.000
296.2760, 7177.000
297.4850, 7251.000
298.6930, 7065.000
299.9020, 7185.000
301.1110, 7309.000
302.3190, 7164.000
303.5270, 7321.000
304.7350, 7374.000
305.9430, 7349.000
307.1510, 7417.000
308.3580, 7529.000
309.5660, 7684.000
310.7730, 7598.000
311.9800, 7650.000
313.1870, 7640.000
314.3940, 7738.000
315.6010, 7653.000
316.8070, 7735.000
318.0130, 7631.000
319.2200, 7652.000
320.4260, 7571.000
321.6310, 7584.000
322.8370, 7492.000
324.0430, 7552.000
325.2480, 7496.000
326.4540, 7412.000
327.6590, 7471.000
328.8640, 7450.000
330.0680, 7551.000
331.2730, 7521.000
332.4780, 7492.000
333.6820, 7469.000
334.8860, 7465.000
336.0900, 7577.000
337.2940, 7651.000
338.4980, 7612.000
339.7010, 7692.000
340.9050, 7604.000
342.1080, 7758.000
343.3110, 7796.000
344.5140, 7839.000
345.7170, 7819.000
346.9200, 8032.000
348.1220, 8199.000
349.3240, 8246.000
350.5270, 8396.000
351.7290, 8684.000
352.9310, 8852.000
354.1320, 8997.000
355.3340, 9332.000
356.5350, 9670.000
357.7370, 9761.000
358.9380, 10170.00
360.1390, 10396.00
361.3400, 10475.00
362.5400, 10624.00
363.7410, 10552.00
364.9410, 10188.00
366.1410, 10012.00
367.3410, 9742.000
368.5410, 9347.000
369.7410, 9069.000
370.9400, 8795.000
372.1400, 8574.000
373.3390, 8390.000
374.5380, 8237.000
375.7370, 8065.000
376.9360, 8007.000
378.1350, 7899.000
379.3330, 7815.000
380.5310, 7805.000
381.7300, 7607.000
382.9280, 7597.000
384.1260, 7606.000
385.3230, 7533.000
386.5210, 7583.000
387.7180, 7502.000
388.9160, 7576.000
390.1130, 7570.000
391.3100, 7499.000
392.5060, 7676.000
393.7030, 7672.000
394.9000, 7595.000
396.0960, 7635.000
397.2920, 7647.000
398.4880, 7723.000
399.6840, 7718.000
400.8800, 7812.000
402.0750, 7734.000
403.2710, 7985.000
404.4660, 7869.000
405.6610, 7999.000
406.8560, 7993.000
408.0510, 8069.000
409.2450, 8060.000
410.4400, 8051.000
411.6340, 8135.000
412.8280, 8168.000
414.0220, 8189.000
415.2160, 8284.000
416.4100, 8308.000
417.6030, 8393.665
418.7970, 8543.000
419.9900, 8603.000
421.1830, 8781.000
422.3760, 8987.000
423.5690, 9059.000
424.7610, 9279.000
425.9540, 9382.000
427.1460, 9549.000
428.3380, 9659.000
429.5300, 9711.000
430.7220, 10024.00
431.9140, 10063.00
433.1050, 10010.00
434.2970, 9940.000
435.4880, 10098.00
436.6790, 9834.000
437.8700, 9793.000
439.0610, 9457.000
440.2510, 9249.000
441.4420, 9015.000
442.6320, 8833.000
443.8220, 8660.443
445.0120, 8484.501
446.2020, 8329.640
447.3910, 8187.000
448.5810, 8042.000
449.7700, 7918.000
450.9600, 7806.000
452.1490, 7716.000
453.3370, 7642.378
454.5260, 7609.000
455.7150, 7528.000
456.9030, 7621.000
458.0910, 7574.000
459.2800, 7507.000
460.4670, 7545.000
461.6550, 7492.000
462.8430, 7387.000
464.0300, 7457.000
465.2180, 7409.000
466.4050, 7355.000
467.5920, 7443.000
468.7790, 7348.000
469.9650, 7451.000
471.1520, 7430.000
472.3380, 7265.000
473.5250, 7481.000
474.7110, 7418.000
475.8970, 7571.000
477.0820, 7496.000
478.2680, 7520.000
479.4540, 7545.000
480.6390, 7681.000
481.8240, 7694.000
483.0090, 7654.000
484.1940, 7679.000
485.3780, 7701.000
486.5630, 7763.000
487.7470, 7848.000
488.9320, 7867.057
490.1160, 7951.000
491.3000, 7950.000
492.4830, 8049.158
493.6670, 8140.824
494.8500, 8233.000
496.0340, 8364.000
497.2170, 8462.000
498.4000, 8570.000
499.5820, 8698.000
500.7650, 8859.000
501.9480, 8859.000
503.1300, 9037.000
504.3120, 9284.000
505.4940, 9569.000
506.6760, 9796.000
507.8580, 9942.000
509.0390, 10554.00
510.2210, 10889.00
511.4020, 11541.00
512.5830, 12173.00
513.7640, 13070.00
514.9450, 14192.00
516.1250, 15493.00
517.3060, 17023.00
518.4860, 19428.00
519.6660, 21554.00
520.8460, 24888.00
522.0260, 28278.00
523.2060, 32463.00
524.3850, 37675.00
525.5650, 43187.00
526.7440, 49308.00
527.9230, 55144.00
529.1020, 58783.00
530.2810, 60270.00
531.4590, 58215.00
532.6380, 53198.00
533.8160, 46554.00
534.9940, 39975.00
536.1720, 34151.00
537.3500, 29155.00
538.5270, 25247.00
539.7050, 22069.00
540.8820, 19519.00
542.0590, 17491.00
543.2360, 15894.00
544.4130, 14843.00
545.5900, 13671.00
546.7660, 12876.00
547.9430, 12286.00
549.1190, 11697.00
550.2950, 11305.00
551.4710, 10818.00
552.6470, 10575.00
553.8220, 10124.00
554.9980, 10009.00
556.1730, 9707.000
557.3480, 9523.000
558.5230, 9434.000
559.6980, 9386.000
560.8730, 9161.000
562.0470, 8875.000
563.2220, 8963.000
564.3960, 8820.000
565.5700, 8660.000
566.7440, 8740.000
567.9170, 8548.000
569.0910, 8564.000
570.2640, 8479.000
571.4380, 8359.000
572.6110, 8418.000
573.7840, 8308.000
574.9570, 8331.000
576.1290, 8186.000
577.3020, 8202.000
578.4740, 8223.000
579.6460, 8203.000
580.8180, 8134.000
581.9900, 8131.000
583.1620, 8134.000
584.3330, 8166.000
585.5040, 8014.000
586.6760, 8013.000
587.8470, 7993.000
589.0180, 8021.000
590.1880, 8000.000
591.3590, 8027.000
592.5290, 8018.000
593.7000, 7970.000
594.8700, 7937.000
596.0400, 7952.000
597.2090, 7974.000
598.3790, 7950.570
599.5490, 7968.000
600.7180, 7942.000
601.8870, 7969.000
603.0560, 7991.000
604.2250, 7917.000
605.3940, 8044.000
606.5620, 7937.000
607.7300, 7990.000
608.8990, 7869.000
610.0670, 7989.000
611.2350, 8164.000
612.4020, 8069.000
613.5700, 8022.000
614.7370, 8018.000
615.9050, 8078.000
617.0720, 8031.000
618.2390, 8040.000
619.4060, 8098.000
620.5720, 8045.000
621.7390, 8229.000
622.9050, 8150.000
624.0710, 8212.000
625.2370, 8211.000
626.4030, 8279.000
627.5690, 8202.000
628.7340, 8202.000
629.9000, 8184.000
631.0650, 8205.000
632.2300, 8165.000
633.3950, 8154.000
634.5600, 8246.000
635.7240, 8299.000
636.8890, 8378.000
638.0530, 8371.000
639.2170, 8441.000
640.3810, 8450.000
641.5450, 8607.000
642.7080, 8652.000
643.8720, 8876.000
645.0350, 8852.000
646.1980, 9072.000
647.3610, 9150.000
648.5240, 9244.000
649.6870, 9596.000
650.8490, 9845.000
652.0120, 9956.000
653.1740, 10115.00
654.3360, 10359.00
655.4980, 10421.00
656.6600, 10525.00
657.8210, 10646.00
658.9830, 10738.00
660.1440, 10388.00
661.3050, 10309.00
662.4660, 10018.00
663.6270, 10037.00
664.7870, 9670.000
665.9480, 9582.000
667.1080, 9345.000
668.2680, 9171.000
669.4280, 9181.000
670.5880, 8932.000
671.7480, 8873.000
672.9070, 8812.000
674.0670, 8784.000
675.2260, 8737.000
676.3850, 8730.000
677.5440, 8644.000
678.7030, 8692.000
679.8610, 8541.000
681.0200, 8606.000
682.1780, 8613.000
683.3360, 8587.000
684.4940, 8565.000
685.6520, 8612.000
686.8090, 8750.000
687.9670, 8587.000
689.1240, 8574.000
690.2810, 8730.000
691.4380, 8779.000
692.5950, 8702.000
693.7520, 8792.000
694.9080, 8838.000
696.0650, 8922.000
697.2210, 8974.580
698.3770, 9084.000
699.5330, 9094.000
700.6880, 9086.000
701.8440, 9170.115
702.9990, 9394.000
704.1550, 9371.000
705.3100, 9495.000
706.4650, 9635.000
707.6190, 9526.000
708.7740, 9707.000
709.9290, 9636.000
711.0830, 9688.000
712.2370, 9800.000
713.3910, 9809.000
714.5450, 9910.000
715.6980, 9968.000
716.8520, 9974.000
718.0050, 9871.000
719.1580, 9766.000
720.3110, 9705.000
721.4640, 9570.000
722.6170, 9400.000
723.7700, 9262.000
724.9220, 9048.000
726.0740, 9033.000
727.2260, 8801.000
728.3780, 8707.000
729.5300, 8694.000
730.6810, 8617.000
731.8330, 8530.000
732.9840, 8361.000
734.1350, 8379.000
735.2860, 8331.000
736.4370, 8314.000
737.5880, 8337.000
738.7380, 8298.000
739.8880, 8205.000
741.0390, 8219.000
742.1890, 8135.000
743.3380, 8194.000
744.4880, 8236.000
745.6380, 8106.000
746.7870, 8158.000
747.9360, 8103.000
749.0850, 8169.000
750.2340, 8114.000
751.3830, 8200.000
752.5310, 8125.000
753.6800, 8194.000
754.8280, 8114.000
755.9760, 8134.000
757.1240, 8111.000
758.2720, 8131.000
759.4190, 8166.000
760.5670, 8168.000
761.7140, 8068.000
762.8610, 8097.000
764.0080, 8171.000
765.1550, 8127.000
766.3020, 8190.000
767.4480, 8187.275
768.5950, 8065.000
769.7410, 8164.000
770.8870, 8135.000
772.0330, 8059.000
773.1780, 8000.000
774.3240, 8085.000
775.4690, 8141.000
776.6140, 8200.000
777.7590, 8202.000
778.9040, 8122.000
780.0490, 8049.000
781.1940, 8144.000
782.3380, 8101.000
783.4820, 8201.000
784.6260, 8109.000
785.7700, 8218.000
786.9140, 8215.000
788.0580, 8112.000
789.2010, 8151.000
790.3450, 8292.000
791.4880, 8208.000
792.6310, 8214.000
793.7730, 8244.000
794.9160, 8116.000
796.0590, 8293.000
797.2010, 8236.000
798.3430, 8292.000
799.4850, 8223.000
800.6270, 8309.000
801.7690, 8308.000
802.9100, 8332.000
804.0520, 8351.131
805.1930, 8313.000
806.3340, 8350.000
807.4750, 8367.000
808.6160, 8357.000
809.7560, 8404.979
810.8970, 8472.000
812.0370, 8451.000
813.1770, 8408.000
814.3170, 8372.000
815.4570, 8457.000
816.5960, 8523.000
817.7360, 8418.000
818.8750, 8446.000
820.0140, 8362.000
821.1530, 8346.000
822.2920, 8291.000
823.4310, 8423.000
824.5690, 8403.000
825.7070, 8485.000
826.8460, 8497.226
827.9840, 8375.000
829.1220, 8455.000
830.2590, 8447.000
831.3970, 8320.000
832.5340, 8399.000
833.6710, 8339.000
834.8080, 8465.000
835.9450, 8300.000
837.0820, 8585.000
838.2190, 8422.000
839.3550, 8630.000
840.4910, 8468.000
841.6270, 8499.000
842.7630, 8541.000
843.8990, 8445.911
845.0350, 8491.000
846.1700, 8413.000
847.3060, 8457.000
848.4410, 8560.000
849.5760, 8505.000
850.7100, 8579.000
851.8450, 8591.000
852.9800, 8620.000
854.1140, 8585.000
855.2480, 8592.000
856.3820, 8603.000
857.5160, 8544.000
858.6500, 8661.000
859.7830, 8643.000
860.9170, 8547.000
862.0500, 8667.000
863.1830, 8632.000
864.3160, 8633.000
865.4480, 8609.000
866.5810, 8596.000
867.7130, 8568.800
868.8460, 8582.837
869.9780, 8539.000
871.1100, 8593.000
872.2410, 8658.000
873.3730, 8621.000
874.5050, 8656.000
875.6360, 8563.000
876.7670, 8556.000
877.8980, 8689.000
879.0290, 8634.000
880.1590, 8566.000
881.2900, 8729.000
882.4200, 8726.000
883.5500, 8766.000
884.6800, 8714.000
885.8100, 8759.000
886.9400, 8722.664
888.0690, 8698.000
889.1990, 8698.000
890.3280, 8674.000
891.4570, 8734.000
892.5860, 8665.000
893.7140, 8800.000
894.8430, 8698.000
895.9710, 8663.000
897.1000, 8732.000
898.2280, 8729.000
899.3560, 8770.000
900.4830, 8795.000
901.6110, 8776.203
902.7380, 8782.000
903.8660, 8743.000
904.9930, 8764.000
906.1200, 8755.000
907.2460, 8721.000
908.3730, 8686.000
909.5000, 8750.000
910.6260, 8767.000
911.7520, 8844.000
912.8780, 8764.000
914.0040, 8781.248
915.1290, 8653.000
916.2550, 8743.000
917.3800, 8707.000
918.5050, 8727.000
919.6300, 8647.000
920.7550, 8692.406
921.8800, 8781.000
923.0040, 8750.000
924.1290, 8728.000
925.2530, 8746.000
926.3770, 8734.000
927.5010, 8787.000
928.6250, 8804.000
929.7480, 8720.000
930.8720, 8785.000
931.9950, 8841.000
933.1180, 8942.000
934.2410, 8837.000
935.3640, 8841.000
936.4860, 8962.000
937.6090, 8832.000
938.7310, 8883.000
939.8530, 8807.000
940.9750, 8891.000
942.0970, 8981.000
943.2180, 9063.000
944.3400, 9076.000
945.4610, 9083.000
946.5820, 9193.000
947.7030, 9188.000
948.8240, 9202.000
949.9450, 9278.000
951.0650, 9439.000
952.1860, 9392.000
953.3060, 9483.000
954.4260, 9522.000
955.5460, 9568.000
956.6650, 9680.000
957.7850, 9489.000
958.9040, 9612.000
960.0230, 9439.000
961.1420, 9455.000
962.2610, 9510.000
963.3800, 9374.000
964.4990, 9570.000
965.6170, 9340.000
966.7350, 9209.000
967.8530, 9356.000
968.9710, 9185.000
970.0890, 9403.000
971.2070, 9275.000
972.3240, 9289.000
973.4410, 9376.000
974.5580, 9297.000
975.6750, 9421.000
976.7920, 9376.000
977.9090, 9596.000
979.0250, 9522.000
980.1410, 9648.000
981.2580, 9570.000
982.3740, 9840.000
983.4890, 9769.000
984.6050, 9903.000
985.7200, 9843.000
986.8360, 9865.000
987.9510, 9973.000
989.0660, 9993.000
990.1810, 9939.000
991.2950, 10059.00
992.4100, 10066.00
993.5240, 10151.00
994.6390, 10181.00
995.7530, 10225.00
996.8660, 10221.00
997.9800, 10167.00
999.0940, 10153.00
1000.207, 10074.00
1001.320, 9896.000
1002.433, 9905.000
1003.546, 9891.000
1004.659, 9861.000
1005.772, 9644.000
1006.884, 9647.000
1007.996, 9504.000
1009.108, 9576.000
1010.220, 9569.000
1011.332, 9620.000
1012.444, 9399.000
1013.555, 9580.000
1014.666, 9539.000
1015.777, 9414.000
1016.888, 9541.000
1017.999, 9325.000
1019.110, 9506.000
1020.220, 9402.000
1021.331, 9439.000
1022.441, 9456.000
1023.551, 9549.000
1024.661, 9531.000
1025.770, 9626.000
1026.880, 9555.000
1027.989, 9713.000
1029.098, 9647.000
1030.207, 9707.000
1031.316, 9690.000
1032.425, 9790.000
1033.533, 9739.000
1034.642, 9821.000
1035.750, 9841.000
1036.858, 10034.00
1037.966, 9881.000
1039.073, 10127.00
1040.181, 10100.00
1041.288, 10320.00
1042.396, 10292.00
1043.503, 10569.00
1044.610, 10776.00
1045.716, 10954.00
1046.823, 11231.00
1047.929, 11583.00
1049.036, 11996.00
1050.142, 12237.00
1051.248, 12555.00
1052.353, 12781.00
1053.459, 13096.00
1054.564, 13192.00
1055.670, 13313.00
1056.775, 13100.00
1057.880, 12921.00
1058.985, 12691.00
1060.089, 12266.00
1061.194, 11940.00
1062.298, 11731.00
1063.402, 11494.00
1064.506, 11267.00
1065.610, 11115.96
1066.713, 10914.00
1067.817, 10843.00
1068.920, 10728.00
1070.023, 10634.00
1071.126, 10589.00
1072.229, 10485.00
1073.332, 10364.00
1074.435, 10362.00
1075.537, 10308.00
1076.639, 10244.00
1077.741, 10259.00
1078.843, 10199.00
1079.945, 9999.000
1081.046, 10204.00
1082.148, 10215.00
1083.249, 10295.00
1084.350, 10129.00
1085.451, 10170.00
1086.551, 10161.00
1087.652, 10051.00
1088.752, 10117.00
1089.853, 10101.00
1090.953, 10005.00
1092.053, 9979.000
1093.152, 10013.00
1094.252, 9948.000
1095.351, 9989.000
1096.451, 9904.000
1097.550, 9924.000
1098.649, 9917.000
1099.748, 9908.000
1100.846, 9992.000
1101.945, 9946.000
1103.043, 9977.000
1104.141, 9929.000
1105.239, 9746.000
1106.337, 9917.000
1107.434, 9774.000
1108.532, 9879.000
1109.629, 9803.000
1110.726, 9900.000
1111.823, 9881.000
1112.920, 9723.000
1114.017, 9742.000
1115.113, 9706.142
1116.210, 9730.000
1117.306, 9710.000
1118.402, 9810.000
1119.498, 9834.000
1120.593, 9803.000
1121.689, 9821.000
1122.784, 9764.000
1123.879, 9740.000
1124.974, 9777.000
1126.069, 9792.000
1127.164, 9813.000
1128.259, 9814.000
1129.353, 9614.000
1130.447, 9759.000
1131.541, 9746.000
1132.635, 9724.000
1133.729, 9826.000
1134.822, 9649.000
1135.916, 9736.000
1137.009, 9670.000
1138.102, 9636.000
1139.195, 9715.000
1140.288, 9696.000
1141.380, 9758.000
1142.473, 9677.000
1143.565, 9763.000
1144.657, 9695.000
1145.749, 9808.000
1146.841, 9743.000
1147.932, 9832.000
1149.024, 9795.000
1150.115, 9801.000
1151.206, 9770.000
1152.297, 9713.000
1153.388, 9782.000
1154.479, 9790.000
1155.569, 9810.000
1156.659, 9749.000
1157.750, 9790.000
1158.839, 9627.000
1159.929, 9756.000
1161.019, 9793.000
1162.108, 9694.000
1163.198, 9762.000
1164.287, 9832.000
1165.376, 9856.000
1166.465, 9803.000
1167.553, 9881.000
1168.642, 9857.000
1169.730, 9867.000
1170.818, 9942.000
1171.906, 9796.000
1172.994, 9865.000
1174.082, 9845.000
1175.170, 9779.000
1176.257, 9714.000
1177.344, 9821.000
1178.431, 9835.000
1179.518, 9822.000
1180.605, 9752.000
1181.691, 9887.000
1182.778, 9849.000
1183.864, 9861.000
1184.950, 9823.000
1186.036, 9837.000
1187.122, 9908.000
1188.207, 9842.000
1189.292, 9720.000
1190.378, 9693.000
1191.463, 9934.000
1192.548, 9819.000
1193.632, 9927.000
1194.717, 9897.000
1195.801, 9739.000
1196.886, 9894.000
1197.970, 9962.000
1199.054, 9764.000
1200.137, 9976.000
1201.221, 9775.000
1202.305, 9891.000
1203.388, 9872.000
1204.471, 9945.000
1205.554, 9954.000
1206.637, 9933.000
1207.719, 9925.000
1208.802, 10035.00
1209.884, 9953.000
1210.966, 9812.000
1212.048, 9951.000
1213.130, 9852.000
1214.212, 10100.00
1215.293, 10158.00
1216.374, 9947.000
1217.456, 9979.000
1218.536, 9974.000
1219.617, 9962.000
1220.698, 9982.709
1221.778, 9898.000
1222.859, 9981.000
1223.939, 9993.000
1225.019, 9950.000
1226.099, 9846.000
1227.178, 9988.000
1228.258, 9932.000
1229.337, 9963.000
1230.417, 9951.000
1231.496, 9978.000
1232.574, 9955.000
1233.653, 10016.00
1234.732, 10029.00
1235.810, 10117.00
1236.888, 10166.00
1237.966, 10106.00
1239.044, 9975.000
1240.122, 10022.00
1241.199, 10046.00
1242.277, 10110.00
1243.354, 10120.00
1244.431, 10017.00
1245.508, 10063.00
1246.585, 10023.00
1247.661, 10087.00
1248.738, 10160.00
1249.814, 10068.00
1250.890, 10077.00
1251.966, 10012.00
1253.042, 10005.57
1254.117, 10073.00
1255.193, 10025.00
1256.268, 10079.00
1257.343, 10144.00
1258.418, 10159.00
1259.493, 10146.00
1260.567, 10082.00
1261.642, 10116.00
1262.716, 10187.00
1263.790, 10150.00
1264.864, 10215.00
1265.938, 10004.00
1267.011, 10181.00
1268.085, 10113.00
1269.158, 10293.00
1270.231, 10135.00
1271.304, 10255.00
1272.377, 9997.000
1273.450, 10170.00
1274.522, 10117.00
1275.594, 10140.00
1276.666, 10159.00
1277.738, 10140.00
1278.810, 10225.00
1279.882, 10253.00
1280.953, 10203.00
1282.025, 10306.00
1283.096, 10219.00
1284.167, 10332.00
1285.238, 10264.00
1286.308, 10211.00
1287.379, 10276.00
1288.449, 10258.00
1289.519, 10190.00
1290.589, 10256.00
1291.659, 10245.00
1292.729, 10211.00
1293.798, 10148.00
1294.868, 10160.57
1295.937, 10165.21
1297.006, 10181.00
1298.075, 10197.00
1299.143, 10252.00
1300.212, 10203.00
1301.280, 10247.00
1302.348, 10221.00
1303.416, 10213.00
1304.484, 10303.00
1305.552, 10279.00
1306.620, 10399.00
1307.687, 10257.00
1308.754, 10192.00
1309.821, 10360.00
1310.888, 10441.00
1311.955, 10308.00
1313.021, 10251.00
1314.088, 10450.00
1315.154, 10410.00
1316.220, 10327.00
1317.286, 10322.00
1318.352, 10454.00
1319.417, 10330.00
1320.483, 10407.00
1321.548, 10549.00
1322.613, 10396.00
1323.678, 10434.00
1324.743, 10418.00
1325.807, 10285.00
1326.872, 10347.00
1327.936, 10366.00
1329.000, 10448.00
1330.064, 10451.00
1331.128, 10289.00
1332.191, 10362.00
1333.255, 10373.00
1334.318, 10432.00
1335.381, 10426.00
1336.444, 10334.00
1337.507, 10390.00
1338.569, 10353.00
1339.632, 10403.00
1340.694, 10452.00
1341.756, 10478.00
1342.818, 10428.00
1343.880, 10459.00
1344.941, 10503.00
1346.003, 10354.00
1347.064, 10431.00
1348.125, 10414.00
1349.186, 10406.00
1350.247, 10544.00
1351.308, 10437.00
1352.368, 10530.00
1353.428, 10472.00
1354.489, 10526.00
1355.549, 10596.00
1356.608, 10408.00
1357.668, 10550.00
1358.727, 10524.00
1359.787, 10406.00
1360.846, 10507.00
1361.905, 10483.00
1362.964, 10538.00
1364.022, 10472.00
1365.081, 10554.00
1366.139, 10356.00
1367.197, 10677.00
1368.255, 10424.00
1369.313, 10522.00
1370.371, 10475.00
1371.428, 10506.00
1372.486, 10633.00
1373.543, 10578.00
1374.600, 10506.00
1375.657, 10599.00
1376.713, 10566.00
1377.770, 10594.00
1378.826, 10588.00
1379.882, 10589.00
1380.938, 10638.00
1381.994, 10625.00
1383.050, 10553.00
1384.106, 10641.00
1385.161, 10565.00
1386.216, 10578.00
1387.271, 10640.00
1388.326, 10603.00
1389.381, 10559.00
1390.435, 10760.00
1391.490, 10685.00
1392.544, 10634.00
1393.598, 10516.00
1394.652, 10573.00
1395.705, 10537.00
1396.759, 10517.00
1397.812, 10623.00
1398.866, 10646.00
1399.919, 10655.71
1400.972, 10662.00
1402.024, 10658.00
1403.077, 10628.00
1404.129, 10593.00
1405.181, 10598.00
1406.233, 10620.59
1407.285, 10623.03
1408.337, 10711.00
1409.389, 10676.00
1410.440, 10724.00
1411.491, 10772.00
1412.542, 10651.00
1413.593, 10575.00
1414.644, 10756.00
1415.695, 10639.00
1416.745, 10773.00
1417.795, 10711.00
1418.845, 10618.00
1419.895, 10694.00
1420.945, 10661.00
1421.995, 10724.00
1423.044, 10794.00
1424.093, 10621.00
1425.142, 10906.00
1426.191, 10817.00
1427.240, 10676.00
1428.289, 10791.00
1429.337, 10840.00
1430.385, 10727.00
1431.433, 10830.00
1432.481, 10777.00
1433.529, 10802.00
1434.577, 10906.00
1435.624, 10982.00
1436.672, 10986.91
1437.719, 10883.00
1438.766, 10983.00
1439.812, 10909.00
1440.859, 10856.00
1441.905, 10874.00
1442.952, 10898.00
1443.998, 11034.00
1445.044, 10984.00
1446.090, 11028.00
1447.135, 11065.00
1448.181, 11056.00
1449.226, 11153.00
1450.271, 11087.57
1451.316, 10943.00
1452.361, 11039.00
1453.405, 10988.00
1454.450, 11068.00
1455.494, 11059.00
1456.538, 10992.00
1457.582, 11121.00
1458.626, 11117.00
1459.670, 11113.00
1460.713, 11096.00
1461.757, 11001.00
1462.800, 11057.00
1463.843, 11113.00
1464.886, 10955.00
1465.928, 10975.00
1466.971, 11088.00
1468.013, 10920.00
1469.055, 11046.00
1470.097, 11008.00
1471.139, 10960.00
1472.181, 10902.00
1473.222, 11054.00
1474.263, 10908.00
1475.305, 11095.00
1476.346, 11048.00
1477.386, 10970.00
1478.427, 10995.00
1479.468, 10984.00
1480.508, 10975.00
1481.548, 11121.00
1482.588, 10945.00
1483.628, 11091.00
1484.668, 11085.00
1485.707, 10971.00
1486.747, 10974.00
1487.786, 11073.00
1488.825, 11004.00
1489.864, 10952.00
1490.902, 10978.00
1491.941, 10942.00
1492.979, 10994.00
1494.017, 10936.00
1495.055, 11029.00
1496.093, 11049.00
1497.131, 11035.00
1498.168, 11016.00
1499.206, 10988.00
1500.243, 11019.09
1501.280, 11064.00
1502.317, 11035.00
1503.354, 11114.00
1504.390, 11021.00
1505.426, 11032.00
1506.463, 10976.00
1507.499, 11132.00
1508.535, 10961.00
1509.570, 11116.00
1510.606, 10978.00
1511.641, 11110.00
1512.676, 10953.00
1513.711, 11109.00
1514.746, 11238.00
1515.781, 11127.00
1516.816, 11231.00
1517.850, 11068.00
1518.884, 11136.00
1519.918, 11140.00
1520.952, 11106.00
1521.986, 11125.00
1523.019, 11128.00
1524.053, 11114.00
1525.086, 11110.14
1526.119, 11169.00
1527.152, 11155.61
1528.185, 11208.00
1529.217, 11185.00
1530.250, 11194.00
1531.282, 11220.00
1532.314, 11192.00
1533.346, 11213.00
1534.377, 11122.00
1535.409, 11236.00
1536.440, 11365.00
1537.472, 11189.00
1538.503, 11282.00
1539.534, 11131.00
1540.564, 11207.00
1541.595, 11207.00
1542.625, 11334.00
1543.656, 11349.00
1544.686, 11277.00
1545.716, 11297.00
1546.745, 11264.00
1547.775, 11280.00
1548.804, 11239.00
1549.834, 11276.00
1550.863, 11303.00
1551.892, 11467.00
1552.920, 11430.00
1553.949, 11483.00
1554.977, 11381.00
1556.006, 11357.00
1557.034, 11314.00
1558.062, 11214.00
1559.089, 11273.00
1560.117, 11203.00
1561.144, 11331.00
1562.172, 11389.00
1563.199, 11262.00
1564.226, 11309.00
1565.252, 11280.00
1566.279, 11430.00
1567.305, 11460.00
1568.332, 11407.00
1569.358, 11291.00
1570.384, 11396.00
1571.409, 11350.00
1572.435, 11398.00
##END=



