##NAMES=Edingtonite
##RRUFFID=R040110
##IDEAL CHEMISTRY=Ba(Si_3_Al_2_)O_10_&#183;4H_2_O
##LOCALITY=2350 level, Brunswick 12 mine, Bathhurst, New Brunswick, Canada
##OWNER=RRUFF
##SOURCE=National Museums of Canada
##DESCRIPTION=Colorless rectangular prism
##STATUS=The identification of this mineral has been confirmed by X-ray diffraction and chemical analysis
##URL=rruff.info/R040110
##MEASURED CHEMISTRY=Ba_1.00_(Si_3.00_Al_2.00_)O_10_Â·4H_2_O
##PIN_ID=M00273
##ORIENTATION=Laser parallel to -a* (-1 0 0). Fiducial mark perpendicular to laser is parallel to b [0 1 0]
53.91000, 491.0000
55.14900, 508.0000
56.38700, 523.0000
57.62600, 563.0000
58.86400, 631.0000
60.10300, 727.0000
61.34100, 882.0000
62.57900, 1062.000
63.81700, 1290.000
65.05400, 1483.000
66.29200, 1592.000
67.52900, 1713.000
68.76700, 1757.000
70.00400, 1878.000
71.24100, 1973.000
72.47700, 2131.809
73.71400, 2257.000
74.95100, 2543.000
76.18700, 2773.000
77.42300, 3094.000
78.65900, 3479.000
79.89500, 3938.000
81.13100, 4411.000
82.36700, 4900.000
83.60200, 5224.000
84.83700, 5808.000
86.07200, 6403.000
87.30800, 6776.000
88.54200, 7409.000
89.77700, 7887.000
91.01200, 8368.945
92.24600, 8924.742
93.48000, 9363.000
94.71400, 9903.000
95.94800, 10425.00
97.18200, 10802.00
98.41600, 11228.00
99.64900, 11449.00
100.8830, 11711.00
102.1160, 11733.00
103.3490, 11750.00
104.5820, 11418.00
105.8150, 11563.00
107.0470, 11677.00
108.2800, 11980.00
109.5120, 11896.00
110.7440, 12107.00
111.9760, 12396.00
113.2080, 12827.00
114.4400, 13208.00
115.6710, 13642.00
116.9030, 13930.00
118.1340, 14044.00
119.3650, 14234.00
120.5960, 14384.00
121.8270, 14198.00
123.0580, 14427.00
124.2880, 14113.00
125.5190, 13879.00
126.7490, 13634.00
127.9790, 13536.00
129.2090, 13306.00
130.4390, 13027.00
131.6680, 12800.00
132.8980, 12501.00
134.1270, 12516.00
135.3560, 12313.00
136.5850, 11989.00
137.8140, 12078.00
139.0430, 12278.00
140.2710, 12600.00
141.5000, 12805.00
142.7280, 13089.00
143.9560, 13614.00
145.1840, 14128.00
146.4120, 14837.00
147.6390, 15408.00
148.8670, 16037.00
150.0940, 16565.00
151.3210, 17427.00
152.5490, 17607.00
153.7750, 17780.00
155.0020, 17395.00
156.2290, 16960.00
157.4550, 16192.00
158.6810, 15222.00
159.9080, 14425.00
161.1340, 13532.00
162.3590, 12660.00
163.5850, 12012.00
164.8110, 11227.00
166.0360, 10683.00
167.2610, 10122.00
168.4860, 9790.000
169.7110, 9406.000
170.9360, 9111.000
172.1610, 8785.000
173.3850, 8525.000
174.6100, 8311.000
175.8340, 8046.000
177.0580, 7983.000
178.2820, 7756.000
179.5050, 7655.000
180.7290, 7547.000
181.9520, 7446.000
183.1760, 7359.729
184.3990, 7277.758
185.6220, 7204.000
186.8450, 7143.000
188.0670, 7090.122
189.2900, 7043.160
190.5120, 6993.000
191.7340, 6967.000
192.9560, 6915.000
194.1780, 6898.000
195.4000, 6813.000
196.6220, 6811.000
197.8430, 6685.000
199.0640, 6730.000
200.2860, 6857.000
201.5070, 6722.000
202.7270, 6821.000
203.9480, 6794.000
205.1690, 6534.000
206.3890, 6502.000
207.6090, 6469.000
208.8290, 6505.000
210.0490, 6425.000
211.2690, 6326.000
212.4890, 6491.000
213.7080, 6353.000
214.9280, 6360.000
216.1470, 6377.000
217.3660, 6294.000
218.5850, 6332.000
219.8030, 6249.000
221.0220, 6324.000
222.2400, 6360.000
223.4590, 6450.000
224.6770, 6378.000
225.8950, 6648.000
227.1120, 6605.000
228.3300, 6813.000
229.5480, 7079.000
230.7650, 7284.000
231.9820, 7463.000
233.1990, 7745.000
234.4160, 7903.000
235.6330, 7952.000
236.8490, 7865.000
238.0660, 7835.000
239.2820, 7614.000
240.4980, 7379.000
241.7140, 7240.000
242.9300, 6955.000
244.1460, 6832.000
245.3610, 6858.000
246.5770, 6718.000
247.7920, 6760.000
249.0070, 6791.000
250.2220, 6637.000
251.4370, 6693.000
252.6510, 6626.000
253.8660, 6620.000
255.0800, 6715.000
256.2940, 6847.000
257.5080, 6752.000
258.7220, 6977.000
259.9360, 6927.000
261.1490, 6749.000
262.3630, 6675.000
263.5760, 6754.000
264.7890, 6818.000
266.0020, 6777.000
267.2150, 6820.936
268.4270, 6730.000
269.6400, 6801.000
270.8520, 6741.000
272.0640, 6694.000
273.2760, 6747.000
274.4880, 6791.000
275.7000, 6745.000
276.9120, 6734.000
278.1230, 6746.000
279.3340, 6698.000
280.5450, 6763.000
281.7560, 6650.000
282.9670, 6673.000
284.1780, 6796.000
285.3880, 6779.000
286.5980, 6832.000
287.8090, 6833.000
289.0190, 6865.000
290.2290, 6797.000
291.4380, 6774.000
292.6480, 6780.000
293.8570, 6899.000
295.0670, 6963.000
296.2760, 6980.000
297.4850, 7095.000
298.6930, 7085.000
299.9020, 7134.000
301.1110, 7088.000
302.3190, 7270.000
303.5270, 7222.000
304.7350, 7290.000
305.9430, 7407.000
307.1510, 7489.000
308.3580, 7473.000
309.5660, 7540.000
310.7730, 7446.000
311.9800, 7444.000
313.1870, 7470.000
314.3940, 7647.000
315.6010, 7456.000
316.8070, 7521.000
318.0130, 7409.000
319.2200, 7400.000
320.4260, 7429.000
321.6310, 7315.000
322.8370, 7222.000
324.0430, 7165.000
325.2480, 7149.000
326.4540, 7211.000
327.6590, 7287.000
328.8640, 7203.000
330.0680, 7193.000
331.2730, 7151.000
332.4780, 7232.000
333.6820, 7307.000
334.8860, 7236.000
336.0900, 7234.000
337.2940, 7348.000
338.4980, 7338.000
339.7010, 7408.000
340.9050, 7522.000
342.1080, 7593.000
343.3110, 7733.603
344.5140, 7883.000
345.7170, 8043.000
346.9200, 8198.000
348.1220, 8405.000
349.3240, 8684.000
350.5270, 8894.000
351.7290, 9092.000
352.9310, 9484.000
354.1320, 9905.000
355.3340, 10052.00
356.5350, 10390.00
357.7370, 10662.00
358.9380, 10810.00
360.1390, 10668.00
361.3400, 10714.00
362.5400, 10476.00
363.7410, 10101.00
364.9410, 9805.000
366.1410, 9508.000
367.3410, 9193.000
368.5410, 8894.000
369.7410, 8632.000
370.9400, 8390.241
372.1400, 8202.000
373.3390, 7986.000
374.5380, 7864.000
375.7370, 7727.000
376.9360, 7590.000
378.1350, 7523.000
379.3330, 7485.000
380.5310, 7399.000
381.7300, 7401.000
382.9280, 7427.000
384.1260, 7355.000
385.3230, 7328.000
386.5210, 7297.000
387.7180, 7283.000
388.9160, 7332.000
390.1130, 7393.000
391.3100, 7432.000
392.5060, 7418.000
393.7030, 7438.000
394.9000, 7434.000
396.0960, 7435.000
397.2920, 7550.000
398.4880, 7642.000
399.6840, 7788.000
400.8800, 7655.000
402.0750, 7699.000
403.2710, 7716.000
404.4660, 7842.000
405.6610, 7916.000
406.8560, 7919.000
408.0510, 8064.000
409.2450, 7973.000
410.4400, 8074.000
411.6340, 8158.000
412.8280, 8180.000
414.0220, 8247.000
415.2160, 8354.000
416.4100, 8595.000
417.6030, 8611.000
418.7970, 8871.000
419.9900, 9003.000
421.1830, 9108.000
422.3760, 9329.000
423.5690, 9500.000
424.7610, 9630.000
425.9540, 9770.000
427.1460, 9906.000
428.3380, 10090.00
429.5300, 10070.00
430.7220, 10030.00
431.9140, 10118.00
433.1050, 9942.000
434.2970, 9838.000
435.4880, 9602.000
436.6790, 9368.000
437.8700, 9139.000
439.0610, 8872.000
440.2510, 8632.000
441.4420, 8479.000
442.6320, 8223.000
443.8220, 7934.000
445.0120, 7927.000
446.2020, 7722.000
447.3910, 7692.000
448.5810, 7491.000
449.7700, 7463.000
450.9600, 7329.000
452.1490, 7205.000
453.3370, 7276.000
454.5260, 7215.000
455.7150, 7160.000
456.9030, 7146.000
458.0910, 7096.000
459.2800, 7081.000
460.4670, 7092.000
461.6550, 7031.000
462.8430, 7054.000
464.0300, 7053.000
465.2180, 7105.000
466.4050, 7054.000
467.5920, 7125.000
468.7790, 7058.000
469.9650, 7151.000
471.1520, 7042.000
472.3380, 7151.000
473.5250, 7182.000
474.7110, 7194.000
475.8970, 7204.000
477.0820, 7296.000
478.2680, 7205.000
479.4540, 7357.000
480.6390, 7326.000
481.8240, 7425.000
483.0090, 7433.000
484.1940, 7420.000
485.3780, 7491.000
486.5630, 7533.000
487.7470, 7643.000
488.9320, 7703.000
490.1160, 7824.000
491.3000, 8031.000
492.4830, 7941.000
493.6670, 8180.000
494.8500, 8139.000
496.0340, 8368.000
497.2170, 8439.000
498.4000, 8569.000
499.5820, 8687.000
500.7650, 8882.000
501.9480, 9192.000
503.1300, 9423.000
504.3120, 9608.000
505.4940, 10148.00
506.6760, 10400.00
507.8580, 10976.00
509.0390, 11613.00
510.2210, 12400.00
511.4020, 13322.00
512.5830, 14531.00
513.7640, 15914.00
514.9450, 18103.00
516.1250, 20394.00
517.3060, 23375.00
518.4860, 27412.00
519.6660, 31978.00
520.8460, 37019.00
522.0260, 42769.00
523.2060, 48480.00
524.3850, 54688.00
525.5650, 59494.00
526.7440, 62868.00
527.9230, 63688.00
529.1020, 62224.00
530.2810, 58208.00
531.4590, 51838.00
532.6380, 45007.00
533.8160, 38590.00
534.9940, 32812.00
536.1720, 27900.00
537.3500, 24039.00
538.5270, 21147.00
539.7050, 18816.00
540.8820, 16858.00
542.0590, 15483.00
543.2360, 14317.00
544.4130, 13191.00
545.5900, 12486.00
546.7660, 11740.00
547.9430, 11481.00
549.1190, 10860.00
550.2950, 10544.00
551.4710, 10539.00
552.6470, 10079.00
553.8220, 9637.000
554.9980, 9360.000
556.1730, 9136.000
557.3480, 8965.000
558.5230, 8812.000
559.6980, 8665.257
560.8730, 8563.838
562.0470, 8480.000
563.2220, 8387.000
564.3960, 8411.000
565.5700, 8324.000
566.7440, 8254.000
567.9170, 8231.000
569.0910, 8081.000
570.2640, 8008.000
571.4380, 7982.000
572.6110, 7963.000
573.7840, 7827.000
574.9570, 7854.000
576.1290, 7867.000
577.3020, 7747.000
578.4740, 7709.000
579.6460, 7747.000
580.8180, 7644.000
581.9900, 7654.000
583.1620, 7699.000
584.3330, 7584.000
585.5040, 7603.000
586.6760, 7631.000
587.8470, 7556.000
589.0180, 7680.000
590.1880, 7513.000
591.3590, 7518.000
592.5290, 7419.000
593.7000, 7501.000
594.8700, 7456.000
596.0400, 7578.000
597.2090, 7474.000
598.3790, 7393.000
599.5490, 7422.000
600.7180, 7398.738
601.8870, 7553.000
603.0560, 7486.000
604.2250, 7582.000
605.3940, 7679.000
606.5620, 7649.000
607.7300, 7567.000
608.8990, 7672.000
610.0670, 7619.000
611.2350, 7686.000
612.4020, 7616.000
613.5700, 7697.000
614.7370, 7650.000
615.9050, 7685.000
617.0720, 7694.000
618.2390, 7573.000
619.4060, 7681.000
620.5720, 7581.000
621.7390, 7603.000
622.9050, 7674.000
624.0710, 7790.000
625.2370, 7670.000
626.4030, 7822.000
627.5690, 7808.000
628.7340, 7765.000
629.9000, 7871.000
631.0650, 7845.000
632.2300, 7815.000
633.3950, 8009.000
634.5600, 7889.000
635.7240, 7937.000
636.8890, 8066.000
638.0530, 8094.000
639.2170, 8223.000
640.3810, 8242.000
641.5450, 8358.000
642.7080, 8408.000
643.8720, 8514.000
645.0350, 8708.379
646.1980, 9002.000
647.3610, 9163.000
648.5240, 9451.000
649.6870, 9753.000
650.8490, 9869.000
652.0120, 10288.00
653.1740, 10414.00
654.3360, 10481.00
655.4980, 10558.00
656.6600, 10544.00
657.8210, 10455.19
658.9830, 10388.00
660.1440, 10156.00
661.3050, 9970.000
662.4660, 9776.000
663.6270, 9474.000
664.7870, 9242.000
665.9480, 9040.000
667.1080, 8940.000
668.2680, 8761.000
669.4280, 8617.000
670.5880, 8658.000
671.7480, 8554.000
672.9070, 8538.000
674.0670, 8363.000
675.2260, 8506.000
676.3850, 8357.000
677.5440, 8335.000
678.7030, 8109.000
679.8610, 8317.000
681.0200, 8243.000
682.1780, 8170.000
683.3360, 8249.000
684.4940, 8317.000
685.6520, 8404.000
686.8090, 8301.000
687.9670, 8328.000
689.1240, 8315.000
690.2810, 8362.000
691.4380, 8426.957
692.5950, 8465.867
693.7520, 8600.000
694.9080, 8629.000
696.0650, 8723.000
697.2210, 8880.000
698.3770, 8916.538
699.5330, 9009.426
700.6880, 9015.000
701.8440, 9183.000
702.9990, 9133.000
704.1550, 9320.000
705.3100, 9314.000
706.4650, 9393.000
707.6190, 9533.000
708.7740, 9546.000
709.9290, 9774.000
711.0830, 9700.000
712.2370, 9632.000
713.3910, 9780.000
714.5450, 9856.000
715.6980, 9829.000
716.8520, 9630.000
718.0050, 9409.000
719.1580, 9336.000
720.3110, 9147.000
721.4640, 8896.000
722.6170, 8638.000
723.7700, 8595.000
724.9220, 8381.000
726.0740, 8313.000
727.2260, 8185.000
728.3780, 8104.000
729.5300, 7967.000
730.6810, 7903.000
731.8330, 7832.000
732.9840, 7775.473
734.1350, 7746.000
735.2860, 7750.000
736.4370, 7697.000
737.5880, 7773.000
738.7380, 7731.000
739.8880, 7779.000
741.0390, 7774.000
742.1890, 7682.000
743.3380, 7693.000
744.4880, 7668.000
745.6380, 7598.000
746.7870, 7604.000
747.9360, 7649.000
749.0850, 7619.000
750.2340, 7641.000
751.3830, 7664.000
752.5310, 7602.000
753.6800, 7627.000
754.8280, 7555.000
755.9760, 7477.000
757.1240, 7578.000
758.2720, 7687.000
759.4190, 7669.000
760.5670, 7539.000
761.7140, 7408.000
762.8610, 7526.000
764.0080, 7524.000
765.1550, 7589.000
766.3020, 7541.000
767.4480, 7538.000
768.5950, 7591.000
769.7410, 7563.000
770.8870, 7465.000
772.0330, 7483.000
773.1780, 7510.000
774.3240, 7456.000
775.4690, 7562.000
776.6140, 7593.000
777.7590, 7690.000
778.9040, 7524.000
780.0490, 7594.000
781.1940, 7557.000
782.3380, 7552.000
783.4820, 7480.000
784.6260, 7586.000
785.7700, 7649.000
786.9140, 7639.000
788.0580, 7729.000
789.2010, 7609.000
790.3450, 7509.000
791.4880, 7580.000
792.6310, 7623.000
793.7730, 7624.000
794.9160, 7696.000
796.0590, 7636.000
797.2010, 7719.000
798.3430, 7751.000
799.4850, 7706.000
800.6270, 7716.000
801.7690, 7712.000
802.9100, 7764.000
804.0520, 7677.000
805.1930, 7675.000
806.3340, 7778.000
807.4750, 7712.000
808.6160, 7878.000
809.7560, 7728.000
810.8970, 7808.000
812.0370, 7855.000
813.1770, 7721.000
814.3170, 7770.000
815.4570, 7654.000
816.5960, 7768.000
817.7360, 7875.000
818.8750, 7801.000
820.0140, 7731.000
821.1530, 7740.000
822.2920, 7835.000
823.4310, 7845.000
824.5690, 7744.000
825.7070, 7827.000
826.8460, 7692.000
827.9840, 7764.000
829.1220, 7743.000
830.2590, 7806.000
831.3970, 7830.000
832.5340, 7912.000
833.6710, 7935.000
834.8080, 7938.598
835.9450, 7850.000
837.0820, 7920.000
838.2190, 7856.000
839.3550, 7840.000
840.4910, 7911.000
841.6270, 7837.000
842.7630, 7843.000
843.8990, 7939.000
845.0350, 7907.000
846.1700, 7922.733
847.3060, 7889.851
848.4410, 7928.000
849.5760, 7793.000
850.7100, 7847.000
851.8450, 7849.000
852.9800, 7980.000
854.1140, 7891.000
855.2480, 7925.000
856.3820, 7876.000
857.5160, 7996.000
858.6500, 7886.000
859.7830, 7926.000
860.9170, 7913.000
862.0500, 8006.000
863.1830, 7985.000
864.3160, 7919.000
865.4480, 7973.000
866.5810, 7862.000
867.7130, 7948.000
868.8460, 7895.000
869.9780, 7921.000
871.1100, 8044.000
872.2410, 7875.000
873.3730, 7990.000
874.5050, 7902.000
875.6360, 7967.000
876.7670, 7984.000
877.8980, 7939.000
879.0290, 7854.000
880.1590, 7909.000
881.2900, 7951.000
882.4200, 7993.000
883.5500, 8007.000
884.6800, 7933.000
885.8100, 7861.000
886.9400, 7902.226
888.0690, 7998.000
889.1990, 7936.000
890.3280, 8015.000
891.4570, 7992.000
892.5860, 8004.000
893.7140, 8067.000
894.8430, 7898.000
895.9710, 8033.000
897.1000, 7905.000
898.2280, 7961.000
899.3560, 8018.000
900.4830, 7969.000
901.6110, 7930.000
902.7380, 8050.000
903.8660, 7909.000
904.9930, 7911.000
906.1200, 7920.000
907.2460, 7927.000
908.3730, 8030.000
909.5000, 8076.000
910.6260, 8106.607
911.7520, 8147.000
912.8780, 8127.000
914.0040, 8061.000
915.1290, 7968.000
916.2550, 7921.000
917.3800, 7963.000
918.5050, 8064.000
919.6300, 8097.000
920.7550, 8034.000
921.8800, 8086.000
923.0040, 8118.000
924.1290, 8065.000
925.2530, 8134.000
926.3770, 8015.000
927.5010, 8034.000
928.6250, 8031.000
929.7480, 8082.000
930.8720, 8058.000
931.9950, 8120.000
933.1180, 8130.000
934.2410, 8100.000
935.3640, 8071.000
936.4860, 8088.000
937.6090, 8143.000
938.7310, 8212.000
939.8530, 8163.000
940.9750, 8303.000
942.0970, 8319.000
943.2180, 8180.000
944.3400, 8460.000
945.4610, 8453.000
946.5820, 8504.000
947.7030, 8629.000
948.8240, 8643.000
949.9450, 8689.000
951.0650, 8732.000
952.1860, 8813.000
953.3060, 8944.000
954.4260, 8896.000
955.5460, 9022.000
956.6650, 8889.000
957.7850, 8815.000
958.9040, 8910.000
960.0230, 8710.000
961.1420, 8699.000
962.2610, 8609.000
963.3800, 8626.000
964.4990, 8763.000
965.6170, 8631.000
966.7350, 8647.000
967.8530, 8655.000
968.9710, 8582.000
970.0890, 8565.000
971.2070, 8652.000
972.3240, 8578.000
973.4410, 8749.000
974.5580, 8748.000
975.6750, 8830.000
976.7920, 8740.000
977.9090, 8677.000
979.0250, 8843.000
980.1410, 8884.000
981.2580, 8991.000
982.3740, 9094.000
983.4890, 9096.000
984.6050, 9250.000
985.7200, 9107.000
986.8360, 9299.000
987.9510, 9298.000
989.0660, 9563.000
990.1810, 9451.000
991.2950, 9715.000
992.4100, 9702.000
993.5240, 9715.000
994.6390, 9518.000
995.7530, 9562.000
996.8660, 9580.000
997.9800, 9523.000
999.0940, 9298.000
1000.207, 9211.000
1001.320, 9179.000
1002.433, 9058.000
1003.546, 8938.000
1004.659, 8975.000
1005.772, 8685.000
1006.884, 8794.000
1007.996, 8728.000
1009.108, 8743.000
1010.220, 8679.000
1011.332, 8743.000
1012.444, 8647.000
1013.555, 8632.000
1014.666, 8668.000
1015.777, 8740.000
1016.888, 8605.000
1017.999, 8659.000
1019.110, 8626.000
1020.220, 8678.000
1021.331, 8629.000
1022.441, 8629.152
1023.551, 8838.000
1024.661, 8636.000
1025.770, 8748.000
1026.880, 8843.000
1027.989, 8757.000
1029.098, 8758.000
1030.207, 8849.000
1031.316, 8875.000
1032.425, 8829.000
1033.533, 8977.000
1034.642, 9157.000
1035.750, 9045.000
1036.858, 9143.000
1037.966, 9356.000
1039.073, 9478.000
1040.181, 9502.000
1041.288, 9682.000
1042.396, 9856.000
1043.503, 10179.00
1044.610, 10322.00
1045.716, 10579.00
1046.823, 11091.00
1047.929, 11454.00
1049.036, 11890.00
1050.142, 12278.00
1051.248, 12779.00
1052.353, 12934.00
1053.459, 13114.00
1054.564, 13085.00
1055.670, 12711.00
1056.775, 12546.00
1057.880, 12119.00
1058.985, 11749.00
1060.089, 11309.00
1061.194, 11107.00
1062.298, 10806.00
1063.402, 10620.00
1064.506, 10293.00
1065.610, 10207.00
1066.713, 10004.00
1067.817, 9839.000
1068.920, 9803.000
1070.023, 9659.000
1071.126, 9503.000
1072.229, 9562.000
1073.332, 9525.000
1074.435, 9343.000
1075.537, 9375.000
1076.639, 9284.000
1077.741, 9318.000
1078.843, 9240.000
1079.945, 9100.000
1081.046, 9252.000
1082.148, 9183.000
1083.249, 9182.000
1084.350, 9031.000
1085.451, 9124.000
1086.551, 8995.000
1087.652, 9033.000
1088.752, 8977.000
1089.853, 9041.000
1090.953, 8945.000
1092.053, 8959.000
1093.152, 9024.000
1094.252, 8923.000
1095.351, 9001.000
1096.451, 8955.000
1097.550, 8906.000
1098.649, 8934.000
1099.748, 8934.000
1100.846, 9011.000
1101.945, 8875.000
1103.043, 8921.000
1104.141, 8966.000
1105.239, 8850.000
1106.337, 8847.000
1107.434, 8932.000
1108.532, 8845.000
1109.629, 8809.000
1110.726, 8718.000
1111.823, 8843.000
1112.920, 8858.000
1114.017, 8957.000
1115.113, 8966.286
1116.210, 8761.000
1117.306, 8973.000
1118.402, 8941.000
1119.498, 8943.000
1120.593, 8674.000
1121.689, 8838.000
1122.784, 8813.000
1123.879, 8866.000
1124.974, 8917.000
1126.069, 8859.000
1127.164, 8886.000
1128.259, 8942.000
1129.353, 8848.000
1130.447, 8759.000
1131.541, 8896.000
1132.635, 8924.000
1133.729, 8894.000
1134.822, 8938.000
1135.916, 8883.000
1137.009, 8853.000
1138.102, 8816.000
1139.195, 8793.000
1140.288, 8880.000
1141.380, 8876.000
1142.473, 8881.000
1143.565, 8889.000
1144.657, 8890.253
1145.749, 8900.865
1146.841, 8894.000
1147.932, 8947.000
1149.024, 8940.000
1150.115, 9020.000
1151.206, 8909.000
1152.297, 8805.000
1153.388, 8939.000
1154.479, 8937.000
1155.569, 8936.000
1156.659, 8916.000
1157.750, 8920.000
1158.839, 8839.000
1159.929, 8969.000
1161.019, 9003.000
1162.108, 8773.000
1163.198, 8921.000
1164.287, 8891.000
1165.376, 8940.000
1166.465, 8950.000
1167.553, 8868.000
1168.642, 8952.000
1169.730, 8916.000
1170.818, 8896.000
1171.906, 8994.000
1172.994, 8959.000
1174.082, 8851.000
1175.170, 8995.000
1176.257, 8883.000
1177.344, 8982.000
1178.431, 8882.000
1179.518, 8932.000
1180.605, 9012.000
1181.691, 8873.000
1182.778, 8974.000
1183.864, 8972.000
1184.950, 8909.000
1186.036, 8933.000
1187.122, 8989.000
1188.207, 8991.000
1189.292, 9000.000
1190.378, 8980.000
1191.463, 9001.000
1192.548, 9029.000
1193.632, 8978.000
1194.717, 9052.000
1195.801, 8924.000
1196.886, 8941.000
1197.970, 9057.000
1199.054, 8994.000
1200.137, 8943.000
1201.221, 9091.000
1202.305, 9032.000
1203.388, 9070.000
1204.471, 9096.000
1205.554, 8940.000
1206.637, 9095.000
1207.719, 8990.000
1208.802, 9074.000
1209.884, 9136.000
1210.966, 9062.000
1212.048, 9103.000
1213.130, 9000.000
1214.212, 9076.000
1215.293, 9023.000
1216.374, 9138.000
1217.456, 9126.000
1218.536, 9064.000
1219.617, 9170.000
1220.698, 9064.000
1221.778, 8976.000
1222.859, 9162.000
1223.939, 9071.000
1225.019, 9132.000
1226.099, 9088.000
1227.178, 9164.000
1228.258, 9123.000
1229.337, 9080.000
1230.417, 9083.000
1231.496, 9092.000
1232.574, 9084.000
1233.653, 8986.000
1234.732, 9099.000
1235.810, 9239.000
1236.888, 9128.000
1237.966, 9014.000
1239.044, 9150.000
1240.122, 9170.000
1241.199, 9140.000
1242.277, 9165.000
1243.354, 9108.000
1244.431, 9146.000
1245.508, 9209.000
1246.585, 9269.000
1247.661, 9134.000
1248.738, 9283.000
1249.814, 9250.000
1250.890, 9178.000
1251.966, 9228.000
1253.042, 9154.000
1254.117, 9145.000
1255.193, 9242.000
1256.268, 9115.000
1257.343, 9160.000
1258.418, 9096.000
1259.493, 9191.000
1260.567, 9137.000
1261.642, 9142.000
1262.716, 9286.000
1263.790, 9098.000
1264.864, 9207.000
1265.938, 9294.000
1267.011, 9210.000
1268.085, 9204.000
1269.158, 9111.000
1270.231, 9255.000
1271.304, 9308.000
1272.377, 9241.000
1273.450, 9266.000
1274.522, 9173.000
1275.594, 9100.000
1276.666, 9273.000
1277.738, 9279.000
1278.810, 9236.000
1279.882, 9154.000
1280.953, 9144.000
1282.025, 9161.000
1283.096, 9094.000
1284.167, 9346.000
1285.238, 9229.000
1286.308, 9284.000
1287.379, 9289.000
1288.449, 9133.000
1289.519, 9199.000
1290.589, 9315.000
1291.659, 9267.000
1292.729, 9305.000
1293.798, 9270.000
1294.868, 9303.000
1295.937, 9299.000
1297.006, 9266.000
1298.075, 9205.000
1299.143, 9239.000
1300.212, 9200.559
1301.280, 9330.000
1302.348, 9237.000
1303.416, 9274.000
1304.484, 9416.000
1305.552, 9301.000
1306.620, 9295.000
1307.687, 9229.000
1308.754, 9224.712
1309.821, 9260.143
1310.888, 9279.000
1311.955, 9333.000
1313.021, 9437.000
1314.088, 9415.000
1315.154, 9335.000
1316.220, 9342.000
1317.286, 9425.000
1318.352, 9310.000
1319.417, 9363.000
1320.483, 9388.000
1321.548, 9344.000
1322.613, 9381.721
1323.678, 9355.000
1324.743, 9366.000
1325.807, 9402.000
1326.872, 9344.000
1327.936, 9416.000
1329.000, 9473.000
1330.064, 9391.000
1331.128, 9417.000
1332.191, 9388.000
1333.255, 9398.834
1334.318, 9397.642
1335.381, 9434.000
1336.444, 9415.000
1337.507, 9399.000
1338.569, 9449.000
1339.632, 9507.000
1340.694, 9359.000
1341.756, 9399.000
1342.818, 9524.000
1343.880, 9654.000
1344.941, 9443.000
1346.003, 9438.000
1347.064, 9540.000
1348.125, 9448.000
1349.186, 9546.000
1350.247, 9484.000
1351.308, 9498.000
1352.368, 9632.000
1353.428, 9540.000
1354.489, 9430.000
1355.549, 9593.000
1356.608, 9458.000
1357.668, 9571.000
1358.727, 9571.000
1359.787, 9477.000
1360.846, 9472.000
1361.905, 9444.000
1362.964, 9512.000
1364.022, 9559.000
1365.081, 9625.000
1366.139, 9532.000
1367.197, 9640.000
1368.255, 9580.000
1369.313, 9607.000
1370.371, 9530.000
1371.428, 9593.000
1372.486, 9646.000
1373.543, 9601.000
1374.600, 9667.000
1375.657, 9645.000
1376.713, 9639.000
1377.770, 9693.000
1378.826, 9599.000
1379.882, 9636.000
1380.938, 9627.000
1381.994, 9741.000
1383.050, 9606.000
1384.106, 9655.000
1385.161, 9673.000
1386.216, 9630.000
1387.271, 9610.000
1388.326, 9642.000
1389.381, 9663.000
1390.435, 9700.000
1391.490, 9676.000
1392.544, 9586.000
1393.598, 9618.000
1394.652, 9694.000
1395.705, 9597.000
1396.759, 9693.000
1397.812, 9679.000
1398.866, 9723.000
1399.919, 9669.000
1400.972, 9705.000
1402.024, 9550.000
1403.077, 9584.000
1404.129, 9623.000
1405.181, 9741.000
1406.233, 9605.000
1407.285, 9634.000
1408.337, 9777.000
1409.389, 9690.000
1410.440, 9671.000
1411.491, 9713.000
1412.542, 9700.000
1413.593, 9793.000
1414.644, 9760.000
1415.695, 9702.000
1416.745, 9624.000
1417.795, 9847.000
1418.845, 9769.000
1419.895, 9832.000
1420.945, 9857.432
1421.995, 9697.000
1423.044, 9852.000
1424.093, 9737.000
1425.142, 9755.000
1426.191, 9778.000
1427.240, 9855.000
1428.289, 9765.000
1429.337, 9890.000
1430.385, 9718.000
1431.433, 9804.000
1432.481, 9649.000
1433.529, 9744.000
1434.577, 9800.000
1435.624, 9786.000
1436.672, 9849.000
1437.719, 9805.000
1438.766, 9787.000
1439.812, 9785.000
1440.859, 9780.464
1441.905, 9821.000
1442.952, 9833.000
1443.998, 9840.000
1445.044, 9928.000
1446.090, 9876.000
1447.135, 9881.000
1448.181, 9818.000
1449.226, 9886.000
1450.271, 9912.000
1451.316, 9898.000
1452.361, 9809.000
1453.405, 10020.00
1454.450, 9919.000
1455.494, 9990.000
1456.538, 9993.000
1457.582, 9858.000
1458.626, 9884.000
1459.670, 9946.000
1460.713, 9837.000
1461.757, 9906.000
1462.800, 9871.000
1463.843, 9845.699
1464.886, 9903.000
1465.928, 9866.000
1466.971, 9781.000
1468.013, 9899.000
1469.055, 9940.000
1470.097, 9980.000
1471.139, 9909.000
1472.181, 9925.000
1473.222, 9986.000
1474.263, 9894.000
1475.305, 9983.000
1476.346, 9946.949
1477.386, 9822.000
1478.427, 9937.000
1479.468, 9920.000
1480.508, 9949.000
1481.548, 10001.00
1482.588, 9997.000
1483.628, 9927.000
1484.668, 9955.000
1485.707, 9977.000
1486.747, 9949.000
1487.786, 10038.00
1488.825, 10027.00
1489.864, 9966.000
1490.902, 9919.882
1491.941, 10069.86
1492.979, 10153.34
1494.017, 10173.89
1495.055, 9943.029
1496.093, 10036.81
1497.131, 10000.49
1498.168, 9958.841
1499.206, 10098.32
1500.243, 9904.024
1501.280, 10040.63
1502.317, 10045.15
1503.354, 10110.12
1504.390, 10044.19
1505.426, 10018.68
1506.463, 10124.13
1507.499, 10157.07
1508.535, 10056.00
1509.570, 10078.00
1510.606, 10037.00
1511.641, 10040.00
1512.676, 10179.00
1513.711, 10098.00
1514.746, 10124.00
1515.781, 10187.00
1516.816, 10133.00
1517.850, 10148.76
1518.884, 10124.00
1519.918, 10107.00
1520.952, 10129.00
1521.986, 10113.00
1523.019, 10140.81
1524.053, 10164.00
1525.086, 10187.00
1526.119, 10164.00
1527.152, 10164.00
1528.185, 10150.00
1529.217, 10156.63
1530.250, 10135.00
1531.282, 10181.00
1532.314, 10206.00
1533.346, 10229.00
1534.377, 10222.92
1535.409, 10055.00
1536.440, 10195.00
1537.472, 10150.00
1538.503, 10150.00
1539.534, 10300.00
1540.564, 10128.00
1541.595, 10226.00
1542.625, 10256.00
1543.656, 10275.00
1544.686, 10278.17
1545.716, 10076.00
1546.745, 10228.00
1547.775, 10190.00
1548.804, 10172.00
1549.834, 10266.00
1550.863, 10313.00
1551.892, 10252.00
1552.920, 10337.00
1553.949, 10177.00
1554.977, 10273.00
1556.006, 10300.00
1557.034, 10210.00
1558.062, 10266.00
1559.089, 10183.00
1560.117, 10169.24
1561.144, 10201.00
1562.172, 10130.00
1563.199, 10176.00
1564.226, 10187.00
1565.252, 10307.00
1566.279, 10146.00
1567.305, 10218.00
1568.332, 10205.00
1569.358, 10165.00
1570.384, 10150.00
1571.409, 10217.00
1572.435, 10312.00
##END=



