##NAMES=Edingtonite
##RRUFFID=R040110
##IDEAL CHEMISTRY=Ba(Si_3_Al_2_)O_10_&#183;4H_2_O
##LOCALITY=2350 level, Brunswick 12 mine, Bathhurst, New Brunswick, Canada
##OWNER=RRUFF
##SOURCE=National Museums of Canada
##DESCRIPTION=Colorless rectangular prism
##STATUS=The identification of this mineral has been confirmed by X-ray diffraction and chemical analysis
##URL=rruff.info/R040110
##MEASURED CHEMISTRY=Ba_1.00_(Si_3.00_Al_2.00_)O_10_Â·4H_2_O
##PIN_ID=M00273
##ORIENTATION=Laser parallel to -a* (-1 0 0). Fiducial mark perpendicular to laser is parallel to b [0 1 0]
53.91000, 425.0000
55.14900, 458.0000
56.38700, 468.0000
57.62600, 464.0000
58.86400, 505.0000
60.10300, 537.0000
61.34100, 586.0000
62.57900, 652.0000
63.81700, 712.0000
65.05400, 770.0000
66.29200, 867.0000
67.52900, 971.0000
68.76700, 1071.000
70.00400, 1210.000
71.24100, 1338.000
72.47700, 1475.000
73.71400, 1656.000
74.95100, 1893.000
76.18700, 2110.786
77.42300, 2423.000
78.65900, 2652.000
79.89500, 2989.000
81.13100, 3321.000
82.36700, 3642.000
83.60200, 3985.107
84.83700, 4395.000
86.07200, 4655.000
87.30800, 4940.000
88.54200, 5254.000
89.77700, 5678.000
91.01200, 6010.000
92.24600, 6374.000
93.48000, 6795.000
94.71400, 7071.000
95.94800, 7418.781
97.18200, 7747.685
98.41600, 7988.000
99.64900, 8361.000
100.8830, 8569.000
102.1160, 8836.000
103.3490, 8829.000
104.5820, 8742.000
105.8150, 8784.000
107.0470, 8833.000
108.2800, 8957.000
109.5120, 8742.000
110.7440, 8687.000
111.9760, 9057.000
113.2080, 8873.000
114.4400, 9244.000
115.6710, 9244.000
116.9030, 9634.000
118.1340, 9960.000
119.3650, 10144.00
120.5960, 10605.00
121.8270, 10764.00
123.0580, 11360.00
124.2880, 11697.00
125.5190, 12093.00
126.7490, 12588.00
127.9790, 13250.00
129.2090, 13765.00
130.4390, 14344.00
131.6680, 14901.00
132.8980, 15315.00
134.1270, 15909.00
135.3560, 16312.00
136.5850, 16719.00
137.8140, 17216.00
139.0430, 17392.00
140.2710, 18182.00
141.5000, 18864.00
142.7280, 19861.00
143.9560, 20937.00
145.1840, 22020.00
146.4120, 23502.00
147.6390, 24902.00
148.8670, 26281.00
150.0940, 27408.00
151.3210, 28118.00
152.5490, 28878.00
153.7750, 28398.00
155.0020, 27691.00
156.2290, 26202.00
157.4550, 24344.00
158.6810, 22513.00
159.9080, 20429.00
161.1340, 18713.00
162.3590, 16937.00
163.5850, 15462.00
164.8110, 14166.00
166.0360, 13331.00
167.2610, 12353.00
168.4860, 11843.00
169.7110, 11158.00
170.9360, 10664.00
172.1610, 10222.00
173.3850, 9889.000
174.6100, 9597.000
175.8340, 9380.000
177.0580, 9171.000
178.2820, 8868.000
179.5050, 8783.000
180.7290, 8587.000
181.9520, 8494.000
183.1760, 8343.000
184.3990, 8183.000
185.6220, 8215.000
186.8450, 8054.000
188.0670, 7802.000
189.2900, 7881.000
190.5120, 7781.000
191.7340, 7724.000
192.9560, 7552.000
194.1780, 7601.000
195.4000, 7462.000
196.6220, 7449.000
197.8430, 7330.000
199.0640, 7187.000
200.2860, 7272.000
201.5070, 7107.000
202.7270, 7157.000
203.9480, 6957.000
205.1690, 6878.000
206.3890, 6808.000
207.6090, 6655.000
208.8290, 6667.000
210.0490, 6675.000
211.2690, 6649.000
212.4890, 6636.471
213.7080, 6603.341
214.9280, 6561.000
216.1470, 6508.000
217.3660, 6431.000
218.5850, 6349.000
219.8030, 6362.000
221.0220, 6411.000
222.2400, 6318.000
223.4590, 6338.000
224.6770, 6404.000
225.8950, 6290.000
227.1120, 6380.000
228.3300, 6418.000
229.5480, 6359.000
230.7650, 6297.000
231.9820, 6399.000
233.1990, 6288.000
234.4160, 6281.000
235.6330, 6209.000
236.8490, 6214.000
238.0660, 6176.000
239.2820, 6150.817
240.4980, 6156.000
241.7140, 6100.000
242.9300, 6031.000
244.1460, 5975.000
245.3610, 6025.000
246.5770, 5976.000
247.7920, 6003.000
249.0070, 6103.000
250.2220, 6063.000
251.4370, 6061.000
252.6510, 6023.000
253.8660, 6014.000
255.0800, 6078.000
256.2940, 6029.000
257.5080, 6100.000
258.7220, 6268.000
259.9360, 6189.000
261.1490, 6253.000
262.3630, 6175.000
263.5760, 6363.000
264.7890, 6439.000
266.0020, 6454.000
267.2150, 6527.000
268.4270, 6661.000
269.6400, 6725.000
270.8520, 6916.000
272.0640, 6873.000
273.2760, 7049.000
274.4880, 7102.000
275.7000, 7047.000
276.9120, 7094.000
278.1230, 7058.000
279.3340, 7026.000
280.5450, 6927.000
281.7560, 6778.000
282.9670, 6650.000
284.1780, 6655.000
285.3880, 6536.000
286.5980, 6503.000
287.8090, 6420.000
289.0190, 6388.000
290.2290, 6389.000
291.4380, 6308.000
292.6480, 6359.000
293.8570, 6397.000
295.0670, 6299.000
296.2760, 6419.000
297.4850, 6345.000
298.6930, 6318.000
299.9020, 6422.000
301.1110, 6431.000
302.3190, 6535.000
303.5270, 6434.000
304.7350, 6507.000
305.9430, 6563.000
307.1510, 6508.000
308.3580, 6532.000
309.5660, 6642.000
310.7730, 6490.000
311.9800, 6619.000
313.1870, 6588.000
314.3940, 6633.000
315.6010, 6548.000
316.8070, 6523.000
318.0130, 6528.000
319.2200, 6569.000
320.4260, 6482.000
321.6310, 6560.000
322.8370, 6462.000
324.0430, 6509.000
325.2480, 6560.000
326.4540, 6555.000
327.6590, 6533.000
328.8640, 6521.000
330.0680, 6572.000
331.2730, 6605.000
332.4780, 6596.000
333.6820, 6704.000
334.8860, 6680.000
336.0900, 6738.000
337.2940, 6834.000
338.4980, 6745.000
339.7010, 6743.000
340.9050, 6764.000
342.1080, 6805.000
343.3110, 6858.000
344.5140, 6843.000
345.7170, 6883.330
346.9200, 6888.301
348.1220, 6915.000
349.3240, 6892.000
350.5270, 6897.000
351.7290, 6884.000
352.9310, 7037.000
354.1320, 7000.000
355.3340, 7149.000
356.5350, 7142.000
357.7370, 7195.000
358.9380, 7345.000
360.1390, 7375.000
361.3400, 7324.000
362.5400, 7352.000
363.7410, 7299.000
364.9410, 7293.000
366.1410, 7372.000
367.3410, 7217.000
368.5410, 7281.000
369.7410, 7334.000
370.9400, 7289.000
372.1400, 7377.000
373.3390, 7384.000
374.5380, 7436.000
375.7370, 7454.000
376.9360, 7473.000
378.1350, 7514.000
379.3330, 7541.000
380.5310, 7652.000
381.7300, 7641.000
382.9280, 7640.000
384.1260, 7732.000
385.3230, 7716.000
386.5210, 7817.000
387.7180, 7765.000
388.9160, 7856.000
390.1130, 7863.000
391.3100, 7903.000
392.5060, 8000.000
393.7030, 8096.000
394.9000, 8151.000
396.0960, 8370.000
397.2920, 8350.000
398.4880, 8446.000
399.6840, 8660.000
400.8800, 8771.000
402.0750, 8711.000
403.2710, 8795.000
404.4660, 8717.000
405.6610, 8724.000
406.8560, 8539.000
408.0510, 8567.000
409.2450, 8494.000
410.4400, 8531.000
411.6340, 8419.000
412.8280, 8478.000
414.0220, 8575.000
415.2160, 8590.000
416.4100, 8706.000
417.6030, 8801.000
418.7970, 8890.000
419.9900, 9172.000
421.1830, 9289.000
422.3760, 9470.000
423.5690, 9617.000
424.7610, 9784.064
425.9540, 10053.00
427.1460, 10118.00
428.3380, 10356.00
429.5300, 10498.00
430.7220, 10248.00
431.9140, 10387.00
433.1050, 10249.00
434.2970, 10020.00
435.4880, 10065.00
436.6790, 9752.000
437.8700, 9625.000
439.0610, 9241.000
440.2510, 9172.000
441.4420, 8909.000
442.6320, 8617.000
443.8220, 8558.000
445.0120, 8478.000
446.2020, 8244.000
447.3910, 8234.000
448.5810, 8151.000
449.7700, 8061.000
450.9600, 8031.000
452.1490, 7963.569
453.3370, 7946.000
454.5260, 7875.000
455.7150, 7931.000
456.9030, 7897.000
458.0910, 7967.000
459.2800, 7983.000
460.4670, 8012.000
461.6550, 8007.000
462.8430, 8081.000
464.0300, 8176.000
465.2180, 8246.000
466.4050, 8269.120
467.5920, 8307.000
468.7790, 8384.360
469.9650, 8468.000
471.1520, 8543.000
472.3380, 8631.000
473.5250, 8734.000
474.7110, 8910.000
475.8970, 8971.000
477.0820, 9046.000
478.2680, 9337.000
479.4540, 9408.000
480.6390, 9552.000
481.8240, 9799.000
483.0090, 9984.000
484.1940, 10158.00
485.3780, 10330.00
486.5630, 10741.00
487.7470, 10727.00
488.9320, 11089.00
490.1160, 11263.00
491.3000, 11360.00
492.4830, 11620.00
493.6670, 11682.00
494.8500, 11911.00
496.0340, 12022.00
497.2170, 12144.00
498.4000, 12132.00
499.5820, 12020.00
500.7650, 12132.00
501.9480, 11987.00
503.1300, 12130.00
504.3120, 12270.00
505.4940, 12374.00
506.6760, 12502.00
507.8580, 12997.00
509.0390, 13317.00
510.2210, 13791.00
511.4020, 14736.00
512.5830, 15658.00
513.7640, 17017.00
514.9450, 18906.00
516.1250, 21044.00
517.3060, 24039.00
518.4860, 27712.00
519.6660, 32319.00
520.8460, 37631.00
522.0260, 43302.00
523.2060, 48963.00
524.3850, 55031.00
525.5650, 59432.00
526.7440, 62056.00
527.9230, 62731.00
529.1020, 60635.00
530.2810, 56328.00
531.4590, 50458.00
532.6380, 43766.00
533.8160, 37577.00
534.9940, 32002.00
536.1720, 27567.00
537.3500, 23737.00
538.5270, 20855.00
539.7050, 18470.00
540.8820, 16723.00
542.0590, 15291.00
543.2360, 14102.00
544.4130, 13021.00
545.5900, 12313.00
546.7660, 11694.00
547.9430, 10987.00
549.1190, 10705.00
550.2950, 10313.00
551.4710, 10025.00
552.6470, 9822.000
553.8220, 9472.000
554.9980, 9418.000
556.1730, 9209.000
557.3480, 9020.000
558.5230, 8861.000
559.6980, 8702.986
560.8730, 8656.000
562.0470, 8501.000
563.2220, 8373.000
564.3960, 8424.000
565.5700, 8305.000
566.7440, 8274.000
567.9170, 8234.000
569.0910, 8251.000
570.2640, 8101.000
571.4380, 8013.000
572.6110, 7918.000
573.7840, 7981.000
574.9570, 8005.000
576.1290, 7990.000
577.3020, 7980.551
578.4740, 7923.000
579.6460, 7878.000
580.8180, 7882.000
581.9900, 7791.000
583.1620, 7735.000
584.3330, 7762.000
585.5040, 7733.000
586.6760, 7759.000
587.8470, 7685.000
589.0180, 7670.000
590.1880, 7658.000
591.3590, 7725.000
592.5290, 7738.000
593.7000, 7600.000
594.8700, 7699.000
596.0400, 7663.000
597.2090, 7769.000
598.3790, 7691.000
599.5490, 7702.000
600.7180, 7714.837
601.8870, 7667.000
603.0560, 7683.000
604.2250, 7628.000
605.3940, 7557.000
606.5620, 7462.000
607.7300, 7527.000
608.8990, 7548.000
610.0670, 7469.000
611.2350, 7555.000
612.4020, 7459.000
613.5700, 7393.000
614.7370, 7508.000
615.9050, 7373.000
617.0720, 7365.000
618.2390, 7332.000
619.4060, 7354.000
620.5720, 7276.000
621.7390, 7323.000
622.9050, 7409.000
624.0710, 7276.000
625.2370, 7377.000
626.4030, 7375.000
627.5690, 7273.000
628.7340, 7193.000
629.9000, 7306.000
631.0650, 7319.000
632.2300, 7207.000
633.3950, 7189.000
634.5600, 7255.000
635.7240, 7244.000
636.8890, 7341.000
638.0530, 7261.000
639.2170, 7234.000
640.3810, 7261.000
641.5450, 7294.000
642.7080, 7260.000
643.8720, 7336.000
645.0350, 7351.000
646.1980, 7183.000
647.3610, 7289.000
648.5240, 7217.000
649.6870, 7277.000
650.8490, 7274.000
652.0120, 7262.000
653.1740, 7228.000
654.3360, 7252.000
655.4980, 7312.000
656.6600, 7362.000
657.8210, 7292.000
658.9830, 7312.000
660.1440, 7295.000
661.3050, 7281.000
662.4660, 7375.000
663.6270, 7315.000
664.7870, 7257.000
665.9480, 7456.000
667.1080, 7319.000
668.2680, 7384.000
669.4280, 7297.000
670.5880, 7348.000
671.7480, 7515.000
672.9070, 7360.000
674.0670, 7335.000
675.2260, 7489.000
676.3850, 7462.000
677.5440, 7477.000
678.7030, 7519.000
679.8610, 7533.000
681.0200, 7555.000
682.1780, 7572.000
683.3360, 7528.000
684.4940, 7704.000
685.6520, 7767.000
686.8090, 7709.000
687.9670, 7895.000
689.1240, 7953.000
690.2810, 8034.000
691.4380, 7991.000
692.5950, 8067.000
693.7520, 8234.000
694.9080, 8359.000
696.0650, 8384.000
697.2210, 8639.000
698.3770, 8707.000
699.5330, 8881.000
700.6880, 9066.000
701.8440, 9164.000
702.9990, 9218.000
704.1550, 9393.000
705.3100, 9300.000
706.4650, 9299.000
707.6190, 9283.000
708.7740, 9151.000
709.9290, 9068.000
711.0830, 8849.000
712.2370, 8618.000
713.3910, 8574.000
714.5450, 8499.000
715.6980, 8454.000
716.8520, 8364.000
718.0050, 8340.000
719.1580, 8305.000
720.3110, 8116.000
721.4640, 8039.000
722.6170, 8000.000
723.7700, 7944.000
724.9220, 7728.000
726.0740, 7861.000
727.2260, 7941.000
728.3780, 7741.000
729.5300, 7692.000
730.6810, 7573.000
731.8330, 7669.000
732.9840, 7599.000
734.1350, 7609.000
735.2860, 7518.000
736.4370, 7594.000
737.5880, 7530.000
738.7380, 7534.000
739.8880, 7690.000
741.0390, 7567.000
742.1890, 7713.000
743.3380, 7569.000
744.4880, 7551.000
745.6380, 7521.000
746.7870, 7513.000
747.9360, 7531.000
749.0850, 7624.000
750.2340, 7614.000
751.3830, 7653.000
752.5310, 7615.000
753.6800, 7628.000
754.8280, 7628.316
755.9760, 7573.000
757.1240, 7643.000
758.2720, 7597.000
759.4190, 7639.000
760.5670, 7568.000
761.7140, 7497.000
762.8610, 7635.000
764.0080, 7493.000
765.1550, 7510.000
766.3020, 7576.000
767.4480, 7519.000
768.5950, 7530.000
769.7410, 7533.000
770.8870, 7568.000
772.0330, 7517.000
773.1780, 7521.000
774.3240, 7511.000
775.4690, 7421.000
776.6140, 7527.000
777.7590, 7491.000
778.9040, 7549.000
780.0490, 7513.000
781.1940, 7613.000
782.3380, 7427.000
783.4820, 7581.000
784.6260, 7571.000
785.7700, 7641.000
786.9140, 7515.000
788.0580, 7601.000
789.2010, 7752.000
790.3450, 7608.000
791.4880, 7651.000
792.6310, 7612.000
793.7730, 7578.000
794.9160, 7638.000
796.0590, 7593.718
797.2010, 7625.000
798.3430, 7566.000
799.4850, 7582.000
800.6270, 7550.000
801.7690, 7613.000
802.9100, 7689.000
804.0520, 7649.000
805.1930, 7744.000
806.3340, 7736.856
807.4750, 7731.000
808.6160, 7728.000
809.7560, 7736.000
810.8970, 7677.000
812.0370, 7703.000
813.1770, 7648.000
814.3170, 7682.000
815.4570, 7628.000
816.5960, 7724.000
817.7360, 7754.000
818.8750, 7642.000
820.0140, 7677.000
821.1530, 7671.000
822.2920, 7656.000
823.4310, 7740.000
824.5690, 7637.000
825.7070, 7832.000
826.8460, 7750.000
827.9840, 7733.000
829.1220, 7681.000
830.2590, 7682.000
831.3970, 7761.000
832.5340, 7874.000
833.6710, 7902.000
834.8080, 7910.512
835.9450, 7783.000
837.0820, 7841.000
838.2190, 7843.000
839.3550, 7768.000
840.4910, 7832.000
841.6270, 7782.000
842.7630, 7865.000
843.8990, 7849.000
845.0350, 7877.000
846.1700, 7883.594
847.3060, 7821.000
848.4410, 7860.000
849.5760, 7808.000
850.7100, 7773.000
851.8450, 7937.000
852.9800, 7846.000
854.1140, 7863.000
855.2480, 7957.000
856.3820, 7878.000
857.5160, 7906.000
858.6500, 7893.000
859.7830, 7959.000
860.9170, 7865.000
862.0500, 7794.000
863.1830, 7978.000
864.3160, 7930.000
865.4480, 7916.000
866.5810, 7876.000
867.7130, 7898.967
868.8460, 7953.000
869.9780, 7960.000
871.1100, 7972.000
872.2410, 8006.000
873.3730, 7996.000
874.5050, 7991.255
875.6360, 8047.000
876.7670, 7958.000
877.8980, 7930.000
879.0290, 7921.000
880.1590, 7985.000
881.2900, 8080.000
882.4200, 8031.000
883.5500, 7976.000
884.6800, 8069.000
885.8100, 7985.000
886.9400, 8011.000
888.0690, 8062.000
889.1990, 8055.000
890.3280, 7965.000
891.4570, 8074.000
892.5860, 7988.000
893.7140, 8036.000
894.8430, 8018.000
895.9710, 8068.000
897.1000, 8145.000
898.2280, 8192.000
899.3560, 8091.000
900.4830, 8018.000
901.6110, 8102.000
902.7380, 7996.000
903.8660, 8044.000
904.9930, 8113.000
906.1200, 8255.000
907.2460, 8137.000
908.3730, 8103.000
909.5000, 8156.000
910.6260, 8263.000
911.7520, 8135.000
912.8780, 8237.000
914.0040, 8183.000
915.1290, 8190.000
916.2550, 8267.000
917.3800, 8101.000
918.5050, 8221.000
919.6300, 8237.000
920.7550, 8202.000
921.8800, 8258.000
923.0040, 8175.000
924.1290, 8354.000
925.2530, 8341.000
926.3770, 8232.000
927.5010, 8311.000
928.6250, 8283.000
929.7480, 8425.000
930.8720, 8364.000
931.9950, 8399.000
933.1180, 8494.000
934.2410, 8523.000
935.3640, 8407.000
936.4860, 8418.000
937.6090, 8491.000
938.7310, 8520.000
939.8530, 8640.000
940.9750, 8712.000
942.0970, 8867.000
943.2180, 8839.000
944.3400, 9074.000
945.4610, 9132.000
946.5820, 9526.000
947.7030, 9657.000
948.8240, 9931.000
949.9450, 10077.00
951.0650, 10244.00
952.1860, 10550.00
953.3060, 10762.00
954.4260, 10747.00
955.5460, 10723.00
956.6650, 10608.00
957.7850, 10515.00
958.9040, 10318.00
960.0230, 10239.00
961.1420, 10109.00
962.2610, 9896.000
963.3800, 9914.000
964.4990, 9680.000
965.6170, 9730.000
966.7350, 9773.000
967.8530, 9793.000
968.9710, 9714.000
970.0890, 9805.000
971.2070, 9806.000
972.3240, 9878.000
973.4410, 9996.000
974.5580, 10122.00
975.6750, 10286.00
976.7920, 10423.00
977.9090, 10663.00
979.0250, 10982.00
980.1410, 11195.00
981.2580, 11404.00
982.3740, 11769.00
983.4890, 11972.00
984.6050, 12111.00
985.7200, 12526.00
986.8360, 12724.00
987.9510, 13124.00
989.0660, 13411.00
990.1810, 13733.00
991.2950, 14149.00
992.4100, 14512.00
993.5240, 14767.00
994.6390, 14511.00
995.7530, 14320.00
996.8660, 14150.00
997.9800, 13586.00
999.0940, 13070.00
1000.207, 12537.00
1001.320, 11872.00
1002.433, 11444.00
1003.546, 10954.00
1004.659, 10507.00
1005.772, 10227.00
1006.884, 10052.00
1007.996, 9962.000
1009.108, 9662.000
1010.220, 9619.000
1011.332, 9409.000
1012.444, 9332.000
1013.555, 9180.000
1014.666, 9070.000
1015.777, 9146.000
1016.888, 9162.000
1017.999, 9135.000
1019.110, 9113.000
1020.220, 9141.000
1021.331, 9161.000
1022.441, 9179.000
1023.551, 9157.000
1024.661, 9092.000
1025.770, 9266.000
1026.880, 9158.000
1027.989, 9292.000
1029.098, 9340.000
1030.207, 9387.000
1031.316, 9494.000
1032.425, 9580.475
1033.533, 9576.000
1034.642, 9777.000
1035.750, 9835.000
1036.858, 9864.000
1037.966, 10160.00
1039.073, 10406.00
1040.181, 10554.00
1041.288, 10861.00
1042.396, 11205.00
1043.503, 11600.00
1044.610, 12046.00
1045.716, 12611.00
1046.823, 13381.00
1047.929, 13900.00
1049.036, 14682.00
1050.142, 15366.00
1051.248, 15940.00
1052.353, 16306.00
1053.459, 16409.00
1054.564, 16383.00
1055.670, 16056.00
1056.775, 15639.00
1057.880, 14983.00
1058.985, 14520.00
1060.089, 13789.00
1061.194, 13218.00
1062.298, 12716.00
1063.402, 12210.00
1064.506, 11815.00
1065.610, 11461.00
1066.713, 11214.00
1067.817, 10820.00
1068.920, 10594.00
1070.023, 10345.28
1071.126, 10335.00
1072.229, 10005.00
1073.332, 9963.000
1074.435, 10009.00
1075.537, 9740.000
1076.639, 9809.000
1077.741, 9711.000
1078.843, 9597.000
1079.945, 9506.000
1081.046, 9533.000
1082.148, 9457.000
1083.249, 9509.000
1084.350, 9492.000
1085.451, 9397.000
1086.551, 9382.000
1087.652, 9293.000
1088.752, 9302.000
1089.853, 9237.000
1090.953, 9270.000
1092.053, 9302.000
1093.152, 9421.000
1094.252, 9381.000
1095.351, 9480.000
1096.451, 9455.000
1097.550, 9422.000
1098.649, 9519.000
1099.748, 9429.000
1100.846, 9447.000
1101.945, 9580.000
1103.043, 9513.000
1104.141, 9468.000
1105.239, 9392.000
1106.337, 9343.000
1107.434, 9221.000
1108.532, 9229.000
1109.629, 9322.000
1110.726, 9086.000
1111.823, 9218.000
1112.920, 9113.000
1114.017, 9103.000
1115.113, 9046.000
1116.210, 9042.341
1117.306, 9077.000
1118.402, 9071.000
1119.498, 9103.024
1120.593, 9202.000
1121.689, 9149.000
1122.784, 9197.000
1123.879, 9194.000
1124.974, 8997.000
1126.069, 9096.000
1127.164, 9040.000
1128.259, 9114.000
1129.353, 9094.000
1130.447, 8973.000
1131.541, 8949.000
1132.635, 9009.000
1133.729, 9004.000
1134.822, 8946.000
1135.916, 8883.000
1137.009, 9053.000
1138.102, 8953.000
1139.195, 8988.000
1140.288, 9017.000
1141.380, 8943.000
1142.473, 8982.000
1143.565, 9064.000
1144.657, 8970.000
1145.749, 8980.000
1146.841, 8860.000
1147.932, 9001.000
1149.024, 8983.000
1150.115, 8925.000
1151.206, 9030.000
1152.297, 8905.000
1153.388, 8964.000
1154.479, 9043.000
1155.569, 9034.000
1156.659, 9027.000
1157.750, 9043.070
1158.839, 8938.000
1159.929, 9036.000
1161.019, 8987.000
1162.108, 9005.000
1163.198, 8849.000
1164.287, 9031.000
1165.376, 8916.000
1166.465, 8994.000
1167.553, 9062.000
1168.642, 9028.000
1169.730, 9068.000
1170.818, 9107.554
1171.906, 9008.000
1172.994, 9130.000
1174.082, 9109.000
1175.170, 8982.000
1176.257, 8961.000
1177.344, 9013.000
1178.431, 8923.000
1179.518, 9048.000
1180.605, 8993.000
1181.691, 9093.000
1182.778, 8992.000
1183.864, 8948.000
1184.950, 9002.000
1186.036, 8982.000
1187.122, 8935.000
1188.207, 9016.000
1189.292, 9053.000
1190.378, 8970.000
1191.463, 9073.000
1192.548, 9134.000
1193.632, 9080.000
1194.717, 9013.000
1195.801, 9005.000
1196.886, 8946.000
1197.970, 9056.000
1199.054, 9026.000
1200.137, 9100.000
1201.221, 9042.000
1202.305, 9096.000
1203.388, 9043.000
1204.471, 9108.000
1205.554, 9206.000
1206.637, 9074.000
1207.719, 9057.000
1208.802, 8996.000
1209.884, 9024.000
1210.966, 9129.000
1212.048, 9079.000
1213.130, 9047.000
1214.212, 9138.000
1215.293, 9004.000
1216.374, 9083.000
1217.456, 9150.000
1218.536, 9126.000
1219.617, 9141.000
1220.698, 9118.000
1221.778, 9102.000
1222.859, 9149.000
1223.939, 9111.000
1225.019, 9143.000
1226.099, 9126.000
1227.178, 9198.000
1228.258, 9188.000
1229.337, 9220.508
1230.417, 9165.000
1231.496, 9246.000
1232.574, 9197.000
1233.653, 9143.000
1234.732, 9250.000
1235.810, 9028.000
1236.888, 9082.000
1237.966, 9191.000
1239.044, 9201.000
1240.122, 9242.156
1241.199, 9284.102
1242.277, 9269.000
1243.354, 9274.000
1244.431, 9283.000
1245.508, 9150.000
1246.585, 9188.000
1247.661, 9198.000
1248.738, 9178.000
1249.814, 9247.000
1250.890, 9195.000
1251.966, 9204.000
1253.042, 9328.000
1254.117, 9162.000
1255.193, 9258.000
1256.268, 9144.000
1257.343, 9265.000
1258.418, 9010.000
1259.493, 9332.000
1260.567, 9263.000
1261.642, 9310.000
1262.716, 9160.000
1263.790, 9329.000
1264.864, 9267.000
1265.938, 9349.000
1267.011, 9222.000
1268.085, 9334.000
1269.158, 9293.000
1270.231, 9342.000
1271.304, 9269.000
1272.377, 9201.000
1273.450, 9303.000
1274.522, 9237.000
1275.594, 9273.000
1276.666, 9244.000
1277.738, 9225.000
1278.810, 9280.000
1279.882, 9263.824
1280.953, 9275.000
1282.025, 9288.000
1283.096, 9267.000
1284.167, 9264.000
1285.238, 9314.000
1286.308, 9209.000
1287.379, 9198.000
1288.449, 9352.000
1289.519, 9358.000
1290.589, 9258.000
1291.659, 9373.000
1292.729, 9269.000
1293.798, 9230.000
1294.868, 9436.000
1295.937, 9171.000
1297.006, 9287.000
1298.075, 9238.000
1299.143, 9367.000
1300.212, 9342.000
1301.280, 9370.000
1302.348, 9309.000
1303.416, 9365.000
1304.484, 9292.000
1305.552, 9407.000
1306.620, 9435.000
1307.687, 9399.000
1308.754, 9387.000
1309.821, 9351.000
1310.888, 9470.000
1311.955, 9452.000
1313.021, 9492.000
1314.088, 9397.000
1315.154, 9427.000
1316.220, 9436.000
1317.286, 9408.856
1318.352, 9429.496
1319.417, 9426.000
1320.483, 9398.000
1321.548, 9443.000
1322.613, 9356.000
1323.678, 9489.000
1324.743, 9588.000
1325.807, 9462.000
1326.872, 9426.000
1327.936, 9641.000
1329.000, 9533.000
1330.064, 9563.000
1331.128, 9539.000
1332.191, 9378.000
1333.255, 9565.000
1334.318, 9347.000
1335.381, 9503.000
1336.444, 9506.000
1337.507, 9441.000
1338.569, 9550.000
1339.632, 9430.000
1340.694, 9549.000
1341.756, 9434.000
1342.818, 9571.000
1343.880, 9519.000
1344.941, 9642.000
1346.003, 9472.000
1347.064, 9577.000
1348.125, 9547.000
1349.186, 9583.000
1350.247, 9567.000
1351.308, 9430.000
1352.368, 9569.000
1353.428, 9645.000
1354.489, 9534.000
1355.549, 9558.000
1356.608, 9730.000
1357.668, 9571.000
1358.727, 9628.000
1359.787, 9649.000
1360.846, 9696.000
1361.905, 9631.000
1362.964, 9616.000
1364.022, 9677.000
1365.081, 9577.000
1366.139, 9702.000
1367.197, 9656.000
1368.255, 9519.000
1369.313, 9679.000
1370.371, 9628.000
1371.428, 9679.000
1372.486, 9634.000
1373.543, 9594.000
1374.600, 9641.000
1375.657, 9731.000
1376.713, 9561.000
1377.770, 9698.000
1378.826, 9691.000
1379.882, 9656.000
1380.938, 9660.000
1381.994, 9687.000
1383.050, 9711.000
1384.106, 9741.000
1385.161, 9732.000
1386.216, 9808.000
1387.271, 9698.000
1388.326, 9633.000
1389.381, 9807.000
1390.435, 9629.000
1391.490, 9602.000
1392.544, 9653.000
1393.598, 9745.000
1394.652, 9739.000
1395.705, 9712.000
1396.759, 9795.000
1397.812, 9665.000
1398.866, 9718.000
1399.919, 9726.000
1400.972, 9641.000
1402.024, 9833.000
1403.077, 9842.000
1404.129, 9778.000
1405.181, 9673.000
1406.233, 9826.000
1407.285, 9902.000
1408.337, 9835.000
1409.389, 9849.000
1410.440, 9794.000
1411.491, 9753.000
1412.542, 9815.000
1413.593, 9797.000
1414.644, 9821.000
1415.695, 9637.000
1416.745, 9827.000
1417.795, 9910.000
1418.845, 9730.000
1419.895, 9821.000
1420.945, 9885.000
1421.995, 9961.000
1423.044, 9882.000
1424.093, 9789.000
1425.142, 9779.000
1426.191, 9762.813
1427.240, 9951.000
1428.289, 9828.000
1429.337, 9856.000
1430.385, 9945.000
1431.433, 9870.000
1432.481, 9893.000
1433.529, 9955.000
1434.577, 10002.00
1435.624, 9770.000
1436.672, 9973.000
1437.719, 9806.000
1438.766, 9916.000
1439.812, 10005.00
1440.859, 9886.000
1441.905, 9876.000
1442.952, 9854.000
1443.998, 9969.000
1445.044, 9903.000
1446.090, 9972.000
1447.135, 9881.000
1448.181, 9893.000
1449.226, 10058.00
1450.271, 10057.00
1451.316, 9977.000
1452.361, 9860.000
1453.405, 10013.00
1454.450, 10088.00
1455.494, 9911.000
1456.538, 9969.000
1457.582, 9904.000
1458.626, 10061.00
1459.670, 10063.00
1460.713, 9948.000
1461.757, 9966.000
1462.800, 9992.000
1463.843, 9984.000
1464.886, 10046.00
1465.928, 9924.000
1466.971, 10007.00
1468.013, 9986.000
1469.055, 9946.000
1470.097, 10150.00
1471.139, 10010.00
1472.181, 10120.00
1473.222, 9966.000
1474.263, 9973.000
1475.305, 10050.00
1476.346, 9885.000
1477.386, 9989.000
1478.427, 10050.00
1479.468, 10015.00
1480.508, 9951.000
1481.548, 10034.00
1482.588, 10128.00
1483.628, 10015.00
1484.668, 9920.000
1485.707, 10030.00
1486.747, 10017.00
1487.786, 10021.00
1488.825, 10158.00
1489.864, 10021.00
1490.902, 9987.000
1491.941, 10106.00
1492.979, 9901.000
1494.017, 10074.00
1495.055, 10132.00
1496.093, 10099.00
1497.131, 10009.00
1498.168, 10014.00
1499.206, 10177.00
1500.243, 10146.00
1501.280, 10249.00
1502.317, 10163.00
1503.354, 10084.00
1504.390, 10166.00
1505.426, 10152.00
1506.463, 10086.00
1507.499, 10102.00
1508.535, 10155.00
1509.570, 10044.00
1510.606, 10121.00
1511.641, 10205.00
1512.676, 10256.00
1513.711, 10243.00
1514.746, 10055.00
1515.781, 10137.00
1516.816, 10142.00
1517.850, 10266.00
1518.884, 10270.00
1519.918, 10162.00
1520.952, 10171.00
1521.986, 10316.00
1523.019, 10214.00
1524.053, 10149.00
1525.086, 10225.00
1526.119, 10090.00
1527.152, 10258.00
1528.185, 10241.00
1529.217, 10134.00
1530.250, 10220.00
1531.282, 10149.00
1532.314, 10255.00
1533.346, 10236.00
1534.377, 10283.00
1535.409, 10314.72
1536.440, 10163.00
1537.472, 10354.00
1538.503, 10254.00
1539.534, 10258.00
1540.564, 10353.00
1541.595, 10205.00
1542.625, 10270.00
1543.656, 10300.00
1544.686, 10182.00
1545.716, 10192.00
1546.745, 10220.00
1547.775, 10132.00
1548.804, 10257.00
1549.834, 10188.00
1550.863, 10174.00
1551.892, 10188.00
1552.920, 10235.00
1553.949, 10301.00
1554.977, 10215.00
1556.006, 10257.00
1557.034, 10254.00
1558.062, 10321.00
1559.089, 10226.00
1560.117, 10261.00
1561.144, 10288.00
1562.172, 10197.00
1563.199, 10180.00
1564.226, 10193.00
1565.252, 10242.00
1566.279, 10229.86
1567.305, 10247.00
1568.332, 10255.00
1569.358, 10285.00
1570.384, 10319.00
1571.409, 10222.00
1572.435, 10372.00
##END=



