##NAMES=Edingtonite
##RRUFFID=R040110
##IDEAL CHEMISTRY=Ba(Si_3_Al_2_)O_10_&#183;4H_2_O
##LOCALITY=2350 level, Brunswick 12 mine, Bathhurst, New Brunswick, Canada
##OWNER=RRUFF
##SOURCE=National Museums of Canada
##DESCRIPTION=Colorless rectangular prism
##STATUS=The identification of this mineral has been confirmed by X-ray diffraction and chemical analysis
##URL=rruff.info/R040110
##MEASURED CHEMISTRY=Ba_1.00_(Si_3.00_Al_2.00_)O_10_Â·4H_2_O
##PIN_ID=M00390
##ORIENTATION=Laser parallel to -c* (0 0 -1). Fiducial mark perpendicular to laser is parallel to a [1 0 0]
53.91000, 610.0000
55.14900, 603.0000
56.38700, 639.0000
57.62600, 659.0000
58.86400, 691.0000
60.10300, 728.0000
61.34100, 831.0000
62.57900, 879.0000
63.81700, 999.0000
65.05400, 1127.000
66.29200, 1290.051
67.52900, 1441.000
68.76700, 1711.000
70.00400, 1921.000
71.24100, 2197.000
72.47700, 2442.000
73.71400, 2779.000
74.95100, 3149.000
76.18700, 3651.000
77.42300, 4125.000
78.65900, 4507.000
79.89500, 4966.000
81.13100, 5520.000
82.36700, 6016.000
83.60200, 6671.000
84.83700, 7156.000
86.07200, 7527.000
87.30800, 8239.000
88.54200, 8749.000
89.77700, 9398.000
91.01200, 9932.056
92.24600, 10307.00
93.48000, 10931.00
94.71400, 11424.00
95.94800, 11828.00
97.18200, 12340.00
98.41600, 12897.00
99.64900, 13417.00
100.8830, 13734.00
102.1160, 14346.00
103.3490, 14622.00
104.5820, 15239.00
105.8150, 15357.00
107.0470, 16257.00
108.2800, 16913.00
109.5120, 16722.00
110.7440, 16396.00
111.9760, 16678.00
113.2080, 16788.00
114.4400, 17378.00
115.6710, 17726.00
116.9030, 18219.00
118.1340, 18854.00
119.3650, 19261.00
120.5960, 19863.00
121.8270, 20590.00
123.0580, 21331.00
124.2880, 22118.00
125.5190, 22728.00
126.7490, 23887.00
127.9790, 24993.00
129.2090, 25564.00
130.4390, 26754.00
131.6680, 27222.00
132.8980, 27840.00
134.1270, 27957.00
135.3560, 27590.00
136.5850, 27255.00
137.8140, 26620.00
139.0430, 25887.00
140.2710, 25849.00
141.5000, 25414.00
142.7280, 25002.00
143.9560, 25362.00
145.1840, 25630.00
146.4120, 26036.00
147.6390, 26572.00
148.8670, 27239.00
150.0940, 27655.00
151.3210, 28344.00
152.5490, 28434.00
153.7750, 28261.00
155.0020, 27657.00
156.2290, 26653.00
157.4550, 25400.00
158.6810, 24093.00
159.9080, 22899.00
161.1340, 21527.00
162.3590, 20440.00
163.5850, 19416.00
164.8110, 18538.00
166.0360, 17788.00
167.2610, 17267.00
168.4860, 16648.00
169.7110, 16300.00
170.9360, 16088.00
172.1610, 15760.00
173.3850, 15401.00
174.6100, 15310.00
175.8340, 15198.00
177.0580, 15063.00
178.2820, 14819.00
179.5050, 14773.00
180.7290, 14743.00
181.9520, 14489.00
183.1760, 14283.00
184.3990, 14357.00
185.6220, 14227.00
186.8450, 14298.00
188.0670, 14100.00
189.2900, 14170.00
190.5120, 14159.00
191.7340, 13987.00
192.9560, 14057.00
194.1780, 13971.00
195.4000, 13775.00
196.6220, 13715.00
197.8430, 13722.00
199.0640, 13709.00
200.2860, 13616.00
201.5070, 13569.01
202.7270, 13547.00
203.9480, 13339.00
205.1690, 13341.00
206.3890, 13116.00
207.6090, 13148.00
208.8290, 13265.00
210.0490, 13348.00
211.2690, 13203.00
212.4890, 13379.00
213.7080, 13363.00
214.9280, 13209.00
216.1470, 13276.00
217.3660, 13357.00
218.5850, 13337.00
219.8030, 13304.00
221.0220, 13677.00
222.2400, 13986.00
223.4590, 14310.00
224.6770, 14809.00
225.8950, 15281.75
227.1120, 15921.00
228.3300, 16490.00
229.5480, 17189.00
230.7650, 17988.00
231.9820, 18626.00
233.1990, 19451.00
234.4160, 19505.00
235.6330, 19337.00
236.8490, 18549.00
238.0660, 17452.00
239.2820, 16129.00
240.4980, 15252.00
241.7140, 14205.00
242.9300, 13660.00
244.1460, 13394.00
245.3610, 13146.00
246.5770, 12957.00
247.7920, 12767.00
249.0070, 12671.28
250.2220, 12581.00
251.4370, 12598.00
252.6510, 12449.00
253.8660, 12525.00
255.0800, 12538.00
256.2940, 12504.00
257.5080, 12729.00
258.7220, 12936.00
259.9360, 12643.00
261.1490, 12551.00
262.3630, 12721.00
263.5760, 12693.00
264.7890, 12742.00
266.0020, 12835.00
267.2150, 12808.00
268.4270, 12881.00
269.6400, 13001.00
270.8520, 13107.00
272.0640, 13097.00
273.2760, 13249.00
274.4880, 13099.00
275.7000, 13216.00
276.9120, 13042.00
278.1230, 13214.00
279.3340, 13128.00
280.5450, 12916.00
281.7560, 12952.00
282.9670, 12697.00
284.1780, 12735.00
285.3880, 12831.00
286.5980, 12757.00
287.8090, 12740.00
289.0190, 12645.00
290.2290, 12772.00
291.4380, 12625.00
292.6480, 12633.00
293.8570, 12710.00
295.0670, 12661.00
296.2760, 12790.00
297.4850, 12947.00
298.6930, 12901.00
299.9020, 13085.00
301.1110, 13151.00
302.3190, 13332.00
303.5270, 13419.00
304.7350, 13500.00
305.9430, 13604.00
307.1510, 13687.00
308.3580, 13662.00
309.5660, 13738.00
310.7730, 13760.00
311.9800, 13800.00
313.1870, 13900.00
314.3940, 13572.00
315.6010, 13648.00
316.8070, 13700.00
318.0130, 13525.00
319.2200, 13622.00
320.4260, 13316.00
321.6310, 13217.00
322.8370, 13304.00
324.0430, 13308.00
325.2480, 13200.00
326.4540, 13275.00
327.6590, 13186.00
328.8640, 13424.00
330.0680, 13332.00
331.2730, 13533.00
332.4780, 13463.00
333.6820, 13647.00
334.8860, 13611.00
336.0900, 13720.00
337.2940, 13869.00
338.4980, 14059.00
339.7010, 14125.00
340.9050, 14221.00
342.1080, 14231.00
343.3110, 14409.00
344.5140, 14507.00
345.7170, 14663.00
346.9200, 14737.00
348.1220, 14730.00
349.3240, 14795.00
350.5270, 14787.00
351.7290, 14817.03
352.9310, 14761.00
354.1320, 14821.00
355.3340, 14942.00
356.5350, 14864.00
357.7370, 14882.00
358.9380, 14960.00
360.1390, 14737.00
361.3400, 14892.00
362.5400, 14625.00
363.7410, 14356.00
364.9410, 14500.00
366.1410, 14445.00
367.3410, 14370.00
368.5410, 14256.00
369.7410, 14232.00
370.9400, 14182.00
372.1400, 14354.00
373.3390, 14324.00
374.5380, 14442.00
375.7370, 14355.00
376.9360, 14581.00
378.1350, 14582.00
379.3330, 14776.00
380.5310, 14854.00
381.7300, 15075.00
382.9280, 14918.00
384.1260, 14848.00
385.3230, 14966.00
386.5210, 14956.00
387.7180, 14876.00
388.9160, 14721.00
390.1130, 14683.00
391.3100, 14788.00
392.5060, 14741.00
393.7030, 14904.00
394.9000, 14895.00
396.0960, 14870.00
397.2920, 15002.00
398.4880, 15255.00
399.6840, 15328.00
400.8800, 15384.00
402.0750, 15486.00
403.2710, 15509.00
404.4660, 15471.00
405.6610, 15500.00
406.8560, 15458.00
408.0510, 15389.00
409.2450, 15390.00
410.4400, 15367.00
411.6340, 15334.00
412.8280, 15345.00
414.0220, 15456.00
415.2160, 15355.00
416.4100, 15573.00
417.6030, 15808.00
418.7970, 15756.00
419.9900, 16048.00
421.1830, 16285.00
422.3760, 16457.00
423.5690, 16617.00
424.7610, 16938.00
425.9540, 17004.00
427.1460, 17267.00
428.3380, 17349.00
429.5300, 17726.00
430.7220, 17528.00
431.9140, 17658.00
433.1050, 17739.00
434.2970, 17256.00
435.4880, 17519.00
436.6790, 17028.00
437.8700, 16940.00
439.0610, 16537.00
440.2510, 16356.00
441.4420, 16040.00
442.6320, 15939.00
443.8220, 15744.00
445.0120, 15407.00
446.2020, 15248.00
447.3910, 15258.00
448.5810, 14919.00
449.7700, 14810.00
450.9600, 14988.00
452.1490, 14873.00
453.3370, 14734.00
454.5260, 14687.00
455.7150, 14719.00
456.9030, 14691.00
458.0910, 14752.00
459.2800, 14680.00
460.4670, 14528.00
461.6550, 14559.00
462.8430, 14560.15
464.0300, 14641.00
465.2180, 14673.00
466.4050, 14743.00
467.5920, 14778.00
468.7790, 14870.00
469.9650, 14937.00
471.1520, 15120.00
472.3380, 15101.00
473.5250, 15154.00
474.7110, 15218.00
475.8970, 15584.00
477.0820, 15660.00
478.2680, 15738.00
479.4540, 15635.00
480.6390, 15815.00
481.8240, 16103.00
483.0090, 16213.00
484.1940, 16605.00
485.3780, 16521.00
486.5630, 16733.00
487.7470, 17040.00
488.9320, 17151.00
490.1160, 17354.00
491.3000, 17416.00
492.4830, 17575.00
493.6670, 17570.00
494.8500, 17749.00
496.0340, 17783.00
497.2170, 17764.00
498.4000, 17841.00
499.5820, 17666.00
500.7650, 17754.00
501.9480, 17667.00
503.1300, 17887.00
504.3120, 17971.00
505.4940, 18058.00
506.6760, 18091.00
507.8580, 18618.00
509.0390, 18816.00
510.2210, 19336.00
511.4020, 20130.00
512.5830, 21087.00
513.7640, 22343.00
514.9450, 23759.00
516.1250, 26044.00
517.3060, 28471.00
518.4860, 31803.00
519.6660, 35534.00
520.8460, 39601.00
522.0260, 44384.00
523.2060, 49295.00
524.3850, 53570.00
525.5650, 57691.00
526.7440, 60625.00
527.9230, 61572.00
529.1020, 60497.00
530.2810, 57283.00
531.4590, 52390.00
532.6380, 46711.00
533.8160, 41307.00
534.9940, 36485.00
536.1720, 32439.00
537.3500, 29063.00
538.5270, 26288.00
539.7050, 24456.00
540.8820, 22577.00
542.0590, 21342.00
543.2360, 20320.00
544.4130, 19450.00
545.5900, 18952.00
546.7660, 18225.00
547.9430, 17801.00
549.1190, 17464.00
550.2950, 16972.00
551.4710, 16828.00
552.6470, 16723.00
553.8220, 16316.00
554.9980, 16069.00
556.1730, 16041.00
557.3480, 15833.00
558.5230, 15886.00
559.6980, 15633.00
560.8730, 15485.00
562.0470, 15486.00
563.2220, 15496.00
564.3960, 15236.00
565.5700, 15293.00
566.7440, 15382.00
567.9170, 15163.00
569.0910, 15165.00
570.2640, 15223.00
571.4380, 15065.00
572.6110, 15026.00
573.7840, 15112.00
574.9570, 15125.00
576.1290, 15130.00
577.3020, 14971.00
578.4740, 15059.00
579.6460, 15097.00
580.8180, 15119.00
581.9900, 15183.65
583.1620, 15235.00
584.3330, 15261.00
585.5040, 15331.80
586.6760, 15343.61
587.8470, 15424.00
589.0180, 15448.00
590.1880, 15498.00
591.3590, 15573.00
592.5290, 15666.00
593.7000, 15831.00
594.8700, 15896.00
596.0400, 15871.00
597.2090, 15903.00
598.3790, 15883.00
599.5490, 16003.00
600.7180, 15867.00
601.8870, 15898.00
603.0560, 15789.00
604.2250, 15521.00
605.3940, 15440.00
606.5620, 15304.00
607.7300, 15304.00
608.8990, 15205.00
610.0670, 15146.64
611.2350, 15077.00
612.4020, 15024.00
613.5700, 14963.00
614.7370, 14883.00
615.9050, 14889.00
617.0720, 14947.00
618.2390, 14632.00
619.4060, 14767.00
620.5720, 14591.00
621.7390, 14713.00
622.9050, 14836.00
624.0710, 14744.00
625.2370, 14782.00
626.4030, 14616.00
627.5690, 14536.00
628.7340, 14512.00
629.9000, 14701.00
631.0650, 14561.00
632.2300, 14777.00
633.3950, 14749.00
634.5600, 14540.00
635.7240, 14720.00
636.8890, 14770.00
638.0530, 14763.00
639.2170, 14896.00
640.3810, 14773.00
641.5450, 14988.00
642.7080, 15089.00
643.8720, 15008.00
645.0350, 15031.00
646.1980, 15154.00
647.3610, 15426.00
648.5240, 15416.00
649.6870, 15549.00
650.8490, 15693.00
652.0120, 15538.00
653.1740, 15841.00
654.3360, 16026.00
655.4980, 15839.00
656.6600, 15837.00
657.8210, 15854.00
658.9830, 15860.00
660.1440, 15659.00
661.3050, 15437.00
662.4660, 15314.00
663.6270, 15215.19
664.7870, 15182.00
665.9480, 15141.00
667.1080, 15117.00
668.2680, 15153.00
669.4280, 14981.00
670.5880, 14952.00
671.7480, 15008.00
672.9070, 14900.00
674.0670, 14961.00
675.2260, 14978.00
676.3850, 15002.00
677.5440, 15010.00
678.7030, 14928.00
679.8610, 14972.95
681.0200, 14922.00
682.1780, 15005.00
683.3360, 15045.00
684.4940, 15085.00
685.6520, 15206.00
686.8090, 15167.00
687.9670, 15206.00
689.1240, 15238.00
690.2810, 15358.00
691.4380, 15567.00
692.5950, 15589.00
693.7520, 15809.00
694.9080, 15854.00
696.0650, 16007.00
697.2210, 16214.28
698.3770, 16339.00
699.5330, 16679.00
700.6880, 16800.00
701.8440, 17123.00
702.9990, 17156.00
704.1550, 17426.00
705.3100, 17583.00
706.4650, 17542.00
707.6190, 17518.00
708.7740, 17518.47
709.9290, 17476.00
711.0830, 17407.00
712.2370, 17226.00
713.3910, 17152.00
714.5450, 17097.00
715.6980, 16974.00
716.8520, 16886.00
718.0050, 16751.84
719.1580, 16552.00
720.3110, 16416.00
721.4640, 16269.00
722.6170, 16004.00
723.7700, 16035.00
724.9220, 15916.00
726.0740, 15543.00
727.2260, 15692.00
728.3780, 15499.00
729.5300, 15428.79
730.6810, 15605.00
731.8330, 15359.00
732.9840, 15368.00
734.1350, 15405.00
735.2860, 15271.00
736.4370, 15347.00
737.5880, 15398.00
738.7380, 15219.00
739.8880, 15412.00
741.0390, 15339.00
742.1890, 15157.00
743.3380, 15192.00
744.4880, 15208.00
745.6380, 15171.00
746.7870, 15228.00
747.9360, 15205.00
749.0850, 15103.00
750.2340, 15294.00
751.3830, 15302.00
752.5310, 15272.00
753.6800, 15381.00
754.8280, 15244.00
755.9760, 15377.00
757.1240, 15333.00
758.2720, 15182.00
759.4190, 15375.00
760.5670, 15360.00
761.7140, 15414.00
762.8610, 15447.00
764.0080, 15353.00
765.1550, 15626.00
766.3020, 15486.00
767.4480, 15515.00
768.5950, 15845.00
769.7410, 15646.00
770.8870, 15578.00
772.0330, 15586.00
773.1780, 15425.00
774.3240, 15499.00
775.4690, 15522.00
776.6140, 15474.00
777.7590, 15450.00
778.9040, 15402.00
780.0490, 15288.00
781.1940, 15452.00
782.3380, 15588.00
783.4820, 15668.00
784.6260, 15376.00
785.7700, 15469.00
786.9140, 15464.00
788.0580, 15287.00
789.2010, 15555.00
790.3450, 15349.00
791.4880, 15340.00
792.6310, 15230.00
793.7730, 15349.00
794.9160, 15511.00
796.0590, 15492.00
797.2010, 15386.00
798.3430, 15452.00
799.4850, 15470.00
800.6270, 15483.00
801.7690, 15532.00
802.9100, 15490.00
804.0520, 15545.32
805.1930, 15619.00
806.3340, 15613.00
807.4750, 15586.00
808.6160, 15612.00
809.7560, 15604.00
810.8970, 15648.00
812.0370, 15486.00
813.1770, 15697.00
814.3170, 15521.00
815.4570, 15500.00
816.5960, 15756.00
817.7360, 15597.00
818.8750, 15704.00
820.0140, 15818.00
821.1530, 15617.00
822.2920, 15630.00
823.4310, 15729.00
824.5690, 15772.00
825.7070, 15760.00
826.8460, 15649.00
827.9840, 15693.03
829.1220, 15837.00
830.2590, 15713.00
831.3970, 15754.00
832.5340, 15827.00
833.6710, 15806.00
834.8080, 15794.00
835.9450, 15835.00
837.0820, 15910.00
838.2190, 15897.33
839.3550, 15926.15
840.4910, 15903.00
841.6270, 15917.00
842.7630, 15886.00
843.8990, 15851.00
845.0350, 15974.00
846.1700, 16056.00
847.3060, 16084.00
848.4410, 16109.58
849.5760, 16017.00
850.7100, 16061.00
851.8450, 16048.00
852.9800, 15985.00
854.1140, 16131.00
855.2480, 15974.00
856.3820, 16124.00
857.5160, 16188.00
858.6500, 16208.00
859.7830, 16207.00
860.9170, 16214.00
862.0500, 16306.00
863.1830, 16409.00
864.3160, 16194.00
865.4480, 16311.00
866.5810, 16109.00
867.7130, 16229.00
868.8460, 16238.00
869.9780, 16318.00
871.1100, 16263.00
872.2410, 16348.00
873.3730, 16494.00
874.5050, 16244.00
875.6360, 16345.00
876.7670, 16375.00
877.8980, 16270.00
879.0290, 16277.00
880.1590, 16258.00
881.2900, 16174.00
882.4200, 16352.00
883.5500, 16250.00
884.6800, 16316.00
885.8100, 16353.00
886.9400, 16379.00
888.0690, 16343.00
889.1990, 16424.00
890.3280, 16462.00
891.4570, 16271.00
892.5860, 16463.00
893.7140, 16450.00
894.8430, 16432.00
895.9710, 16616.00
897.1000, 16580.00
898.2280, 16529.00
899.3560, 16601.00
900.4830, 16611.00
901.6110, 16593.04
902.7380, 16506.00
903.8660, 16572.00
904.9930, 16505.00
906.1200, 16493.00
907.2460, 16615.00
908.3730, 16610.00
909.5000, 16617.00
910.6260, 16644.00
911.7520, 16640.24
912.8780, 16562.00
914.0040, 16643.00
915.1290, 16621.00
916.2550, 16599.00
917.3800, 16749.00
918.5050, 16766.00
919.6300, 16763.00
920.7550, 16796.73
921.8800, 16675.00
923.0040, 16801.00
924.1290, 16711.00
925.2530, 16784.00
926.3770, 16666.00
927.5010, 16806.00
928.6250, 16934.00
929.7480, 16802.00
930.8720, 16924.00
931.9950, 16970.00
933.1180, 17065.00
934.2410, 17020.00
935.3640, 17117.00
936.4860, 17102.00
937.6090, 16957.00
938.7310, 17189.00
939.8530, 17257.00
940.9750, 17144.00
942.0970, 17321.00
943.2180, 17446.00
944.3400, 17681.00
945.4610, 17806.00
946.5820, 17955.00
947.7030, 18286.00
948.8240, 18137.00
949.9450, 18677.00
951.0650, 18727.00
952.1860, 19014.00
953.3060, 19189.00
954.4260, 19353.00
955.5460, 19163.00
956.6650, 19070.00
957.7850, 19141.00
958.9040, 18798.00
960.0230, 18755.00
961.1420, 18602.00
962.2610, 18460.00
963.3800, 18451.00
964.4990, 18252.00
965.6170, 18491.00
966.7350, 18342.00
967.8530, 18468.00
968.9710, 18365.00
970.0890, 18586.00
971.2070, 18659.00
972.3240, 18660.00
973.4410, 18723.00
974.5580, 18845.00
975.6750, 19011.00
976.7920, 19164.00
977.9090, 19328.00
979.0250, 19736.00
980.1410, 19795.00
981.2580, 20097.00
982.3740, 20221.00
983.4890, 20321.00
984.6050, 20635.00
985.7200, 21002.00
986.8360, 20937.00
987.9510, 21161.00
989.0660, 21255.00
990.1810, 21480.00
991.2950, 21768.00
992.4100, 21998.00
993.5240, 22247.00
994.6390, 22072.00
995.7530, 22176.00
996.8660, 21992.00
997.9800, 21560.00
999.0940, 21187.00
1000.207, 20776.00
1001.320, 20446.00
1002.433, 20109.00
1003.546, 19647.00
1004.659, 19284.00
1005.772, 19140.00
1006.884, 18858.00
1007.996, 18780.00
1009.108, 18562.00
1010.220, 18384.00
1011.332, 18373.00
1012.444, 18262.00
1013.555, 18351.00
1014.666, 18190.00
1015.777, 18193.00
1016.888, 18270.00
1017.999, 18200.00
1019.110, 18261.00
1020.220, 18234.00
1021.331, 18283.00
1022.441, 18189.00
1023.551, 18259.77
1024.661, 18368.00
1025.770, 18359.00
1026.880, 18496.00
1027.989, 18569.00
1029.098, 18578.00
1030.207, 18847.00
1031.316, 18671.00
1032.425, 18793.00
1033.533, 18939.00
1034.642, 18962.00
1035.750, 19182.00
1036.858, 19438.00
1037.966, 19570.00
1039.073, 19814.00
1040.181, 19950.00
1041.288, 20321.00
1042.396, 20601.00
1043.503, 21128.00
1044.610, 21706.00
1045.716, 22200.00
1046.823, 22751.00
1047.929, 23394.00
1049.036, 23981.00
1050.142, 24640.00
1051.248, 25356.00
1052.353, 25831.00
1053.459, 25970.00
1054.564, 25948.00
1055.670, 25667.00
1056.775, 25111.00
1057.880, 24607.00
1058.985, 24068.00
1060.089, 23385.00
1061.194, 23079.00
1062.298, 22454.00
1063.402, 21985.00
1064.506, 21640.00
1065.610, 21367.00
1066.713, 20994.00
1067.817, 20755.69
1068.920, 20404.00
1070.023, 20310.00
1071.126, 20060.00
1072.229, 19940.00
1073.332, 19805.00
1074.435, 19719.00
1075.537, 19498.00
1076.639, 19733.00
1077.741, 19391.00
1078.843, 19310.00
1079.945, 19311.00
1081.046, 19620.00
1082.148, 19471.62
1083.249, 19520.00
1084.350, 19391.00
1085.451, 19480.00
1086.551, 19388.00
1087.652, 19537.00
1088.752, 19451.00
1089.853, 19605.00
1090.953, 19679.00
1092.053, 19832.00
1093.152, 19899.35
1094.252, 20029.00
1095.351, 20035.00
1096.451, 20182.00
1097.550, 20251.00
1098.649, 20597.00
1099.748, 20625.00
1100.846, 20551.00
1101.945, 20770.00
1103.043, 20704.00
1104.141, 20483.00
1105.239, 20491.00
1106.337, 20230.00
1107.434, 19998.00
1108.532, 20020.00
1109.629, 19785.90
1110.726, 19621.00
1111.823, 19511.00
1112.920, 19444.00
1114.017, 19283.00
1115.113, 19126.00
1116.210, 19100.00
1117.306, 19046.70
1118.402, 19013.00
1119.498, 19076.00
1120.593, 19144.00
1121.689, 19185.00
1122.784, 19143.61
1123.879, 18930.00
1124.974, 18964.00
1126.069, 19057.00
1127.164, 18868.00
1128.259, 18976.00
1129.353, 19045.00
1130.447, 18978.00
1131.541, 18910.00
1132.635, 18898.00
1133.729, 18928.00
1134.822, 19035.00
1135.916, 19055.00
1137.009, 19156.00
1138.102, 19050.00
1139.195, 18917.00
1140.288, 18973.00
1141.380, 18816.00
1142.473, 19023.00
1143.565, 19010.00
1144.657, 18926.00
1145.749, 18822.00
1146.841, 18867.00
1147.932, 19069.00
1149.024, 18895.00
1150.115, 19069.00
1151.206, 18971.00
1152.297, 18927.00
1153.388, 19008.00
1154.479, 19125.00
1155.569, 19050.00
1156.659, 19116.00
1157.750, 18989.00
1158.839, 19016.00
1159.929, 18899.00
1161.019, 18919.18
1162.108, 19141.00
1163.198, 18975.00
1164.287, 19122.00
1165.376, 19206.00
1166.465, 19045.00
1167.553, 19220.00
1168.642, 19104.00
1169.730, 19221.00
1170.818, 19144.00
1171.906, 19175.00
1172.994, 19221.00
1174.082, 19079.00
1175.170, 19199.00
1176.257, 19266.00
1177.344, 19169.00
1178.431, 19195.00
1179.518, 19312.00
1180.605, 19349.00
1181.691, 19196.00
1182.778, 19339.00
1183.864, 19292.00
1184.950, 19279.00
1186.036, 19418.00
1187.122, 19317.08
1188.207, 19452.00
1189.292, 19365.00
1190.378, 19250.00
1191.463, 19561.00
1192.548, 19194.00
1193.632, 19508.00
1194.717, 19451.00
1195.801, 19404.00
1196.886, 19368.00
1197.970, 19449.00
1199.054, 19478.00
1200.137, 19513.00
1201.221, 19474.00
1202.305, 19493.00
1203.388, 19439.00
1204.471, 19523.00
1205.554, 19558.00
1206.637, 19390.00
1207.719, 19501.00
1208.802, 19464.38
1209.884, 19460.00
1210.966, 19484.00
1212.048, 19582.00
1213.130, 19574.00
1214.212, 19501.00
1215.293, 19646.00
1216.374, 19502.00
1217.456, 19710.00
1218.536, 19624.00
1219.617, 19693.00
1220.698, 19621.00
1221.778, 19899.00
1222.859, 19707.00
1223.939, 19872.00
1225.019, 19716.00
1226.099, 19570.00
1227.178, 19702.00
1228.258, 19833.00
1229.337, 19738.00
1230.417, 19688.00
1231.496, 19918.00
1232.574, 19755.00
1233.653, 19809.00
1234.732, 20110.00
1235.810, 19892.00
1236.888, 20021.00
1237.966, 19939.00
1239.044, 19793.00
1240.122, 19887.00
1241.199, 20019.00
1242.277, 19791.00
1243.354, 20108.00
1244.431, 20015.00
1245.508, 19939.00
1246.585, 19927.00
1247.661, 19990.00
1248.738, 19905.00
1249.814, 19953.00
1250.890, 20094.00
1251.966, 19861.00
1253.042, 20023.00
1254.117, 19963.00
1255.193, 20012.00
1256.268, 20032.00
1257.343, 20035.00
1258.418, 19963.00
1259.493, 20098.00
1260.567, 20042.00
1261.642, 20137.00
1262.716, 20161.00
1263.790, 19901.00
1264.864, 20178.00
1265.938, 20259.00
1267.011, 20060.00
1268.085, 20172.00
1269.158, 20269.00
1270.231, 20383.00
1271.304, 20431.00
1272.377, 20258.00
1273.450, 20271.00
1274.522, 20164.00
1275.594, 20189.00
1276.666, 20344.00
1277.738, 20219.00
1278.810, 20423.00
1279.882, 20396.00
1280.953, 20224.00
1282.025, 20221.00
1283.096, 20209.62
1284.167, 20277.00
1285.238, 20265.00
1286.308, 20382.00
1287.379, 20437.00
1288.449, 20212.00
1289.519, 20428.00
1290.589, 20364.00
1291.659, 20522.00
1292.729, 20359.00
1293.798, 20361.00
1294.868, 20391.64
1295.937, 20502.00
1297.006, 20442.00
1298.075, 20504.00
1299.143, 20602.00
1300.212, 20602.00
1301.280, 20629.00
1302.348, 20587.00
1303.416, 20593.28
1304.484, 20526.00
1305.552, 20606.00
1306.620, 20644.00
1307.687, 20737.00
1308.754, 20713.00
1309.821, 20637.00
1310.888, 20670.00
1311.955, 20729.00
1313.021, 20629.00
1314.088, 20805.00
1315.154, 20826.00
1316.220, 20882.00
1317.286, 20919.00
1318.352, 20897.00
1319.417, 20928.62
1320.483, 20750.00
1321.548, 20938.00
1322.613, 20860.00
1323.678, 20866.00
1324.743, 20946.00
1325.807, 20872.00
1326.872, 20875.00
1327.936, 20799.00
1329.000, 20963.00
1330.064, 20765.00
1331.128, 20953.00
1332.191, 20897.00
1333.255, 20946.00
1334.318, 20952.00
1335.381, 21002.00
1336.444, 21019.00
1337.507, 21053.01
1338.569, 21099.00
1339.632, 21089.00
1340.694, 21058.00
1341.756, 21000.00
1342.818, 20887.00
1343.880, 21100.00
1344.941, 21089.00
1346.003, 21009.00
1347.064, 21028.00
1348.125, 21221.00
1349.186, 21096.00
1350.247, 21137.00
1351.308, 21167.00
1352.368, 20959.00
1353.428, 21106.00
1354.489, 21129.00
1355.549, 21075.00
1356.608, 21261.00
1357.668, 21417.00
1358.727, 21163.00
1359.787, 21264.00
1360.846, 21321.00
1361.905, 21074.00
1362.964, 21175.00
1364.022, 21155.00
1365.081, 21540.00
1366.139, 21446.00
1367.197, 21381.00
1368.255, 21262.00
1369.313, 21235.00
1370.371, 21474.00
1371.428, 21420.00
1372.486, 21515.00
1373.543, 21470.00
1374.600, 21267.00
1375.657, 21367.00
1376.713, 21373.00
1377.770, 21305.00
1378.826, 21528.00
1379.882, 21569.00
1380.938, 21490.00
1381.994, 21519.00
1383.050, 21418.00
1384.106, 21467.00
1385.161, 21571.00
1386.216, 21445.00
1387.271, 21422.00
1388.326, 21652.00
1389.381, 21545.00
1390.435, 21480.00
1391.490, 21551.00
1392.544, 21618.00
1393.598, 21558.00
1394.652, 21594.00
1395.705, 21605.18
1396.759, 21589.00
1397.812, 21655.00
1398.866, 21630.00
1399.919, 21701.00
1400.972, 21634.00
1402.024, 21807.00
1403.077, 21750.00
1404.129, 21608.00
1405.181, 21549.00
1406.233, 21759.00
1407.285, 21673.00
1408.337, 21705.00
1409.389, 21661.00
1410.440, 21863.00
1411.491, 21870.00
1412.542, 21755.00
1413.593, 21629.00
1414.644, 21799.00
1415.695, 21765.00
1416.745, 21802.00
1417.795, 21842.00
1418.845, 21868.00
1419.895, 21995.00
1420.945, 21929.84
1421.995, 21942.00
1423.044, 21944.00
1424.093, 21832.00
1425.142, 22052.00
1426.191, 21879.00
1427.240, 21942.00
1428.289, 22143.00
1429.337, 22016.00
1430.385, 22061.00
1431.433, 22129.00
1432.481, 22012.00
1433.529, 21989.00
1434.577, 22421.00
1435.624, 22074.00
1436.672, 22291.00
1437.719, 22201.00
1438.766, 22064.00
1439.812, 22371.00
1440.859, 22321.00
1441.905, 22221.00
1442.952, 22333.00
1443.998, 22400.00
1445.044, 22280.00
1446.090, 22547.00
1447.135, 22401.00
1448.181, 22590.00
1449.226, 22326.00
1450.271, 22414.00
1451.316, 22602.00
1452.361, 22867.00
1453.405, 22497.00
1454.450, 22649.00
1455.494, 22777.00
1456.538, 22551.00
1457.582, 22712.00
1458.626, 22558.00
1459.670, 22682.00
1460.713, 22645.00
1461.757, 22529.00
1462.800, 22506.00
1463.843, 22566.42
1464.886, 22539.52
1465.928, 22682.00
1466.971, 22628.00
1468.013, 22532.00
1469.055, 22607.00
1470.097, 22677.00
1471.139, 22664.00
1472.181, 22432.00
1473.222, 22548.00
1474.263, 22547.00
1475.305, 22646.00
1476.346, 22630.09
1477.386, 22608.00
1478.427, 22671.00
1479.468, 22595.00
1480.508, 22783.00
1481.548, 22440.00
1482.588, 22724.00
1483.628, 22553.00
1484.668, 22630.00
1485.707, 22828.00
1486.747, 22872.00
1487.786, 22775.00
1488.825, 22923.00
1489.864, 22683.00
1490.902, 22830.00
1491.941, 22660.00
1492.979, 22705.00
1494.017, 22711.00
1495.055, 22695.57
1496.093, 22699.00
1497.131, 22758.00
1498.168, 22809.00
1499.206, 22829.00
1500.243, 22804.00
1501.280, 22801.00
1502.317, 22710.00
1503.354, 22831.00
1504.390, 22951.00
1505.426, 22946.00
1506.463, 22806.00
1507.499, 22913.00
1508.535, 22919.00
1509.570, 23016.00
1510.606, 22954.00
1511.641, 22997.00
1512.676, 22973.00
1513.711, 22954.00
1514.746, 23027.00
1515.781, 23131.00
1516.816, 23087.00
1517.850, 23056.00
1518.884, 23007.00
1519.918, 23039.00
1520.952, 23105.00
1521.986, 23241.00
1523.019, 23231.00
1524.053, 23159.00
1525.086, 22984.00
1526.119, 23376.00
1527.152, 23040.00
1528.185, 23196.00
1529.217, 23125.00
1530.250, 23205.00
1531.282, 23399.00
1532.314, 23237.00
1533.346, 23367.85
1534.377, 23166.00
1535.409, 23407.00
1536.440, 23286.00
1537.472, 23252.00
1538.503, 23246.00
1539.534, 23213.00
1540.564, 23265.37
1541.595, 23205.00
1542.625, 23407.00
1543.656, 23443.00
1544.686, 23562.00
1545.716, 23242.00
1546.745, 23352.00
1547.775, 23269.00
1548.804, 23328.00
1549.834, 23266.00
1550.863, 23310.00
1551.892, 23492.00
1552.920, 23573.00
1553.949, 23612.00
1554.977, 23603.00
1556.006, 23504.00
1557.034, 23479.00
1558.062, 23506.00
1559.089, 23422.00
1560.117, 23578.00
1561.144, 23574.00
1562.172, 23653.00
1563.199, 23484.00
1564.226, 23676.00
1565.252, 23589.00
1566.279, 23599.00
1567.305, 23614.00
1568.332, 23439.00
1569.358, 23593.00
1570.384, 23622.00
1571.409, 23527.00
1572.435, 23676.00
##END=



