##NAMES=Elbaite
##RRUFFID=R050260
##IDEAL CHEMISTRY=Na(Al_1.5_Li_1.5_)Al_6_(Si_6_O_18_)(BO_3_)_3_(OH)_3_OH
##LOCALITY=Minas Gerais, Brazil
##OWNER=RRUFF
##SOURCE=Marcus Origlieri
##DESCRIPTION=Greenish-gray prismatic single crystal
##STATUS=The identification of this mineral has been confirmed by X-ray diffraction and chemical analysis
##URL=rruff.info/R050260
##MEASURED CHEMISTRY=(Na_0.76_[box]_0.17_Ca_0.07_)_Σ=1_(Al_1.67_Li_0.97_Mn_0.36_)_Σ=3_Al_6.00_(B_1.00_O_3_)_3_Si_6.00_O_18_((OH)_3.40_F_0.60_)_Σ=4_; B assumed by stoichiometry; OH estimated by charge balance
##PIN_ID=L01964
##ORIENTATION=Laser parallel to a* (1 0 0). Fiducial mark perpendicular to laser is parallel to -c [0 0 -1]
118.1340, 15534.00
119.3650, 15624.00
120.5960, 15586.00
121.8270, 15652.00
123.0580, 16185.00
124.2880, 16147.00
125.5190, 16020.00
126.7490, 15777.00
127.9790, 16146.00
129.2090, 16327.00
130.4390, 16601.00
131.6680, 16622.00
132.8980, 16528.00
134.1270, 16429.00
135.3560, 16470.69
136.5850, 16602.00
137.8140, 16539.00
139.0430, 16612.00
140.2710, 16717.00
141.5000, 16178.00
142.7280, 15807.00
143.9560, 15800.00
145.1840, 15738.00
146.4120, 15708.00
147.6390, 16070.00
148.8670, 16317.00
150.0940, 16517.00
151.3210, 17068.00
152.5490, 17353.00
153.7750, 17636.00
155.0020, 17888.00
156.2290, 18023.57
157.4550, 18016.00
158.6810, 18154.00
159.9080, 18131.00
161.1340, 18016.00
162.3590, 18193.00
163.5850, 18008.00
164.8110, 18139.00
166.0360, 17752.00
167.2610, 17412.00
168.4860, 17098.00
169.7110, 16996.00
170.9360, 16982.00
172.1610, 16597.00
173.3850, 16494.00
174.6100, 16145.00
175.8340, 16065.00
177.0580, 16198.00
178.2820, 16074.00
179.5050, 16230.00
180.7290, 16108.00
181.9520, 16231.00
183.1760, 16199.00
184.3990, 16522.00
185.6220, 16578.00
186.8450, 16701.00
188.0670, 17140.00
189.2900, 17291.00
190.5120, 17552.00
191.7340, 17722.00
192.9560, 17992.00
194.1780, 18313.00
195.4000, 18574.00
196.6220, 18937.00
197.8430, 18995.00
199.0640, 19204.00
200.2860, 19595.00
201.5070, 20205.00
202.7270, 20387.00
203.9480, 20612.00
205.1690, 20577.00
206.3890, 21230.00
207.6090, 21556.00
208.8290, 22707.00
210.0490, 23629.00
211.2690, 24917.00
212.4890, 26363.00
213.7080, 27837.00
214.9280, 29088.00
216.1470, 30365.00
217.3660, 32246.00
218.5850, 33684.00
219.8030, 35542.00
221.0220, 37387.00
222.2400, 38866.00
223.4590, 40256.00
224.6770, 40503.00
225.8950, 39842.00
227.1120, 38589.00
228.3300, 36321.00
229.5480, 34273.00
230.7650, 32585.00
231.9820, 31108.00
233.1990, 29783.00
234.4160, 28639.00
235.6330, 27922.00
236.8490, 27213.00
238.0660, 26981.00
239.2820, 26840.00
240.4980, 26569.00
241.7140, 26477.00
242.9300, 26375.00
244.1460, 26152.00
245.3610, 26074.00
246.5770, 25741.00
247.7920, 25493.00
249.0070, 24795.00
250.2220, 24290.00
251.4370, 23694.00
252.6510, 23118.00
253.8660, 22512.00
255.0800, 22078.00
256.2940, 21799.00
257.5080, 21938.00
258.7220, 21588.88
259.9360, 21285.66
261.1490, 21268.00
262.3630, 20644.00
263.5760, 20406.00
264.7890, 20440.00
266.0020, 20518.00
267.2150, 20513.00
268.4270, 20717.00
269.6400, 20778.00
270.8520, 20875.00
272.0640, 20928.00
273.2760, 20961.00
274.4880, 20971.00
275.7000, 20877.00
276.9120, 20801.57
278.1230, 20730.00
279.3340, 20528.00
280.5450, 20285.00
281.7560, 20120.00
282.9670, 19806.00
284.1780, 19578.00
285.3880, 19537.00
286.5980, 19175.00
287.8090, 19118.00
289.0190, 18944.00
290.2290, 18883.00
291.4380, 18593.00
292.6480, 18625.00
293.8570, 18365.00
295.0670, 18340.00
296.2760, 18392.00
297.4850, 18473.00
298.6930, 18293.00
299.9020, 18357.00
301.1110, 18493.00
302.3190, 18677.00
303.5270, 18874.49
304.7350, 19142.00
305.9430, 19378.00
307.1510, 19685.00
308.3580, 19962.00
309.5660, 20362.00
310.7730, 20453.00
311.9800, 20757.00
313.1870, 21235.00
314.3940, 21174.00
315.6010, 21688.00
316.8070, 21809.00
318.0130, 22218.00
319.2200, 22812.00
320.4260, 23046.00
321.6310, 23467.00
322.8370, 24156.00
324.0430, 24861.00
325.2480, 25322.00
326.4540, 25967.00
327.6590, 26357.00
328.8640, 27203.00
330.0680, 27580.00
331.2730, 28100.00
332.4780, 28316.00
333.6820, 28944.00
334.8860, 29070.00
336.0900, 29296.00
337.2940, 29142.00
338.4980, 29209.00
339.7010, 29029.00
340.9050, 28808.00
342.1080, 28661.00
343.3110, 28394.00
344.5140, 28015.00
345.7170, 28294.00
346.9200, 28155.00
348.1220, 28276.00
349.3240, 27965.00
350.5270, 28239.00
351.7290, 28288.00
352.9310, 28319.00
354.1320, 28594.00
355.3340, 29205.00
356.5350, 29632.00
357.7370, 30454.00
358.9380, 31319.00
360.1390, 32744.00
361.3400, 34528.00
362.5400, 36295.00
363.7410, 38408.00
364.9410, 40164.00
366.1410, 42339.00
367.3410, 44296.00
368.5410, 46455.00
369.7410, 49220.00
370.9400, 51645.00
372.1400, 54813.00
373.3390, 57747.00
374.5380, 59924.00
375.7370, 60382.00
376.9360, 59446.00
378.1350, 57423.00
379.3330, 54038.00
380.5310, 50995.00
381.7300, 47797.00
382.9280, 44480.00
384.1260, 41759.00
385.3230, 39577.00
386.5210, 37274.00
387.7180, 35476.00
388.9160, 34389.00
390.1130, 33227.00
391.3100, 32212.00
392.5060, 31504.00
393.7030, 30701.00
394.9000, 30220.00
396.0960, 29620.00
397.2920, 29521.00
398.4880, 29402.00
399.6840, 29279.00
400.8800, 29114.00
402.0750, 29078.00
403.2710, 29307.00
404.4660, 29087.00
405.6610, 29136.00
406.8560, 28986.00
408.0510, 28904.00
409.2450, 28777.00
410.4400, 28416.56
411.6340, 27992.00
412.8280, 27552.00
414.0220, 27101.00
415.2160, 26481.00
416.4100, 25716.00
417.6030, 24648.00
418.7970, 24049.00
419.9900, 23406.00
421.1830, 22888.00
422.3760, 22243.00
423.5690, 21860.00
424.7610, 21378.00
425.9540, 21227.00
427.1460, 20826.00
428.3380, 20923.00
429.5300, 20693.00
430.7220, 20611.00
431.9140, 20507.00
433.1050, 20521.00
434.2970, 20576.00
435.4880, 20451.00
436.6790, 20455.00
437.8700, 20553.00
439.0610, 20778.00
440.2510, 20918.00
441.4420, 20952.00
442.6320, 21108.00
443.8220, 21235.00
445.0120, 21349.22
446.2020, 21377.00
447.3910, 21587.00
448.5810, 21545.00
449.7700, 21563.00
450.9600, 21669.00
452.1490, 21647.00
453.3370, 21572.00
454.5260, 21645.00
455.7150, 21531.00
456.9030, 21415.00
458.0910, 21531.00
459.2800, 21357.00
460.4670, 21365.00
461.6550, 21448.00
462.8430, 21166.00
464.0300, 21172.00
465.2180, 20926.00
466.4050, 21085.00
467.5920, 21040.00
468.7790, 20804.00
469.9650, 20912.00
471.1520, 20770.00
472.3380, 20679.00
473.5250, 20524.00
474.7110, 20486.00
475.8970, 20563.00
477.0820, 20505.00
478.2680, 20620.70
479.4540, 20754.00
480.6390, 20829.00
481.8240, 20933.00
483.0090, 21016.00
484.1940, 21278.00
485.3780, 21518.00
486.5630, 21811.00
487.7470, 22087.00
488.9320, 22313.00
490.1160, 22546.00
491.3000, 22885.00
492.4830, 23030.00
493.6670, 23289.00
494.8500, 23589.00
496.0340, 23574.00
497.2170, 24067.00
498.4000, 23808.00
499.5820, 23924.00
500.7650, 23980.00
501.9480, 24126.00
503.1300, 24189.00
504.3120, 24243.00
505.4940, 24284.00
506.6760, 24296.00
507.8580, 24452.00
509.0390, 24531.00
510.2210, 24396.00
511.4020, 24265.00
512.5830, 24229.00
513.7640, 24317.00
514.9450, 24137.00
516.1250, 24138.00
517.3060, 23750.00
518.4860, 23573.00
519.6660, 23379.00
520.8460, 23220.00
522.0260, 22932.00
523.2060, 22677.00
524.3850, 22637.00
525.5650, 22558.00
526.7440, 22449.99
527.9230, 22440.90
529.1020, 22365.00
530.2810, 22462.00
531.4590, 22505.00
532.6380, 22669.00
533.8160, 22752.00
534.9940, 22775.66
536.1720, 22931.00
537.3500, 22815.00
538.5270, 22876.00
539.7050, 22914.00
540.8820, 22956.00
542.0590, 22627.00
543.2360, 22320.00
544.4130, 22282.00
545.5900, 22014.00
546.7660, 21757.00
547.9430, 21404.00
549.1190, 21206.00
550.2950, 21154.00
551.4710, 20900.00
552.6470, 20728.00
553.8220, 20441.00
554.9980, 20376.00
556.1730, 20295.00
557.3480, 20239.00
558.5230, 20058.00
559.6980, 19858.00
560.8730, 19704.00
562.0470, 19567.00
563.2220, 19399.00
564.3960, 19277.00
565.5700, 19289.00
566.7440, 19107.00
567.9170, 18977.00
569.0910, 18909.00
570.2640, 19016.00
571.4380, 18788.00
572.6110, 18765.00
573.7840, 18574.00
574.9570, 18760.00
576.1290, 18502.00
577.3020, 18574.00
578.4740, 18513.00
579.6460, 18309.00
580.8180, 18378.00
581.9900, 18387.00
583.1620, 18125.00
584.3330, 18074.00
585.5040, 18111.00
586.6760, 18065.00
587.8470, 18133.00
589.0180, 17952.00
590.1880, 17987.00
591.3590, 17756.00
592.5290, 17946.00
593.7000, 17785.00
594.8700, 17857.00
596.0400, 17854.00
597.2090, 17832.00
598.3790, 17663.00
599.5490, 17736.00
600.7180, 17733.00
601.8870, 17806.00
603.0560, 17792.00
604.2250, 17829.00
605.3940, 17908.00
606.5620, 17931.00
607.7300, 17970.00
608.8990, 17942.00
610.0670, 17883.00
611.2350, 18013.00
612.4020, 17969.00
613.5700, 17964.00
614.7370, 18084.00
615.9050, 18236.00
617.0720, 18209.00
618.2390, 18359.00
619.4060, 18403.00
620.5720, 18772.00
621.7390, 18877.00
622.9050, 19288.00
624.0710, 19555.00
625.2370, 19850.00
626.4030, 20315.64
627.5690, 20697.72
628.7340, 21283.00
629.9000, 21719.00
631.0650, 22332.00
632.2300, 23048.00
633.3950, 23160.00
634.5600, 23440.00
635.7240, 23287.00
636.8890, 23191.00
638.0530, 22886.00
639.2170, 22371.00
640.3810, 21848.00
641.5450, 21280.00
642.7080, 20849.00
643.8720, 20354.31
645.0350, 19744.00
646.1980, 19462.00
647.3610, 19154.00
648.5240, 18735.00
649.6870, 18526.00
650.8490, 18279.00
652.0120, 18242.00
653.1740, 18081.00
654.3360, 17866.00
655.4980, 17865.00
656.6600, 17760.00
657.8210, 17841.00
658.9830, 17879.00
660.1440, 17716.00
661.3050, 17699.00
662.4660, 17728.00
663.6270, 17841.00
664.7870, 17648.00
665.9480, 17608.00
667.1080, 17608.00
668.2680, 17499.00
669.4280, 17531.00
670.5880, 17410.00
671.7480, 17442.00
672.9070, 17387.00
674.0670, 17483.00
675.2260, 17584.00
676.3850, 17603.00
677.5440, 17625.95
678.7030, 17641.00
679.8610, 17628.00
681.0200, 17610.00
682.1780, 17682.00
683.3360, 17774.00
684.4940, 17745.00
685.6520, 17945.00
686.8090, 18159.00
687.9670, 18359.00
689.1240, 18881.00
690.2810, 19288.00
691.4380, 20123.00
692.5950, 20904.00
693.7520, 21854.00
694.9080, 23045.00
696.0650, 24431.00
697.2210, 25599.00
698.3770, 27261.00
699.5330, 28570.00
700.6880, 30180.00
701.8440, 31800.00
702.9990, 33120.00
704.1550, 34600.00
705.3100, 35534.00
706.4650, 36600.00
707.6190, 36683.00
708.7740, 36883.00
709.9290, 35997.00
711.0830, 35035.00
712.2370, 33669.00
713.3910, 31912.00
714.5450, 30245.00
715.6980, 28616.00
716.8520, 26887.00
718.0050, 25434.00
719.1580, 24041.00
720.3110, 22887.28
721.4640, 21976.00
722.6170, 21100.00
723.7700, 20539.00
724.9220, 20145.00
726.0740, 19729.00
727.2260, 19450.00
728.3780, 19270.08
729.5300, 19239.00
730.6810, 19167.00
731.8330, 19279.00
732.9840, 19482.00
734.1350, 19885.00
735.2860, 20115.00
736.4370, 20626.00
737.5880, 21194.00
738.7380, 22080.00
739.8880, 23037.00
741.0390, 24132.00
742.1890, 25404.00
743.3380, 26973.00
744.4880, 28812.00
745.6380, 30758.00
746.7870, 32326.00
747.9360, 34368.00
749.0850, 36314.00
750.2340, 38172.00
751.3830, 39553.00
752.5310, 40379.00
753.6800, 40176.00
754.8280, 39280.00
755.9760, 38062.00
757.1240, 36286.00
758.2720, 34159.00
759.4190, 32713.00
760.5670, 30879.00
761.7140, 29745.00
762.8610, 28705.00
764.0080, 27514.00
765.1550, 26626.00
766.3020, 25684.00
767.4480, 24919.71
768.5950, 24432.00
769.7410, 23699.00
770.8870, 23271.00
772.0330, 22926.00
773.1780, 22605.00
774.3240, 22335.00
775.4690, 22267.00
776.6140, 22090.00
777.7590, 21695.00
778.9040, 21134.00
780.0490, 20588.00
781.1940, 19823.00
782.3380, 19274.00
783.4820, 18539.00
784.6260, 18025.00
785.7700, 17433.00
786.9140, 17111.00
788.0580, 16698.00
789.2010, 16500.00
790.3450, 16240.00
791.4880, 15923.00
792.6310, 15899.00
793.7730, 15856.00
794.9160, 15669.00
796.0590, 15558.00
797.2010, 15421.00
798.3430, 15299.00
799.4850, 15351.00
800.6270, 15150.00
801.7690, 15147.00
802.9100, 15239.00
804.0520, 15142.00
805.1930, 15005.00
806.3340, 14793.00
807.4750, 14816.00
808.6160, 14956.00
809.7560, 14921.00
810.8970, 14932.34
812.0370, 15061.00
813.1770, 14827.00
814.3170, 15007.00
815.4570, 14878.00
816.5960, 15011.00
817.7360, 14933.00
818.8750, 15072.00
820.0140, 15003.00
821.1530, 15051.00
822.2920, 15336.00
823.4310, 15415.00
824.5690, 15724.00
825.7070, 15841.00
826.8460, 15965.00
827.9840, 16240.00
829.1220, 16588.00
830.2590, 16922.00
831.3970, 17292.00
832.5340, 17470.00
833.6710, 17737.00
834.8080, 18109.00
835.9450, 17975.00
837.0820, 18314.00
838.2190, 18108.00
839.3550, 18125.00
840.4910, 17842.00
841.6270, 17753.00
842.7630, 17559.00
843.8990, 17416.00
845.0350, 17296.00
846.1700, 17018.00
847.3060, 16798.00
848.4410, 16614.00
849.5760, 16461.00
850.7100, 16537.00
851.8450, 16423.00
852.9800, 16422.00
854.1140, 16534.00
855.2480, 16510.00
856.3820, 16636.00
857.5160, 16484.00
858.6500, 16471.00
859.7830, 16421.00
860.9170, 16276.00
862.0500, 16396.00
863.1830, 16471.00
864.3160, 16296.00
865.4480, 15923.86
866.5810, 16158.03
867.7130, 16258.69
868.8460, 16232.91
869.9780, 15702.29
871.1100, 15823.65
872.2410, 15683.79
873.3730, 15533.15
874.5050, 15746.28
875.6360, 15445.00
876.7670, 15485.00
877.8980, 15341.00
879.0290, 15391.00
880.1590, 15255.00
881.2900, 15288.00
882.4200, 15096.00
883.5500, 15165.00
884.6800, 15088.00
885.8100, 15141.00
886.9400, 14996.00
888.0690, 15037.00
889.1990, 14978.00
890.3280, 14909.00
891.4570, 14744.00
892.5860, 14699.93
893.7140, 14769.00
894.8430, 14600.00
895.9710, 14595.00
897.1000, 14679.00
898.2280, 14673.00
899.3560, 14704.00
900.4830, 14508.00
901.6110, 14510.00
902.7380, 14583.00
903.8660, 14461.00
904.9930, 14522.00
906.1200, 14562.00
907.2460, 14600.00
908.3730, 14445.00
909.5000, 14550.00
910.6260, 14569.00
911.7520, 14461.00
912.8780, 14627.00
914.0040, 14501.00
915.1290, 14667.00
916.2550, 14579.00
917.3800, 14645.00
918.5050, 14706.00
919.6300, 14659.00
920.7550, 14822.00
921.8800, 14876.00
923.0040, 15073.00
924.1290, 14986.00
925.2530, 15085.00
926.3770, 15174.00
927.5010, 15244.00
928.6250, 15397.00
929.7480, 15596.00
930.8720, 15550.00
931.9950, 15801.00
933.1180, 15840.00
934.2410, 16070.00
935.3640, 16250.00
936.4860, 16157.00
937.6090, 16262.00
938.7310, 16261.00
939.8530, 16427.00
940.9750, 16723.00
942.0970, 16495.00
943.2180, 17197.00
944.3400, 16819.00
945.4610, 16766.00
946.5820, 16881.00
947.7030, 17121.00
948.8240, 17150.00
949.9450, 17055.00
951.0650, 17306.00
952.1860, 17277.00
953.3060, 17226.00
954.4260, 17258.00
955.5460, 17603.00
956.6650, 17342.00
957.7850, 17507.00
958.9040, 17711.00
960.0230, 17670.00
961.1420, 17780.00
962.2610, 18084.00
963.3800, 17955.00
964.4990, 18076.00
965.6170, 18034.00
966.7350, 18184.00
967.8530, 18349.00
968.9710, 18548.00
970.0890, 18436.00
971.2070, 18474.00
972.3240, 18538.00
973.4410, 18733.00
974.5580, 18945.00
975.6750, 18842.00
976.7920, 19027.00
977.9090, 18945.00
979.0250, 19151.00
980.1410, 19111.00
981.2580, 19128.00
982.3740, 19116.00
983.4890, 19159.00
984.6050, 19175.00
985.7200, 19090.00
986.8360, 19275.00
987.9510, 19175.00
989.0660, 18892.00
990.1810, 19130.00
991.2950, 19038.00
992.4100, 19123.00
993.5240, 18887.00
994.6390, 19092.00
995.7530, 18840.00
996.8660, 18909.00
997.9800, 18875.00
999.0940, 18878.00
1000.207, 18965.00
1001.320, 18985.00
1002.433, 18985.00
1003.546, 18837.00
1004.659, 18974.00
1005.772, 19033.00
1006.884, 19099.00
1007.996, 19251.00
1009.108, 19335.00
1010.220, 19424.00
1011.332, 19543.05
1012.444, 19673.41
1013.555, 19815.00
1014.666, 19982.00
1015.777, 20266.00
1016.888, 20457.00
1017.999, 20746.00
1019.110, 20886.00
1020.220, 21044.00
1021.331, 21379.00
1022.441, 21535.00
1023.551, 21743.00
1024.661, 21674.00
1025.770, 21831.00
1026.880, 22200.00
1027.989, 22377.00
1029.098, 22669.00
1030.207, 22697.00
1031.316, 23125.00
1032.425, 23457.00
1033.533, 24011.00
1034.642, 24516.00
1035.750, 24803.00
1036.858, 25530.00
1037.966, 26498.00
1039.073, 27041.00
1040.181, 28158.00
1041.288, 29179.00
1042.396, 30196.00
1043.503, 31936.00
1044.610, 33051.00
1045.716, 34619.00
1046.823, 36156.00
1047.929, 37687.00
1049.036, 39142.00
1050.142, 40771.00
1051.248, 42629.00
1052.353, 43907.00
1053.459, 44673.00
1054.564, 46020.00
1055.670, 46731.00
1056.775, 47317.00
1057.880, 47387.00
1058.985, 47434.00
1060.089, 46935.00
1061.194, 46455.00
1062.298, 45409.00
1063.402, 44567.00
1064.506, 43404.00
1065.610, 41837.00
1066.713, 40661.00
1067.817, 39423.00
1068.920, 38005.00
1070.023, 36596.00
1071.126, 35563.00
1072.229, 34318.00
1073.332, 33415.00
1074.435, 32253.00
1075.537, 31224.00
1076.639, 30550.00
1077.741, 29740.00
1078.843, 29130.00
1079.945, 28576.00
1081.046, 27773.00
1082.148, 27474.00
1083.249, 26973.00
1084.350, 26382.00
1085.451, 26011.00
1086.551, 25614.00
1087.652, 25009.00
1088.752, 24560.00
1089.853, 23931.00
1090.953, 23278.00
1092.053, 22554.00
1093.152, 22232.00
1094.252, 21397.00
1095.351, 21093.00
1096.451, 20500.00
1097.550, 20389.00
1098.649, 19811.00
1099.748, 19518.00
1100.846, 19220.00
1101.945, 18841.00
1103.043, 18607.00
1104.141, 18352.16
1105.239, 18168.00
1106.337, 17916.00
1107.434, 17788.00
1108.532, 17553.00
1109.629, 17461.00
1110.726, 17309.00
1111.823, 17219.00
1112.920, 16917.00
1114.017, 17057.00
1115.113, 16784.00
1116.210, 16906.00
1117.306, 16852.00
1118.402, 16777.00
1119.498, 16817.00
1120.593, 16633.00
1121.689, 16666.00
1122.784, 16591.00
1123.879, 16720.00
1124.974, 16407.00
1126.069, 16287.00
1127.164, 16344.00
1128.259, 16131.00
1129.353, 15938.00
1130.447, 15915.00
1131.541, 15654.00
1132.635, 15677.00
1133.729, 15545.00
1134.822, 15585.00
1135.916, 15512.00
1137.009, 15403.00
1138.102, 15332.00
1139.195, 15272.00
1140.288, 15190.00
1141.380, 15177.00
1142.473, 15224.00
1143.565, 15014.00
1144.657, 15085.00
1145.749, 15099.00
1146.841, 14975.00
1147.932, 15087.00
1149.024, 14912.00
1150.115, 14970.00
1151.206, 14936.00
1152.297, 14813.00
1153.388, 14866.00
1154.479, 14886.00
1155.569, 14884.00
1156.659, 14827.00
1157.750, 14835.26
1158.839, 14769.00
1159.929, 14790.00
1161.019, 14724.00
1162.108, 14678.00
1163.198, 14765.00
1164.287, 14646.00
1165.376, 14703.00
1166.465, 14815.00
1167.553, 14930.00
1168.642, 14751.00
1169.730, 14617.00
1170.818, 14632.00
1171.906, 14635.00
1172.994, 14738.00
1174.082, 14732.00
1175.170, 14671.00
1176.257, 14559.00
1177.344, 14599.01
1178.431, 14615.00
1179.518, 14628.00
1180.605, 14682.00
1181.691, 14695.00
1182.778, 14714.00
1183.864, 14707.00
1184.950, 14695.00
1186.036, 14641.00
1187.122, 14746.00
1188.207, 14652.00
1189.292, 14542.00
1190.378, 14788.00
1191.463, 14798.00
1192.548, 14776.00
1193.632, 14599.00
1194.717, 14788.00
1195.801, 14815.00
1196.886, 14671.00
1197.970, 14641.00
1199.054, 14742.00
1200.137, 14751.00
1201.221, 14672.00
1202.305, 14748.00
1203.388, 14783.00
1204.471, 14710.00
1205.554, 14763.00
1206.637, 14621.00
1207.719, 14752.00
1208.802, 14696.00
1209.884, 14785.00
1210.966, 14787.00
1212.048, 14731.00
1213.130, 14713.00
1214.212, 14675.00
1215.293, 14644.00
1216.374, 14715.00
1217.456, 14846.00
1218.536, 14808.00
1219.617, 14928.00
1220.698, 14806.00
1221.778, 14833.00
1222.859, 14710.00
1223.939, 14892.00
1225.019, 14900.00
1226.099, 14908.00
1227.178, 14880.00
1228.258, 14907.29
1229.337, 15101.00
1230.417, 14962.00
1231.496, 14964.00
1232.574, 15037.00
1233.653, 14930.00
1234.732, 15020.00
1235.810, 15032.00
1236.888, 15249.00
1237.966, 14954.00
1239.044, 14987.00
1240.122, 14962.00
1241.199, 15177.00
1242.277, 15163.00
1243.354, 15067.00
1244.431, 14977.00
1245.508, 15149.00
1246.585, 15141.00
1247.661, 15116.00
1248.738, 15133.00
1249.814, 15074.00
1250.890, 15068.00
1251.966, 15074.00
1253.042, 15027.00
1254.117, 15130.00
1255.193, 15160.00
1256.268, 15060.00
1257.343, 15162.00
1258.418, 15699.00
1259.493, 15368.14
1260.567, 15631.00
1261.642, 15139.00
1262.716, 15164.00
1263.790, 15248.00
1264.864, 15333.00
1265.938, 15231.00
1267.011, 15414.00
1268.085, 15134.00
1269.158, 15276.00
1270.231, 15298.00
1271.304, 15362.00
1272.377, 15427.00
1273.450, 15351.00
1274.522, 15416.63
1275.594, 15387.00
1276.666, 15427.00
1277.738, 15536.00
1278.810, 15512.00
1279.882, 15466.00
1280.953, 15705.00
1282.025, 15409.00
1283.096, 15471.00
1284.167, 15337.00
1285.238, 15540.00
1286.308, 15488.00
1287.379, 15582.00
1288.449, 15481.00
1289.519, 15540.00
1290.589, 15474.00
1291.659, 15473.46
1292.729, 15407.00
1293.798, 15477.00
1294.868, 15481.00
1295.937, 15495.00
1297.006, 15547.00
1298.075, 15542.45
1299.143, 15670.00
1300.212, 15556.00
1301.280, 15608.00
1302.348, 15602.30
1303.416, 15533.00
1304.484, 15627.00
1305.552, 15620.00
1306.620, 15623.00
1307.687, 15681.00
1308.754, 15560.00
1309.821, 15684.00
1310.888, 15695.00
1311.955, 15561.00
1313.021, 15673.00
1314.088, 15771.00
1315.154, 15777.00
1316.220, 15734.00
1317.286, 15827.00
1318.352, 15816.65
1319.417, 15732.00
1320.483, 15871.00
1321.548, 15929.00
1322.613, 15956.12
1323.678, 15753.00
1324.743, 15926.00
1325.807, 15841.00
1326.872, 15731.00
1327.936, 15857.00
1329.000, 15849.00
1330.064, 15812.00
1331.128, 15890.00
1332.191, 15938.00
1333.255, 15973.00
1334.318, 15884.00
1335.381, 15876.00
1336.444, 15765.00
1337.507, 15871.00
1338.569, 15963.00
1339.632, 16200.00
1340.694, 15811.00
1341.756, 15934.00
1342.818, 16134.00
1343.880, 15830.00
1344.941, 15954.00
1346.003, 15930.00
1347.064, 16029.00
1348.125, 16106.00
1349.186, 15931.00
1350.247, 16038.00
1351.308, 16034.95
1352.368, 16339.00
1353.428, 16082.00
1354.489, 16240.00
1355.549, 16207.00
1356.608, 16421.00
1357.668, 16396.57
1358.727, 16306.00
1359.787, 16415.00
1360.846, 16350.00
1361.905, 16374.00
1362.964, 16451.00
1364.022, 16450.00
1365.081, 16470.00
1366.139, 16520.22
1367.197, 16670.00
1368.255, 16603.00
1369.313, 16809.00
1370.371, 16877.00
1371.428, 16964.00
1372.486, 17132.00
1373.543, 17057.00
1374.600, 17270.00
1375.657, 17099.00
1376.713, 17344.00
1377.770, 17360.00
1378.826, 17433.00
1379.882, 17460.00
1380.938, 17514.47
1381.994, 17565.18
1383.050, 17633.00
1384.106, 17683.00
1385.161, 17764.00
1386.216, 17870.00
1387.271, 18057.00
1388.326, 18088.00
1389.381, 18040.00
1390.435, 18173.00
1391.490, 18118.00
1392.544, 18093.00
1393.598, 18350.00
1394.652, 18345.19
1395.705, 18372.00
1396.759, 18476.00
1397.812, 18311.00
1398.866, 18153.00
1399.919, 18153.48
1400.972, 18043.92
1402.024, 18060.00
1403.077, 17850.00
1404.129, 17872.00
1405.181, 17547.00
1406.233, 17519.00
1407.285, 17542.00
1408.337, 17551.00
1409.389, 17345.00
1410.440, 17373.00
1411.491, 17206.00
1412.542, 17134.00
1413.593, 16951.00
1414.644, 17043.00
1415.695, 16817.00
1416.745, 16832.00
1417.795, 16652.00
1418.845, 16737.00
1419.895, 16445.00
1420.945, 16574.00
1421.995, 16611.00
1423.044, 16474.00
1424.093, 16521.00
1425.142, 16359.00
1426.191, 16332.00
1427.240, 16258.00
1428.289, 16377.00
1429.337, 16400.00
1430.385, 16519.00
1431.433, 16505.00
1432.481, 16529.09
1433.529, 16457.00
1434.577, 16499.00
1435.624, 16512.00
1436.672, 16456.00
1437.719, 16529.00
1438.766, 16455.00
1439.812, 16490.00
1440.859, 16491.00
1441.905, 16535.00
1442.952, 16578.00
1443.998, 16178.00
1445.044, 16267.00
1446.090, 16109.00
1447.135, 16107.00
1448.181, 16144.00
1449.226, 16243.00
1450.271, 16136.00
1451.316, 15962.00
1452.361, 16020.00
1453.405, 15948.00
1454.450, 15976.00
1455.494, 16009.29
1456.538, 16088.00
1457.582, 16111.00
1458.626, 16186.00
1459.670, 16285.00
1460.713, 16031.00
1461.757, 15958.00
1462.800, 15953.71
1463.843, 15859.12
1464.886, 15925.00
1465.928, 15816.00
1466.971, 15833.00
1468.013, 15771.00
1469.055, 15566.00
1470.097, 15778.00
1471.139, 15526.00
1472.181, 15618.00
1473.222, 15560.00
1474.263, 15532.00
1475.305, 15425.00
1476.346, 15448.01
1477.386, 15517.00
1478.427, 15465.00
1479.468, 15463.00
1480.508, 15463.00
1481.548, 15569.00
1482.588, 15435.00
1483.628, 15535.00
1484.668, 15398.00
1485.707, 15517.00
1486.747, 15492.00
1487.786, 15481.00
1488.825, 15410.00
1489.864, 15397.00
1490.902, 15415.00
1491.941, 15398.00
1492.979, 15585.00
1494.017, 15593.00
1495.055, 15463.00
1496.093, 15561.00
1497.131, 15466.00
1498.168, 15609.00
1499.206, 15563.00
1500.243, 15711.00
1501.280, 15586.00
1502.317, 15690.00
1503.354, 15641.00
1504.390, 15625.00
1505.426, 15749.00
1506.463, 15805.00
1507.499, 15751.00
1508.535, 15686.00
1509.570, 15790.00
1510.606, 15812.00
1511.641, 15722.00
1512.676, 15860.00
1513.711, 15922.00
1514.746, 15668.00
1515.781, 15898.00
1516.816, 15856.00
1517.850, 15824.00
1518.884, 15857.00
1519.918, 15707.00
1520.952, 15767.00
1521.986, 15619.00
1523.019, 15917.00
1524.053, 15703.00
1525.086, 15961.00
1526.119, 15837.00
1527.152, 15897.00
1528.185, 15685.00
1529.217, 15756.00
1530.250, 15808.00
1531.282, 15804.00
1532.314, 15905.00
1533.346, 15797.00
1534.377, 15835.00
1535.409, 15887.00
1536.440, 15708.00
1537.472, 15673.00
1538.503, 15872.00
1539.534, 15753.00
1540.564, 15757.00
1541.595, 15743.00
1542.625, 15717.89
1543.656, 15736.56
1544.686, 15707.00
1545.716, 15778.00
1546.745, 15731.00
1547.775, 15781.00
1548.804, 15809.59
1549.834, 15768.00
1550.863, 15918.00
1551.892, 15874.00
1552.920, 16005.00
1553.949, 15995.00
1554.977, 16231.00
1556.006, 15734.00
1557.034, 15613.00
1558.062, 15567.00
1559.089, 15621.00
1560.117, 15554.00
1561.144, 15643.00
1562.172, 15456.00
1563.199, 15520.00
1564.226, 15646.00
1565.252, 15689.00
1566.279, 15486.00
1567.305, 15647.00
1568.332, 15591.00
1569.358, 15609.00
1570.384, 15691.00
1571.409, 15606.00
1572.435, 15680.00
##END=



