##NAMES=Elbaite
##RRUFFID=R060562
##IDEAL CHEMISTRY=Na(Al_1.5_Li_1.5_)Al_6_(Si_6_O_18_)(BO_3_)_3_(OH)_3_OH
##LOCALITY=unknown
##OWNER=RRUFF
##SOURCE=Gemological Institute of America
##DESCRIPTION=Blue colored polished fragment
##STATUS=The identification of this mineral has been confirmed by X-ray diffraction and chemical analysis
##URL=rruff.info/R060562
##MEASURED CHEMISTRY=(Na_0.68_Ca_0.20_[box]_0.12_)(Li_1.20_Al_1.12_Fe^2+^_0.50_Mn_0.18_)Al_6_(BO_3_)_3_[Si_6_O_18_]((OH)_0.80_F_0.20_)_4_
##PIN_ID=L01792
##ORIENTATION=Laser parallel to -a* (-1 0 0). Fiducial mark perpendicular to laser is parallel to c [0 0 1]
118.1340, 11525.00
119.3650, 11505.00
120.5960, 11561.00
121.8270, 11596.00
123.0580, 11581.01
124.2880, 11763.00
125.5190, 11581.00
126.7490, 11558.00
127.9790, 11584.00
129.2090, 11744.00
130.4390, 11696.00
131.6680, 11753.00
132.8980, 11783.00
134.1270, 11764.00
135.3560, 11882.00
136.5850, 11919.00
137.8140, 11980.00
139.0430, 12159.00
140.2710, 12130.00
141.5000, 12097.00
142.7280, 12287.00
143.9560, 12453.00
145.1840, 12526.00
146.4120, 12762.00
147.6390, 12882.00
148.8670, 13022.00
150.0940, 13035.00
151.3210, 13338.00
152.5490, 13402.00
153.7750, 13606.00
155.0020, 13841.00
156.2290, 14013.00
157.4550, 14095.00
158.6810, 14367.00
159.9080, 14383.00
161.1340, 14431.00
162.3590, 14316.00
163.5850, 14286.07
164.8110, 14240.00
166.0360, 14112.00
167.2610, 14091.00
168.4860, 14020.00
169.7110, 13943.00
170.9360, 13984.00
172.1610, 13868.00
173.3850, 13781.00
174.6100, 13764.00
175.8340, 13866.00
177.0580, 13960.00
178.2820, 14100.00
179.5050, 14053.00
180.7290, 14226.00
181.9520, 14276.00
183.1760, 14353.00
184.3990, 14604.00
185.6220, 14821.00
186.8450, 15081.00
188.0670, 15352.00
189.2900, 15596.00
190.5120, 16099.00
191.7340, 16259.00
192.9560, 16830.00
194.1780, 17037.00
195.4000, 17603.00
196.6220, 18129.00
197.8430, 18507.00
199.0640, 19198.00
200.2860, 19932.00
201.5070, 20385.00
202.7270, 20741.00
203.9480, 21170.00
205.1690, 21771.00
206.3890, 22228.00
207.6090, 23074.00
208.8290, 23765.00
210.0490, 24479.00
211.2690, 25559.00
212.4890, 26708.00
213.7080, 27810.00
214.9280, 29148.00
216.1470, 30565.00
217.3660, 31885.00
218.5850, 33646.00
219.8030, 35125.00
221.0220, 36760.00
222.2400, 38093.00
223.4590, 39462.00
224.6770, 40783.00
225.8950, 40815.00
227.1120, 41117.00
228.3300, 40685.00
229.5480, 40348.00
230.7650, 39955.00
231.9820, 39401.00
233.1990, 38587.00
234.4160, 37692.00
235.6330, 37268.00
236.8490, 36738.00
238.0660, 36455.00
239.2820, 36085.00
240.4980, 35611.45
241.7140, 35301.00
242.9300, 34711.00
244.1460, 33882.00
245.3610, 33388.00
246.5770, 32445.00
247.7920, 31309.00
249.0070, 30303.00
250.2220, 29200.00
251.4370, 28528.00
252.6510, 27491.00
253.8660, 26873.00
255.0800, 26264.00
256.2940, 25602.00
257.5080, 25377.00
258.7220, 24809.74
259.9360, 24740.00
261.1490, 23907.00
262.3630, 23500.00
263.5760, 22877.00
264.7890, 22763.00
266.0020, 22469.00
267.2150, 22402.00
268.4270, 22108.00
269.6400, 22057.00
270.8520, 21707.00
272.0640, 21671.00
273.2760, 21382.00
274.4880, 21458.00
275.7000, 21063.00
276.9120, 20816.00
278.1230, 20286.00
279.3340, 20146.00
280.5450, 19808.00
281.7560, 19506.00
282.9670, 19210.37
284.1780, 18893.78
285.3880, 18551.00
286.5980, 18326.00
287.8090, 18063.00
289.0190, 17869.00
290.2290, 17758.00
291.4380, 17373.00
292.6480, 17326.00
293.8570, 17154.00
295.0670, 17124.00
296.2760, 16979.00
297.4850, 17108.00
298.6930, 17165.00
299.9020, 17464.00
301.1110, 17408.00
302.3190, 17553.00
303.5270, 17810.00
304.7350, 17920.00
305.9430, 18138.00
307.1510, 18346.00
308.3580, 18420.00
309.5660, 18592.00
310.7730, 18616.00
311.9800, 18907.00
313.1870, 19095.00
314.3940, 19346.00
315.6010, 19752.00
316.8070, 19894.00
318.0130, 19962.00
319.2200, 20050.00
320.4260, 19870.00
321.6310, 19614.00
322.8370, 19439.00
324.0430, 19297.00
325.2480, 19122.00
326.4540, 18995.00
327.6590, 19082.00
328.8640, 19139.00
330.0680, 19230.00
331.2730, 19308.00
332.4780, 19457.00
333.6820, 19517.00
334.8860, 19626.00
336.0900, 19574.00
337.2940, 19691.00
338.4980, 20042.00
339.7010, 20274.00
340.9050, 20266.00
342.1080, 20591.00
343.3110, 20762.00
344.5140, 20647.00
345.7170, 21128.00
346.9200, 21213.00
348.1220, 21382.00
349.3240, 21570.00
350.5270, 21867.81
351.7290, 22408.00
352.9310, 22627.00
354.1320, 23154.00
355.3340, 23679.00
356.5350, 24554.00
357.7370, 25468.00
358.9380, 26800.00
360.1390, 28325.00
361.3400, 30205.00
362.5400, 32231.00
363.7410, 34256.00
364.9410, 36749.00
366.1410, 39671.00
367.3410, 42100.00
368.5410, 45404.00
369.7410, 49352.00
370.9400, 53942.00
372.1400, 58317.00
373.3390, 61652.00
374.5380, 63755.00
375.7370, 63576.00
376.9360, 61660.00
378.1350, 58434.00
379.3330, 53723.00
380.5310, 49598.00
381.7300, 45528.00
382.9280, 41703.00
384.1260, 38767.00
385.3230, 36247.00
386.5210, 34298.00
387.7180, 33087.00
388.9160, 31783.00
390.1130, 30910.00
391.3100, 30204.00
392.5060, 29879.00
393.7030, 29689.00
394.9000, 29922.00
396.0960, 29996.00
397.2920, 30619.00
398.4880, 30975.00
399.6840, 31558.00
400.8800, 32285.00
402.0750, 32904.00
403.2710, 33730.00
404.4660, 34712.00
405.6610, 35793.00
406.8560, 36491.00
408.0510, 37238.00
409.2450, 37485.00
410.4400, 37127.00
411.6340, 36265.00
412.8280, 35231.00
414.0220, 33609.00
415.2160, 31767.00
416.4100, 29840.00
417.6030, 28579.00
418.7970, 26826.00
419.9900, 25503.00
421.1830, 24476.00
422.3760, 23549.00
423.5690, 22878.00
424.7610, 22348.00
425.9540, 21699.00
427.1460, 21475.00
428.3380, 20907.00
429.5300, 20844.00
430.7220, 20507.00
431.9140, 20200.00
433.1050, 20019.00
434.2970, 19862.00
435.4880, 19829.00
436.6790, 19700.00
437.8700, 19617.00
439.0610, 19407.00
440.2510, 19567.00
441.4420, 19333.00
442.6320, 19166.00
443.8220, 19253.00
445.0120, 19048.00
446.2020, 19143.00
447.3910, 18882.00
448.5810, 19054.00
449.7700, 18744.00
450.9600, 18774.00
452.1490, 18689.00
453.3370, 18898.00
454.5260, 18789.00
455.7150, 18747.00
456.9030, 18690.00
458.0910, 18772.00
459.2800, 18779.00
460.4670, 18849.00
461.6550, 18816.00
462.8430, 18881.00
464.0300, 18816.00
465.2180, 18788.00
466.4050, 18817.00
467.5920, 18801.79
468.7790, 18966.00
469.9650, 18874.00
471.1520, 18826.00
472.3380, 18926.00
473.5250, 18749.00
474.7110, 18969.00
475.8970, 18785.00
477.0820, 19023.00
478.2680, 18831.00
479.4540, 19089.00
480.6390, 19063.00
481.8240, 19164.00
483.0090, 19200.00
484.1940, 19303.00
485.3780, 19479.00
486.5630, 19805.00
487.7470, 19727.00
488.9320, 20113.00
490.1160, 20302.00
491.3000, 20344.00
492.4830, 20658.00
493.6670, 20698.00
494.8500, 20838.00
496.0340, 21089.00
497.2170, 21180.00
498.4000, 21268.00
499.5820, 21459.00
500.7650, 21597.00
501.9480, 21807.00
503.1300, 21820.00
504.3120, 22030.00
505.4940, 21999.00
506.6760, 22047.00
507.8580, 22198.00
509.0390, 22133.00
510.2210, 22270.00
511.4020, 22241.00
512.5830, 22263.00
513.7640, 22226.00
514.9450, 22024.00
516.1250, 21844.00
517.3060, 21722.00
518.4860, 21393.00
519.6660, 21250.00
520.8460, 20993.00
522.0260, 20814.00
523.2060, 20610.00
524.3850, 20369.00
525.5650, 20389.00
526.7440, 19974.00
527.9230, 20036.00
529.1020, 19996.00
530.2810, 19831.00
531.4590, 19803.00
532.6380, 19779.19
533.8160, 19685.00
534.9940, 19710.00
536.1720, 19595.00
537.3500, 19389.00
538.5270, 19519.00
539.7050, 19465.00
540.8820, 19572.00
542.0590, 19503.00
543.2360, 19478.00
544.4130, 19461.00
545.5900, 19535.00
546.7660, 19531.35
547.9430, 19597.00
549.1190, 19598.00
550.2950, 19552.00
551.4710, 19574.00
552.6470, 19502.00
553.8220, 19576.00
554.9980, 19595.00
556.1730, 19756.00
557.3480, 19633.00
558.5230, 19903.00
559.6980, 19798.00
560.8730, 19810.00
562.0470, 19769.00
563.2220, 19953.00
564.3960, 19815.00
565.5700, 19684.00
566.7440, 20025.00
567.9170, 19756.00
569.0910, 20021.00
570.2640, 20148.00
571.4380, 20160.00
572.6110, 20186.00
573.7840, 20136.00
574.9570, 20162.00
576.1290, 20104.00
577.3020, 20354.00
578.4740, 20357.00
579.6460, 20538.00
580.8180, 20550.00
581.9900, 20591.00
583.1620, 20616.00
584.3330, 20478.00
585.5040, 20636.00
586.6760, 20776.00
587.8470, 20590.00
589.0180, 20846.00
590.1880, 21048.00
591.3590, 20861.00
592.5290, 20780.00
593.7000, 20970.00
594.8700, 20935.00
596.0400, 20900.00
597.2090, 21000.00
598.3790, 21001.00
599.5490, 20913.00
600.7180, 21085.00
601.8870, 21198.00
603.0560, 21121.00
604.2250, 21220.00
605.3940, 21250.73
606.5620, 21334.00
607.7300, 21290.00
608.8990, 21348.00
610.0670, 21255.00
611.2350, 21347.00
612.4020, 21452.00
613.5700, 21397.00
614.7370, 21620.00
615.9050, 21681.00
617.0720, 21821.00
618.2390, 22179.00
619.4060, 22619.00
620.5720, 22848.00
621.7390, 23318.00
622.9050, 23928.00
624.0710, 24566.00
625.2370, 25490.00
626.4030, 26018.00
627.5690, 26989.00
628.7340, 27953.00
629.9000, 28590.00
631.0650, 29667.00
632.2300, 30573.00
633.3950, 31313.00
634.5600, 31689.00
635.7240, 31385.00
636.8890, 31219.00
638.0530, 30632.00
639.2170, 29951.00
640.3810, 29334.00
641.5450, 28712.00
642.7080, 28089.65
643.8720, 27476.00
645.0350, 26998.00
646.1980, 26723.00
647.3610, 26452.00
648.5240, 26457.00
649.6870, 26168.00
650.8490, 26130.00
652.0120, 26104.00
653.1740, 26039.00
654.3360, 26076.00
655.4980, 26010.00
656.6600, 25841.00
657.8210, 25577.00
658.9830, 25951.00
660.1440, 25467.00
661.3050, 25650.00
662.4660, 25453.00
663.6270, 25156.00
664.7870, 24986.00
665.9480, 24741.00
667.1080, 24675.00
668.2680, 24084.00
669.4280, 24008.00
670.5880, 23536.00
671.7480, 23336.00
672.9070, 23242.00
674.0670, 22915.00
675.2260, 22883.00
676.3850, 22833.00
677.5440, 22696.00
678.7030, 22792.00
679.8610, 22713.00
681.0200, 22742.00
682.1780, 22895.00
683.3360, 22758.00
684.4940, 23114.00
685.6520, 23249.00
686.8090, 23693.00
687.9670, 24081.00
689.1240, 24482.00
690.2810, 24873.00
691.4380, 25675.00
692.5950, 26368.00
693.7520, 27377.00
694.9080, 28232.00
696.0650, 29458.46
697.2210, 30764.00
698.3770, 32126.00
699.5330, 33851.00
700.6880, 35355.00
701.8440, 36265.00
702.9990, 37566.00
704.1550, 38672.00
705.3100, 39750.00
706.4650, 39961.00
707.6190, 40016.00
708.7740, 39560.00
709.9290, 39004.00
711.0830, 37897.00
712.2370, 36315.00
713.3910, 34853.00
714.5450, 32976.00
715.6980, 31119.00
716.8520, 29559.00
718.0050, 28377.00
719.1580, 27082.00
720.3110, 26205.00
721.4640, 25391.00
722.6170, 24660.00
723.7700, 24353.00
724.9220, 23926.00
726.0740, 23676.00
727.2260, 23603.00
728.3780, 23440.00
729.5300, 23350.00
730.6810, 23369.00
731.8330, 23352.00
732.9840, 23238.00
734.1350, 23147.00
735.2860, 23294.00
736.4370, 23530.00
737.5880, 23694.00
738.7380, 23572.00
739.8880, 23628.00
741.0390, 23705.00
742.1890, 23568.00
743.3380, 23860.00
744.4880, 23802.51
745.6380, 23794.00
746.7870, 23793.00
747.9360, 23897.00
749.0850, 23706.00
750.2340, 23787.00
751.3830, 23701.18
752.5310, 23381.00
753.6800, 23471.00
754.8280, 23193.00
755.9760, 22868.00
757.1240, 22626.00
758.2720, 22511.00
759.4190, 22257.00
760.5670, 21969.00
761.7140, 21860.00
762.8610, 21905.00
764.0080, 21609.00
765.1550, 21434.00
766.3020, 21386.00
767.4480, 21190.00
768.5950, 21106.00
769.7410, 21015.00
770.8870, 20885.52
772.0330, 20841.06
773.1780, 20728.00
774.3240, 20802.00
775.4690, 20831.00
776.6140, 20971.00
777.7590, 20886.00
778.9040, 20561.00
780.0490, 20973.00
781.1940, 20611.00
782.3380, 20765.00
783.4820, 20638.00
784.6260, 20674.00
785.7700, 20790.00
786.9140, 20616.00
788.0580, 20311.00
789.2010, 20464.00
790.3450, 20334.00
791.4880, 20410.00
792.6310, 20612.00
793.7730, 20408.00
794.9160, 20307.00
796.0590, 20481.00
797.2010, 20448.00
798.3430, 20565.00
799.4850, 20177.00
800.6270, 20203.00
801.7690, 20431.00
802.9100, 20367.00
804.0520, 20557.00
805.1930, 20374.00
806.3340, 20479.00
807.4750, 20195.00
808.6160, 20323.00
809.7560, 20428.00
810.8970, 20436.00
812.0370, 20443.00
813.1770, 20293.00
814.3170, 20344.00
815.4570, 20282.00
816.5960, 20346.00
817.7360, 20438.00
818.8750, 20380.00
820.0140, 20308.00
821.1530, 20512.00
822.2920, 20390.00
823.4310, 20478.00
824.5690, 20557.00
825.7070, 20634.00
826.8460, 20622.00
827.9840, 20622.00
829.1220, 20638.77
830.2590, 20627.00
831.3970, 20637.00
832.5340, 20586.00
833.6710, 20598.00
834.8080, 20755.00
835.9450, 20580.00
837.0820, 20758.00
838.2190, 20743.00
839.3550, 20737.00
840.4910, 20803.81
841.6270, 20713.00
842.7630, 20841.00
843.8990, 20905.00
845.0350, 20938.00
846.1700, 20821.00
847.3060, 20941.00
848.4410, 20766.00
849.5760, 20886.00
850.7100, 21191.00
851.8450, 20959.00
852.9800, 21127.00
854.1140, 21047.00
855.2480, 21005.00
856.3820, 21105.00
857.5160, 21065.00
858.6500, 21294.00
859.7830, 21056.00
860.9170, 21187.00
862.0500, 21245.00
863.1830, 21091.00
864.3160, 21041.00
865.4480, 21275.00
866.5810, 21159.00
867.7130, 21217.00
868.8460, 21030.00
869.9780, 20908.00
871.1100, 21088.00
872.2410, 21000.00
873.3730, 21269.00
874.5050, 21174.00
875.6360, 21054.00
876.7670, 21339.00
877.8980, 20935.00
879.0290, 21340.00
880.1590, 21112.00
881.2900, 21221.00
882.4200, 21084.00
883.5500, 21212.00
884.6800, 21344.00
885.8100, 21199.00
886.9400, 21343.00
888.0690, 21210.00
889.1990, 21436.00
890.3280, 21285.00
891.4570, 21253.00
892.5860, 21286.00
893.7140, 21270.00
894.8430, 21182.00
895.9710, 21253.00
897.1000, 21360.00
898.2280, 21517.00
899.3560, 21397.00
900.4830, 21399.00
901.6110, 21560.00
902.7380, 21341.00
903.8660, 21461.00
904.9930, 21180.00
906.1200, 21411.00
907.2460, 21261.00
908.3730, 21471.00
909.5000, 21459.00
910.6260, 21506.00
911.7520, 21628.00
912.8780, 21676.00
914.0040, 21586.00
915.1290, 21678.00
916.2550, 21678.00
917.3800, 21627.00
918.5050, 21720.00
919.6300, 21612.00
920.7550, 21604.00
921.8800, 21777.00
923.0040, 21622.00
924.1290, 21998.00
925.2530, 21806.00
926.3770, 22011.00
927.5010, 21889.00
928.6250, 21920.00
929.7480, 22178.00
930.8720, 22205.00
931.9950, 22204.00
933.1180, 22171.00
934.2410, 22325.00
935.3640, 22270.00
936.4860, 22231.00
937.6090, 22313.00
938.7310, 22437.00
939.8530, 22594.00
940.9750, 22650.00
942.0970, 22765.00
943.2180, 22662.00
944.3400, 22831.00
945.4610, 22898.00
946.5820, 22964.00
947.7030, 23075.00
948.8240, 23149.15
949.9450, 23342.00
951.0650, 23370.00
952.1860, 23575.00
953.3060, 23776.00
954.4260, 23822.00
955.5460, 24061.00
956.6650, 24264.00
957.7850, 24291.00
958.9040, 24515.00
960.0230, 24578.00
961.1420, 24905.00
962.2610, 25067.00
963.3800, 25130.00
964.4990, 25156.00
965.6170, 25259.00
966.7350, 25025.00
967.8530, 25254.00
968.9710, 25138.00
970.0890, 25412.00
971.2070, 25337.00
972.3240, 25250.00
973.4410, 25038.00
974.5580, 25251.00
975.6750, 25229.00
976.7920, 25043.00
977.9090, 24984.00
979.0250, 25229.00
980.1410, 25189.00
981.2580, 25138.00
982.3740, 25148.00
983.4890, 25161.00
984.6050, 25068.00
985.7200, 25069.00
986.8360, 25161.00
987.9510, 25212.00
989.0660, 25316.00
990.1810, 25318.00
991.2950, 25450.00
992.4100, 25511.00
993.5240, 25624.00
994.6390, 25546.00
995.7530, 25689.00
996.8660, 25767.00
997.9800, 25929.00
999.0940, 26012.00
1000.207, 26186.00
1001.320, 26052.00
1002.433, 26173.00
1003.546, 26076.00
1004.659, 26377.00
1005.772, 26186.00
1006.884, 26242.00
1007.996, 26565.00
1009.108, 26620.00
1010.220, 26534.00
1011.332, 26557.00
1012.444, 26708.00
1013.555, 26816.00
1014.666, 26883.00
1015.777, 27049.00
1016.888, 26939.00
1017.999, 27009.00
1019.110, 27282.00
1020.220, 27248.00
1021.331, 27205.00
1022.441, 27254.00
1023.551, 27272.00
1024.661, 27206.00
1025.770, 27082.00
1026.880, 27238.00
1027.989, 27267.00
1029.098, 26983.00
1030.207, 27038.00
1031.316, 26950.00
1032.425, 26828.00
1033.533, 26868.00
1034.642, 27046.00
1035.750, 26903.00
1036.858, 26994.00
1037.966, 27071.00
1039.073, 26984.00
1040.181, 27122.00
1041.288, 27297.00
1042.396, 27196.00
1043.503, 27269.00
1044.610, 27315.00
1045.716, 27289.00
1046.823, 27304.00
1047.929, 27398.00
1049.036, 27522.00
1050.142, 27714.00
1051.248, 27761.00
1052.353, 28073.00
1053.459, 28222.00
1054.564, 28435.00
1055.670, 28797.00
1056.775, 28844.00
1057.880, 28763.00
1058.985, 28902.00
1060.089, 29475.00
1061.194, 29225.00
1062.298, 29425.00
1063.402, 29264.00
1064.506, 29625.00
1065.610, 29489.00
1066.713, 29772.00
1067.817, 29520.00
1068.920, 29659.00
1070.023, 29654.00
1071.126, 30020.00
1072.229, 29955.00
1073.332, 29907.00
1074.435, 30484.00
1075.537, 30494.00
1076.639, 30581.00
1077.741, 31374.00
1078.843, 31338.00
1079.945, 32134.00
1081.046, 32571.00
1082.148, 32896.00
1083.249, 33338.00
1084.350, 33824.00
1085.451, 33884.00
1086.551, 34050.00
1087.652, 34282.00
1088.752, 33888.00
1089.853, 33618.00
1090.953, 33471.00
1092.053, 33177.00
1093.152, 32746.00
1094.252, 32303.00
1095.351, 32029.00
1096.451, 31450.00
1097.550, 30982.00
1098.649, 30562.00
1099.748, 30032.00
1100.846, 29750.00
1101.945, 29315.78
1103.043, 29081.00
1104.141, 28555.00
1105.239, 28316.00
1106.337, 27889.00
1107.434, 27798.00
1108.532, 27188.00
1109.629, 27151.00
1110.726, 26804.00
1111.823, 26721.00
1112.920, 26383.00
1114.017, 26280.00
1115.113, 26438.00
1116.210, 26356.00
1117.306, 26452.00
1118.402, 26543.00
1119.498, 26553.00
1120.593, 26495.00
1121.689, 26390.00
1122.784, 26244.00
1123.879, 26215.00
1124.974, 25793.00
1126.069, 25581.00
1127.164, 25095.00
1128.259, 25023.00
1129.353, 24871.00
1130.447, 24864.00
1131.541, 24616.00
1132.635, 24519.00
1133.729, 24361.00
1134.822, 24391.00
1135.916, 24441.00
1137.009, 24436.00
1138.102, 24323.00
1139.195, 24137.00
1140.288, 24091.00
1141.380, 23962.00
1142.473, 23965.00
1143.565, 23983.21
1144.657, 24094.00
1145.749, 24125.00
1146.841, 24006.00
1147.932, 24117.00
1149.024, 23854.00
1150.115, 23811.00
1151.206, 23952.00
1152.297, 23815.00
1153.388, 23672.00
1154.479, 24027.00
1155.569, 23856.00
1156.659, 23848.00
1157.750, 23838.00
1158.839, 23852.00
1159.929, 23815.53
1161.019, 23936.00
1162.108, 23751.00
1163.198, 23697.00
1164.287, 23660.00
1165.376, 23755.00
1166.465, 24002.00
1167.553, 23737.00
1168.642, 23851.00
1169.730, 23868.00
1170.818, 23799.00
1171.906, 23979.00
1172.994, 23886.00
1174.082, 23852.00
1175.170, 23894.00
1176.257, 23910.00
1177.344, 23993.00
1178.431, 23970.17
1179.518, 23882.00
1180.605, 23998.00
1181.691, 23877.00
1182.778, 23991.00
1183.864, 24030.00
1184.950, 23828.00
1186.036, 23929.00
1187.122, 24007.00
1188.207, 23924.00
1189.292, 24065.00
1190.378, 24108.00
1191.463, 23886.00
1192.548, 23817.00
1193.632, 23930.00
1194.717, 23898.00
1195.801, 24083.00
1196.886, 24060.00
1197.970, 23991.00
1199.054, 23974.00
1200.137, 24090.00
1201.221, 23838.00
1202.305, 24118.00
1203.388, 24025.00
1204.471, 23973.00
1205.554, 24168.00
1206.637, 24074.00
1207.719, 24159.00
1208.802, 24116.00
1209.884, 23981.00
1210.966, 24105.00
1212.048, 24079.00
1213.130, 24119.00
1214.212, 24145.55
1215.293, 24340.00
1216.374, 24098.00
1217.456, 24133.00
1218.536, 23977.00
1219.617, 24211.00
1220.698, 24253.00
1221.778, 24308.00
1222.859, 24287.00
1223.939, 24156.00
1225.019, 24344.00
1226.099, 24244.00
1227.178, 24360.00
1228.258, 24417.00
1229.337, 24341.00
1230.417, 24171.00
1231.496, 24344.00
1232.574, 24408.00
1233.653, 24308.00
1234.732, 24413.00
1235.810, 24394.00
1236.888, 24409.00
1237.966, 24473.40
1239.044, 24438.00
1240.122, 24541.00
1241.199, 24473.00
1242.277, 24444.00
1243.354, 24451.00
1244.431, 24455.16
1245.508, 24438.27
1246.585, 24514.00
1247.661, 24444.00
1248.738, 24442.00
1249.814, 24496.00
1250.890, 24541.00
1251.966, 24528.58
1253.042, 24514.17
1254.117, 24530.00
1255.193, 24427.00
1256.268, 24446.00
1257.343, 24419.00
1258.418, 24233.00
1259.493, 24455.00
1260.567, 24488.00
1261.642, 24403.00
1262.716, 24688.00
1263.790, 24704.00
1264.864, 24593.00
1265.938, 24707.00
1267.011, 24626.00
1268.085, 24753.00
1269.158, 24429.00
1270.231, 24830.00
1271.304, 24721.00
1272.377, 24686.00
1273.450, 24846.00
1274.522, 24860.00
1275.594, 24700.00
1276.666, 24703.00
1277.738, 24775.00
1278.810, 24634.00
1279.882, 24767.00
1280.953, 24808.00
1282.025, 24738.00
1283.096, 24831.00
1284.167, 24789.00
1285.238, 24795.00
1286.308, 24707.00
1287.379, 24728.88
1288.449, 24788.00
1289.519, 24735.00
1290.589, 24713.00
1291.659, 24705.00
1292.729, 24572.00
1293.798, 24760.00
1294.868, 24560.00
1295.937, 24798.00
1297.006, 24808.00
1298.075, 24757.00
1299.143, 24780.00
1300.212, 24630.00
1301.280, 24704.00
1302.348, 24678.00
1303.416, 24778.00
1304.484, 24680.00
1305.552, 24819.00
1306.620, 24964.00
1307.687, 24946.00
1308.754, 24929.00
1309.821, 24933.00
1310.888, 24784.00
1311.955, 24899.00
1313.021, 25005.00
1314.088, 24915.00
1315.154, 24864.00
1316.220, 25016.00
1317.286, 25096.00
1318.352, 25052.00
1319.417, 25043.00
1320.483, 25056.00
1321.548, 25183.00
1322.613, 25199.00
1323.678, 25150.00
1324.743, 24924.00
1325.807, 25182.00
1326.872, 25005.00
1327.936, 25491.00
1329.000, 25287.86
1330.064, 25164.00
1331.128, 25160.00
1332.191, 24987.00
1333.255, 25098.00
1334.318, 25428.00
1335.381, 25173.00
1336.444, 25041.00
1337.507, 25314.00
1338.569, 25159.00
1339.632, 25100.00
1340.694, 25273.00
1341.756, 25352.00
1342.818, 25203.00
1343.880, 25274.00
1344.941, 25254.00
1346.003, 25314.00
1347.064, 25319.00
1348.125, 25304.00
1349.186, 25475.00
1350.247, 25249.00
1351.308, 25384.00
1352.368, 25461.00
1353.428, 25407.00
1354.489, 25433.00
1355.549, 25391.00
1356.608, 25386.44
1357.668, 25397.00
1358.727, 25359.00
1359.787, 25410.00
1360.846, 25372.00
1361.905, 25431.17
1362.964, 25558.00
1364.022, 25525.00
1365.081, 25606.00
1366.139, 25612.00
1367.197, 25591.00
1368.255, 25596.00
1369.313, 25623.87
1370.371, 25619.83
1371.428, 25688.00
1372.486, 25689.00
1373.543, 25707.00
1374.600, 25839.00
1375.657, 25894.00
1376.713, 25994.00
1377.770, 26076.00
1378.826, 26108.70
1379.882, 26176.71
1380.938, 26157.00
1381.994, 26246.00
1383.050, 26239.00
1384.106, 26238.00
1385.161, 25987.00
1386.216, 26100.00
1387.271, 26382.00
1388.326, 25997.00
1389.381, 26324.00
1390.435, 26273.00
1391.490, 26243.00
1392.544, 26114.00
1393.598, 26228.00
1394.652, 26088.00
1395.705, 26046.00
1396.759, 26068.00
1397.812, 26035.00
1398.866, 26076.00
1399.919, 26138.00
1400.972, 26242.00
1402.024, 26039.00
1403.077, 26008.00
1404.129, 26160.00
1405.181, 25995.00
1406.233, 26095.00
1407.285, 26087.00
1408.337, 26068.00
1409.389, 26285.00
1410.440, 26285.00
1411.491, 26323.00
1412.542, 26307.90
1413.593, 26167.00
1414.644, 26145.00
1415.695, 26081.00
1416.745, 25974.00
1417.795, 26346.00
1418.845, 25966.00
1419.895, 26206.00
1420.945, 26178.00
1421.995, 26004.00
1423.044, 26132.00
1424.093, 26294.00
1425.142, 26225.00
1426.191, 26251.04
1427.240, 26092.00
1428.289, 26093.00
1429.337, 26191.00
1430.385, 26067.00
1431.433, 26175.00
1432.481, 26244.00
1433.529, 26096.00
1434.577, 26135.00
1435.624, 26129.00
1436.672, 26259.00
1437.719, 26067.00
1438.766, 26226.00
1439.812, 26109.00
1440.859, 26226.00
1441.905, 26288.00
1442.952, 26121.00
1443.998, 26181.00
1445.044, 26188.00
1446.090, 26153.00
1447.135, 26268.00
1448.181, 26383.00
1449.226, 26247.00
1450.271, 26184.00
1451.316, 26343.00
1452.361, 26128.00
1453.405, 26141.00
1454.450, 26201.00
1455.494, 26377.00
1456.538, 26304.00
1457.582, 26424.00
1458.626, 26215.00
1459.670, 26310.00
1460.713, 26147.00
1461.757, 26099.00
1462.800, 26321.00
1463.843, 26069.00
1464.886, 26155.00
1465.928, 26236.00
1466.971, 26375.00
1468.013, 26252.00
1469.055, 26475.00
1470.097, 26161.00
1471.139, 26429.00
1472.181, 26232.00
1473.222, 26222.00
1474.263, 26243.00
1475.305, 26415.00
1476.346, 26476.00
1477.386, 26395.00
1478.427, 26375.00
1479.468, 26307.00
1480.508, 26340.00
1481.548, 26419.00
1482.588, 26456.00
1483.628, 26343.00
1484.668, 26283.00
1485.707, 26373.00
1486.747, 26573.00
1487.786, 26446.00
1488.825, 26436.00
1489.864, 26547.00
1490.902, 26529.00
1491.941, 26410.00
1492.979, 26212.00
1494.017, 26577.00
1495.055, 26569.00
1496.093, 26323.00
1497.131, 26605.00
1498.168, 26510.00
1499.206, 26415.00
1500.243, 26642.00
1501.280, 26466.00
1502.317, 26752.00
1503.354, 26723.00
1504.390, 26750.00
1505.426, 26781.00
1506.463, 26582.00
1507.499, 26493.00
1508.535, 26720.00
1509.570, 26879.00
1510.606, 27047.00
1511.641, 26686.00
1512.676, 26552.00
1513.711, 26857.00
1514.746, 26909.00
1515.781, 26856.00
1516.816, 26673.00
1517.850, 26946.00
1518.884, 26986.00
1519.918, 26808.00
1520.952, 26839.00
1521.986, 26840.00
1523.019, 26958.00
1524.053, 26939.52
1525.086, 27018.00
1526.119, 26979.00
1527.152, 26999.00
1528.185, 27051.00
1529.217, 27037.00
1530.250, 26858.00
1531.282, 27027.00
1532.314, 26815.00
1533.346, 27106.00
1534.377, 26952.00
1535.409, 27000.00
1536.440, 27131.00
1537.472, 27047.00
1538.503, 26955.00
1539.534, 26940.00
1540.564, 26759.00
1541.595, 26947.00
1542.625, 26935.00
1543.656, 26899.00
1544.686, 26793.00
1545.716, 26824.00
1546.745, 26924.00
1547.775, 26864.00
1548.804, 26883.00
1549.834, 26971.00
1550.863, 26913.00
1551.892, 27148.00
1552.920, 27209.00
1553.949, 27439.00
1554.977, 26900.00
1556.006, 27037.00
1557.034, 26811.00
1558.062, 27038.00
1559.089, 26856.00
1560.117, 26972.00
1561.144, 26695.00
1562.172, 27146.00
1563.199, 26966.00
1564.226, 27007.00
1565.252, 27150.00
1566.279, 27025.00
1567.305, 27119.00
1568.332, 27390.00
1569.358, 27080.00
1570.384, 27157.00
1571.409, 27704.00
1572.435, 27548.00
##END=



