##NAMES=Elbaite
##RRUFFID=R060003
##IDEAL CHEMISTRY=Na(Al_1.5_Li_1.5_)Al_6_(Si_6_O_18_)(BO_3_)_3_(OH)_3_OH
##LOCALITY=Mount Begbie, Revelstoke, British Columbia, Canada
##OWNER=RRUFF
##SOURCE=Bob Downs
##DESCRIPTION=Pink crystal associated with trilithionite, R060004
##STATUS=The identification of this mineral has been confirmed by X-ray diffraction and chemical analysis
##URL=rruff.info/R060003
##MEASURED CHEMISTRY=(Na_0.58_[box]_0.42_)(Al_1.69_Li_1.27_Mn_0.04_)Al_6_(BO_3_)_3_[Si_6_O_18_](OH)_4_
##PIN_ID=L00688
##ORIENTATION=Laser parallel to -a* (-1 0 0). Fiducial mark perpendicular to laser is parallel to -c [0 0 -1]
118.1340, 15980.00
119.3650, 15974.00
120.5960, 15860.00
121.8270, 15874.00
123.0580, 15865.00
124.2880, 16006.00
125.5190, 15925.00
126.7490, 16164.00
127.9790, 16132.00
129.2090, 16148.00
130.4390, 16517.00
131.6680, 16693.00
132.8980, 16778.00
134.1270, 16792.00
135.3560, 17133.00
136.5850, 17159.00
137.8140, 17323.00
139.0430, 17654.00
140.2710, 17826.00
141.5000, 17851.00
142.7280, 18122.00
143.9560, 17998.00
145.1840, 18294.00
146.4120, 18558.00
147.6390, 18583.00
148.8670, 18730.00
150.0940, 19265.00
151.3210, 19676.00
152.5490, 19565.00
153.7750, 19913.00
155.0020, 19951.00
156.2290, 19858.00
157.4550, 19807.00
158.6810, 19877.00
159.9080, 20016.00
161.1340, 20224.00
162.3590, 20337.00
163.5850, 20360.00
164.8110, 20264.00
166.0360, 20511.00
167.2610, 20457.00
168.4860, 20397.00
169.7110, 20610.00
170.9360, 20525.00
172.1610, 20458.00
173.3850, 20445.00
174.6100, 20404.00
175.8340, 20625.00
177.0580, 20615.00
178.2820, 20647.81
179.5050, 20649.24
180.7290, 20715.00
181.9520, 20596.00
183.1760, 20716.00
184.3990, 20840.00
185.6220, 20767.00
186.8450, 20688.00
188.0670, 21074.00
189.2900, 21187.00
190.5120, 21361.00
191.7340, 21402.00
192.9560, 21734.00
194.1780, 21830.00
195.4000, 22268.00
196.6220, 22631.00
197.8430, 22923.00
199.0640, 23597.00
200.2860, 24105.00
201.5070, 24744.00
202.7270, 25435.00
203.9480, 26196.00
205.1690, 26978.00
206.3890, 27796.00
207.6090, 29006.00
208.8290, 30506.00
210.0490, 32109.00
211.2690, 34162.00
212.4890, 36388.00
213.7080, 38575.00
214.9280, 40924.00
216.1470, 43221.00
217.3660, 45135.00
218.5850, 46762.00
219.8030, 48679.00
221.0220, 49321.00
222.2400, 49809.00
223.4590, 49653.00
224.6770, 48810.00
225.8950, 47414.00
227.1120, 46010.00
228.3300, 44366.00
229.5480, 42063.00
230.7650, 40424.00
231.9820, 39026.00
233.1990, 37916.00
234.4160, 37209.00
235.6330, 36629.00
236.8490, 36310.00
238.0660, 36154.00
239.2820, 36177.00
240.4980, 36463.00
241.7140, 36659.00
242.9300, 36691.00
244.1460, 36755.00
245.3610, 36798.00
246.5770, 36679.00
247.7920, 36504.00
249.0070, 36508.00
250.2220, 35942.00
251.4370, 35297.00
252.6510, 35253.00
253.8660, 34765.00
255.0800, 34180.00
256.2940, 33824.00
257.5080, 34021.00
258.7220, 34064.00
259.9360, 34006.00
261.1490, 33648.00
262.3630, 33688.00
263.5760, 33653.00
264.7890, 33676.00
266.0020, 33766.00
267.2150, 33910.00
268.4270, 33863.00
269.6400, 33890.00
270.8520, 33364.00
272.0640, 33057.00
273.2760, 32663.00
274.4880, 32200.00
275.7000, 31616.00
276.9120, 31077.00
278.1230, 30463.00
279.3340, 29659.00
280.5450, 29057.00
281.7560, 28783.00
282.9670, 27960.00
284.1780, 27462.00
285.3880, 26866.00
286.5980, 26266.00
287.8090, 25951.00
289.0190, 25543.00
290.2290, 25448.00
291.4380, 25072.00
292.6480, 24736.00
293.8570, 24575.00
295.0670, 24218.00
296.2760, 24075.00
297.4850, 23666.00
298.6930, 23722.00
299.9020, 23719.00
301.1110, 23592.00
302.3190, 23828.00
303.5270, 23956.00
304.7350, 24161.00
305.9430, 24456.94
307.1510, 24883.00
308.3580, 25035.00
309.5660, 25469.00
310.7730, 25680.00
311.9800, 25868.00
313.1870, 25987.00
314.3940, 25961.00
315.6010, 25969.00
316.8070, 25834.00
318.0130, 25730.00
319.2200, 25421.00
320.4260, 25335.00
321.6310, 25216.00
322.8370, 24917.00
324.0430, 24991.00
325.2480, 24805.00
326.4540, 24893.00
327.6590, 24921.00
328.8640, 24790.00
330.0680, 24991.00
331.2730, 24986.00
332.4780, 25089.00
333.6820, 25029.00
334.8860, 25052.00
336.0900, 24921.00
337.2940, 24850.00
338.4980, 25019.00
339.7010, 25024.00
340.9050, 25284.00
342.1080, 25491.00
343.3110, 25735.00
344.5140, 25958.00
345.7170, 26215.00
346.9200, 26613.00
348.1220, 26882.00
349.3240, 27169.00
350.5270, 27674.00
351.7290, 28373.00
352.9310, 28429.00
354.1320, 29679.00
355.3340, 30450.00
356.5350, 31574.00
357.7370, 32937.00
358.9380, 34246.00
360.1390, 35924.00
361.3400, 38157.00
362.5400, 40636.00
363.7410, 43343.00
364.9410, 46331.00
366.1410, 49308.00
367.3410, 52372.00
368.5410, 55079.00
369.7410, 57006.00
370.9400, 59000.00
372.1400, 60404.00
373.3390, 60443.00
374.5380, 60073.00
375.7370, 58452.00
376.9360, 56523.00
378.1350, 53730.00
379.3330, 50824.00
380.5310, 47838.00
381.7300, 45298.00
382.9280, 43165.50
384.1260, 40982.00
385.3230, 39633.00
386.5210, 38482.00
387.7180, 37291.00
388.9160, 36798.00
390.1130, 36429.00
391.3100, 36125.00
392.5060, 35926.00
393.7030, 35784.11
394.9000, 36036.00
396.0960, 35844.00
397.2920, 36178.00
398.4880, 36630.00
399.6840, 36664.00
400.8800, 36851.00
402.0750, 36830.00
403.2710, 36881.00
404.4660, 36775.00
405.6610, 36486.00
406.8560, 36218.00
408.0510, 35902.00
409.2450, 35569.00
410.4400, 34991.00
411.6340, 34390.00
412.8280, 33603.00
414.0220, 33042.00
415.2160, 32063.00
416.4100, 31348.00
417.6030, 30582.00
418.7970, 29830.00
419.9900, 29153.00
421.1830, 28755.00
422.3760, 27851.00
423.5690, 27657.00
424.7610, 27023.00
425.9540, 26682.00
427.1460, 26399.00
428.3380, 26176.00
429.5300, 25930.00
430.7220, 25956.00
431.9140, 25674.00
433.1050, 25489.00
434.2970, 25366.00
435.4880, 25582.00
436.6790, 25252.00
437.8700, 25286.00
439.0610, 25428.00
440.2510, 25084.00
441.4420, 25313.00
442.6320, 25067.00
443.8220, 25166.00
445.0120, 25438.00
446.2020, 25442.00
447.3910, 25279.00
448.5810, 25200.00
449.7700, 25367.00
450.9600, 25486.00
452.1490, 25468.00
453.3370, 25456.00
454.5260, 25521.00
455.7150, 25475.00
456.9030, 25511.00
458.0910, 25436.00
459.2800, 25547.00
460.4670, 25771.00
461.6550, 25764.00
462.8430, 25981.00
464.0300, 26250.00
465.2180, 26433.00
466.4050, 26703.00
467.5920, 27243.00
468.7790, 27237.00
469.9650, 28077.00
471.1520, 28200.00
472.3380, 28492.00
473.5250, 28573.00
474.7110, 28385.00
475.8970, 28445.00
477.0820, 28553.00
478.2680, 28180.00
479.4540, 28362.00
480.6390, 28262.00
481.8240, 27946.00
483.0090, 27547.00
484.1940, 27476.00
485.3780, 27436.00
486.5630, 27128.00
487.7470, 27190.00
488.9320, 27419.00
490.1160, 27312.00
491.3000, 27424.00
492.4830, 27768.00
493.6670, 28153.03
494.8500, 28795.00
496.0340, 29419.00
497.2170, 30204.00
498.4000, 31088.00
499.5820, 31940.00
500.7650, 32530.00
501.9480, 33541.00
503.1300, 34444.00
504.3120, 35180.00
505.4940, 35633.00
506.6760, 36216.00
507.8580, 36222.00
509.0390, 36730.00
510.2210, 36618.00
511.4020, 36264.00
512.5830, 35558.00
513.7640, 35426.00
514.9450, 34794.00
516.1250, 34047.00
517.3060, 33835.00
518.4860, 33583.00
519.6660, 32807.00
520.8460, 32356.00
522.0260, 32028.00
523.2060, 31427.00
524.3850, 31179.00
525.5650, 30805.00
526.7440, 30341.00
527.9230, 30019.00
529.1020, 30014.00
530.2810, 29805.00
531.4590, 29878.00
532.6380, 29410.00
533.8160, 29257.00
534.9940, 29405.00
536.1720, 29122.00
537.3500, 29016.00
538.5270, 28872.00
539.7050, 28776.00
540.8820, 28772.00
542.0590, 28689.00
543.2360, 28579.00
544.4130, 28416.00
545.5900, 28303.00
546.7660, 28242.00
547.9430, 28031.00
549.1190, 27854.00
550.2950, 27978.00
551.4710, 27661.00
552.6470, 27543.00
553.8220, 27742.00
554.9980, 27660.00
556.1730, 27561.00
557.3480, 27320.00
558.5230, 27508.00
559.6980, 27416.00
560.8730, 27636.00
562.0470, 27510.00
563.2220, 27559.00
564.3960, 27771.00
565.5700, 27248.00
566.7440, 27559.00
567.9170, 27446.00
569.0910, 27674.00
570.2640, 27408.00
571.4380, 27580.00
572.6110, 27635.00
573.7840, 27624.00
574.9570, 27724.00
576.1290, 27788.00
577.3020, 27912.00
578.4740, 27880.00
579.6460, 27943.00
580.8180, 28088.00
581.9900, 27978.00
583.1620, 28039.00
584.3330, 28248.00
585.5040, 28032.00
586.6760, 28106.00
587.8470, 28391.00
589.0180, 28149.00
590.1880, 28440.00
591.3590, 28219.00
592.5290, 28431.00
593.7000, 28682.00
594.8700, 28272.00
596.0400, 28271.00
597.2090, 28266.00
598.3790, 28524.00
599.5490, 28181.00
600.7180, 28275.00
601.8870, 28379.00
603.0560, 28255.00
604.2250, 28444.00
605.3940, 28411.00
606.5620, 28640.00
607.7300, 28510.00
608.8990, 28494.00
610.0670, 28682.00
611.2350, 28762.00
612.4020, 28667.00
613.5700, 28555.00
614.7370, 28857.00
615.9050, 29109.00
617.0720, 29234.00
618.2390, 29172.00
619.4060, 29528.00
620.5720, 29644.00
621.7390, 29887.00
622.9050, 30307.00
624.0710, 30522.55
625.2370, 30855.22
626.4030, 31119.00
627.5690, 31483.00
628.7340, 31692.00
629.9000, 32036.00
631.0650, 32779.00
632.2300, 33208.00
633.3950, 34085.00
634.5600, 34809.00
635.7240, 35340.00
636.8890, 36005.00
638.0530, 36661.00
639.2170, 37051.00
640.3810, 37602.00
641.5450, 38095.00
642.7080, 38297.00
643.8720, 38509.00
645.0350, 38462.00
646.1980, 38338.00
647.3610, 37902.00
648.5240, 37565.00
649.6870, 37286.00
650.8490, 36745.00
652.0120, 36294.00
653.1740, 35882.00
654.3360, 34929.00
655.4980, 34612.00
656.6600, 34144.00
657.8210, 33451.00
658.9830, 33182.00
660.1440, 32161.00
661.3050, 32117.00
662.4660, 31552.00
663.6270, 31125.00
664.7870, 30944.00
665.9480, 30454.00
667.1080, 30555.00
668.2680, 30199.00
669.4280, 30098.00
670.5880, 29726.00
671.7480, 29842.00
672.9070, 29684.00
674.0670, 29647.00
675.2260, 29811.00
676.3850, 29569.00
677.5440, 29715.00
678.7030, 29630.00
679.8610, 29800.00
681.0200, 29878.88
682.1780, 29879.00
683.3360, 30067.00
684.4940, 30328.00
685.6520, 30336.00
686.8090, 30696.00
687.9670, 30857.00
689.1240, 31391.00
690.2810, 31542.00
691.4380, 32031.00
692.5950, 32752.00
693.7520, 33246.00
694.9080, 34160.00
696.0650, 34910.00
697.2210, 35904.00
698.3770, 37218.00
699.5330, 38323.00
700.6880, 39324.00
701.8440, 40778.00
702.9990, 42128.00
704.1550, 43861.00
705.3100, 44926.00
706.4650, 45626.00
707.6190, 45574.00
708.7740, 46116.00
709.9290, 45839.00
711.0830, 45507.00
712.2370, 44648.00
713.3910, 43562.00
714.5450, 42538.00
715.6980, 41756.00
716.8520, 39903.00
718.0050, 39127.00
719.1580, 38111.00
720.3110, 37367.00
721.4640, 36332.00
722.6170, 35647.00
723.7700, 34942.00
724.9220, 34533.00
726.0740, 33873.00
727.2260, 33815.00
728.3780, 33502.00
729.5300, 33449.00
730.6810, 32996.00
731.8330, 33362.00
732.9840, 32924.00
734.1350, 32944.00
735.2860, 33041.00
736.4370, 33020.00
737.5880, 33161.00
738.7380, 33224.00
739.8880, 33426.00
741.0390, 33861.00
742.1890, 34109.00
743.3380, 34255.00
744.4880, 34377.00
745.6380, 34492.00
746.7870, 34696.00
747.9360, 34620.00
749.0850, 34667.00
750.2340, 34384.00
751.3830, 34003.00
752.5310, 33572.00
753.6800, 33470.00
754.8280, 32975.00
755.9760, 32646.00
757.1240, 32351.00
758.2720, 31958.84
759.4190, 31701.00
760.5670, 31353.00
761.7140, 31038.00
762.8610, 30862.00
764.0080, 30765.00
765.1550, 30351.00
766.3020, 30501.00
767.4480, 30286.00
768.5950, 30285.00
769.7410, 30085.00
770.8870, 30043.00
772.0330, 30022.00
773.1780, 29819.00
774.3240, 29796.00
775.4690, 29885.00
776.6140, 29869.00
777.7590, 29827.00
778.9040, 29917.00
780.0490, 29759.00
781.1940, 29886.00
782.3380, 29567.00
783.4820, 29929.00
784.6260, 29843.00
785.7700, 29985.00
786.9140, 29556.00
788.0580, 29753.00
789.2010, 29960.00
790.3450, 29849.00
791.4880, 30008.00
792.6310, 29940.00
793.7730, 30064.00
794.9160, 29798.00
796.0590, 30106.00
797.2010, 30087.00
798.3430, 29839.00
799.4850, 29826.00
800.6270, 30070.00
801.7690, 29955.00
802.9100, 30054.00
804.0520, 29876.00
805.1930, 29933.48
806.3340, 30020.00
807.4750, 30030.00
808.6160, 30019.00
809.7560, 30181.00
810.8970, 30009.00
812.0370, 30111.00
813.1770, 30156.00
814.3170, 30226.00
815.4570, 29988.00
816.5960, 30212.00
817.7360, 30015.00
818.8750, 29968.00
820.0140, 30137.00
821.1530, 29976.00
822.2920, 30019.00
823.4310, 30011.00
824.5690, 30091.00
825.7070, 30272.00
826.8460, 30117.00
827.9840, 30091.00
829.1220, 30294.00
830.2590, 30112.00
831.3970, 30314.00
832.5340, 30514.00
833.6710, 30407.00
834.8080, 30386.00
835.9450, 30325.00
837.0820, 30252.00
838.2190, 30373.00
839.3550, 30497.00
840.4910, 30538.00
841.6270, 30562.00
842.7630, 30601.00
843.8990, 30693.00
845.0350, 30693.00
846.1700, 30783.24
847.3060, 30959.00
848.4410, 31001.00
849.5760, 30912.00
850.7100, 31158.00
851.8450, 30659.00
852.9800, 30901.00
854.1140, 30913.00
855.2480, 31138.00
856.3820, 31018.00
857.5160, 31163.00
858.6500, 31127.00
859.7830, 31271.00
860.9170, 31504.00
862.0500, 31262.00
863.1830, 31160.00
864.3160, 31269.00
865.4480, 31263.00
866.5810, 31441.00
867.7130, 31459.00
868.8460, 31414.00
869.9780, 31390.00
871.1100, 31381.90
872.2410, 31349.18
873.3730, 31364.00
874.5050, 31383.00
875.6360, 31410.00
876.7670, 31593.00
877.8980, 31400.00
879.0290, 31497.00
880.1590, 31733.00
881.2900, 31327.00
882.4200, 31612.00
883.5500, 31817.00
884.6800, 31637.00
885.8100, 31722.00
886.9400, 31754.00
888.0690, 31901.00
889.1990, 31972.00
890.3280, 32090.00
891.4570, 31947.00
892.5860, 31751.00
893.7140, 31632.00
894.8430, 31918.00
895.9710, 31973.00
897.1000, 32100.00
898.2280, 31979.00
899.3560, 32102.00
900.4830, 31943.00
901.6110, 31941.00
902.7380, 32140.00
903.8660, 32171.00
904.9930, 32266.00
906.1200, 32415.00
907.2460, 32309.00
908.3730, 32245.00
909.5000, 32337.00
910.6260, 32342.00
911.7520, 32435.00
912.8780, 32345.00
914.0040, 32380.00
915.1290, 32471.00
916.2550, 32389.00
917.3800, 32771.00
918.5050, 32758.00
919.6300, 32923.00
920.7550, 32787.00
921.8800, 32851.00
923.0040, 32910.00
924.1290, 32832.00
925.2530, 32990.00
926.3770, 33036.00
927.5010, 33039.00
928.6250, 32914.00
929.7480, 33033.00
930.8720, 33071.00
931.9950, 33178.00
933.1180, 33158.00
934.2410, 33288.00
935.3640, 33330.00
936.4860, 33440.89
937.6090, 33571.00
938.7310, 33680.00
939.8530, 33660.00
940.9750, 33740.00
942.0970, 33729.00
943.2180, 33904.00
944.3400, 33895.00
945.4610, 33862.00
946.5820, 34263.00
947.7030, 34273.00
948.8240, 34611.00
949.9450, 34433.00
951.0650, 34697.00
952.1860, 34910.00
953.3060, 34996.00
954.4260, 35255.00
955.5460, 35334.00
956.6650, 35523.00
957.7850, 35570.00
958.9040, 36139.00
960.0230, 36092.00
961.1420, 36287.00
962.2610, 36522.00
963.3800, 36588.00
964.4990, 36535.00
965.6170, 36966.00
966.7350, 37251.00
967.8530, 37167.00
968.9710, 37501.00
970.0890, 37576.32
971.2070, 37739.00
972.3240, 37788.00
973.4410, 37744.00
974.5580, 37744.00
975.6750, 38089.00
976.7920, 38404.00
977.9090, 38262.00
979.0250, 38237.00
980.1410, 37975.00
981.2580, 38125.00
982.3740, 38206.00
983.4890, 38113.00
984.6050, 38246.00
985.7200, 38225.00
986.8360, 38225.00
987.9510, 38343.00
989.0660, 38110.00
990.1810, 38237.00
991.2950, 38303.00
992.4100, 38092.00
993.5240, 38152.00
994.6390, 38412.00
995.7530, 38409.00
996.8660, 38436.00
997.9800, 38364.00
999.0940, 38333.00
1000.207, 38217.00
1001.320, 38398.00
1002.433, 38177.00
1003.546, 38074.00
1004.659, 38136.00
1005.772, 37864.00
1006.884, 37785.00
1007.996, 37769.00
1009.108, 37532.00
1010.220, 37767.00
1011.332, 37685.00
1012.444, 37351.00
1013.555, 37325.00
1014.666, 37552.00
1015.777, 37525.00
1016.888, 37351.00
1017.999, 37333.00
1019.110, 37371.00
1020.220, 37286.35
1021.331, 37358.00
1022.441, 37304.00
1023.551, 37322.00
1024.661, 37459.00
1025.770, 37371.00
1026.880, 37397.00
1027.989, 37288.00
1029.098, 37229.00
1030.207, 37192.00
1031.316, 37154.00
1032.425, 37355.00
1033.533, 37202.00
1034.642, 37530.00
1035.750, 37348.00
1036.858, 37238.00
1037.966, 37233.00
1039.073, 37208.00
1040.181, 37170.61
1041.288, 37332.00
1042.396, 37135.00
1043.503, 37366.00
1044.610, 37352.00
1045.716, 37246.00
1046.823, 37352.00
1047.929, 37518.00
1049.036, 37303.00
1050.142, 37560.00
1051.248, 37458.00
1052.353, 37605.00
1053.459, 37501.00
1054.564, 37825.00
1055.670, 37905.00
1056.775, 38023.00
1057.880, 38138.00
1058.985, 38118.00
1060.089, 38329.00
1061.194, 38434.10
1062.298, 38458.00
1063.402, 38732.00
1064.506, 38923.00
1065.610, 39021.00
1066.713, 39292.00
1067.817, 39246.00
1068.920, 39522.00
1070.023, 39867.00
1071.126, 40345.00
1072.229, 40242.00
1073.332, 40635.00
1074.435, 41235.00
1075.537, 41160.00
1076.639, 41105.00
1077.741, 41408.00
1078.843, 41531.00
1079.945, 41835.00
1081.046, 41950.00
1082.148, 42118.23
1083.249, 42341.00
1084.350, 42424.00
1085.451, 42603.00
1086.551, 42808.00
1087.652, 42831.77
1088.752, 42798.00
1089.853, 42924.00
1090.953, 43010.00
1092.053, 43061.00
1093.152, 42924.00
1094.252, 42676.00
1095.351, 42624.00
1096.451, 42651.00
1097.550, 42360.00
1098.649, 42268.00
1099.748, 42042.00
1100.846, 41822.91
1101.945, 41600.00
1103.043, 41413.00
1104.141, 41258.00
1105.239, 41116.00
1106.337, 40947.00
1107.434, 40676.00
1108.532, 40530.00
1109.629, 40463.00
1110.726, 40304.03
1111.823, 40396.00
1112.920, 40192.00
1114.017, 40064.00
1115.113, 40149.00
1116.210, 40211.00
1117.306, 40164.00
1118.402, 40266.00
1119.498, 40526.00
1120.593, 40377.00
1121.689, 40587.00
1122.784, 40534.00
1123.879, 40347.78
1124.974, 40203.00
1126.069, 39898.00
1127.164, 39666.00
1128.259, 39393.00
1129.353, 39054.00
1130.447, 39056.00
1131.541, 39249.00
1132.635, 39073.00
1133.729, 39047.00
1134.822, 38882.00
1135.916, 38818.00
1137.009, 38965.00
1138.102, 38794.00
1139.195, 38673.00
1140.288, 38669.00
1141.380, 38523.00
1142.473, 38656.00
1143.565, 38572.40
1144.657, 38661.00
1145.749, 38544.00
1146.841, 38564.00
1147.932, 38577.00
1149.024, 38661.00
1150.115, 38693.00
1151.206, 38537.00
1152.297, 38297.00
1153.388, 38270.00
1154.479, 38251.00
1155.569, 38199.00
1156.659, 38321.00
1157.750, 38442.00
1158.839, 38486.00
1159.929, 38066.00
1161.019, 38524.00
1162.108, 38181.00
1163.198, 38393.00
1164.287, 38345.00
1165.376, 38471.00
1166.465, 38355.00
1167.553, 38595.00
1168.642, 38417.00
1169.730, 38674.00
1170.818, 38519.00
1171.906, 38533.00
1172.994, 38537.00
1174.082, 38465.00
1175.170, 38655.00
1176.257, 38741.00
1177.344, 38619.55
1178.431, 38618.00
1179.518, 38478.00
1180.605, 38475.00
1181.691, 38590.00
1182.778, 38738.00
1183.864, 38971.00
1184.950, 38703.00
1186.036, 38916.00
1187.122, 38750.00
1188.207, 38954.00
1189.292, 38980.00
1190.378, 38899.00
1191.463, 38896.00
1192.548, 38867.00
1193.632, 38895.00
1194.717, 39169.00
1195.801, 39111.00
1196.886, 39169.00
1197.970, 39419.00
1199.054, 39136.00
1200.137, 39189.00
1201.221, 39207.00
1202.305, 39087.00
1203.388, 39386.00
1204.471, 39156.00
1205.554, 39067.00
1206.637, 39363.00
1207.719, 39165.00
1208.802, 39463.00
1209.884, 39441.00
1210.966, 39486.00
1212.048, 39548.00
1213.130, 39657.00
1214.212, 39646.14
1215.293, 39613.00
1216.374, 39686.00
1217.456, 39648.00
1218.536, 39737.00
1219.617, 39763.00
1220.698, 39719.00
1221.778, 39776.00
1222.859, 39973.00
1223.939, 39919.00
1225.019, 39979.00
1226.099, 40266.61
1227.178, 40388.08
1228.258, 40915.00
1229.337, 40774.00
1230.417, 41211.00
1231.496, 41169.00
1232.574, 40708.00
1233.653, 40063.00
1234.732, 40411.00
1235.810, 40165.00
1236.888, 40255.00
1237.966, 40163.00
1239.044, 39973.00
1240.122, 40175.00
1241.199, 40131.00
1242.277, 40497.00
1243.354, 40187.00
1244.431, 40260.00
1245.508, 40352.00
1246.585, 40343.00
1247.661, 40255.00
1248.738, 40487.00
1249.814, 40398.00
1250.890, 40706.00
1251.966, 40576.00
1253.042, 40464.00
1254.117, 40560.00
1255.193, 40591.00
1256.268, 40319.00
1257.343, 40406.00
1258.418, 40447.00
1259.493, 40641.00
1260.567, 40494.00
1261.642, 40399.00
1262.716, 40577.00
1263.790, 40762.00
1264.864, 40839.00
1265.938, 40996.00
1267.011, 40825.00
1268.085, 40864.00
1269.158, 40988.00
1270.231, 40816.00
1271.304, 41067.00
1272.377, 41109.00
1273.450, 40865.00
1274.522, 41026.00
1275.594, 40946.00
1276.666, 41127.00
1277.738, 41080.00
1278.810, 41259.00
1279.882, 41287.00
1280.953, 41519.00
1282.025, 41514.00
1283.096, 41562.00
1284.167, 41621.00
1285.238, 41575.00
1286.308, 41494.00
1287.379, 41428.00
1288.449, 41464.90
1289.519, 41474.57
1290.589, 41599.00
1291.659, 41640.00
1292.729, 41798.00
1293.798, 41976.00
1294.868, 41976.00
1295.937, 41797.00
1297.006, 41918.00
1298.075, 42059.00
1299.143, 41844.00
1300.212, 41990.00
1301.280, 42076.00
1302.348, 42342.00
1303.416, 42009.00
1304.484, 42014.00
1305.552, 41828.00
1306.620, 41833.00
1307.687, 42410.00
1308.754, 42319.00
1309.821, 42201.00
1310.888, 42225.00
1311.955, 42061.00
1313.021, 42181.00
1314.088, 42085.00
1315.154, 42379.00
1316.220, 42220.00
1317.286, 42505.00
1318.352, 42485.00
1319.417, 42970.00
1320.483, 42482.00
1321.548, 42636.00
1322.613, 42633.00
1323.678, 42495.00
1324.743, 42468.00
1325.807, 42546.00
1326.872, 42648.00
1327.936, 42687.26
1329.000, 42661.00
1330.064, 42846.00
1331.128, 42709.00
1332.191, 42775.00
1333.255, 42863.45
1334.318, 42721.00
1335.381, 42949.00
1336.444, 42953.00
1337.507, 42809.00
1338.569, 42682.00
1339.632, 43081.00
1340.694, 43015.00
1341.756, 43113.00
1342.818, 43101.00
1343.880, 42977.00
1344.941, 42740.00
1346.003, 42813.00
1347.064, 43297.00
1348.125, 43156.00
1349.186, 43370.00
1350.247, 43148.00
1351.308, 43059.00
1352.368, 43318.00
1353.428, 43317.00
1354.489, 43304.00
1355.549, 43272.00
1356.608, 43187.00
1357.668, 43182.38
1358.727, 43163.36
1359.787, 43178.00
1360.846, 43253.00
1361.905, 43366.00
1362.964, 43606.00
1364.022, 43646.00
1365.081, 43666.00
1366.139, 43608.00
1367.197, 43950.00
1368.255, 43500.00
1369.313, 43922.00
1370.371, 43804.00
1371.428, 43758.00
1372.486, 43894.00
1373.543, 43870.00
1374.600, 43920.00
1375.657, 43949.81
1376.713, 44042.00
1377.770, 43954.00
1378.826, 43973.00
1379.882, 43939.00
1380.938, 43906.00
1381.994, 44073.00
1383.050, 44066.00
1384.106, 44195.00
1385.161, 44225.00
1386.216, 43959.00
1387.271, 44204.00
1388.326, 44496.00
1389.381, 44226.00
1390.435, 44312.00
1391.490, 44213.00
1392.544, 44430.00
1393.598, 44225.00
1394.652, 44593.00
1395.705, 44452.00
1396.759, 44459.00
1397.812, 44448.00
1398.866, 44495.40
1399.919, 44817.00
1400.972, 44658.00
1402.024, 44768.00
1403.077, 44791.00
1404.129, 44676.00
1405.181, 45032.00
1406.233, 45137.00
1407.285, 44651.00
1408.337, 44782.00
1409.389, 44631.00
1410.440, 44910.00
1411.491, 44840.00
1412.542, 45317.00
1413.593, 45156.00
1414.644, 45121.00
1415.695, 45398.00
1416.745, 45116.00
1417.795, 45328.00
1418.845, 45402.00
1419.895, 45122.00
1420.945, 45049.00
1421.995, 45224.00
1423.044, 45432.00
1424.093, 45361.00
1425.142, 45563.00
1426.191, 45562.00
1427.240, 45721.00
1428.289, 45561.00
1429.337, 45773.00
1430.385, 45642.00
1431.433, 45825.00
1432.481, 46125.00
1433.529, 46501.00
1434.577, 46374.00
1435.624, 46289.00
1436.672, 46516.00
1437.719, 46493.00
1438.766, 46453.00
1439.812, 46511.00
1440.859, 46399.00
1441.905, 46607.00
1442.952, 46626.00
1443.998, 46398.00
1445.044, 46359.00
1446.090, 46591.00
1447.135, 46436.00
1448.181, 46446.00
1449.226, 46515.00
1450.271, 46905.00
1451.316, 46703.00
1452.361, 46728.00
1453.405, 46813.00
1454.450, 46531.00
1455.494, 46856.00
1456.538, 46533.00
1457.582, 46651.00
1458.626, 47070.00
1459.670, 46944.00
1460.713, 46795.00
1461.757, 46815.00
1462.800, 46908.00
1463.843, 46962.00
1464.886, 46690.00
1465.928, 46644.00
1466.971, 46824.00
1468.013, 46978.00
1469.055, 46732.00
1470.097, 46696.00
1471.139, 46782.00
1472.181, 46804.00
1473.222, 47064.00
1474.263, 46564.00
1475.305, 46725.00
1476.346, 46975.00
1477.386, 46721.00
1478.427, 47024.00
1479.468, 46978.00
1480.508, 46940.00
1481.548, 46909.00
1482.588, 46785.00
1483.628, 46952.00
1484.668, 47097.00
1485.707, 46977.00
1486.747, 47334.00
1487.786, 46990.00
1488.825, 47096.00
1489.864, 47166.00
1490.902, 47063.00
1491.941, 46952.00
1492.979, 47076.00
1494.017, 46974.00
1495.055, 46852.00
1496.093, 47201.00
1497.131, 46823.00
1498.168, 47137.00
1499.206, 47256.00
1500.243, 47069.00
1501.280, 47329.00
1502.317, 47344.00
1503.354, 47415.00
1504.390, 47486.00
1505.426, 47446.00
1506.463, 47530.00
1507.499, 47367.00
1508.535, 47756.00
1509.570, 47622.00
1510.606, 47197.00
1511.641, 47651.00
1512.676, 47703.00
1513.711, 47693.00
1514.746, 47774.00
1515.781, 47579.00
1516.816, 47713.00
1517.850, 47683.00
1518.884, 47792.00
1519.918, 47994.00
1520.952, 47792.00
1521.986, 47704.00
1523.019, 47746.00
1524.053, 47832.00
1525.086, 47831.00
1526.119, 48019.00
1527.152, 47815.00
1528.185, 47960.00
1529.217, 47983.00
1530.250, 48119.00
1531.282, 48260.00
1532.314, 48008.00
1533.346, 47860.00
1534.377, 47815.00
1535.409, 48286.00
1536.440, 47940.00
1537.472, 48092.00
1538.503, 48045.00
1539.534, 47962.00
1540.564, 48120.00
1541.595, 48245.00
1542.625, 48093.00
1543.656, 48181.00
1544.686, 48468.00
1545.716, 48024.00
1546.745, 48325.00
1547.775, 48204.00
1548.804, 48265.00
1549.834, 48469.00
1550.863, 48265.00
1551.892, 48438.00
1552.920, 48687.00
1553.949, 48652.00
1554.977, 48444.00
1556.006, 48538.00
1557.034, 48463.00
1558.062, 49059.00
1559.089, 48459.00
1560.117, 48684.00
1561.144, 48331.00
1562.172, 48525.00
1563.199, 48531.00
1564.226, 48514.00
1565.252, 48707.00
1566.279, 48613.00
1567.305, 48671.00
1568.332, 48762.00
1569.358, 48605.00
1570.384, 48788.00
1571.409, 48582.00
1572.435, 49042.00
##END=



