##NAMES=Elbaite
##RRUFFID=R050260
##IDEAL CHEMISTRY=Na(Al_1.5_Li_1.5_)Al_6_(Si_6_O_18_)(BO_3_)_3_(OH)_3_OH
##LOCALITY=Minas Gerais, Brazil
##OWNER=RRUFF
##SOURCE=Marcus Origlieri
##DESCRIPTION=Greenish-gray prismatic single crystal
##STATUS=The identification of this mineral has been confirmed by X-ray diffraction and chemical analysis
##URL=rruff.info/R050260
##MEASURED CHEMISTRY=(Na_0.76_[box]_0.17_Ca_0.07_)_Σ=1_(Al_1.67_Li_0.97_Mn_0.36_)_Σ=3_Al_6.00_(B_1.00_O_3_)_3_Si_6.00_O_18_((OH)_3.40_F_0.60_)_Σ=4_; B assumed by stoichiometry; OH estimated by charge balance
##PIN_ID=L01964
##ORIENTATION=Laser parallel to a* (1 0 0). Fiducial mark perpendicular to laser is parallel to -c [0 0 -1]
118.1340, 9264.000
119.3650, 9236.000
120.5960, 9164.000
121.8270, 9214.000
123.0580, 9300.000
124.2880, 9458.000
125.5190, 9231.000
126.7490, 9223.000
127.9790, 9248.000
129.2090, 9354.000
130.4390, 9402.000
131.6680, 9438.067
132.8980, 9302.000
134.1270, 9509.000
135.3560, 9458.000
136.5850, 9498.000
137.8140, 9604.000
139.0430, 9643.000
140.2710, 9661.000
141.5000, 9457.000
142.7280, 9408.000
143.9560, 9402.000
145.1840, 9366.000
146.4120, 9426.000
147.6390, 9575.000
148.8670, 9780.000
150.0940, 9906.000
151.3210, 10252.00
152.5490, 10592.00
153.7750, 10619.00
155.0020, 10823.00
156.2290, 10887.00
157.4550, 10895.00
158.6810, 10898.00
159.9080, 10806.00
161.1340, 10799.00
162.3590, 10683.00
163.5850, 10625.00
164.8110, 10644.00
166.0360, 10551.00
167.2610, 10350.00
168.4860, 10337.00
169.7110, 10296.00
170.9360, 10241.00
172.1610, 10215.00
173.3850, 10074.00
174.6100, 10147.00
175.8340, 10034.00
177.0580, 10109.00
178.2820, 10197.00
179.5050, 10328.00
180.7290, 10244.00
181.9520, 10329.00
183.1760, 10555.00
184.3990, 10868.00
185.6220, 10807.00
186.8450, 11015.00
188.0670, 11091.00
189.2900, 11244.00
190.5120, 11511.00
191.7340, 11737.19
192.9560, 12052.00
194.1780, 12389.00
195.4000, 12803.00
196.6220, 13235.00
197.8430, 13606.00
199.0640, 14042.00
200.2860, 14524.21
201.5070, 15092.00
202.7270, 15569.00
203.9480, 16113.00
205.1690, 16735.00
206.3890, 17484.00
207.6090, 18654.00
208.8290, 19816.00
210.0490, 21342.00
211.2690, 23096.00
212.4890, 24987.00
213.7080, 26911.00
214.9280, 28655.00
216.1470, 30546.00
217.3660, 32860.00
218.5850, 35445.00
219.8030, 38142.00
221.0220, 41197.00
222.2400, 43800.00
223.4590, 45495.00
224.6770, 45993.00
225.8950, 45189.00
227.1120, 43972.00
228.3300, 41280.00
229.5480, 38888.00
230.7650, 36696.00
231.9820, 34668.00
233.1990, 32714.00
234.4160, 31680.00
235.6330, 30575.00
236.8490, 29962.00
238.0660, 29680.00
239.2820, 29505.00
240.4980, 29091.00
241.7140, 29093.00
242.9300, 29313.00
244.1460, 29312.00
245.3610, 29690.00
246.5770, 29572.00
247.7920, 29615.00
249.0070, 29286.00
250.2220, 29085.00
251.4370, 28448.00
252.6510, 28014.00
253.8660, 27493.00
255.0800, 26769.00
256.2940, 26540.00
257.5080, 26032.00
258.7220, 26172.00
259.9360, 25714.00
261.1490, 24795.00
262.3630, 23783.00
263.5760, 23478.00
264.7890, 23113.00
266.0020, 22746.00
267.2150, 22288.00
268.4270, 21951.00
269.6400, 21616.00
270.8520, 21481.00
272.0640, 20859.00
273.2760, 20643.00
274.4880, 20234.00
275.7000, 19631.00
276.9120, 18959.00
278.1230, 18225.00
279.3340, 17885.00
280.5450, 17076.00
281.7560, 16575.00
282.9670, 16175.00
284.1780, 15725.00
285.3880, 15136.00
286.5980, 14686.00
287.8090, 14283.00
289.0190, 13890.00
290.2290, 13558.00
291.4380, 13218.00
292.6480, 12882.00
293.8570, 12649.00
295.0670, 12404.00
296.2760, 12286.00
297.4850, 12308.00
298.6930, 12110.00
299.9020, 12232.00
301.1110, 12221.00
302.3190, 12273.00
303.5270, 12314.00
304.7350, 12447.00
305.9430, 12605.46
307.1510, 12804.92
308.3580, 13040.00
309.5660, 13358.00
310.7730, 13643.00
311.9800, 14045.00
313.1870, 14407.00
314.3940, 14623.00
315.6010, 14863.00
316.8070, 15303.00
318.0130, 15339.00
319.2200, 15575.00
320.4260, 15358.00
321.6310, 15242.00
322.8370, 15243.00
324.0430, 14976.00
325.2480, 15027.00
326.4540, 15002.00
327.6590, 15101.00
328.8640, 15241.08
330.0680, 15420.59
331.2730, 15673.00
332.4780, 15968.00
333.6820, 16341.00
334.8860, 16503.81
336.0900, 16719.00
337.2940, 16903.00
338.4980, 17041.00
339.7010, 17281.00
340.9050, 17453.00
342.1080, 17796.00
343.3110, 18146.00
344.5140, 18371.00
345.7170, 18753.00
346.9200, 18873.00
348.1220, 19080.00
349.3240, 19605.00
350.5270, 19618.00
351.7290, 20418.00
352.9310, 20341.00
354.1320, 21229.00
355.3340, 21666.00
356.5350, 22615.00
357.7370, 23723.00
358.9380, 24980.00
360.1390, 26953.00
361.3400, 28726.00
362.5400, 31267.00
363.7410, 33772.00
364.9410, 36506.00
366.1410, 39312.00
367.3410, 41832.00
368.5410, 44984.00
369.7410, 48577.00
370.9400, 53065.00
372.1400, 57489.00
373.3390, 61376.00
374.5380, 63449.00
375.7370, 63166.00
376.9360, 60706.00
378.1350, 56595.00
379.3330, 51837.00
380.5310, 46628.00
381.7300, 42429.00
382.9280, 38327.00
384.1260, 35617.00
385.3230, 32935.00
386.5210, 30787.00
387.7180, 29058.00
388.9160, 27917.00
390.1130, 26679.00
391.3100, 25915.54
392.5060, 25385.38
393.7030, 25012.00
394.9000, 24922.00
396.0960, 24954.00
397.2920, 25031.00
398.4880, 25171.00
399.6840, 25547.00
400.8800, 25686.00
402.0750, 25991.00
403.2710, 26415.00
404.4660, 26661.00
405.6610, 27176.00
406.8560, 27331.00
408.0510, 27557.00
409.2450, 27270.00
410.4400, 26973.00
411.6340, 26418.00
412.8280, 25654.00
414.0220, 24937.00
415.2160, 23720.00
416.4100, 22600.00
417.6030, 21458.00
418.7970, 20187.00
419.9900, 19028.00
421.1830, 18289.00
422.3760, 17314.00
423.5690, 16604.00
424.7610, 16063.00
425.9540, 15494.00
427.1460, 15040.00
428.3380, 14630.22
429.5300, 14271.00
430.7220, 14016.00
431.9140, 13790.00
433.1050, 13705.00
434.2970, 13524.00
435.4880, 13300.00
436.6790, 13339.00
437.8700, 13405.00
439.0610, 13078.00
440.2510, 12995.00
441.4420, 13097.00
442.6320, 13198.00
443.8220, 13100.00
445.0120, 13028.00
446.2020, 13028.00
447.3910, 12987.12
448.5810, 13065.00
449.7700, 12959.00
450.9600, 12949.00
452.1490, 12881.00
453.3370, 12850.00
454.5260, 12789.00
455.7150, 12808.00
456.9030, 12811.00
458.0910, 12646.00
459.2800, 12735.00
460.4670, 12729.00
461.6550, 12827.00
462.8430, 12630.00
464.0300, 12650.00
465.2180, 12723.00
466.4050, 12652.00
467.5920, 12720.00
468.7790, 12663.00
469.9650, 12757.00
471.1520, 12884.00
472.3380, 12660.00
473.5250, 12743.00
474.7110, 12544.00
475.8970, 12856.00
477.0820, 12616.00
478.2680, 12740.00
479.4540, 12718.00
480.6390, 12826.00
481.8240, 13075.00
483.0090, 13069.00
484.1940, 13335.00
485.3780, 13333.00
486.5630, 13570.00
487.7470, 13579.00
488.9320, 13970.00
490.1160, 13949.00
491.3000, 14367.00
492.4830, 14306.00
493.6670, 14634.00
494.8500, 14829.00
496.0340, 15165.00
497.2170, 15184.00
498.4000, 15276.00
499.5820, 15303.00
500.7650, 15587.00
501.9480, 15692.00
503.1300, 16087.00
504.3120, 16196.00
505.4940, 16262.00
506.6760, 16393.00
507.8580, 16400.00
509.0390, 16373.00
510.2210, 16406.00
511.4020, 16389.00
512.5830, 16363.00
513.7640, 16325.00
514.9450, 16194.00
516.1250, 16248.00
517.3060, 16109.00
518.4860, 15889.00
519.6660, 15623.00
520.8460, 15580.00
522.0260, 15266.00
523.2060, 14992.00
524.3850, 14742.00
525.5650, 14441.00
526.7440, 14228.00
527.9230, 14051.00
529.1020, 14016.00
530.2810, 13947.00
531.4590, 13820.52
532.6380, 13808.59
533.8160, 13658.00
534.9940, 13695.00
536.1720, 13720.00
537.3500, 13585.00
538.5270, 13584.00
539.7050, 13467.30
540.8820, 13283.00
542.0590, 13261.00
543.2360, 13143.00
544.4130, 13104.00
545.5900, 12984.00
546.7660, 12999.00
547.9430, 12930.00
549.1190, 12742.00
550.2950, 12839.00
551.4710, 12790.00
552.6470, 12812.00
553.8220, 12629.00
554.9980, 12634.00
556.1730, 12676.00
557.3480, 12692.00
558.5230, 12748.00
559.6980, 12596.00
560.8730, 12557.00
562.0470, 12624.00
563.2220, 12514.00
564.3960, 12491.00
565.5700, 12663.00
566.7440, 12674.00
567.9170, 12557.00
569.0910, 12538.00
570.2640, 12669.00
571.4380, 12559.00
572.6110, 12705.00
573.7840, 12770.00
574.9570, 12644.00
576.1290, 12808.00
577.3020, 12784.00
578.4740, 12950.00
579.6460, 12840.00
580.8180, 12893.00
581.9900, 12956.00
583.1620, 12922.00
584.3330, 13103.00
585.5040, 12961.00
586.6760, 13051.00
587.8470, 13073.00
589.0180, 13004.00
590.1880, 13107.00
591.3590, 13127.00
592.5290, 13004.00
593.7000, 13022.00
594.8700, 12996.00
596.0400, 12949.00
597.2090, 12929.00
598.3790, 12920.00
599.5490, 12955.00
600.7180, 12947.00
601.8870, 12949.94
603.0560, 12977.00
604.2250, 12969.00
605.3940, 13009.00
606.5620, 13073.00
607.7300, 13005.00
608.8990, 13193.00
610.0670, 13197.00
611.2350, 13082.00
612.4020, 13180.00
613.5700, 13307.00
614.7370, 13372.00
615.9050, 13453.00
617.0720, 13505.00
618.2390, 13696.00
619.4060, 13985.00
620.5720, 14331.00
621.7390, 14454.00
622.9050, 15015.00
624.0710, 15528.00
625.2370, 16139.00
626.4030, 16855.75
627.5690, 17672.00
628.7340, 18493.00
629.9000, 19343.00
631.0650, 20408.00
632.2300, 21418.00
633.3950, 22348.00
634.5600, 23069.00
635.7240, 23524.00
636.8890, 23771.00
638.0530, 23695.00
639.2170, 23417.00
640.3810, 23106.00
641.5450, 22513.00
642.7080, 21879.00
643.8720, 21364.00
645.0350, 20654.00
646.1980, 20293.00
647.3610, 19710.00
648.5240, 19431.00
649.6870, 19112.00
650.8490, 18775.00
652.0120, 18576.00
653.1740, 18227.00
654.3360, 18123.00
655.4980, 18008.00
656.6600, 17770.00
657.8210, 17458.00
658.9830, 17126.00
660.1440, 16830.00
661.3050, 16605.00
662.4660, 16246.17
663.6270, 15991.00
664.7870, 15630.00
665.9480, 15404.00
667.1080, 15192.00
668.2680, 14755.00
669.4280, 14529.00
670.5880, 14192.00
671.7480, 14145.00
672.9070, 13768.00
674.0670, 13757.00
675.2260, 13506.00
676.3850, 13520.00
677.5440, 13586.00
678.7030, 13650.00
679.8610, 13779.00
681.0200, 13664.00
682.1780, 13885.00
683.3360, 14079.00
684.4940, 14115.00
685.6520, 14432.00
686.8090, 14845.00
687.9670, 15339.00
689.1240, 15992.61
690.2810, 16652.00
691.4380, 17650.00
692.5950, 18519.00
693.7520, 19712.00
694.9080, 20914.00
696.0650, 22443.00
697.2210, 23864.00
698.3770, 25489.00
699.5330, 27444.00
700.6880, 28775.00
701.8440, 30763.00
702.9990, 32318.00
704.1550, 33475.00
705.3100, 34578.00
706.4650, 35386.00
707.6190, 35145.00
708.7740, 35053.00
709.9290, 33372.00
711.0830, 32094.00
712.2370, 30205.00
713.3910, 28229.00
714.5450, 26013.00
715.6980, 24285.00
716.8520, 22496.00
718.0050, 20766.00
719.1580, 19387.00
720.3110, 18281.00
721.4640, 17359.00
722.6170, 16590.00
723.7700, 15937.00
724.9220, 15406.00
726.0740, 14957.00
727.2260, 14769.00
728.3780, 14525.00
729.5300, 14332.00
730.6810, 14247.00
731.8330, 14042.00
732.9840, 13984.00
734.1350, 14029.00
735.2860, 14011.00
736.4370, 14185.00
737.5880, 14310.00
738.7380, 14452.00
739.8880, 14654.00
741.0390, 15156.00
742.1890, 15460.00
743.3380, 16001.00
744.4880, 16304.00
745.6380, 17064.00
746.7870, 17595.00
747.9360, 18101.00
749.0850, 18579.00
750.2340, 19080.00
751.3830, 19519.00
752.5310, 19485.00
753.6800, 19252.00
754.8280, 18883.00
755.9760, 18300.00
757.1240, 17520.00
758.2720, 16695.00
759.4190, 16196.00
760.5670, 15405.00
761.7140, 15015.00
762.8610, 14423.00
764.0080, 13876.00
765.1550, 13647.00
766.3020, 13332.00
767.4480, 12952.00
768.5950, 12793.00
769.7410, 12442.00
770.8870, 12223.00
772.0330, 12298.00
773.1780, 11958.00
774.3240, 11976.00
775.4690, 11875.00
776.6140, 11872.00
777.7590, 11645.00
778.9040, 11608.00
780.0490, 11516.00
781.1940, 11214.00
782.3380, 11226.00
783.4820, 10948.00
784.6260, 10997.00
785.7700, 10902.00
786.9140, 10666.00
788.0580, 10742.00
789.2010, 10521.00
790.3450, 10487.00
791.4880, 10499.00
792.6310, 10600.00
793.7730, 10498.00
794.9160, 10482.00
796.0590, 10505.00
797.2010, 10395.00
798.3430, 10521.00
799.4850, 10310.00
800.6270, 10397.00
801.7690, 10329.00
802.9100, 10248.00
804.0520, 10385.00
805.1930, 10397.00
806.3340, 10321.00
807.4750, 10293.00
808.6160, 10199.00
809.7560, 10285.00
810.8970, 10388.00
812.0370, 10356.00
813.1770, 10358.00
814.3170, 10336.00
815.4570, 10375.64
816.5960, 10528.00
817.7360, 10507.00
818.8750, 10337.00
820.0140, 10465.00
821.1530, 10409.00
822.2920, 10505.00
823.4310, 10480.00
824.5690, 10733.00
825.7070, 10768.00
826.8460, 10803.00
827.9840, 10844.00
829.1220, 10913.32
830.2590, 11010.00
831.3970, 11050.00
832.5340, 11114.00
833.6710, 11149.00
834.8080, 11106.00
835.9450, 11233.00
837.0820, 11169.00
838.2190, 11198.00
839.3550, 11307.00
840.4910, 11316.00
841.6270, 11315.00
842.7630, 11137.00
843.8990, 10941.00
845.0350, 11173.00
846.1700, 11043.00
847.3060, 11214.00
848.4410, 11057.00
849.5760, 10975.00
850.7100, 11083.00
851.8450, 11065.00
852.9800, 10978.00
854.1140, 10882.00
855.2480, 11055.00
856.3820, 11003.00
857.5160, 11003.00
858.6500, 11193.00
859.7830, 11015.00
860.9170, 10977.00
862.0500, 10926.00
863.1830, 11014.00
864.3160, 10977.00
865.4480, 10828.00
866.5810, 10813.00
867.7130, 10703.00
868.8460, 10723.00
869.9780, 10683.00
871.1100, 10676.00
872.2410, 10611.00
873.3730, 10514.00
874.5050, 10641.00
875.6360, 10381.00
876.7670, 10618.00
877.8980, 10602.00
879.0290, 10519.00
880.1590, 10452.00
881.2900, 10379.00
882.4200, 10349.00
883.5500, 10358.01
884.6800, 10536.00
885.8100, 10411.00
886.9400, 10464.00
888.0690, 10463.00
889.1990, 10372.00
890.3280, 10528.00
891.4570, 10221.00
892.5860, 10360.00
893.7140, 10423.00
894.8430, 10412.00
895.9710, 10313.00
897.1000, 10261.00
898.2280, 10375.00
899.3560, 10404.00
900.4830, 10497.00
901.6110, 10484.00
902.7380, 10393.00
903.8660, 10456.00
904.9930, 10423.00
906.1200, 10523.00
907.2460, 10532.00
908.3730, 10480.00
909.5000, 10547.00
910.6260, 10538.92
911.7520, 10621.00
912.8780, 10606.00
914.0040, 10681.00
915.1290, 10772.00
916.2550, 10651.00
917.3800, 10750.00
918.5050, 10859.00
919.6300, 10768.00
920.7550, 10933.00
921.8800, 11021.00
923.0040, 10988.00
924.1290, 11008.00
925.2530, 11196.00
926.3770, 11233.00
927.5010, 11284.00
928.6250, 11284.00
929.7480, 11495.00
930.8720, 11275.00
931.9950, 11584.00
933.1180, 11566.00
934.2410, 11652.00
935.3640, 11837.00
936.4860, 11960.00
937.6090, 12022.39
938.7310, 12060.00
939.8530, 12111.00
940.9750, 12118.00
942.0970, 12104.00
943.2180, 12440.00
944.3400, 12402.00
945.4610, 12624.00
946.5820, 12573.00
947.7030, 12818.00
948.8240, 12954.00
949.9450, 13045.00
951.0650, 13220.00
952.1860, 13416.00
953.3060, 13373.00
954.4260, 13701.00
955.5460, 13773.00
956.6650, 14027.00
957.7850, 14087.00
958.9040, 14236.00
960.0230, 14453.00
961.1420, 14744.00
962.2610, 14887.00
963.3800, 15143.00
964.4990, 15150.00
965.6170, 15236.00
966.7350, 15407.00
967.8530, 15369.00
968.9710, 15562.00
970.0890, 15467.00
971.2070, 15549.00
972.3240, 15711.00
973.4410, 15449.00
974.5580, 15611.00
975.6750, 15566.00
976.7920, 15516.00
977.9090, 15447.00
979.0250, 15443.97
980.1410, 15392.71
981.2580, 15426.00
982.3740, 15358.00
983.4890, 15330.00
984.6050, 15371.00
985.7200, 15409.00
986.8360, 15300.00
987.9510, 15385.00
989.0660, 15432.00
990.1810, 15307.00
991.2950, 15223.00
992.4100, 15373.00
993.5240, 15399.00
994.6390, 15199.00
995.7530, 15293.00
996.8660, 15344.00
997.9800, 15386.00
999.0940, 15430.56
1000.207, 15552.00
1001.320, 15415.00
1002.433, 15475.00
1003.546, 15325.00
1004.659, 15472.00
1005.772, 15406.00
1006.884, 15454.00
1007.996, 15498.00
1009.108, 15504.52
1010.220, 15558.94
1011.332, 15590.00
1012.444, 15653.00
1013.555, 15719.00
1014.666, 15796.00
1015.777, 15801.00
1016.888, 15909.96
1017.999, 15929.00
1019.110, 16103.00
1020.220, 16166.00
1021.331, 16288.00
1022.441, 16279.50
1023.551, 16228.00
1024.661, 16167.00
1025.770, 16194.00
1026.880, 16170.94
1027.989, 16066.00
1029.098, 16185.00
1030.207, 16132.00
1031.316, 16116.00
1032.425, 16157.00
1033.533, 16208.89
1034.642, 16306.45
1035.750, 16410.00
1036.858, 16563.00
1037.966, 16697.00
1039.073, 16828.00
1040.181, 17185.00
1041.288, 17306.00
1042.396, 17661.00
1043.503, 17883.00
1044.610, 18209.00
1045.716, 18454.00
1046.823, 18912.00
1047.929, 19210.00
1049.036, 19782.00
1050.142, 20010.00
1051.248, 20357.00
1052.353, 20918.00
1053.459, 21295.00
1054.564, 21449.00
1055.670, 21857.00
1056.775, 22004.00
1057.880, 22238.00
1058.985, 22516.00
1060.089, 22653.00
1061.194, 22569.00
1062.298, 22372.00
1063.402, 22667.00
1064.506, 22288.00
1065.610, 22143.00
1066.713, 21953.00
1067.817, 21653.00
1068.920, 21561.00
1070.023, 21213.00
1071.126, 21131.00
1072.229, 21047.00
1073.332, 21016.00
1074.435, 21098.00
1075.537, 21127.00
1076.639, 21025.00
1077.741, 21279.00
1078.843, 21226.00
1079.945, 21316.00
1081.046, 21520.00
1082.148, 21865.00
1083.249, 22069.00
1084.350, 22130.00
1085.451, 22355.00
1086.551, 22360.00
1087.652, 22304.00
1088.752, 22039.00
1089.853, 21646.00
1090.953, 21102.00
1092.053, 20616.00
1093.152, 19950.00
1094.252, 19220.00
1095.351, 18691.00
1096.451, 18165.00
1097.550, 17692.00
1098.649, 17177.00
1099.748, 16848.00
1100.846, 16329.00
1101.945, 16057.00
1103.043, 15630.00
1104.141, 15397.00
1105.239, 15231.00
1106.337, 14889.00
1107.434, 14506.00
1108.532, 14198.00
1109.629, 14158.00
1110.726, 14048.00
1111.823, 13693.00
1112.920, 13571.00
1114.017, 13356.00
1115.113, 13402.00
1116.210, 13186.00
1117.306, 13227.00
1118.402, 13184.00
1119.498, 12992.00
1120.593, 12878.00
1121.689, 12888.00
1122.784, 12756.00
1123.879, 12775.00
1124.974, 12619.00
1126.069, 12605.00
1127.164, 12475.00
1128.259, 12333.00
1129.353, 12449.00
1130.447, 12267.00
1131.541, 12097.00
1132.635, 12084.00
1133.729, 11940.68
1134.822, 11879.60
1135.916, 11930.00
1137.009, 11696.00
1138.102, 11988.00
1139.195, 11803.00
1140.288, 11657.00
1141.380, 11733.00
1142.473, 11662.00
1143.565, 11595.00
1144.657, 11555.00
1145.749, 11531.00
1146.841, 11576.00
1147.932, 11445.00
1149.024, 11518.00
1150.115, 11379.00
1151.206, 11475.00
1152.297, 11359.00
1153.388, 11388.00
1154.479, 11468.00
1155.569, 11367.00
1156.659, 11458.00
1157.750, 11410.00
1158.839, 11531.00
1159.929, 11372.00
1161.019, 11459.00
1162.108, 11440.00
1163.198, 11552.00
1164.287, 11516.00
1165.376, 11487.00
1166.465, 11526.00
1167.553, 11449.00
1168.642, 11521.00
1169.730, 11438.00
1170.818, 11551.00
1171.906, 11522.00
1172.994, 11585.00
1174.082, 11481.00
1175.170, 11513.00
1176.257, 11529.00
1177.344, 11549.00
1178.431, 11542.82
1179.518, 11583.00
1180.605, 11512.00
1181.691, 11504.00
1182.778, 11478.00
1183.864, 11481.01
1184.950, 11516.00
1186.036, 11552.00
1187.122, 11533.00
1188.207, 11637.00
1189.292, 11618.00
1190.378, 11554.00
1191.463, 11623.00
1192.548, 11581.00
1193.632, 11453.00
1194.717, 11536.00
1195.801, 11540.00
1196.886, 11468.00
1197.970, 11648.00
1199.054, 11603.00
1200.137, 11426.00
1201.221, 11521.00
1202.305, 11428.00
1203.388, 11567.00
1204.471, 11496.00
1205.554, 11549.00
1206.637, 11644.00
1207.719, 11433.00
1208.802, 11460.00
1209.884, 11408.00
1210.966, 11415.00
1212.048, 11347.00
1213.130, 11511.00
1214.212, 11283.00
1215.293, 11550.00
1216.374, 11387.00
1217.456, 11433.00
1218.536, 11265.00
1219.617, 11474.00
1220.698, 11345.00
1221.778, 11385.00
1222.859, 11415.00
1223.939, 11431.00
1225.019, 11489.00
1226.099, 11464.00
1227.178, 11372.00
1228.258, 11418.00
1229.337, 11411.00
1230.417, 11425.00
1231.496, 11461.00
1232.574, 11388.00
1233.653, 11396.00
1234.732, 11349.00
1235.810, 11334.62
1236.888, 11406.00
1237.966, 11330.00
1239.044, 11414.00
1240.122, 11455.00
1241.199, 11378.00
1242.277, 11403.58
1243.354, 11418.00
1244.431, 11351.00
1245.508, 11408.00
1246.585, 11424.00
1247.661, 11422.00
1248.738, 11371.00
1249.814, 11450.00
1250.890, 11370.00
1251.966, 11407.00
1253.042, 11439.00
1254.117, 11376.00
1255.193, 11503.00
1256.268, 11604.00
1257.343, 11586.00
1258.418, 11519.00
1259.493, 11576.00
1260.567, 11573.19
1261.642, 11535.00
1262.716, 11628.00
1263.790, 11634.00
1264.864, 11627.00
1265.938, 11582.00
1267.011, 11646.00
1268.085, 11652.00
1269.158, 11737.00
1270.231, 11820.00
1271.304, 11811.00
1272.377, 11734.00
1273.450, 11868.00
1274.522, 11906.00
1275.594, 11824.00
1276.666, 11907.00
1277.738, 11947.00
1278.810, 11803.00
1279.882, 12031.00
1280.953, 11900.00
1282.025, 11910.00
1283.096, 12060.00
1284.167, 12031.00
1285.238, 11948.00
1286.308, 11938.00
1287.379, 12001.00
1288.449, 12021.00
1289.519, 11990.00
1290.589, 12179.00
1291.659, 12144.00
1292.729, 12138.00
1293.798, 12113.00
1294.868, 12094.68
1295.937, 12111.00
1297.006, 12048.00
1298.075, 12036.00
1299.143, 11987.00
1300.212, 12002.00
1301.280, 12017.96
1302.348, 12035.55
1303.416, 12082.00
1304.484, 12130.00
1305.552, 12148.00
1306.620, 12226.00
1307.687, 12179.00
1308.754, 12158.00
1309.821, 12152.00
1310.888, 12320.00
1311.955, 12080.00
1313.021, 12213.00
1314.088, 12189.00
1315.154, 12124.00
1316.220, 12192.00
1317.286, 12243.00
1318.352, 12290.00
1319.417, 12241.00
1320.483, 12194.00
1321.548, 12278.00
1322.613, 12187.00
1323.678, 12327.00
1324.743, 12204.00
1325.807, 12221.96
1326.872, 12149.00
1327.936, 12189.00
1329.000, 12228.00
1330.064, 12222.00
1331.128, 12332.00
1332.191, 12231.00
1333.255, 12177.00
1334.318, 12092.00
1335.381, 12203.00
1336.444, 12099.00
1337.507, 12154.00
1338.569, 12154.00
1339.632, 12153.00
1340.694, 12148.00
1341.756, 12046.00
1342.818, 12048.00
1343.880, 12209.00
1344.941, 12034.00
1346.003, 12085.00
1347.064, 12014.00
1348.125, 12228.00
1349.186, 12168.00
1350.247, 12145.00
1351.308, 12003.00
1352.368, 12251.00
1353.428, 12229.00
1354.489, 12113.00
1355.549, 12199.00
1356.608, 12069.00
1357.668, 12122.00
1358.727, 12267.00
1359.787, 12194.00
1360.846, 12094.00
1361.905, 12258.00
1362.964, 12167.00
1364.022, 12248.00
1365.081, 12185.00
1366.139, 12314.00
1367.197, 12245.00
1368.255, 12330.00
1369.313, 12279.00
1370.371, 12327.00
1371.428, 12465.00
1372.486, 12470.00
1373.543, 12550.14
1374.600, 12516.00
1375.657, 12602.00
1376.713, 12686.00
1377.770, 12596.00
1378.826, 12500.00
1379.882, 12534.00
1380.938, 12551.63
1381.994, 12831.00
1383.050, 12686.00
1384.106, 12938.00
1385.161, 12973.00
1386.216, 13053.00
1387.271, 13147.00
1388.326, 13125.00
1389.381, 13140.00
1390.435, 13211.00
1391.490, 13253.00
1392.544, 13306.89
1393.598, 13306.00
1394.652, 13395.00
1395.705, 13429.00
1396.759, 13404.00
1397.812, 13454.00
1398.866, 13451.00
1399.919, 13397.19
1400.972, 13395.00
1402.024, 13238.00
1403.077, 13305.00
1404.129, 13159.00
1405.181, 13226.00
1406.233, 13164.00
1407.285, 13280.00
1408.337, 13227.00
1409.389, 13192.00
1410.440, 13105.00
1411.491, 13173.00
1412.542, 13085.00
1413.593, 13127.00
1414.644, 13009.00
1415.695, 13079.00
1416.745, 13202.00
1417.795, 13200.00
1418.845, 13100.00
1419.895, 12980.00
1420.945, 12968.00
1421.995, 12939.00
1423.044, 13058.00
1424.093, 12936.00
1425.142, 12994.00
1426.191, 12990.00
1427.240, 12971.00
1428.289, 13085.00
1429.337, 12996.00
1430.385, 12961.00
1431.433, 13093.00
1432.481, 12988.00
1433.529, 12937.00
1434.577, 12964.00
1435.624, 12918.07
1436.672, 12919.00
1437.719, 12948.00
1438.766, 12994.00
1439.812, 13070.00
1440.859, 12842.00
1441.905, 13011.00
1442.952, 13211.00
1443.998, 12951.00
1445.044, 12996.00
1446.090, 12868.00
1447.135, 12851.00
1448.181, 12822.00
1449.226, 12944.00
1450.271, 12812.00
1451.316, 12832.00
1452.361, 12739.00
1453.405, 12938.00
1454.450, 12794.00
1455.494, 12627.00
1456.538, 12729.00
1457.582, 12580.00
1458.626, 12633.00
1459.670, 12631.00
1460.713, 12675.00
1461.757, 12684.00
1462.800, 12714.00
1463.843, 12715.78
1464.886, 12615.00
1465.928, 12652.00
1466.971, 12655.00
1468.013, 12500.00
1469.055, 12622.00
1470.097, 12578.00
1471.139, 12511.00
1472.181, 12377.00
1473.222, 12500.00
1474.263, 12428.00
1475.305, 12335.00
1476.346, 12376.00
1477.386, 12376.00
1478.427, 12597.00
1479.468, 12328.00
1480.508, 12258.00
1481.548, 12526.00
1482.588, 12420.00
1483.628, 12354.00
1484.668, 12522.00
1485.707, 12537.00
1486.747, 12429.00
1487.786, 12329.00
1488.825, 12465.00
1489.864, 12362.00
1490.902, 12308.00
1491.941, 12455.00
1492.979, 12421.00
1494.017, 12453.00
1495.055, 12558.00
1496.093, 12553.00
1497.131, 12531.00
1498.168, 12649.00
1499.206, 12639.00
1500.243, 12584.00
1501.280, 12561.00
1502.317, 12552.00
1503.354, 12627.00
1504.390, 12771.00
1505.426, 12641.00
1506.463, 12714.00
1507.499, 12527.00
1508.535, 12732.00
1509.570, 12811.00
1510.606, 12773.00
1511.641, 12769.00
1512.676, 12860.00
1513.711, 12970.00
1514.746, 12916.00
1515.781, 12807.00
1516.816, 12980.00
1517.850, 13000.00
1518.884, 13107.72
1519.918, 13243.00
1520.952, 13363.00
1521.986, 12988.00
1523.019, 13033.00
1524.053, 12998.00
1525.086, 13001.00
1526.119, 13012.00
1527.152, 13046.00
1528.185, 12978.00
1529.217, 13087.00
1530.250, 13095.00
1531.282, 13022.00
1532.314, 13046.00
1533.346, 12978.00
1534.377, 13005.00
1535.409, 13023.00
1536.440, 12983.00
1537.472, 12956.00
1538.503, 12941.00
1539.534, 12931.96
1540.564, 13009.00
1541.595, 12937.00
1542.625, 12907.00
1543.656, 12909.00
1544.686, 13006.00
1545.716, 13064.00
1546.745, 13074.57
1547.775, 13108.22
1548.804, 13094.00
1549.834, 13098.00
1550.863, 13076.00
1551.892, 13047.00
1552.920, 13277.00
1553.949, 13143.38
1554.977, 13317.00
1556.006, 13066.00
1557.034, 12905.00
1558.062, 12920.00
1559.089, 12723.00
1560.117, 12734.05
1561.144, 12931.00
1562.172, 12748.00
1563.199, 12912.00
1564.226, 13003.00
1565.252, 12859.00
1566.279, 12699.00
1567.305, 12888.00
1568.332, 12773.00
1569.358, 12682.00
1570.384, 12902.00
1571.409, 12825.00
1572.435, 12760.00
##END=



