##NAMES=Elbaite
##RRUFFID=R050487
##IDEAL CHEMISTRY=Na(Al_1.5_Li_1.5_)Al_6_(Si_6_O_18_)(BO_3_)_3_(OH)_3_OH
##LOCALITY=White Queen mine, Pala, San Diego County, California, USA
##OWNER=RRUFF
##SOURCE=California Institute of Technology
##DESCRIPTION=Mass of blue acicular crystals
##STATUS=The identification of this mineral has been confirmed by X-ray diffraction and chemical analysis
##URL=rruff.info/R050487
##MEASURED CHEMISTRY=(Na_0.86_[box]_0.13_Ca_0.01_)(Al_0.42_Li_0.38_Fe^2+^_0.18_Mn_0.02_)_3_Al_6_(BO_3_)_3_Si_6_O_18_((OH)_0.85_F_0.15_)_4_
##PIN_ID=M01385
##ORIENTATION=Laser parallel to c* (0 0 1). Fiducial mark perpendicular to laser is parallel to b [0 1 0]
187.7250, 21085.00
188.9500, 21053.00
190.1740, 21023.00
191.3990, 21092.00
192.6230, 21039.00
193.8480, 21220.00
195.0720, 21261.00
196.2960, 21159.00
197.5200, 21281.00
198.7430, 21482.00
199.9670, 21416.00
201.1900, 21272.00
202.4130, 21670.00
203.6360, 21581.00
204.8590, 21905.00
206.0820, 21978.00
207.3050, 22312.00
208.5270, 22719.00
209.7490, 23613.00
210.9710, 23951.00
212.1930, 24408.00
213.4150, 25085.00
214.6370, 25460.00
215.8580, 25998.00
217.0790, 26377.00
218.3010, 26845.00
219.5210, 26965.00
220.7420, 26971.00
221.9630, 26976.00
223.1830, 26926.00
224.4040, 26796.00
225.6240, 26286.00
226.8440, 25991.00
228.0640, 25628.00
229.2840, 24926.00
230.5030, 24701.00
231.7230, 24259.00
232.9420, 23888.00
234.1610, 23755.00
235.3800, 23717.00
236.5990, 23503.00
237.8170, 23422.00
239.0360, 23346.00
240.2540, 23353.00
241.4720, 23121.00
242.6900, 22894.00
243.9080, 22544.00
245.1250, 22477.00
246.3430, 22509.00
247.5600, 22204.00
248.7770, 22128.00
249.9940, 21970.00
251.2110, 21807.00
252.4280, 21715.28
253.6450, 21436.00
254.8610, 21509.00
256.0770, 21314.00
257.2930, 21244.00
258.5090, 21564.00
259.7250, 21511.00
260.9400, 21226.00
262.1560, 21034.00
263.3710, 21036.00
264.5860, 21350.00
265.8010, 21340.00
267.0160, 21382.00
268.2310, 21453.00
269.4450, 21395.00
270.6600, 21387.00
271.8740, 21486.00
273.0880, 21474.00
274.3020, 21582.00
275.5150, 21605.00
276.7290, 21663.00
277.9420, 21615.00
279.1550, 21766.00
280.3680, 21574.00
281.5810, 21654.00
282.7940, 21558.00
284.0070, 21522.00
285.2190, 21557.00
286.4310, 21609.00
287.6430, 21569.00
288.8550, 21551.00
290.0670, 21414.00
291.2790, 21471.00
292.4900, 21394.00
293.7020, 21592.00
294.9130, 21532.00
296.1240, 21482.00
297.3350, 21708.00
298.5450, 21691.00
299.7560, 21636.00
300.9660, 21799.00
302.1760, 21828.00
303.3860, 22138.00
304.5960, 21889.00
305.8060, 22198.00
307.0150, 22224.00
308.2250, 22213.00
309.4340, 22312.00
310.6430, 22371.22
311.8520, 22558.00
313.0610, 22605.00
314.2700, 22675.00
315.4780, 22877.00
316.6860, 23127.00
317.8940, 23420.00
319.1020, 23751.00
320.3100, 23700.00
321.5180, 24099.00
322.7250, 24288.00
323.9330, 24468.00
325.1400, 24881.00
326.3470, 25048.00
327.5540, 24962.00
328.7600, 25202.00
329.9670, 25304.00
331.1730, 25248.00
332.3800, 25610.00
333.5860, 25471.00
334.7920, 25594.00
335.9970, 25681.00
337.2030, 25647.00
338.4080, 25648.20
339.6140, 25423.00
340.8190, 25521.00
342.0240, 25449.00
343.2290, 25397.00
344.4330, 25556.00
345.6380, 25640.00
346.8420, 25711.00
348.0460, 25685.00
349.2500, 25929.00
350.4540, 26001.00
351.6580, 26073.00
352.8610, 26449.00
354.0650, 26411.00
355.2680, 26734.00
356.4710, 26916.57
357.6740, 26784.00
358.8760, 27298.00
360.0790, 27482.00
361.2810, 27605.00
362.4840, 28391.00
363.6860, 28981.00
364.8880, 29730.00
366.0900, 30422.18
367.2910, 31108.97
368.4930, 31903.00
369.6940, 32325.00
370.8950, 33221.00
372.0960, 33404.00
373.2970, 33695.00
374.4980, 33823.00
375.6980, 33846.00
376.8980, 33246.00
378.0990, 32414.00
379.2990, 31963.00
380.4980, 30818.00
381.6980, 30092.00
382.8980, 29355.00
384.0970, 28624.00
385.2960, 28086.00
386.4950, 27309.00
387.6940, 26804.00
388.8930, 26655.00
390.0920, 26562.00
391.2900, 26188.00
392.4880, 26148.00
393.6860, 26003.00
394.8840, 26149.00
396.0820, 25845.00
397.2800, 25946.00
398.4770, 25838.00
399.6750, 25777.00
400.8720, 25817.78
402.0690, 25858.00
403.2660, 25879.00
404.4620, 25978.00
405.6590, 26116.00
406.8550, 26087.00
408.0510, 25988.00
409.2480, 25946.00
410.4430, 25817.10
411.6390, 25779.00
412.8350, 25621.00
414.0300, 25441.00
415.2250, 25497.00
416.4200, 25338.00
417.6150, 25243.00
418.8100, 25141.92
420.0050, 24978.00
421.1990, 24908.00
422.3940, 24718.00
423.5880, 24703.00
424.7820, 24656.00
425.9750, 24775.00
427.1690, 24532.00
428.3630, 24589.00
429.5560, 24744.00
430.7490, 24681.00
431.9420, 24536.00
433.1350, 24707.00
434.3280, 24564.00
435.5200, 24831.00
436.7130, 24715.00
437.9050, 24642.00
439.0970, 24576.00
440.2890, 24786.00
441.4810, 24843.00
442.6720, 25020.00
443.8640, 24985.00
445.0550, 24966.00
446.2460, 24930.00
447.4370, 24921.00
448.6280, 25001.00
449.8180, 25079.00
451.0090, 25040.00
452.1990, 25038.00
453.3890, 24947.00
454.5790, 25005.00
455.7690, 25118.00
456.9590, 25096.00
458.1480, 25039.00
459.3380, 25420.00
460.5270, 25217.00
461.7160, 25436.00
462.9050, 25496.00
464.0940, 25572.00
465.2820, 25653.00
466.4700, 25609.00
467.6590, 25805.00
468.8470, 25782.23
470.0350, 25959.00
471.2220, 25846.00
472.4100, 26069.00
473.5970, 26138.00
474.7850, 26151.00
475.9720, 26169.00
477.1590, 26078.00
478.3460, 26214.00
479.5320, 26226.00
480.7190, 26207.00
481.9050, 26317.00
483.0910, 26226.00
484.2770, 26375.00
485.4630, 26413.00
486.6490, 26606.00
487.8340, 26635.00
489.0200, 26663.00
490.2050, 26732.00
491.3900, 26783.00
492.5750, 27176.00
493.7600, 26996.00
494.9440, 27289.00
496.1290, 27251.00
497.3130, 27488.00
498.4970, 27266.00
499.6810, 27550.00
500.8650, 27234.00
502.0480, 27761.00
503.2320, 27548.00
504.4150, 27485.00
505.5980, 27425.00
506.7810, 27292.00
507.9640, 27276.00
509.1460, 27248.00
510.3290, 27051.00
511.5110, 27022.00
512.6930, 26789.00
513.8750, 26783.15
515.0570, 26742.00
516.2390, 26666.00
517.4210, 26650.00
518.6020, 26437.00
519.7830, 26332.00
520.9640, 26368.00
522.1450, 26395.00
523.3260, 26443.00
524.5060, 26483.00
525.6870, 26394.00
526.8670, 26521.89
528.0470, 26350.00
529.2270, 26678.00
530.4070, 26603.00
531.5870, 26622.00
532.7660, 26621.00
533.9450, 26654.03
535.1240, 26855.00
536.3030, 26782.00
537.4820, 26895.00
538.6610, 26986.00
539.8390, 26967.00
541.0180, 27222.00
542.1960, 27145.00
543.3740, 27110.00
544.5520, 27418.00
545.7290, 27250.00
546.9070, 27269.00
548.0840, 27322.00
549.2620, 27237.00
550.4390, 27524.00
551.6160, 27408.00
552.7920, 27428.41
553.9690, 27212.00
555.1450, 27299.00
556.3220, 27310.00
557.4980, 27137.00
558.6740, 27204.00
559.8490, 27019.00
561.0250, 26954.00
562.2000, 27039.00
563.3760, 26928.34
564.5510, 26926.00
565.7260, 26950.00
566.9010, 26884.00
568.0750, 27027.00
569.2500, 26891.00
570.4240, 27112.00
571.5980, 27034.00
572.7720, 27090.00
573.9460, 26956.00
575.1200, 26947.00
576.2930, 27167.00
577.4670, 27032.00
578.6400, 27081.00
579.8130, 26851.00
580.9860, 27093.00
582.1590, 27081.00
583.3310, 26886.00
584.5040, 27084.00
585.6760, 27011.00
586.8480, 27155.00
588.0200, 27233.00
589.1920, 27041.00
590.3630, 26959.00
591.5350, 27131.00
592.7060, 27300.00
593.8770, 27377.00
595.0480, 27371.00
596.2190, 27398.00
597.3900, 27442.00
598.5600, 27362.00
599.7310, 27537.00
600.9010, 27365.00
602.0710, 27680.00
603.2410, 27555.00
604.4100, 27503.00
605.5800, 27574.00
606.7490, 27381.00
607.9190, 27550.00
609.0880, 27544.00
610.2570, 27559.00
611.4250, 27282.00
612.5940, 27342.00
613.7620, 27299.00
614.9310, 27347.00
616.0990, 27434.00
617.2670, 27430.60
618.4340, 27443.00
619.6020, 27488.00
620.7690, 27496.00
621.9370, 27496.00
623.1040, 27451.00
624.2710, 27293.00
625.4380, 27526.00
626.6040, 27418.00
627.7710, 27716.00
628.9370, 27491.00
630.1030, 27716.00
631.2690, 27805.00
632.4350, 27922.00
633.6010, 27739.00
634.7660, 27932.00
635.9320, 27903.01
637.0970, 27867.00
638.2620, 27934.00
639.4270, 28060.00
640.5920, 28023.00
641.7560, 28179.00
642.9210, 28064.00
644.0850, 27957.00
645.2490, 27992.00
646.4130, 28082.00
647.5770, 28100.00
648.7400, 28177.00
649.9040, 28265.00
651.0670, 28228.00
652.2300, 28379.00
653.3930, 28393.11
654.5560, 28397.00
655.7190, 28527.00
656.8810, 28422.00
658.0440, 28555.00
659.2060, 28500.00
660.3680, 28397.00
661.5300, 28449.00
662.6910, 28443.00
663.8530, 28493.00
665.0140, 28675.00
666.1750, 28423.00
667.3360, 28378.00
668.4970, 28469.00
669.6580, 28207.00
670.8190, 28362.00
671.9790, 28206.00
673.1390, 28304.00
674.2990, 28331.00
675.4590, 28163.00
676.6190, 28245.00
677.7790, 28219.00
678.9380, 28026.00
680.0970, 28181.00
681.2570, 28381.00
682.4160, 28068.00
683.5740, 28318.00
684.7330, 28103.00
685.8920, 28278.00
687.0500, 28474.00
688.2080, 28548.00
689.3660, 28670.28
690.5240, 28493.00
691.6820, 28757.00
692.8390, 28848.00
693.9960, 28758.00
695.1540, 29036.00
696.3110, 28835.00
697.4680, 29010.00
698.6240, 29407.00
699.7810, 29345.00
700.9370, 29547.00
702.0940, 29578.00
703.2500, 30085.00
704.4060, 30356.00
705.5610, 30421.00
706.7170, 30679.00
707.8720, 30980.00
709.0280, 31604.00
710.1830, 32141.00
711.3380, 32552.00
712.4920, 33051.00
713.6470, 33841.00
714.8020, 34539.27
715.9560, 35498.00
717.1100, 36355.00
718.2640, 37339.00
719.4180, 38460.00
720.5720, 39272.00
721.7250, 40153.00
722.8780, 40540.00
724.0320, 41004.00
725.1850, 41297.00
726.3380, 41231.00
727.4900, 40726.00
728.6430, 39870.00
729.7950, 39537.00
730.9470, 38297.00
732.1000, 37518.00
733.2510, 36712.00
734.4030, 35568.00
735.5550, 35062.00
736.7060, 34350.00
737.8570, 33641.00
739.0090, 33076.00
740.1600, 32756.00
741.3100, 32512.00
742.4610, 32432.00
743.6110, 32201.00
744.7620, 32159.00
745.9120, 31907.00
747.0620, 32256.00
748.2120, 32099.00
749.3610, 32181.00
750.5110, 32379.00
751.6600, 32383.00
752.8090, 32443.00
753.9580, 32544.00
755.1070, 32513.00
756.2560, 32474.84
757.4050, 32426.00
758.5530, 32300.00
759.7010, 32237.00
760.8490, 32167.00
761.9970, 31994.00
763.1450, 31797.00
764.2920, 31687.00
765.4400, 31420.00
766.5870, 31403.00
767.7340, 31307.00
768.8810, 31524.00
770.0280, 31091.00
771.1740, 31241.00
772.3210, 31108.00
773.4670, 30922.00
774.6130, 31006.00
775.7590, 30947.00
776.9050, 30736.00
778.0510, 30899.00
779.1960, 31030.00
780.3420, 31201.00
781.4870, 31200.00
782.6320, 30837.00
783.7770, 31040.00
784.9210, 30870.00
786.0660, 31124.00
787.2100, 31041.00
788.3540, 31273.00
789.4980, 31065.00
790.6420, 31050.00
791.7860, 31741.00
792.9300, 31359.00
794.0730, 31673.00
795.2160, 31680.00
796.3590, 31808.00
797.5020, 32081.00
798.6450, 32138.00
799.7880, 31832.00
800.9300, 32165.00
802.0720, 32331.00
803.2150, 32064.00
804.3560, 32353.00
805.4980, 32510.00
806.6400, 32763.00
807.7810, 32875.81
808.9230, 32921.00
810.0640, 32996.00
811.2050, 32911.00
812.3460, 32790.00
813.4860, 32773.00
814.6270, 32643.00
815.7670, 32588.78
816.9070, 32524.03
818.0470, 32502.00
819.1870, 32475.00
820.3270, 32532.00
821.4670, 32696.00
822.6060, 32460.00
823.7450, 32374.00
824.8840, 32760.00
826.0230, 32722.00
827.1620, 32716.00
828.3010, 32993.00
829.4390, 32925.00
830.5770, 33439.00
831.7150, 33478.00
832.8530, 33404.00
833.9910, 33914.00
835.1290, 33785.00
836.2660, 34002.00
837.4030, 33827.00
838.5410, 33757.00
839.6780, 34074.00
840.8140, 34136.00
841.9510, 34116.00
843.0870, 34052.00
844.2240, 34128.00
845.3600, 34072.00
846.4960, 34081.00
847.6320, 34233.00
848.7680, 34199.00
849.9030, 34498.00
851.0380, 34933.00
852.1740, 34811.00
853.3090, 34902.00
854.4440, 35309.00
855.5780, 34992.00
856.7130, 35236.00
857.8470, 35515.00
858.9820, 34984.00
860.1160, 35123.00
861.2500, 35086.00
862.3830, 34651.00
863.5170, 34528.00
864.6500, 34245.00
865.7840, 33811.00
866.9170, 33910.00
868.0500, 33846.00
869.1830, 33728.00
870.3150, 33455.00
871.4480, 33586.00
872.5800, 33406.00
873.7120, 33217.00
874.8440, 33478.00
875.9760, 33222.00
877.1080, 33516.00
878.2390, 33232.00
879.3710, 33457.00
880.5020, 33328.00
881.6330, 33123.00
882.7640, 33446.00
883.8940, 33294.00
885.0250, 33359.00
886.1550, 33131.00
887.2850, 33226.00
888.4160, 33326.00
889.5450, 33388.00
890.6750, 33473.00
891.8050, 33525.00
892.9340, 33571.00
894.0630, 33499.00
895.1930, 33445.00
896.3220, 33745.00
897.4500, 33557.00
898.5790, 33558.00
899.7070, 33930.00
900.8360, 33867.00
901.9640, 33794.00
903.0920, 33842.00
904.2200, 33792.00
905.3470, 33858.00
906.4750, 33897.00
907.6020, 34114.00
908.7290, 33761.00
909.8560, 33946.00
910.9830, 33996.00
912.1100, 33776.00
913.2360, 34070.00
914.3630, 34222.00
915.4890, 34152.00
916.6150, 34249.00
917.7410, 34233.00
918.8670, 34392.00
919.9920, 34422.00
921.1180, 34519.41
922.2430, 34545.00
923.3680, 34636.00
924.4930, 34763.00
925.6180, 34644.00
926.7420, 34717.00
927.8670, 34591.00
928.9910, 34801.00
930.1150, 34780.00
931.2390, 34961.00
932.3630, 35027.00
933.4860, 35083.00
934.6100, 35300.00
935.7330, 35140.00
936.8560, 35206.00
937.9790, 35257.00
939.1020, 35374.00
940.2250, 35492.00
941.3470, 35408.00
942.4700, 35677.00
943.5920, 35587.00
944.7140, 35738.00
945.8360, 36011.00
946.9570, 35897.00
948.0790, 35659.00
949.2000, 35956.00
950.3220, 35819.00
951.4430, 36329.00
952.5640, 36472.00
953.6840, 36262.00
954.8050, 36389.00
955.9250, 36491.00
957.0460, 36476.00
958.1660, 36416.00
959.2860, 36609.00
960.4050, 36737.00
961.5250, 36339.00
962.6440, 36647.00
963.7640, 36716.00
964.8830, 36650.00
966.0020, 37128.00
967.1210, 36863.00
968.2390, 37360.00
969.3580, 36805.00
970.4760, 37397.00
971.5940, 37104.00
972.7120, 37151.00
973.8300, 37098.00
974.9480, 37231.00
976.0650, 37264.00
977.1830, 37111.00
978.3000, 37130.00
979.4170, 37405.00
980.5340, 37171.00
981.6500, 37427.00
982.7670, 37641.00
983.8830, 37451.00
985.0000, 37880.00
986.1160, 37447.00
987.2320, 37632.00
988.3470, 37699.00
989.4630, 37678.00
990.5780, 37932.00
991.6940, 37700.00
992.8090, 37860.00
993.9240, 37967.00
995.0380, 38019.00
996.1530, 38137.00
997.2680, 38193.52
998.3820, 38222.00
999.4960, 38246.00
1000.610, 38262.00
1001.724, 38289.00
1002.837, 38220.00
1003.951, 38354.00
1005.064, 38242.00
1006.177, 38304.00
1007.291, 38464.00
1008.403, 38540.00
1009.516, 38545.00
1010.629, 38793.00
1011.741, 38762.00
1012.853, 38971.00
1013.965, 39120.00
1015.077, 39092.00
1016.189, 38987.00
1017.300, 39205.00
1018.412, 39297.00
1019.523, 39310.00
1020.634, 39622.00
1021.745, 39490.00
1022.856, 39565.00
1023.966, 39805.00
1025.077, 39884.00
1026.187, 39998.73
1027.297, 39973.00
1028.407, 40173.00
1029.517, 40061.00
1030.627, 40100.00
1031.736, 40357.00
1032.845, 40472.00
1033.955, 40557.00
1035.064, 40774.00
1036.172, 40994.18
1037.281, 41120.00
1038.390, 41491.00
1039.498, 41855.00
1040.606, 41992.00
1041.714, 42359.00
1042.822, 42723.00
1043.930, 43027.66
1045.037, 43437.00
1046.145, 43854.00
1047.252, 44297.00
1048.359, 44891.00
1049.466, 45205.00
1050.573, 45993.00
1051.679, 46402.00
1052.786, 46886.00
1053.892, 47672.00
1054.998, 47996.00
1056.104, 48500.00
1057.210, 48665.00
1058.315, 49052.00
1059.421, 49080.00
1060.526, 49194.00
1061.631, 48827.00
1062.736, 48428.00
1063.841, 47638.00
1064.946, 47094.00
1066.050, 46496.15
1067.154, 45765.00
1068.258, 45202.00
1069.362, 44611.00
1070.466, 43819.00
1071.570, 43505.00
1072.674, 42679.00
1073.777, 42383.00
1074.880, 41966.00
1075.983, 41796.00
1077.086, 41550.00
1078.189, 41151.00
1079.291, 41057.00
1080.394, 40901.00
1081.496, 40641.00
1082.598, 40777.00
1083.700, 40425.00
1084.802, 40474.00
1085.903, 40306.00
1087.005, 40359.00
1088.106, 40308.00
1089.207, 40639.00
1090.308, 40419.00
1091.409, 40533.00
1092.509, 40764.00
1093.610, 40390.00
1094.710, 40563.00
1095.810, 40333.00
1096.910, 40541.00
1098.010, 40546.00
1099.110, 40493.00
1100.209, 40813.00
1101.309, 40697.00
1102.408, 40759.00
1103.507, 40824.00
1104.606, 40736.00
1105.704, 40906.00
1106.803, 41109.00
1107.901, 41241.00
1108.999, 41413.00
1110.097, 41441.00
1111.195, 41502.00
1112.293, 41600.00
1113.391, 41667.00
1114.488, 41647.00
1115.585, 41712.00
1116.682, 41474.00
1117.779, 41282.00
1118.876, 41102.00
1119.973, 41225.00
1121.069, 41089.00
1122.165, 40908.00
1123.261, 41139.00
1124.357, 41091.00
1125.453, 40945.00
1126.549, 40881.00
1127.644, 40749.00
1128.739, 40926.00
1129.835, 40993.00
1130.930, 40875.00
1132.024, 40883.00
1133.119, 40902.00
1134.214, 41101.00
1135.308, 40820.00
1136.402, 40916.00
1137.496, 40960.00
1138.590, 40861.00
1139.684, 40857.00
1140.777, 41019.00
1141.871, 40986.00
1142.964, 41020.00
1144.057, 41051.00
1145.150, 40999.00
1146.243, 41047.00
1147.335, 41066.00
1148.428, 41302.00
1149.520, 41253.00
1150.612, 41254.00
1151.704, 41506.00
1152.796, 41341.00
1153.887, 41390.00
1154.979, 41688.00
1156.070, 41438.00
1157.161, 41353.00
1158.252, 41680.00
1159.343, 41632.00
1160.433, 41762.00
1161.524, 41827.00
1162.614, 41579.00
1163.704, 41677.00
1164.794, 41645.00
1165.884, 41768.00
1166.974, 41549.00
1168.063, 41618.00
1169.153, 41669.00
1170.242, 41870.00
1171.331, 41542.00
1172.420, 41749.00
1173.508, 41676.00
1174.597, 41409.00
1175.685, 41845.00
1176.774, 41638.00
1177.862, 41710.00
1178.950, 41665.00
1180.037, 41927.00
1181.125, 41878.00
1182.212, 41841.00
1183.300, 41748.00
1184.387, 41758.20
1185.474, 41760.40
1186.560, 41461.01
1187.647, 41838.82
1188.733, 42062.74
1189.820, 42141.09
1190.906, 41637.74
1191.992, 41885.50
1193.078, 41832.26
1194.163, 41766.64
1195.249, 42120.12
1196.334, 41701.35
1197.419, 42048.15
1198.504, 42089.36
1199.589, 42270.43
1200.674, 42148.63
1201.758, 42120.36
1202.843, 42395.07
1203.927, 42502.00
1205.011, 42345.31
1206.095, 42535.25
1207.179, 42400.00
1208.262, 42297.00
1209.345, 42324.00
1210.429, 42471.00
1211.512, 42424.00
1212.595, 42455.00
1213.677, 42747.00
1214.760, 42550.00
1215.842, 42420.42
1216.925, 42803.86
1218.007, 43033.39
1219.089, 43117.35
1220.171, 42619.62
1221.252, 42872.98
1222.334, 42825.36
1223.415, 42765.36
1224.496, 43124.43
1225.577, 42711.28
1226.658, 43063.71
1227.738, 43110.50
1228.819, 43297.19
1229.899, 43180.98
1230.979, 43158.32
1232.060, 43438.65
1233.139, 43551.17
1234.219, 43400.09
1235.299, 43595.64
1236.378, 43560.48
1237.457, 43291.52
1238.536, 43655.00
1239.615, 43648.00
1240.694, 43810.00
1241.772, 43501.00
1242.851, 43377.00
1243.929, 43501.00
1245.007, 43509.00
1246.085, 43638.00
1247.163, 43599.00
1248.240, 43730.75
1249.318, 43817.00
1250.395, 43969.00
1251.472, 43890.00
1252.549, 44031.00
1253.626, 44101.00
1254.703, 43898.00
1255.779, 43923.00
1256.855, 44287.00
1257.931, 44206.00
1259.007, 44186.00
1260.083, 44469.00
1261.159, 44167.00
1262.234, 44267.00
1263.310, 44383.00
1264.385, 44124.00
1265.460, 44517.00
1266.535, 44334.00
1267.610, 44095.00
1268.684, 44265.00
1269.758, 44411.00
1270.833, 44434.00
1271.907, 44385.00
1272.981, 44393.00
1274.054, 44558.00
1275.128, 44507.00
1276.201, 44606.55
1277.275, 44630.00
1278.348, 44661.00
1279.421, 44748.00
1280.493, 44621.00
1281.566, 44680.00
1282.638, 44734.00
1283.711, 44597.00
1284.783, 44847.00
1285.855, 44673.00
1286.927, 44856.00
1287.998, 44917.00
1289.070, 44949.00
1290.141, 44988.00
1291.212, 45111.00
1292.283, 45112.51
1293.354, 45060.00
1294.425, 45148.00
1295.495, 45079.00
1296.566, 45035.00
1297.636, 45293.00
1298.706, 45113.00
1299.776, 45224.00
1300.845, 45012.00
1301.915, 45254.00
1302.984, 45504.00
1304.054, 45481.00
1305.123, 45334.00
1306.191, 45374.00
1307.260, 45418.00
1308.329, 45357.00
1309.397, 45366.00
1310.465, 45268.00
1311.534, 45456.00
1312.602, 45462.00
1313.669, 45517.00
1314.737, 45457.00
1315.804, 45559.78
1316.872, 45578.96
1317.939, 45742.00
1319.006, 45701.00
1320.073, 45818.00
1321.139, 45927.00
1322.206, 45944.00
1323.272, 45954.75
1324.338, 45790.00
1325.404, 45865.00
1326.470, 45776.00
1327.536, 45699.00
1328.601, 45662.00
1329.667, 46024.00
1330.732, 45927.00
1331.797, 46158.00
1332.862, 46262.00
1333.926, 46189.00
1334.991, 45968.00
1336.055, 46189.00
1337.120, 46264.00
1338.184, 46511.00
1339.248, 46315.00
1340.311, 46113.00
1341.375, 46252.00
1342.438, 46069.00
1343.502, 46657.00
1344.565, 46519.00
1345.628, 46492.00
1346.691, 46237.00
1347.753, 46317.00
1348.816, 46482.00
1349.878, 46370.00
1350.940, 46498.00
1352.002, 46318.00
1353.064, 46537.00
1354.126, 46703.00
1355.187, 46577.00
1356.248, 46743.00
1357.310, 46568.00
1358.371, 46664.00
1359.431, 46736.00
1360.492, 46899.00
1361.553, 46672.00
1362.613, 46959.00
1363.673, 46872.00
1364.733, 46863.00
1365.793, 47003.00
1366.853, 46979.00
1367.912, 47149.00
1368.972, 47020.00
1370.031, 46978.00
1371.090, 47022.00
1372.149, 47141.00
1373.208, 47437.00
1374.267, 47491.00
1375.325, 47384.00
1376.383, 47349.00
1377.441, 47698.00
1378.499, 47479.00
1379.557, 47718.00
1380.615, 47739.00
1381.672, 47638.00
1382.730, 47780.00
1383.787, 47835.00
1384.844, 47653.00
1385.901, 47724.00
1386.957, 48008.00
1388.014, 47955.00
1389.070, 47711.00
1390.126, 47911.00
1391.182, 47722.00
1392.238, 47898.00
1393.294, 47949.00
1394.349, 47728.00
1395.405, 47846.00
1396.460, 48095.00
1397.515, 48117.00
1398.570, 47936.00
1399.625, 48264.00
1400.679, 48002.00
1401.734, 47960.00
1402.788, 47873.00
1403.842, 48067.00
1404.896, 47912.00
1405.950, 47884.00
1407.003, 47966.00
1408.057, 47903.00
1409.110, 48086.00
1410.163, 48108.00
1411.216, 48135.00
1412.269, 48171.35
1413.322, 47886.00
1414.374, 48118.00
1415.427, 48099.00
1416.479, 48016.00
1417.531, 48209.00
1418.583, 48000.00
1419.634, 48019.00
1420.686, 48546.00
1421.737, 48243.00
1422.788, 48451.00
1423.839, 48381.00
1424.890, 48541.00
1425.941, 48457.00
1426.992, 48676.00
1428.042, 48846.00
1429.092, 48815.00
1430.142, 49024.00
1431.192, 48882.00
1432.242, 49253.00
1433.291, 49196.00
1434.341, 49250.00
1435.390, 49327.00
1436.439, 49366.64
1437.488, 49701.00
1438.537, 49626.00
1439.586, 49768.00
1440.634, 50101.00
1441.682, 50138.00
1442.731, 50173.00
1443.779, 50222.00
1444.826, 50186.00
1445.874, 50539.00
1446.922, 50216.00
1447.969, 50543.00
1449.016, 50222.00
1450.063, 50609.00
1451.110, 50719.00
1452.157, 50736.00
1453.203, 50728.00
1454.250, 50812.00
1455.296, 50818.95
1456.342, 50578.00
1457.388, 50918.00
1458.433, 50638.00
1459.479, 50725.00
1460.524, 50113.00
1461.570, 50041.00
1462.615, 50061.00
1463.660, 49806.00
1464.705, 49845.57
1465.749, 49734.00
1466.794, 49857.00
1467.838, 49585.00
1468.882, 49719.00
1469.926, 49406.00
1470.970, 49940.00
1472.013, 49452.00
1473.057, 49872.00
1474.100, 49431.00
1475.143, 49696.00
1476.186, 49297.00
1477.229, 49584.00
1478.272, 49572.00
1479.314, 49672.00
1480.357, 49561.00
1481.399, 49576.00
1482.441, 49555.00
1483.483, 49553.00
1484.525, 49806.00
1485.566, 49765.00
1486.608, 49673.00
1487.649, 49689.00
1488.690, 49471.00
1489.731, 49546.00
1490.771, 49710.00
1491.812, 49270.00
1492.853, 49719.00
1493.893, 49832.00
1494.933, 49441.00
1495.973, 49682.00
1497.013, 49600.00
1498.052, 49833.00
1499.092, 49602.00
1500.131, 49722.00
1501.170, 49377.00
1502.209, 49929.00
1503.248, 49592.00
1504.287, 49811.00
1505.325, 49713.00
1506.363, 49990.00
1507.402, 49652.00
1508.440, 49793.00
1509.478, 49807.00
1510.515, 49956.00
1511.553, 50003.78
1512.590, 49959.00
1513.627, 50110.42
1514.664, 50158.00
1515.701, 50183.00
1516.738, 50077.00
1517.775, 50139.00
1518.811, 50194.00
1519.847, 50251.00
1520.883, 49943.00
1521.919, 50257.00
1522.955, 50582.00
1523.991, 49936.00
1525.026, 50271.00
1526.061, 50272.00
1527.096, 50274.00
1528.131, 50373.00
1529.166, 50486.00
1530.201, 50481.00
1531.235, 50525.48
1532.270, 50357.00
1533.304, 50474.00
1534.338, 50334.00
1535.372, 50200.00
1536.405, 50382.00
1537.439, 50572.00
1538.472, 50550.00
1539.505, 50497.00
1540.538, 50588.43
1541.571, 50653.00
1542.604, 50571.00
1543.637, 50683.00
1544.669, 50543.00
1545.701, 50466.00
1546.733, 50598.00
1547.765, 50880.00
1548.797, 50562.00
1549.829, 50860.00
1550.860, 50826.00
1551.891, 50934.00
1552.922, 50770.00
1553.953, 50875.00
1554.984, 50939.00
1556.015, 50826.00
##END=



