##NAMES=Elbaite
##RRUFFID=R060562
##IDEAL CHEMISTRY=Na(Al_1.5_Li_1.5_)Al_6_(Si_6_O_18_)(BO_3_)_3_(OH)_3_OH
##LOCALITY=unknown
##OWNER=RRUFF
##SOURCE=Gemological Institute of America
##DESCRIPTION=Blue colored polished fragment
##STATUS=The identification of this mineral has been confirmed by X-ray diffraction and chemical analysis
##URL=rruff.info/R060562
##MEASURED CHEMISTRY=(Na_0.68_Ca_0.20_[box]_0.12_)(Li_1.20_Al_1.12_Fe^2+^_0.50_Mn_0.18_)Al_6_(BO_3_)_3_[Si_6_O_18_]((OH)_0.80_F_0.20_)_4_
##PIN_ID=M00501
##ORIENTATION=Laser parallel to c* (0 0 1). Fiducial mark perpendicular to laser is parallel to -a [-1 0 0]
118.1340, 13146.00
119.3650, 13197.00
120.5960, 13546.00
121.8270, 14052.00
123.0580, 14724.00
124.2880, 15098.00
125.5190, 15160.00
126.7490, 15685.00
127.9790, 15987.00
129.2090, 16620.00
130.4390, 16722.00
131.6680, 16927.00
132.8980, 16767.00
134.1270, 16567.00
135.3560, 16256.00
136.5850, 15917.00
137.8140, 15760.00
139.0430, 15643.00
140.2710, 15375.00
141.5000, 14895.00
142.7280, 14686.00
143.9560, 14584.00
145.1840, 14614.00
146.4120, 14615.00
147.6390, 14727.00
148.8670, 14696.00
150.0940, 15036.00
151.3210, 15300.00
152.5490, 15366.00
153.7750, 15308.00
155.0020, 15222.00
156.2290, 15147.00
157.4550, 15066.16
158.6810, 14986.00
159.9080, 14919.00
161.1340, 14843.00
162.3590, 14821.00
163.5850, 14750.00
164.8110, 14775.00
166.0360, 14593.00
167.2610, 14571.00
168.4860, 14432.00
169.7110, 14263.00
170.9360, 14378.00
172.1610, 14272.00
173.3850, 13998.00
174.6100, 13945.00
175.8340, 13979.00
177.0580, 13913.00
178.2820, 14064.00
179.5050, 13965.00
180.7290, 14045.00
181.9520, 13992.00
183.1760, 14468.00
184.3990, 14373.00
185.6220, 14709.00
186.8450, 14877.00
188.0670, 15108.00
189.2900, 15379.00
190.5120, 15704.00
191.7340, 16188.00
192.9560, 16501.00
194.1780, 16691.00
195.4000, 17189.00
196.6220, 17274.00
197.8430, 17552.00
199.0640, 17793.00
200.2860, 18071.00
201.5070, 18208.00
202.7270, 18457.00
203.9480, 18173.00
205.1690, 17738.00
206.3890, 17619.00
207.6090, 17764.00
208.8290, 18171.00
210.0490, 18513.00
211.2690, 19145.00
212.4890, 19788.00
213.7080, 21087.00
214.9280, 22078.00
216.1470, 23012.00
217.3660, 24629.00
218.5850, 25940.00
219.8030, 26955.00
221.0220, 28264.00
222.2400, 29367.00
223.4590, 30254.00
224.6770, 30546.00
225.8950, 30854.00
227.1120, 30795.00
228.3300, 30334.00
229.5480, 29878.00
230.7650, 29599.00
231.9820, 29058.00
233.1990, 28866.00
234.4160, 28361.00
235.6330, 27771.00
236.8490, 27604.00
238.0660, 27376.00
239.2820, 26730.00
240.4980, 26526.00
241.7140, 26125.00
242.9300, 24841.05
244.1460, 23412.00
245.3610, 22267.00
246.5770, 21059.00
247.7920, 20037.00
249.0070, 18950.00
250.2220, 18064.00
251.4370, 17097.00
252.6510, 16525.00
253.8660, 15758.00
255.0800, 15492.00
256.2940, 14951.00
257.5080, 15366.00
258.7220, 14692.46
259.9360, 15526.00
261.1490, 14003.00
262.3630, 13352.00
263.5760, 13346.00
264.7890, 13198.00
266.0020, 13289.00
267.2150, 13158.00
268.4270, 13172.00
269.6400, 13303.00
270.8520, 13227.00
272.0640, 13229.00
273.2760, 13370.00
274.4880, 13466.00
275.7000, 13459.00
276.9120, 13463.00
278.1230, 13637.00
279.3340, 13675.00
280.5450, 13717.00
281.7560, 13872.00
282.9670, 13887.00
284.1780, 13750.00
285.3880, 13905.00
286.5980, 13914.00
287.8090, 14100.00
289.0190, 13868.00
290.2290, 13953.00
291.4380, 14009.00
292.6480, 14017.00
293.8570, 14120.00
295.0670, 14037.00
296.2760, 14171.00
297.4850, 14112.00
298.6930, 14305.00
299.9020, 14595.00
301.1110, 14596.00
302.3190, 14790.00
303.5270, 14876.00
304.7350, 15298.00
305.9430, 15584.00
307.1510, 15803.00
308.3580, 16025.00
309.5660, 16384.00
310.7730, 16553.00
311.9800, 16635.00
313.1870, 16988.00
314.3940, 16969.00
315.6010, 17515.00
316.8070, 17671.00
318.0130, 17813.00
319.2200, 18292.00
320.4260, 18681.00
321.6310, 19090.00
322.8370, 19503.00
324.0430, 19871.00
325.2480, 20222.00
326.4540, 20354.00
327.6590, 20855.00
328.8640, 20792.00
330.0680, 20994.00
331.2730, 20976.00
332.4780, 20830.00
333.6820, 20769.00
334.8860, 20516.00
336.0900, 20484.00
337.2940, 20439.00
338.4980, 20486.00
339.7010, 20305.00
340.9050, 20295.00
342.1080, 20322.00
343.3110, 20598.00
344.5140, 20418.00
345.7170, 20356.00
346.9200, 20332.00
348.1220, 20173.00
349.3240, 20304.00
350.5270, 20393.00
351.7290, 20640.00
352.9310, 20822.56
354.1320, 20964.00
355.3340, 21342.00
356.5350, 21712.00
357.7370, 22072.00
358.9380, 22583.00
360.1390, 23334.00
361.3400, 24169.00
362.5400, 25150.00
363.7410, 26192.00
364.9410, 27420.00
366.1410, 28926.00
367.3410, 30597.00
368.5410, 32718.00
369.7410, 35205.00
370.9400, 38091.00
372.1400, 40872.00
373.3390, 43592.00
374.5380, 46438.00
375.7370, 47995.00
376.9360, 48184.00
378.1350, 47032.00
379.3330, 44709.00
380.5310, 42243.00
381.7300, 39039.00
382.9280, 36406.00
384.1260, 33469.00
385.3230, 31066.00
386.5210, 29302.00
387.7180, 27319.00
388.9160, 26321.00
390.1130, 25270.00
391.3100, 24165.00
392.5060, 23754.00
393.7030, 23010.00
394.9000, 22365.00
396.0960, 22269.00
397.2920, 22108.00
398.4880, 22279.00
399.6840, 22138.00
400.8800, 22389.00
402.0750, 22671.00
403.2710, 23255.00
404.4660, 23204.00
405.6610, 23680.00
406.8560, 23882.00
408.0510, 23842.00
409.2450, 23471.00
410.4400, 23451.00
411.6340, 22691.00
412.8280, 21895.00
414.0220, 21299.00
415.2160, 20432.00
416.4100, 19739.00
417.6030, 19002.00
418.7970, 18384.00
419.9900, 18039.00
421.1830, 17509.00
422.3760, 17237.00
423.5690, 16943.00
424.7610, 16705.01
425.9540, 16678.00
427.1460, 16402.00
428.3380, 16258.00
429.5300, 16126.00
430.7220, 15943.00
431.9140, 15969.00
433.1050, 15823.00
434.2970, 16047.00
435.4880, 15891.00
436.6790, 15926.00
437.8700, 15818.00
439.0610, 15861.00
440.2510, 15882.00
441.4420, 15809.00
442.6320, 15954.00
443.8220, 15977.00
445.0120, 15909.00
446.2020, 15848.00
447.3910, 16123.00
448.5810, 16019.00
449.7700, 16166.00
450.9600, 15924.00
452.1490, 16076.00
453.3370, 16230.00
454.5260, 16133.00
455.7150, 16311.00
456.9030, 16338.00
458.0910, 16528.00
459.2800, 16706.00
460.4670, 17050.00
461.6550, 16977.00
462.8430, 17408.00
464.0300, 17542.00
465.2180, 17654.00
466.4050, 17862.00
467.5920, 17932.00
468.7790, 17863.00
469.9650, 17900.00
471.1520, 18001.00
472.3380, 17797.00
473.5250, 17810.00
474.7110, 17874.00
475.8970, 17701.00
477.0820, 17577.00
478.2680, 17525.00
479.4540, 17533.00
480.6390, 17396.00
481.8240, 17269.00
483.0090, 17133.00
484.1940, 16936.00
485.3780, 17069.00
486.5630, 17075.00
487.7470, 17000.00
488.9320, 16807.00
490.1160, 16948.00
491.3000, 17077.00
492.4830, 16936.00
493.6670, 17139.00
494.8500, 17211.00
496.0340, 17228.00
497.2170, 17293.00
498.4000, 17319.00
499.5820, 17387.00
500.7650, 17404.00
501.9480, 17380.00
503.1300, 17277.00
504.3120, 17414.00
505.4940, 17267.00
506.6760, 17145.00
507.8580, 17091.00
509.0390, 17122.00
510.2210, 17044.00
511.4020, 17122.00
512.5830, 16856.00
513.7640, 16707.00
514.9450, 16340.00
516.1250, 16519.00
517.3060, 16155.00
518.4860, 16035.00
519.6660, 15776.00
520.8460, 15671.00
522.0260, 15766.00
523.2060, 15616.00
524.3850, 15579.00
525.5650, 15549.00
526.7440, 15578.49
527.9230, 15565.00
529.1020, 15774.00
530.2810, 15951.00
531.4590, 16141.00
532.6380, 16219.00
533.8160, 16214.00
534.9940, 16569.00
536.1720, 16522.00
537.3500, 16626.00
538.5270, 16747.00
539.7050, 16669.00
540.8820, 16980.00
542.0590, 16951.00
543.2360, 17019.00
544.4130, 17047.00
545.5900, 17022.00
546.7660, 17055.76
547.9430, 17044.98
549.1190, 17083.00
550.2950, 17081.00
551.4710, 17146.00
552.6470, 17111.41
553.8220, 17103.00
554.9980, 16995.00
556.1730, 16894.00
557.3480, 16697.00
558.5230, 16433.00
559.6980, 16353.00
560.8730, 16053.00
562.0470, 15853.00
563.2220, 15855.00
564.3960, 15628.00
565.5700, 15486.00
566.7440, 15207.00
567.9170, 15211.00
569.0910, 15234.00
570.2640, 15048.00
571.4380, 15003.00
572.6110, 15121.00
573.7840, 15052.00
574.9570, 15037.24
576.1290, 14920.00
577.3020, 14995.71
578.4740, 14948.67
579.6460, 15037.78
580.8180, 15040.00
581.9900, 15001.00
583.1620, 15066.00
584.3330, 14842.00
585.5040, 14852.00
586.6760, 14829.00
587.8470, 14672.00
589.0180, 14654.00
590.1880, 14469.00
591.3590, 14513.00
592.5290, 14481.00
593.7000, 14346.00
594.8700, 14253.00
596.0400, 14219.00
597.2090, 14175.00
598.3790, 14285.00
599.5490, 14184.00
600.7180, 14153.00
601.8870, 14151.00
603.0560, 13897.00
604.2250, 14092.00
605.3940, 13796.00
606.5620, 13519.00
607.7300, 13480.00
608.8990, 13356.00
610.0670, 13345.00
611.2350, 13101.00
612.4020, 13062.00
613.5700, 12934.00
614.7370, 12831.00
615.9050, 12823.00
617.0720, 12692.00
618.2390, 12816.00
619.4060, 12810.00
620.5720, 12777.00
621.7390, 12868.00
622.9050, 12889.66
624.0710, 12974.00
625.2370, 13065.00
626.4030, 13110.00
627.5690, 13291.00
628.7340, 13268.00
629.9000, 13421.00
631.0650, 13648.00
632.2300, 13877.00
633.3950, 14102.00
634.5600, 14238.00
635.7240, 14173.00
636.8890, 14380.00
638.0530, 14485.00
639.2170, 14349.00
640.3810, 14411.20
641.5450, 14332.17
642.7080, 14214.00
643.8720, 14130.00
645.0350, 13892.00
646.1980, 13682.00
647.3610, 13648.00
648.5240, 13571.61
649.6870, 13693.00
650.8490, 13634.00
652.0120, 13784.00
653.1740, 13896.00
654.3360, 13898.00
655.4980, 14178.00
656.6600, 14179.00
657.8210, 14274.00
658.9830, 14072.00
660.1440, 14111.00
661.3050, 14008.00
662.4660, 13835.00
663.6270, 13829.00
664.7870, 13622.00
665.9480, 13579.00
667.1080, 13469.00
668.2680, 13460.00
669.4280, 13381.05
670.5880, 13265.00
671.7480, 13293.00
672.9070, 13159.00
674.0670, 13177.00
675.2260, 13313.00
676.3850, 13123.00
677.5440, 12947.00
678.7030, 13007.00
679.8610, 12802.26
681.0200, 12844.00
682.1780, 12575.00
683.3360, 12386.00
684.4940, 12278.00
685.6520, 12389.00
686.8090, 12270.00
687.9670, 12407.00
689.1240, 12429.00
690.2810, 12497.00
691.4380, 12462.00
692.5950, 12610.00
693.7520, 12926.00
694.9080, 12964.00
696.0650, 13209.00
697.2210, 13515.00
698.3770, 13651.00
699.5330, 14107.00
700.6880, 14334.00
701.8440, 14719.00
702.9990, 15037.00
704.1550, 15409.35
705.3100, 15615.00
706.4650, 16235.00
707.6190, 16603.00
708.7740, 17074.00
709.9290, 17701.00
711.0830, 18583.00
712.2370, 19235.00
713.3910, 19906.00
714.5450, 21103.00
715.6980, 22266.00
716.8520, 23899.00
718.0050, 25358.00
719.1580, 27232.00
720.3110, 29628.00
721.4640, 31906.00
722.6170, 34531.00
723.7700, 37730.00
724.9220, 40551.00
726.0740, 43330.00
727.2260, 46067.00
728.3780, 47659.00
729.5300, 48332.00
730.6810, 48587.00
731.8330, 47146.00
732.9840, 45094.00
734.1350, 42414.00
735.2860, 39690.00
736.4370, 37079.00
737.5880, 34865.00
738.7380, 32696.00
739.8880, 30936.00
741.0390, 29301.00
742.1890, 27813.00
743.3380, 26332.00
744.4880, 25120.00
745.6380, 23934.00
746.7870, 22933.00
747.9360, 21784.00
749.0850, 20935.00
750.2340, 19796.00
751.3830, 19200.00
752.5310, 18432.00
753.6800, 17876.00
754.8280, 17647.00
755.9760, 17135.00
757.1240, 16659.00
758.2720, 16328.00
759.4190, 16057.00
760.5670, 15650.00
761.7140, 15225.00
762.8610, 15088.00
764.0080, 14615.00
765.1550, 14462.00
766.3020, 13935.00
767.4480, 13612.00
768.5950, 13360.00
769.7410, 13215.00
770.8870, 12980.00
772.0330, 12813.51
773.1780, 12684.67
774.3240, 12541.00
775.4690, 12460.00
776.6140, 12462.00
777.7590, 12393.00
778.9040, 12372.00
780.0490, 12297.00
781.1940, 12427.00
782.3380, 12343.00
783.4820, 12339.00
784.6260, 12358.00
785.7700, 12328.00
786.9140, 12371.35
788.0580, 12357.00
789.2010, 12516.00
790.3450, 12540.00
791.4880, 12767.00
792.6310, 12891.00
793.7730, 12967.00
794.9160, 12970.00
796.0590, 13242.00
797.2010, 13440.00
798.3430, 13747.00
799.4850, 13894.00
800.6270, 14023.00
801.7690, 14252.00
802.9100, 14426.00
804.0520, 14663.00
805.1930, 14986.00
806.3340, 14851.00
807.4750, 14918.00
808.6160, 14670.00
809.7560, 14701.00
810.8970, 14468.00
812.0370, 14393.00
813.1770, 14300.00
814.3170, 13949.00
815.4570, 13707.00
816.5960, 13457.00
817.7360, 13178.00
818.8750, 12906.00
820.0140, 12812.00
821.1530, 12734.00
822.2920, 12510.00
823.4310, 12716.00
824.5690, 12662.00
825.7070, 12678.00
826.8460, 12895.00
827.9840, 13004.00
829.1220, 13107.00
830.2590, 13266.00
831.3970, 13654.00
832.5340, 13706.00
833.6710, 13831.00
834.8080, 13694.00
835.9450, 13792.00
837.0820, 13885.00
838.2190, 13818.00
839.3550, 13716.00
840.4910, 13535.00
841.6270, 13356.00
842.7630, 13189.00
843.8990, 12977.00
845.0350, 12932.00
846.1700, 12544.00
847.3060, 12653.00
848.4410, 12676.00
849.5760, 12453.00
850.7100, 12530.00
851.8450, 12480.00
852.9800, 12475.00
854.1140, 12531.00
855.2480, 12569.00
856.3820, 12507.91
857.5160, 12390.00
858.6500, 12411.00
859.7830, 12283.00
860.9170, 12288.00
862.0500, 12260.00
863.1830, 12311.00
864.3160, 12167.00
865.4480, 12094.00
866.5810, 12027.00
867.7130, 11963.47
868.8460, 11992.00
869.9780, 11896.00
871.1100, 11897.00
872.2410, 11878.00
873.3730, 11831.00
874.5050, 11616.00
875.6360, 11830.00
876.7670, 11626.00
877.8980, 11695.00
879.0290, 11595.00
880.1590, 11539.95
881.2900, 11659.86
882.4200, 11726.34
883.5500, 11742.27
884.6800, 11556.23
885.8100, 11630.99
886.9400, 11601.24
888.0690, 11567.20
889.1990, 11678.66
890.3280, 11522.00
891.4570, 11631.16
892.5860, 11634.21
893.7140, 11685.83
894.8430, 11632.28
895.9710, 11611.22
897.1000, 11547.00
898.2280, 11516.00
899.3560, 11536.00
900.4830, 11749.00
901.6110, 11695.00
902.7380, 11755.00
903.8660, 11678.00
904.9930, 11853.00
906.1200, 11722.00
907.2460, 11792.00
908.3730, 11825.00
909.5000, 11834.00
910.6260, 11842.00
911.7520, 12002.00
912.8780, 12047.00
914.0040, 12101.00
915.1290, 11973.00
916.2550, 12016.00
917.3800, 12109.00
918.5050, 12284.00
919.6300, 12209.00
920.7550, 12319.00
921.8800, 12529.00
923.0040, 12446.00
924.1290, 12638.00
925.2530, 12854.00
926.3770, 12767.00
927.5010, 12723.00
928.6250, 12940.00
929.7480, 13057.00
930.8720, 13154.00
931.9950, 13198.00
933.1180, 13349.00
934.2410, 13484.00
935.3640, 13648.00
936.4860, 13722.00
937.6090, 13839.00
938.7310, 13936.00
939.8530, 14004.00
940.9750, 14132.00
942.0970, 14259.00
943.2180, 14501.00
944.3400, 14601.00
945.4610, 14637.00
946.5820, 14669.00
947.7030, 14651.00
948.8240, 14746.86
949.9450, 14764.00
951.0650, 14916.00
952.1860, 15041.00
953.3060, 15131.00
954.4260, 15242.85
955.5460, 15330.19
956.6650, 15436.00
957.7850, 15464.00
958.9040, 15591.19
960.0230, 15591.00
961.1420, 15823.00
962.2610, 15755.00
963.3800, 15902.00
964.4990, 15947.00
965.6170, 15930.00
966.7350, 16108.00
967.8530, 16292.00
968.9710, 16145.00
970.0890, 16114.00
971.2070, 16337.00
972.3240, 16531.00
973.4410, 16527.00
974.5580, 16539.00
975.6750, 16429.00
976.7920, 16449.00
977.9090, 16280.00
979.0250, 16440.00
980.1410, 16530.00
981.2580, 16380.00
982.3740, 16379.48
983.4890, 16248.94
984.6050, 16202.00
985.7200, 15998.00
986.8360, 16054.00
987.9510, 16063.00
989.0660, 15927.00
990.1810, 16041.00
991.2950, 16062.00
992.4100, 16210.00
993.5240, 16183.74
994.6390, 16011.00
995.7530, 16141.00
996.8660, 16212.00
997.9800, 16176.00
999.0940, 16279.00
1000.207, 16140.00
1001.320, 16384.00
1002.433, 16249.00
1003.546, 16558.00
1004.659, 16573.00
1005.772, 16523.00
1006.884, 16717.00
1007.996, 16933.00
1009.108, 16913.00
1010.220, 17056.00
1011.332, 17162.00
1012.444, 17589.00
1013.555, 17796.00
1014.666, 17726.00
1015.777, 18062.00
1016.888, 18124.00
1017.999, 18502.00
1019.110, 18678.00
1020.220, 18958.00
1021.331, 19137.71
1022.441, 19285.41
1023.551, 19404.00
1024.661, 19505.00
1025.770, 19556.00
1026.880, 19579.00
1027.989, 19670.00
1029.098, 20016.00
1030.207, 19884.00
1031.316, 20259.00
1032.425, 20473.00
1033.533, 20571.00
1034.642, 20854.00
1035.750, 21307.00
1036.858, 21740.00
1037.966, 22213.00
1039.073, 22546.00
1040.181, 23183.00
1041.288, 23663.00
1042.396, 24230.00
1043.503, 25240.00
1044.610, 25933.00
1045.716, 26802.00
1046.823, 27829.00
1047.929, 28854.00
1049.036, 29988.00
1050.142, 30984.00
1051.248, 32609.00
1052.353, 33887.00
1053.459, 35586.00
1054.564, 37115.00
1055.670, 38885.00
1056.775, 40232.00
1057.880, 41497.00
1058.985, 43313.00
1060.089, 44053.00
1061.194, 44681.00
1062.298, 44858.00
1063.402, 44842.00
1064.506, 44385.00
1065.610, 43069.00
1066.713, 41886.00
1067.817, 39649.00
1068.920, 37851.00
1070.023, 35936.00
1071.126, 33824.00
1072.229, 31753.00
1073.332, 30149.00
1074.435, 28043.00
1075.537, 26535.00
1076.639, 25216.00
1077.741, 23926.00
1078.843, 22699.00
1079.945, 21794.00
1081.046, 20857.00
1082.148, 20293.00
1083.249, 19686.00
1084.350, 19027.00
1085.451, 18637.00
1086.551, 18336.00
1087.652, 17879.00
1088.752, 17662.00
1089.853, 17495.00
1090.953, 17199.00
1092.053, 17143.00
1093.152, 16845.00
1094.252, 16793.00
1095.351, 16456.00
1096.451, 16346.00
1097.550, 16183.38
1098.649, 16081.97
1099.748, 15930.00
1100.846, 15825.59
1101.945, 15712.26
1103.043, 15646.00
1104.141, 15530.00
1105.239, 15496.00
1106.337, 15482.00
1107.434, 15281.00
1108.532, 15285.00
1109.629, 15122.00
1110.726, 15136.00
1111.823, 15034.54
1112.920, 15067.40
1114.017, 14894.00
1115.113, 15180.00
1116.210, 15199.00
1117.306, 15273.00
1118.402, 15547.00
1119.498, 15634.00
1120.593, 15627.00
1121.689, 15601.00
1122.784, 15753.00
1123.879, 15552.00
1124.974, 15456.00
1126.069, 15080.00
1127.164, 14905.00
1128.259, 14603.00
1129.353, 14662.00
1130.447, 14479.00
1131.541, 14566.00
1132.635, 14312.00
1133.729, 14292.00
1134.822, 14174.00
1135.916, 14360.00
1137.009, 14525.00
1138.102, 14494.00
1139.195, 14502.00
1140.288, 14511.00
1141.380, 14533.00
1142.473, 14650.00
1143.565, 14525.00
1144.657, 14563.00
1145.749, 14387.00
1146.841, 14228.00
1147.932, 14158.00
1149.024, 14041.00
1150.115, 13969.00
1151.206, 13914.19
1152.297, 13844.00
1153.388, 13828.00
1154.479, 13769.00
1155.569, 13737.00
1156.659, 13581.00
1157.750, 13733.00
1158.839, 13750.00
1159.929, 13550.00
1161.019, 13741.00
1162.108, 13433.00
1163.198, 13592.00
1164.287, 13427.00
1165.376, 13399.00
1166.465, 13568.00
1167.553, 13411.00
1168.642, 13577.00
1169.730, 13533.00
1170.818, 13415.00
1171.906, 13710.00
1172.994, 13457.00
1174.082, 13585.00
1175.170, 13589.00
1176.257, 13466.00
1177.344, 13542.00
1178.431, 13494.00
1179.518, 13440.00
1180.605, 13513.00
1181.691, 13546.00
1182.778, 13497.00
1183.864, 13500.00
1184.950, 13515.38
1186.036, 13587.00
1187.122, 13506.00
1188.207, 13509.00
1189.292, 13417.00
1190.378, 13577.00
1191.463, 13602.00
1192.548, 13552.00
1193.632, 13617.00
1194.717, 13408.00
1195.801, 13540.00
1196.886, 13484.84
1197.970, 13594.00
1199.054, 13489.00
1200.137, 13517.00
1201.221, 13534.00
1202.305, 13560.13
1203.388, 13724.00
1204.471, 13661.00
1205.554, 13738.00
1206.637, 13722.00
1207.719, 13712.00
1208.802, 13678.00
1209.884, 13666.00
1210.966, 13665.68
1212.048, 13826.00
1213.130, 13660.00
1214.212, 13765.00
1215.293, 13741.00
1216.374, 13963.00
1217.456, 13752.00
1218.536, 13782.00
1219.617, 13920.00
1220.698, 13879.00
1221.778, 13811.00
1222.859, 13864.00
1223.939, 13824.00
1225.019, 13857.00
1226.099, 13919.00
1227.178, 13919.00
1228.258, 13881.00
1229.337, 13834.00
1230.417, 13940.00
1231.496, 13958.00
1232.574, 13882.00
1233.653, 14019.00
1234.732, 14008.00
1235.810, 14195.00
1236.888, 14128.00
1237.966, 14087.00
1239.044, 14062.00
1240.122, 13965.00
1241.199, 14122.00
1242.277, 14072.00
1243.354, 14051.00
1244.431, 14149.00
1245.508, 14138.00
1246.585, 14183.00
1247.661, 14249.00
1248.738, 14115.00
1249.814, 14118.00
1250.890, 14360.00
1251.966, 14302.00
1253.042, 14235.00
1254.117, 14363.00
1255.193, 14234.00
1256.268, 14239.00
1257.343, 14208.00
1258.418, 14366.00
1259.493, 14432.00
1260.567, 14358.00
1261.642, 14439.00
1262.716, 14421.00
1263.790, 14595.00
1264.864, 14681.00
1265.938, 14566.00
1267.011, 14654.00
1268.085, 14659.00
1269.158, 14690.00
1270.231, 14579.00
1271.304, 14872.00
1272.377, 14604.00
1273.450, 14897.00
1274.522, 14748.00
1275.594, 14743.00
1276.666, 14835.00
1277.738, 14912.00
1278.810, 14918.00
1279.882, 14952.00
1280.953, 14894.00
1282.025, 15069.00
1283.096, 14958.00
1284.167, 14971.00
1285.238, 14814.00
1286.308, 14900.00
1287.379, 14944.00
1288.449, 15045.00
1289.519, 14986.00
1290.589, 14980.00
1291.659, 14947.00
1292.729, 15110.00
1293.798, 15109.00
1294.868, 15246.00
1295.937, 14976.00
1297.006, 15188.00
1298.075, 15023.00
1299.143, 15001.00
1300.212, 15107.00
1301.280, 15148.00
1302.348, 15057.00
1303.416, 15180.00
1304.484, 15231.00
1305.552, 15187.00
1306.620, 15007.00
1307.687, 15131.00
1308.754, 15256.00
1309.821, 15202.00
1310.888, 15345.00
1311.955, 15242.00
1313.021, 15280.00
1314.088, 15333.00
1315.154, 15362.00
1316.220, 15424.00
1317.286, 15555.00
1318.352, 15489.00
1319.417, 15526.08
1320.483, 15372.00
1321.548, 15490.00
1322.613, 15412.00
1323.678, 15418.00
1324.743, 15578.00
1325.807, 15390.00
1326.872, 15520.00
1327.936, 15651.00
1329.000, 15593.00
1330.064, 15621.00
1331.128, 15583.00
1332.191, 15557.00
1333.255, 15672.00
1334.318, 15840.00
1335.381, 15788.00
1336.444, 15620.00
1337.507, 15819.00
1338.569, 15792.00
1339.632, 15660.00
1340.694, 15682.00
1341.756, 15653.16
1342.818, 15650.00
1343.880, 15680.00
1344.941, 15742.00
1346.003, 15791.00
1347.064, 15720.00
1348.125, 15645.00
1349.186, 15528.00
1350.247, 15697.00
1351.308, 15586.00
1352.368, 15687.00
1353.428, 15827.00
1354.489, 15522.00
1355.549, 15869.00
1356.608, 15669.00
1357.668, 15730.00
1358.727, 15819.00
1359.787, 16031.00
1360.846, 15779.00
1361.905, 15762.00
1362.964, 15840.00
1364.022, 15856.00
1365.081, 15832.00
1366.139, 16048.00
1367.197, 16036.00
1368.255, 16052.00
1369.313, 16144.00
1370.371, 16178.03
1371.428, 16268.00
1372.486, 16343.00
1373.543, 16467.00
1374.600, 16591.00
1375.657, 16687.00
1376.713, 16930.00
1377.770, 17127.00
1378.826, 17273.00
1379.882, 17263.00
1380.938, 17412.00
1381.994, 17492.00
1383.050, 17613.00
1384.106, 17707.00
1385.161, 17693.00
1386.216, 17764.00
1387.271, 17581.00
1388.326, 17746.00
1389.381, 17540.00
1390.435, 17649.00
1391.490, 17487.00
1392.544, 17200.00
1393.598, 17314.00
1394.652, 17251.00
1395.705, 17138.00
1396.759, 16996.00
1397.812, 16905.00
1398.866, 16824.00
1399.919, 16731.00
1400.972, 16605.00
1402.024, 16587.74
1403.077, 16500.00
1404.129, 16536.00
1405.181, 16339.00
1406.233, 16290.00
1407.285, 16408.00
1408.337, 16128.00
1409.389, 16186.00
1410.440, 16242.00
1411.491, 16260.00
1412.542, 16288.00
1413.593, 16154.00
1414.644, 16073.00
1415.695, 16368.00
1416.745, 16081.00
1417.795, 16100.00
1418.845, 16277.00
1419.895, 16101.00
1420.945, 16290.00
1421.995, 16165.00
1423.044, 16091.00
1424.093, 16082.00
1425.142, 16127.00
1426.191, 16226.00
1427.240, 16244.00
1428.289, 16148.00
1429.337, 16104.00
1430.385, 16150.00
1431.433, 16290.00
1432.481, 16139.00
1433.529, 15937.00
1434.577, 16124.00
1435.624, 16160.00
1436.672, 15987.00
1437.719, 16128.00
1438.766, 15925.00
1439.812, 15929.00
1440.859, 15971.00
1441.905, 15891.00
1442.952, 16031.00
1443.998, 15980.00
1445.044, 15726.00
1446.090, 15788.00
1447.135, 15737.00
1448.181, 15644.00
1449.226, 15631.00
1450.271, 15692.00
1451.316, 15687.00
1452.361, 15722.00
1453.405, 15756.30
1454.450, 15772.00
1455.494, 15773.00
1456.538, 15844.00
1457.582, 15754.00
1458.626, 15567.00
1459.670, 15654.00
1460.713, 15621.00
1461.757, 15688.00
1462.800, 15861.00
1463.843, 15743.00
1464.886, 15590.00
1465.928, 15697.00
1466.971, 15680.00
1468.013, 15801.00
1469.055, 15718.00
1470.097, 15663.00
1471.139, 15612.00
1472.181, 15683.00
1473.222, 15580.00
1474.263, 15518.00
1475.305, 15760.00
1476.346, 15736.00
1477.386, 15694.00
1478.427, 15744.00
1479.468, 15700.00
1480.508, 15820.00
1481.548, 15802.00
1482.588, 15746.00
1483.628, 15787.00
1484.668, 15764.82
1485.707, 15734.00
1486.747, 15798.00
1487.786, 15786.00
1488.825, 15849.36
1489.864, 15838.00
1490.902, 15852.00
1491.941, 15891.00
1492.979, 15755.00
1494.017, 15755.00
1495.055, 15829.00
1496.093, 15999.00
1497.131, 15964.59
1498.168, 15873.00
1499.206, 16004.00
1500.243, 15881.00
1501.280, 15922.00
1502.317, 15992.00
1503.354, 15864.00
1504.390, 15938.00
1505.426, 16031.00
1506.463, 16138.00
1507.499, 16173.00
1508.535, 16235.77
1509.570, 16103.00
1510.606, 16229.00
1511.641, 16224.00
1512.676, 16052.00
1513.711, 16208.00
1514.746, 16221.00
1515.781, 16264.00
1516.816, 16395.00
1517.850, 16239.00
1518.884, 16150.00
1519.918, 16384.00
1520.952, 16338.00
1521.986, 16339.00
1523.019, 16335.00
1524.053, 16314.00
1525.086, 16332.81
1526.119, 16343.00
1527.152, 16374.00
1528.185, 16472.00
1529.217, 16529.00
1530.250, 16462.00
1531.282, 16455.00
1532.314, 16397.00
1533.346, 16389.00
1534.377, 16273.00
1535.409, 16497.00
1536.440, 16261.00
1537.472, 16378.00
1538.503, 16350.00
1539.534, 16583.00
1540.564, 16326.00
1541.595, 16393.00
1542.625, 16400.00
1543.656, 16261.00
1544.686, 16518.00
1545.716, 16396.85
1546.745, 16388.00
1547.775, 16342.00
1548.804, 16474.00
1549.834, 16432.00
1550.863, 16689.00
1551.892, 16665.00
1552.920, 16851.00
1553.949, 16895.00
1554.977, 16723.00
1556.006, 16716.00
1557.034, 16491.00
1558.062, 16720.00
1559.089, 16542.00
1560.117, 16607.00
1561.144, 16474.00
1562.172, 16663.00
1563.199, 16637.00
1564.226, 16743.00
1565.252, 16673.00
1566.279, 16508.00
1567.305, 16506.00
1568.332, 16563.00
1569.358, 16566.00
1570.384, 16706.00
1571.409, 16626.00
1572.435, 16681.00
##END=



