##NAMES=Elbaite
##RRUFFID=R060560
##IDEAL CHEMISTRY=Na(Al_1.5_Li_1.5_)Al_6_(Si_6_O_18_)(BO_3_)_3_(OH)_3_OH
##LOCALITY=California, USA
##OWNER=RRUFF
##SOURCE=Gemological Institute of America
##DESCRIPTION=Pink fragment
##STATUS=The identification of this mineral has been confirmed by X-ray diffraction and chemical analysis
##URL=rruff.info/R060560
##MEASURED CHEMISTRY=(Na_0.56_Ca_0.12_[box]_0.32_)(Al_1.60_Li_1.40_)Al_6_(BO_3_)_3_[Si_6_O_18_](OH)_4_
##PIN_ID=L01306
##ORIENTATION=Laser parallel to c* (0 0 1). Fiducial mark perpendicular to laser is parallel to a [1 0 0]
118.1340, 9575.000
119.3650, 9677.000
120.5960, 9854.000
121.8270, 10012.00
123.0580, 10431.00
124.2880, 10762.00
125.5190, 10799.00
126.7490, 10885.00
127.9790, 11317.00
129.2090, 11420.00
130.4390, 11703.00
131.6680, 11789.00
132.8980, 11905.00
134.1270, 11847.00
135.3560, 11834.00
136.5850, 11875.00
137.8140, 11758.00
139.0430, 11625.00
140.2710, 11720.00
141.5000, 11346.00
142.7280, 11256.00
143.9560, 11337.00
145.1840, 11349.00
146.4120, 11589.00
147.6390, 11614.00
148.8670, 11700.00
150.0940, 11716.00
151.3210, 11699.68
152.5490, 11693.00
153.7750, 11558.00
155.0020, 11370.00
156.2290, 11132.00
157.4550, 10802.00
158.6810, 10567.00
159.9080, 10435.00
161.1340, 10291.41
162.3590, 10314.00
163.5850, 10218.00
164.8110, 10267.00
166.0360, 10349.00
167.2610, 10241.00
168.4860, 10318.00
169.7110, 10410.00
170.9360, 10705.00
172.1610, 10656.00
173.3850, 10790.00
174.6100, 10744.00
175.8340, 10861.00
177.0580, 10805.00
178.2820, 10862.00
179.5050, 10907.00
180.7290, 10963.00
181.9520, 10841.00
183.1760, 10941.00
184.3990, 10984.00
185.6220, 11072.56
186.8450, 11185.00
188.0670, 11379.00
189.2900, 11534.21
190.5120, 11848.00
191.7340, 11984.00
192.9560, 12268.00
194.1780, 12612.00
195.4000, 12668.00
196.6220, 13125.00
197.8430, 13288.00
199.0640, 13710.00
200.2860, 14022.00
201.5070, 14204.00
202.7270, 14561.00
203.9480, 14871.00
205.1690, 15026.00
206.3890, 15619.00
207.6090, 16039.00
208.8290, 16666.00
210.0490, 17599.00
211.2690, 18457.00
212.4890, 19593.00
213.7080, 20979.00
214.9280, 22039.00
216.1470, 23947.00
217.3660, 25667.00
218.5850, 27744.00
219.8030, 29662.00
221.0220, 31514.00
222.2400, 32459.00
223.4590, 33127.00
224.6770, 33060.00
225.8950, 32061.00
227.1120, 30853.00
228.3300, 29082.00
229.5480, 27868.00
230.7650, 26305.00
231.9820, 25218.00
233.1990, 24428.00
234.4160, 23647.00
235.6330, 22910.00
236.8490, 22510.00
238.0660, 22417.00
239.2820, 22608.00
240.4980, 22473.00
241.7140, 22427.00
242.9300, 22366.00
244.1460, 22366.00
245.3610, 22239.00
246.5770, 21769.00
247.7920, 21375.00
249.0070, 20945.00
250.2220, 20129.00
251.4370, 19636.00
252.6510, 18919.00
253.8660, 18338.00
255.0800, 17797.00
256.2940, 17587.00
257.5080, 17530.00
258.7220, 17148.65
259.9360, 17322.00
261.1490, 16715.00
262.3630, 16341.00
263.5760, 16195.00
264.7890, 16425.00
266.0020, 16588.00
267.2150, 16708.00
268.4270, 16960.00
269.6400, 17131.00
270.8520, 17210.00
272.0640, 17523.00
273.2760, 17694.00
274.4880, 17712.00
275.7000, 17743.00
276.9120, 17737.00
278.1230, 17690.00
279.3340, 17704.00
280.5450, 17286.00
281.7560, 17510.00
282.9670, 17053.00
284.1780, 17235.00
285.3880, 16996.00
286.5980, 16703.00
287.8090, 16538.00
289.0190, 16266.00
290.2290, 15822.00
291.4380, 15412.00
292.6480, 14931.00
293.8570, 14547.00
295.0670, 14259.00
296.2760, 14070.00
297.4850, 13899.84
298.6930, 13838.00
299.9020, 13793.00
301.1110, 13876.00
302.3190, 13979.00
303.5270, 14305.00
304.7350, 14527.00
305.9430, 15114.00
307.1510, 15409.00
308.3580, 15907.00
309.5660, 16182.00
310.7730, 16501.00
311.9800, 16835.00
313.1870, 17164.00
314.3940, 17443.00
315.6010, 17326.00
316.8070, 17685.00
318.0130, 17982.00
319.2200, 18366.00
320.4260, 18683.00
321.6310, 19296.00
322.8370, 19490.00
324.0430, 20045.00
325.2480, 20786.00
326.4540, 21177.00
327.6590, 21672.00
328.8640, 21774.00
330.0680, 22212.00
331.2730, 22276.00
332.4780, 22333.00
333.6820, 22134.00
334.8860, 21763.00
336.0900, 21632.00
337.2940, 21368.00
338.4980, 21123.00
339.7010, 21133.00
340.9050, 20899.00
342.1080, 20579.00
343.3110, 20760.00
344.5140, 20706.00
345.7170, 20628.00
346.9200, 20833.00
348.1220, 21043.00
349.3240, 20872.00
350.5270, 20981.00
351.7290, 21343.00
352.9310, 21584.00
354.1320, 21946.00
355.3340, 22538.00
356.5350, 23013.00
357.7370, 23738.00
358.9380, 24560.00
360.1390, 25536.21
361.3400, 26780.00
362.5400, 27910.00
363.7410, 29341.00
364.9410, 30809.00
366.1410, 32428.00
367.3410, 34354.00
368.5410, 36323.00
369.7410, 38525.00
370.9400, 40894.00
372.1400, 43480.00
373.3390, 45650.00
374.5380, 47837.00
375.7370, 49446.00
376.9360, 50057.00
378.1350, 49541.00
379.3330, 48566.00
380.5310, 46602.00
381.7300, 43742.00
382.9280, 41010.00
384.1260, 38319.00
385.3230, 35656.00
386.5210, 33370.00
387.7180, 31347.00
388.9160, 29772.00
390.1130, 28522.00
391.3100, 27644.00
392.5060, 27133.00
393.7030, 26791.00
394.9000, 26470.00
396.0960, 26552.00
397.2920, 26428.00
398.4880, 26681.00
399.6840, 26696.00
400.8800, 27050.00
402.0750, 27403.00
403.2710, 27651.00
404.4660, 28282.00
405.6610, 27994.00
406.8560, 28100.00
408.0510, 28177.00
409.2450, 27814.00
410.4400, 27531.00
411.6340, 27244.00
412.8280, 26418.00
414.0220, 25529.00
415.2160, 24242.00
416.4100, 22987.00
417.6030, 21896.00
418.7970, 20822.00
419.9900, 19860.00
421.1830, 19014.00
422.3760, 18187.00
423.5690, 17401.00
424.7610, 17046.00
425.9540, 16499.00
427.1460, 16210.00
428.3380, 15846.00
429.5300, 15876.00
430.7220, 15663.00
431.9140, 15675.00
433.1050, 15673.00
434.2970, 15825.00
435.4880, 15904.00
436.6790, 16017.93
437.8700, 16156.28
439.0610, 16314.00
440.2510, 16417.00
441.4420, 16625.00
442.6320, 16744.00
443.8220, 16915.00
445.0120, 17037.00
446.2020, 17119.00
447.3910, 17319.00
448.5810, 17571.00
449.7700, 17610.00
450.9600, 17646.00
452.1490, 17521.00
453.3370, 17331.00
454.5260, 17263.00
455.7150, 17165.00
456.9030, 17081.00
458.0910, 17130.00
459.2800, 16857.00
460.4670, 16808.00
461.6550, 16859.00
462.8430, 16694.00
464.0300, 16624.00
465.2180, 16488.00
466.4050, 16411.95
467.5920, 16307.00
468.7790, 16246.00
469.9650, 16153.00
471.1520, 16010.58
472.3380, 15919.00
473.5250, 15784.00
474.7110, 15749.00
475.8970, 15610.00
477.0820, 15303.00
478.2680, 15267.00
479.4540, 15195.00
480.6390, 15203.00
481.8240, 15084.00
483.0090, 15082.00
484.1940, 15291.00
485.3780, 15151.00
486.5630, 15170.00
487.7470, 15010.00
488.9320, 15245.00
490.1160, 15347.00
491.3000, 15316.00
492.4830, 15391.00
493.6670, 15506.73
494.8500, 15716.00
496.0340, 15838.00
497.2170, 16030.00
498.4000, 16357.00
499.5820, 16640.00
500.7650, 16798.00
501.9480, 17207.00
503.1300, 17462.00
504.3120, 17852.00
505.4940, 18172.00
506.6760, 18517.39
507.8580, 18854.00
509.0390, 19219.00
510.2210, 19574.00
511.4020, 19890.00
512.5830, 20092.00
513.7640, 20418.00
514.9450, 20798.00
516.1250, 20779.00
517.3060, 20875.00
518.4860, 21129.00
519.6660, 20892.00
520.8460, 20866.00
522.0260, 20789.00
523.2060, 20395.00
524.3850, 20359.00
525.5650, 19986.00
526.7440, 19929.00
527.9230, 19973.00
529.1020, 20172.00
530.2810, 20365.00
531.4590, 20623.00
532.6380, 21087.00
533.8160, 21553.00
534.9940, 21929.00
536.1720, 22358.00
537.3500, 22790.00
538.5270, 22793.00
539.7050, 23017.00
540.8820, 22847.00
542.0590, 23018.00
543.2360, 23144.00
544.4130, 22913.00
545.5900, 22637.00
546.7660, 22379.00
547.9430, 22362.00
549.1190, 22113.00
550.2950, 22102.00
551.4710, 22223.00
552.6470, 22224.00
553.8220, 22141.00
554.9980, 21996.00
556.1730, 21896.00
557.3480, 21854.00
558.5230, 21485.00
559.6980, 21462.00
560.8730, 21142.00
562.0470, 20894.00
563.2220, 20713.00
564.3960, 20205.00
565.5700, 19852.00
566.7440, 19482.00
567.9170, 19248.00
569.0910, 18871.00
570.2640, 18368.00
571.4380, 18074.00
572.6110, 17667.00
573.7840, 17322.00
574.9570, 16992.00
576.1290, 16708.00
577.3020, 16633.00
578.4740, 16327.42
579.6460, 16141.00
580.8180, 15935.00
581.9900, 15708.00
583.1620, 15594.00
584.3330, 15500.00
585.5040, 15239.00
586.6760, 15205.00
587.8470, 15043.00
589.0180, 14974.00
590.1880, 15045.00
591.3590, 14759.00
592.5290, 14476.00
593.7000, 14556.00
594.8700, 14237.00
596.0400, 14185.00
597.2090, 14249.00
598.3790, 14000.00
599.5490, 13982.00
600.7180, 13897.00
601.8870, 13754.00
603.0560, 13772.00
604.2250, 13655.22
605.3940, 13595.00
606.5620, 13520.00
607.7300, 13502.00
608.8990, 13463.00
610.0670, 13458.00
611.2350, 13397.15
612.4020, 13406.00
613.5700, 13243.00
614.7370, 13264.00
615.9050, 13112.00
617.0720, 13218.00
618.2390, 13154.00
619.4060, 13059.00
620.5720, 13067.00
621.7390, 13029.17
622.9050, 13142.00
624.0710, 13055.00
625.2370, 13120.00
626.4030, 13206.00
627.5690, 13202.00
628.7340, 13129.00
629.9000, 13158.00
631.0650, 13177.00
632.2300, 13181.00
633.3950, 13200.65
634.5600, 13167.00
635.7240, 13238.00
636.8890, 13342.00
638.0530, 13402.00
639.2170, 13535.00
640.3810, 13650.00
641.5450, 13630.00
642.7080, 13886.00
643.8720, 13700.00
645.0350, 13652.00
646.1980, 13757.00
647.3610, 13752.00
648.5240, 13481.00
649.6870, 13410.00
650.8490, 13238.00
652.0120, 13266.00
653.1740, 13156.00
654.3360, 13048.00
655.4980, 13073.00
656.6600, 13056.00
657.8210, 12985.00
658.9830, 13016.71
660.1440, 12806.00
661.3050, 12981.00
662.4660, 12950.00
663.6270, 12836.00
664.7870, 12904.00
665.9480, 12935.00
667.1080, 12951.00
668.2680, 12897.00
669.4280, 13078.00
670.5880, 13068.00
671.7480, 13039.00
672.9070, 13333.00
674.0670, 13176.00
675.2260, 13229.00
676.3850, 13077.00
677.5440, 13037.83
678.7030, 13039.00
679.8610, 12942.00
681.0200, 12830.00
682.1780, 12815.00
683.3360, 12583.00
684.4940, 12134.00
685.6520, 12143.00
686.8090, 12056.00
687.9670, 12049.00
689.1240, 11981.00
690.2810, 12041.00
691.4380, 12049.55
692.5950, 11979.00
693.7520, 12178.00
694.9080, 12219.00
696.0650, 12364.00
697.2210, 12411.00
698.3770, 12700.00
699.5330, 12848.00
700.6880, 13110.00
701.8440, 13425.00
702.9990, 13726.00
704.1550, 13989.00
705.3100, 14527.00
706.4650, 14860.00
707.6190, 15427.00
708.7740, 15976.00
709.9290, 16548.00
711.0830, 17331.00
712.2370, 18354.00
713.3910, 19260.00
714.5450, 20365.00
715.6980, 21607.00
716.8520, 23362.00
718.0050, 24902.00
719.1580, 27570.00
720.3110, 30179.00
721.4640, 33318.00
722.6170, 36970.00
723.7700, 40770.00
724.9220, 45538.00
726.0740, 50057.00
727.2260, 54784.00
728.3780, 58585.00
729.5300, 61914.00
730.6810, 63571.00
731.8330, 63748.00
732.9840, 62165.00
734.1350, 59466.00
735.2860, 55263.00
736.4370, 50712.00
737.5880, 46229.00
738.7380, 41503.00
739.8880, 37826.00
741.0390, 34305.00
742.1890, 31562.00
743.3380, 28926.00
744.4880, 26864.00
745.6380, 25211.00
746.7870, 23658.00
747.9360, 22318.47
749.0850, 21261.00
750.2340, 20238.00
751.3830, 19559.00
752.5310, 18926.00
753.6800, 18411.00
754.8280, 17778.00
755.9760, 17324.00
757.1240, 16820.00
758.2720, 16616.00
759.4190, 16275.00
760.5670, 16039.00
761.7140, 15560.00
762.8610, 15262.00
764.0080, 14957.00
765.1550, 14638.00
766.3020, 14344.00
767.4480, 14011.92
768.5950, 13664.68
769.7410, 13371.53
770.8870, 13100.00
772.0330, 12823.00
773.1780, 12582.00
774.3240, 12242.00
775.4690, 11974.00
776.6140, 12019.00
777.7590, 11663.00
778.9040, 11635.00
780.0490, 11451.00
781.1940, 11627.00
782.3380, 11264.00
783.4820, 11304.00
784.6260, 11423.00
785.7700, 11428.00
786.9140, 11237.00
788.0580, 11433.00
789.2010, 11250.00
790.3450, 11386.00
791.4880, 11357.00
792.6310, 11310.00
793.7730, 11448.00
794.9160, 11399.00
796.0590, 11359.00
797.2010, 11581.00
798.3430, 11459.00
799.4850, 11475.00
800.6270, 11614.00
801.7690, 11563.00
802.9100, 11367.00
804.0520, 11552.00
805.1930, 11241.00
806.3340, 11337.00
807.4750, 11124.00
808.6160, 11109.00
809.7560, 10941.00
810.8970, 10737.00
812.0370, 10972.00
813.1770, 10702.00
814.3170, 10867.00
815.4570, 10731.00
816.5960, 10748.00
817.7360, 10726.00
818.8750, 10698.00
820.0140, 10755.00
821.1530, 10607.00
822.2920, 10827.00
823.4310, 10769.00
824.5690, 10913.00
825.7070, 10941.00
826.8460, 10899.00
827.9840, 10898.00
829.1220, 10984.00
830.2590, 10919.00
831.3970, 11072.00
832.5340, 10988.00
833.6710, 11035.00
834.8080, 11076.00
835.9450, 11226.00
837.0820, 11207.00
838.2190, 11137.00
839.3550, 11227.00
840.4910, 11175.10
841.6270, 11141.00
842.7630, 11154.00
843.8990, 11124.00
845.0350, 11098.00
846.1700, 11259.00
847.3060, 11236.00
848.4410, 11011.00
849.5760, 11035.00
850.7100, 11174.00
851.8450, 11146.00
852.9800, 11299.00
854.1140, 11145.00
855.2480, 11308.00
856.3820, 11409.00
857.5160, 11392.00
858.6500, 11629.00
859.7830, 11549.00
860.9170, 11732.00
862.0500, 11806.00
863.1830, 11751.00
864.3160, 11793.00
865.4480, 11838.00
866.5810, 11948.00
867.7130, 12056.00
868.8460, 12119.00
869.9780, 12205.00
871.1100, 12177.00
872.2410, 12142.00
873.3730, 12309.00
874.5050, 12337.00
875.6360, 12381.00
876.7670, 12439.89
877.8980, 12425.00
879.0290, 12433.00
880.1590, 12480.00
881.2900, 12368.00
882.4200, 12257.00
883.5500, 12409.00
884.6800, 12408.00
885.8100, 12234.00
886.9400, 12237.00
888.0690, 12069.00
889.1990, 12248.00
890.3280, 12109.00
891.4570, 12192.00
892.5860, 12073.00
893.7140, 11900.00
894.8430, 11991.00
895.9710, 11849.00
897.1000, 11785.00
898.2280, 11705.00
899.3560, 11669.00
900.4830, 11603.29
901.6110, 11539.00
902.7380, 11506.00
903.8660, 11491.00
904.9930, 11464.00
906.1200, 11423.00
907.2460, 11334.00
908.3730, 11331.00
909.5000, 11422.00
910.6260, 11378.00
911.7520, 11458.00
912.8780, 11418.00
914.0040, 11320.00
915.1290, 11420.00
916.2550, 11412.00
917.3800, 11497.00
918.5050, 11576.00
919.6300, 11550.00
920.7550, 11691.00
921.8800, 11660.00
923.0040, 11864.00
924.1290, 11859.00
925.2530, 12026.00
926.3770, 11968.00
927.5010, 12121.00
928.6250, 12315.00
929.7480, 12454.00
930.8720, 12523.00
931.9950, 12694.00
933.1180, 12822.00
934.2410, 12895.06
935.3640, 12878.00
936.4860, 13048.00
937.6090, 13155.00
938.7310, 13224.11
939.8530, 13370.00
940.9750, 13370.00
942.0970, 13339.00
943.2180, 13512.00
944.3400, 13629.00
945.4610, 13478.00
946.5820, 13554.00
947.7030, 13657.00
948.8240, 13645.00
949.9450, 13590.00
951.0650, 13550.00
952.1860, 13668.00
953.3060, 13696.00
954.4260, 13851.00
955.5460, 13779.00
956.6650, 13813.00
957.7850, 13734.00
958.9040, 13816.00
960.0230, 13961.00
961.1420, 13957.00
962.2610, 14050.00
963.3800, 14007.00
964.4990, 14213.00
965.6170, 14361.00
966.7350, 14135.00
967.8530, 14319.00
968.9710, 14524.00
970.0890, 14486.00
971.2070, 14588.00
972.3240, 14675.00
973.4410, 14776.00
974.5580, 14910.05
975.6750, 15066.00
976.7920, 15174.00
977.9090, 15329.00
979.0250, 15427.00
980.1410, 15429.00
981.2580, 15565.00
982.3740, 15612.00
983.4890, 15611.00
984.6050, 15442.00
985.7200, 15248.00
986.8360, 15367.00
987.9510, 15247.00
989.0660, 15383.00
990.1810, 15408.00
991.2950, 15325.00
992.4100, 15218.00
993.5240, 15172.00
994.6390, 15055.00
995.7530, 15006.00
996.8660, 14991.00
997.9800, 15028.00
999.0940, 14962.00
1000.207, 15052.00
1001.320, 15139.00
1002.433, 15213.00
1003.546, 15232.00
1004.659, 15460.00
1005.772, 15348.00
1006.884, 15288.00
1007.996, 15434.00
1009.108, 15679.00
1010.220, 15601.00
1011.332, 15689.00
1012.444, 15838.00
1013.555, 15827.00
1014.666, 16273.00
1015.777, 16552.00
1016.888, 16589.00
1017.999, 16857.00
1019.110, 16963.00
1020.220, 17345.00
1021.331, 17548.00
1022.441, 17788.00
1023.551, 18032.00
1024.661, 18338.00
1025.770, 18486.00
1026.880, 18537.00
1027.989, 18833.00
1029.098, 19235.00
1030.207, 19448.00
1031.316, 19464.00
1032.425, 19799.00
1033.533, 19899.00
1034.642, 19991.00
1035.750, 20161.00
1036.858, 20696.00
1037.966, 20664.00
1039.073, 21176.00
1040.181, 21461.00
1041.288, 21713.00
1042.396, 22104.00
1043.503, 22354.00
1044.610, 22861.00
1045.716, 23270.00
1046.823, 23650.00
1047.929, 24169.00
1049.036, 24914.00
1050.142, 25512.00
1051.248, 26144.00
1052.353, 26692.00
1053.459, 27335.00
1054.564, 28359.00
1055.670, 29327.00
1056.775, 30525.00
1057.880, 31532.00
1058.985, 32527.00
1060.089, 33911.00
1061.194, 35339.00
1062.298, 36478.00
1063.402, 37893.00
1064.506, 39387.00
1065.610, 40250.00
1066.713, 41045.00
1067.817, 41508.00
1068.920, 41463.20
1070.023, 41041.00
1071.126, 40487.00
1072.229, 39696.00
1073.332, 38346.00
1074.435, 36849.00
1075.537, 35228.00
1076.639, 33447.00
1077.741, 31575.00
1078.843, 30044.00
1079.945, 28466.00
1081.046, 26982.00
1082.148, 25510.00
1083.249, 24188.00
1084.350, 23108.00
1085.451, 22015.00
1086.551, 20950.00
1087.652, 20059.13
1088.752, 19066.00
1089.853, 18428.00
1090.953, 17835.00
1092.053, 17229.00
1093.152, 16863.00
1094.252, 16443.00
1095.351, 16015.00
1096.451, 15625.00
1097.550, 15556.00
1098.649, 15490.00
1099.748, 15236.00
1100.846, 14980.00
1101.945, 14823.00
1103.043, 14834.00
1104.141, 14716.00
1105.239, 14653.00
1106.337, 14350.00
1107.434, 14380.00
1108.532, 14136.00
1109.629, 14188.00
1110.726, 14160.00
1111.823, 14106.00
1112.920, 14044.41
1114.017, 13934.00
1115.113, 13865.00
1116.210, 13781.00
1117.306, 13746.00
1118.402, 13771.00
1119.498, 13620.00
1120.593, 13782.00
1121.689, 13762.00
1122.784, 13772.00
1123.879, 13659.00
1124.974, 13529.00
1126.069, 13644.00
1127.164, 13685.00
1128.259, 13507.00
1129.353, 13507.00
1130.447, 13515.00
1131.541, 13604.00
1132.635, 13506.00
1133.729, 13728.00
1134.822, 13736.00
1135.916, 13644.00
1137.009, 13853.00
1138.102, 13861.00
1139.195, 13915.00
1140.288, 13887.00
1141.380, 13866.00
1142.473, 13993.00
1143.565, 14021.00
1144.657, 13771.00
1145.749, 13821.00
1146.841, 13703.00
1147.932, 13524.00
1149.024, 13475.00
1150.115, 13354.00
1151.206, 13215.00
1152.297, 13028.00
1153.388, 13107.00
1154.479, 12948.00
1155.569, 12835.00
1156.659, 12539.00
1157.750, 12689.00
1158.839, 12609.00
1159.929, 12560.00
1161.019, 12569.00
1162.108, 12453.00
1163.198, 12458.00
1164.287, 12456.00
1165.376, 12424.00
1166.465, 12539.00
1167.553, 12392.00
1168.642, 12509.00
1169.730, 12257.00
1170.818, 12270.00
1171.906, 12375.00
1172.994, 12357.00
1174.082, 12368.00
1175.170, 12416.00
1176.257, 12279.00
1177.344, 12314.00
1178.431, 12324.00
1179.518, 12270.00
1180.605, 12391.00
1181.691, 12247.00
1182.778, 12357.00
1183.864, 12409.00
1184.950, 12330.00
1186.036, 12296.00
1187.122, 12369.00
1188.207, 12285.00
1189.292, 12323.00
1190.378, 12329.00
1191.463, 12389.00
1192.548, 12348.00
1193.632, 12365.00
1194.717, 12366.00
1195.801, 12350.00
1196.886, 12375.88
1197.970, 12387.00
1199.054, 12432.00
1200.137, 12453.00
1201.221, 12527.00
1202.305, 12521.58
1203.388, 12430.00
1204.471, 12542.00
1205.554, 12465.00
1206.637, 12500.00
1207.719, 12416.00
1208.802, 12359.00
1209.884, 12385.00
1210.966, 12354.24
1212.048, 12442.00
1213.130, 12362.00
1214.212, 12506.00
1215.293, 12485.00
1216.374, 12496.00
1217.456, 12515.00
1218.536, 12470.00
1219.617, 12460.00
1220.698, 12585.00
1221.778, 12572.00
1222.859, 12568.00
1223.939, 12591.00
1225.019, 12572.00
1226.099, 12652.00
1227.178, 12646.00
1228.258, 12638.00
1229.337, 12705.00
1230.417, 12715.00
1231.496, 12797.00
1232.574, 12834.17
1233.653, 12841.46
1234.732, 12866.00
1235.810, 12838.00
1236.888, 12709.00
1237.966, 12666.00
1239.044, 12709.00
1240.122, 12783.00
1241.199, 12645.00
1242.277, 12818.00
1243.354, 12886.00
1244.431, 12879.00
1245.508, 12780.00
1246.585, 12754.00
1247.661, 12802.00
1248.738, 12771.00
1249.814, 12879.00
1250.890, 12933.00
1251.966, 12909.00
1253.042, 12873.00
1254.117, 13004.00
1255.193, 13006.00
1256.268, 12970.00
1257.343, 12817.00
1258.418, 12874.00
1259.493, 13077.00
1260.567, 12912.00
1261.642, 13120.00
1262.716, 13182.00
1263.790, 13084.00
1264.864, 13140.00
1265.938, 13241.00
1267.011, 13275.00
1268.085, 13334.00
1269.158, 13217.00
1270.231, 13103.00
1271.304, 13386.00
1272.377, 13266.00
1273.450, 13318.00
1274.522, 13269.00
1275.594, 13449.00
1276.666, 13285.00
1277.738, 13235.00
1278.810, 13448.00
1279.882, 13286.00
1280.953, 13463.00
1282.025, 13404.00
1283.096, 13556.00
1284.167, 13440.00
1285.238, 13349.00
1286.308, 13478.00
1287.379, 13445.00
1288.449, 13380.00
1289.519, 13529.00
1290.589, 13344.00
1291.659, 13585.00
1292.729, 13518.00
1293.798, 13519.00
1294.868, 13419.00
1295.937, 13456.00
1297.006, 13535.00
1298.075, 13440.00
1299.143, 13648.00
1300.212, 13566.00
1301.280, 13606.00
1302.348, 13896.00
1303.416, 13376.00
1304.484, 13439.00
1305.552, 13575.00
1306.620, 13573.00
1307.687, 13605.00
1308.754, 13583.00
1309.821, 13619.73
1310.888, 13645.00
1311.955, 13678.50
1313.021, 13703.00
1314.088, 13735.00
1315.154, 13801.00
1316.220, 13787.37
1317.286, 13692.00
1318.352, 13775.00
1319.417, 13749.00
1320.483, 13733.00
1321.548, 13878.00
1322.613, 13771.00
1323.678, 13929.00
1324.743, 13725.00
1325.807, 13719.00
1326.872, 13759.00
1327.936, 13723.00
1329.000, 13916.00
1330.064, 13916.00
1331.128, 14036.00
1332.191, 13886.00
1333.255, 13992.00
1334.318, 13913.00
1335.381, 13939.00
1336.444, 13986.00
1337.507, 13935.00
1338.569, 13987.00
1339.632, 13958.57
1340.694, 13915.00
1341.756, 13893.00
1342.818, 13897.62
1343.880, 13953.00
1344.941, 13925.00
1346.003, 14024.00
1347.064, 14045.00
1348.125, 13966.00
1349.186, 13961.00
1350.247, 14014.00
1351.308, 13932.00
1352.368, 13975.00
1353.428, 13939.00
1354.489, 13963.00
1355.549, 14006.00
1356.608, 14017.00
1357.668, 14001.00
1358.727, 14097.00
1359.787, 14040.00
1360.846, 14045.00
1361.905, 14076.78
1362.964, 14138.00
1364.022, 14097.00
1365.081, 14179.00
1366.139, 14174.00
1367.197, 14049.00
1368.255, 14070.00
1369.313, 14125.00
1370.371, 14084.00
1371.428, 14083.00
1372.486, 14311.00
1373.543, 14183.00
1374.600, 14231.00
1375.657, 14399.00
1376.713, 14296.00
1377.770, 14337.00
1378.826, 14267.00
1379.882, 14394.00
1380.938, 14535.00
1381.994, 14561.00
1383.050, 14523.00
1384.106, 14578.00
1385.161, 14556.00
1386.216, 14624.16
1387.271, 14784.00
1388.326, 14791.00
1389.381, 14912.00
1390.435, 15047.00
1391.490, 15176.00
1392.544, 15343.00
1393.598, 15350.00
1394.652, 15266.00
1395.705, 15391.00
1396.759, 15300.00
1397.812, 15377.00
1398.866, 15488.00
1399.919, 15616.00
1400.972, 15534.00
1402.024, 15395.00
1403.077, 15445.00
1404.129, 15574.00
1405.181, 15466.00
1406.233, 15693.00
1407.285, 15595.00
1408.337, 15516.00
1409.389, 15344.00
1410.440, 15371.00
1411.491, 15263.11
1412.542, 15251.00
1413.593, 15140.00
1414.644, 15243.00
1415.695, 15176.00
1416.745, 14991.00
1417.795, 15170.00
1418.845, 15234.00
1419.895, 14786.00
1420.945, 15063.00
1421.995, 14933.00
1423.044, 15013.00
1424.093, 14728.00
1425.142, 14894.00
1426.191, 14903.00
1427.240, 14851.00
1428.289, 14671.00
1429.337, 14654.00
1430.385, 14727.00
1431.433, 14964.00
1432.481, 14818.00
1433.529, 14910.00
1434.577, 14828.00
1435.624, 14843.00
1436.672, 15144.00
1437.719, 15130.00
1438.766, 15037.00
1439.812, 15328.00
1440.859, 15267.00
1441.905, 15189.00
1442.952, 15225.00
1443.998, 15151.00
1445.044, 15199.00
1446.090, 15260.00
1447.135, 15315.00
1448.181, 15287.00
1449.226, 15385.00
1450.271, 15426.00
1451.316, 15529.00
1452.361, 15580.00
1453.405, 15692.00
1454.450, 15960.00
1455.494, 16070.00
1456.538, 16239.00
1457.582, 16360.25
1458.626, 16444.00
1459.670, 16558.00
1460.713, 16615.00
1461.757, 16741.00
1462.800, 16639.00
1463.843, 16591.00
1464.886, 16661.00
1465.928, 16501.00
1466.971, 16330.00
1468.013, 16366.00
1469.055, 16056.00
1470.097, 15969.00
1471.139, 15703.00
1472.181, 15610.00
1473.222, 15294.00
1474.263, 15251.00
1475.305, 15183.00
1476.346, 15197.00
1477.386, 15099.34
1478.427, 15055.05
1479.468, 14895.00
1480.508, 14931.00
1481.548, 14741.00
1482.588, 14684.00
1483.628, 14810.00
1484.668, 14727.00
1485.707, 14740.00
1486.747, 14622.00
1487.786, 14594.00
1488.825, 14739.00
1489.864, 14781.00
1490.902, 14749.00
1491.941, 14637.00
1492.979, 14876.00
1494.017, 14841.00
1495.055, 14755.00
1496.093, 14813.00
1497.131, 14875.00
1498.168, 14773.00
1499.206, 14743.00
1500.243, 14902.00
1501.280, 15044.00
1502.317, 15022.00
1503.354, 15214.00
1504.390, 15285.00
1505.426, 15153.00
1506.463, 15212.00
1507.499, 15338.00
1508.535, 15277.00
1509.570, 15308.00
1510.606, 15314.00
1511.641, 15349.00
1512.676, 15382.00
1513.711, 15346.00
1514.746, 15274.00
1515.781, 15155.00
1516.816, 15260.00
1517.850, 15103.00
1518.884, 15288.00
1519.918, 15197.00
1520.952, 15068.00
1521.986, 15122.00
1523.019, 15152.00
1524.053, 15314.00
1525.086, 15183.00
1526.119, 15173.00
1527.152, 15123.00
1528.185, 15225.00
1529.217, 15184.72
1530.250, 15196.00
1531.282, 15202.00
1532.314, 15122.00
1533.346, 15144.00
1534.377, 15136.00
1535.409, 15177.00
1536.440, 15278.00
1537.472, 15156.00
1538.503, 15199.00
1539.534, 15260.00
1540.564, 15175.00
1541.595, 15105.00
1542.625, 15054.00
1543.656, 15127.00
1544.686, 15036.00
1545.716, 15267.00
1546.745, 15272.00
1547.775, 15089.00
1548.804, 15109.00
1549.834, 14945.00
1550.863, 15072.00
1551.892, 15092.00
1552.920, 15192.00
1553.949, 15247.00
1554.977, 15385.00
1556.006, 15183.00
1557.034, 14985.00
1558.062, 15208.00
1559.089, 15058.00
1560.117, 15117.00
1561.144, 14970.00
1562.172, 15312.00
1563.199, 15126.00
1564.226, 15230.00
1565.252, 15066.00
1566.279, 15224.00
1567.305, 15177.00
1568.332, 15303.00
1569.358, 15341.00
1570.384, 15239.00
1571.409, 15302.00
1572.435, 15284.00
##END=



