##NAMES=Elbaite
##RRUFFID=R060631
##IDEAL CHEMISTRY=Na(Al_1.5_Li_1.5_)Al_6_(Si_6_O_18_)(BO_3_)_3_(OH)_3_OH
##LOCALITY=unknown
##OWNER=RRUFF
##SOURCE=Gemological Institute of America
##DESCRIPTION=Pink polished fragment
##STATUS=The identification of this mineral is confirmed by single-crystal X-ray diffraction and chemical analysis.
##URL=rruff.info/R060631
##MEASURED CHEMISTRY=(Na_0.55_Ca_0.34_[box]_0.11_)(Li_1.53_Al_1.30_Mn_0.14_Fe^2+^_0.03_)Al_6.00_(BO_3_)_3_[Si_6.00_O_18_]((OH)_0.82_F_0.18_)_4_
##PIN_ID=L01625
##ORIENTATION=Laser parallel to a* (1 0 0). Fiducial mark perpendicular to laser is parallel to c [0 0 1]
113.2080, 10719.00
114.4400, 11254.00
115.6710, 11321.00
116.9030, 11257.00
118.1340, 11332.00
119.3650, 11359.00
120.5960, 11655.00
121.8270, 12029.00
123.0580, 12147.00
124.2880, 12221.00
125.5190, 12213.00
126.7490, 12439.00
127.9790, 12824.00
129.2090, 13089.00
130.4390, 13324.00
131.6680, 13277.00
132.8980, 13576.00
134.1270, 13808.00
135.3560, 13816.00
136.5850, 14040.00
137.8140, 14136.00
139.0430, 14187.00
140.2710, 14115.00
141.5000, 14017.00
142.7280, 14107.00
143.9560, 14192.00
145.1840, 14311.00
146.4120, 14646.00
147.6390, 14746.00
148.8670, 14910.00
150.0940, 15037.00
151.3210, 15047.00
152.5490, 14729.00
153.7750, 14520.00
155.0020, 14536.00
156.2290, 14166.00
157.4550, 13941.00
158.6810, 13709.00
159.9080, 13523.00
161.1340, 13668.00
162.3590, 13763.00
163.5850, 13931.00
164.8110, 13727.00
166.0360, 13784.00
167.2610, 13816.00
168.4860, 13996.00
169.7110, 14194.00
170.9360, 14387.00
172.1610, 14496.00
173.3850, 14537.00
174.6100, 14755.00
175.8340, 14849.00
177.0580, 14772.00
178.2820, 14709.00
179.5050, 14754.00
180.7290, 14715.00
181.9520, 14824.00
183.1760, 14750.00
184.3990, 14969.00
185.6220, 15175.00
186.8450, 15197.00
188.0670, 15752.00
189.2900, 15906.00
190.5120, 16454.00
191.7340, 16941.00
192.9560, 17449.00
194.1780, 17933.00
195.4000, 18431.00
196.6220, 19027.00
197.8430, 19601.00
199.0640, 20136.00
200.2860, 20873.00
201.5070, 21551.00
202.7270, 21722.00
203.9480, 22016.00
205.1690, 22748.00
206.3890, 23516.00
207.6090, 24523.79
208.8290, 25835.00
210.0490, 27218.00
211.2690, 28830.00
212.4890, 30833.00
213.7080, 32908.00
214.9280, 34620.00
216.1470, 36873.00
217.3660, 39010.00
218.5850, 40252.00
219.8030, 41705.00
221.0220, 41846.00
222.2400, 41720.00
223.4590, 40623.00
224.6770, 39287.00
225.8950, 37631.00
227.1120, 36138.00
228.3300, 35299.00
229.5480, 33907.00
230.7650, 33290.00
231.9820, 32874.00
233.1990, 32388.00
234.4160, 32365.00
235.6330, 32387.00
236.8490, 32763.00
238.0660, 32658.00
239.2820, 32682.00
240.4980, 32616.00
241.7140, 32703.00
242.9300, 32058.00
244.1460, 31861.00
245.3610, 31021.00
246.5770, 30729.00
247.7920, 29766.00
249.0070, 29150.00
250.2220, 28160.00
251.4370, 27101.00
252.6510, 26604.00
253.8660, 26033.00
255.0800, 25500.00
256.2940, 25291.00
257.5080, 24936.91
258.7220, 24466.28
259.9360, 24521.00
261.1490, 23775.00
262.3630, 23482.00
263.5760, 23594.00
264.7890, 23426.00
266.0020, 23264.00
267.2150, 23339.00
268.4270, 23023.00
269.6400, 22930.00
270.8520, 22818.00
272.0640, 22567.00
273.2760, 22518.00
274.4880, 22323.00
275.7000, 21963.00
276.9120, 21898.00
278.1230, 21473.00
279.3340, 21287.00
280.5450, 21022.00
281.7560, 20793.00
282.9670, 20531.00
284.1780, 20202.00
285.3880, 19997.00
286.5980, 19671.00
287.8090, 19321.00
289.0190, 19101.00
290.2290, 18696.00
291.4380, 18506.00
292.6480, 18331.00
293.8570, 18010.00
295.0670, 18043.00
296.2760, 17852.00
297.4850, 17671.00
298.6930, 17819.00
299.9020, 17810.00
301.1110, 17975.00
302.3190, 18023.00
303.5270, 18461.00
304.7350, 18688.00
305.9430, 18774.00
307.1510, 19211.00
308.3580, 19313.00
309.5660, 19691.00
310.7730, 19947.00
311.9800, 20336.00
313.1870, 20618.00
314.3940, 20811.00
315.6010, 20890.00
316.8070, 20860.00
318.0130, 20784.00
319.2200, 20657.00
320.4260, 21023.00
321.6310, 21403.00
322.8370, 21423.00
324.0430, 21443.00
325.2480, 21619.00
326.4540, 21779.00
327.6590, 21740.00
328.8640, 21857.00
330.0680, 21882.00
331.2730, 21967.06
332.4780, 22092.08
333.6820, 22221.00
334.8860, 22381.00
336.0900, 22633.00
337.2940, 22853.00
338.4980, 22852.00
339.7010, 23110.00
340.9050, 23520.00
342.1080, 23992.00
343.3110, 24198.00
344.5140, 24610.00
345.7170, 24706.00
346.9200, 24867.00
348.1220, 25049.00
349.3240, 25277.00
350.5270, 25517.00
351.7290, 25734.00
352.9310, 26200.00
354.1320, 26470.00
355.3340, 27111.00
356.5350, 28138.00
357.7370, 29165.00
358.9380, 30368.00
360.1390, 32421.00
361.3400, 34487.00
362.5400, 37010.00
363.7410, 40200.00
364.9410, 43680.00
366.1410, 47422.00
367.3410, 51207.00
368.5410, 54712.00
369.7410, 58450.00
370.9400, 60972.00
372.1400, 62097.00
373.3390, 61800.00
374.5380, 59490.00
375.7370, 55823.00
376.9360, 51915.00
378.1350, 48438.00
379.3330, 44638.00
380.5310, 41316.00
381.7300, 38975.00
382.9280, 36385.00
384.1260, 34555.00
385.3230, 32919.00
386.5210, 31567.00
387.7180, 30921.00
388.9160, 29967.00
390.1130, 29495.00
391.3100, 29229.00
392.5060, 28994.00
393.7030, 29106.34
394.9000, 29412.00
396.0960, 29650.00
397.2920, 30323.00
398.4880, 30766.00
399.6840, 31268.00
400.8800, 31682.00
402.0750, 31928.00
403.2710, 32055.51
404.4660, 32256.00
405.6610, 31865.00
406.8560, 31630.00
408.0510, 31108.00
409.2450, 30222.00
410.4400, 29328.00
411.6340, 28260.00
412.8280, 26718.00
414.0220, 25810.00
415.2160, 24600.00
416.4100, 23530.00
417.6030, 22582.00
418.7970, 21591.00
419.9900, 20912.00
421.1830, 20278.00
422.3760, 19889.00
423.5690, 19409.00
424.7610, 19445.00
425.9540, 19009.96
427.1460, 18775.93
428.3380, 18474.00
429.5300, 18333.00
430.7220, 18079.00
431.9140, 18069.00
433.1050, 18137.00
434.2970, 18024.00
435.4880, 17978.00
436.6790, 17826.00
437.8700, 17828.00
439.0610, 17798.00
440.2510, 17832.00
441.4420, 18008.00
442.6320, 17988.00
443.8220, 17928.00
445.0120, 17833.00
446.2020, 17845.00
447.3910, 17720.00
448.5810, 17842.00
449.7700, 17724.00
450.9600, 17884.00
452.1490, 17799.00
453.3370, 17642.00
454.5260, 17709.00
455.7150, 17858.00
456.9030, 17690.00
458.0910, 17695.00
459.2800, 17768.00
460.4670, 17681.00
461.6550, 17668.00
462.8430, 17748.00
464.0300, 17716.00
465.2180, 17821.00
466.4050, 17656.00
467.5920, 17573.00
468.7790, 17684.00
469.9650, 17686.00
471.1520, 17665.00
472.3380, 17708.00
473.5250, 17743.00
474.7110, 17794.00
475.8970, 17747.00
477.0820, 17776.00
478.2680, 18057.00
479.4540, 17966.00
480.6390, 18231.00
481.8240, 18235.00
483.0090, 18456.00
484.1940, 18710.00
485.3780, 18803.00
486.5630, 19031.00
487.7470, 19185.06
488.9320, 19323.00
490.1160, 19538.00
491.3000, 19682.00
492.4830, 19936.00
493.6670, 20044.00
494.8500, 20307.00
496.0340, 20474.00
497.2170, 20718.62
498.4000, 20852.00
499.5820, 21241.00
500.7650, 21476.00
501.9480, 21747.00
503.1300, 22147.00
504.3120, 22301.00
505.4940, 22510.15
506.6760, 22580.00
507.8580, 22829.00
509.0390, 22829.00
510.2210, 23073.00
511.4020, 22986.00
512.5830, 23021.00
513.7640, 22700.00
514.9450, 22445.00
516.1250, 22558.00
517.3060, 22164.00
518.4860, 22111.00
519.6660, 21584.00
520.8460, 21256.00
522.0260, 21216.00
523.2060, 21060.00
524.3850, 20893.00
525.5650, 20834.84
526.7440, 20640.00
527.9230, 20654.00
529.1020, 20691.00
530.2810, 20603.00
531.4590, 20645.00
532.6380, 20542.00
533.8160, 20683.00
534.9940, 20723.00
536.1720, 20527.00
537.3500, 20616.00
538.5270, 20496.00
539.7050, 20332.00
540.8820, 20100.00
542.0590, 20240.00
543.2360, 20106.00
544.4130, 19948.00
545.5900, 19770.00
546.7660, 19768.00
547.9430, 19767.00
549.1190, 19766.00
550.2950, 19570.00
551.4710, 19495.00
552.6470, 19630.00
553.8220, 19293.00
554.9980, 19429.00
556.1730, 19203.00
557.3480, 19253.00
558.5230, 19029.00
559.6980, 18989.00
560.8730, 18935.00
562.0470, 18781.00
563.2220, 18683.00
564.3960, 18670.00
565.5700, 18726.00
566.7440, 18587.00
567.9170, 18624.00
569.0910, 18489.00
570.2640, 18666.00
571.4380, 18658.00
572.6110, 18506.00
573.7840, 18631.00
574.9570, 18718.00
576.1290, 18690.00
577.3020, 18863.00
578.4740, 18777.00
579.6460, 18786.00
580.8180, 18852.00
581.9900, 18927.00
583.1620, 18977.00
584.3330, 18892.00
585.5040, 18977.00
586.6760, 18985.00
587.8470, 18804.00
589.0180, 18981.00
590.1880, 18938.00
591.3590, 18891.77
592.5290, 19065.00
593.7000, 18846.00
594.8700, 18837.00
596.0400, 18875.00
597.2090, 19006.00
598.3790, 18829.00
599.5490, 18949.00
600.7180, 18890.00
601.8870, 18943.00
603.0560, 19038.00
604.2250, 18899.00
605.3940, 19099.00
606.5620, 19031.00
607.7300, 18920.00
608.8990, 18950.00
610.0670, 18961.00
611.2350, 19102.00
612.4020, 18976.00
613.5700, 18785.00
614.7370, 19084.00
615.9050, 19087.00
617.0720, 19248.00
618.2390, 19435.00
619.4060, 19649.00
620.5720, 19766.00
621.7390, 20347.00
622.9050, 20660.00
624.0710, 21273.00
625.2370, 21625.00
626.4030, 22128.00
627.5690, 22789.00
628.7340, 23821.00
629.9000, 24283.00
631.0650, 24954.00
632.2300, 25572.00
633.3950, 26038.00
634.5600, 26320.00
635.7240, 26457.00
636.8890, 26368.00
638.0530, 26119.00
639.2170, 25697.00
640.3810, 25395.00
641.5450, 24803.00
642.7080, 24369.00
643.8720, 24011.00
645.0350, 23602.00
646.1980, 23311.93
647.3610, 22981.00
648.5240, 22765.00
649.6870, 22619.00
650.8490, 22363.00
652.0120, 22235.00
653.1740, 21999.67
654.3360, 21665.00
655.4980, 21531.00
656.6600, 21320.00
657.8210, 21033.75
658.9830, 21036.00
660.1440, 20598.00
661.3050, 20501.00
662.4660, 20291.00
663.6270, 20128.00
664.7870, 20053.00
665.9480, 19814.00
667.1080, 19721.00
668.2680, 19638.00
669.4280, 19601.00
670.5880, 19485.00
671.7480, 19387.00
672.9070, 19449.00
674.0670, 19391.00
675.2260, 19436.00
676.3850, 19323.00
677.5440, 19185.00
678.7030, 19275.00
679.8610, 19370.00
681.0200, 19174.00
682.1780, 19333.00
683.3360, 19573.00
684.4940, 19728.00
685.6520, 20156.00
686.8090, 20526.00
687.9670, 20921.00
689.1240, 21164.00
690.2810, 21737.00
691.4380, 22519.00
692.5950, 23329.00
693.7520, 24311.00
694.9080, 25426.00
696.0650, 26267.00
697.2210, 27792.00
698.3770, 29340.00
699.5330, 31139.00
700.6880, 32414.00
701.8440, 34257.00
702.9990, 35641.00
704.1550, 36992.00
705.3100, 37889.00
706.4650, 38589.00
707.6190, 38599.00
708.7740, 38372.00
709.9290, 37383.00
711.0830, 36205.00
712.2370, 35212.00
713.3910, 33065.00
714.5450, 31507.00
715.6980, 30015.00
716.8520, 28323.00
718.0050, 27265.00
719.1580, 26291.00
720.3110, 25050.00
721.4640, 24453.00
722.6170, 23942.00
723.7700, 23513.00
724.9220, 23234.00
726.0740, 22894.00
727.2260, 22579.00
728.3780, 22558.00
729.5300, 22596.00
730.6810, 22578.00
731.8330, 22769.00
732.9840, 22888.00
734.1350, 23210.00
735.2860, 23439.00
736.4370, 23639.00
737.5880, 24168.00
738.7380, 24573.00
739.8880, 24869.00
741.0390, 25194.00
742.1890, 25608.00
743.3380, 25855.00
744.4880, 26146.00
745.6380, 26493.00
746.7870, 26335.00
747.9360, 26402.00
749.0850, 26194.00
750.2340, 26158.00
751.3830, 26030.00
752.5310, 25145.00
753.6800, 24790.00
754.8280, 24254.00
755.9760, 23829.00
757.1240, 23429.00
758.2720, 23012.00
759.4190, 22624.00
760.5670, 22373.00
761.7140, 21760.00
762.8610, 21444.00
764.0080, 21562.00
765.1550, 21318.00
766.3020, 20772.00
767.4480, 20861.00
768.5950, 20377.00
769.7410, 20549.00
770.8870, 20506.00
772.0330, 20289.00
773.1780, 20583.00
774.3240, 20308.00
775.4690, 20206.00
776.6140, 20260.00
777.7590, 19730.00
778.9040, 19634.00
780.0490, 19146.00
781.1940, 19145.00
782.3380, 19159.00
783.4820, 19011.00
784.6260, 18723.00
785.7700, 18671.00
786.9140, 18610.00
788.0580, 18479.00
789.2010, 18371.00
790.3450, 18331.00
791.4880, 18221.00
792.6310, 18309.00
793.7730, 18073.00
794.9160, 18141.00
796.0590, 17933.00
797.2010, 17884.00
798.3430, 18013.00
799.4850, 17665.00
800.6270, 17861.00
801.7690, 17743.00
802.9100, 17548.00
804.0520, 17746.00
805.1930, 17634.00
806.3340, 17679.00
807.4750, 17737.00
808.6160, 17666.00
809.7560, 17724.00
810.8970, 17783.00
812.0370, 17580.00
813.1770, 17764.00
814.3170, 17893.00
815.4570, 17607.00
816.5960, 17860.00
817.7360, 17809.00
818.8750, 17622.00
820.0140, 17721.00
821.1530, 17881.00
822.2920, 17932.00
823.4310, 18194.00
824.5690, 18187.00
825.7070, 18073.00
826.8460, 18295.00
827.9840, 18322.00
829.1220, 18226.00
830.2590, 18252.00
831.3970, 18273.89
832.5340, 18379.00
833.6710, 18386.00
834.8080, 18431.00
835.9450, 18465.49
837.0820, 18506.00
838.2190, 18484.00
839.3550, 18497.00
840.4910, 18462.54
841.6270, 18481.00
842.7630, 18456.00
843.8990, 18473.00
845.0350, 18523.00
846.1700, 18500.28
847.3060, 18512.00
848.4410, 18516.00
849.5760, 18549.00
850.7100, 18600.00
851.8450, 18562.00
852.9800, 18608.00
854.1140, 18634.00
855.2480, 18732.00
856.3820, 18877.00
857.5160, 18950.00
858.6500, 18958.00
859.7830, 18930.00
860.9170, 19013.00
862.0500, 18825.00
863.1830, 19056.00
864.3160, 19059.00
865.4480, 19439.00
866.5810, 19317.00
867.7130, 19241.00
868.8460, 19451.00
869.9780, 19233.00
871.1100, 19228.00
872.2410, 19285.00
873.3730, 19237.00
874.5050, 19386.00
875.6360, 19182.00
876.7670, 19323.00
877.8980, 19136.00
879.0290, 19254.00
880.1590, 19265.00
881.2900, 19160.00
882.4200, 19167.00
883.5500, 19058.00
884.6800, 19005.00
885.8100, 19003.00
886.9400, 18859.00
888.0690, 18933.00
889.1990, 18921.00
890.3280, 18898.00
891.4570, 18962.00
892.5860, 19001.00
893.7140, 18885.00
894.8430, 19035.00
895.9710, 18961.00
897.1000, 18870.00
898.2280, 18821.00
899.3560, 18788.48
900.4830, 18799.32
901.6110, 18773.00
902.7380, 18848.00
903.8660, 18880.00
904.9930, 18843.00
906.1200, 18820.00
907.2460, 18943.00
908.3730, 18802.00
909.5000, 18944.00
910.6260, 19015.00
911.7520, 18871.00
912.8780, 19001.00
914.0040, 19026.00
915.1290, 19074.00
916.2550, 19248.00
917.3800, 19294.00
918.5050, 19334.00
919.6300, 19501.00
920.7550, 19341.00
921.8800, 19453.00
923.0040, 19545.00
924.1290, 19548.00
925.2530, 19819.00
926.3770, 19783.00
927.5010, 19865.00
928.6250, 20197.00
929.7480, 20138.00
930.8720, 20329.00
931.9950, 20366.00
933.1180, 20390.04
934.2410, 20719.00
935.3640, 20500.00
936.4860, 20635.00
937.6090, 20809.00
938.7310, 20761.00
939.8530, 20908.00
940.9750, 21181.00
942.0970, 21068.00
943.2180, 21276.00
944.3400, 21538.00
945.4610, 21887.00
946.5820, 22096.00
947.7030, 21502.00
948.8240, 21717.00
949.9450, 22013.00
951.0650, 22082.00
952.1860, 22299.00
953.3060, 22564.00
954.4260, 22845.00
955.5460, 22840.00
956.6650, 23071.00
957.7850, 23279.00
958.9040, 23661.00
960.0230, 23774.00
961.1420, 24109.00
962.2610, 24236.00
963.3800, 24605.00
964.4990, 24851.00
965.6170, 24703.00
966.7350, 24901.00
967.8530, 25002.00
968.9710, 25461.00
970.0890, 25506.00
971.2070, 25452.00
972.3240, 25632.00
973.4410, 25656.00
974.5580, 25634.23
975.6750, 25646.50
976.7920, 25565.00
977.9090, 25611.00
979.0250, 25550.00
980.1410, 25555.29
981.2580, 25673.00
982.3740, 25556.00
983.4890, 25526.00
984.6050, 25512.00
985.7200, 25417.00
986.8360, 25586.00
987.9510, 25502.00
989.0660, 25604.00
990.1810, 25542.00
991.2950, 25641.00
992.4100, 25534.00
993.5240, 25532.00
994.6390, 25820.00
995.7530, 25665.00
996.8660, 25803.00
997.9800, 26001.00
999.0940, 25755.00
1000.207, 26005.00
1001.320, 26078.00
1002.433, 25984.10
1003.546, 26070.00
1004.659, 25937.00
1005.772, 26071.00
1006.884, 26122.00
1007.996, 26274.00
1009.108, 26281.00
1010.220, 26193.00
1011.332, 26187.00
1012.444, 26396.00
1013.555, 26718.00
1014.666, 26715.00
1015.777, 26613.00
1016.888, 26786.00
1017.999, 26753.00
1019.110, 26897.00
1020.220, 26794.00
1021.331, 26904.00
1022.441, 26728.00
1023.551, 26683.00
1024.661, 26953.00
1025.770, 26609.00
1026.880, 26763.00
1027.989, 26661.00
1029.098, 26590.00
1030.207, 26617.00
1031.316, 26657.00
1032.425, 26650.00
1033.533, 26703.93
1034.642, 26778.64
1035.750, 26867.00
1036.858, 26968.00
1037.966, 27221.00
1039.073, 27341.00
1040.181, 27576.00
1041.288, 27886.00
1042.396, 28033.00
1043.503, 28400.00
1044.610, 28825.00
1045.716, 29313.00
1046.823, 29523.00
1047.929, 29949.00
1049.036, 30383.00
1050.142, 30907.00
1051.248, 31325.00
1052.353, 31663.00
1053.459, 32161.00
1054.564, 32483.00
1055.670, 32547.00
1056.775, 33004.00
1057.880, 33113.00
1058.985, 33190.00
1060.089, 33140.00
1061.194, 33091.00
1062.298, 33062.50
1063.402, 32979.00
1064.506, 32909.00
1065.610, 32834.00
1066.713, 32718.00
1067.817, 32504.00
1068.920, 32624.00
1070.023, 32580.00
1071.126, 32587.00
1072.229, 32308.00
1073.332, 32564.00
1074.435, 32335.00
1075.537, 32568.00
1076.639, 32289.00
1077.741, 32416.00
1078.843, 32513.00
1079.945, 32533.00
1081.046, 32502.00
1082.148, 32877.00
1083.249, 32831.00
1084.350, 33150.00
1085.451, 33327.00
1086.551, 32996.00
1087.652, 33010.00
1088.752, 32831.00
1089.853, 32515.00
1090.953, 32145.00
1092.053, 31979.00
1093.152, 31315.00
1094.252, 30909.00
1095.351, 30644.00
1096.451, 30265.00
1097.550, 29850.00
1098.649, 29607.00
1099.748, 29199.00
1100.846, 28907.00
1101.945, 28427.00
1103.043, 28000.00
1104.141, 27585.00
1105.239, 27185.00
1106.337, 27083.00
1107.434, 26550.00
1108.532, 26520.00
1109.629, 25910.00
1110.726, 25981.00
1111.823, 25782.00
1112.920, 25485.00
1114.017, 25350.00
1115.113, 25317.00
1116.210, 24997.00
1117.306, 25163.00
1118.402, 24868.00
1119.498, 24992.00
1120.593, 24866.00
1121.689, 24511.00
1122.784, 24510.00
1123.879, 24307.00
1124.974, 24414.00
1126.069, 24341.00
1127.164, 24156.00
1128.259, 23967.00
1129.353, 24056.00
1130.447, 23986.00
1131.541, 23854.00
1132.635, 23759.00
1133.729, 23689.55
1134.822, 23630.00
1135.916, 23515.00
1137.009, 23407.00
1138.102, 23236.00
1139.195, 23348.00
1140.288, 23322.00
1141.380, 23363.00
1142.473, 23196.00
1143.565, 23070.00
1144.657, 23117.00
1145.749, 22959.22
1146.841, 23101.00
1147.932, 22869.00
1149.024, 22905.00
1150.115, 23037.00
1151.206, 22856.00
1152.297, 22829.00
1153.388, 22754.00
1154.479, 22745.00
1155.569, 22702.00
1156.659, 22742.00
1157.750, 22744.00
1158.839, 22804.00
1159.929, 22767.00
1161.019, 22696.00
1162.108, 22751.00
1163.198, 22817.00
1164.287, 22772.00
1165.376, 22677.00
1166.465, 22961.00
1167.553, 22780.00
1168.642, 22962.00
1169.730, 22709.00
1170.818, 22635.00
1171.906, 22952.00
1172.994, 23079.00
1174.082, 22895.00
1175.170, 22630.00
1176.257, 22883.00
1177.344, 22962.00
1178.431, 22924.00
1179.518, 22883.00
1180.605, 22926.00
1181.691, 23110.00
1182.778, 22939.00
1183.864, 23110.00
1184.950, 22992.00
1186.036, 22811.00
1187.122, 23125.00
1188.207, 23002.00
1189.292, 23002.00
1190.378, 23013.00
1191.463, 22981.92
1192.548, 23230.00
1193.632, 23014.00
1194.717, 23171.00
1195.801, 23225.00
1196.886, 23154.00
1197.970, 23122.00
1199.054, 23010.00
1200.137, 23060.00
1201.221, 23051.78
1202.305, 23074.41
1203.388, 23146.00
1204.471, 23193.00
1205.554, 23279.00
1206.637, 23374.00
1207.719, 23399.00
1208.802, 23476.63
1209.884, 23479.63
1210.966, 23588.00
1212.048, 23473.00
1213.130, 23528.00
1214.212, 23531.00
1215.293, 23677.00
1216.374, 23652.95
1217.456, 23702.84
1218.536, 23626.00
1219.617, 23728.00
1220.698, 23630.00
1221.778, 23590.00
1222.859, 23581.00
1223.939, 23822.00
1225.019, 24103.00
1226.099, 23929.00
1227.178, 23870.00
1228.258, 23762.00
1229.337, 23976.00
1230.417, 23898.00
1231.496, 23960.00
1232.574, 23877.00
1233.653, 23851.00
1234.732, 24104.00
1235.810, 23855.00
1236.888, 24164.00
1237.966, 24000.00
1239.044, 23945.00
1240.122, 24171.00
1241.199, 24159.00
1242.277, 24050.00
1243.354, 24163.00
1244.431, 24192.00
1245.508, 24214.27
1246.585, 24085.00
1247.661, 24316.00
1248.738, 24279.00
1249.814, 24310.00
1250.890, 24502.00
1251.966, 24340.00
1253.042, 24269.00
1254.117, 24360.00
1255.193, 24439.00
1256.268, 24537.00
1257.343, 24450.00
1258.418, 24542.00
1259.493, 24650.00
1260.567, 24811.00
1261.642, 24652.00
1262.716, 24781.00
1263.790, 24856.00
1264.864, 24667.00
1265.938, 24835.00
1267.011, 24964.00
1268.085, 24887.00
1269.158, 24848.00
1270.231, 25039.00
1271.304, 24851.00
1272.377, 24861.00
1273.450, 24878.00
1274.522, 24932.00
1275.594, 25201.00
1276.666, 25185.00
1277.738, 25263.00
1278.810, 25163.00
1279.882, 25204.00
1280.953, 25200.00
1282.025, 25365.00
1283.096, 25340.36
1284.167, 25445.00
1285.238, 25423.00
1286.308, 25380.00
1287.379, 25506.00
1288.449, 25392.00
1289.519, 25384.00
1290.589, 25460.00
1291.659, 25445.00
1292.729, 25609.00
1293.798, 25534.00
1294.868, 25392.00
1295.937, 25707.00
1297.006, 25616.00
1298.075, 25564.00
1299.143, 25739.00
1300.212, 25712.00
1301.280, 25780.00
1302.348, 25853.17
1303.416, 25609.00
1304.484, 25923.00
1305.552, 25816.00
1306.620, 25757.00
1307.687, 25923.00
1308.754, 25781.00
1309.821, 25889.00
1310.888, 25867.00
1311.955, 26019.00
1313.021, 26191.00
1314.088, 26286.00
1315.154, 26069.00
1316.220, 26080.00
1317.286, 26215.00
1318.352, 26217.00
1319.417, 26384.00
1320.483, 26305.00
1321.548, 26128.00
1322.613, 26209.00
1323.678, 26407.00
1324.743, 26201.00
1325.807, 26503.00
1326.872, 26241.00
1327.936, 26501.00
1329.000, 26519.00
1330.064, 26503.00
1331.128, 26595.00
1332.191, 26510.00
1333.255, 26511.00
1334.318, 26420.00
1335.381, 26591.00
1336.444, 26697.00
1337.507, 26611.00
1338.569, 26758.00
1339.632, 26690.00
1340.694, 26580.00
1341.756, 26957.00
1342.818, 26657.00
1343.880, 26869.00
1344.941, 26897.00
1346.003, 26769.00
1347.064, 26904.00
1348.125, 26712.00
1349.186, 26909.00
1350.247, 26804.00
1351.308, 26984.00
1352.368, 27013.00
1353.428, 26930.00
1354.489, 26960.00
1355.549, 26868.00
1356.608, 27068.00
1357.668, 27186.00
1358.727, 26990.00
1359.787, 27207.00
1360.846, 27171.00
1361.905, 26989.00
1362.964, 27260.00
1364.022, 27385.00
1365.081, 27298.00
1366.139, 27256.00
1367.197, 27376.00
1368.255, 27347.00
1369.313, 27530.00
1370.371, 27489.65
1371.428, 27298.00
1372.486, 27476.00
1373.543, 27421.00
1374.600, 27437.00
1375.657, 27558.00
1376.713, 27435.00
1377.770, 27556.10
1378.826, 27826.00
1379.882, 27774.00
1380.938, 27856.00
1381.994, 28151.00
1383.050, 27894.00
1384.106, 28199.00
1385.161, 28256.00
1386.216, 28376.00
1387.271, 28407.00
1388.326, 28549.00
1389.381, 28507.00
1390.435, 28623.09
1391.490, 28810.00
1392.544, 28805.00
1393.598, 28763.00
1394.652, 28883.00
1395.705, 28925.00
1396.759, 28836.00
1397.812, 28951.00
1398.866, 28938.00
1399.919, 28963.00
1400.972, 28937.00
1402.024, 29010.00
1403.077, 28818.00
1404.129, 28999.00
1405.181, 28848.00
1406.233, 28635.00
1407.285, 28587.00
1408.337, 28685.00
1409.389, 28584.00
1410.440, 28679.00
1411.491, 28598.00
1412.542, 28728.00
1413.593, 28722.00
1414.644, 28588.00
1415.695, 28689.00
1416.745, 28739.00
1417.795, 28573.00
1418.845, 28545.00
1419.895, 28635.00
1420.945, 28572.00
1421.995, 28623.00
1423.044, 28720.00
1424.093, 28637.00
1425.142, 28717.00
1426.191, 28623.00
1427.240, 28653.90
1428.289, 28590.00
1429.337, 28685.00
1430.385, 28813.00
1431.433, 28842.00
1432.481, 28916.00
1433.529, 28796.00
1434.577, 28835.00
1435.624, 28944.00
1436.672, 29057.00
1437.719, 28980.00
1438.766, 28944.00
1439.812, 28964.37
1440.859, 28924.01
1441.905, 28956.00
1442.952, 28928.00
1443.998, 28971.00
1445.044, 29013.00
1446.090, 28954.00
1447.135, 28983.00
1448.181, 29123.00
1449.226, 29206.00
1450.271, 29034.00
1451.316, 29194.85
1452.361, 29135.00
1453.405, 29296.00
1454.450, 29323.00
1455.494, 29342.00
1456.538, 29385.06
1457.582, 29477.00
1458.626, 29345.00
1459.670, 29189.00
1460.713, 29081.00
1461.757, 29373.00
1462.800, 29288.00
1463.843, 29387.00
1464.886, 29453.00
1465.928, 29205.00
1466.971, 29309.00
1468.013, 29287.00
1469.055, 29273.00
1470.097, 29302.00
1471.139, 29248.00
1472.181, 29211.00
1473.222, 29138.00
1474.263, 29206.00
1475.305, 29049.00
1476.346, 29337.00
1477.386, 29370.00
1478.427, 29421.00
1479.468, 29429.00
1480.508, 29359.00
1481.548, 29183.00
1482.588, 29036.00
1483.628, 29567.00
1484.668, 29391.00
1485.707, 29454.00
1486.747, 29323.00
1487.786, 29509.00
1488.825, 29335.00
1489.864, 29340.00
1490.902, 29610.00
1491.941, 29750.00
1492.979, 29710.00
1494.017, 29505.00
1495.055, 29489.00
1496.093, 29643.00
1497.131, 29521.00
1498.168, 29845.00
1499.206, 29746.00
1500.243, 29932.00
1501.280, 29810.00
1502.317, 29944.00
1503.354, 29813.00
1504.390, 30086.00
1505.426, 30010.00
1506.463, 30052.00
1507.499, 30033.00
1508.535, 30084.00
1509.570, 30307.00
1510.606, 30396.00
1511.641, 30238.00
1512.676, 30479.00
1513.711, 30203.00
1514.746, 30220.00
1515.781, 30394.00
1516.816, 30626.00
1517.850, 30215.00
1518.884, 30380.00
1519.918, 30444.00
1520.952, 30452.00
1521.986, 30413.00
1523.019, 30554.00
1524.053, 30614.00
1525.086, 30655.60
1526.119, 30696.00
1527.152, 30788.00
1528.185, 30660.00
1529.217, 30741.00
1530.250, 30673.00
1531.282, 30800.00
1532.314, 30600.00
1533.346, 30678.00
1534.377, 30730.00
1535.409, 30726.00
1536.440, 30691.00
1537.472, 30886.00
1538.503, 30660.00
1539.534, 30617.00
1540.564, 30788.00
1541.595, 30742.00
1542.625, 31010.00
1543.656, 30732.00
1544.686, 30943.00
1545.716, 30789.00
1546.745, 30929.00
1547.775, 30780.00
1548.804, 30917.00
1549.834, 30903.00
1550.863, 30950.00
1551.892, 31058.00
1552.920, 30973.00
1553.949, 31089.00
1554.977, 31026.00
1556.006, 30967.00
1557.034, 30931.00
1558.062, 30904.17
1559.089, 31036.00
1560.117, 30904.00
1561.144, 31048.00
1562.172, 31116.00
1563.199, 30878.00
1564.226, 31094.00
1565.252, 31206.00
1566.279, 31219.00
1567.305, 31280.00
1568.332, 31091.00
1569.358, 31161.00
1570.384, 31290.00
##END=



