##NAMES=Elbaite
##RRUFFID=R050487
##IDEAL CHEMISTRY=Na(Al_1.5_Li_1.5_)Al_6_(Si_6_O_18_)(BO_3_)_3_(OH)_3_OH
##LOCALITY=White Queen mine, Pala, San Diego County, California, USA
##OWNER=RRUFF
##SOURCE=California Institute of Technology
##DESCRIPTION=Mass of blue acicular crystals
##STATUS=The identification of this mineral has been confirmed by X-ray diffraction and chemical analysis
##URL=rruff.info/R050487
##MEASURED CHEMISTRY=(Na_0.86_[box]_0.13_Ca_0.01_)(Al_0.42_Li_0.38_Fe^2+^_0.18_Mn_0.02_)_3_Al_6_(BO_3_)_3_Si_6_O_18_((OH)_0.85_F_0.15_)_4_
##PIN_ID=M01385
##ORIENTATION=Laser parallel to c* (0 0 1). Fiducial mark perpendicular to laser is parallel to b [0 1 0]
199.9670, 16588.00
201.1900, 16777.00
202.4130, 16739.00
203.6360, 16817.00
204.8590, 17120.00
206.0820, 17258.00
207.3050, 17734.00
208.5270, 18379.00
209.7490, 18971.00
210.9710, 19875.00
212.1930, 20750.00
213.4150, 21776.00
214.6370, 22617.00
215.8580, 23511.00
217.0790, 24227.00
218.3010, 24966.00
219.5210, 25279.00
220.7420, 25323.00
221.9630, 25182.00
223.1830, 24611.00
224.4040, 24300.00
225.6240, 23327.00
226.8440, 22368.00
228.0640, 21856.00
229.2840, 20917.00
230.5030, 20035.00
231.7230, 19760.00
232.9420, 19210.00
234.1610, 18736.00
235.3800, 18578.00
236.5990, 18269.00
237.8170, 18098.00
239.0360, 17806.00
240.2540, 17664.00
241.4720, 17408.00
242.6900, 17193.00
243.9080, 16926.00
245.1250, 16630.00
246.3430, 16058.00
247.5600, 15858.00
248.7770, 15742.00
249.9940, 15096.00
251.2110, 14965.00
252.4280, 14640.00
253.6450, 14507.00
254.8610, 14047.00
256.0770, 13782.00
257.2930, 13684.00
258.5090, 13553.67
259.7250, 13824.00
260.9400, 13575.00
262.1560, 13583.00
263.3710, 13581.00
264.5860, 13493.00
265.8010, 13524.00
267.0160, 13675.00
268.2310, 13548.00
269.4450, 13754.00
270.6600, 13833.00
271.8740, 13824.00
273.0880, 13925.00
274.3020, 13926.00
275.5150, 14016.00
276.7290, 13888.00
277.9420, 13845.00
279.1550, 13830.00
280.3680, 13659.00
281.5810, 13706.00
282.7940, 13691.00
284.0070, 13629.00
285.2190, 13688.00
286.4310, 13462.00
287.6430, 13514.00
288.8550, 13517.00
290.0670, 13402.00
291.2790, 13397.00
292.4900, 13334.00
293.7020, 13285.00
294.9130, 13383.00
296.1240, 13416.00
297.3350, 13395.00
298.5450, 13450.00
299.7560, 13496.00
300.9660, 13552.00
302.1760, 13614.33
303.3860, 13700.59
304.5960, 13786.00
305.8060, 13927.00
307.0150, 14108.00
308.2250, 14303.00
309.4340, 14334.00
310.6430, 14568.00
311.8520, 14653.00
313.0610, 14782.00
314.2700, 14905.00
315.4780, 15154.00
316.6860, 15552.00
317.8940, 15898.00
319.1020, 16247.00
320.3100, 16457.00
321.5180, 16712.00
322.7250, 17071.00
323.9330, 17602.00
325.1400, 18014.00
326.3470, 18200.00
327.5540, 18460.38
328.7600, 18701.57
329.9670, 18889.75
331.1730, 19026.88
332.3800, 18997.94
333.5860, 19154.92
334.7920, 19219.92
335.9970, 19269.13
337.2030, 19416.71
338.4080, 19347.73
339.6140, 19468.65
340.8190, 19496.34
342.0240, 19510.67
343.2290, 19692.00
344.4330, 19801.00
345.6380, 20067.00
346.8420, 20430.00
348.0460, 20723.00
349.2500, 21249.00
350.4540, 21575.00
351.6580, 22043.00
352.8610, 22555.00
354.0650, 22704.00
355.2680, 22943.00
356.4710, 23325.00
357.6740, 23721.00
358.8760, 23623.00
360.0790, 23838.00
361.2810, 24649.00
362.4840, 24935.00
363.6860, 25668.00
364.8880, 26886.00
366.0900, 27706.00
367.2910, 28947.00
368.4930, 30160.00
369.6940, 31421.00
370.8950, 32370.00
372.0960, 33257.00
373.2970, 33545.00
374.4980, 33414.00
375.6980, 32567.00
376.8980, 31503.00
378.0990, 29626.00
379.2990, 28254.00
380.4980, 26510.00
381.6980, 25164.00
382.8980, 23684.00
384.0970, 22457.00
385.2960, 21252.00
386.4950, 20493.00
387.6940, 20061.00
388.8930, 19271.00
390.0920, 18878.00
391.2900, 18437.00
392.4880, 18200.00
393.6860, 18045.00
394.8840, 17767.00
396.0820, 17686.00
397.2800, 17691.00
398.4770, 17525.00
399.6750, 17712.00
400.8720, 17660.00
402.0690, 17563.00
403.2660, 17584.00
404.4620, 17673.00
405.6590, 17809.00
406.8550, 17655.00
408.0510, 17613.00
409.2480, 17486.00
410.4430, 17376.00
411.6390, 17097.00
412.8350, 16841.00
414.0300, 16512.00
415.2250, 16374.00
416.4200, 16124.00
417.6150, 15731.00
418.8100, 15560.00
420.0050, 15453.00
421.1990, 15464.00
422.3940, 15360.00
423.5880, 15190.00
424.7820, 15206.00
425.9750, 15125.00
427.1690, 15098.00
428.3630, 14882.00
429.5560, 15077.00
430.7490, 14923.00
431.9420, 14840.00
433.1350, 14898.00
434.3280, 14828.00
435.5200, 14829.15
436.7130, 14866.66
437.9050, 14863.00
439.0970, 14918.00
440.2890, 14923.93
441.4810, 15034.00
442.6720, 14969.00
443.8640, 14958.00
445.0550, 15010.00
446.2460, 14941.00
447.4370, 14890.00
448.6280, 15014.00
449.8180, 14822.63
451.0090, 14921.86
452.1990, 14987.44
453.3890, 15021.57
454.5790, 14909.01
455.7690, 15001.95
456.9590, 15022.36
458.1480, 15046.49
459.3380, 15188.42
460.5270, 15133.25
461.7160, 15351.00
462.9050, 15485.00
464.0940, 15634.00
465.2820, 15520.00
466.4700, 15668.00
467.6590, 15499.00
468.8470, 15664.00
470.0350, 15654.00
471.2220, 15884.00
472.4100, 15603.00
473.5970, 15879.00
474.7850, 15813.00
475.9720, 15714.00
477.1590, 16000.00
478.3460, 15800.00
479.5320, 16083.00
480.7190, 16022.00
481.9050, 16158.00
483.0910, 16234.00
484.2770, 16312.00
485.4630, 16437.00
486.6490, 16598.00
487.8340, 16821.95
489.0200, 17055.00
490.2050, 17409.00
491.3900, 17666.00
492.5750, 17934.50
493.7600, 18313.00
494.9440, 18467.00
496.1290, 18765.00
497.3130, 19052.00
498.4970, 19254.00
499.6810, 19292.00
500.8650, 19430.00
502.0480, 19406.00
503.2320, 19429.00
504.4150, 19078.00
505.5980, 18702.00
506.7810, 18313.00
507.9640, 18013.00
509.1460, 17561.00
510.3290, 17161.00
511.5110, 16748.99
512.6930, 16284.00
513.8750, 15842.00
515.0570, 15526.00
516.2390, 15018.00
517.4210, 14760.00
518.6020, 14510.00
519.7830, 14440.00
520.9640, 14250.00
522.1450, 14212.00
523.3260, 14174.00
524.5060, 14250.00
525.6870, 14276.00
526.8670, 14307.00
528.0470, 14374.00
529.2270, 14324.00
530.4070, 14578.00
531.5870, 14450.00
532.7660, 14574.00
533.9450, 14742.00
535.1240, 14678.00
536.3030, 14963.00
537.4820, 15091.00
538.6610, 15127.00
539.8390, 15071.00
541.0180, 15128.00
542.1960, 15185.00
543.3740, 15351.00
544.5520, 15222.00
545.7290, 15387.00
546.9070, 15111.00
548.0840, 15213.00
549.2620, 15167.00
550.4390, 14934.00
551.6160, 14733.00
552.7920, 14878.00
553.9690, 14581.00
555.1450, 14548.00
556.3220, 14376.00
557.4980, 14165.00
558.6740, 14204.00
559.8490, 14177.00
561.0250, 14024.00
562.2000, 14010.00
563.3760, 13876.00
564.5510, 13977.00
565.7260, 13740.00
566.9010, 13746.00
568.0750, 13686.29
569.2500, 13783.17
570.4240, 13842.10
571.5980, 13865.15
572.7720, 13744.79
573.9460, 13809.60
575.1200, 13800.21
576.2930, 13787.76
577.4670, 13878.64
578.6400, 13779.13
579.8130, 13868.36
580.9860, 13849.00
582.1590, 13915.00
583.3310, 13936.00
584.5040, 13974.00
585.6760, 13939.00
586.8480, 14050.00
588.0200, 13876.00
589.1920, 14090.00
590.3630, 14217.00
591.5350, 14122.00
592.7060, 14136.00
593.8770, 14302.00
595.0480, 14469.00
596.2190, 14557.00
597.3900, 14632.00
598.5600, 14760.00
599.7310, 14845.00
600.9010, 14729.00
602.0710, 14917.00
603.2410, 14883.00
604.4100, 14759.00
605.5800, 14920.00
606.7490, 14918.00
607.9190, 14710.00
609.0880, 14602.00
610.2570, 14603.00
611.4250, 14365.00
612.5940, 14263.00
613.7620, 14130.00
614.9310, 13931.00
616.0990, 13901.01
617.2670, 13897.00
618.4340, 13824.00
619.6020, 13784.00
620.7690, 13803.00
621.9370, 13583.00
623.1040, 13603.00
624.2710, 13522.00
625.4380, 13510.00
626.6040, 13660.00
627.7710, 13815.00
628.9370, 13807.00
630.1030, 13952.00
631.2690, 13914.00
632.4350, 14059.00
633.6010, 14026.00
634.7660, 14170.00
635.9320, 14274.00
637.0970, 14359.00
638.2620, 14401.00
639.4270, 14155.00
640.5920, 14233.00
641.7560, 14041.00
642.9210, 13901.00
644.0850, 13930.00
645.2490, 13799.00
646.4130, 13791.00
647.5770, 13803.00
648.7400, 13858.00
649.9040, 13914.00
651.0670, 14074.00
652.2300, 14091.00
653.3930, 13989.00
654.5560, 14180.00
655.7190, 14020.00
656.8810, 14280.00
658.0440, 14318.00
659.2060, 14338.00
660.3680, 14325.00
661.5300, 14240.00
662.6910, 14146.00
663.8530, 14105.00
665.0140, 13924.00
666.1750, 13741.00
667.3360, 13658.00
668.4970, 13422.00
669.6580, 13337.00
670.8190, 13328.00
671.9790, 12964.00
673.1390, 12968.00
674.2990, 12840.00
675.4590, 12782.00
676.6190, 12702.00
677.7790, 12486.00
678.9380, 12454.00
680.0970, 12353.00
681.2570, 12450.00
682.4160, 12403.06
683.5740, 12308.00
684.7330, 12357.00
685.8920, 12382.00
687.0500, 12218.00
688.2080, 12268.00
689.3660, 12360.00
690.5240, 12372.00
691.6820, 12560.00
692.8390, 12434.00
693.9960, 12734.00
695.1540, 12784.00
696.3110, 12891.00
697.4680, 13164.00
698.6240, 13219.00
699.7810, 13431.00
700.9370, 13854.00
702.0940, 14176.00
703.2500, 14124.00
704.4060, 14387.00
705.5610, 14843.00
706.7170, 15186.00
707.8720, 15632.00
709.0280, 16299.00
710.1830, 16966.00
711.3380, 17795.00
712.4920, 18667.00
713.6470, 19953.00
714.8020, 21076.00
715.9560, 22553.00
717.1100, 24192.00
718.2640, 25639.00
719.4180, 27293.00
720.5720, 28915.00
721.7250, 30080.00
722.8780, 31513.00
724.0320, 32206.00
725.1850, 32363.00
726.3380, 32421.00
727.4900, 31726.00
728.6430, 30631.00
729.7950, 29298.00
730.9470, 27353.00
732.1000, 25889.00
733.2510, 24149.00
734.4030, 22516.00
735.5550, 21147.00
736.7060, 19873.00
737.8570, 19174.00
739.0090, 18441.00
740.1600, 17585.00
741.3100, 17048.00
742.4610, 16769.00
743.6110, 16488.00
744.7620, 16291.00
745.9120, 16301.00
747.0620, 16165.00
748.2120, 16360.00
749.3610, 16392.00
750.5110, 16482.00
751.6600, 16799.00
752.8090, 16839.00
753.9580, 16734.00
755.1070, 16874.00
756.2560, 16762.00
757.4050, 16498.00
758.5530, 16489.00
759.7010, 16313.00
760.8490, 16032.00
761.9970, 15798.00
763.1450, 15511.00
764.2920, 15238.00
765.4400, 15039.00
766.5870, 14821.00
767.7340, 14473.00
768.8810, 14372.00
770.0280, 14309.00
771.1740, 14006.00
772.3210, 14017.00
773.4670, 13975.00
774.6130, 13930.00
775.7590, 13947.00
776.9050, 13788.00
778.0510, 13678.00
779.1960, 13556.00
780.3420, 13543.00
781.4870, 13569.00
782.6320, 13613.00
783.7770, 13571.00
784.9210, 13531.00
786.0660, 13573.00
787.2100, 13586.80
788.3540, 13632.17
789.4980, 13695.00
790.6420, 13798.00
791.7860, 13867.00
792.9300, 14037.00
794.0730, 14021.00
795.2160, 14377.00
796.3590, 14366.00
797.5020, 14394.00
798.6450, 14665.00
799.7880, 14784.00
800.9300, 14810.00
802.0720, 14966.00
803.2150, 14974.00
804.3560, 15104.00
805.4980, 15355.00
806.6400, 15486.00
807.7810, 15903.00
808.9230, 16192.00
810.0640, 16583.00
811.2050, 16636.00
812.3460, 16157.00
813.4860, 16216.00
814.6270, 15697.00
815.7670, 15516.00
816.9070, 15325.00
818.0470, 15158.00
819.1870, 15030.00
820.3270, 14872.00
821.4670, 14970.00
822.6060, 15065.00
823.7450, 15169.00
824.8840, 14968.00
826.0230, 15202.00
827.1620, 15213.00
828.3010, 15628.00
829.4390, 15635.00
830.5770, 15850.00
831.7150, 16076.00
832.8530, 16156.00
833.9910, 16294.00
835.1290, 16457.00
836.2660, 16607.00
837.4030, 16638.00
838.5410, 16694.00
839.6780, 16793.00
840.8140, 16407.00
841.9510, 16537.00
843.0870, 16737.00
844.2240, 16918.00
845.3600, 17111.00
846.4960, 17339.00
847.6320, 17940.00
848.7680, 18391.00
849.9030, 19310.00
851.0380, 19843.00
852.1740, 20767.00
853.3090, 21468.00
854.4440, 22001.00
855.5780, 22630.00
856.7130, 22805.00
857.8470, 22803.76
858.9820, 22688.00
860.1160, 22107.00
861.2500, 21464.00
862.3830, 20517.00
863.5170, 19538.00
864.6500, 18512.00
865.7840, 17626.00
866.9170, 16801.00
868.0500, 16232.00
869.1830, 15798.00
870.3150, 15314.00
871.4480, 14869.00
872.5800, 14651.00
873.7120, 14404.00
874.8440, 14236.00
875.9760, 13963.00
877.1080, 13918.00
878.2390, 13714.00
879.3710, 13586.00
880.5020, 13506.00
881.6330, 13350.00
882.7640, 13140.00
883.8940, 13280.00
885.0250, 13101.00
886.1550, 13092.00
887.2850, 12919.00
888.4160, 12950.00
889.5450, 12944.00
890.6750, 12918.00
891.8050, 12885.00
892.9340, 12922.00
894.0630, 12879.48
895.1930, 12893.49
896.3220, 12861.00
897.4500, 12906.00
898.5790, 12949.00
899.7070, 12963.74
900.8360, 13045.00
901.9640, 12964.00
903.0920, 12952.00
904.2200, 12916.00
905.3470, 13042.00
906.4750, 13164.00
907.6020, 13192.00
908.7290, 13169.00
909.8560, 13384.00
910.9830, 13267.00
912.1100, 13286.26
913.2360, 13271.00
914.3630, 13221.00
915.4890, 13307.00
916.6150, 13356.00
917.7410, 13160.00
918.8670, 13230.00
919.9920, 13488.00
921.1180, 13296.00
922.2430, 13388.70
923.3680, 13294.00
924.4930, 13451.00
925.6180, 13486.86
926.7420, 13452.00
927.8670, 13663.00
928.9910, 13562.00
930.1150, 13656.00
931.2390, 13495.00
932.3630, 13745.00
933.4860, 13894.00
934.6100, 13769.00
935.7330, 13901.00
936.8560, 14231.00
937.9790, 14173.00
939.1020, 14203.00
940.2250, 14205.00
941.3470, 14220.00
942.4700, 14498.00
943.5920, 14340.00
944.7140, 14363.00
945.8360, 14578.00
946.9570, 14456.00
948.0790, 14571.00
949.2000, 14457.00
950.3220, 14725.00
951.4430, 14638.00
952.5640, 14973.00
953.6840, 15026.00
954.8050, 15030.00
955.9250, 15136.00
957.0460, 15192.00
958.1660, 15373.00
959.2860, 15547.00
960.4050, 15519.00
961.5250, 15597.00
962.6440, 15634.00
963.7640, 15707.00
964.8830, 15903.00
966.0020, 15881.00
967.1210, 15869.00
968.2390, 16146.00
969.3580, 16093.00
970.4760, 15957.00
971.5940, 16074.00
972.7120, 16114.00
973.8300, 16163.00
974.9480, 16127.00
976.0650, 16131.00
977.1830, 16388.00
978.3000, 16311.00
979.4170, 16428.00
980.5340, 16460.00
981.6500, 16562.00
982.7670, 16491.00
983.8830, 16617.00
985.0000, 16671.00
986.1160, 16578.00
987.2320, 16450.00
988.3470, 16614.00
989.4630, 16666.00
990.5780, 16740.00
991.6940, 16921.00
992.8090, 16905.00
993.9240, 17082.00
995.0380, 17102.00
996.1530, 17147.00
997.2680, 17033.00
998.3820, 17375.00
999.4960, 17338.00
1000.610, 17594.00
1001.724, 17685.00
1002.837, 17614.00
1003.951, 17625.00
1005.064, 17753.00
1006.177, 17896.00
1007.291, 17925.00
1008.403, 18096.00
1009.516, 18259.00
1010.629, 18348.00
1011.741, 18424.00
1012.853, 18552.52
1013.965, 18619.30
1015.077, 18733.00
1016.189, 18789.00
1017.300, 18816.00
1018.412, 18914.00
1019.523, 18999.32
1020.634, 19085.72
1021.745, 19194.00
1022.856, 19303.00
1023.966, 19349.00
1025.077, 19473.00
1026.187, 19568.00
1027.297, 19727.00
1028.407, 19832.00
1029.517, 19913.00
1030.627, 20117.94
1031.736, 20393.00
1032.845, 20556.00
1033.955, 20720.00
1035.064, 21058.00
1036.172, 21485.00
1037.281, 21898.00
1038.390, 22178.00
1039.498, 22576.00
1040.606, 23079.00
1041.714, 23396.00
1042.822, 23859.00
1043.930, 24294.00
1045.037, 24863.00
1046.145, 25305.00
1047.252, 26002.00
1048.359, 26646.00
1049.466, 27469.00
1050.573, 28402.00
1051.679, 29055.00
1052.786, 30051.00
1053.892, 31012.00
1054.998, 31719.00
1056.104, 32561.00
1057.210, 33141.00
1058.315, 33362.00
1059.421, 33326.00
1060.526, 33027.00
1061.631, 32466.00
1062.736, 31607.00
1063.841, 30493.00
1064.946, 29361.00
1066.050, 28141.00
1067.154, 26901.00
1068.258, 25584.00
1069.362, 24596.00
1070.466, 23541.00
1071.570, 22622.00
1072.674, 21488.00
1073.777, 21059.00
1074.880, 20066.00
1075.983, 19703.00
1077.086, 19253.00
1078.189, 18624.00
1079.291, 18755.00
1080.394, 18163.00
1081.496, 17710.00
1082.598, 17643.00
1083.700, 17506.00
1084.802, 17348.00
1085.903, 17244.00
1087.005, 17401.00
1088.106, 17524.00
1089.207, 17427.00
1090.308, 17657.00
1091.409, 17561.00
1092.509, 17733.00
1093.610, 17868.09
1094.710, 17956.17
1095.810, 18047.95
1096.910, 18144.72
1098.010, 18177.36
1099.110, 18357.15
1100.209, 18517.14
1101.309, 18579.00
1102.408, 18785.00
1103.507, 19017.00
1104.606, 19171.00
1105.704, 19507.91
1106.803, 19663.00
1107.901, 20171.00
1108.999, 20440.00
1110.097, 20773.00
1111.195, 21193.00
1112.293, 21409.00
1113.391, 21573.00
1114.488, 21213.00
1115.585, 20929.00
1116.682, 20701.00
1117.779, 20034.00
1118.876, 19414.00
1119.973, 18962.00
1121.069, 18428.00
1122.165, 18169.00
1123.261, 17544.00
1124.357, 17411.00
1125.453, 17228.00
1126.549, 17057.00
1127.644, 17032.00
1128.739, 16829.00
1129.835, 16770.00
1130.930, 16480.00
1132.024, 16658.00
1133.119, 16578.00
1134.214, 16526.00
1135.308, 16645.00
1136.402, 16611.00
1137.496, 16502.00
1138.590, 16399.00
1139.684, 16476.00
1140.777, 16435.00
1141.871, 16496.00
1142.964, 16386.00
1144.057, 16359.00
1145.150, 16593.00
1146.243, 16481.00
1147.335, 16489.00
1148.428, 16738.00
1149.520, 16917.00
1150.612, 16810.00
1151.704, 17042.00
1152.796, 17078.00
1153.887, 17252.00
1154.979, 17300.77
1156.070, 17337.61
1157.161, 17336.00
1158.252, 17321.00
1159.343, 17255.00
1160.433, 17122.00
1161.524, 16902.00
1162.614, 16944.00
1163.704, 16732.00
1164.794, 16710.00
1165.884, 16504.00
1166.974, 16496.00
1168.063, 16405.00
1169.153, 16172.00
1170.242, 16101.00
1171.331, 15991.00
1172.420, 15907.83
1173.508, 15904.00
1174.597, 15823.00
1175.685, 15787.00
1176.774, 15757.00
1177.862, 15843.00
1178.950, 15734.00
1180.037, 15749.36
1181.125, 15609.00
1182.212, 15707.00
1183.300, 15680.00
1184.387, 15684.00
1185.474, 15651.00
1186.560, 15585.23
1187.647, 15606.00
1188.733, 15473.00
1189.820, 15343.00
1190.906, 15376.00
1191.992, 15160.00
1193.078, 15164.00
1194.163, 15055.00
1195.249, 14922.00
1196.334, 14976.00
1197.419, 14976.00
1198.504, 14841.34
1199.589, 14915.00
1200.674, 14943.00
1201.758, 14909.00
1202.843, 14934.57
1203.927, 14935.00
1205.011, 14916.00
1206.095, 14889.00
1207.179, 14894.00
1208.262, 14922.00
1209.345, 14978.29
1210.429, 15073.00
1211.512, 15138.00
1212.595, 15175.00
1213.677, 15242.00
1214.760, 15304.93
1215.842, 15377.00
1216.925, 15454.00
1218.007, 15551.00
1219.089, 15656.03
1220.171, 15690.67
1221.252, 15829.00
1222.334, 15829.00
1223.415, 15906.00
1224.496, 16119.00
1225.577, 16149.00
1226.658, 16342.00
1227.738, 16160.00
1228.819, 16157.00
1229.899, 16238.00
1230.979, 16208.00
1232.060, 16415.00
1233.139, 16551.00
1234.219, 16508.00
1235.299, 16628.00
1236.378, 16421.00
1237.457, 16556.00
1238.536, 16489.00
1239.615, 16548.00
1240.694, 16659.00
1241.772, 16635.00
1242.851, 16838.00
1243.929, 16779.00
1245.007, 16937.00
1246.085, 16724.00
1247.163, 16819.00
1248.240, 16927.00
1249.318, 16916.00
1250.395, 17014.00
1251.472, 16881.00
1252.549, 17151.00
1253.626, 17134.00
1254.703, 17094.00
1255.779, 17358.00
1256.855, 17354.00
1257.931, 17334.00
1259.007, 17395.00
1260.083, 17439.00
1261.159, 17391.00
1262.234, 17331.00
1263.310, 17341.69
1264.385, 17306.52
1265.460, 17324.00
1266.535, 17354.00
1267.610, 17384.00
1268.684, 17415.62
1269.758, 17376.00
1270.833, 17501.00
1271.907, 17486.00
1272.981, 17553.00
1274.054, 17522.00
1275.128, 17422.00
1276.201, 17404.00
1277.275, 17289.00
1278.348, 17380.00
1279.421, 17392.00
1280.493, 17061.00
1281.566, 17102.00
1282.638, 17073.00
1283.711, 16994.00
1284.783, 16891.00
1285.855, 16868.00
1286.927, 16997.00
1287.998, 17066.00
1289.070, 17038.18
1290.141, 17113.00
1291.212, 17012.00
1292.283, 16862.00
1293.354, 16864.00
1294.425, 16949.00
1295.495, 16933.00
1296.566, 17035.00
1297.636, 17016.00
1298.706, 16812.00
1299.776, 16955.00
1300.845, 16891.00
1301.915, 16975.00
1302.984, 16769.00
1304.054, 16691.00
1305.123, 16818.00
1306.191, 16539.00
1307.260, 16657.00
1308.329, 16632.00
1309.397, 16702.00
1310.465, 16700.00
1311.534, 16638.00
1312.602, 16674.00
1313.669, 16650.00
1314.737, 16667.00
1315.804, 16690.41
1316.872, 16625.00
1317.939, 16733.00
1319.006, 16625.00
1320.073, 16621.00
1321.139, 16697.00
1322.206, 16700.00
1323.272, 16697.00
1324.338, 16741.00
1325.404, 16813.00
1326.470, 16858.00
1327.536, 16821.00
1328.601, 16721.00
1329.667, 16758.19
1330.732, 16906.00
1331.797, 16772.00
1332.862, 16805.00
1333.926, 16862.00
1334.991, 16838.00
1336.055, 16870.37
1337.120, 16921.00
1338.184, 16878.00
1339.248, 16898.00
1340.311, 16888.00
1341.375, 16847.00
1342.438, 16748.00
1343.502, 16876.00
1344.565, 16808.00
1345.628, 16623.17
1346.691, 16705.97
1347.753, 16750.84
1348.816, 16759.80
1349.878, 16625.37
1350.940, 16676.12
1352.002, 16652.65
1353.064, 16626.15
1354.126, 16702.96
1355.187, 16589.38
1356.248, 16664.56
1357.310, 16664.38
1358.371, 16698.70
1359.431, 16658.35
1360.492, 16745.00
1361.553, 16790.00
1362.613, 16996.00
1363.673, 16892.00
1364.733, 17029.00
1365.793, 17001.00
1366.853, 17107.00
1367.912, 17124.00
1368.972, 17173.87
1370.031, 17255.00
1371.090, 17340.00
1372.149, 17283.00
1373.208, 17479.00
1374.267, 17589.00
1375.325, 17595.00
1376.383, 17885.00
1377.441, 17713.00
1378.499, 17757.00
1379.557, 17823.00
1380.615, 17910.00
1381.672, 17916.00
1382.730, 17916.00
1383.787, 18057.00
1384.844, 17946.00
1385.901, 18172.00
1386.957, 18077.00
1388.014, 18038.00
1389.070, 17923.00
1390.126, 18091.00
1391.182, 18197.00
1392.238, 18205.00
1393.294, 18202.00
1394.349, 18108.00
1395.405, 18235.00
1396.460, 18216.00
1397.515, 18281.00
1398.570, 18046.00
1399.625, 18263.00
1400.679, 18105.00
1401.734, 17827.00
1402.788, 17926.00
1403.842, 17786.00
1404.896, 17767.00
1405.950, 17815.00
1407.003, 17696.00
1408.057, 17763.00
1409.110, 17576.00
1410.163, 17690.00
1411.216, 17524.00
1412.269, 17568.00
1413.322, 17520.00
1414.374, 17551.00
1415.427, 17558.00
1416.479, 17361.76
1417.531, 17503.19
1418.583, 17612.87
1419.634, 17692.92
1420.686, 17628.22
1421.737, 17770.84
1422.788, 17842.80
1423.839, 17920.40
1424.890, 18117.64
1425.941, 18119.70
1426.992, 18332.96
1428.042, 18474.23
1429.092, 18627.00
1430.142, 18743.00
1431.192, 19146.00
1432.242, 19233.00
1433.291, 19518.00
1434.341, 19916.00
1435.390, 20191.00
1436.439, 20509.00
1437.488, 20760.00
1438.537, 20987.00
1439.586, 21500.00
1440.634, 22020.00
1441.682, 22223.00
1442.731, 22512.00
1443.779, 22741.00
1444.826, 22942.07
1445.874, 23100.65
1446.922, 23249.00
1447.969, 23285.00
1449.016, 23241.00
1450.063, 23203.00
1451.110, 23225.00
1452.157, 23150.00
1453.203, 23076.00
1454.250, 23247.00
1455.296, 23138.00
1456.342, 23232.00
1457.388, 22820.00
1458.433, 22472.00
1459.479, 22019.00
1460.524, 21514.00
1461.570, 20816.00
1462.615, 20581.00
1463.660, 20178.00
1464.705, 19804.00
1465.749, 19559.00
1466.794, 19357.00
1467.838, 19206.00
1468.882, 19064.00
1469.926, 18809.00
1470.970, 18718.17
1472.013, 18704.46
1473.057, 18652.71
1474.100, 18565.17
1475.143, 18334.22
1476.186, 18288.44
1477.229, 18168.46
1478.272, 18045.44
1479.314, 18025.83
1480.357, 17815.73
1481.399, 17794.48
1482.441, 17697.89
1483.483, 17635.78
1484.525, 17344.00
1485.566, 17426.00
1486.608, 17237.00
1487.649, 17328.00
1488.690, 17020.00
1489.731, 17168.00
1490.771, 17063.00
1491.812, 16954.00
1492.853, 16942.00
1493.893, 16922.00
1494.933, 16816.00
1495.973, 16728.00
1497.013, 16753.00
1498.052, 16871.00
1499.092, 16861.00
1500.131, 16740.00
1501.170, 16627.00
1502.209, 16739.00
1503.248, 16815.00
1504.287, 16784.00
1505.325, 16802.00
1506.363, 16763.00
1507.402, 16694.00
1508.440, 16813.00
1509.478, 16698.00
1510.515, 16778.00
1511.553, 16910.00
1512.590, 16897.00
1513.627, 16968.91
1514.664, 16995.60
1515.701, 16938.00
1516.738, 16972.00
1517.775, 16771.00
1518.811, 16627.00
1519.847, 16798.00
1520.883, 16720.00
1521.919, 16724.00
1522.955, 16801.00
1523.991, 16681.00
1525.026, 16865.00
1526.061, 16853.00
1527.096, 16834.00
1528.131, 16819.00
1529.166, 16865.00
1530.201, 16714.00
1531.235, 16757.00
1532.270, 16793.00
1533.304, 16652.00
1534.338, 16644.00
1535.372, 16697.00
1536.405, 16978.00
1537.439, 16772.00
1538.472, 16789.00
1539.505, 16715.00
1540.538, 16655.00
1541.571, 16787.00
1542.604, 16744.00
1543.637, 16815.00
1544.669, 16812.78
1545.701, 16849.00
1546.733, 16727.00
1547.765, 16750.00
1548.797, 16583.00
1549.829, 16830.00
1550.860, 16622.00
1551.891, 16765.00
1552.922, 16855.00
1553.953, 16826.00
1554.984, 16910.00
1556.015, 16933.00
1557.045, 16791.00
1558.076, 16642.00
1559.106, 16786.00
1560.136, 16780.00
1561.165, 16636.00
1562.195, 16813.00
1563.225, 16794.00
1564.254, 16919.00
1565.283, 16952.00
##END=



