##NAMES=Elbaite
##RRUFFID=R060003
##IDEAL CHEMISTRY=Na(Al_1.5_Li_1.5_)Al_6_(Si_6_O_18_)(BO_3_)_3_(OH)_3_OH
##LOCALITY=Mount Begbie, Revelstoke, British Columbia, Canada
##OWNER=RRUFF
##SOURCE=Bob Downs
##DESCRIPTION=Pink crystal associated with trilithionite, R060004
##STATUS=The identification of this mineral has been confirmed by X-ray diffraction and chemical analysis
##URL=rruff.info/R060003
##MEASURED CHEMISTRY=(Na_0.58_[box]_0.42_)(Al_1.69_Li_1.27_Mn_0.04_)Al_6_(BO_3_)_3_[Si_6_O_18_](OH)_4_
##PIN_ID=L00688
##ORIENTATION=Laser parallel to -a* (-1 0 0). Fiducial mark perpendicular to laser is parallel to -c [0 0 -1]
118.1340, 21269.00
119.3650, 21610.00
120.5960, 21321.00
121.8270, 21442.00
123.0580, 21524.00
124.2880, 21695.00
125.5190, 21730.00
126.7490, 21714.00
127.9790, 22145.00
129.2090, 22254.00
130.4390, 22378.00
131.6680, 22740.00
132.8980, 22849.00
134.1270, 23026.00
135.3560, 23507.00
136.5850, 23546.00
137.8140, 23707.00
139.0430, 23965.00
140.2710, 24178.00
141.5000, 24482.00
142.7280, 24586.00
143.9560, 24562.00
145.1840, 24732.00
146.4120, 24962.00
147.6390, 25128.00
148.8670, 25239.00
150.0940, 25320.00
151.3210, 25648.00
152.5490, 25749.00
153.7750, 25781.00
155.0020, 26019.00
156.2290, 25758.00
157.4550, 25549.00
158.6810, 25669.00
159.9080, 25880.00
161.1340, 25573.00
162.3590, 25541.00
163.5850, 25501.00
164.8110, 25868.00
166.0360, 25910.00
167.2610, 25812.00
168.4860, 25662.00
169.7110, 25518.00
170.9360, 25679.00
172.1610, 25771.00
173.3850, 25591.00
174.6100, 25727.00
175.8340, 25951.00
177.0580, 25959.00
178.2820, 25973.00
179.5050, 26177.00
180.7290, 26118.50
181.9520, 26222.26
183.1760, 26108.00
184.3990, 26310.00
185.6220, 26279.00
186.8450, 26258.00
188.0670, 26444.00
189.2900, 26644.00
190.5120, 26541.00
191.7340, 26484.00
192.9560, 26688.00
194.1780, 26848.00
195.4000, 27073.00
196.6220, 27333.00
197.8430, 27519.00
199.0640, 27759.00
200.2860, 28245.00
201.5070, 28439.00
202.7270, 28852.00
203.9480, 28993.00
205.1690, 29268.00
206.3890, 29832.00
207.6090, 30420.00
208.8290, 31091.00
210.0490, 31835.00
211.2690, 32668.00
212.4890, 33679.00
213.7080, 34874.00
214.9280, 35958.00
216.1470, 36891.00
217.3660, 37794.00
218.5850, 38582.00
219.8030, 39009.00
221.0220, 39035.00
222.2400, 39313.00
223.4590, 38997.00
224.6770, 38790.00
225.8950, 37953.00
227.1120, 37399.00
228.3300, 36508.00
229.5480, 35787.00
230.7650, 35215.00
231.9820, 34614.00
233.1990, 34073.00
234.4160, 33766.00
235.6330, 33739.00
236.8490, 33953.00
238.0660, 34085.00
239.2820, 33980.00
240.4980, 34018.00
241.7140, 34342.00
242.9300, 34152.00
244.1460, 34144.00
245.3610, 34298.00
246.5770, 34036.00
247.7920, 34032.00
249.0070, 33880.00
250.2220, 33488.00
251.4370, 33466.00
252.6510, 33258.00
253.8660, 33101.00
255.0800, 32827.00
256.2940, 32691.00
257.5080, 33102.00
258.7220, 32863.72
259.9360, 33489.00
261.1490, 32928.00
262.3630, 33082.00
263.5760, 33277.00
264.7890, 33303.00
266.0020, 33535.00
267.2150, 33507.00
268.4270, 33692.00
269.6400, 33520.00
270.8520, 33400.00
272.0640, 33366.00
273.2760, 33336.00
274.4880, 33224.00
275.7000, 32865.00
276.9120, 32688.00
278.1230, 32662.00
279.3340, 32210.00
280.5450, 32147.00
281.7560, 32143.00
282.9670, 31896.00
284.1780, 31766.00
285.3880, 31599.74
286.5980, 31403.02
287.8090, 31212.00
289.0190, 31083.00
290.2290, 30894.00
291.4380, 30817.00
292.6480, 30488.00
293.8570, 30400.00
295.0670, 29994.00
296.2760, 29904.00
297.4850, 29650.00
298.6930, 29497.00
299.9020, 29408.00
301.1110, 29574.00
302.3190, 29600.00
303.5270, 29666.00
304.7350, 29800.00
305.9430, 30006.00
307.1510, 30252.00
308.3580, 30260.00
309.5660, 30194.00
310.7730, 30398.00
311.9800, 30496.00
313.1870, 30720.00
314.3940, 30509.00
315.6010, 30408.00
316.8070, 30632.00
318.0130, 30828.00
319.2200, 30808.00
320.4260, 30921.07
321.6310, 30840.00
322.8370, 30972.00
324.0430, 30956.00
325.2480, 31031.00
326.4540, 31141.00
327.6590, 31157.00
328.8640, 31373.00
330.0680, 31196.00
331.2730, 31257.00
332.4780, 31461.00
333.6820, 31513.00
334.8860, 31386.00
336.0900, 31531.00
337.2940, 31449.00
338.4980, 31622.00
339.7010, 31425.00
340.9050, 31907.00
342.1080, 31975.00
343.3110, 31992.00
344.5140, 32008.00
345.7170, 32176.00
346.9200, 32448.00
348.1220, 32746.00
349.3240, 32924.68
350.5270, 33060.00
351.7290, 33302.00
352.9310, 33723.00
354.1320, 33833.00
355.3340, 34448.00
356.5350, 35135.00
357.7370, 35545.00
358.9380, 36131.00
360.1390, 37086.00
361.3400, 38356.00
362.5400, 39519.00
363.7410, 40940.00
364.9410, 42461.00
366.1410, 43702.00
367.3410, 45180.00
368.5410, 46436.00
369.7410, 47704.00
370.9400, 48363.00
372.1400, 48727.00
373.3390, 48440.00
374.5380, 48131.00
375.7370, 47304.00
376.9360, 46417.00
378.1350, 44997.00
379.3330, 43636.00
380.5310, 42288.00
381.7300, 41099.00
382.9280, 40021.00
384.1260, 39155.00
385.3230, 38421.00
386.5210, 38031.00
387.7180, 37474.00
388.9160, 37225.00
390.1130, 36952.00
391.3100, 36756.00
392.5060, 36800.00
393.7030, 36990.00
394.9000, 37022.00
396.0960, 37171.00
397.2920, 37248.62
398.4880, 37317.14
399.6840, 37509.00
400.8800, 37386.00
402.0750, 37740.00
403.2710, 37642.00
404.4660, 37685.00
405.6610, 37617.00
406.8560, 37209.00
408.0510, 37152.00
409.2450, 36841.00
410.4400, 36614.00
411.6340, 36409.00
412.8280, 36120.00
414.0220, 35522.00
415.2160, 35294.00
416.4100, 34720.00
417.6030, 34398.00
418.7970, 33996.00
419.9900, 33586.00
421.1830, 33400.00
422.3760, 33266.00
423.5690, 32902.00
424.7610, 32916.00
425.9540, 32749.00
427.1460, 32515.00
428.3380, 32513.00
429.5300, 32459.00
430.7220, 32491.00
431.9140, 32366.00
433.1050, 32656.00
434.2970, 32481.00
435.4880, 32620.00
436.6790, 32597.00
437.8700, 32537.00
439.0610, 32596.00
440.2510, 32568.00
441.4420, 32719.00
442.6320, 32838.00
443.8220, 32883.80
445.0120, 33044.03
446.2020, 33028.00
447.3910, 33311.00
448.5810, 33365.00
449.7700, 33517.00
450.9600, 33361.00
452.1490, 33323.00
453.3370, 33339.00
454.5260, 33478.00
455.7150, 33192.00
456.9030, 33607.00
458.0910, 33674.00
459.2800, 33518.00
460.4670, 33445.00
461.6550, 33660.00
462.8430, 33769.00
464.0300, 34090.00
465.2180, 34044.00
466.4050, 34349.00
467.5920, 34449.00
468.7790, 34859.00
469.9650, 35184.00
471.1520, 35295.00
472.3380, 35778.00
473.5250, 36068.00
474.7110, 36160.00
475.8970, 36157.00
477.0820, 36389.00
478.2680, 36080.00
479.4540, 36334.00
480.6390, 35985.00
481.8240, 35759.00
483.0090, 35492.00
484.1940, 35182.00
485.3780, 35070.00
486.5630, 34849.00
487.7470, 34614.00
488.9320, 34983.00
490.1160, 34834.00
491.3000, 34816.00
492.4830, 35534.00
493.6670, 35575.00
494.8500, 36117.00
496.0340, 36421.00
497.2170, 37259.00
498.4000, 37960.00
499.5820, 38679.00
500.7650, 39346.00
501.9480, 39951.00
503.1300, 41033.00
504.3120, 41753.00
505.4940, 41957.00
506.6760, 42325.00
507.8580, 42586.00
509.0390, 42665.00
510.2210, 42158.00
511.4020, 41937.00
512.5830, 41859.00
513.7640, 41103.00
514.9450, 40752.00
516.1250, 39944.00
517.3060, 39642.00
518.4860, 39333.00
519.6660, 38845.00
520.8460, 38315.00
522.0260, 37958.00
523.2060, 37652.11
524.3850, 37713.00
525.5650, 37268.00
526.7440, 37080.00
527.9230, 37043.00
529.1020, 36801.00
530.2810, 36793.00
531.4590, 36721.00
532.6380, 36755.00
533.8160, 36640.00
534.9940, 36682.00
536.1720, 36693.00
537.3500, 36857.00
538.5270, 36733.00
539.7050, 36830.00
540.8820, 36352.00
542.0590, 36611.00
543.2360, 36372.00
544.4130, 36447.00
545.5900, 36450.00
546.7660, 36064.00
547.9430, 36308.00
549.1190, 36118.00
550.2950, 35954.00
551.4710, 35931.00
552.6470, 35859.54
553.8220, 36076.00
554.9980, 35797.00
556.1730, 35857.00
557.3480, 35692.00
558.5230, 35850.00
559.6980, 35804.00
560.8730, 35795.00
562.0470, 35564.00
563.2220, 35794.00
564.3960, 35974.00
565.5700, 35601.00
566.7440, 35770.00
567.9170, 35722.00
569.0910, 35836.00
570.2640, 35584.00
571.4380, 35989.00
572.6110, 35716.00
573.7840, 35907.00
574.9570, 35903.00
576.1290, 35827.00
577.3020, 36213.00
578.4740, 36218.00
579.6460, 36259.00
580.8180, 36103.00
581.9900, 36334.00
583.1620, 36026.00
584.3330, 36205.00
585.5040, 35925.00
586.6760, 36337.00
587.8470, 36205.00
589.0180, 36116.00
590.1880, 36190.00
591.3590, 36412.00
592.5290, 36174.00
593.7000, 36325.00
594.8700, 36333.00
596.0400, 36208.00
597.2090, 36355.00
598.3790, 36337.00
599.5490, 36369.00
600.7180, 36424.00
601.8870, 36387.00
603.0560, 36282.00
604.2250, 36431.00
605.3940, 36115.00
606.5620, 36518.00
607.7300, 36701.00
608.8990, 36535.00
610.0670, 36747.00
611.2350, 36744.00
612.4020, 36830.00
613.5700, 36831.00
614.7370, 36743.00
615.9050, 36849.00
617.0720, 37047.00
618.2390, 36875.00
619.4060, 37131.00
620.5720, 37394.00
621.7390, 37252.00
622.9050, 37599.00
624.0710, 37755.00
625.2370, 37831.00
626.4030, 37895.00
627.5690, 38427.00
628.7340, 38265.00
629.9000, 38710.00
631.0650, 39108.00
632.2300, 39290.00
633.3950, 39405.00
634.5600, 39689.00
635.7240, 40267.00
636.8890, 40848.00
638.0530, 40829.00
639.2170, 41081.00
640.3810, 41255.00
641.5450, 41331.00
642.7080, 41311.00
643.8720, 41303.00
645.0350, 41193.00
646.1980, 41197.00
647.3610, 41068.00
648.5240, 41013.00
649.6870, 40833.39
650.8490, 40671.94
652.0120, 40362.00
653.1740, 40241.00
654.3360, 39872.00
655.4980, 39560.00
656.6600, 39423.00
657.8210, 39360.00
658.9830, 38953.00
660.1440, 38850.00
661.3050, 38714.00
662.4660, 38561.00
663.6270, 38408.00
664.7870, 38293.00
665.9480, 38321.00
667.1080, 38221.57
668.2680, 38077.00
669.4280, 38157.00
670.5880, 38126.00
671.7480, 38092.00
672.9070, 37950.00
674.0670, 38202.00
675.2260, 38115.00
676.3850, 38339.00
677.5440, 38203.00
678.7030, 38244.00
679.8610, 38371.00
681.0200, 38197.00
682.1780, 38221.00
683.3360, 38236.00
684.4940, 38477.00
685.6520, 38524.08
686.8090, 38747.00
687.9670, 38834.00
689.1240, 39070.00
690.2810, 39333.00
691.4380, 39518.00
692.5950, 39738.00
693.7520, 40130.00
694.9080, 40633.00
696.0650, 41068.00
697.2210, 41593.00
698.3770, 42373.00
699.5330, 42849.00
700.6880, 43651.00
701.8440, 44652.00
702.9990, 45042.00
704.1550, 45737.00
705.3100, 46273.00
706.4650, 46858.00
707.6190, 47099.00
708.7740, 47218.00
709.9290, 47240.00
711.0830, 47059.00
712.2370, 46527.00
713.3910, 46143.00
714.5450, 45990.00
715.6980, 45093.00
716.8520, 44739.00
718.0050, 44751.00
719.1580, 43949.00
720.3110, 43443.00
721.4640, 43183.00
722.6170, 42560.00
723.7700, 42258.00
724.9220, 42025.00
726.0740, 41848.00
727.2260, 41581.00
728.3780, 41628.00
729.5300, 41280.00
730.6810, 41672.00
731.8330, 41555.00
732.9840, 41653.00
734.1350, 41562.00
735.2860, 41716.00
736.4370, 41788.43
737.5880, 41969.00
738.7380, 42086.00
739.8880, 42424.00
741.0390, 42711.00
742.1890, 42733.00
743.3380, 43383.00
744.4880, 43391.00
745.6380, 43688.00
746.7870, 43781.00
747.9360, 43893.00
749.0850, 43449.00
750.2340, 43724.00
751.3830, 43070.00
752.5310, 43009.00
753.6800, 42919.00
754.8280, 42785.00
755.9760, 42245.00
757.1240, 42660.00
758.2720, 41903.00
759.4190, 42319.00
760.5670, 42039.00
761.7140, 41644.00
762.8610, 41557.00
764.0080, 41504.00
765.1550, 41326.00
766.3020, 41208.00
767.4480, 41047.00
768.5950, 41131.00
769.7410, 40890.00
770.8870, 40782.00
772.0330, 40980.00
773.1780, 41147.00
774.3240, 40937.00
775.4690, 40426.00
776.6140, 40995.00
777.7590, 40614.00
778.9040, 40569.00
780.0490, 40637.00
781.1940, 40705.00
782.3380, 40534.00
783.4820, 40505.00
784.6260, 40492.00
785.7700, 40377.00
786.9140, 40385.00
788.0580, 40382.00
789.2010, 40485.00
790.3450, 40338.00
791.4880, 40249.00
792.6310, 40403.00
793.7730, 40299.00
794.9160, 40544.00
796.0590, 40671.00
797.2010, 40388.00
798.3430, 40612.00
799.4850, 40668.00
800.6270, 40742.00
801.7690, 40842.26
802.9100, 40673.00
804.0520, 40861.00
805.1930, 40937.00
806.3340, 40746.00
807.4750, 41157.00
808.6160, 41095.00
809.7560, 40932.00
810.8970, 41090.00
812.0370, 41192.00
813.1770, 41026.00
814.3170, 41146.00
815.4570, 41122.69
816.5960, 41171.00
817.7360, 41081.00
818.8750, 41251.00
820.0140, 41106.00
821.1530, 41082.00
822.2920, 41169.00
823.4310, 41080.53
824.5690, 41128.62
825.7070, 41060.00
826.8460, 41200.00
827.9840, 41224.00
829.1220, 41348.00
830.2590, 41374.00
831.3970, 41275.00
832.5340, 41141.00
833.6710, 41572.00
834.8080, 41392.00
835.9450, 41292.00
837.0820, 41464.00
838.2190, 41951.00
839.3550, 41304.00
840.4910, 41683.00
841.6270, 41984.00
842.7630, 41644.00
843.8990, 41883.00
845.0350, 42062.00
846.1700, 42189.00
847.3060, 41971.00
848.4410, 41841.00
849.5760, 42039.00
850.7100, 42193.00
851.8450, 42420.00
852.9800, 42283.00
854.1140, 42397.00
855.2480, 42358.00
856.3820, 42315.00
857.5160, 42473.00
858.6500, 42424.00
859.7830, 42515.00
860.9170, 42746.00
862.0500, 42838.00
863.1830, 42674.00
864.3160, 42674.00
865.4480, 42674.00
866.5810, 42798.00
867.7130, 43032.00
868.8460, 42979.00
869.9780, 43026.00
871.1100, 42946.00
872.2410, 42875.00
873.3730, 42904.09
874.5050, 42866.73
875.6360, 42905.00
876.7670, 42972.00
877.8980, 42963.00
879.0290, 43210.00
880.1590, 43155.00
881.2900, 43072.00
882.4200, 43367.00
883.5500, 43425.00
884.6800, 43291.00
885.8100, 43057.00
886.9400, 43324.00
888.0690, 43326.00
889.1990, 43278.00
890.3280, 43350.00
891.4570, 43412.00
892.5860, 43428.00
893.7140, 43378.00
894.8430, 43191.00
895.9710, 43309.00
897.1000, 43266.86
898.2280, 43263.54
899.3560, 43368.00
900.4830, 43373.00
901.6110, 43451.00
902.7380, 43643.00
903.8660, 43559.00
904.9930, 43653.00
906.1200, 43809.00
907.2460, 43875.00
908.3730, 43916.12
909.5000, 44027.16
910.6260, 43958.00
911.7520, 43859.00
912.8780, 43900.25
914.0040, 43966.00
915.1290, 44034.00
916.2550, 44197.00
917.3800, 44354.00
918.5050, 44197.00
919.6300, 44494.00
920.7550, 44222.00
921.8800, 44319.00
923.0040, 44452.00
924.1290, 44492.00
925.2530, 44522.00
926.3770, 44674.00
927.5010, 44729.00
928.6250, 44674.00
929.7480, 44655.00
930.8720, 44662.00
931.9950, 44758.00
933.1180, 44930.00
934.2410, 45111.00
935.3640, 44828.00
936.4860, 45070.00
937.6090, 45250.00
938.7310, 45475.00
939.8530, 45201.00
940.9750, 45367.00
942.0970, 45484.00
943.2180, 45542.00
944.3400, 45822.00
945.4610, 45518.00
946.5820, 46084.00
947.7030, 45779.00
948.8240, 45719.00
949.9450, 46000.00
951.0650, 46077.00
952.1860, 46105.00
953.3060, 46221.00
954.4260, 46459.00
955.5460, 46301.00
956.6650, 46779.00
957.7850, 46633.00
958.9040, 46721.00
960.0230, 46700.00
961.1420, 46809.57
962.2610, 47365.00
963.3800, 47124.00
964.4990, 47319.00
965.6170, 47511.00
966.7350, 47421.00
967.8530, 47658.00
968.9710, 47662.00
970.0890, 48069.00
971.2070, 48205.00
972.3240, 48066.00
973.4410, 47901.00
974.5580, 48242.00
975.6750, 48295.00
976.7920, 48191.00
977.9090, 48496.00
979.0250, 48515.00
980.1410, 48745.00
981.2580, 48692.00
982.3740, 48464.00
983.4890, 48777.00
984.6050, 48779.00
985.7200, 48617.00
986.8360, 48864.00
987.9510, 48827.00
989.0660, 48807.00
990.1810, 48786.00
991.2950, 48676.00
992.4100, 48922.00
993.5240, 49087.00
994.6390, 49065.00
995.7530, 48958.00
996.8660, 48892.00
997.9800, 48955.00
999.0940, 48935.00
1000.207, 49047.00
1001.320, 49031.00
1002.433, 48827.00
1003.546, 48936.42
1004.659, 48966.00
1005.772, 48907.00
1006.884, 49047.00
1007.996, 48924.00
1009.108, 48983.00
1010.220, 49085.00
1011.332, 49299.00
1012.444, 49035.00
1013.555, 49230.00
1014.666, 49356.00
1015.777, 49244.00
1016.888, 49401.00
1017.999, 49210.00
1019.110, 49278.00
1020.220, 49595.00
1021.331, 49479.00
1022.441, 49586.00
1023.551, 49391.00
1024.661, 49444.00
1025.770, 49447.00
1026.880, 49528.00
1027.989, 49879.00
1029.098, 49386.00
1030.207, 49403.00
1031.316, 51279.00
1032.425, 50886.00
1033.533, 50733.00
1034.642, 50963.00
1035.750, 50866.00
1036.858, 50823.00
1037.966, 49886.00
1039.073, 50113.00
1040.181, 49878.00
1041.288, 50334.00
1042.396, 50300.00
1043.503, 50371.00
1044.610, 50865.00
1045.716, 50937.00
1046.823, 51050.00
1047.929, 51162.00
1049.036, 51219.00
1050.142, 51267.00
1051.248, 51177.00
1052.353, 51495.00
1053.459, 51973.00
1054.564, 52171.00
1055.670, 52029.00
1056.775, 52201.00
1057.880, 52135.00
1058.985, 52249.00
1060.089, 52771.00
1061.194, 52482.00
1062.298, 52749.00
1063.402, 52990.00
1064.506, 52942.00
1065.610, 53080.56
1066.713, 52759.00
1067.817, 53014.00
1068.920, 53186.00
1070.023, 52981.00
1071.126, 53243.00
1072.229, 53270.00
1073.332, 53100.00
1074.435, 53196.00
1075.537, 53190.28
1076.639, 53361.00
1077.741, 53247.00
1078.843, 53380.00
1079.945, 53332.00
1081.046, 53290.00
1082.148, 53300.00
1083.249, 53796.00
1084.350, 53486.00
1085.451, 53592.00
1086.551, 53757.00
1087.652, 53533.00
1088.752, 53749.00
1089.853, 53398.00
1090.953, 53615.00
1092.053, 53529.00
1093.152, 53608.00
1094.252, 53601.50
1095.351, 53381.00
1096.451, 53456.00
1097.550, 53237.00
1098.649, 52993.00
1099.748, 53135.00
1100.846, 52908.00
1101.945, 53060.00
1103.043, 53137.00
1104.141, 52583.00
1105.239, 52632.00
1106.337, 52711.00
1107.434, 52294.00
1108.532, 52583.00
1109.629, 52569.00
1110.726, 52342.00
1111.823, 52246.00
1112.920, 52362.00
1114.017, 52281.00
1115.113, 52521.00
1116.210, 52210.00
1117.306, 52420.00
1118.402, 52373.00
1119.498, 52361.00
1120.593, 52354.00
1121.689, 52270.73
1122.784, 52807.00
1123.879, 52223.00
1124.974, 52344.00
1126.069, 52572.00
1127.164, 52093.00
1128.259, 52163.00
1129.353, 51916.00
1130.447, 52322.00
1131.541, 52083.00
1132.635, 51700.00
1133.729, 52139.00
1134.822, 52130.00
1135.916, 52402.00
1137.009, 51899.00
1138.102, 52074.00
1139.195, 52244.00
1140.288, 52012.00
1141.380, 52219.00
1142.473, 52239.00
1143.565, 51978.00
1144.657, 52322.00
1145.749, 52053.00
1146.841, 52146.00
1147.932, 52215.00
1149.024, 52130.00
1150.115, 52121.00
1151.206, 52311.00
1152.297, 52364.00
1153.388, 52222.00
1154.479, 52381.00
1155.569, 52054.00
1156.659, 52210.00
1157.750, 51942.00
1158.839, 52300.00
1159.929, 52412.00
1161.019, 52361.00
1162.108, 52166.00
1163.198, 52062.00
1164.287, 52373.00
1165.376, 52094.00
1166.465, 52386.00
1167.553, 52467.00
1168.642, 52251.00
1169.730, 52713.00
1170.818, 52336.00
1171.906, 52336.00
1172.994, 52659.00
1174.082, 52594.00
1175.170, 52784.00
1176.257, 52896.57
1177.344, 52789.00
1178.431, 53001.00
1179.518, 53052.00
1180.605, 52895.00
1181.691, 52854.00
1182.778, 52913.00
1183.864, 52879.00
1184.950, 53077.00
1186.036, 53020.00
1187.122, 52874.00
1188.207, 52880.00
1189.292, 53078.00
1190.378, 53005.27
1191.463, 53276.00
1192.548, 53081.00
1193.632, 53253.00
1194.717, 53297.00
1195.801, 53100.00
1196.886, 53294.00
1197.970, 53617.00
1199.054, 53528.00
1200.137, 53578.00
1201.221, 53568.00
1202.305, 53611.00
1203.388, 53730.00
1204.471, 53562.00
1205.554, 53745.00
1206.637, 53698.00
1207.719, 54134.00
1208.802, 53845.00
1209.884, 53724.00
1210.966, 54234.00
1212.048, 53934.00
1213.130, 53992.00
1214.212, 54154.00
1215.293, 54323.00
1216.374, 54007.00
1217.456, 54020.00
1218.536, 54460.00
1219.617, 54063.00
1220.698, 54465.00
1221.778, 54570.00
1222.859, 54610.00
1223.939, 54581.00
1225.019, 54450.00
1226.099, 54517.00
1227.178, 54478.00
1228.258, 54534.86
1229.337, 54619.73
1230.417, 54724.00
1231.496, 54785.00
1232.574, 54930.00
1233.653, 54939.00
1234.732, 54976.00
1235.810, 54959.00
1236.888, 54949.00
1237.966, 54887.00
1239.044, 54800.00
1240.122, 55081.00
1241.199, 54925.00
1242.277, 55271.00
1243.354, 55108.00
1244.431, 55196.00
1245.508, 55026.00
1246.585, 55325.00
1247.661, 55151.00
1248.738, 55433.00
1249.814, 55141.00
1250.890, 55388.00
1251.966, 55196.00
1253.042, 55401.00
1254.117, 55426.00
1255.193, 55140.00
1256.268, 55610.00
1257.343, 55172.00
1258.418, 55467.00
1259.493, 55510.00
1260.567, 55474.00
1261.642, 55534.00
1262.716, 55746.00
1263.790, 55572.00
1264.864, 55755.00
1265.938, 56062.00
1267.011, 56038.00
1268.085, 56172.00
1269.158, 55911.00
1270.231, 56114.00
1271.304, 55824.00
1272.377, 56083.00
1273.450, 55965.00
1274.522, 56255.00
1275.594, 56160.00
1276.666, 56211.00
1277.738, 56402.00
1278.810, 56643.00
1279.882, 56229.00
1280.953, 56305.00
1282.025, 56252.00
1283.096, 56558.00
1284.167, 56667.00
1285.238, 56277.00
1286.308, 56774.00
1287.379, 56620.00
1288.449, 56648.00
1289.519, 56831.00
1290.589, 56715.00
1291.659, 57135.00
1292.729, 56953.00
1293.798, 57364.00
1294.868, 56941.00
1295.937, 57025.00
1297.006, 57397.00
1298.075, 57490.00
1299.143, 57679.00
1300.212, 57291.00
1301.280, 57259.00
1302.348, 57319.00
1303.416, 57630.00
1304.484, 57698.00
1305.552, 57735.15
1306.620, 57851.00
1307.687, 57667.00
1308.754, 57841.00
1309.821, 57692.00
1310.888, 57849.00
1311.955, 57835.00
1313.021, 57777.00
1314.088, 57893.00
1315.154, 57790.00
1316.220, 57860.00
1317.286, 57802.00
1318.352, 58051.00
1319.417, 58050.00
1320.483, 58392.00
1321.548, 58285.00
1322.613, 58200.00
1323.678, 58267.00
1324.743, 58036.00
1325.807, 58290.00
1326.872, 58168.00
1327.936, 58551.00
1329.000, 58396.00
1330.064, 58529.00
1331.128, 58653.00
1332.191, 58576.00
1333.255, 58481.00
1334.318, 58420.00
1335.381, 58351.00
1336.444, 58718.00
1337.507, 58766.00
1338.569, 58848.00
1339.632, 58731.00
1340.694, 58714.00
1341.756, 58932.00
1342.818, 58986.00
1343.880, 58896.00
1344.941, 58804.00
1346.003, 58752.00
1347.064, 58746.14
1348.125, 58828.00
1349.186, 58807.72
1350.247, 58870.90
1351.308, 58955.00
1352.368, 59027.00
1353.428, 59067.00
1354.489, 59177.00
1355.549, 59382.00
1356.608, 59392.00
1357.668, 59430.00
1358.727, 59472.00
1359.787, 59483.00
1360.846, 59705.00
1361.905, 59661.00
1362.964, 59697.18
1364.022, 59768.23
1365.081, 59677.00
1366.139, 59748.00
1367.197, 59768.00
1368.255, 59600.00
1369.313, 59852.00
1370.371, 59782.00
1371.428, 59871.00
1372.486, 59839.00
1373.543, 59868.00
1374.600, 59964.00
1375.657, 59974.00
1376.713, 59985.00
1377.770, 59945.00
1378.826, 59918.00
1379.882, 60186.00
1380.938, 60205.00
1381.994, 60315.00
1383.050, 60333.00
1384.106, 60474.00
1385.161, 60491.00
1386.216, 60504.00
1387.271, 60340.00
1388.326, 60731.00
1389.381, 60517.00
1390.435, 60401.00
1391.490, 60705.00
1392.544, 60412.00
1393.598, 60470.00
1394.652, 60754.00
1395.705, 60641.00
1396.759, 60615.00
1397.812, 60816.00
1398.866, 61057.00
1399.919, 60833.00
1400.972, 60847.00
1402.024, 60770.00
1403.077, 60944.00
1404.129, 61007.00
1405.181, 60881.00
1406.233, 61074.00
1407.285, 61090.00
1408.337, 61370.00
1409.389, 61531.00
1410.440, 61049.00
1411.491, 61385.00
1412.542, 61316.00
1413.593, 61219.00
1414.644, 61547.00
1415.695, 61698.00
1416.745, 61540.00
1417.795, 61693.00
1418.845, 61695.00
1419.895, 61599.00
1420.945, 61692.00
1421.995, 61967.00
1423.044, 61541.00
1424.093, 61990.00
1425.142, 62218.00
1426.191, 62146.00
1427.240, 62166.00
1428.289, 62048.00
1429.337, 62295.00
1430.385, 62357.00
1431.433, 62774.00
1432.481, 62541.00
1433.529, 62763.00
1434.577, 62738.00
1435.624, 62894.00
1436.672, 63099.00
1437.719, 63211.00
1438.766, 63295.71
1439.812, 63357.25
1440.859, 63377.00
1441.905, 63328.00
1442.952, 63314.00
1443.998, 63314.97
1445.044, 63365.00
1446.090, 63319.00
1447.135, 63317.00
1448.181, 63339.00
1449.226, 63493.00
1450.271, 63551.00
1451.316, 63397.00
1452.361, 63298.00
1453.405, 63510.00
1454.450, 63591.00
1455.494, 63937.00
1456.538, 63503.00
1457.582, 63890.00
1458.626, 63413.00
1459.670, 63620.00
1460.713, 63900.00
1461.757, 63673.00
1462.800, 63690.00
1463.843, 63630.00
1464.886, 63787.00
1465.928, 63742.03
1466.971, 63671.00
1468.013, 63759.00
1469.055, 63745.00
1470.097, 63738.00
1471.139, 63645.00
1472.181, 63699.86
1473.222, 63796.00
1474.263, 63662.00
1475.305, 63865.00
1476.346, 63637.00
1477.386, 63776.00
1478.427, 63739.00
1479.468, 63961.00
1480.508, 63861.00
1481.548, 63980.00
1482.588, 63650.00
1483.628, 63775.00
1484.668, 63966.00
1485.707, 63651.00
1486.747, 63956.00
1487.786, 63763.00
1488.825, 63653.00
1489.864, 63975.00
1490.902, 63786.00
1491.941, 64039.00
1492.979, 63753.00
1494.017, 63862.00
1495.055, 63979.00
1496.093, 63962.00
1497.131, 63974.00
1498.168, 64195.00
1499.206, 63905.00
1500.243, 63750.00
1501.280, 64415.00
1502.317, 64338.00
1503.354, 64291.00
1504.390, 64385.00
1505.426, 64399.00
1506.463, 64717.00
1507.499, 64474.00
1508.535, 64323.00
1509.570, 64824.00
1510.606, 64682.00
1511.641, 64515.00
1512.676, 64637.00
1513.711, 64675.00
1514.746, 64681.00
1515.781, 64828.00
1516.816, 64728.00
1517.850, 64672.00
1518.884, 64947.00
1519.918, 64670.00
1520.952, 64733.00
1521.986, 64667.00
1523.019, 65081.00
1524.053, 64946.00
1525.086, 65052.00
1526.119, 64910.00
1527.152, 64902.00
1528.185, 64805.00
1529.217, 64934.00
1530.250, 65173.00
1531.282, 65084.00
1532.314, 65053.00
1533.346, 65324.00
1534.377, 65342.00
1535.409, 65193.00
1536.440, 64944.00
1537.472, 65200.00
1538.503, 65265.00
1539.534, 65535.00
1540.564, 65233.00
1541.595, 65378.00
1542.625, 65133.00
1543.656, 65150.00
1544.686, 65163.00
1545.716, 65396.00
1546.745, 65535.00
1547.775, 65535.00
1548.804, 65395.00
1549.834, 65535.00
1550.863, 65535.00
1551.892, 65535.00
1552.920, 65535.00
1553.949, 65535.00
1554.977, 65535.00
1556.006, 65535.00
1557.034, 65535.00
1558.062, 65535.00
1559.089, 65535.00
1560.117, 65535.00
1561.144, 65535.00
1562.172, 65535.00
1563.199, 65535.00
1564.226, 65535.00
1565.252, 65535.00
1566.279, 65535.00
1567.305, 65535.00
1568.332, 65535.00
1569.358, 65535.00
1570.384, 65535.00
1571.409, 65535.00
1572.435, 65535.00
##END=



