##NAMES=Elbaite
##RRUFFID=R060562
##IDEAL CHEMISTRY=Na(Al_1.5_Li_1.5_)Al_6_(Si_6_O_18_)(BO_3_)_3_(OH)_3_OH
##LOCALITY=unknown
##OWNER=RRUFF
##SOURCE=Gemological Institute of America
##DESCRIPTION=Blue colored polished fragment
##STATUS=The identification of this mineral has been confirmed by X-ray diffraction and chemical analysis
##URL=rruff.info/R060562
##MEASURED CHEMISTRY=(Na_0.68_Ca_0.20_[box]_0.12_)(Li_1.20_Al_1.12_Fe^2+^_0.50_Mn_0.18_)Al_6_(BO_3_)_3_[Si_6_O_18_]((OH)_0.80_F_0.20_)_4_
##PIN_ID=M00501
##ORIENTATION=Laser parallel to c* (0 0 1). Fiducial mark perpendicular to laser is parallel to -a [-1 0 0]
118.1340, 12331.00
119.3650, 12492.00
120.5960, 12940.00
121.8270, 13488.00
123.0580, 14133.00
124.2880, 14481.00
125.5190, 14504.00
126.7490, 14790.00
127.9790, 15155.00
129.2090, 15455.00
130.4390, 15577.00
131.6680, 15639.00
132.8980, 15333.00
134.1270, 15071.00
135.3560, 14812.00
136.5850, 14532.00
137.8140, 14461.00
139.0430, 14422.00
140.2710, 14365.00
141.5000, 14109.00
142.7280, 14049.00
143.9560, 14015.00
145.1840, 13899.00
146.4120, 14133.00
147.6390, 14063.00
148.8670, 14211.00
150.0940, 14268.00
151.3210, 14500.00
152.5490, 14355.00
153.7750, 14239.00
155.0020, 14469.00
156.2290, 14414.00
157.4550, 13707.00
158.6810, 13592.00
159.9080, 13434.00
161.1340, 13177.00
162.3590, 13109.00
163.5850, 13007.39
164.8110, 12907.12
166.0360, 12941.00
167.2610, 12785.00
168.4860, 12793.00
169.7110, 12706.00
170.9360, 12614.00
172.1610, 12451.00
173.3850, 12540.00
174.6100, 12464.00
175.8340, 12430.00
177.0580, 12444.00
178.2820, 12549.00
179.5050, 12568.00
180.7290, 12649.63
181.9520, 12681.00
183.1760, 12836.00
184.3990, 13059.00
185.6220, 13233.00
186.8450, 13559.00
188.0670, 13854.00
189.2900, 14312.00
190.5120, 14558.00
191.7340, 15005.00
192.9560, 15334.00
194.1780, 15687.00
195.4000, 16322.00
196.6220, 16452.00
197.8430, 17021.00
199.0640, 17186.00
200.2860, 17443.00
201.5070, 17737.00
202.7270, 17595.00
203.9480, 17554.00
205.1690, 16991.00
206.3890, 16955.00
207.6090, 17135.00
208.8290, 17370.00
210.0490, 17715.00
211.2690, 18610.00
212.4890, 19233.00
213.7080, 20337.00
214.9280, 21446.00
216.1470, 22538.00
217.3660, 23840.00
218.5850, 25586.00
219.8030, 27011.00
221.0220, 28325.00
222.2400, 29755.00
223.4590, 30674.00
224.6770, 31072.00
225.8950, 31143.00
227.1120, 30815.00
228.3300, 30582.00
229.5480, 29880.00
230.7650, 28957.00
231.9820, 28237.00
233.1990, 27557.00
234.4160, 26597.00
235.6330, 25984.00
236.8490, 25138.00
238.0660, 24342.00
239.2820, 23781.00
240.4980, 22999.00
241.7140, 22170.00
242.9300, 21045.00
244.1460, 20340.00
245.3610, 19472.00
246.5770, 18792.00
247.7920, 18136.00
249.0070, 17177.00
250.2220, 16652.00
251.4370, 16063.00
252.6510, 15565.00
253.8660, 14855.00
255.0800, 14555.00
256.2940, 14221.00
257.5080, 14269.00
258.7220, 13691.63
259.9360, 14104.00
261.1490, 12922.00
262.3630, 12469.00
263.5760, 12486.00
264.7890, 12170.00
266.0020, 11938.00
267.2150, 11993.00
268.4270, 11998.00
269.6400, 11879.00
270.8520, 12068.00
272.0640, 11975.00
273.2760, 11849.00
274.4880, 12062.00
275.7000, 12121.00
276.9120, 11968.00
278.1230, 12103.00
279.3340, 12214.00
280.5450, 12191.00
281.7560, 12256.00
282.9670, 12293.00
284.1780, 12457.00
285.3880, 12291.00
286.5980, 12350.00
287.8090, 12440.00
289.0190, 12610.00
290.2290, 12541.00
291.4380, 12552.00
292.6480, 12799.00
293.8570, 12915.00
295.0670, 12919.00
296.2760, 12882.00
297.4850, 13101.31
298.6930, 13241.00
299.9020, 13514.00
301.1110, 13638.00
302.3190, 13891.00
303.5270, 14020.00
304.7350, 14348.00
305.9430, 14802.00
307.1510, 15006.00
308.3580, 15178.00
309.5660, 15376.06
310.7730, 15507.80
311.9800, 15575.00
313.1870, 15736.00
314.3940, 15829.00
315.6010, 15891.00
316.8070, 16159.00
318.0130, 16315.00
319.2200, 16407.00
320.4260, 16786.00
321.6310, 17104.00
322.8370, 17470.89
324.0430, 18009.00
325.2480, 18277.00
326.4540, 18568.00
327.6590, 18807.00
328.8640, 19098.00
330.0680, 19061.00
331.2730, 19213.00
332.4780, 19136.00
333.6820, 19036.00
334.8860, 18786.00
336.0900, 18698.00
337.2940, 18546.00
338.4980, 18406.00
339.7010, 18280.60
340.9050, 18150.79
342.1080, 18001.00
343.3110, 17928.00
344.5140, 17790.00
345.7170, 17710.00
346.9200, 17589.00
348.1220, 17556.00
349.3240, 17542.00
350.5270, 17543.00
351.7290, 17683.00
352.9310, 17656.00
354.1320, 17700.00
355.3340, 18158.00
356.5350, 18417.00
357.7370, 18879.00
358.9380, 19664.00
360.1390, 20201.00
361.3400, 21093.00
362.5400, 22131.00
363.7410, 23226.00
364.9410, 24640.00
366.1410, 26573.00
367.3410, 28476.00
368.5410, 31048.00
369.7410, 34023.00
370.9400, 36777.00
372.1400, 40109.00
373.3390, 43678.00
374.5380, 46769.00
375.7370, 49084.00
376.9360, 49882.00
378.1350, 48850.00
379.3330, 46627.00
380.5310, 43828.00
381.7300, 40409.00
382.9280, 37140.00
384.1260, 34224.00
385.3230, 31865.00
386.5210, 29514.00
387.7180, 27855.00
388.9160, 26342.00
390.1130, 25079.00
391.3100, 24234.00
392.5060, 23360.96
393.7030, 22706.00
394.9000, 22422.00
396.0960, 21990.00
397.2920, 22031.00
398.4880, 21863.00
399.6840, 21781.00
400.8800, 22138.00
402.0750, 22451.00
403.2710, 22545.00
404.4660, 22968.00
405.6610, 23178.00
406.8560, 23508.00
408.0510, 23550.00
409.2450, 23284.00
410.4400, 22770.00
411.6340, 21982.00
412.8280, 20847.00
414.0220, 20138.00
415.2160, 19268.00
416.4100, 18661.00
417.6030, 17795.00
418.7970, 16968.00
419.9900, 16347.00
421.1830, 16172.00
422.3760, 15635.00
423.5690, 15435.00
424.7610, 15215.00
425.9540, 14875.00
427.1460, 14918.00
428.3380, 14625.00
429.5300, 14464.00
430.7220, 14305.00
431.9140, 14283.00
433.1050, 14249.00
434.2970, 14216.00
435.4880, 14164.92
436.6790, 14101.78
437.8700, 14057.00
439.0610, 13971.00
440.2510, 13927.00
441.4420, 13898.00
442.6320, 13930.00
443.8220, 13935.00
445.0120, 13944.00
446.2020, 13949.00
447.3910, 13955.00
448.5810, 13972.99
449.7700, 13865.00
450.9600, 14022.00
452.1490, 14047.00
453.3370, 14097.00
454.5260, 13988.00
455.7150, 14012.00
456.9030, 14258.00
458.0910, 14316.00
459.2800, 14442.00
460.4670, 14511.00
461.6550, 14862.00
462.8430, 15084.00
464.0300, 15324.00
465.2180, 15477.00
466.4050, 15671.00
467.5920, 15684.00
468.7790, 15968.00
469.9650, 15793.00
471.1520, 15814.00
472.3380, 16005.00
473.5250, 15808.00
474.7110, 15604.00
475.8970, 15765.00
477.0820, 15539.00
478.2680, 15520.00
479.4540, 15406.00
480.6390, 15329.00
481.8240, 15293.00
483.0090, 15129.00
484.1940, 15000.00
485.3780, 15026.00
486.5630, 14900.00
487.7470, 15054.00
488.9320, 14980.00
490.1160, 15125.00
491.3000, 15132.00
492.4830, 15168.00
493.6670, 15253.42
494.8500, 15272.00
496.0340, 15352.00
497.2170, 15317.00
498.4000, 15312.00
499.5820, 15264.00
500.7650, 15325.00
501.9480, 15363.00
503.1300, 15268.00
504.3120, 15195.00
505.4940, 15055.00
506.6760, 15038.00
507.8580, 15111.00
509.0390, 14979.00
510.2210, 15019.00
511.4020, 14795.00
512.5830, 14866.00
513.7640, 14824.00
514.9450, 14602.00
516.1250, 14496.00
517.3060, 14290.00
518.4860, 14507.00
519.6660, 14439.00
520.8460, 14324.00
522.0260, 14318.00
523.2060, 14286.00
524.3850, 14395.36
525.5650, 14702.00
526.7440, 14741.00
527.9230, 14908.00
529.1020, 15177.00
530.2810, 15220.00
531.4590, 15420.00
532.6380, 15639.00
533.8160, 15736.00
534.9940, 15793.00
536.1720, 15965.00
537.3500, 16004.62
538.5270, 16139.00
539.7050, 16097.00
540.8820, 16038.00
542.0590, 15986.00
543.2360, 15999.00
544.4130, 15898.00
545.5900, 15832.20
546.7660, 15783.00
547.9430, 15616.00
549.1190, 15540.00
550.2950, 15383.00
551.4710, 15314.00
552.6470, 15203.49
553.8220, 15100.00
554.9980, 14975.00
556.1730, 14820.00
557.3480, 14636.00
558.5230, 14555.00
559.6980, 14178.00
560.8730, 14195.00
562.0470, 13978.00
563.2220, 13672.00
564.3960, 13715.00
565.5700, 13328.00
566.7440, 13432.00
567.9170, 13341.00
569.0910, 13194.00
570.2640, 13139.00
571.4380, 13172.00
572.6110, 13250.00
573.7840, 13239.23
574.9570, 13194.00
576.1290, 13303.00
577.3020, 13329.00
578.4740, 13370.00
579.6460, 13549.00
580.8180, 13485.00
581.9900, 13759.00
583.1620, 13752.00
584.3330, 13843.00
585.5040, 14016.00
586.6760, 14152.00
587.8470, 14116.00
589.0180, 14139.00
590.1880, 14093.00
591.3590, 14087.00
592.5290, 14063.00
593.7000, 13947.00
594.8700, 13805.00
596.0400, 13888.00
597.2090, 13925.00
598.3790, 13789.00
599.5490, 13851.00
600.7180, 13854.00
601.8870, 13557.00
603.0560, 13535.00
604.2250, 13456.00
605.3940, 13353.00
606.5620, 13152.00
607.7300, 12960.04
608.8990, 12610.00
610.0670, 12456.00
611.2350, 12297.00
612.4020, 12033.00
613.5700, 11963.00
614.7370, 11841.00
615.9050, 11685.00
617.0720, 11747.00
618.2390, 11597.00
619.4060, 11617.00
620.5720, 11669.00
621.7390, 11525.00
622.9050, 11599.00
624.0710, 11699.00
625.2370, 11683.00
626.4030, 11729.00
627.5690, 11850.00
628.7340, 11904.00
629.9000, 12063.00
631.0650, 12168.00
632.2300, 12252.00
633.3950, 12413.33
634.5600, 12452.00
635.7240, 12657.00
636.8890, 12817.00
638.0530, 12851.00
639.2170, 12776.00
640.3810, 12737.00
641.5450, 12703.00
642.7080, 12648.00
643.8720, 12512.00
645.0350, 12455.00
646.1980, 12349.08
647.3610, 12131.00
648.5240, 12167.00
649.6870, 12058.00
650.8490, 12004.00
652.0120, 12162.00
653.1740, 12275.00
654.3360, 12202.00
655.4980, 12258.00
656.6600, 12297.00
657.8210, 12336.00
658.9830, 12344.00
660.1440, 12288.00
661.3050, 12259.00
662.4660, 12275.00
663.6270, 12180.00
664.7870, 12228.00
665.9480, 12186.00
667.1080, 12207.00
668.2680, 12178.00
669.4280, 12248.00
670.5880, 12102.00
671.7480, 11997.00
672.9070, 12106.00
674.0670, 11796.00
675.2260, 12095.00
676.3850, 11927.00
677.5440, 11808.00
678.7030, 11849.00
679.8610, 11551.00
681.0200, 11582.00
682.1780, 11498.00
683.3360, 11280.00
684.4940, 11098.00
685.6520, 11199.00
686.8090, 11249.00
687.9670, 11049.00
689.1240, 11159.00
690.2810, 11256.00
691.4380, 11380.00
692.5950, 11571.00
693.7520, 11581.00
694.9080, 11909.00
696.0650, 11948.00
697.2210, 12393.00
698.3770, 12708.00
699.5330, 13002.19
700.6880, 13421.37
701.8440, 13676.00
702.9990, 14145.00
704.1550, 14382.00
705.3100, 14648.00
706.4650, 15145.00
707.6190, 15585.00
708.7740, 16064.00
709.9290, 16432.00
711.0830, 17216.00
712.2370, 17843.00
713.3910, 18874.00
714.5450, 19749.00
715.6980, 21104.00
716.8520, 22288.00
718.0050, 23915.00
719.1580, 25521.00
720.3110, 27751.00
721.4640, 29862.00
722.6170, 32791.00
723.7700, 35399.00
724.9220, 37968.00
726.0740, 40940.00
727.2260, 43123.00
728.3780, 45095.00
729.5300, 45758.00
730.6810, 45901.00
731.8330, 44739.00
732.9840, 42833.00
734.1350, 40671.00
735.2860, 37731.00
736.4370, 35195.00
737.5880, 32832.00
738.7380, 30857.00
739.8880, 28714.00
741.0390, 27176.00
742.1890, 25673.00
743.3380, 24278.00
744.4880, 23087.00
745.6380, 21832.99
746.7870, 20749.00
747.9360, 19698.00
749.0850, 18806.00
750.2340, 18003.00
751.3830, 17171.00
752.5310, 16694.00
753.6800, 16172.00
754.8280, 15602.00
755.9760, 15195.00
757.1240, 14927.00
758.2720, 14577.00
759.4190, 14287.00
760.5670, 14031.00
761.7140, 13666.99
762.8610, 13156.00
764.0080, 12973.00
765.1550, 12663.00
766.3020, 12292.00
767.4480, 12202.00
768.5950, 11784.00
769.7410, 11918.00
770.8870, 11603.00
772.0330, 11420.00
773.1780, 11174.00
774.3240, 11177.00
775.4690, 11070.00
776.6140, 10988.00
777.7590, 10886.00
778.9040, 10718.00
780.0490, 10796.00
781.1940, 10834.00
782.3380, 10660.00
783.4820, 10770.00
784.6260, 10694.00
785.7700, 10721.00
786.9140, 10630.00
788.0580, 10908.00
789.2010, 10851.00
790.3450, 10918.00
791.4880, 10969.00
792.6310, 11055.00
793.7730, 11018.00
794.9160, 11146.00
796.0590, 11404.00
797.2010, 11296.00
798.3430, 11535.00
799.4850, 11441.00
800.6270, 11789.00
801.7690, 11956.00
802.9100, 12050.00
804.0520, 12290.00
805.1930, 12452.00
806.3340, 12301.00
807.4750, 12394.00
808.6160, 12218.00
809.7560, 12239.00
810.8970, 12084.00
812.0370, 11971.00
813.1770, 11926.00
814.3170, 11765.00
815.4570, 11582.00
816.5960, 11456.00
817.7360, 11247.00
818.8750, 11031.00
820.0140, 11150.00
821.1530, 11190.00
822.2920, 11046.00
823.4310, 11134.00
824.5690, 11137.00
825.7070, 11255.00
826.8460, 11285.00
827.9840, 11470.00
829.1220, 11560.00
830.2590, 11702.56
831.3970, 11878.00
832.5340, 11933.00
833.6710, 12129.00
834.8080, 12083.00
835.9450, 11986.00
837.0820, 12087.00
838.2190, 12089.00
839.3550, 12103.00
840.4910, 12039.00
841.6270, 11772.00
842.7630, 11765.00
843.8990, 11427.00
845.0350, 11538.00
846.1700, 11312.00
847.3060, 11349.00
848.4410, 11323.00
849.5760, 11176.00
850.7100, 11297.00
851.8450, 11243.00
852.9800, 11158.00
854.1140, 11291.00
855.2480, 11284.00
856.3820, 11213.00
857.5160, 11246.00
858.6500, 11095.00
859.7830, 11196.00
860.9170, 11122.00
862.0500, 11054.00
863.1830, 10940.00
864.3160, 10905.00
865.4480, 10915.00
866.5810, 10733.00
867.7130, 10827.00
868.8460, 10628.00
869.9780, 10658.00
871.1100, 10517.00
872.2410, 10526.00
873.3730, 10623.00
874.5050, 10430.00
875.6360, 10390.00
876.7670, 10493.00
877.8980, 10289.00
879.0290, 10295.00
880.1590, 10363.00
881.2900, 10326.99
882.4200, 10358.98
883.5500, 10426.00
884.6800, 10318.00
885.8100, 10345.00
886.9400, 10197.00
888.0690, 10125.00
889.1990, 10179.00
890.3280, 10287.00
891.4570, 10104.00
892.5860, 10250.00
893.7140, 10295.00
894.8430, 10174.00
895.9710, 10185.00
897.1000, 10280.00
898.2280, 10277.00
899.3560, 10272.00
900.4830, 10324.00
901.6110, 10254.00
902.7380, 10375.00
903.8660, 10309.00
904.9930, 10319.00
906.1200, 10245.00
907.2460, 10398.00
908.3730, 10224.00
909.5000, 10507.00
910.6260, 10436.00
911.7520, 10426.00
912.8780, 10553.00
914.0040, 10511.00
915.1290, 10600.00
916.2550, 10645.00
917.3800, 10653.00
918.5050, 10700.00
919.6300, 10772.00
920.7550, 10747.00
921.8800, 10842.00
923.0040, 10846.00
924.1290, 10981.00
925.2530, 11108.00
926.3770, 11151.00
927.5010, 11191.00
928.6250, 11363.00
929.7480, 11473.00
930.8720, 11525.00
931.9950, 11522.00
933.1180, 11612.00
934.2410, 11831.00
935.3640, 11723.00
936.4860, 11996.00
937.6090, 11944.00
938.7310, 12232.00
939.8530, 12510.00
940.9750, 12450.38
942.0970, 12902.00
943.2180, 12514.00
944.3400, 12588.00
945.4610, 12736.00
946.5820, 12751.00
947.7030, 12740.00
948.8240, 12756.00
949.9450, 12821.23
951.0650, 12872.48
952.1860, 13003.00
953.3060, 13023.00
954.4260, 13172.00
955.5460, 13220.00
956.6650, 13259.00
957.7850, 13444.00
958.9040, 13663.00
960.0230, 13655.00
961.1420, 13747.00
962.2610, 13702.00
963.3800, 14053.00
964.4990, 14124.00
965.6170, 14230.00
966.7350, 14344.00
967.8530, 14338.00
968.9710, 14577.00
970.0890, 14641.00
971.2070, 14871.00
972.3240, 14977.00
973.4410, 15064.00
974.5580, 15097.94
975.6750, 15046.00
976.7920, 15033.00
977.9090, 14935.00
979.0250, 14858.00
980.1410, 14846.00
981.2580, 14788.00
982.3740, 14665.00
983.4890, 14658.00
984.6050, 14627.00
985.7200, 14353.00
986.8360, 14283.00
987.9510, 14337.00
989.0660, 14305.00
990.1810, 14299.00
991.2950, 14259.00
992.4100, 14181.00
993.5240, 14180.00
994.6390, 14163.00
995.7530, 14329.00
996.8660, 14349.00
997.9800, 14238.00
999.0940, 14258.00
1000.207, 14488.00
1001.320, 14476.00
1002.433, 14536.00
1003.546, 14517.00
1004.659, 14686.00
1005.772, 14787.00
1006.884, 14858.00
1007.996, 15013.00
1009.108, 15014.00
1010.220, 15154.00
1011.332, 15514.00
1012.444, 15722.00
1013.555, 15786.00
1014.666, 16031.00
1015.777, 16257.00
1016.888, 16477.00
1017.999, 16713.00
1019.110, 16739.00
1020.220, 17120.00
1021.331, 17359.00
1022.441, 17372.00
1023.551, 17633.00
1024.661, 17798.00
1025.770, 17735.00
1026.880, 18163.00
1027.989, 18053.00
1029.098, 18091.00
1030.207, 18287.00
1031.316, 18362.00
1032.425, 18481.00
1033.533, 18655.97
1034.642, 18914.00
1035.750, 19047.00
1036.858, 19302.00
1037.966, 19642.00
1039.073, 20078.00
1040.181, 20614.00
1041.288, 21137.00
1042.396, 21803.00
1043.503, 22038.00
1044.610, 22790.00
1045.716, 23301.00
1046.823, 24406.00
1047.929, 25222.00
1049.036, 25967.00
1050.142, 27102.00
1051.248, 28087.00
1052.353, 29379.00
1053.459, 30579.00
1054.564, 31737.00
1055.670, 33148.00
1056.775, 34189.00
1057.880, 35415.00
1058.985, 36362.00
1060.089, 37385.00
1061.194, 37815.00
1062.298, 37865.00
1063.402, 38066.00
1064.506, 37534.00
1065.610, 36577.00
1066.713, 35461.00
1067.817, 33586.00
1068.920, 32028.00
1070.023, 30513.00
1071.126, 28687.00
1072.229, 27038.00
1073.332, 25341.00
1074.435, 23990.00
1075.537, 22493.00
1076.639, 21261.00
1077.741, 20331.00
1078.843, 19548.00
1079.945, 18529.00
1081.046, 17698.00
1082.148, 17445.00
1083.249, 16762.00
1084.350, 16207.00
1085.451, 16028.00
1086.551, 15609.00
1087.652, 15367.00
1088.752, 15150.00
1089.853, 14786.00
1090.953, 14871.00
1092.053, 14456.00
1093.152, 14255.00
1094.252, 14329.00
1095.351, 14133.00
1096.451, 13975.00
1097.550, 13926.00
1098.649, 13839.00
1099.748, 13765.00
1100.846, 13612.00
1101.945, 13521.00
1103.043, 13335.00
1104.141, 13402.00
1105.239, 13297.00
1106.337, 13248.00
1107.434, 13279.00
1108.532, 13181.00
1109.629, 13076.00
1110.726, 12991.00
1111.823, 12979.00
1112.920, 12919.00
1114.017, 12896.00
1115.113, 12899.00
1116.210, 12911.00
1117.306, 12936.00
1118.402, 12913.00
1119.498, 12853.00
1120.593, 12836.00
1121.689, 12771.00
1122.784, 12763.84
1123.879, 12622.00
1124.974, 12737.00
1126.069, 12762.00
1127.164, 12734.00
1128.259, 12620.00
1129.353, 12850.00
1130.447, 12814.00
1131.541, 12766.00
1132.635, 12977.00
1133.729, 12914.00
1134.822, 12968.00
1135.916, 13247.00
1137.009, 13223.00
1138.102, 13235.00
1139.195, 13403.00
1140.288, 13307.00
1141.380, 13463.00
1142.473, 13254.00
1143.565, 13366.00
1144.657, 13170.45
1145.749, 13075.05
1146.841, 12754.00
1147.932, 12824.00
1149.024, 12589.00
1150.115, 12467.00
1151.206, 12309.00
1152.297, 12270.00
1153.388, 12089.00
1154.479, 12133.00
1155.569, 12106.00
1156.659, 11927.00
1157.750, 12000.00
1158.839, 11913.00
1159.929, 11827.00
1161.019, 11859.66
1162.108, 11829.00
1163.198, 11855.00
1164.287, 11853.00
1165.376, 11863.00
1166.465, 11886.00
1167.553, 11853.00
1168.642, 11861.27
1169.730, 11877.00
1170.818, 11849.00
1171.906, 11859.00
1172.994, 11871.00
1174.082, 11933.00
1175.170, 11820.00
1176.257, 11840.00
1177.344, 11710.00
1178.431, 11787.00
1179.518, 11851.00
1180.605, 11812.00
1181.691, 11847.00
1182.778, 11927.00
1183.864, 11920.00
1184.950, 11825.00
1186.036, 11859.00
1187.122, 11823.00
1188.207, 11839.00
1189.292, 11684.00
1190.378, 11760.00
1191.463, 11744.00
1192.548, 11908.00
1193.632, 11809.00
1194.717, 11919.00
1195.801, 11818.00
1196.886, 11905.00
1197.970, 11827.00
1199.054, 11925.00
1200.137, 11947.00
1201.221, 11920.00
1202.305, 11965.00
1203.388, 11970.00
1204.471, 12066.00
1205.554, 12015.00
1206.637, 11924.00
1207.719, 12075.00
1208.802, 11956.00
1209.884, 11933.00
1210.966, 12112.00
1212.048, 12000.35
1213.130, 12015.63
1214.212, 11981.00
1215.293, 11954.00
1216.374, 11971.00
1217.456, 12009.00
1218.536, 11980.00
1219.617, 11977.00
1220.698, 12000.77
1221.778, 11986.00
1222.859, 12032.00
1223.939, 12103.00
1225.019, 12114.00
1226.099, 12146.00
1227.178, 12149.62
1228.258, 12104.00
1229.337, 12139.00
1230.417, 12120.00
1231.496, 12132.00
1232.574, 12061.00
1233.653, 12180.00
1234.732, 12188.00
1235.810, 12240.00
1236.888, 12192.00
1237.966, 12188.00
1239.044, 12266.00
1240.122, 12249.00
1241.199, 12350.00
1242.277, 12300.00
1243.354, 12266.00
1244.431, 12323.00
1245.508, 12377.00
1246.585, 12357.00
1247.661, 12375.00
1248.738, 12441.00
1249.814, 12449.00
1250.890, 12488.00
1251.966, 12431.00
1253.042, 12317.00
1254.117, 12470.00
1255.193, 12359.00
1256.268, 12451.00
1257.343, 12379.00
1258.418, 12330.00
1259.493, 12590.00
1260.567, 12559.00
1261.642, 12759.00
1262.716, 12565.00
1263.790, 12842.00
1264.864, 12847.00
1265.938, 12765.00
1267.011, 12782.00
1268.085, 12839.00
1269.158, 12780.00
1270.231, 12840.96
1271.304, 12762.00
1272.377, 12895.00
1273.450, 12829.00
1274.522, 12827.00
1275.594, 12992.00
1276.666, 12843.00
1277.738, 12924.00
1278.810, 12941.00
1279.882, 13103.00
1280.953, 13000.00
1282.025, 12930.00
1283.096, 12924.00
1284.167, 13078.00
1285.238, 13012.00
1286.308, 13103.00
1287.379, 13034.00
1288.449, 13084.00
1289.519, 13164.00
1290.589, 13096.00
1291.659, 12951.00
1292.729, 13177.00
1293.798, 13187.00
1294.868, 12864.00
1295.937, 12956.00
1297.006, 13183.00
1298.075, 12981.00
1299.143, 13129.00
1300.212, 13182.00
1301.280, 13142.00
1302.348, 13158.00
1303.416, 13187.00
1304.484, 13102.00
1305.552, 13301.00
1306.620, 13171.00
1307.687, 13296.00
1308.754, 13249.00
1309.821, 13322.00
1310.888, 13354.00
1311.955, 13380.00
1313.021, 13424.00
1314.088, 13420.38
1315.154, 13446.73
1316.220, 13406.00
1317.286, 13490.00
1318.352, 13470.88
1319.417, 13528.94
1320.483, 13483.00
1321.548, 13501.00
1322.613, 13574.00
1323.678, 13492.00
1324.743, 13390.00
1325.807, 13327.00
1326.872, 13532.00
1327.936, 13431.00
1329.000, 13693.00
1330.064, 13542.00
1331.128, 13437.00
1332.191, 13618.00
1333.255, 13609.00
1334.318, 13564.02
1335.381, 13459.00
1336.444, 13498.00
1337.507, 13474.54
1338.569, 13720.00
1339.632, 13502.00
1340.694, 13603.00
1341.756, 13596.00
1342.818, 13555.00
1343.880, 13766.00
1344.941, 13686.00
1346.003, 13628.00
1347.064, 13497.00
1348.125, 13625.00
1349.186, 13467.00
1350.247, 13698.00
1351.308, 13638.00
1352.368, 13465.00
1353.428, 13719.00
1354.489, 13609.00
1355.549, 13710.00
1356.608, 13668.00
1357.668, 13482.00
1358.727, 13740.00
1359.787, 13758.00
1360.846, 13837.00
1361.905, 13756.00
1362.964, 13792.00
1364.022, 13887.00
1365.081, 13750.00
1366.139, 13823.00
1367.197, 13997.00
1368.255, 13871.00
1369.313, 13922.00
1370.371, 13765.00
1371.428, 13957.00
1372.486, 14129.00
1373.543, 14430.00
1374.600, 14170.00
1375.657, 14623.00
1376.713, 14677.00
1377.770, 14724.00
1378.826, 14977.00
1379.882, 14954.00
1380.938, 14852.00
1381.994, 15116.00
1383.050, 15131.00
1384.106, 15170.00
1385.161, 15044.00
1386.216, 15048.00
1387.271, 15122.00
1388.326, 15156.00
1389.381, 15136.00
1390.435, 15088.39
1391.490, 15033.00
1392.544, 14905.00
1393.598, 14833.00
1394.652, 14741.00
1395.705, 14800.00
1396.759, 14549.00
1397.812, 14618.00
1398.866, 14514.00
1399.919, 14578.00
1400.972, 14484.00
1402.024, 14515.00
1403.077, 14465.12
1404.129, 14405.52
1405.181, 14358.00
1406.233, 14305.00
1407.285, 14239.00
1408.337, 14227.00
1409.389, 14171.00
1410.440, 14183.00
1411.491, 14158.44
1412.542, 14187.00
1413.593, 14133.00
1414.644, 14183.00
1415.695, 14164.00
1416.745, 14070.00
1417.795, 14064.00
1418.845, 14162.00
1419.895, 14113.00
1420.945, 14108.00
1421.995, 14102.00
1423.044, 14206.00
1424.093, 14033.00
1425.142, 14014.00
1426.191, 14216.00
1427.240, 14133.00
1428.289, 14029.00
1429.337, 13971.00
1430.385, 14059.00
1431.433, 14087.00
1432.481, 14055.00
1433.529, 14159.00
1434.577, 14138.00
1435.624, 14108.00
1436.672, 14155.00
1437.719, 14108.00
1438.766, 14105.00
1439.812, 14031.00
1440.859, 14031.00
1441.905, 13921.00
1442.952, 13784.00
1443.998, 13777.00
1445.044, 13761.10
1446.090, 13924.00
1447.135, 13829.00
1448.181, 13792.08
1449.226, 13800.00
1450.271, 13581.00
1451.316, 13765.00
1452.361, 13807.00
1453.405, 13969.00
1454.450, 13876.00
1455.494, 13893.00
1456.538, 13833.00
1457.582, 13748.00
1458.626, 13832.00
1459.670, 13858.00
1460.713, 13862.00
1461.757, 13791.00
1462.800, 13828.00
1463.843, 13787.00
1464.886, 13796.00
1465.928, 13799.95
1466.971, 13787.00
1468.013, 13786.00
1469.055, 13729.00
1470.097, 13678.00
1471.139, 13684.00
1472.181, 13695.03
1473.222, 13691.00
1474.263, 13733.00
1475.305, 13793.00
1476.346, 13715.00
1477.386, 13796.00
1478.427, 13721.00
1479.468, 13756.35
1480.508, 13799.00
1481.548, 13825.00
1482.588, 13845.78
1483.628, 13920.33
1484.668, 14021.00
1485.707, 13829.00
1486.747, 14054.00
1487.786, 13824.00
1488.825, 13883.00
1489.864, 13917.00
1490.902, 13907.00
1491.941, 13923.00
1492.979, 13956.00
1494.017, 13980.00
1495.055, 13877.00
1496.093, 13915.00
1497.131, 13930.00
1498.168, 13922.00
1499.206, 13940.79
1500.243, 13956.51
1501.280, 13974.00
1502.317, 13984.00
1503.354, 14059.00
1504.390, 14046.34
1505.426, 14112.39
1506.463, 14095.00
1507.499, 14238.00
1508.535, 14187.00
1509.570, 14278.00
1510.606, 14278.00
1511.641, 14232.00
1512.676, 14382.00
1513.711, 14304.00
1514.746, 14238.00
1515.781, 14411.00
1516.816, 14369.00
1517.850, 14275.00
1518.884, 14469.00
1519.918, 14559.00
1520.952, 14256.00
1521.986, 14370.00
1523.019, 14487.00
1524.053, 14490.00
1525.086, 14465.00
1526.119, 14412.00
1527.152, 14457.34
1528.185, 14376.00
1529.217, 14504.00
1530.250, 14500.00
1531.282, 14472.00
1532.314, 14419.00
1533.346, 14404.00
1534.377, 14345.00
1535.409, 14432.00
1536.440, 14326.00
1537.472, 14424.00
1538.503, 14278.00
1539.534, 14462.00
1540.564, 14550.00
1541.595, 14399.00
1542.625, 14349.00
1543.656, 14357.00
1544.686, 14492.00
1545.716, 14498.00
1546.745, 14471.00
1547.775, 14458.00
1548.804, 14642.00
1549.834, 14608.00
1550.863, 14748.00
1551.892, 14638.00
1552.920, 14649.00
1553.949, 14828.00
1554.977, 14938.00
1556.006, 14688.00
1557.034, 14700.00
1558.062, 14563.00
1559.089, 14437.00
1560.117, 14422.00
1561.144, 14630.00
1562.172, 14541.00
1563.199, 14788.00
1564.226, 14491.00
1565.252, 14596.00
1566.279, 14557.00
1567.305, 14702.00
1568.332, 14627.00
1569.358, 14559.00
1570.384, 14415.00
1571.409, 14615.00
1572.435, 14629.00
##END=



