##NAMES=Elbaite
##RRUFFID=R060560
##IDEAL CHEMISTRY=Na(Al_1.5_Li_1.5_)Al_6_(Si_6_O_18_)(BO_3_)_3_(OH)_3_OH
##LOCALITY=California, USA
##OWNER=RRUFF
##SOURCE=Gemological Institute of America
##DESCRIPTION=Pink fragment
##STATUS=The identification of this mineral has been confirmed by X-ray diffraction and chemical analysis
##URL=rruff.info/R060560
##MEASURED CHEMISTRY=(Na_0.56_Ca_0.12_[box]_0.32_)(Al_1.60_Li_1.40_)Al_6_(BO_3_)_3_[Si_6_O_18_](OH)_4_
##PIN_ID=L01799
##ORIENTATION=Laser parallel to -a* (-1 0 0). Fiducial mark perpendicular to laser is parallel to -c [0 0 -1]
118.1340, 5840.000
119.3650, 5659.000
120.5960, 5593.000
121.8270, 5583.000
123.0580, 5608.000
124.2880, 5598.000
125.5190, 5448.000
126.7490, 5501.000
127.9790, 5514.000
129.2090, 5605.000
130.4390, 5581.000
131.6680, 5661.000
132.8980, 5732.000
134.1270, 5729.000
135.3560, 5861.000
136.5850, 5897.000
137.8140, 6019.000
139.0430, 6222.000
140.2710, 6194.000
141.5000, 6371.000
142.7280, 6542.000
143.9560, 6625.000
145.1840, 6716.000
146.4120, 7000.000
147.6390, 7113.000
148.8670, 7264.000
150.0940, 7326.000
151.3210, 7425.000
152.5490, 7425.000
153.7750, 7304.000
155.0020, 7300.000
156.2290, 7179.000
157.4550, 7066.000
158.6810, 6988.000
159.9080, 6884.000
161.1340, 7016.000
162.3590, 7041.000
163.5850, 6997.000
164.8110, 7073.000
166.0360, 7144.000
167.2610, 7079.000
168.4860, 7190.000
169.7110, 7278.000
170.9360, 7263.000
172.1610, 7297.000
173.3850, 7177.000
174.6100, 7253.000
175.8340, 7165.000
177.0580, 7310.000
178.2820, 7217.000
179.5050, 7369.000
180.7290, 7250.000
181.9520, 7365.000
183.1760, 7547.000
184.3990, 7542.000
185.6220, 7658.000
186.8450, 7824.000
188.0670, 8040.000
189.2900, 8316.000
190.5120, 8544.000
191.7340, 8835.000
192.9560, 9204.000
194.1780, 9478.000
195.4000, 10152.00
196.6220, 10447.00
197.8430, 11056.00
199.0640, 11635.00
200.2860, 12175.00
201.5070, 12789.00
202.7270, 13588.00
203.9480, 14168.00
205.1690, 14827.00
206.3890, 15804.00
207.6090, 16898.00
208.8290, 18240.00
210.0490, 19589.00
211.2690, 21174.00
212.4890, 23120.00
213.7080, 25310.00
214.9280, 27486.00
216.1470, 30644.00
217.3660, 33428.00
218.5850, 36389.00
219.8030, 39022.00
221.0220, 41353.00
222.2400, 42587.00
223.4590, 43044.00
224.6770, 42193.00
225.8950, 40321.00
227.1120, 38502.00
228.3300, 35740.00
229.5480, 33612.00
230.7650, 31587.00
231.9820, 29855.00
233.1990, 28737.00
234.4160, 27899.00
235.6330, 27086.00
236.8490, 26872.00
238.0660, 26981.00
239.2820, 27208.00
240.4980, 27607.00
241.7140, 28080.00
242.9300, 28494.00
244.1460, 28753.00
245.3610, 28916.00
246.5770, 28781.00
247.7920, 28433.34
249.0070, 27966.00
250.2220, 27112.00
251.4370, 26227.00
252.6510, 25084.00
253.8660, 23748.00
255.0800, 23126.00
256.2940, 22181.00
257.5080, 21622.00
258.7220, 21377.00
259.9360, 20755.00
261.1490, 20505.00
262.3630, 20116.00
263.5760, 19764.00
264.7890, 20019.00
266.0020, 20041.00
267.2150, 19945.00
268.4270, 20210.00
269.6400, 20102.00
270.8520, 20164.00
272.0640, 19891.00
273.2760, 19615.00
274.4880, 19493.00
275.7000, 18822.00
276.9120, 18225.00
278.1230, 17331.00
279.3340, 16583.00
280.5450, 15678.00
281.7560, 14892.00
282.9670, 13980.00
284.1780, 13154.00
285.3880, 12554.00
286.5980, 11883.00
287.8090, 11412.00
289.0190, 11054.00
290.2290, 10729.00
291.4380, 10397.00
292.6480, 10251.00
293.8570, 10077.00
295.0670, 10009.00
296.2760, 10081.00
297.4850, 10018.00
298.6930, 10003.00
299.9020, 10094.00
301.1110, 10136.00
302.3190, 10228.00
303.5270, 10443.00
304.7350, 10768.00
305.9430, 10848.00
307.1510, 11280.00
308.3580, 11737.00
309.5660, 11994.00
310.7730, 12468.00
311.9800, 12914.00
313.1870, 13307.00
314.3940, 13475.00
315.6010, 13415.00
316.8070, 13182.00
318.0130, 12825.00
319.2200, 12731.00
320.4260, 12339.00
321.6310, 12057.00
322.8370, 11957.00
324.0430, 11942.00
325.2480, 11741.00
326.4540, 11777.00
327.6590, 11733.00
328.8640, 11701.00
330.0680, 11747.00
331.2730, 11595.00
332.4780, 11621.00
333.6820, 11476.00
334.8860, 11417.00
336.0900, 11424.69
337.2940, 11459.00
338.4980, 11469.00
339.7010, 11635.00
340.9050, 11758.00
342.1080, 11788.00
343.3110, 12026.00
344.5140, 12253.00
345.7170, 12489.00
346.9200, 12700.00
348.1220, 13000.00
349.3240, 13504.00
350.5270, 13988.00
351.7290, 14272.00
352.9310, 14795.00
354.1320, 15645.00
355.3340, 16464.00
356.5350, 17403.00
357.7370, 18522.00
358.9380, 19790.00
360.1390, 21340.00
361.3400, 23457.00
362.5400, 25661.00
363.7410, 28364.00
364.9410, 31704.00
366.1410, 35212.00
367.3410, 39081.00
368.5410, 43210.00
369.7410, 47723.00
370.9400, 52130.00
372.1400, 55351.00
373.3390, 56967.00
374.5380, 57303.00
375.7370, 55878.00
376.9360, 53144.00
378.1350, 49318.00
379.3330, 45484.00
380.5310, 41512.00
381.7300, 37244.00
382.9280, 34023.00
384.1260, 31056.00
385.3230, 28799.00
386.5210, 27077.00
387.7180, 26074.00
388.9160, 25003.00
390.1130, 24081.00
391.3100, 23726.00
392.5060, 23407.00
393.7030, 23447.00
394.9000, 23680.00
396.0960, 23977.00
397.2920, 24316.00
398.4880, 24529.00
399.6840, 24847.00
400.8800, 25460.00
402.0750, 25932.00
403.2710, 26086.00
404.4660, 26154.00
405.6610, 26259.00
406.8560, 26122.00
408.0510, 25833.00
409.2450, 25479.00
410.4400, 24700.00
411.6340, 23867.00
412.8280, 23030.00
414.0220, 21530.00
415.2160, 20656.00
416.4100, 19367.00
417.6030, 18140.00
418.7970, 17046.00
419.9900, 15901.00
421.1830, 15095.00
422.3760, 14386.00
423.5690, 13423.00
424.7610, 12791.00
425.9540, 12432.00
427.1460, 12131.00
428.3380, 11633.00
429.5300, 11457.00
430.7220, 11265.00
431.9140, 10852.00
433.1050, 10750.00
434.2970, 10651.00
435.4880, 10490.00
436.6790, 10426.00
437.8700, 10325.00
439.0610, 10135.00
440.2510, 10127.00
441.4420, 9933.000
442.6320, 9972.000
443.8220, 9812.000
445.0120, 9764.000
446.2020, 9879.000
447.3910, 9634.000
448.5810, 9566.000
449.7700, 9635.000
450.9600, 9671.000
452.1490, 9561.000
453.3370, 9522.000
454.5260, 9392.000
455.7150, 9382.570
456.9030, 9339.000
458.0910, 9390.000
459.2800, 9412.000
460.4670, 9502.000
461.6550, 9434.000
462.8430, 9628.000
464.0300, 9469.000
465.2180, 9536.000
466.4050, 9612.000
467.5920, 9589.000
468.7790, 9615.000
469.9650, 9458.000
471.1520, 9451.000
472.3380, 9491.000
473.5250, 9499.000
474.7110, 9486.000
475.8970, 9490.512
477.0820, 9450.000
478.2680, 9466.000
479.4540, 9407.000
480.6390, 9400.000
481.8240, 9510.000
483.0090, 9675.000
484.1940, 9762.000
485.3780, 9853.000
486.5630, 10032.00
487.7470, 10131.73
488.9320, 10281.00
490.1160, 10364.00
491.3000, 10564.00
492.4830, 10606.00
493.6670, 10803.00
494.8500, 11222.00
496.0340, 11386.00
497.2170, 11478.00
498.4000, 11956.00
499.5820, 12106.00
500.7650, 12367.00
501.9480, 12796.00
503.1300, 13386.00
504.3120, 13548.00
505.4940, 13938.00
506.6760, 14251.00
507.8580, 14551.00
509.0390, 14892.00
510.2210, 15068.00
511.4020, 15380.00
512.5830, 15429.00
513.7640, 15660.00
514.9450, 15858.00
516.1250, 15976.00
517.3060, 16006.00
518.4860, 16140.00
519.6660, 15673.00
520.8460, 15631.00
522.0260, 15174.00
523.2060, 14847.00
524.3850, 14577.00
525.5650, 14094.00
526.7440, 13821.00
527.9230, 13437.00
529.1020, 13358.00
530.2810, 13195.00
531.4590, 13227.00
532.6380, 13035.00
533.8160, 12916.00
534.9940, 12957.00
536.1720, 12766.00
537.3500, 12634.00
538.5270, 12477.00
539.7050, 12474.00
540.8820, 12271.00
542.0590, 12078.00
543.2360, 11907.00
544.4130, 11666.00
545.5900, 11569.00
546.7660, 11365.00
547.9430, 11306.00
549.1190, 11119.00
550.2950, 10987.00
551.4710, 11040.00
552.6470, 10974.00
553.8220, 10906.00
554.9980, 10856.00
556.1730, 10859.00
557.3480, 10789.04
558.5230, 10693.00
559.6980, 10676.00
560.8730, 10556.00
562.0470, 10452.00
563.2220, 10476.00
564.3960, 10487.00
565.5700, 10431.00
566.7440, 10425.00
567.9170, 10359.00
569.0910, 10410.00
570.2640, 10414.00
571.4380, 10415.00
572.6110, 10545.00
573.7840, 10576.00
574.9570, 10530.00
576.1290, 10539.00
577.3020, 10636.00
578.4740, 10760.00
579.6460, 10806.00
580.8180, 10888.23
581.9900, 10970.00
583.1620, 10977.00
584.3330, 10951.00
585.5040, 10934.00
586.6760, 10904.00
587.8470, 11154.00
589.0180, 11080.00
590.1880, 11015.00
591.3590, 11152.00
592.5290, 11024.00
593.7000, 10985.00
594.8700, 11012.00
596.0400, 10994.00
597.2090, 10960.00
598.3790, 10947.00
599.5490, 10976.00
600.7180, 10930.95
601.8870, 11008.00
603.0560, 10897.00
604.2250, 10881.00
605.3940, 10906.00
606.5620, 10936.00
607.7300, 11068.00
608.8990, 10880.00
610.0670, 11010.00
611.2350, 10960.00
612.4020, 11129.00
613.5700, 11128.00
614.7370, 11145.00
615.9050, 11320.00
617.0720, 11336.00
618.2390, 11458.00
619.4060, 11826.00
620.5720, 11808.00
621.7390, 11935.00
622.9050, 12208.00
624.0710, 12596.00
625.2370, 12922.00
626.4030, 13499.00
627.5690, 13927.00
628.7340, 14314.00
629.9000, 14980.00
631.0650, 15659.00
632.2300, 16506.00
633.3950, 17294.00
634.5600, 17930.00
635.7240, 18647.00
636.8890, 19435.00
638.0530, 19807.00
639.2170, 20209.00
640.3810, 20307.00
641.5450, 20113.00
642.7080, 20126.00
643.8720, 19554.00
645.0350, 19286.00
646.1980, 18728.00
647.3610, 18311.00
648.5240, 18032.00
649.6870, 17544.00
650.8490, 17355.00
652.0120, 17005.00
653.1740, 16964.00
654.3360, 16563.00
655.4980, 16257.00
656.6600, 15888.00
657.8210, 15699.00
658.9830, 15117.00
660.1440, 14914.00
661.3050, 14410.00
662.4660, 13896.00
663.6270, 13661.00
664.7870, 13178.00
665.9480, 12757.00
667.1080, 12444.00
668.2680, 12068.00
669.4280, 11921.00
670.5880, 11647.00
671.7480, 11577.00
672.9070, 11452.11
674.0670, 11350.00
675.2260, 11310.00
676.3850, 11277.00
677.5440, 11217.00
678.7030, 11327.00
679.8610, 11129.00
681.0200, 11301.00
682.1780, 11329.00
683.3360, 11564.00
684.4940, 11425.00
685.6520, 11657.00
686.8090, 11752.00
687.9670, 12067.00
689.1240, 12436.00
690.2810, 12843.00
691.4380, 13389.00
692.5950, 13606.00
693.7520, 14150.00
694.9080, 14956.00
696.0650, 15624.00
697.2210, 16504.00
698.3770, 17598.00
699.5330, 18814.00
700.6880, 20274.00
701.8440, 21874.00
702.9990, 23708.00
704.1550, 25412.00
705.3100, 27223.00
706.4650, 28867.00
707.6190, 30232.00
708.7740, 31457.00
709.9290, 32039.00
711.0830, 32014.00
712.2370, 31715.00
713.3910, 31105.00
714.5450, 29846.00
715.6980, 28471.00
716.8520, 26860.00
718.0050, 24969.00
719.1580, 23356.00
720.3110, 21829.00
721.4640, 20372.00
722.6170, 18825.00
723.7700, 17929.00
724.9220, 16686.00
726.0740, 16209.00
727.2260, 15643.00
728.3780, 15052.00
729.5300, 14686.00
730.6810, 14261.00
731.8330, 14274.00
732.9840, 14118.00
734.1350, 13993.00
735.2860, 13981.00
736.4370, 14091.00
737.5880, 14212.00
738.7380, 14153.00
739.8880, 14488.00
741.0390, 14629.00
742.1890, 14944.00
743.3380, 15117.00
744.4880, 15286.00
745.6380, 15575.00
746.7870, 15527.00
747.9360, 15475.00
749.0850, 15315.00
750.2340, 15046.00
751.3830, 14609.00
752.5310, 14180.00
753.6800, 13647.00
754.8280, 13326.00
755.9760, 12861.00
757.1240, 12306.00
758.2720, 11936.00
759.4190, 11536.00
760.5670, 11177.00
761.7140, 11036.00
762.8610, 10605.00
764.0080, 10535.00
765.1550, 10254.00
766.3020, 9969.000
767.4480, 9765.000
768.5950, 9675.000
769.7410, 9632.000
770.8870, 9487.000
772.0330, 9424.000
773.1780, 9330.000
774.3240, 9229.000
775.4690, 9217.182
776.6140, 9164.000
777.7590, 9180.000
778.9040, 9199.000
780.0490, 9165.000
781.1940, 9129.000
782.3380, 9192.000
783.4820, 9144.328
784.6260, 9185.000
785.7700, 9115.000
786.9140, 9197.000
788.0580, 9184.000
789.2010, 9132.000
790.3450, 9138.000
791.4880, 9167.000
792.6310, 9256.000
793.7730, 9161.000
794.9160, 9165.000
796.0590, 9077.000
797.2010, 9127.000
798.3430, 9138.000
799.4850, 9020.000
800.6270, 8871.000
801.7690, 8949.000
802.9100, 8817.000
804.0520, 8740.000
805.1930, 8850.000
806.3340, 8802.000
807.4750, 8741.000
808.6160, 8711.000
809.7560, 8615.000
810.8970, 8608.000
812.0370, 8751.000
813.1770, 8619.000
814.3170, 8653.000
815.4570, 8607.000
816.5960, 8600.000
817.7360, 8544.000
818.8750, 8608.000
820.0140, 8554.000
821.1530, 8659.000
822.2920, 8530.000
823.4310, 8584.000
824.5690, 8565.000
825.7070, 8617.000
826.8460, 8552.000
827.9840, 8597.000
829.1220, 8644.000
830.2590, 8556.000
831.3970, 8520.000
832.5340, 8635.000
833.6710, 8637.000
834.8080, 8654.000
835.9450, 8698.000
837.0820, 8622.000
838.2190, 8606.000
839.3550, 8556.000
840.4910, 8627.000
841.6270, 8598.578
842.7630, 8659.000
843.8990, 8642.000
845.0350, 8656.000
846.1700, 8738.000
847.3060, 8678.000
848.4410, 8820.000
849.5760, 8708.000
850.7100, 8784.000
851.8450, 8738.000
852.9800, 8775.000
854.1140, 8791.000
855.2480, 8812.000
856.3820, 8844.000
857.5160, 8857.000
858.6500, 8885.465
859.7830, 8906.081
860.9170, 8933.000
862.0500, 8970.000
863.1830, 8991.000
864.3160, 9070.000
865.4480, 8969.000
866.5810, 8931.000
867.7130, 9030.000
868.8460, 9072.000
869.9780, 9077.000
871.1100, 8962.000
872.2410, 9203.000
873.3730, 9104.000
874.5050, 9198.000
875.6360, 9229.000
876.7670, 9156.000
877.8980, 9177.000
879.0290, 9093.000
880.1590, 9230.000
881.2900, 9257.000
882.4200, 9134.000
883.5500, 9117.000
884.6800, 9274.000
885.8100, 9152.000
886.9400, 9224.000
888.0690, 9125.000
889.1990, 9155.000
890.3280, 9201.000
891.4570, 9227.000
892.5860, 9163.000
893.7140, 9278.000
894.8430, 9261.000
895.9710, 9314.000
897.1000, 9224.000
898.2280, 9205.000
899.3560, 9281.000
900.4830, 9332.000
901.6110, 9304.000
902.7380, 9262.000
903.8660, 9238.000
904.9930, 9192.000
906.1200, 9355.000
907.2460, 9257.000
908.3730, 9213.000
909.5000, 9352.000
910.6260, 9324.000
911.7520, 9195.000
912.8780, 9364.000
914.0040, 9388.000
915.1290, 9306.000
916.2550, 9432.000
917.3800, 9352.000
918.5050, 9291.000
919.6300, 9379.000
920.7550, 9402.000
921.8800, 9486.000
923.0040, 9487.000
924.1290, 9532.058
925.2530, 9470.000
926.3770, 9583.000
927.5010, 9623.000
928.6250, 9631.000
929.7480, 9722.000
930.8720, 9617.000
931.9950, 9618.000
933.1180, 9682.000
934.2410, 9782.000
935.3640, 9743.000
936.4860, 9889.000
937.6090, 9925.000
938.7310, 10104.00
939.8530, 10028.00
940.9750, 10119.00
942.0970, 10250.00
943.2180, 10319.00
944.3400, 10275.00
945.4610, 10602.00
946.5820, 10515.00
947.7030, 10788.00
948.8240, 10834.00
949.9450, 10842.00
951.0650, 10993.00
952.1860, 11250.00
953.3060, 11205.00
954.4260, 11531.00
955.5460, 11761.00
956.6650, 11971.00
957.7850, 12126.59
958.9040, 12411.00
960.0230, 12375.00
961.1420, 12555.00
962.2610, 12760.00
963.3800, 12982.00
964.4990, 13062.00
965.6170, 13238.00
966.7350, 13387.00
967.8530, 13606.00
968.9710, 13569.00
970.0890, 13691.00
971.2070, 13823.00
972.3240, 14000.00
973.4410, 14096.00
974.5580, 13856.00
975.6750, 14170.00
976.7920, 14029.00
977.9090, 14175.00
979.0250, 14157.00
980.1410, 14016.00
981.2580, 14227.00
982.3740, 14136.00
983.4890, 13998.00
984.6050, 14084.00
985.7200, 14181.00
986.8360, 14105.50
987.9510, 14199.84
989.0660, 14240.76
990.1810, 14231.12
991.2950, 14019.55
992.4100, 14068.75
993.5240, 14013.46
994.6390, 13953.85
995.7530, 14039.78
996.8660, 13857.61
997.9800, 13861.00
999.0940, 13761.00
1000.207, 13797.00
1001.320, 13677.00
1002.433, 13651.00
1003.546, 13572.00
1004.659, 13631.00
1005.772, 13382.00
1006.884, 13339.00
1007.996, 13308.00
1009.108, 13081.00
1010.220, 13073.00
1011.332, 12989.00
1012.444, 12950.00
1013.555, 12890.00
1014.666, 12848.00
1015.777, 12839.00
1016.888, 12746.00
1017.999, 12600.00
1019.110, 12650.00
1020.220, 12745.00
1021.331, 12519.00
1022.441, 12634.00
1023.551, 12733.00
1024.661, 12529.00
1025.770, 12421.00
1026.880, 12507.00
1027.989, 12376.00
1029.098, 12351.00
1030.207, 12201.00
1031.316, 12333.00
1032.425, 12039.00
1033.533, 12222.00
1034.642, 12151.00
1035.750, 12091.00
1036.858, 12028.00
1037.966, 11973.00
1039.073, 11966.00
1040.181, 12061.00
1041.288, 12031.00
1042.396, 12003.00
1043.503, 12181.00
1044.610, 12024.00
1045.716, 12130.00
1046.823, 12056.00
1047.929, 12144.00
1049.036, 12082.00
1050.142, 12154.00
1051.248, 12206.00
1052.353, 12178.00
1053.459, 12395.00
1054.564, 12477.00
1055.670, 12437.00
1056.775, 12523.00
1057.880, 12588.00
1058.985, 12658.00
1060.089, 12843.34
1061.194, 12947.94
1062.298, 13086.00
1063.402, 13248.00
1064.506, 13379.00
1065.610, 13513.00
1066.713, 13684.00
1067.817, 13961.00
1068.920, 14092.00
1070.023, 14491.00
1071.126, 14710.00
1072.229, 14980.00
1073.332, 15159.00
1074.435, 15352.00
1075.537, 15687.00
1076.639, 15758.00
1077.741, 15779.00
1078.843, 16267.00
1079.945, 16185.00
1081.046, 16510.00
1082.148, 16719.00
1083.249, 17072.00
1084.350, 17188.00
1085.451, 17366.00
1086.551, 17683.00
1087.652, 17549.00
1088.752, 18108.00
1089.853, 18128.00
1090.953, 17986.00
1092.053, 18280.00
1093.152, 18065.00
1094.252, 18045.00
1095.351, 17887.00
1096.451, 17866.00
1097.550, 17656.00
1098.649, 17502.00
1099.748, 17070.00
1100.846, 16867.00
1101.945, 16632.00
1103.043, 16329.00
1104.141, 16120.00
1105.239, 15819.00
1106.337, 15470.00
1107.434, 15174.00
1108.532, 15030.00
1109.629, 14871.00
1110.726, 14591.00
1111.823, 14419.00
1112.920, 14245.94
1114.017, 13870.00
1115.113, 13975.00
1116.210, 13778.00
1117.306, 13744.00
1118.402, 13795.00
1119.498, 13637.00
1120.593, 13482.00
1121.689, 13398.00
1122.784, 13361.00
1123.879, 13200.00
1124.974, 12979.00
1126.069, 12939.00
1127.164, 12746.00
1128.259, 12551.00
1129.353, 12425.00
1130.447, 12349.00
1131.541, 12243.00
1132.635, 12248.00
1133.729, 12107.62
1134.822, 12025.55
1135.916, 11896.00
1137.009, 11809.00
1138.102, 11739.03
1139.195, 11641.00
1140.288, 11579.00
1141.380, 11574.00
1142.473, 11518.00
1143.565, 11344.00
1144.657, 11404.00
1145.749, 11251.00
1146.841, 11205.44
1147.932, 11203.09
1149.024, 11107.00
1150.115, 11109.00
1151.206, 11110.00
1152.297, 10925.00
1153.388, 10843.00
1154.479, 10773.00
1155.569, 10707.00
1156.659, 10718.00
1157.750, 10551.00
1158.839, 10456.00
1159.929, 10520.00
1161.019, 10585.00
1162.108, 10471.00
1163.198, 10474.00
1164.287, 10453.49
1165.376, 10521.00
1166.465, 10406.00
1167.553, 10407.00
1168.642, 10391.00
1169.730, 10450.00
1170.818, 10483.00
1171.906, 10438.00
1172.994, 10475.00
1174.082, 10310.00
1175.170, 10346.00
1176.257, 10368.00
1177.344, 10401.00
1178.431, 10403.00
1179.518, 10370.00
1180.605, 10417.00
1181.691, 10410.00
1182.778, 10302.00
1183.864, 10444.00
1184.950, 10404.00
1186.036, 10412.00
1187.122, 10473.00
1188.207, 10535.00
1189.292, 10262.00
1190.378, 10505.00
1191.463, 10344.00
1192.548, 10417.00
1193.632, 10479.00
1194.717, 10614.00
1195.801, 10391.00
1196.886, 10384.00
1197.970, 10456.00
1199.054, 10412.00
1200.137, 10435.00
1201.221, 10421.00
1202.305, 10445.00
1203.388, 10369.00
1204.471, 10478.00
1205.554, 10468.00
1206.637, 10570.00
1207.719, 10497.00
1208.802, 10448.00
1209.884, 10464.00
1210.966, 10491.00
1212.048, 10524.00
1213.130, 10540.00
1214.212, 10553.00
1215.293, 10512.00
1216.374, 10492.00
1217.456, 10468.00
1218.536, 10421.57
1219.617, 10402.80
1220.698, 10405.00
1221.778, 10364.00
1222.859, 10510.00
1223.939, 10541.00
1225.019, 10536.00
1226.099, 10527.00
1227.178, 10591.00
1228.258, 10476.00
1229.337, 10510.00
1230.417, 10443.00
1231.496, 10611.00
1232.574, 10630.00
1233.653, 10621.00
1234.732, 10565.00
1235.810, 10577.00
1236.888, 10629.00
1237.966, 10604.00
1239.044, 10658.11
1240.122, 10688.00
1241.199, 10726.00
1242.277, 10690.00
1243.354, 10695.00
1244.431, 10681.82
1245.508, 10680.95
1246.585, 10696.81
1247.661, 10706.00
1248.738, 10731.00
1249.814, 10776.00
1250.890, 10791.28
1251.966, 10698.00
1253.042, 10803.00
1254.117, 10694.00
1255.193, 10657.00
1256.268, 10825.00
1257.343, 10713.00
1258.418, 10738.00
1259.493, 10812.00
1260.567, 10701.00
1261.642, 10843.00
1262.716, 10648.00
1263.790, 10735.00
1264.864, 10754.00
1265.938, 10835.00
1267.011, 10872.00
1268.085, 10892.00
1269.158, 10728.00
1270.231, 10806.00
1271.304, 10847.00
1272.377, 10862.00
1273.450, 10929.00
1274.522, 10933.00
1275.594, 10941.86
1276.666, 10929.00
1277.738, 10895.00
1278.810, 10862.00
1279.882, 10755.00
1280.953, 10998.00
1282.025, 10961.00
1283.096, 10951.00
1284.167, 10896.00
1285.238, 10927.00
1286.308, 10911.00
1287.379, 10917.00
1288.449, 11087.00
1289.519, 11024.00
1290.589, 10899.00
1291.659, 10996.00
1292.729, 10890.00
1293.798, 10952.00
1294.868, 11040.00
1295.937, 11036.00
1297.006, 10940.00
1298.075, 11053.00
1299.143, 10983.00
1300.212, 11026.00
1301.280, 10920.00
1302.348, 11003.00
1303.416, 11022.00
1304.484, 11051.00
1305.552, 11065.00
1306.620, 11027.00
1307.687, 10994.00
1308.754, 11209.00
1309.821, 11183.00
1310.888, 11130.00
1311.955, 11066.00
1313.021, 11095.44
1314.088, 11119.00
1315.154, 11140.00
1316.220, 11121.00
1317.286, 11120.00
1318.352, 11227.00
1319.417, 11274.00
1320.483, 11246.00
1321.548, 11257.00
1322.613, 11190.00
1323.678, 11192.33
1324.743, 11094.00
1325.807, 11180.00
1326.872, 11141.00
1327.936, 11169.00
1329.000, 11198.00
1330.064, 11251.00
1331.128, 11129.00
1332.191, 11135.00
1333.255, 11258.00
1334.318, 11118.00
1335.381, 11218.00
1336.444, 11195.00
1337.507, 11173.00
1338.569, 11302.00
1339.632, 11278.00
1340.694, 11285.00
1341.756, 11182.00
1342.818, 11271.00
1343.880, 11151.00
1344.941, 11147.10
1346.003, 11307.00
1347.064, 11108.00
1348.125, 11246.00
1349.186, 11281.00
1350.247, 11325.00
1351.308, 11309.00
1352.368, 11317.14
1353.428, 11299.00
1354.489, 11289.00
1355.549, 11315.00
1356.608, 11311.00
1357.668, 11337.00
1358.727, 11414.00
1359.787, 11460.00
1360.846, 11373.00
1361.905, 11347.00
1362.964, 11445.00
1364.022, 11388.00
1365.081, 11387.00
1366.139, 11511.00
1367.197, 11324.00
1368.255, 11425.00
1369.313, 11408.00
1370.371, 11435.00
1371.428, 11457.00
1372.486, 11448.00
1373.543, 11612.00
1374.600, 11533.00
1375.657, 11291.00
1376.713, 11481.00
1377.770, 11345.00
1378.826, 11484.00
1379.882, 11398.00
1380.938, 11509.00
1381.994, 11604.00
1383.050, 11537.00
1384.106, 11532.00
1385.161, 11552.00
1386.216, 11602.00
1387.271, 11693.00
1388.326, 11566.00
1389.381, 11663.00
1390.435, 11603.00
1391.490, 11554.00
1392.544, 11677.00
1393.598, 11479.00
1394.652, 11765.00
1395.705, 11909.00
1396.759, 11787.00
1397.812, 11841.00
1398.866, 11698.00
1399.919, 11823.00
1400.972, 11778.00
1402.024, 11873.00
1403.077, 11856.00
1404.129, 11957.00
1405.181, 11993.00
1406.233, 11988.66
1407.285, 11930.00
1408.337, 11953.00
1409.389, 11962.00
1410.440, 11879.00
1411.491, 11928.00
1412.542, 11882.00
1413.593, 11880.00
1414.644, 11815.00
1415.695, 11914.00
1416.745, 11973.00
1417.795, 11913.00
1418.845, 11883.00
1419.895, 11917.29
1420.945, 11880.00
1421.995, 11922.00
1423.044, 11918.00
1424.093, 11853.00
1425.142, 11765.00
1426.191, 11857.00
1427.240, 11841.00
1428.289, 12003.00
1429.337, 11807.00
1430.385, 11815.00
1431.433, 11978.00
1432.481, 11922.00
1433.529, 11955.00
1434.577, 11924.00
1435.624, 11791.00
1436.672, 11868.00
1437.719, 12003.00
1438.766, 11863.00
1439.812, 11869.00
1440.859, 11889.00
1441.905, 11789.00
1442.952, 11814.00
1443.998, 11922.00
1445.044, 11798.00
1446.090, 11868.00
1447.135, 11950.00
1448.181, 11989.00
1449.226, 11821.00
1450.271, 11972.00
1451.316, 11953.00
1452.361, 11959.00
1453.405, 12071.00
1454.450, 12090.00
1455.494, 12055.00
1456.538, 12205.00
1457.582, 12150.00
1458.626, 12032.00
1459.670, 12218.00
1460.713, 12338.00
1461.757, 12264.00
1462.800, 12351.00
1463.843, 12371.00
1464.886, 12275.00
1465.928, 12248.00
1466.971, 12321.00
1468.013, 12209.00
1469.055, 12226.00
1470.097, 12331.00
1471.139, 12220.00
1472.181, 12137.00
1473.222, 12233.00
1474.263, 11983.00
1475.305, 11949.00
1476.346, 12114.00
1477.386, 12016.00
1478.427, 11895.00
1479.468, 11948.00
1480.508, 12152.00
1481.548, 11971.00
1482.588, 11969.00
1483.628, 12084.00
1484.668, 12019.00
1485.707, 11960.00
1486.747, 11969.00
1487.786, 11948.00
1488.825, 11916.00
1489.864, 12014.00
1490.902, 12108.00
1491.941, 12000.00
1492.979, 12050.00
1494.017, 12022.00
1495.055, 11987.00
1496.093, 12022.00
1497.131, 12072.00
1498.168, 12081.84
1499.206, 12126.00
1500.243, 12151.00
1501.280, 12215.00
1502.317, 12247.85
1503.354, 12265.63
1504.390, 12225.00
1505.426, 12282.00
1506.463, 12167.00
1507.499, 12142.00
1508.535, 12271.00
1509.570, 12201.00
1510.606, 12290.00
1511.641, 12384.00
1512.676, 12226.00
1513.711, 12256.00
1514.746, 12414.00
1515.781, 12302.00
1516.816, 12338.00
1517.850, 12363.00
1518.884, 12342.92
1519.918, 12399.90
1520.952, 12332.00
1521.986, 12437.00
1523.019, 12338.00
1524.053, 12250.00
1525.086, 12512.00
1526.119, 12363.00
1527.152, 12388.00
1528.185, 12467.00
1529.217, 12283.00
1530.250, 12346.00
1531.282, 12268.00
1532.314, 12449.00
1533.346, 12404.00
1534.377, 12386.00
1535.409, 12360.00
1536.440, 12333.18
1537.472, 12432.00
1538.503, 12310.00
1539.534, 12377.00
1540.564, 12417.00
1541.595, 12369.00
1542.625, 12410.00
1543.656, 12481.00
1544.686, 12397.00
1545.716, 12400.00
1546.745, 12247.00
1547.775, 12404.00
1548.804, 12278.00
1549.834, 12396.00
1550.863, 12335.00
1551.892, 12387.00
1552.920, 12269.00
1553.949, 12456.00
1554.977, 12462.00
1556.006, 12381.00
1557.034, 12420.00
1558.062, 12292.00
1559.089, 12441.00
1560.117, 12335.00
1561.144, 12380.00
1562.172, 12434.00
1563.199, 12421.00
1564.226, 12489.00
1565.252, 12447.00
1566.279, 12380.00
1567.305, 12457.00
1568.332, 12447.00
1569.358, 12495.00
1570.384, 12314.00
1571.409, 13645.00
1572.435, 13352.00
##END=



