##NAMES=Elbaite
##RRUFFID=R060631
##IDEAL CHEMISTRY=Na(Al_1.5_Li_1.5_)Al_6_(Si_6_O_18_)(BO_3_)_3_(OH)_3_OH
##LOCALITY=unknown
##OWNER=RRUFF
##SOURCE=Gemological Institute of America
##DESCRIPTION=Pink polished fragment
##STATUS=The identification of this mineral is confirmed by single-crystal X-ray diffraction and chemical analysis.
##URL=rruff.info/R060631
##MEASURED CHEMISTRY=(Na_0.55_Ca_0.34_[box]_0.11_)(Li_1.53_Al_1.30_Mn_0.14_Fe^2+^_0.03_)Al_6.00_(BO_3_)_3_[Si_6.00_O_18_]((OH)_0.82_F_0.18_)_4_
##PIN_ID=L01326
##ORIENTATION=Laser parallel to -c* (0 0 -1). Fiducial mark perpendicular to laser is parallel to b [0 1 0]
113.2080, 11395.00
114.4400, 11782.00
115.6710, 11737.00
116.9030, 11781.00
118.1340, 12147.00
119.3650, 12335.00
120.5960, 12604.00
121.8270, 12947.00
123.0580, 13232.00
124.2880, 13442.00
125.5190, 13664.31
126.7490, 13848.75
127.9790, 13998.00
129.2090, 14083.00
130.4390, 14241.00
131.6680, 14171.00
132.8980, 13997.00
134.1270, 13916.00
135.3560, 13629.00
136.5850, 13393.00
137.8140, 13094.00
139.0430, 12880.00
140.2710, 12696.00
141.5000, 12504.00
142.7280, 12377.00
143.9560, 12442.00
145.1840, 12317.00
146.4120, 12623.00
147.6390, 12629.00
148.8670, 12931.00
150.0940, 13244.00
151.3210, 13246.00
152.5490, 13067.00
153.7750, 12952.00
155.0020, 12884.00
156.2290, 12764.00
157.4550, 12599.00
158.6810, 12394.00
159.9080, 12092.00
161.1340, 11980.00
162.3590, 11889.85
163.5850, 11821.35
164.8110, 11852.00
166.0360, 11855.00
167.2610, 11866.00
168.4860, 11865.56
169.7110, 11810.00
170.9360, 11826.00
172.1610, 11807.00
173.3850, 11732.00
174.6100, 11849.00
175.8340, 11949.00
177.0580, 12003.00
178.2820, 12208.00
179.5050, 12175.00
180.7290, 12238.00
181.9520, 12340.00
183.1760, 12481.00
184.3990, 12697.31
185.6220, 13139.00
186.8450, 13259.00
188.0670, 13615.00
189.2900, 14001.00
190.5120, 14202.00
191.7340, 14526.00
192.9560, 14987.00
194.1780, 15181.00
195.4000, 15421.00
196.6220, 15815.00
197.8430, 16062.00
199.0640, 16480.00
200.2860, 16751.00
201.5070, 17270.00
202.7270, 17351.00
203.9480, 17350.00
205.1690, 17396.00
206.3890, 17953.00
207.6090, 18685.00
208.8290, 19353.00
210.0490, 20254.00
211.2690, 21478.00
212.4890, 22899.00
213.7080, 24140.00
214.9280, 25814.00
216.1470, 27374.00
217.3660, 29437.00
218.5850, 31431.00
219.8030, 33336.00
221.0220, 34673.00
222.2400, 35503.00
223.4590, 35689.00
224.6770, 34533.00
225.8950, 33105.00
227.1120, 31504.00
228.3300, 30030.00
229.5480, 28846.00
230.7650, 27462.00
231.9820, 26960.00
233.1990, 25971.00
234.4160, 25951.00
235.6330, 25496.00
236.8490, 25408.00
238.0660, 25206.00
239.2820, 25235.00
240.4980, 25100.00
241.7140, 24829.00
242.9300, 24413.00
244.1460, 23966.00
245.3610, 23218.00
246.5770, 22492.00
247.7920, 21632.00
249.0070, 20981.00
250.2220, 19851.00
251.4370, 19232.00
252.6510, 18542.00
253.8660, 18022.00
255.0800, 17405.00
256.2940, 17348.00
257.5080, 16899.42
258.7220, 16544.10
259.9360, 16402.00
261.1490, 15961.00
262.3630, 15712.00
263.5760, 15685.00
264.7890, 15448.00
266.0020, 15541.00
267.2150, 15675.00
268.4270, 15743.00
269.6400, 15865.00
270.8520, 15979.00
272.0640, 15918.00
273.2760, 16022.00
274.4880, 15886.00
275.7000, 16004.00
276.9120, 16073.00
278.1230, 16107.00
279.3340, 16085.00
280.5450, 16046.00
281.7560, 16155.00
282.9670, 16293.00
284.1780, 16201.00
285.3880, 16269.00
286.5980, 15978.00
287.8090, 15804.00
289.0190, 15594.00
290.2290, 15463.00
291.4380, 15226.00
292.6480, 14965.14
293.8570, 14615.00
295.0670, 14392.00
296.2760, 14447.00
297.4850, 14205.00
298.6930, 14303.00
299.9020, 14562.00
301.1110, 14671.00
302.3190, 15068.00
303.5270, 15474.00
304.7350, 15849.00
305.9430, 16130.00
307.1510, 16600.00
308.3580, 16872.00
309.5660, 17234.00
310.7730, 17481.00
311.9800, 17642.00
313.1870, 18002.00
314.3940, 18070.00
315.6010, 18480.00
316.8070, 18743.00
318.0130, 19092.00
319.2200, 19527.00
320.4260, 20228.00
321.6310, 20733.00
322.8370, 21413.00
324.0430, 22035.00
325.2480, 22510.00
326.4540, 22996.00
327.6590, 23372.00
328.8640, 23552.00
330.0680, 23418.00
331.2730, 23452.00
332.4780, 23251.00
333.6820, 23045.00
334.8860, 22743.00
336.0900, 22534.00
337.2940, 22149.00
338.4980, 21984.00
339.7010, 21743.00
340.9050, 21526.18
342.1080, 21348.00
343.3110, 21233.00
344.5140, 21238.00
345.7170, 21242.09
346.9200, 21295.00
348.1220, 21334.00
349.3240, 21419.00
350.5270, 21614.00
351.7290, 21926.00
352.9310, 22175.00
354.1320, 22717.00
355.3340, 23269.00
356.5350, 24089.00
357.7370, 24590.00
358.9380, 25488.00
360.1390, 26687.00
361.3400, 27700.00
362.5400, 29229.00
363.7410, 30326.00
364.9410, 31978.00
366.1410, 33413.00
367.3410, 35586.00
368.5410, 37268.00
369.7410, 39703.00
370.9400, 42083.00
372.1400, 44584.00
373.3390, 47041.00
374.5380, 48982.00
375.7370, 50660.00
376.9360, 51230.00
378.1350, 50462.00
379.3330, 48567.00
380.5310, 45981.00
381.7300, 42839.00
382.9280, 39882.00
384.1260, 37034.00
385.3230, 34532.00
386.5210, 32362.00
387.7180, 30772.00
388.9160, 29341.00
390.1130, 28178.00
391.3100, 27438.00
392.5060, 26885.00
393.7030, 26466.00
394.9000, 26436.00
396.0960, 26176.00
397.2920, 26879.00
398.4880, 27040.00
399.6840, 26712.00
400.8800, 27189.00
402.0750, 27125.00
403.2710, 27490.00
404.4660, 27637.00
405.6610, 27846.00
406.8560, 27759.00
408.0510, 27612.00
409.2450, 27276.90
410.4400, 26995.00
411.6340, 26148.00
412.8280, 25312.00
414.0220, 24388.00
415.2160, 23057.00
416.4100, 22001.00
417.6030, 21259.00
418.7970, 20350.00
419.9900, 19511.00
421.1830, 18781.00
422.3760, 18253.00
423.5690, 17663.00
424.7610, 17244.00
425.9540, 16942.00
427.1460, 16876.00
428.3380, 16649.00
429.5300, 16737.00
430.7220, 16566.00
431.9140, 16695.00
433.1050, 16750.00
434.2970, 16806.00
435.4880, 16845.00
436.6790, 17038.00
437.8700, 17092.00
439.0610, 17158.00
440.2510, 17305.00
441.4420, 17553.00
442.6320, 17541.00
443.8220, 17529.00
445.0120, 17650.00
446.2020, 17593.00
447.3910, 17658.00
448.5810, 17603.00
449.7700, 17774.00
450.9600, 17639.00
452.1490, 17708.00
453.3370, 17513.00
454.5260, 17546.00
455.7150, 17471.00
456.9030, 17550.00
458.0910, 17392.00
459.2800, 17642.00
460.4670, 17535.00
461.6550, 17890.00
462.8430, 17731.00
464.0300, 18033.00
465.2180, 17950.00
466.4050, 18027.00
467.5920, 18151.00
468.7790, 18080.00
469.9650, 17992.00
471.1520, 17881.00
472.3380, 17805.00
473.5250, 17682.00
474.7110, 17569.00
475.8970, 17454.00
477.0820, 17239.00
478.2680, 17231.00
479.4540, 16994.00
480.6390, 16959.00
481.8240, 16885.00
483.0090, 16926.00
484.1940, 16772.00
485.3780, 16587.00
486.5630, 16542.00
487.7470, 16508.00
488.9320, 16651.00
490.1160, 16487.00
491.3000, 16616.00
492.4830, 16706.00
493.6670, 16595.00
494.8500, 16835.00
496.0340, 17036.00
497.2170, 17107.00
498.4000, 17450.00
499.5820, 17484.00
500.7650, 17775.00
501.9480, 18044.00
503.1300, 18408.00
504.3120, 18770.00
505.4940, 19083.00
506.6760, 19416.00
507.8580, 19553.00
509.0390, 19813.00
510.2210, 19931.00
511.4020, 20137.00
512.5830, 20328.00
513.7640, 20364.00
514.9450, 20339.00
516.1250, 20321.00
517.3060, 20081.00
518.4860, 20104.00
519.6660, 19861.00
520.8460, 19540.00
522.0260, 19484.00
523.2060, 19467.00
524.3850, 19334.00
525.5650, 19360.00
526.7440, 19687.00
527.9230, 19947.00
529.1020, 20283.00
530.2810, 20738.00
531.4590, 21238.00
532.6380, 21590.00
533.8160, 22063.00
534.9940, 22376.00
536.1720, 22751.00
537.3500, 23089.00
538.5270, 23269.00
539.7050, 23455.70
540.8820, 23198.00
542.0590, 23626.00
543.2360, 23481.00
544.4130, 23496.00
545.5900, 23571.00
546.7660, 23581.00
547.9430, 23655.00
549.1190, 23407.00
550.2950, 23166.00
551.4710, 23381.00
552.6470, 23114.00
553.8220, 22763.00
554.9980, 22312.00
556.1730, 22071.00
557.3480, 21541.00
558.5230, 21132.00
559.6980, 20466.00
560.8730, 20161.00
562.0470, 19233.00
563.2220, 19014.00
564.3960, 18467.00
565.5700, 18053.00
566.7440, 17461.00
567.9170, 17250.00
569.0910, 16782.00
570.2640, 16427.00
571.4380, 16253.00
572.6110, 15831.00
573.7840, 15746.00
574.9570, 15508.00
576.1290, 15481.00
577.3020, 15194.00
578.4740, 15206.00
579.6460, 15123.00
580.8180, 15190.00
581.9900, 14993.00
583.1620, 14991.00
584.3330, 15077.00
585.5040, 14855.00
586.6760, 14855.00
587.8470, 14518.00
589.0180, 14814.00
590.1880, 14642.00
591.3590, 14467.00
592.5290, 14468.00
593.7000, 14296.00
594.8700, 14329.00
596.0400, 14106.00
597.2090, 13923.00
598.3790, 14058.00
599.5490, 14063.00
600.7180, 13922.00
601.8870, 13751.00
603.0560, 13751.00
604.2250, 13562.00
605.3940, 13394.00
606.5620, 13412.00
607.7300, 13504.00
608.8990, 13318.00
610.0670, 13196.00
611.2350, 13121.00
612.4020, 13058.38
613.5700, 13088.00
614.7370, 13029.00
615.9050, 13042.00
617.0720, 13037.00
618.2390, 13213.00
619.4060, 13013.00
620.5720, 13180.00
621.7390, 13345.00
622.9050, 13200.00
624.0710, 13474.00
625.2370, 13385.00
626.4030, 14072.00
627.5690, 14884.00
628.7340, 14609.00
629.9000, 14525.93
631.0650, 13365.00
632.2300, 13587.00
633.3950, 13550.00
634.5600, 13499.00
635.7240, 13682.00
636.8890, 13641.00
638.0530, 13946.00
639.2170, 13971.00
640.3810, 14047.00
641.5450, 14150.00
642.7080, 14081.00
643.8720, 13976.00
645.0350, 13891.00
646.1980, 13744.00
647.3610, 13684.00
648.5240, 13530.00
649.6870, 13543.00
650.8490, 13280.00
652.0120, 13254.00
653.1740, 13217.00
654.3360, 13088.00
655.4980, 13197.00
656.6600, 13055.00
657.8210, 13249.00
658.9830, 13125.00
660.1440, 12989.00
661.3050, 13047.00
662.4660, 13207.00
663.6270, 13108.00
664.7870, 13008.00
665.9480, 13131.00
667.1080, 13076.00
668.2680, 12973.00
669.4280, 13168.00
670.5880, 13147.00
671.7480, 13120.00
672.9070, 13037.00
674.0670, 13124.00
675.2260, 13096.00
676.3850, 13017.49
677.5440, 12765.00
678.7030, 12806.00
679.8610, 12639.00
681.0200, 12439.00
682.1780, 12351.00
683.3360, 12174.12
684.4940, 12012.00
685.6520, 11916.00
686.8090, 11787.00
687.9670, 11721.00
689.1240, 11566.00
690.2810, 11726.00
691.4380, 11650.00
692.5950, 11837.00
693.7520, 12031.00
694.9080, 12006.00
696.0650, 11963.00
697.2210, 12523.00
698.3770, 12552.50
699.5330, 12833.79
700.6880, 13035.00
701.8440, 13376.00
702.9990, 13562.00
704.1550, 13915.00
705.3100, 14391.00
706.4650, 14892.00
707.6190, 15392.00
708.7740, 15947.00
709.9290, 16647.00
711.0830, 17283.00
712.2370, 18337.00
713.3910, 19647.00
714.5450, 20753.00
715.6980, 22345.00
716.8520, 24033.00
718.0050, 26581.00
719.1580, 28905.00
720.3110, 32360.00
721.4640, 35816.16
722.6170, 39741.00
723.7700, 44031.00
724.9220, 48778.00
726.0740, 53656.00
727.2260, 57819.00
728.3780, 61390.00
729.5300, 62904.00
730.6810, 63359.00
731.8330, 62153.00
732.9840, 58675.00
734.1350, 55351.00
735.2860, 50575.00
736.4370, 46083.00
737.5880, 42052.00
738.7380, 38425.09
739.8880, 35176.11
741.0390, 32344.00
742.1890, 29854.00
743.3380, 27784.00
744.4880, 25984.00
745.6380, 24611.00
746.7870, 23098.00
747.9360, 21880.00
749.0850, 20834.00
750.2340, 19932.00
751.3830, 19102.00
752.5310, 18495.00
753.6800, 17960.00
754.8280, 17592.00
755.9760, 16940.00
757.1240, 16738.00
758.2720, 16391.00
759.4190, 15796.00
760.5670, 15639.00
761.7140, 15205.00
762.8610, 14775.00
764.0080, 14500.00
765.1550, 14019.00
766.3020, 13765.00
767.4480, 13438.00
768.5950, 12886.00
769.7410, 12791.00
770.8870, 12310.00
772.0330, 12195.00
773.1780, 11934.00
774.3240, 11620.00
775.4690, 11724.00
776.6140, 11327.00
777.7590, 11269.00
778.9040, 11201.00
780.0490, 11248.00
781.1940, 11012.00
782.3380, 11056.00
783.4820, 10892.00
784.6260, 11046.00
785.7700, 10957.00
786.9140, 11047.00
788.0580, 10933.00
789.2010, 11033.00
790.3450, 10923.00
791.4880, 11103.00
792.6310, 11033.00
793.7730, 11152.00
794.9160, 11282.00
796.0590, 11402.00
797.2010, 11470.00
798.3430, 11465.00
799.4850, 11625.00
800.6270, 11755.00
801.7690, 11765.00
802.9100, 11972.00
804.0520, 12138.00
805.1930, 12031.00
806.3340, 11915.00
807.4750, 11730.12
808.6160, 11492.12
809.7560, 11203.00
810.8970, 10977.00
812.0370, 10828.00
813.1770, 10686.00
814.3170, 10639.00
815.4570, 10718.00
816.5960, 10608.00
817.7360, 10636.00
818.8750, 10584.02
820.0140, 10540.00
821.1530, 10539.00
822.2920, 10573.00
823.4310, 10606.34
824.5690, 10672.71
825.7070, 10767.00
826.8460, 10819.00
827.9840, 10964.00
829.1220, 11005.00
830.2590, 11025.00
831.3970, 11244.00
832.5340, 11151.00
833.6710, 11299.00
834.8080, 11285.00
835.9450, 11381.00
837.0820, 11471.00
838.2190, 11458.00
839.3550, 11341.00
840.4910, 11264.00
841.6270, 11329.00
842.7630, 11274.00
843.8990, 11247.00
845.0350, 11252.00
846.1700, 11168.00
847.3060, 11175.00
848.4410, 11219.00
849.5760, 11198.00
850.7100, 11332.00
851.8450, 11286.00
852.9800, 11325.00
854.1140, 11507.00
855.2480, 11585.00
856.3820, 11698.00
857.5160, 11731.00
858.6500, 11786.08
859.7830, 11796.00
860.9170, 11845.00
862.0500, 11828.00
863.1830, 11852.00
864.3160, 11859.00
865.4480, 11847.00
866.5810, 11870.00
867.7130, 11980.00
868.8460, 12097.00
869.9780, 12078.00
871.1100, 12113.67
872.2410, 12023.00
873.3730, 12071.00
874.5050, 12059.00
875.6360, 12044.00
876.7670, 11980.00
877.8980, 12047.00
879.0290, 12045.00
880.1590, 11860.00
881.2900, 11851.00
882.4200, 11654.00
883.5500, 11679.00
884.6800, 11556.00
885.8100, 11513.78
886.9400, 11463.14
888.0690, 11455.00
889.1990, 11310.00
890.3280, 11280.00
891.4570, 11139.00
892.5860, 11198.00
893.7140, 11117.00
894.8430, 11227.00
895.9710, 10939.00
897.1000, 11025.00
898.2280, 10919.00
899.3560, 10912.00
900.4830, 10799.00
901.6110, 10760.00
902.7380, 10732.56
903.8660, 10710.00
904.9930, 10709.00
906.1200, 10722.82
907.2460, 10740.27
908.3730, 10778.00
909.5000, 10786.00
910.6260, 10810.00
911.7520, 10791.00
912.8780, 10798.00
914.0040, 10844.00
915.1290, 10914.00
916.2550, 11019.00
917.3800, 11041.00
918.5050, 11099.71
919.6300, 11023.00
920.7550, 11193.00
921.8800, 11184.00
923.0040, 11282.00
924.1290, 11342.00
925.2530, 11510.00
926.3770, 11531.00
927.5010, 11551.00
928.6250, 11872.00
929.7480, 12083.00
930.8720, 12128.00
931.9950, 12341.00
933.1180, 12466.00
934.2410, 12595.00
935.3640, 12712.00
936.4860, 12918.00
937.6090, 13142.00
938.7310, 13376.00
939.8530, 13564.00
940.9750, 13396.00
942.0970, 13406.00
943.2180, 13474.00
944.3400, 13619.00
945.4610, 13641.19
946.5820, 13758.00
947.7030, 13746.00
948.8240, 13813.00
949.9450, 13815.00
951.0650, 13718.00
952.1860, 13805.00
953.3060, 13907.00
954.4260, 13877.00
955.5460, 13975.00
956.6650, 14006.00
957.7850, 14071.00
958.9040, 14018.00
960.0230, 14065.00
961.1420, 14050.00
962.2610, 14064.00
963.3800, 14289.00
964.4990, 14318.00
965.6170, 14373.00
966.7350, 14328.00
967.8530, 14622.00
968.9710, 14594.00
970.0890, 14687.00
971.2070, 14765.00
972.3240, 14811.00
973.4410, 14894.00
974.5580, 15021.00
975.6750, 14939.00
976.7920, 14985.00
977.9090, 15080.00
979.0250, 15028.00
980.1410, 15087.46
981.2580, 15022.00
982.3740, 15032.00
983.4890, 15012.00
984.6050, 14790.00
985.7200, 14828.00
986.8360, 14910.00
987.9510, 14738.00
989.0660, 14823.00
990.1810, 14620.00
991.2950, 14671.00
992.4100, 14524.00
993.5240, 14439.00
994.6390, 14438.00
995.7530, 14468.00
996.8660, 14623.00
997.9800, 14558.00
999.0940, 14786.00
1000.207, 14662.00
1001.320, 14894.00
1002.433, 14916.00
1003.546, 14964.00
1004.659, 14831.00
1005.772, 14832.00
1006.884, 14815.00
1007.996, 14925.00
1009.108, 14986.98
1010.220, 15093.88
1011.332, 15282.00
1012.444, 15426.00
1013.555, 15724.00
1014.666, 16054.00
1015.777, 16292.00
1016.888, 16567.68
1017.999, 16677.00
1019.110, 17039.00
1020.220, 17405.00
1021.331, 17609.00
1022.441, 18022.00
1023.551, 18293.00
1024.661, 18319.00
1025.770, 18557.00
1026.880, 18720.00
1027.989, 18818.00
1029.098, 19054.00
1030.207, 19279.00
1031.316, 19431.00
1032.425, 19454.00
1033.533, 19822.00
1034.642, 19872.00
1035.750, 20277.00
1036.858, 20671.00
1037.966, 20999.00
1039.073, 21292.00
1040.181, 21887.00
1041.288, 22378.00
1042.396, 23129.00
1043.503, 23870.00
1044.610, 24017.00
1045.716, 24730.00
1046.823, 25654.00
1047.929, 26303.00
1049.036, 27411.00
1050.142, 28160.00
1051.248, 29563.00
1052.353, 30940.00
1053.459, 31998.00
1054.564, 33389.00
1055.670, 35283.00
1056.775, 36857.00
1057.880, 38260.00
1058.985, 40683.00
1060.089, 42280.00
1061.194, 44245.00
1062.298, 45787.00
1063.402, 46889.00
1064.506, 47951.00
1065.610, 48623.00
1066.713, 48775.00
1067.817, 48042.00
1068.920, 46637.00
1070.023, 44897.00
1071.126, 43100.00
1072.229, 40704.00
1073.332, 38608.00
1074.435, 36138.00
1075.537, 33887.00
1076.639, 31841.00
1077.741, 29792.00
1078.843, 27921.00
1079.945, 26160.00
1081.046, 24707.00
1082.148, 23288.00
1083.249, 21988.07
1084.350, 21006.00
1085.451, 19849.00
1086.551, 19009.00
1087.652, 18377.00
1088.752, 17690.00
1089.853, 17092.00
1090.953, 16653.00
1092.053, 16213.00
1093.152, 15760.00
1094.252, 15509.00
1095.351, 15281.09
1096.451, 15022.58
1097.550, 14924.00
1098.649, 14697.00
1099.748, 14298.00
1100.846, 14206.00
1101.945, 13965.00
1103.043, 13884.00
1104.141, 13908.00
1105.239, 13672.00
1106.337, 13423.00
1107.434, 13522.00
1108.532, 13450.00
1109.629, 13264.00
1110.726, 13138.00
1111.823, 12963.00
1112.920, 12988.00
1114.017, 12834.00
1115.113, 12937.00
1116.210, 12627.00
1117.306, 12570.00
1118.402, 12483.00
1119.498, 12531.00
1120.593, 12386.00
1121.689, 12412.00
1122.784, 12215.00
1123.879, 12311.00
1124.974, 12166.00
1126.069, 12134.00
1127.164, 12122.00
1128.259, 11989.00
1129.353, 11914.00
1130.447, 11820.00
1131.541, 11833.00
1132.635, 11674.00
1133.729, 11691.00
1134.822, 11685.00
1135.916, 11780.00
1137.009, 11550.00
1138.102, 11643.00
1139.195, 11544.00
1140.288, 11569.00
1141.380, 11708.00
1142.473, 11595.00
1143.565, 11519.00
1144.657, 11500.00
1145.749, 11474.00
1146.841, 11472.00
1147.932, 11438.00
1149.024, 11387.00
1150.115, 11277.00
1151.206, 11265.30
1152.297, 11168.00
1153.388, 11190.00
1154.479, 11124.00
1155.569, 11069.00
1156.659, 11160.00
1157.750, 11003.00
1158.839, 11063.00
1159.929, 10917.00
1161.019, 10926.55
1162.108, 11067.00
1163.198, 10941.00
1164.287, 10996.00
1165.376, 11042.00
1166.465, 11050.00
1167.553, 10956.00
1168.642, 11036.00
1169.730, 10987.00
1170.818, 11043.00
1171.906, 11011.00
1172.994, 11035.00
1174.082, 10958.00
1175.170, 11088.00
1176.257, 10984.00
1177.344, 11107.00
1178.431, 11011.00
1179.518, 11086.00
1180.605, 11025.00
1181.691, 10967.00
1182.778, 10988.00
1183.864, 11021.00
1184.950, 10971.00
1186.036, 10885.00
1187.122, 11014.00
1188.207, 10862.00
1189.292, 11051.00
1190.378, 11001.00
1191.463, 10994.00
1192.548, 10913.00
1193.632, 11057.00
1194.717, 11103.00
1195.801, 10844.00
1196.886, 11084.00
1197.970, 10945.00
1199.054, 11079.00
1200.137, 11047.00
1201.221, 11057.00
1202.305, 11097.00
1203.388, 11101.00
1204.471, 11002.00
1205.554, 10960.00
1206.637, 10995.00
1207.719, 11061.00
1208.802, 10967.00
1209.884, 11065.00
1210.966, 10947.00
1212.048, 11219.00
1213.130, 11094.00
1214.212, 11078.00
1215.293, 11360.00
1216.374, 11156.00
1217.456, 11161.00
1218.536, 11139.00
1219.617, 11200.00
1220.698, 11100.00
1221.778, 11196.00
1222.859, 11277.00
1223.939, 11230.00
1225.019, 11199.00
1226.099, 11164.00
1227.178, 11138.00
1228.258, 11216.00
1229.337, 11210.00
1230.417, 11298.00
1231.496, 11298.00
1232.574, 11363.00
1233.653, 11348.00
1234.732, 11369.83
1235.810, 11451.00
1236.888, 11397.00
1237.966, 11445.00
1239.044, 11484.00
1240.122, 11352.00
1241.199, 11439.00
1242.277, 11416.00
1243.354, 11392.00
1244.431, 11473.00
1245.508, 11419.00
1246.585, 11352.00
1247.661, 11480.00
1248.738, 11549.00
1249.814, 11567.00
1250.890, 11486.00
1251.966, 11508.00
1253.042, 11509.00
1254.117, 11490.37
1255.193, 11547.00
1256.268, 11519.00
1257.343, 11585.00
1258.418, 11654.00
1259.493, 11642.00
1260.567, 11642.00
1261.642, 11738.00
1262.716, 11779.00
1263.790, 11938.00
1264.864, 11920.00
1265.938, 11907.00
1267.011, 11942.00
1268.085, 12082.00
1269.158, 12083.00
1270.231, 12199.00
1271.304, 12038.00
1272.377, 12077.00
1273.450, 12130.00
1274.522, 12040.00
1275.594, 12221.00
1276.666, 12076.00
1277.738, 12329.00
1278.810, 12445.00
1279.882, 12297.00
1280.953, 12256.00
1282.025, 12119.00
1283.096, 12283.00
1284.167, 12120.00
1285.238, 12211.00
1286.308, 12168.00
1287.379, 12307.00
1288.449, 12108.00
1289.519, 12264.00
1290.589, 12338.00
1291.659, 12201.00
1292.729, 12370.00
1293.798, 12320.00
1294.868, 12353.00
1295.937, 12366.00
1297.006, 12349.00
1298.075, 12213.00
1299.143, 12238.00
1300.212, 12049.00
1301.280, 12265.00
1302.348, 12326.00
1303.416, 12335.00
1304.484, 12269.00
1305.552, 12210.00
1306.620, 12308.00
1307.687, 12371.00
1308.754, 12370.00
1309.821, 12471.00
1310.888, 12334.00
1311.955, 12527.00
1313.021, 12451.00
1314.088, 12439.00
1315.154, 12524.00
1316.220, 12478.00
1317.286, 12523.00
1318.352, 12501.00
1319.417, 12563.00
1320.483, 12556.00
1321.548, 12449.00
1322.613, 12441.00
1323.678, 12457.00
1324.743, 12638.00
1325.807, 12517.00
1326.872, 12577.00
1327.936, 12310.00
1329.000, 12346.00
1330.064, 12465.00
1331.128, 12436.00
1332.191, 12547.00
1333.255, 12358.00
1334.318, 12471.00
1335.381, 12306.00
1336.444, 12370.00
1337.507, 12404.00
1338.569, 12463.00
1339.632, 12316.00
1340.694, 12463.00
1341.756, 12261.00
1342.818, 12260.00
1343.880, 12261.00
1344.941, 12330.00
1346.003, 12472.00
1347.064, 12407.00
1348.125, 12360.00
1349.186, 12316.00
1350.247, 12451.00
1351.308, 12369.00
1352.368, 12499.00
1353.428, 12535.00
1354.489, 12525.00
1355.549, 12413.00
1356.608, 12466.00
1357.668, 12369.00
1358.727, 12365.00
1359.787, 12485.00
1360.846, 12348.00
1361.905, 12446.00
1362.964, 12446.00
1364.022, 12508.00
1365.081, 12704.00
1366.139, 12590.00
1367.197, 12660.00
1368.255, 12532.00
1369.313, 12536.00
1370.371, 12577.00
1371.428, 12606.00
1372.486, 12689.00
1373.543, 12749.00
1374.600, 12822.26
1375.657, 12902.00
1376.713, 12983.00
1377.770, 13000.00
1378.826, 13070.00
1379.882, 13072.00
1380.938, 13078.00
1381.994, 13135.00
1383.050, 13264.00
1384.106, 13280.00
1385.161, 13447.00
1386.216, 13498.00
1387.271, 13600.42
1388.326, 13802.00
1389.381, 13833.00
1390.435, 13959.00
1391.490, 14140.00
1392.544, 14206.00
1393.598, 14319.00
1394.652, 14332.00
1395.705, 14433.00
1396.759, 14398.00
1397.812, 14420.00
1398.866, 14462.00
1399.919, 14418.00
1400.972, 14529.00
1402.024, 14313.00
1403.077, 14503.00
1404.129, 14366.00
1405.181, 14331.00
1406.233, 14118.00
1407.285, 13989.00
1408.337, 13914.00
1409.389, 13973.00
1410.440, 13943.00
1411.491, 13786.00
1412.542, 13667.00
1413.593, 13752.00
1414.644, 13730.00
1415.695, 13502.00
1416.745, 13408.00
1417.795, 13290.00
1418.845, 13203.00
1419.895, 13125.84
1420.945, 13031.00
1421.995, 13036.00
1423.044, 13002.00
1424.093, 13061.00
1425.142, 12904.00
1426.191, 13040.00
1427.240, 12981.00
1428.289, 13175.00
1429.337, 12942.00
1430.385, 13198.00
1431.433, 13160.00
1432.481, 13293.00
1433.529, 13276.00
1434.577, 13481.00
1435.624, 13472.00
1436.672, 13374.00
1437.719, 13663.00
1438.766, 13629.00
1439.812, 13854.00
1440.859, 13908.00
1441.905, 13970.00
1442.952, 13752.00
1443.998, 13922.00
1445.044, 13901.00
1446.090, 13975.00
1447.135, 13901.00
1448.181, 14014.00
1449.226, 14001.98
1450.271, 13965.00
1451.316, 14049.00
1452.361, 14172.00
1453.405, 14238.00
1454.450, 14210.00
1455.494, 14307.00
1456.538, 14185.00
1457.582, 14454.00
1458.626, 14325.00
1459.670, 14278.00
1460.713, 14290.00
1461.757, 14185.00
1462.800, 14164.00
1463.843, 13953.00
1464.886, 13771.00
1465.928, 13508.00
1466.971, 13605.00
1468.013, 13286.00
1469.055, 13204.00
1470.097, 12977.00
1471.139, 12944.00
1472.181, 12918.00
1473.222, 12811.00
1474.263, 12818.00
1475.305, 12752.26
1476.346, 12695.00
1477.386, 12668.00
1478.427, 12569.00
1479.468, 12536.00
1480.508, 12580.00
1481.548, 12448.00
1482.588, 12421.00
1483.628, 12496.00
1484.668, 12475.00
1485.707, 12403.00
1486.747, 12422.00
1487.786, 12335.00
1488.825, 12383.00
1489.864, 12303.00
1490.902, 12471.00
1491.941, 12258.00
1492.979, 12383.00
1494.017, 12266.00
1495.055, 12172.00
1496.093, 12274.00
1497.131, 12377.00
1498.168, 12313.00
1499.206, 12379.00
1500.243, 12413.00
1501.280, 12536.00
1502.317, 12511.00
1503.354, 12610.00
1504.390, 12440.00
1505.426, 12460.00
1506.463, 12617.00
1507.499, 12614.00
1508.535, 12705.00
1509.570, 12587.00
1510.606, 12558.00
1511.641, 12561.00
1512.676, 12501.00
1513.711, 12504.00
1514.746, 12505.15
1515.781, 12638.00
1516.816, 12548.00
1517.850, 12545.00
1518.884, 12609.00
1519.918, 12484.00
1520.952, 12550.00
1521.986, 12639.00
1523.019, 12498.00
1524.053, 12600.00
1525.086, 12635.00
1526.119, 12661.00
1527.152, 12669.00
1528.185, 12710.00
1529.217, 12603.00
1530.250, 12512.00
1531.282, 12660.00
1532.314, 12496.00
1533.346, 12643.00
1534.377, 12526.00
1535.409, 12511.00
1536.440, 12518.00
1537.472, 12464.00
1538.503, 12506.00
1539.534, 12568.00
1540.564, 12439.00
1541.595, 12539.00
1542.625, 12465.00
1543.656, 12574.00
1544.686, 12513.00
1545.716, 12511.00
1546.745, 12342.00
1547.775, 12421.00
1548.804, 12390.82
1549.834, 12457.00
1550.863, 12476.00
1551.892, 12519.00
1552.920, 12524.46
1553.949, 12535.48
1554.977, 12501.00
1556.006, 12537.00
1557.034, 12491.55
1558.062, 12487.00
1559.089, 12488.00
1560.117, 12446.00
1561.144, 12452.00
1562.172, 12405.00
1563.199, 12467.00
1564.226, 12421.00
1565.252, 12448.90
1566.279, 12499.00
1567.305, 12478.00
1568.332, 12517.00
1569.358, 12510.00
1570.384, 12486.00
##END=



