##NAMES=Elbaite
##RRUFFID=R060003
##IDEAL CHEMISTRY=Na(Al_1.5_Li_1.5_)Al_6_(Si_6_O_18_)(BO_3_)_3_(OH)_3_OH
##LOCALITY=Mount Begbie, Revelstoke, British Columbia, Canada
##OWNER=RRUFF
##SOURCE=Bob Downs
##DESCRIPTION=Pink crystal associated with trilithionite, R060004
##STATUS=The identification of this mineral has been confirmed by X-ray diffraction and chemical analysis
##URL=rruff.info/R060003
##MEASURED CHEMISTRY=(Na_0.58_[box]_0.42_)(Al_1.69_Li_1.27_Mn_0.04_)Al_6_(BO_3_)_3_[Si_6_O_18_](OH)_4_
##PIN_ID=L00688
##ORIENTATION=Laser parallel to -a* (-1 0 0). Fiducial mark perpendicular to laser is parallel to -c [0 0 -1]
118.1340, 21458.00
119.3650, 21424.00
120.5960, 21268.00
121.8270, 21525.00
123.0580, 21946.00
124.2880, 21808.00
125.5190, 22060.00
126.7490, 22220.00
127.9790, 22233.00
129.2090, 22548.00
130.4390, 22925.00
131.6680, 23317.00
132.8980, 23333.00
134.1270, 23541.00
135.3560, 24079.00
136.5850, 24262.00
137.8140, 24817.00
139.0430, 24801.00
140.2710, 25037.00
141.5000, 25190.00
142.7280, 25127.00
143.9560, 25293.00
145.1840, 25360.00
146.4120, 25461.63
147.6390, 25672.57
148.8670, 25785.00
150.0940, 26076.00
151.3210, 26373.00
152.5490, 26551.00
153.7750, 26330.00
155.0020, 26323.00
156.2290, 26122.00
157.4550, 26057.00
158.6810, 26128.00
159.9080, 26105.85
161.1340, 26310.00
162.3590, 26343.00
163.5850, 26359.00
164.8110, 26642.00
166.0360, 26382.00
167.2610, 26556.00
168.4860, 26324.00
169.7110, 26547.00
170.9360, 26654.00
172.1610, 26870.00
173.3850, 26689.00
174.6100, 26557.00
175.8340, 26723.00
177.0580, 26807.00
178.2820, 26795.00
179.5050, 26724.00
180.7290, 26697.00
181.9520, 26543.00
183.1760, 26858.00
184.3990, 26844.00
185.6220, 26674.00
186.8450, 27188.00
188.0670, 27303.00
189.2900, 27022.00
190.5120, 27249.00
191.7340, 27441.00
192.9560, 27686.00
194.1780, 27644.00
195.4000, 28054.00
196.6220, 28120.00
197.8430, 28493.00
199.0640, 28746.00
200.2860, 28979.00
201.5070, 29283.00
202.7270, 29642.00
203.9480, 29944.00
205.1690, 30148.00
206.3890, 30623.00
207.6090, 31268.19
208.8290, 31870.00
210.0490, 32932.00
211.2690, 33929.00
212.4890, 35051.00
213.7080, 36041.59
214.9280, 36982.00
216.1470, 38054.00
217.3660, 39031.00
218.5850, 39999.00
219.8030, 40997.00
221.0220, 41155.00
222.2400, 41173.00
223.4590, 40679.00
224.6770, 40309.00
225.8950, 39541.00
227.1120, 38540.00
228.3300, 37482.00
229.5480, 36913.00
230.7650, 36073.00
231.9820, 35492.00
233.1990, 35109.00
234.4160, 34815.00
235.6330, 34702.00
236.8490, 34653.00
238.0660, 34969.00
239.2820, 34864.00
240.4980, 34934.00
241.7140, 35088.00
242.9300, 35082.00
244.1460, 35150.00
245.3610, 35330.00
246.5770, 35027.00
247.7920, 34983.00
249.0070, 34764.00
250.2220, 34749.00
251.4370, 34366.00
252.6510, 34037.00
253.8660, 34017.00
255.0800, 33655.00
256.2940, 33579.00
257.5080, 33816.00
258.7220, 33629.79
259.9360, 33675.39
261.1490, 33705.00
262.3630, 33710.00
263.5760, 33861.00
264.7890, 34100.00
266.0020, 34201.00
267.2150, 34424.00
268.4270, 34243.00
269.6400, 34514.00
270.8520, 34159.00
272.0640, 34111.00
273.2760, 33990.00
274.4880, 33870.59
275.7000, 33726.00
276.9120, 33701.00
278.1230, 33689.00
279.3340, 33472.00
280.5450, 33414.00
281.7560, 33067.00
282.9670, 32939.00
284.1780, 32733.00
285.3880, 32697.00
286.5980, 32405.00
287.8090, 32422.00
289.0190, 32402.00
290.2290, 32061.00
291.4380, 31591.00
292.6480, 31524.00
293.8570, 31264.00
295.0670, 30747.00
296.2760, 30542.00
297.4850, 30128.00
298.6930, 30065.00
299.9020, 29793.00
301.1110, 29915.00
302.3190, 29942.00
303.5270, 30073.00
304.7350, 29991.00
305.9430, 30139.00
307.1510, 30212.00
308.3580, 30656.00
309.5660, 30821.00
310.7730, 30763.00
311.9800, 31094.00
313.1870, 30904.00
314.3940, 31372.00
315.6010, 31082.00
316.8070, 31285.00
318.0130, 31225.00
319.2200, 31098.00
320.4260, 31364.00
321.6310, 31667.00
322.8370, 31723.00
324.0430, 31962.00
325.2480, 31789.00
326.4540, 31932.00
327.6590, 32214.00
328.8640, 32295.00
330.0680, 32548.00
331.2730, 32491.00
332.4780, 32374.00
333.6820, 32264.00
334.8860, 32426.00
336.0900, 32701.00
337.2940, 32756.00
338.4980, 32762.00
339.7010, 32916.00
340.9050, 32845.00
342.1080, 33123.00
343.3110, 33184.00
344.5140, 33060.00
345.7170, 33367.00
346.9200, 33871.00
348.1220, 33854.00
349.3240, 34199.00
350.5270, 34591.00
351.7290, 34437.00
352.9310, 34785.00
354.1320, 35083.00
355.3340, 35330.00
356.5350, 35881.00
357.7370, 36376.00
358.9380, 37269.00
360.1390, 38231.00
361.3400, 39222.00
362.5400, 40499.28
363.7410, 42176.00
364.9410, 43334.00
366.1410, 44912.00
367.3410, 46633.00
368.5410, 47989.00
369.7410, 49370.00
370.9400, 50485.00
372.1400, 50657.00
373.3390, 50911.00
374.5380, 50751.00
375.7370, 49434.00
376.9360, 48205.00
378.1350, 46821.00
379.3330, 45146.00
380.5310, 43775.00
381.7300, 42391.00
382.9280, 41051.00
384.1260, 40261.00
385.3230, 39482.00
386.5210, 38643.00
387.7180, 38356.00
388.9160, 38057.00
390.1130, 37827.00
391.3100, 37765.93
392.5060, 37453.00
393.7030, 37738.00
394.9000, 37817.00
396.0960, 37791.00
397.2920, 38053.00
398.4880, 38064.00
399.6840, 38181.00
400.8800, 38230.48
402.0750, 38086.00
403.2710, 38197.00
404.4660, 38123.00
405.6610, 37985.00
406.8560, 37804.00
408.0510, 37857.00
409.2450, 37465.00
410.4400, 37304.00
411.6340, 36636.00
412.8280, 36574.00
414.0220, 35837.00
415.2160, 35752.00
416.4100, 35323.00
417.6030, 34714.00
418.7970, 34392.00
419.9900, 33953.00
421.1830, 33553.00
422.3760, 33408.00
423.5690, 33227.00
424.7610, 33222.00
425.9540, 32931.00
427.1460, 32878.28
428.3380, 32641.00
429.5300, 32635.00
430.7220, 32636.00
431.9140, 32456.00
433.1050, 32831.00
434.2970, 32775.00
435.4880, 32885.00
436.6790, 32857.00
437.8700, 32980.00
439.0610, 32922.00
440.2510, 32960.00
441.4420, 32953.00
442.6320, 33086.00
443.8220, 33450.00
445.0120, 33290.00
446.2020, 33632.00
447.3910, 33450.00
448.5810, 33591.00
449.7700, 33609.00
450.9600, 33629.32
452.1490, 33660.00
453.3370, 33790.00
454.5260, 33756.00
455.7150, 33884.00
456.9030, 33431.00
458.0910, 33832.00
459.2800, 33533.00
460.4670, 33749.00
461.6550, 33775.00
462.8430, 34010.00
464.0300, 34106.00
465.2180, 34042.00
466.4050, 34554.00
467.5920, 34757.00
468.7790, 35304.00
469.9650, 35599.00
471.1520, 35914.00
472.3380, 36266.00
473.5250, 36468.00
474.7110, 36917.00
475.8970, 37278.00
477.0820, 37461.00
478.2680, 37577.99
479.4540, 37546.97
480.6390, 37403.00
481.8240, 37137.00
483.0090, 36692.00
484.1940, 36191.00
485.3780, 35879.00
486.5630, 35529.00
487.7470, 35477.00
488.9320, 35697.00
490.1160, 35568.00
491.3000, 35775.00
492.4830, 35938.00
493.6670, 36290.00
494.8500, 36908.00
496.0340, 37255.00
497.2170, 38119.00
498.4000, 38810.00
499.5820, 39786.00
500.7650, 40173.00
501.9480, 41137.00
503.1300, 42038.00
504.3120, 43156.00
505.4940, 43792.00
506.6760, 44604.00
507.8580, 44849.00
509.0390, 44966.00
510.2210, 44522.00
511.4020, 44169.00
512.5830, 43636.00
513.7640, 42824.00
514.9450, 42197.00
516.1250, 41333.00
517.3060, 40717.00
518.4860, 40377.00
519.6660, 39622.00
520.8460, 39392.00
522.0260, 38805.00
523.2060, 38409.00
524.3850, 37838.00
525.5650, 37869.00
526.7440, 37340.00
527.9230, 37313.95
529.1020, 36896.00
530.2810, 37161.00
531.4590, 37257.00
532.6380, 37035.00
533.8160, 37161.00
534.9940, 37163.00
536.1720, 37020.00
537.3500, 37226.00
538.5270, 37155.00
539.7050, 37115.00
540.8820, 37292.00
542.0590, 37036.00
543.2360, 36941.00
544.4130, 36889.00
545.5900, 36622.00
546.7660, 36748.00
547.9430, 36540.00
549.1190, 36391.00
550.2950, 36447.00
551.4710, 36494.00
552.6470, 36359.00
553.8220, 36440.00
554.9980, 36112.00
556.1730, 36214.00
557.3480, 36157.00
558.5230, 36171.00
559.6980, 35945.00
560.8730, 36047.00
562.0470, 36030.00
563.2220, 35946.00
564.3960, 36005.00
565.5700, 35968.00
566.7440, 35993.00
567.9170, 36059.00
569.0910, 35977.00
570.2640, 36072.00
571.4380, 36129.00
572.6110, 36263.00
573.7840, 36389.00
574.9570, 36273.00
576.1290, 36363.00
577.3020, 36309.00
578.4740, 36573.00
579.6460, 36473.00
580.8180, 36356.00
581.9900, 36287.00
583.1620, 36496.00
584.3330, 36579.00
585.5040, 36435.00
586.6760, 36613.00
587.8470, 36369.00
589.0180, 36240.00
590.1880, 36478.00
591.3590, 36463.00
592.5290, 36407.00
593.7000, 36705.00
594.8700, 36557.00
596.0400, 36467.00
597.2090, 36352.00
598.3790, 36283.00
599.5490, 36791.00
600.7180, 36363.00
601.8870, 36635.00
603.0560, 36371.00
604.2250, 36589.00
605.3940, 36552.00
606.5620, 36772.00
607.7300, 36729.00
608.8990, 36819.00
610.0670, 36862.89
611.2350, 36796.00
612.4020, 36864.00
613.5700, 36733.00
614.7370, 36653.00
615.9050, 37010.00
617.0720, 36994.00
618.2390, 37319.00
619.4060, 37229.00
620.5720, 37333.00
621.7390, 37798.00
622.9050, 37709.00
624.0710, 37713.00
625.2370, 37573.00
626.4030, 38003.00
627.5690, 38246.00
628.7340, 38647.00
629.9000, 38856.00
631.0650, 39192.00
632.2300, 39491.00
633.3950, 39871.00
634.5600, 39999.00
635.7240, 40641.00
636.8890, 40626.00
638.0530, 41209.00
639.2170, 41458.00
640.3810, 41761.00
641.5450, 41910.00
642.7080, 41817.00
643.8720, 42020.00
645.0350, 41791.00
646.1980, 41821.00
647.3610, 41420.00
648.5240, 41925.00
649.6870, 41220.00
650.8490, 41236.00
652.0120, 40814.00
653.1740, 40463.00
654.3360, 40193.00
655.4980, 39911.38
656.6600, 39723.00
657.8210, 39397.00
658.9830, 39331.00
660.1440, 38924.00
661.3050, 38882.00
662.4660, 38626.00
663.6270, 38684.00
664.7870, 38435.00
665.9480, 38242.00
667.1080, 38512.00
668.2680, 38550.00
669.4280, 38199.00
670.5880, 38168.00
671.7480, 38152.00
672.9070, 38068.00
674.0670, 38015.00
675.2260, 38033.00
676.3850, 38067.00
677.5440, 38279.00
678.7030, 38565.00
679.8610, 38257.00
681.0200, 38471.00
682.1780, 38350.00
683.3360, 38454.00
684.4940, 38355.00
685.6520, 38682.00
686.8090, 38767.00
687.9670, 38840.00
689.1240, 39301.00
690.2810, 39210.00
691.4380, 39719.00
692.5950, 39699.00
693.7520, 40476.00
694.9080, 41029.00
696.0650, 41368.00
697.2210, 41884.00
698.3770, 42601.00
699.5330, 43569.00
700.6880, 44504.00
701.8440, 44981.00
702.9990, 45964.00
704.1550, 46648.00
705.3100, 47276.00
706.4650, 47832.00
707.6190, 48076.00
708.7740, 48158.00
709.9290, 48392.00
711.0830, 48218.00
712.2370, 47946.00
713.3910, 47143.00
714.5450, 46681.00
715.6980, 46125.00
716.8520, 45352.00
718.0050, 45083.00
719.1580, 44363.00
720.3110, 44114.00
721.4640, 44093.00
722.6170, 43147.00
723.7700, 42591.00
724.9220, 42354.00
726.0740, 42229.00
727.2260, 42290.00
728.3780, 42113.00
729.5300, 41960.00
730.6810, 41721.00
731.8330, 41747.74
732.9840, 41809.00
734.1350, 41864.00
735.2860, 41972.00
736.4370, 42176.00
737.5880, 42373.93
738.7380, 42411.00
739.8880, 42957.00
741.0390, 43246.00
742.1890, 43664.00
743.3380, 43777.00
744.4880, 44136.00
745.6380, 44291.00
746.7870, 44398.00
747.9360, 44406.00
749.0850, 44428.82
750.2340, 44419.00
751.3830, 44302.00
752.5310, 44093.00
753.6800, 43917.00
754.8280, 43702.04
755.9760, 43436.64
757.1240, 43165.00
758.2720, 42927.00
759.4190, 42511.00
760.5670, 42353.00
761.7140, 42119.00
762.8610, 41942.11
764.0080, 42074.00
765.1550, 41686.00
766.3020, 41679.00
767.4480, 41532.00
768.5950, 41259.00
769.7410, 41296.00
770.8870, 41019.00
772.0330, 40830.00
773.1780, 41095.00
774.3240, 41299.00
775.4690, 40874.00
776.6140, 40979.00
777.7590, 40964.00
778.9040, 40955.00
780.0490, 40824.00
781.1940, 40862.00
782.3380, 40583.00
783.4820, 40704.00
784.6260, 40422.00
785.7700, 40457.00
786.9140, 40656.00
788.0580, 40554.00
789.2010, 40475.00
790.3450, 40627.00
791.4880, 40663.00
792.6310, 40581.00
793.7730, 40566.00
794.9160, 40691.00
796.0590, 40591.00
797.2010, 40782.00
798.3430, 40698.12
799.4850, 40873.00
800.6270, 40723.00
801.7690, 40589.00
802.9100, 40858.00
804.0520, 40754.00
805.1930, 40910.00
806.3340, 40932.00
807.4750, 41167.00
808.6160, 41354.00
809.7560, 41297.00
810.8970, 41493.00
812.0370, 41570.00
813.1770, 41647.00
814.3170, 41749.00
815.4570, 41545.00
816.5960, 41502.00
817.7360, 41169.00
818.8750, 41452.00
820.0140, 41405.00
821.1530, 41040.00
822.2920, 41074.00
823.4310, 41306.00
824.5690, 41103.00
825.7070, 41054.00
826.8460, 41425.00
827.9840, 41351.00
829.1220, 41491.00
830.2590, 41491.00
831.3970, 41460.13
832.5340, 41443.00
833.6710, 41502.00
834.8080, 41532.00
835.9450, 41789.00
837.0820, 41609.00
838.2190, 41633.00
839.3550, 41707.56
840.4910, 41992.00
841.6270, 41749.00
842.7630, 42027.00
843.8990, 42000.00
845.0350, 42031.00
846.1700, 41944.00
847.3060, 41872.00
848.4410, 42154.00
849.5760, 42342.00
850.7100, 42529.00
851.8450, 42408.00
852.9800, 42585.00
854.1140, 42678.00
855.2480, 42542.00
856.3820, 42817.00
857.5160, 42648.00
858.6500, 42933.00
859.7830, 42910.00
860.9170, 42821.00
862.0500, 43308.00
863.1830, 43295.00
864.3160, 43036.00
865.4480, 43117.00
866.5810, 43207.00
867.7130, 43412.00
868.8460, 43333.00
869.9780, 43370.00
871.1100, 43442.00
872.2410, 43614.00
873.3730, 43401.00
874.5050, 43305.00
875.6360, 43431.00
876.7670, 43406.00
877.8980, 43446.00
879.0290, 43396.00
880.1590, 43537.00
881.2900, 43427.00
882.4200, 43622.00
883.5500, 43485.00
884.6800, 43466.00
885.8100, 43561.00
886.9400, 43519.00
888.0690, 43816.00
889.1990, 43777.96
890.3280, 43584.00
891.4570, 43851.00
892.5860, 43645.00
893.7140, 43636.00
894.8430, 43748.00
895.9710, 43688.00
897.1000, 43705.00
898.2280, 43829.00
899.3560, 43915.00
900.4830, 43972.00
901.6110, 43700.00
902.7380, 43934.00
903.8660, 43760.00
904.9930, 43773.00
906.1200, 43846.00
907.2460, 43894.00
908.3730, 43646.00
909.5000, 43918.00
910.6260, 43849.72
911.7520, 43861.75
912.8780, 43995.00
914.0040, 43971.00
915.1290, 44142.00
916.2550, 44329.00
917.3800, 44502.00
918.5050, 44622.00
919.6300, 44794.00
920.7550, 44468.00
921.8800, 44830.00
923.0040, 44639.00
924.1290, 44677.00
925.2530, 44643.00
926.3770, 44661.50
927.5010, 44880.00
928.6250, 44816.00
929.7480, 45112.00
930.8720, 45258.00
931.9950, 45238.00
933.1180, 45267.00
934.2410, 45406.00
935.3640, 45540.00
936.4860, 45483.00
937.6090, 45475.00
938.7310, 45608.00
939.8530, 45626.00
940.9750, 45698.00
942.0970, 45653.00
943.2180, 45759.00
944.3400, 45799.70
945.4610, 46004.00
946.5820, 45920.00
947.7030, 46088.00
948.8240, 46121.03
949.9450, 46273.66
951.0650, 46397.00
952.1860, 46651.00
953.3060, 46772.00
954.4260, 46972.00
955.5460, 46786.00
956.6650, 47376.00
957.7850, 47246.00
958.9040, 47123.00
960.0230, 47406.00
961.1420, 47576.00
962.2610, 47629.00
963.3800, 48017.00
964.4990, 48172.00
965.6170, 48300.00
966.7350, 48378.00
967.8530, 48510.00
968.9710, 48600.86
970.0890, 48641.00
971.2070, 48807.00
972.3240, 48914.00
973.4410, 49049.00
974.5580, 49190.00
975.6750, 49196.00
976.7920, 49108.00
977.9090, 49572.00
979.0250, 49397.00
980.1410, 49570.00
981.2580, 49765.00
982.3740, 49681.00
983.4890, 49764.00
984.6050, 49575.00
985.7200, 49859.00
986.8360, 49640.00
987.9510, 49870.00
989.0660, 49996.00
990.1810, 49847.00
991.2950, 50008.00
992.4100, 50057.00
993.5240, 49763.00
994.6390, 49753.00
995.7530, 49975.00
996.8660, 50191.00
997.9800, 49973.00
999.0940, 50159.00
1000.207, 50320.00
1001.320, 50175.00
1002.433, 50144.00
1003.546, 50070.00
1004.659, 50000.05
1005.772, 50185.00
1006.884, 49936.00
1007.996, 50028.00
1009.108, 50097.00
1010.220, 49962.00
1011.332, 50189.00
1012.444, 50484.00
1013.555, 50280.00
1014.666, 50327.00
1015.777, 50218.00
1016.888, 50230.00
1017.999, 50264.99
1019.110, 50403.00
1020.220, 50413.00
1021.331, 50425.00
1022.441, 50616.00
1023.551, 50685.00
1024.661, 50681.00
1025.770, 50717.00
1026.880, 50937.00
1027.989, 50776.00
1029.098, 50801.78
1030.207, 50920.27
1031.316, 50804.00
1032.425, 50918.00
1033.533, 51276.00
1034.642, 50881.00
1035.750, 50696.00
1036.858, 50887.00
1037.966, 51322.00
1039.073, 51073.00
1040.181, 51334.00
1041.288, 51148.00
1042.396, 51120.00
1043.503, 51521.00
1044.610, 51429.00
1045.716, 51579.00
1046.823, 51907.00
1047.929, 52315.00
1049.036, 52197.00
1050.142, 52591.00
1051.248, 52486.00
1052.353, 52832.00
1053.459, 52752.00
1054.564, 53131.00
1055.670, 53471.00
1056.775, 53331.00
1057.880, 53820.00
1058.985, 53656.00
1060.089, 54225.00
1061.194, 53998.00
1062.298, 54165.00
1063.402, 54444.00
1064.506, 54178.00
1065.610, 54299.00
1066.713, 54237.00
1067.817, 54450.00
1068.920, 53975.00
1070.023, 54647.00
1071.126, 54306.00
1072.229, 54765.00
1073.332, 54490.00
1074.435, 54215.00
1075.537, 54869.00
1076.639, 54558.00
1077.741, 54891.00
1078.843, 54669.00
1079.945, 54993.00
1081.046, 54812.00
1082.148, 54887.00
1083.249, 54711.00
1084.350, 55088.00
1085.451, 54888.00
1086.551, 55053.00
1087.652, 54681.00
1088.752, 54600.00
1089.853, 54703.00
1090.953, 54942.00
1092.053, 54901.00
1093.152, 54747.00
1094.252, 54505.00
1095.351, 54700.00
1096.451, 54431.00
1097.550, 54159.00
1098.649, 54075.00
1099.748, 54328.00
1100.846, 53989.00
1101.945, 54042.00
1103.043, 53702.00
1104.141, 53637.00
1105.239, 53710.00
1106.337, 53219.00
1107.434, 53276.00
1108.532, 53289.00
1109.629, 53279.00
1110.726, 53279.08
1111.823, 53074.00
1112.920, 53184.00
1114.017, 53021.00
1115.113, 52864.00
1116.210, 53039.00
1117.306, 52885.13
1118.402, 53297.00
1119.498, 52946.00
1120.593, 52998.00
1121.689, 53288.00
1122.784, 52920.00
1123.879, 53099.00
1124.974, 52799.00
1126.069, 53089.00
1127.164, 52922.00
1128.259, 52770.00
1129.353, 52728.00
1130.447, 52646.00
1131.541, 52693.18
1132.635, 53027.00
1133.729, 52901.00
1134.822, 52581.00
1135.916, 52752.00
1137.009, 52502.00
1138.102, 52719.00
1139.195, 52424.00
1140.288, 52681.00
1141.380, 52515.00
1142.473, 52476.00
1143.565, 52710.00
1144.657, 52563.00
1145.749, 52375.00
1146.841, 52808.00
1147.932, 52485.00
1149.024, 52558.00
1150.115, 52741.00
1151.206, 52719.00
1152.297, 52510.00
1153.388, 52819.00
1154.479, 52534.00
1155.569, 52779.00
1156.659, 52585.00
1157.750, 52739.00
1158.839, 52662.00
1159.929, 52487.00
1161.019, 52693.00
1162.108, 52765.00
1163.198, 52711.00
1164.287, 52741.00
1165.376, 52814.00
1166.465, 52689.00
1167.553, 52826.21
1168.642, 52581.00
1169.730, 53058.00
1170.818, 52859.00
1171.906, 53077.00
1172.994, 52816.00
1174.082, 53130.00
1175.170, 53012.00
1176.257, 52973.00
1177.344, 52880.00
1178.431, 53012.65
1179.518, 53015.37
1180.605, 53318.00
1181.691, 53205.00
1182.778, 53300.00
1183.864, 53458.00
1184.950, 53442.00
1186.036, 53376.00
1187.122, 53330.00
1188.207, 53643.00
1189.292, 53262.00
1190.378, 53582.00
1191.463, 53512.00
1192.548, 53500.00
1193.632, 53719.00
1194.717, 53708.00
1195.801, 53905.00
1196.886, 53804.00
1197.970, 54011.00
1199.054, 53899.00
1200.137, 54129.00
1201.221, 54048.00
1202.305, 54437.00
1203.388, 54293.00
1204.471, 54185.00
1205.554, 54231.00
1206.637, 54143.00
1207.719, 54436.00
1208.802, 54207.00
1209.884, 54521.00
1210.966, 53971.00
1212.048, 54382.00
1213.130, 54430.00
1214.212, 54910.00
1215.293, 54477.00
1216.374, 54588.00
1217.456, 54478.00
1218.536, 54822.00
1219.617, 54588.00
1220.698, 55163.00
1221.778, 54740.00
1222.859, 55166.00
1223.939, 54872.00
1225.019, 55046.00
1226.099, 55089.00
1227.178, 55171.00
1228.258, 55207.77
1229.337, 55201.00
1230.417, 55299.00
1231.496, 55306.00
1232.574, 55518.00
1233.653, 55353.00
1234.732, 55502.00
1235.810, 55626.00
1236.888, 55296.00
1237.966, 55345.00
1239.044, 55624.00
1240.122, 55310.00
1241.199, 55279.00
1242.277, 55524.00
1243.354, 55754.00
1244.431, 55622.00
1245.508, 55773.00
1246.585, 55607.00
1247.661, 55535.00
1248.738, 55801.00
1249.814, 55932.00
1250.890, 55839.00
1251.966, 55951.00
1253.042, 56061.00
1254.117, 56050.15
1255.193, 56099.84
1256.268, 56122.00
1257.343, 56042.00
1258.418, 56045.00
1259.493, 55907.00
1260.567, 56162.00
1261.642, 56276.00
1262.716, 56363.00
1263.790, 56232.00
1264.864, 56210.00
1265.938, 56352.00
1267.011, 56443.00
1268.085, 56547.00
1269.158, 56732.00
1270.231, 56545.00
1271.304, 56601.00
1272.377, 56458.00
1273.450, 56591.00
1274.522, 57071.00
1275.594, 56750.00
1276.666, 57161.00
1277.738, 56815.00
1278.810, 56992.00
1279.882, 57232.00
1280.953, 57027.00
1282.025, 57007.00
1283.096, 57171.00
1284.167, 57066.00
1285.238, 57338.00
1286.308, 57224.00
1287.379, 57195.00
1288.449, 57440.00
1289.519, 57618.00
1290.589, 57293.00
1291.659, 57730.00
1292.729, 57941.00
1293.798, 57757.00
1294.868, 57971.00
1295.937, 58058.00
1297.006, 57789.00
1298.075, 58126.00
1299.143, 58137.00
1300.212, 58033.00
1301.280, 57976.00
1302.348, 58006.00
1303.416, 58085.00
1304.484, 58174.00
1305.552, 58323.00
1306.620, 58460.00
1307.687, 58306.00
1308.754, 58540.00
1309.821, 58743.00
1310.888, 58376.00
1311.955, 58622.00
1313.021, 58698.00
1314.088, 58550.00
1315.154, 58728.29
1316.220, 58524.00
1317.286, 58840.00
1318.352, 58812.04
1319.417, 58878.94
1320.483, 59138.00
1321.548, 58764.00
1322.613, 59016.00
1323.678, 59001.00
1324.743, 59063.00
1325.807, 59048.00
1326.872, 58959.00
1327.936, 59012.00
1329.000, 59259.00
1330.064, 59013.00
1331.128, 59002.00
1332.191, 59295.00
1333.255, 59078.00
1334.318, 59385.00
1335.381, 59431.00
1336.444, 59189.00
1337.507, 59632.00
1338.569, 59307.00
1339.632, 59563.00
1340.694, 59447.00
1341.756, 59674.00
1342.818, 59473.00
1343.880, 59474.00
1344.941, 59695.00
1346.003, 59410.00
1347.064, 59825.00
1348.125, 59693.00
1349.186, 59749.00
1350.247, 59695.00
1351.308, 59793.82
1352.368, 59820.00
1353.428, 60015.00
1354.489, 59992.00
1355.549, 60023.00
1356.608, 60082.19
1357.668, 60090.65
1358.727, 60120.00
1359.787, 60204.00
1360.846, 60237.00
1361.905, 60390.37
1362.964, 60434.57
1364.022, 60450.00
1365.081, 60590.00
1366.139, 60544.00
1367.197, 60631.00
1368.255, 60331.00
1369.313, 60524.00
1370.371, 60439.00
1371.428, 60537.00
1372.486, 60665.00
1373.543, 60606.00
1374.600, 60452.00
1375.657, 60740.00
1376.713, 60737.00
1377.770, 60818.00
1378.826, 60961.00
1379.882, 60906.00
1380.938, 60995.63
1381.994, 60851.00
1383.050, 61059.00
1384.106, 60999.00
1385.161, 61029.00
1386.216, 61175.00
1387.271, 61333.00
1388.326, 61202.00
1389.381, 61017.00
1390.435, 61381.00
1391.490, 61413.00
1392.544, 61289.00
1393.598, 61454.00
1394.652, 61449.00
1395.705, 61468.00
1396.759, 61632.00
1397.812, 61623.42
1398.866, 61751.00
1399.919, 61724.00
1400.972, 62044.00
1402.024, 62120.00
1403.077, 61931.00
1404.129, 61935.00
1405.181, 61752.00
1406.233, 62007.00
1407.285, 62045.00
1408.337, 62098.00
1409.389, 62254.00
1410.440, 62155.00
1411.491, 62129.00
1412.542, 62137.00
1413.593, 62135.00
1414.644, 62350.00
1415.695, 62223.00
1416.745, 62643.00
1417.795, 62821.00
1418.845, 62522.00
1419.895, 62614.00
1420.945, 62625.00
1421.995, 62694.00
1423.044, 62721.00
1424.093, 62644.00
1425.142, 62803.00
1426.191, 62853.00
1427.240, 63145.00
1428.289, 63142.00
1429.337, 63312.00
1430.385, 63546.00
1431.433, 63655.00
1432.481, 63758.00
1433.529, 63905.00
1434.577, 63944.00
1435.624, 63720.00
1436.672, 64001.00
1437.719, 64122.00
1438.766, 64470.00
1439.812, 64438.00
1440.859, 64368.00
1441.905, 64183.00
1442.952, 64352.00
1443.998, 64375.00
1445.044, 64482.00
1446.090, 64228.00
1447.135, 64490.00
1448.181, 64639.00
1449.226, 64427.00
1450.271, 64553.00
1451.316, 64533.00
1452.361, 64787.00
1453.405, 64718.00
1454.450, 64634.00
1455.494, 64558.00
1456.538, 64745.00
1457.582, 64635.00
1458.626, 64813.00
1459.670, 64876.00
1460.713, 64671.00
1461.757, 64587.00
1462.800, 64554.00
1463.843, 64840.00
1464.886, 64960.00
1465.928, 64890.00
1466.971, 64795.00
1468.013, 64822.00
1469.055, 64627.00
1470.097, 64653.52
1471.139, 64734.00
1472.181, 64610.00
1473.222, 64556.00
1474.263, 64502.00
1475.305, 64501.34
1476.346, 64684.00
1477.386, 64564.00
1478.427, 64625.00
1479.468, 64667.00
1480.508, 64629.00
1481.548, 64796.00
1482.588, 65007.00
1483.628, 64735.00
1484.668, 64745.00
1485.707, 64362.00
1486.747, 64759.00
1487.786, 64781.00
1488.825, 64608.00
1489.864, 64801.00
1490.902, 65056.00
1491.941, 65048.00
1492.979, 64904.00
1494.017, 64851.00
1495.055, 64915.00
1496.093, 64774.00
1497.131, 64939.00
1498.168, 65019.00
1499.206, 64942.00
1500.243, 64884.00
1501.280, 64950.00
1502.317, 65298.00
1503.354, 65136.00
1504.390, 65520.00
1505.426, 65241.00
1506.463, 65276.00
1507.499, 65087.00
1508.535, 65433.00
1509.570, 65529.00
1510.606, 65382.00
##END=



