##NAMES=Elbaite
##RRUFFID=R060560
##IDEAL CHEMISTRY=Na(Al_1.5_Li_1.5_)Al_6_(Si_6_O_18_)(BO_3_)_3_(OH)_3_OH
##LOCALITY=California, USA
##OWNER=RRUFF
##SOURCE=Gemological Institute of America
##DESCRIPTION=Pink fragment
##STATUS=The identification of this mineral has been confirmed by X-ray diffraction and chemical analysis
##URL=rruff.info/R060560
##MEASURED CHEMISTRY=(Na_0.56_Ca_0.12_[box]_0.32_)(Al_1.60_Li_1.40_)Al_6_(BO_3_)_3_[Si_6_O_18_](OH)_4_
##PIN_ID=L01306
##ORIENTATION=Laser parallel to c* (0 0 1). Fiducial mark perpendicular to laser is parallel to a [1 0 0]
118.1340, 11111.00
119.3650, 11129.00
120.5960, 11444.00
121.8270, 11578.00
123.0580, 11913.00
124.2880, 12251.00
125.5190, 12261.00
126.7490, 12575.00
127.9790, 12767.00
129.2090, 13108.00
130.4390, 13309.00
131.6680, 13486.00
132.8980, 13594.35
134.1270, 13574.00
135.3560, 13615.00
136.5850, 13483.00
137.8140, 13347.00
139.0430, 13409.00
140.2710, 13298.00
141.5000, 12905.00
142.7280, 12881.00
143.9560, 12929.00
145.1840, 12812.00
146.4120, 12993.00
147.6390, 12838.00
148.8670, 13015.00
150.0940, 13472.00
151.3210, 13414.00
152.5490, 13321.00
153.7750, 13033.00
155.0020, 12944.00
156.2290, 12845.00
157.4550, 12372.00
158.6810, 12196.00
159.9080, 11982.00
161.1340, 12037.00
162.3590, 12017.00
163.5850, 11782.00
164.8110, 11989.00
166.0360, 11877.00
167.2610, 11776.00
168.4860, 12024.00
169.7110, 11951.00
170.9360, 12134.00
172.1610, 12114.00
173.3850, 12090.00
174.6100, 12116.00
175.8340, 12513.00
177.0580, 12390.00
178.2820, 12620.00
179.5050, 12711.00
180.7290, 12524.00
181.9520, 12579.00
183.1760, 12623.00
184.3990, 12921.00
185.6220, 12789.00
186.8450, 13137.00
188.0670, 13539.00
189.2900, 13606.11
190.5120, 13837.00
191.7340, 14028.00
192.9560, 14401.00
194.1780, 14623.00
195.4000, 14967.00
196.6220, 15167.00
197.8430, 15478.00
199.0640, 15562.00
200.2860, 15868.00
201.5070, 16121.00
202.7270, 16522.00
203.9480, 16450.00
205.1690, 16634.00
206.3890, 16801.00
207.6090, 17345.00
208.8290, 17825.00
210.0490, 18336.00
211.2690, 19271.00
212.4890, 19934.00
213.7080, 20805.00
214.9280, 21983.00
216.1470, 23262.00
217.3660, 24752.00
218.5850, 26302.00
219.8030, 28202.00
221.0220, 30013.00
222.2400, 31295.00
223.4590, 32361.00
224.6770, 32674.00
225.8950, 32246.00
227.1120, 31101.00
228.3300, 30127.00
229.5480, 28833.00
230.7650, 27645.00
231.9820, 26781.00
233.1990, 25878.00
234.4160, 25262.00
235.6330, 24887.00
236.8490, 24921.00
238.0660, 24558.00
239.2820, 24490.00
240.4980, 24609.00
241.7140, 24533.00
242.9300, 24446.00
244.1460, 24298.00
245.3610, 24000.62
246.5770, 23618.78
247.7920, 23230.00
249.0070, 22554.00
250.2220, 21991.00
251.4370, 21258.00
252.6510, 20733.00
253.8660, 19966.00
255.0800, 19345.00
256.2940, 19102.00
257.5080, 18763.00
258.7220, 18379.24
259.9360, 18093.95
261.1490, 17873.00
262.3630, 17513.00
263.5760, 17504.00
264.7890, 17397.00
266.0020, 17317.00
267.2150, 17491.00
268.4270, 17692.00
269.6400, 17756.00
270.8520, 17963.00
272.0640, 18050.00
273.2760, 18225.00
274.4880, 18410.00
275.7000, 18464.00
276.9120, 18566.00
278.1230, 18590.11
279.3340, 18474.00
280.5450, 18538.00
281.7560, 18352.00
282.9670, 18223.00
284.1780, 18106.00
285.3880, 18037.00
286.5980, 18022.00
287.8090, 17603.00
289.0190, 17374.00
290.2290, 17339.00
291.4380, 16847.00
292.6480, 16445.00
293.8570, 16218.00
295.0670, 15917.00
296.2760, 15625.00
297.4850, 15659.00
298.6930, 15539.00
299.9020, 15511.00
301.1110, 15656.00
302.3190, 15793.00
303.5270, 16015.00
304.7350, 16310.00
305.9430, 16815.00
307.1510, 17140.00
308.3580, 17447.00
309.5660, 17820.00
310.7730, 17984.00
311.9800, 18298.00
313.1870, 18437.00
314.3940, 18511.00
315.6010, 18983.00
316.8070, 18992.00
318.0130, 19237.00
319.2200, 19427.00
320.4260, 19866.00
321.6310, 20118.00
322.8370, 20645.00
324.0430, 21196.00
325.2480, 21769.00
326.4540, 22480.00
327.6590, 23077.00
328.8640, 23182.00
330.0680, 23456.00
331.2730, 23477.00
332.4780, 23384.00
333.6820, 23385.00
334.8860, 23246.00
336.0900, 22655.00
337.2940, 22621.00
338.4980, 22265.00
339.7010, 22376.00
340.9050, 21915.00
342.1080, 21695.00
343.3110, 21617.00
344.5140, 21447.74
345.7170, 21619.00
346.9200, 21456.00
348.1220, 21710.00
349.3240, 21884.00
350.5270, 22098.00
351.7290, 22294.00
352.9310, 22357.00
354.1320, 22970.00
355.3340, 23320.00
356.5350, 23529.00
357.7370, 24212.00
358.9380, 25051.00
360.1390, 25866.00
361.3400, 26973.00
362.5400, 27877.00
363.7410, 29045.00
364.9410, 30502.00
366.1410, 31933.00
367.3410, 33340.00
368.5410, 35092.00
369.7410, 36772.00
370.9400, 38459.00
372.1400, 40687.00
373.3390, 42495.00
374.5380, 44497.00
375.7370, 45984.00
376.9360, 46822.00
378.1350, 47017.00
379.3330, 46385.00
380.5310, 45252.00
381.7300, 43053.00
382.9280, 40660.00
384.1260, 38255.00
385.3230, 35774.00
386.5210, 33587.00
387.7180, 31791.00
388.9160, 30398.00
390.1130, 28994.00
391.3100, 28112.00
392.5060, 27629.00
393.7030, 27119.00
394.9000, 26808.00
396.0960, 26568.00
397.2920, 26449.00
398.4880, 26541.00
399.6840, 27156.00
400.8800, 27186.00
402.0750, 27556.00
403.2710, 27859.00
404.4660, 28029.00
405.6610, 28248.00
406.8560, 28610.00
408.0510, 28252.00
409.2450, 28467.00
410.4400, 28316.00
411.6340, 27762.00
412.8280, 27407.00
414.0220, 26361.00
415.2160, 25789.00
416.4100, 24895.00
417.6030, 23906.00
418.7970, 22880.00
419.9900, 22095.00
421.1830, 21101.00
422.3760, 20395.00
423.5690, 19791.00
424.7610, 19268.00
425.9540, 18884.00
427.1460, 18499.00
428.3380, 18339.00
429.5300, 18109.00
430.7220, 18025.00
431.9140, 18043.00
433.1050, 18182.00
434.2970, 18222.00
435.4880, 18293.00
436.6790, 18397.00
437.8700, 18673.00
439.0610, 18633.00
440.2510, 18881.00
441.4420, 19002.00
442.6320, 19369.00
443.8220, 19628.00
445.0120, 19624.00
446.2020, 19969.00
447.3910, 19979.00
448.5810, 20217.00
449.7700, 20038.00
450.9600, 20103.00
452.1490, 20066.00
453.3370, 20062.00
454.5260, 19956.00
455.7150, 19983.00
456.9030, 19852.00
458.0910, 19743.00
459.2800, 19715.47
460.4670, 19573.01
461.6550, 19569.00
462.8430, 19408.00
464.0300, 19265.00
465.2180, 19294.00
466.4050, 19337.00
467.5920, 19324.00
468.7790, 19328.39
469.9650, 19291.00
471.1520, 19258.00
472.3380, 19236.59
473.5250, 19217.00
474.7110, 19156.00
475.8970, 19115.00
477.0820, 19037.00
478.2680, 19114.00
479.4540, 19143.00
480.6390, 18814.00
481.8240, 18988.00
483.0090, 18992.00
484.1940, 18935.00
485.3780, 19020.00
486.5630, 18927.00
487.7470, 18975.00
488.9320, 18832.00
490.1160, 19039.00
491.3000, 18990.00
492.4830, 18961.00
493.6670, 19057.00
494.8500, 19262.00
496.0340, 19088.00
497.2170, 19437.00
498.4000, 19428.00
499.5820, 19644.00
500.7650, 19825.00
501.9480, 20010.00
503.1300, 20407.00
504.3120, 20668.00
505.4940, 20944.00
506.6760, 21165.00
507.8580, 21451.69
509.0390, 21753.00
510.2210, 22038.00
511.4020, 22183.00
512.5830, 22553.00
513.7640, 22772.00
514.9450, 23246.00
516.1250, 23162.00
517.3060, 23433.00
518.4860, 23559.00
519.6660, 23584.00
520.8460, 23607.00
522.0260, 23301.00
523.2060, 22910.00
524.3850, 22972.00
525.5650, 22836.00
526.7440, 22610.00
527.9230, 22666.00
529.1020, 22880.00
530.2810, 22957.00
531.4590, 23403.00
532.6380, 23433.00
533.8160, 23923.00
534.9940, 24784.00
536.1720, 25063.00
537.3500, 25564.00
538.5270, 26048.00
539.7050, 26295.00
540.8820, 26481.00
542.0590, 26473.00
543.2360, 26466.00
544.4130, 26513.00
545.5900, 26376.00
546.7660, 26357.00
547.9430, 26350.00
549.1190, 26229.00
550.2950, 26324.00
551.4710, 26159.00
552.6470, 26104.00
553.8220, 25962.00
554.9980, 25766.00
556.1730, 25508.00
557.3480, 25064.00
558.5230, 24872.07
559.6980, 24590.56
560.8730, 24324.00
562.0470, 24066.00
563.2220, 23789.00
564.3960, 23383.00
565.5700, 22819.00
566.7440, 22412.00
567.9170, 21863.00
569.0910, 21558.00
570.2640, 21118.00
571.4380, 20649.00
572.6110, 20281.00
573.7840, 19985.00
574.9570, 19888.00
576.1290, 19415.00
577.3020, 19328.00
578.4740, 19074.00
579.6460, 18919.00
580.8180, 18710.00
581.9900, 18596.00
583.1620, 18430.00
584.3330, 18349.38
585.5040, 18146.00
586.6760, 18223.00
587.8470, 18063.00
589.0180, 17995.00
590.1880, 17799.00
591.3590, 17806.00
592.5290, 17588.00
593.7000, 17482.00
594.8700, 17268.00
596.0400, 17305.00
597.2090, 17154.00
598.3790, 17026.00
599.5490, 17047.00
600.7180, 17037.00
601.8870, 16904.00
603.0560, 16802.00
604.2250, 16687.00
605.3940, 16600.00
606.5620, 16555.00
607.7300, 16409.00
608.8990, 16445.00
610.0670, 16372.00
611.2350, 16141.00
612.4020, 16358.00
613.5700, 16151.00
614.7370, 16079.00
615.9050, 15998.00
617.0720, 15994.00
618.2390, 15902.00
619.4060, 15940.00
620.5720, 15947.00
621.7390, 15784.00
622.9050, 15990.00
624.0710, 15922.00
625.2370, 15838.00
626.4030, 15998.00
627.5690, 16112.00
628.7340, 15999.00
629.9000, 15926.00
631.0650, 15953.00
632.2300, 16085.00
633.3950, 16056.00
634.5600, 16071.00
635.7240, 16227.00
636.8890, 16211.00
638.0530, 16183.00
639.2170, 16502.00
640.3810, 16210.00
641.5450, 16535.00
642.7080, 16441.00
643.8720, 16471.00
645.0350, 16518.00
646.1980, 16604.00
647.3610, 16409.00
648.5240, 16470.00
649.6870, 16325.00
650.8490, 16353.00
652.0120, 16231.00
653.1740, 16248.00
654.3360, 15987.00
655.4980, 16140.00
656.6600, 15912.00
657.8210, 15923.00
658.9830, 15903.00
660.1440, 15841.00
661.3050, 16004.00
662.4660, 16157.00
663.6270, 16101.00
664.7870, 16109.00
665.9480, 16345.00
667.1080, 16193.00
668.2680, 16323.00
669.4280, 16322.00
670.5880, 16588.00
671.7480, 16494.00
672.9070, 16547.00
674.0670, 16770.00
675.2260, 16726.00
676.3850, 16363.00
677.5440, 16558.00
678.7030, 16378.00
679.8610, 16436.00
681.0200, 16173.00
682.1780, 16083.00
683.3360, 15788.00
684.4940, 15697.00
685.6520, 15556.00
686.8090, 15329.00
687.9670, 15166.00
689.1240, 15085.00
690.2810, 15215.00
691.4380, 15015.00
692.5950, 14976.00
693.7520, 15290.00
694.9080, 15433.00
696.0650, 15427.00
697.2210, 15512.00
698.3770, 15766.00
699.5330, 15858.00
700.6880, 16162.00
701.8440, 16207.00
702.9990, 16462.00
704.1550, 16958.00
705.3100, 16927.00
706.4650, 17481.00
707.6190, 17901.00
708.7740, 18437.00
709.9290, 18972.00
711.0830, 19669.00
712.2370, 20195.00
713.3910, 21048.00
714.5450, 22041.00
715.6980, 23064.00
716.8520, 24544.00
718.0050, 25912.00
719.1580, 27721.00
720.3110, 29856.00
721.4640, 32397.00
722.6170, 35579.00
723.7700, 38744.00
724.9220, 42892.00
726.0740, 46914.00
727.2260, 51571.00
728.3780, 55237.00
729.5300, 59265.00
730.6810, 61797.00
731.8330, 63176.00
732.9840, 62507.00
734.1350, 60786.00
735.2860, 57824.00
736.4370, 54037.00
737.5880, 49750.00
738.7380, 45276.00
739.8880, 41511.00
741.0390, 38144.00
742.1890, 34887.00
743.3380, 32822.00
744.4880, 30748.00
745.6380, 28740.00
746.7870, 27348.00
747.9360, 25907.00
749.0850, 24984.00
750.2340, 23930.00
751.3830, 23031.00
752.5310, 22263.00
753.6800, 21963.00
754.8280, 21177.00
755.9760, 20927.00
757.1240, 20751.00
758.2720, 20235.00
759.4190, 20032.00
760.5670, 19777.00
761.7140, 19374.00
762.8610, 18940.00
764.0080, 18819.00
765.1550, 18472.00
766.3020, 18167.00
767.4480, 17784.00
768.5950, 17447.00
769.7410, 17058.00
770.8870, 16827.00
772.0330, 16530.70
773.1780, 16337.00
774.3240, 16073.00
775.4690, 15870.00
776.6140, 15707.00
777.7590, 15518.06
778.9040, 15521.00
780.0490, 15342.00
781.1940, 15178.00
782.3380, 15363.00
783.4820, 15037.00
784.6260, 14985.00
785.7700, 15058.00
786.9140, 15062.00
788.0580, 15119.00
789.2010, 15139.00
790.3450, 15054.00
791.4880, 15360.00
792.6310, 15279.00
793.7730, 15262.00
794.9160, 15200.00
796.0590, 15392.00
797.2010, 15396.00
798.3430, 15429.00
799.4850, 15541.00
800.6270, 15543.00
801.7690, 15681.00
802.9100, 15535.00
804.0520, 15677.00
805.1930, 15577.00
806.3340, 15417.00
807.4750, 15421.00
808.6160, 15105.00
809.7560, 15233.00
810.8970, 14724.00
812.0370, 14955.00
813.1770, 14802.00
814.3170, 14603.00
815.4570, 14656.00
816.5960, 14592.00
817.7360, 14601.00
818.8750, 14664.00
820.0140, 14754.00
821.1530, 14604.00
822.2920, 14722.00
823.4310, 14726.00
824.5690, 14847.00
825.7070, 14702.00
826.8460, 15002.00
827.9840, 14922.00
829.1220, 15094.00
830.2590, 15008.00
831.3970, 14984.00
832.5340, 14951.00
833.6710, 15237.00
834.8080, 15117.00
835.9450, 15229.00
837.0820, 15216.00
838.2190, 15108.00
839.3550, 15337.00
840.4910, 15240.00
841.6270, 15226.00
842.7630, 15251.00
843.8990, 15149.00
845.0350, 15115.00
846.1700, 15148.00
847.3060, 15271.00
848.4410, 15185.00
849.5760, 15336.00
850.7100, 15320.00
851.8450, 15268.00
852.9800, 15366.00
854.1140, 15421.00
855.2480, 15428.00
856.3820, 15503.00
857.5160, 15696.00
858.6500, 15729.00
859.7830, 15796.00
860.9170, 15816.00
862.0500, 15816.00
863.1830, 15798.00
864.3160, 16079.00
865.4480, 15953.00
866.5810, 16113.00
867.7130, 16109.00
868.8460, 16171.00
869.9780, 16285.00
871.1100, 16259.00
872.2410, 16286.00
873.3730, 16479.00
874.5050, 16404.00
875.6360, 16539.00
876.7670, 16692.00
877.8980, 16784.00
879.0290, 16881.00
880.1590, 16646.00
881.2900, 16710.00
882.4200, 16621.00
883.5500, 16637.00
884.6800, 16608.00
885.8100, 16589.00
886.9400, 16466.00
888.0690, 16445.00
889.1990, 16311.00
890.3280, 16344.00
891.4570, 16447.00
892.5860, 16420.00
893.7140, 16370.00
894.8430, 16337.67
895.9710, 16169.00
897.1000, 16143.00
898.2280, 16021.00
899.3560, 15867.00
900.4830, 15838.00
901.6110, 15775.00
902.7380, 15832.00
903.8660, 15797.00
904.9930, 15723.00
906.1200, 15655.00
907.2460, 15593.00
908.3730, 15518.00
909.5000, 15485.00
910.6260, 15541.00
911.7520, 15672.00
912.8780, 15525.00
914.0040, 15727.00
915.1290, 15753.00
916.2550, 15797.00
917.3800, 15881.00
918.5050, 15883.00
919.6300, 15973.00
920.7550, 16023.68
921.8800, 16086.57
923.0040, 16184.00
924.1290, 16215.00
925.2530, 16370.00
926.3770, 16398.00
927.5010, 16621.00
928.6250, 16759.00
929.7480, 16760.00
930.8720, 17065.00
931.9950, 17228.00
933.1180, 17202.00
934.2410, 17459.00
935.3640, 17529.00
936.4860, 17544.00
937.6090, 17797.00
938.7310, 17998.00
939.8530, 17975.00
940.9750, 18024.00
942.0970, 18128.00
943.2180, 18322.00
944.3400, 18357.00
945.4610, 18520.00
946.5820, 18530.00
947.7030, 18674.00
948.8240, 18766.00
949.9450, 18598.00
951.0650, 18657.00
952.1860, 18656.00
953.3060, 18780.00
954.4260, 18781.00
955.5460, 18698.00
956.6650, 18833.00
957.7850, 18819.41
958.9040, 18921.15
960.0230, 18882.00
961.1420, 19140.00
962.2610, 19118.00
963.3800, 19191.00
964.4990, 19207.00
965.6170, 19343.00
966.7350, 19358.00
967.8530, 19571.00
968.9710, 19517.00
970.0890, 19606.00
971.2070, 19951.00
972.3240, 20046.00
973.4410, 20188.00
974.5580, 20347.00
975.6750, 20554.00
976.7920, 20634.32
977.9090, 20624.00
979.0250, 20827.00
980.1410, 20827.00
981.2580, 20926.28
982.3740, 20800.00
983.4890, 20895.00
984.6050, 20941.00
985.7200, 20849.00
986.8360, 21088.00
987.9510, 20665.00
989.0660, 20759.00
990.1810, 20666.00
991.2950, 20889.00
992.4100, 20623.00
993.5240, 20549.00
994.6390, 20477.00
995.7530, 20459.00
996.8660, 20432.00
997.9800, 20518.00
999.0940, 20434.00
1000.207, 20495.00
1001.320, 20505.00
1002.433, 20477.00
1003.546, 20642.00
1004.659, 20699.00
1005.772, 20631.00
1006.884, 20510.00
1007.996, 20894.00
1009.108, 20856.00
1010.220, 20942.00
1011.332, 21063.00
1012.444, 21278.00
1013.555, 21511.00
1014.666, 21678.00
1015.777, 21812.00
1016.888, 22089.25
1017.999, 22312.00
1019.110, 22634.00
1020.220, 22865.00
1021.331, 23201.00
1022.441, 23568.00
1023.551, 23603.00
1024.661, 24127.00
1025.770, 24145.00
1026.880, 24570.00
1027.989, 24667.00
1029.098, 25011.00
1030.207, 25065.00
1031.316, 25520.00
1032.425, 25718.00
1033.533, 25567.00
1034.642, 25818.00
1035.750, 25791.00
1036.858, 26071.00
1037.966, 26125.00
1039.073, 26382.26
1040.181, 26723.00
1041.288, 27006.00
1042.396, 27339.00
1043.503, 27730.99
1044.610, 28110.00
1045.716, 28569.00
1046.823, 29060.00
1047.929, 29546.00
1049.036, 30036.00
1050.142, 30724.00
1051.248, 31217.00
1052.353, 32043.00
1053.459, 32669.00
1054.564, 33469.00
1055.670, 34414.00
1056.775, 35612.00
1057.880, 36754.00
1058.985, 37872.00
1060.089, 39060.00
1061.194, 40837.00
1062.298, 42262.00
1063.402, 43479.00
1064.506, 45128.00
1065.610, 46053.00
1066.713, 47100.00
1067.817, 47908.00
1068.920, 47797.00
1070.023, 47902.00
1071.126, 47071.00
1072.229, 46634.00
1073.332, 45003.00
1074.435, 43474.00
1075.537, 42209.00
1076.639, 40124.00
1077.741, 38470.00
1078.843, 36612.00
1079.945, 35258.00
1081.046, 33694.00
1082.148, 31827.00
1083.249, 30652.00
1084.350, 29499.00
1085.451, 28083.00
1086.551, 27225.00
1087.652, 26045.00
1088.752, 25209.00
1089.853, 24557.00
1090.953, 23735.00
1092.053, 23353.00
1093.152, 22682.00
1094.252, 22090.00
1095.351, 21968.00
1096.451, 21542.00
1097.550, 21455.00
1098.649, 20838.00
1099.748, 21071.00
1100.846, 20671.00
1101.945, 20788.00
1103.043, 20519.00
1104.141, 20334.00
1105.239, 20264.00
1106.337, 20193.00
1107.434, 19984.00
1108.532, 19962.00
1109.629, 19728.00
1110.726, 19723.00
1111.823, 19639.00
1112.920, 19575.00
1114.017, 19538.78
1115.113, 19365.00
1116.210, 19441.00
1117.306, 19439.00
1118.402, 19395.00
1119.498, 19253.00
1120.593, 19316.00
1121.689, 18986.00
1122.784, 19309.00
1123.879, 19028.00
1124.974, 19119.00
1126.069, 18977.00
1127.164, 18927.00
1128.259, 19044.00
1129.353, 18967.00
1130.447, 19088.00
1131.541, 18947.00
1132.635, 18808.00
1133.729, 18919.00
1134.822, 18679.00
1135.916, 18883.00
1137.009, 18961.00
1138.102, 19046.00
1139.195, 19055.19
1140.288, 19011.00
1141.380, 19045.00
1142.473, 19001.33
1143.565, 18982.00
1144.657, 18913.00
1145.749, 18908.00
1146.841, 18816.00
1147.932, 18869.00
1149.024, 18647.00
1150.115, 18652.00
1151.206, 18588.00
1152.297, 18374.00
1153.388, 18201.00
1154.479, 18162.17
1155.569, 18471.00
1156.659, 18115.00
1157.750, 18148.00
1158.839, 18251.00
1159.929, 18002.00
1161.019, 18004.00
1162.108, 17850.00
1163.198, 18073.00
1164.287, 17972.00
1165.376, 17893.00
1166.465, 17965.00
1167.553, 17905.00
1168.642, 18044.00
1169.730, 17752.00
1170.818, 17879.00
1171.906, 17936.00
1172.994, 18140.00
1174.082, 18038.00
1175.170, 17916.00
1176.257, 17973.00
1177.344, 18018.00
1178.431, 17883.00
1179.518, 17911.00
1180.605, 18085.00
1181.691, 17849.00
1182.778, 18176.00
1183.864, 18020.00
1184.950, 17996.00
1186.036, 17972.00
1187.122, 18088.00
1188.207, 18094.00
1189.292, 18130.00
1190.378, 18190.09
1191.463, 18105.00
1192.548, 18233.00
1193.632, 18202.00
1194.717, 18132.00
1195.801, 18136.00
1196.886, 18151.00
1197.970, 18135.00
1199.054, 18339.00
1200.137, 18238.00
1201.221, 17977.00
1202.305, 18238.00
1203.388, 18156.00
1204.471, 18180.00
1205.554, 18206.00
1206.637, 18129.00
1207.719, 18328.00
1208.802, 18226.00
1209.884, 18294.00
1210.966, 18353.00
1212.048, 18494.00
1213.130, 18289.00
1214.212, 18444.00
1215.293, 18304.00
1216.374, 18397.00
1217.456, 18548.00
1218.536, 18495.00
1219.617, 18310.00
1220.698, 18269.00
1221.778, 18589.00
1222.859, 18422.00
1223.939, 18613.00
1225.019, 18650.00
1226.099, 18552.00
1227.178, 18546.00
1228.258, 18380.00
1229.337, 18651.00
1230.417, 18674.00
1231.496, 18607.00
1232.574, 18708.00
1233.653, 18699.00
1234.732, 18691.00
1235.810, 18852.00
1236.888, 18702.00
1237.966, 18925.00
1239.044, 18784.00
1240.122, 18603.00
1241.199, 18849.00
1242.277, 18838.00
1243.354, 18844.00
1244.431, 18803.00
1245.508, 18821.00
1246.585, 18796.00
1247.661, 18761.00
1248.738, 18952.00
1249.814, 18735.00
1250.890, 18947.00
1251.966, 18919.00
1253.042, 18895.00
1254.117, 18877.00
1255.193, 19069.00
1256.268, 19259.00
1257.343, 19085.00
1258.418, 19044.00
1259.493, 18937.00
1260.567, 19275.00
1261.642, 19270.00
1262.716, 19142.00
1263.790, 19460.00
1264.864, 19400.00
1265.938, 19477.00
1267.011, 19425.00
1268.085, 19348.00
1269.158, 19485.00
1270.231, 19402.00
1271.304, 19562.00
1272.377, 19536.00
1273.450, 19607.00
1274.522, 19577.00
1275.594, 19649.00
1276.666, 19611.00
1277.738, 19520.00
1278.810, 19566.00
1279.882, 19610.00
1280.953, 19747.00
1282.025, 19638.00
1283.096, 19795.00
1284.167, 19770.00
1285.238, 19689.00
1286.308, 19779.00
1287.379, 19777.00
1288.449, 19970.00
1289.519, 19763.00
1290.589, 19784.00
1291.659, 19936.00
1292.729, 19772.00
1293.798, 19842.00
1294.868, 19888.00
1295.937, 19826.00
1297.006, 20061.00
1298.075, 19986.00
1299.143, 20067.72
1300.212, 20066.52
1301.280, 20159.00
1302.348, 20022.00
1303.416, 20048.00
1304.484, 20095.00
1305.552, 20087.00
1306.620, 20127.75
1307.687, 20084.00
1308.754, 20178.00
1309.821, 20196.00
1310.888, 20214.00
1311.955, 20313.00
1313.021, 20146.00
1314.088, 20324.00
1315.154, 20278.00
1316.220, 20316.00
1317.286, 20381.00
1318.352, 20228.00
1319.417, 20330.00
1320.483, 20331.00
1321.548, 20511.00
1322.613, 20299.00
1323.678, 20497.00
1324.743, 20490.00
1325.807, 20403.00
1326.872, 20372.00
1327.936, 20433.00
1329.000, 20472.00
1330.064, 20523.00
1331.128, 20516.00
1332.191, 20499.00
1333.255, 20538.61
1334.318, 20620.00
1335.381, 20594.00
1336.444, 20640.00
1337.507, 20692.00
1338.569, 20704.69
1339.632, 20705.61
1340.694, 20777.00
1341.756, 20677.00
1342.818, 20708.00
1343.880, 20714.00
1344.941, 20658.00
1346.003, 20455.00
1347.064, 20707.00
1348.125, 20600.00
1349.186, 20464.00
1350.247, 20638.00
1351.308, 20739.00
1352.368, 20791.00
1353.428, 20838.30
1354.489, 20591.00
1355.549, 20838.00
1356.608, 20746.00
1357.668, 20746.00
1358.727, 20907.00
1359.787, 20774.00
1360.846, 20940.00
1361.905, 20931.00
1362.964, 20814.00
1364.022, 20844.00
1365.081, 20832.00
1366.139, 20889.00
1367.197, 20981.00
1368.255, 20886.00
1369.313, 20949.00
1370.371, 21165.00
1371.428, 20940.00
1372.486, 21083.00
1373.543, 21218.00
1374.600, 21025.00
1375.657, 21180.00
1376.713, 21258.00
1377.770, 21187.00
1378.826, 21254.00
1379.882, 21347.00
1380.938, 21255.00
1381.994, 21492.00
1383.050, 21615.00
1384.106, 21449.00
1385.161, 21486.00
1386.216, 21654.00
1387.271, 21801.00
1388.326, 21862.00
1389.381, 22030.00
1390.435, 21989.00
1391.490, 22024.00
1392.544, 22221.00
1393.598, 22429.00
1394.652, 22370.00
1395.705, 22555.00
1396.759, 22388.00
1397.812, 22439.00
1398.866, 22498.00
1399.919, 22723.00
1400.972, 22693.00
1402.024, 22844.00
1403.077, 22628.00
1404.129, 22633.00
1405.181, 22870.00
1406.233, 22610.00
1407.285, 22655.00
1408.337, 22693.00
1409.389, 22530.00
1410.440, 22630.00
1411.491, 22578.00
1412.542, 22544.00
1413.593, 22530.00
1414.644, 22589.00
1415.695, 22511.34
1416.745, 22399.00
1417.795, 22393.00
1418.845, 22267.00
1419.895, 22171.00
1420.945, 22209.00
1421.995, 22134.00
1423.044, 22110.85
1424.093, 22090.00
1425.142, 22039.00
1426.191, 22067.00
1427.240, 22002.00
1428.289, 21982.00
1429.337, 22044.00
1430.385, 22029.00
1431.433, 21941.00
1432.481, 22127.00
1433.529, 22239.00
1434.577, 22042.00
1435.624, 22039.00
1436.672, 22328.00
1437.719, 22318.00
1438.766, 22496.00
1439.812, 22446.00
1440.859, 22571.00
1441.905, 22573.70
1442.952, 22597.56
1443.998, 22565.00
1445.044, 22634.00
1446.090, 22625.00
1447.135, 22615.00
1448.181, 22793.00
1449.226, 22781.27
1450.271, 22772.00
1451.316, 22901.00
1452.361, 23090.00
1453.405, 23172.00
1454.450, 23068.00
1455.494, 23318.00
1456.538, 23461.00
1457.582, 23669.00
1458.626, 23862.00
1459.670, 24033.00
1460.713, 24194.00
1461.757, 24218.00
1462.800, 24323.00
1463.843, 24431.00
1464.886, 24399.00
1465.928, 24223.00
1466.971, 24087.00
1468.013, 23856.00
1469.055, 23763.00
1470.097, 23483.00
1471.139, 23325.29
1472.181, 23085.00
1473.222, 22979.00
1474.263, 22824.00
1475.305, 22722.00
1476.346, 22627.00
1477.386, 22629.00
1478.427, 22499.00
1479.468, 22447.00
1480.508, 22284.00
1481.548, 22254.88
1482.588, 22351.00
1483.628, 22180.00
1484.668, 22164.00
1485.707, 22145.22
1486.747, 22358.00
1487.786, 22168.00
1488.825, 22355.00
1489.864, 22385.00
1490.902, 22313.00
1491.941, 22303.00
1492.979, 22181.00
1494.017, 22233.00
1495.055, 22182.00
1496.093, 22273.00
1497.131, 22436.00
1498.168, 22339.00
1499.206, 22530.00
1500.243, 22584.00
1501.280, 22714.00
1502.317, 22901.00
1503.354, 22779.00
1504.390, 23123.00
1505.426, 22722.00
1506.463, 23012.00
1507.499, 22879.00
1508.535, 22835.00
1509.570, 23154.00
1510.606, 23170.00
1511.641, 22933.00
1512.676, 23014.00
1513.711, 22890.00
1514.746, 22868.01
1515.781, 22870.00
1516.816, 22881.00
1517.850, 22869.62
1518.884, 23083.00
1519.918, 22891.00
1520.952, 22938.00
1521.986, 23006.00
1523.019, 22855.00
1524.053, 23048.00
1525.086, 23081.00
1526.119, 22930.00
1527.152, 22920.00
1528.185, 23149.00
1529.217, 23053.00
1530.250, 22966.00
1531.282, 23130.00
1532.314, 23045.00
1533.346, 23097.00
1534.377, 22971.00
1535.409, 23039.00
1536.440, 22972.83
1537.472, 22998.00
1538.503, 22912.00
1539.534, 23009.00
1540.564, 23058.00
1541.595, 23163.00
1542.625, 23198.00
1543.656, 23130.00
1544.686, 23167.90
1545.716, 23051.00
1546.745, 23095.00
1547.775, 23040.00
1548.804, 22944.00
1549.834, 23019.00
1550.863, 23119.00
1551.892, 23128.00
1552.920, 23087.00
1553.949, 23299.00
1554.977, 23233.00
1556.006, 23163.00
1557.034, 23396.00
1558.062, 23258.00
1559.089, 23208.00
1560.117, 23051.00
1561.144, 23210.00
1562.172, 23169.00
1563.199, 23140.00
1564.226, 23279.00
1565.252, 23249.00
1566.279, 23168.00
1567.305, 23240.00
1568.332, 23217.00
1569.358, 23405.00
1570.384, 23163.00
1571.409, 23381.00
1572.435, 23473.00
##END=



