##NAMES=Elbaite
##RRUFFID=R060562
##IDEAL CHEMISTRY=Na(Al_1.5_Li_1.5_)Al_6_(Si_6_O_18_)(BO_3_)_3_(OH)_3_OH
##LOCALITY=unknown
##OWNER=RRUFF
##SOURCE=Gemological Institute of America
##DESCRIPTION=Blue colored polished fragment
##STATUS=The identification of this mineral has been confirmed by X-ray diffraction and chemical analysis
##URL=rruff.info/R060562
##MEASURED CHEMISTRY=(Na_0.68_Ca_0.20_[box]_0.12_)(Li_1.20_Al_1.12_Fe^2+^_0.50_Mn_0.18_)Al_6_(BO_3_)_3_[Si_6_O_18_]((OH)_0.80_F_0.20_)_4_
##PIN_ID=M00501
##ORIENTATION=Laser parallel to c* (0 0 1). Fiducial mark perpendicular to laser is parallel to -a [-1 0 0]
118.1340, 13821.00
119.3650, 14256.00
120.5960, 14464.00
121.8270, 15015.00
123.0580, 15515.85
124.2880, 16460.00
125.5190, 16660.00
126.7490, 17299.00
127.9790, 17802.00
129.2090, 18313.00
130.4390, 18407.00
131.6680, 18398.00
132.8980, 18370.00
134.1270, 18151.00
135.3560, 17855.65
136.5850, 17308.00
137.8140, 16956.00
139.0430, 16582.00
140.2710, 15948.00
141.5000, 15444.00
142.7280, 15250.00
143.9560, 14869.00
145.1840, 14961.00
146.4120, 15035.00
147.6390, 14961.00
148.8670, 15028.00
150.0940, 15180.00
151.3210, 15232.40
152.5490, 15522.00
153.7750, 15396.00
155.0020, 15601.00
156.2290, 15487.00
157.4550, 15226.00
158.6810, 15129.00
159.9080, 15143.00
161.1340, 15079.00
162.3590, 14987.00
163.5850, 15086.00
164.8110, 15155.00
166.0360, 14798.00
167.2610, 14622.00
168.4860, 14589.00
169.7110, 14561.00
170.9360, 14527.00
172.1610, 14367.00
173.3850, 14126.00
174.6100, 14011.00
175.8340, 14146.00
177.0580, 14222.00
178.2820, 14614.00
179.5050, 14235.00
180.7290, 14272.00
181.9520, 14647.00
183.1760, 14629.00
184.3990, 14824.00
185.6220, 15073.00
186.8450, 15262.00
188.0670, 15551.00
189.2900, 15824.00
190.5120, 16081.00
191.7340, 16538.00
192.9560, 16778.00
194.1780, 17126.61
195.4000, 17756.00
196.6220, 17772.00
197.8430, 18226.00
199.0640, 18566.00
200.2860, 18800.00
201.5070, 19185.00
202.7270, 19058.00
203.9480, 18745.00
205.1690, 18570.00
206.3890, 18538.00
207.6090, 18784.00
208.8290, 19218.00
210.0490, 19723.00
211.2690, 20598.00
212.4890, 21284.00
213.7080, 22475.00
214.9280, 23562.00
216.1470, 24856.00
217.3660, 26517.00
218.5850, 27809.00
219.8030, 29142.00
221.0220, 30522.00
222.2400, 31525.00
223.4590, 32369.00
224.6770, 32588.00
225.8950, 32881.00
227.1120, 32496.00
228.3300, 31802.00
229.5480, 31434.00
230.7650, 30745.00
231.9820, 29895.00
233.1990, 28948.00
234.4160, 28578.00
235.6330, 28063.00
236.8490, 27394.00
238.0660, 26917.00
239.2820, 26281.00
240.4980, 25600.00
241.7140, 24861.00
242.9300, 23922.00
244.1460, 23026.00
245.3610, 22137.00
246.5770, 21204.00
247.7920, 20181.00
249.0070, 19291.00
250.2220, 18343.00
251.4370, 17593.17
252.6510, 17080.00
253.8660, 16315.00
255.0800, 15793.00
256.2940, 15470.00
257.5080, 15752.00
258.7220, 15112.54
259.9360, 15373.00
261.1490, 14369.00
262.3630, 13787.00
263.5760, 13474.00
264.7890, 13484.00
266.0020, 13504.00
267.2150, 13457.00
268.4270, 13314.00
269.6400, 13250.00
270.8520, 13409.00
272.0640, 13563.00
273.2760, 13516.00
274.4880, 13526.00
275.7000, 13622.00
276.9120, 13794.00
278.1230, 13877.00
279.3340, 13903.63
280.5450, 13978.36
281.7560, 13933.00
282.9670, 13971.00
284.1780, 14049.00
285.3880, 13935.00
286.5980, 14301.00
287.8090, 14098.00
289.0190, 14335.00
290.2290, 14055.00
291.4380, 14394.00
292.6480, 14283.00
293.8570, 14363.00
295.0670, 14433.00
296.2760, 14597.00
297.4850, 14615.00
298.6930, 14851.00
299.9020, 15044.00
301.1110, 15098.00
302.3190, 15423.00
303.5270, 15699.00
304.7350, 15999.00
305.9430, 16161.00
307.1510, 16522.00
308.3580, 16964.00
309.5660, 17042.00
310.7730, 17249.00
311.9800, 17297.00
313.1870, 17478.00
314.3940, 17758.00
315.6010, 17939.00
316.8070, 18327.00
318.0130, 18392.00
319.2200, 18855.00
320.4260, 18987.00
321.6310, 19597.00
322.8370, 19964.00
324.0430, 20522.00
325.2480, 20776.00
326.4540, 20969.00
327.6590, 21556.00
328.8640, 21434.00
330.0680, 21776.00
331.2730, 22092.00
332.4780, 21720.00
333.6820, 22041.00
334.8860, 21838.00
336.0900, 21841.00
337.2940, 21635.00
338.4980, 21669.00
339.7010, 21748.00
340.9050, 21692.00
342.1080, 21637.00
343.3110, 21660.00
344.5140, 21538.52
345.7170, 21488.00
346.9200, 21366.00
348.1220, 21069.00
349.3240, 21028.00
350.5270, 20810.00
351.7290, 20758.00
352.9310, 20754.00
354.1320, 20939.00
355.3340, 21181.61
356.5350, 21477.00
357.7370, 22013.00
358.9380, 22619.00
360.1390, 23295.00
361.3400, 24358.00
362.5400, 25556.00
363.7410, 26825.00
364.9410, 28383.00
366.1410, 30606.00
367.3410, 32660.00
368.5410, 35085.00
369.7410, 37836.00
370.9400, 40697.00
372.1400, 44290.00
373.3390, 47146.00
374.5380, 50034.00
375.7370, 51438.00
376.9360, 52019.00
378.1350, 51305.00
379.3330, 49187.00
380.5310, 46001.00
381.7300, 42998.00
382.9280, 39545.00
384.1260, 36536.00
385.3230, 33696.00
386.5210, 31614.00
387.7180, 29597.00
388.9160, 28286.00
390.1130, 26941.00
391.3100, 25929.00
392.5060, 25157.00
393.7030, 24709.00
394.9000, 24304.00
396.0960, 23893.00
397.2920, 23918.00
398.4880, 23636.00
399.6840, 23765.00
400.8800, 23828.00
402.0750, 23836.00
403.2710, 24360.00
404.4660, 24560.00
405.6610, 24809.00
406.8560, 24977.00
408.0510, 24890.00
409.2450, 24668.00
410.4400, 24107.00
411.6340, 23411.00
412.8280, 22972.00
414.0220, 21787.00
415.2160, 21075.00
416.4100, 20039.00
417.6030, 19362.00
418.7970, 18827.00
419.9900, 18224.00
421.1830, 17759.00
422.3760, 17499.00
423.5690, 17190.00
424.7610, 16938.00
425.9540, 16727.00
427.1460, 16690.00
428.3380, 16597.00
429.5300, 16430.00
430.7220, 16464.00
431.9140, 16302.00
433.1050, 16162.00
434.2970, 16140.00
435.4880, 16132.57
436.6790, 16167.00
437.8700, 16257.00
439.0610, 16303.00
440.2510, 16372.00
441.4420, 16346.00
442.6320, 16372.00
443.8220, 16488.00
445.0120, 16365.00
446.2020, 16435.00
447.3910, 16429.00
448.5810, 16272.00
449.7700, 16310.00
450.9600, 16238.00
452.1490, 16199.52
453.3370, 16204.54
454.5260, 16171.00
455.7150, 16220.00
456.9030, 16253.00
458.0910, 16338.00
459.2800, 16664.00
460.4670, 16742.00
461.6550, 17010.00
462.8430, 17234.00
464.0300, 17326.00
465.2180, 17615.00
466.4050, 17807.00
467.5920, 17645.00
468.7790, 17839.00
469.9650, 17826.00
471.1520, 18060.00
472.3380, 17938.00
473.5250, 17840.00
474.7110, 17856.00
475.8970, 17595.00
477.0820, 17625.00
478.2680, 17491.00
479.4540, 17428.00
480.6390, 17340.00
481.8240, 17217.94
483.0090, 17047.00
484.1940, 17008.00
485.3780, 16757.00
486.5630, 16684.00
487.7470, 16511.00
488.9320, 16504.00
490.1160, 16489.00
491.3000, 16553.00
492.4830, 16457.00
493.6670, 16601.00
494.8500, 16593.00
496.0340, 16677.00
497.2170, 16734.00
498.4000, 16657.00
499.5820, 16695.00
500.7650, 16611.00
501.9480, 16692.00
503.1300, 16620.00
504.3120, 16592.00
505.4940, 16590.00
506.6760, 16621.00
507.8580, 16402.00
509.0390, 16321.00
510.2210, 16375.00
511.4020, 16126.00
512.5830, 16061.00
513.7640, 15993.00
514.9450, 16034.00
516.1250, 15895.17
517.3060, 15636.00
518.4860, 15666.00
519.6660, 15568.00
520.8460, 15428.00
522.0260, 15576.00
523.2060, 15471.00
524.3850, 15553.00
525.5650, 15649.00
526.7440, 15717.00
527.9230, 15750.00
529.1020, 15836.00
530.2810, 16104.00
531.4590, 16373.00
532.6380, 16526.07
533.8160, 16627.00
534.9940, 16878.00
536.1720, 17020.00
537.3500, 17090.00
538.5270, 17391.00
539.7050, 17482.00
540.8820, 17592.00
542.0590, 17727.00
543.2360, 17775.91
544.4130, 17832.00
545.5900, 17846.00
546.7660, 17891.00
547.9430, 17832.00
549.1190, 17864.00
550.2950, 17828.00
551.4710, 17584.00
552.6470, 17435.00
553.8220, 17351.00
554.9980, 17091.00
556.1730, 17023.00
557.3480, 16839.00
558.5230, 16880.00
559.6980, 16618.00
560.8730, 16423.00
562.0470, 16048.00
563.2220, 16080.00
564.3960, 15956.00
565.5700, 15743.00
566.7440, 15576.00
567.9170, 15590.00
569.0910, 15509.00
570.2640, 15613.00
571.4380, 15491.00
572.6110, 15607.00
573.7840, 15477.00
574.9570, 15618.00
576.1290, 15752.00
577.3020, 15746.00
578.4740, 15935.00
579.6460, 15853.00
580.8180, 15969.00
581.9900, 15987.00
583.1620, 15885.00
584.3330, 15987.00
585.5040, 15873.00
586.6760, 16008.00
587.8470, 15757.00
589.0180, 15772.00
590.1880, 15744.00
591.3590, 15469.00
592.5290, 15308.00
593.7000, 15218.00
594.8700, 15026.00
596.0400, 15007.00
597.2090, 14853.00
598.3790, 14816.00
599.5490, 14737.00
600.7180, 14730.00
601.8870, 14565.00
603.0560, 14462.00
604.2250, 14358.00
605.3940, 14232.00
606.5620, 14058.00
607.7300, 13771.00
608.8990, 13657.00
610.0670, 13510.00
611.2350, 13416.00
612.4020, 13221.00
613.5700, 13154.00
614.7370, 13175.00
615.9050, 13021.00
617.0720, 12940.00
618.2390, 12990.00
619.4060, 12765.00
620.5720, 12771.00
621.7390, 12810.00
622.9050, 12817.00
624.0710, 12896.00
625.2370, 12933.00
626.4030, 12979.00
627.5690, 13142.00
628.7340, 13101.00
629.9000, 13225.00
631.0650, 13387.00
632.2300, 13469.00
633.3950, 13591.00
634.5600, 13601.00
635.7240, 13694.00
636.8890, 13997.00
638.0530, 13790.00
639.2170, 13992.00
640.3810, 14025.00
641.5450, 13784.00
642.7080, 13812.00
643.8720, 13606.00
645.0350, 13654.00
646.1980, 13477.00
647.3610, 13434.00
648.5240, 13418.00
649.6870, 13634.00
650.8490, 13619.00
652.0120, 13772.00
653.1740, 14056.00
654.3360, 14125.00
655.4980, 14264.00
656.6600, 14275.00
657.8210, 14302.00
658.9830, 14293.00
660.1440, 14341.00
661.3050, 14247.00
662.4660, 14089.00
663.6270, 14089.00
664.7870, 13839.00
665.9480, 13756.00
667.1080, 13487.00
668.2680, 13537.00
669.4280, 13295.00
670.5880, 13314.00
671.7480, 13121.00
672.9070, 13228.00
674.0670, 13312.00
675.2260, 13061.00
676.3850, 13069.00
677.5440, 12876.00
678.7030, 12877.00
679.8610, 12707.00
681.0200, 12702.00
682.1780, 12524.00
683.3360, 12422.00
684.4940, 12358.55
685.6520, 12357.00
686.8090, 12294.00
687.9670, 12220.00
689.1240, 12386.00
690.2810, 12207.00
691.4380, 12473.00
692.5950, 12606.00
693.7520, 12637.00
694.9080, 12845.00
696.0650, 13117.00
697.2210, 13555.00
698.3770, 13894.00
699.5330, 14005.00
700.6880, 14527.00
701.8440, 14681.00
702.9990, 15122.00
704.1550, 15544.00
705.3100, 15940.00
706.4650, 16433.00
707.6190, 16850.00
708.7740, 17376.00
709.9290, 18078.00
711.0830, 18772.00
712.2370, 19581.00
713.3910, 20538.00
714.5450, 21834.00
715.6980, 23171.00
716.8520, 24757.00
718.0050, 26759.00
719.1580, 28614.00
720.3110, 30970.00
721.4640, 33580.00
722.6170, 36307.00
723.7700, 39247.00
724.9220, 42169.00
726.0740, 45168.00
727.2260, 47566.00
728.3780, 49104.00
729.5300, 50008.00
730.6810, 49714.00
731.8330, 48142.00
732.9840, 46294.00
734.1350, 43809.00
735.2860, 40750.00
736.4370, 38105.00
737.5880, 35555.00
738.7380, 33274.00
739.8880, 31201.00
741.0390, 29619.00
742.1890, 27892.00
743.3380, 26223.00
744.4880, 25127.00
745.6380, 23819.00
746.7870, 22689.00
747.9360, 21737.00
749.0850, 20843.00
750.2340, 19949.00
751.3830, 19269.58
752.5310, 18605.00
753.6800, 18098.00
754.8280, 17524.00
755.9760, 17145.00
757.1240, 16679.00
758.2720, 16352.00
759.4190, 15956.00
760.5670, 15665.00
761.7140, 15039.00
762.8610, 14718.00
764.0080, 14421.00
765.1550, 13930.00
766.3020, 13859.00
767.4480, 13469.00
768.5950, 13207.00
769.7410, 12920.00
770.8870, 12658.00
772.0330, 12437.00
773.1780, 12411.00
774.3240, 12549.00
775.4690, 12316.52
776.6140, 12260.61
777.7590, 12002.00
778.9040, 12005.00
780.0490, 11755.00
781.1940, 11770.00
782.3380, 11781.65
783.4820, 11713.00
784.6260, 11932.00
785.7700, 11782.00
786.9140, 11911.00
788.0580, 11848.00
789.2010, 12029.00
790.3450, 12076.00
791.4880, 12275.00
792.6310, 12270.00
793.7730, 12355.00
794.9160, 12447.00
796.0590, 12564.17
797.2010, 12738.36
798.3430, 12926.00
799.4850, 13141.00
800.6270, 13443.00
801.7690, 13675.00
802.9100, 13820.00
804.0520, 13976.00
805.1930, 14147.00
806.3340, 14100.00
807.4750, 14103.00
808.6160, 14224.00
809.7560, 13950.00
810.8970, 13911.00
812.0370, 13768.00
813.1770, 13576.00
814.3170, 13332.00
815.4570, 13182.00
816.5960, 12823.00
817.7360, 12694.00
818.8750, 12355.00
820.0140, 12297.00
821.1530, 12214.00
822.2920, 12137.00
823.4310, 12215.00
824.5690, 12095.00
825.7070, 12267.00
826.8460, 12372.00
827.9840, 12628.00
829.1220, 12586.00
830.2590, 12858.00
831.3970, 13127.00
832.5340, 13082.00
833.6710, 13229.00
834.8080, 13366.00
835.9450, 13365.00
837.0820, 13379.00
838.2190, 13337.00
839.3550, 13147.00
840.4910, 13104.00
841.6270, 12856.00
842.7630, 12635.00
843.8990, 12591.00
845.0350, 12354.00
846.1700, 12327.00
847.3060, 12058.00
848.4410, 12297.00
849.5760, 11996.00
850.7100, 12055.00
851.8450, 11927.00
852.9800, 11930.00
854.1140, 11937.00
855.2480, 11906.00
856.3820, 11960.00
857.5160, 12021.00
858.6500, 11957.00
859.7830, 11867.00
860.9170, 11740.00
862.0500, 11678.00
863.1830, 11613.00
864.3160, 11560.00
865.4480, 11523.12
866.5810, 11652.00
867.7130, 11500.00
868.8460, 11448.00
869.9780, 11513.00
871.1100, 11244.00
872.2410, 11241.00
873.3730, 11141.00
874.5050, 11160.00
875.6360, 11107.00
876.7670, 11139.00
877.8980, 11071.00
879.0290, 10966.00
880.1590, 11058.00
881.2900, 10954.00
882.4200, 11120.00
883.5500, 10976.00
884.6800, 11044.00
885.8100, 10921.00
886.9400, 11001.00
888.0690, 10932.00
889.1990, 10930.00
890.3280, 11084.00
891.4570, 11039.00
892.5860, 11021.00
893.7140, 11104.00
894.8430, 10851.00
895.9710, 10959.00
897.1000, 10954.00
898.2280, 11016.00
899.3560, 10990.00
900.4830, 11101.00
901.6110, 11075.00
902.7380, 11122.00
903.8660, 11171.00
904.9930, 11044.00
906.1200, 11156.00
907.2460, 11369.00
908.3730, 11270.00
909.5000, 11310.00
910.6260, 11271.00
911.7520, 11414.00
912.8780, 11319.00
914.0040, 11467.00
915.1290, 11432.00
916.2550, 11400.00
917.3800, 11491.00
918.5050, 11545.10
919.6300, 11724.00
920.7550, 11763.00
921.8800, 11946.00
923.0040, 12050.00
924.1290, 12129.00
925.2530, 12103.00
926.3770, 12351.00
927.5010, 12276.00
928.6250, 12571.00
929.7480, 12647.00
930.8720, 12671.00
931.9950, 12876.00
933.1180, 12920.00
934.2410, 12892.00
935.3640, 13125.00
936.4860, 13341.00
937.6090, 13368.00
938.7310, 13480.00
939.8530, 13664.00
940.9750, 13680.00
942.0970, 13935.00
943.2180, 14158.00
944.3400, 13966.00
945.4610, 14010.00
946.5820, 14211.00
947.7030, 14393.00
948.8240, 14471.00
949.9450, 14536.00
951.0650, 14720.00
952.1860, 14722.00
953.3060, 14845.00
954.4260, 14695.00
955.5460, 14921.00
956.6650, 14869.00
957.7850, 14906.00
958.9040, 15175.00
960.0230, 15100.00
961.1420, 15307.00
962.2610, 15243.00
963.3800, 15485.00
964.4990, 15417.00
965.6170, 15546.00
966.7350, 15712.00
967.8530, 15914.00
968.9710, 16123.00
970.0890, 16029.00
971.2070, 16225.00
972.3240, 16256.00
973.4410, 16292.00
974.5580, 16323.00
975.6750, 16098.00
976.7920, 16074.00
977.9090, 16192.00
979.0250, 15986.00
980.1410, 15981.00
981.2580, 15901.00
982.3740, 15748.01
983.4890, 15678.61
984.6050, 15497.00
985.7200, 15527.00
986.8360, 15445.00
987.9510, 15562.00
989.0660, 15449.00
990.1810, 15377.00
991.2950, 15346.00
992.4100, 15339.00
993.5240, 15453.00
994.6390, 15339.00
995.7530, 15489.00
996.8660, 15397.00
997.9800, 15395.00
999.0940, 15454.00
1000.207, 15537.00
1001.320, 15609.00
1002.433, 15703.02
1003.546, 15804.00
1004.659, 15916.00
1005.772, 15991.00
1006.884, 16126.00
1007.996, 16372.00
1009.108, 16435.00
1010.220, 16680.00
1011.332, 16818.00
1012.444, 17133.00
1013.555, 17460.00
1014.666, 17598.00
1015.777, 17729.00
1016.888, 17999.00
1017.999, 18142.00
1019.110, 18276.00
1020.220, 18654.00
1021.331, 18873.00
1022.441, 19011.00
1023.551, 19201.00
1024.661, 19266.00
1025.770, 19488.00
1026.880, 19348.00
1027.989, 19520.84
1029.098, 19763.00
1030.207, 19690.00
1031.316, 20038.00
1032.425, 20143.00
1033.533, 20376.00
1034.642, 20836.00
1035.750, 20950.00
1036.858, 21661.00
1037.966, 22132.00
1039.073, 22465.00
1040.181, 23217.00
1041.288, 23748.00
1042.396, 24551.00
1043.503, 25175.00
1044.610, 26078.00
1045.716, 26931.00
1046.823, 28036.00
1047.929, 28917.00
1049.036, 30168.00
1050.142, 31479.00
1051.248, 32845.00
1052.353, 34453.00
1053.459, 36189.00
1054.564, 37552.00
1055.670, 39134.00
1056.775, 41096.00
1057.880, 42086.00
1058.985, 43369.79
1060.089, 44637.00
1061.194, 44914.00
1062.298, 45426.00
1063.402, 45334.00
1064.506, 44419.00
1065.610, 43164.00
1066.713, 41623.00
1067.817, 39796.00
1068.920, 37941.00
1070.023, 35761.00
1071.126, 33392.00
1072.229, 31418.00
1073.332, 29439.00
1074.435, 27561.00
1075.537, 26054.00
1076.639, 24539.00
1077.741, 23168.00
1078.843, 21962.00
1079.945, 21215.00
1081.046, 20301.00
1082.148, 19686.00
1083.249, 18837.00
1084.350, 18418.00
1085.451, 17951.00
1086.551, 17442.00
1087.652, 17132.00
1088.752, 16810.00
1089.853, 16618.00
1090.953, 16286.00
1092.053, 16218.00
1093.152, 15980.00
1094.252, 15743.00
1095.351, 15528.00
1096.451, 15465.00
1097.550, 15355.00
1098.649, 15198.00
1099.748, 15001.00
1100.846, 14977.00
1101.945, 14905.00
1103.043, 14787.00
1104.141, 14743.00
1105.239, 14699.00
1106.337, 14596.72
1107.434, 14445.00
1108.532, 14412.00
1109.629, 14208.00
1110.726, 14074.00
1111.823, 14191.00
1112.920, 13971.00
1114.017, 14050.00
1115.113, 14020.00
1116.210, 13902.00
1117.306, 13893.00
1118.402, 13819.00
1119.498, 13696.00
1120.593, 13795.00
1121.689, 13623.00
1122.784, 13743.00
1123.879, 13583.00
1124.974, 13457.00
1126.069, 13525.00
1127.164, 13508.00
1128.259, 13365.00
1129.353, 13234.55
1130.447, 13335.79
1131.541, 13383.62
1132.635, 13380.89
1133.729, 13176.20
1134.822, 13232.32
1135.916, 13183.91
1137.009, 13131.23
1138.102, 13224.06
1139.195, 13048.76
1140.288, 13139.28
1141.380, 13123.71
1142.473, 13156.68
1143.565, 13084.52
1144.657, 13044.83
1145.749, 13110.34
1146.841, 13117.60
1147.932, 13033.35
1149.024, 13069.43
1150.115, 12890.49
1151.206, 12900.25
1152.297, 12991.43
1153.388, 12912.46
1154.479, 12950.49
1155.569, 12943.97
1156.659, 12734.97
1157.750, 12719.00
1158.839, 12767.00
1159.929, 12803.00
1161.019, 12886.00
1162.108, 12695.00
1163.198, 12610.00
1164.287, 12608.00
1165.376, 12683.00
1166.465, 12649.00
1167.553, 12651.00
1168.642, 12702.00
1169.730, 12665.00
1170.818, 12669.00
1171.906, 12647.93
1172.994, 12634.94
1174.082, 12592.00
1175.170, 12624.00
1176.257, 12624.00
1177.344, 12642.00
1178.431, 12688.00
1179.518, 12644.86
1180.605, 12658.00
1181.691, 12562.00
1182.778, 12635.00
1183.864, 12573.00
1184.950, 12578.00
1186.036, 12597.00
1187.122, 12653.00
1188.207, 12617.00
1189.292, 12520.00
1190.378, 12618.00
1191.463, 12623.00
1192.548, 12572.00
1193.632, 12660.00
1194.717, 12596.00
1195.801, 12642.00
1196.886, 12692.00
1197.970, 12800.00
1199.054, 12878.00
1200.137, 12686.00
1201.221, 12604.00
1202.305, 12769.00
1203.388, 12763.00
1204.471, 12746.00
1205.554, 12624.00
1206.637, 12803.00
1207.719, 12752.00
1208.802, 12774.00
1209.884, 12781.00
1210.966, 12840.00
1212.048, 12945.00
1213.130, 12899.00
1214.212, 12953.00
1215.293, 12905.00
1216.374, 12874.00
1217.456, 12936.00
1218.536, 12723.00
1219.617, 12863.00
1220.698, 12825.00
1221.778, 12945.00
1222.859, 13073.00
1223.939, 12870.00
1225.019, 12981.00
1226.099, 13067.00
1227.178, 13144.00
1228.258, 13103.00
1229.337, 13083.00
1230.417, 13150.00
1231.496, 13071.00
1232.574, 13147.00
1233.653, 13209.00
1234.732, 13044.00
1235.810, 13270.00
1236.888, 13199.00
1237.966, 13326.00
1239.044, 13248.00
1240.122, 13231.00
1241.199, 13423.00
1242.277, 13387.00
1243.354, 13427.56
1244.431, 13439.42
1245.508, 13449.00
1246.585, 13385.00
1247.661, 13407.00
1248.738, 13395.00
1249.814, 13463.00
1250.890, 13474.00
1251.966, 13456.00
1253.042, 13560.00
1254.117, 13395.00
1255.193, 13583.00
1256.268, 13385.00
1257.343, 13642.00
1258.418, 13668.00
1259.493, 13638.00
1260.567, 13770.00
1261.642, 13782.00
1262.716, 13717.00
1263.790, 13897.00
1264.864, 13772.00
1265.938, 13885.00
1267.011, 13787.00
1268.085, 13995.00
1269.158, 14003.00
1270.231, 14015.00
1271.304, 14032.00
1272.377, 14050.93
1273.450, 14128.00
1274.522, 14119.00
1275.594, 14079.00
1276.666, 14155.00
1277.738, 14112.00
1278.810, 14095.00
1279.882, 14213.00
1280.953, 14220.00
1282.025, 14250.00
1283.096, 14128.00
1284.167, 14249.00
1285.238, 14243.00
1286.308, 14242.00
1287.379, 14421.00
1288.449, 14160.00
1289.519, 14439.00
1290.589, 14213.00
1291.659, 14397.00
1292.729, 14132.00
1293.798, 14255.00
1294.868, 14277.00
1295.937, 14382.00
1297.006, 14390.00
1298.075, 14313.00
1299.143, 14439.00
1300.212, 14426.00
1301.280, 14513.00
1302.348, 14377.00
1303.416, 14314.00
1304.484, 14417.00
1305.552, 14394.00
1306.620, 14440.00
1307.687, 14473.67
1308.754, 14567.00
1309.821, 14514.00
1310.888, 14537.00
1311.955, 14539.00
1313.021, 14358.00
1314.088, 14352.00
1315.154, 14715.00
1316.220, 14665.00
1317.286, 14595.00
1318.352, 14706.00
1319.417, 14592.00
1320.483, 14757.00
1321.548, 14620.00
1322.613, 14857.00
1323.678, 14760.00
1324.743, 14727.00
1325.807, 14710.00
1326.872, 14699.00
1327.936, 14851.00
1329.000, 14799.00
1330.064, 14915.00
1331.128, 14856.00
1332.191, 14782.00
1333.255, 14944.00
1334.318, 15006.00
1335.381, 14851.00
1336.444, 14878.00
1337.507, 14865.00
1338.569, 14797.00
1339.632, 14920.00
1340.694, 14870.00
1341.756, 14949.00
1342.818, 14816.00
1343.880, 14881.00
1344.941, 14860.00
1346.003, 14793.00
1347.064, 14987.00
1348.125, 14894.00
1349.186, 15011.00
1350.247, 14928.00
1351.308, 14984.00
1352.368, 15076.00
1353.428, 15003.00
1354.489, 14998.00
1355.549, 14982.00
1356.608, 14937.00
1357.668, 15018.00
1358.727, 15260.00
1359.787, 15156.81
1360.846, 15158.00
1361.905, 15054.00
1362.964, 15098.00
1364.022, 15078.08
1365.081, 15156.00
1366.139, 15086.00
1367.197, 15141.00
1368.255, 15121.00
1369.313, 15422.00
1370.371, 15415.00
1371.428, 15540.00
1372.486, 15723.00
1373.543, 15755.00
1374.600, 16001.00
1375.657, 16105.00
1376.713, 16353.00
1377.770, 16385.00
1378.826, 16560.00
1379.882, 16575.00
1380.938, 16634.47
1381.994, 16719.00
1383.050, 16703.00
1384.106, 16827.00
1385.161, 16873.00
1386.216, 16842.00
1387.271, 17002.00
1388.326, 16749.00
1389.381, 16864.00
1390.435, 16595.00
1391.490, 16613.00
1392.544, 16383.00
1393.598, 16329.00
1394.652, 16225.00
1395.705, 16381.00
1396.759, 16002.00
1397.812, 16003.00
1398.866, 15941.00
1399.919, 15758.00
1400.972, 15944.00
1402.024, 15802.00
1403.077, 15815.00
1404.129, 15800.00
1405.181, 15578.00
1406.233, 15473.00
1407.285, 15648.00
1408.337, 15570.00
1409.389, 15496.00
1410.440, 15416.00
1411.491, 15488.00
1412.542, 15417.00
1413.593, 15404.00
1414.644, 15504.00
1415.695, 15381.00
1416.745, 15405.00
1417.795, 15386.00
1418.845, 15244.00
1419.895, 15387.00
1420.945, 15299.00
1421.995, 15289.00
1423.044, 15510.00
1424.093, 15626.00
1425.142, 15518.54
1426.191, 15290.00
1427.240, 15290.00
1428.289, 15232.12
1429.337, 15343.00
1430.385, 15298.00
1431.433, 15294.00
1432.481, 15433.00
1433.529, 15270.00
1434.577, 15324.00
1435.624, 15366.00
1436.672, 15278.00
1437.719, 15209.00
1438.766, 15198.00
1439.812, 15070.00
1440.859, 15173.00
1441.905, 15071.00
1442.952, 14951.00
1443.998, 14900.00
1445.044, 14963.00
1446.090, 14956.00
1447.135, 14952.00
1448.181, 14907.00
1449.226, 14876.00
1450.271, 14880.14
1451.316, 14986.00
1452.361, 14868.00
1453.405, 14954.00
1454.450, 14921.00
1455.494, 14955.00
1456.538, 14925.00
1457.582, 14977.00
1458.626, 14921.00
1459.670, 14807.00
1460.713, 14831.00
1461.757, 14775.78
1462.800, 14873.00
1463.843, 14783.00
1464.886, 14805.00
1465.928, 14896.00
1466.971, 14736.00
1468.013, 14675.00
1469.055, 14850.00
1470.097, 14856.00
1471.139, 14971.00
1472.181, 14810.00
1473.222, 14881.00
1474.263, 14760.00
1475.305, 14880.00
1476.346, 14646.00
1477.386, 14789.00
1478.427, 14775.00
1479.468, 14950.00
1480.508, 14749.00
1481.548, 14849.00
1482.588, 15032.00
1483.628, 14821.00
1484.668, 14930.00
1485.707, 14765.00
1486.747, 14839.00
1487.786, 14922.00
1488.825, 14750.00
1489.864, 14824.00
1490.902, 14854.00
1491.941, 14992.00
1492.979, 15123.00
1494.017, 14919.00
1495.055, 14993.00
1496.093, 14882.00
1497.131, 14942.00
1498.168, 14997.00
1499.206, 14845.00
1500.243, 15114.00
1501.280, 15094.00
1502.317, 15161.00
1503.354, 15037.00
1504.390, 15230.00
1505.426, 15162.00
1506.463, 15232.00
1507.499, 15140.00
1508.535, 15205.00
1509.570, 15218.00
1510.606, 15292.00
1511.641, 15257.00
1512.676, 15279.00
1513.711, 15220.00
1514.746, 15338.00
1515.781, 15474.00
1516.816, 15434.00
1517.850, 15396.00
1518.884, 15388.00
1519.918, 15336.00
1520.952, 15553.00
1521.986, 15575.00
1523.019, 15620.00
1524.053, 15617.00
1525.086, 15403.00
1526.119, 15323.00
1527.152, 15553.00
1528.185, 15581.00
1529.217, 15678.00
1530.250, 15535.00
1531.282, 15577.00
1532.314, 15623.00
1533.346, 15390.00
1534.377, 15515.00
1535.409, 15363.00
1536.440, 15412.00
1537.472, 15443.00
1538.503, 15539.00
1539.534, 15679.00
1540.564, 15616.01
1541.595, 15393.00
1542.625, 15545.00
1543.656, 15514.00
1544.686, 15521.00
1545.716, 15518.00
1546.745, 15537.00
1547.775, 15686.00
1548.804, 15627.00
1549.834, 15597.00
1550.863, 15753.00
1551.892, 15739.00
1552.920, 15737.00
1553.949, 15722.87
1554.977, 15677.34
1556.006, 15606.00
1557.034, 15569.00
1558.062, 15547.00
1559.089, 15484.00
1560.117, 15582.00
1561.144, 15467.00
1562.172, 15659.00
1563.199, 15607.00
1564.226, 15638.00
1565.252, 15678.00
1566.279, 15663.80
1567.305, 15691.29
1568.332, 15691.00
1569.358, 15721.00
1570.384, 15747.00
1571.409, 15789.00
1572.435, 15697.00
##END=



