##NAMES=Elbaite
##RRUFFID=R060631
##IDEAL CHEMISTRY=Na(Al_1.5_Li_1.5_)Al_6_(Si_6_O_18_)(BO_3_)_3_(OH)_3_OH
##LOCALITY=unknown
##OWNER=RRUFF
##SOURCE=Gemological Institute of America
##DESCRIPTION=Pink polished fragment
##STATUS=The identification of this mineral is confirmed by single-crystal X-ray diffraction and chemical analysis.
##URL=rruff.info/R060631
##MEASURED CHEMISTRY=(Na_0.55_Ca_0.34_[box]_0.11_)(Li_1.53_Al_1.30_Mn_0.14_Fe^2+^_0.03_)Al_6.00_(BO_3_)_3_[Si_6.00_O_18_]((OH)_0.82_F_0.18_)_4_
##PIN_ID=L01326
##ORIENTATION=Laser parallel to -c* (0 0 -1). Fiducial mark perpendicular to laser is parallel to b [0 1 0]
113.2080, 14929.00
114.4400, 15513.00
115.6710, 15475.00
116.9030, 15366.00
118.1340, 15592.00
119.3650, 15659.00
120.5960, 16125.00
121.8270, 16412.00
123.0580, 16495.00
124.2880, 16670.00
125.5190, 16718.00
126.7490, 17083.00
127.9790, 17358.00
129.2090, 17581.00
130.4390, 17777.00
131.6680, 17716.00
132.8980, 17900.00
134.1270, 17448.00
135.3560, 17516.00
136.5850, 17468.00
137.8140, 17285.00
139.0430, 17647.00
140.2710, 17700.00
141.5000, 17475.00
142.7280, 17342.00
143.9560, 17488.00
145.1840, 16960.00
146.4120, 17046.00
147.6390, 16928.00
148.8670, 16890.00
150.0940, 16910.05
151.3210, 16854.49
152.5490, 16873.00
153.7750, 16779.00
155.0020, 16677.00
156.2290, 16511.00
157.4550, 16170.00
158.6810, 16048.00
159.9080, 15983.00
161.1340, 15890.00
162.3590, 16132.00
163.5850, 16256.00
164.8110, 16197.00
166.0360, 16112.00
167.2610, 16104.00
168.4860, 16112.00
169.7110, 16054.00
170.9360, 16047.00
172.1610, 16024.00
173.3850, 16012.00
174.6100, 16104.00
175.8340, 16127.00
177.0580, 16299.00
178.2820, 16464.00
179.5050, 16233.00
180.7290, 16574.00
181.9520, 16476.00
183.1760, 16624.00
184.3990, 17076.00
185.6220, 17385.00
186.8450, 17628.00
188.0670, 17761.00
189.2900, 18003.00
190.5120, 18343.00
191.7340, 18658.00
192.9560, 18733.00
194.1780, 19215.00
195.4000, 19434.00
196.6220, 19564.00
197.8430, 20077.00
199.0640, 20597.00
200.2860, 20957.00
201.5070, 20972.00
202.7270, 20900.00
203.9480, 20709.00
205.1690, 20638.00
206.3890, 20928.00
207.6090, 21478.00
208.8290, 22151.00
210.0490, 22888.00
211.2690, 23956.00
212.4890, 25138.00
213.7080, 26345.00
214.9280, 27449.00
216.1470, 29123.00
217.3660, 30784.00
218.5850, 31863.00
219.8030, 33042.00
221.0220, 34499.00
222.2400, 34538.00
223.4590, 34425.00
224.6770, 33754.00
225.8950, 32716.00
227.1120, 31483.00
228.3300, 30356.00
229.5480, 29376.00
230.7650, 28505.00
231.9820, 27891.00
233.1990, 27546.00
234.4160, 27479.00
235.6330, 27153.00
236.8490, 26993.00
238.0660, 26883.00
239.2820, 26936.00
240.4980, 26656.00
241.7140, 26398.00
242.9300, 26139.00
244.1460, 25595.00
245.3610, 25045.00
246.5770, 24519.00
247.7920, 23849.00
249.0070, 23008.00
250.2220, 22516.00
251.4370, 22026.00
252.6510, 21425.00
253.8660, 21132.00
255.0800, 20794.00
256.2940, 21009.00
257.5080, 20539.12
258.7220, 20235.60
259.9360, 20048.00
261.1490, 19497.00
262.3630, 19450.00
263.5760, 19409.00
264.7890, 19525.00
266.0020, 19530.00
267.2150, 19479.00
268.4270, 19675.00
269.6400, 19729.00
270.8520, 19590.00
272.0640, 19797.00
273.2760, 19711.00
274.4880, 19865.00
275.7000, 19876.00
276.9120, 19756.00
278.1230, 19923.00
279.3340, 19990.00
280.5450, 20044.00
281.7560, 19994.00
282.9670, 20010.00
284.1780, 19930.00
285.3880, 20002.00
286.5980, 19861.00
287.8090, 19752.00
289.0190, 19545.00
290.2290, 19119.00
291.4380, 19132.00
292.6480, 18958.00
293.8570, 18801.00
295.0670, 18763.00
296.2760, 18687.00
297.4850, 18604.00
298.6930, 18843.00
299.9020, 18871.00
301.1110, 19091.00
302.3190, 19334.00
303.5270, 19652.00
304.7350, 19738.00
305.9430, 20141.00
307.1510, 20565.00
308.3580, 20779.00
309.5660, 20993.00
310.7730, 21242.00
311.9800, 21331.00
313.1870, 21527.00
314.3940, 21796.00
315.6010, 21936.00
316.8070, 22197.00
318.0130, 22421.00
319.2200, 22936.00
320.4260, 23349.00
321.6310, 24119.00
322.8370, 25559.00
324.0430, 25338.00
325.2480, 25979.00
326.4540, 26765.00
327.6590, 26106.00
328.8640, 26121.00
330.0680, 26004.00
331.2730, 25927.00
332.4780, 25832.01
333.6820, 25728.00
334.8860, 25577.00
336.0900, 25286.00
337.2940, 25118.01
338.4980, 24857.00
339.7010, 24816.00
340.9050, 24732.00
342.1080, 24646.00
343.3110, 24640.00
344.5140, 24587.00
345.7170, 24606.46
346.9200, 24704.00
348.1220, 24675.00
349.3240, 24824.00
350.5270, 24878.00
351.7290, 25047.00
352.9310, 25311.00
354.1320, 25851.00
355.3340, 26263.00
356.5350, 26845.00
357.7370, 27503.00
358.9380, 28229.00
360.1390, 28975.00
361.3400, 29863.00
362.5400, 31088.00
363.7410, 31996.00
364.9410, 33384.00
366.1410, 34671.00
367.3410, 36246.00
368.5410, 37932.00
369.7410, 39999.00
370.9400, 41974.00
372.1400, 44126.00
373.3390, 45955.00
374.5380, 47456.00
375.7370, 48255.00
376.9360, 48180.00
378.1350, 47379.00
379.3330, 45902.00
380.5310, 43778.00
381.7300, 41181.00
382.9280, 39162.00
384.1260, 36631.00
385.3230, 35009.00
386.5210, 33461.00
387.7180, 32086.00
388.9160, 31347.00
390.1130, 30318.00
391.3100, 29692.00
392.5060, 29514.00
393.7030, 28972.00
394.9000, 28882.00
396.0960, 28955.00
397.2920, 28960.00
398.4880, 29089.00
399.6840, 29301.00
400.8800, 29468.00
402.0750, 29702.00
403.2710, 29580.00
404.4660, 30142.00
405.6610, 30300.00
406.8560, 30031.00
408.0510, 29786.00
409.2450, 29678.00
410.4400, 29074.00
411.6340, 28737.00
412.8280, 27985.00
414.0220, 27200.00
415.2160, 26148.00
416.4100, 25544.00
417.6030, 24596.00
418.7970, 23987.00
419.9900, 23221.00
421.1830, 22898.00
422.3760, 22283.00
423.5690, 22032.00
424.7610, 21785.00
425.9540, 21746.00
427.1460, 21517.00
428.3380, 21543.00
429.5300, 21383.00
430.7220, 21459.00
431.9140, 21361.00
433.1050, 21476.15
434.2970, 21777.00
435.4880, 21770.00
436.6790, 21826.00
437.8700, 22020.00
439.0610, 22040.00
440.2510, 22186.00
441.4420, 22175.00
442.6320, 22218.00
443.8220, 22236.00
445.0120, 22502.00
446.2020, 22332.00
447.3910, 22467.00
448.5810, 22519.00
449.7700, 22467.00
450.9600, 22485.00
452.1490, 22614.00
453.3370, 22356.00
454.5260, 22428.53
455.7150, 22621.00
456.9030, 22453.00
458.0910, 22348.00
459.2800, 22582.00
460.4670, 22378.00
461.6550, 22571.00
462.8430, 22607.00
464.0300, 22644.00
465.2180, 22792.00
466.4050, 22784.00
467.5920, 22833.07
468.7790, 22714.00
469.9650, 22812.00
471.1520, 22774.00
472.3380, 22646.00
473.5250, 22618.00
474.7110, 22404.00
475.8970, 22234.00
477.0820, 22089.00
478.2680, 21936.00
479.4540, 22075.00
480.6390, 21879.00
481.8240, 22138.00
483.0090, 21950.00
484.1940, 21750.00
485.3780, 21895.00
486.5630, 21810.00
487.7470, 21720.00
488.9320, 21745.00
490.1160, 21852.00
491.3000, 22008.00
492.4830, 22040.91
493.6670, 22144.25
494.8500, 22191.00
496.0340, 22273.00
497.2170, 22375.00
498.4000, 22525.92
499.5820, 22765.00
500.7650, 22933.00
501.9480, 23248.00
503.1300, 23569.00
504.3120, 23610.00
505.4940, 24055.00
506.6760, 24114.00
507.8580, 24458.00
509.0390, 24630.00
510.2210, 24626.00
511.4020, 24686.00
512.5830, 24936.00
513.7640, 24853.00
514.9450, 24672.00
516.1250, 24914.00
517.3060, 24904.00
518.4860, 24740.00
519.6660, 24504.00
520.8460, 24187.00
522.0260, 24261.00
523.2060, 24217.00
524.3850, 24227.00
525.5650, 24362.00
526.7440, 24519.89
527.9230, 24753.00
529.1020, 25018.00
530.2810, 25353.00
531.4590, 25645.00
532.6380, 26145.00
533.8160, 26576.00
534.9940, 26783.00
536.1720, 27084.00
537.3500, 27267.18
538.5270, 27321.00
539.7050, 27494.00
540.8820, 27560.00
542.0590, 27552.00
543.2360, 27608.00
544.4130, 27757.00
545.5900, 27706.00
546.7660, 27793.00
547.9430, 27734.20
549.1190, 27724.00
550.2950, 27561.00
551.4710, 27387.00
552.6470, 27244.00
553.8220, 26965.00
554.9980, 26764.26
556.1730, 26608.00
557.3480, 26178.00
558.5230, 25815.00
559.6980, 25319.00
560.8730, 24965.00
562.0470, 24803.00
563.2220, 24290.00
564.3960, 24064.00
565.5700, 23479.00
566.7440, 23418.00
567.9170, 23128.00
569.0910, 22736.00
570.2640, 22492.00
571.4380, 22165.00
572.6110, 22022.00
573.7840, 22030.00
574.9570, 21943.00
576.1290, 21694.00
577.3020, 21765.00
578.4740, 21326.00
579.6460, 21466.00
580.8180, 21436.00
581.9900, 21452.00
583.1620, 21241.00
584.3330, 21377.00
585.5040, 21262.00
586.6760, 21110.00
587.8470, 21295.00
589.0180, 21044.00
590.1880, 21088.00
591.3590, 21028.00
592.5290, 20863.00
593.7000, 20832.00
594.8700, 20758.00
596.0400, 20567.00
597.2090, 20679.00
598.3790, 20582.00
599.5490, 20309.00
600.7180, 20505.00
601.8870, 20309.41
603.0560, 20256.26
604.2250, 20212.00
605.3940, 20102.00
606.5620, 20145.00
607.7300, 20061.00
608.8990, 20106.00
610.0670, 19857.00
611.2350, 19985.00
612.4020, 19983.00
613.5700, 20044.00
614.7370, 19830.00
615.9050, 19786.00
617.0720, 19844.00
618.2390, 20073.00
619.4060, 20133.00
620.5720, 20021.00
621.7390, 19980.00
622.9050, 20057.00
624.0710, 20052.00
625.2370, 20151.00
626.4030, 20213.00
627.5690, 20217.00
628.7340, 20218.00
629.9000, 20376.00
631.0650, 20186.00
632.2300, 20420.00
633.3950, 20398.00
634.5600, 20542.00
635.7240, 20580.00
636.8890, 20619.26
638.0530, 20719.00
639.2170, 20758.00
640.3810, 20764.00
641.5450, 20947.00
642.7080, 20865.00
643.8720, 20859.00
645.0350, 20930.00
646.1980, 20655.00
647.3610, 20588.00
648.5240, 20732.00
649.6870, 20599.00
650.8490, 20487.00
652.0120, 20313.00
653.1740, 20243.00
654.3360, 20307.00
655.4980, 20235.00
656.6600, 20446.00
657.8210, 20220.00
658.9830, 20405.00
660.1440, 20200.00
661.3050, 20235.00
662.4660, 20381.00
663.6270, 20367.00
664.7870, 20205.00
665.9480, 20362.00
667.1080, 20299.00
668.2680, 20173.00
669.4280, 20392.00
670.5880, 20385.00
671.7480, 20460.00
672.9070, 20273.00
674.0670, 20297.00
675.2260, 20456.00
676.3850, 20214.00
677.5440, 20248.00
678.7030, 20105.00
679.8610, 19939.00
681.0200, 19862.00
682.1780, 19640.00
683.3360, 19565.00
684.4940, 19519.00
685.6520, 19412.07
686.8090, 19218.00
687.9670, 19325.00
689.1240, 19326.00
690.2810, 19319.84
691.4380, 19508.00
692.5950, 19316.00
693.7520, 19550.00
694.9080, 19634.00
696.0650, 19791.00
697.2210, 20013.00
698.3770, 20221.00
699.5330, 20406.00
700.6880, 20576.00
701.8440, 20845.42
702.9990, 21121.80
704.1550, 21366.00
705.3100, 21787.00
706.4650, 22032.00
707.6190, 22405.00
708.7740, 22946.00
709.9290, 23931.00
711.0830, 24407.28
712.2370, 25322.00
713.3910, 25967.00
714.5450, 26970.00
715.6980, 28168.13
716.8520, 29820.00
718.0050, 31587.00
719.1580, 33920.00
720.3110, 36444.00
721.4640, 39581.00
722.6170, 42714.00
723.7700, 46708.00
724.9220, 50215.00
726.0740, 53659.00
727.2260, 57178.00
728.3780, 59177.00
729.5300, 60308.00
730.6810, 60164.00
731.8330, 58755.00
732.9840, 56059.00
734.1350, 52696.00
735.2860, 49502.00
736.4370, 45899.00
737.5880, 43017.00
738.7380, 40046.00
739.8880, 37883.00
741.0390, 35385.00
742.1890, 33822.00
743.3380, 32340.00
744.4880, 31725.00
745.6380, 30419.00
746.7870, 28720.00
747.9360, 27914.00
749.0850, 26944.00
750.2340, 26150.00
751.3830, 25899.00
752.5310, 25374.00
753.6800, 24935.00
754.8280, 24502.00
755.9760, 24165.00
757.1240, 23960.00
758.2720, 23490.00
759.4190, 23406.00
760.5670, 22901.00
761.7140, 22549.00
762.8610, 22649.00
764.0080, 22141.00
765.1550, 21774.00
766.3020, 21669.00
767.4480, 21469.00
768.5950, 20881.00
769.7410, 20925.00
770.8870, 20556.00
772.0330, 20351.00
773.1780, 20073.00
774.3240, 19980.00
775.4690, 19658.00
776.6140, 19818.00
777.7590, 19795.00
778.9040, 19690.00
780.0490, 19519.00
781.1940, 19479.00
782.3380, 19535.00
783.4820, 19596.00
784.6260, 19506.00
785.7700, 19486.00
786.9140, 19447.00
788.0580, 19519.00
789.2010, 19572.00
790.3450, 19628.00
791.4880, 19563.00
792.6310, 19724.00
793.7730, 19624.00
794.9160, 19942.00
796.0590, 19787.00
797.2010, 19948.70
798.3430, 20018.00
799.4850, 20212.00
800.6270, 20217.00
801.7690, 20449.00
802.9100, 20347.00
804.0520, 20518.00
805.1930, 20502.00
806.3340, 20307.00
807.4750, 20283.70
808.6160, 20042.00
809.7560, 19935.00
810.8970, 19613.00
812.0370, 19332.00
813.1770, 19498.00
814.3170, 19432.00
815.4570, 19540.00
816.5960, 19516.92
817.7360, 19484.47
818.8750, 19463.00
820.0140, 19461.00
821.1530, 19452.00
822.2920, 19567.00
823.4310, 19544.00
824.5690, 19644.00
825.7070, 19687.00
826.8460, 19925.00
827.9840, 19903.00
829.1220, 19999.00
830.2590, 19786.00
831.3970, 20133.00
832.5340, 20007.00
833.6710, 20376.00
834.8080, 20385.40
835.9450, 20169.00
837.0820, 20315.00
838.2190, 20413.00
839.3550, 20008.00
840.4910, 20192.00
841.6270, 20256.00
842.7630, 20327.00
843.8990, 20088.00
845.0350, 20203.00
846.1700, 20134.00
847.3060, 20226.00
848.4410, 20285.00
849.5760, 20215.00
850.7100, 20299.00
851.8450, 20397.00
852.9800, 20387.00
854.1140, 20513.00
855.2480, 20523.00
856.3820, 20780.00
857.5160, 20771.00
858.6500, 20864.00
859.7830, 20958.00
860.9170, 20885.78
862.0500, 21181.00
863.1830, 20857.00
864.3160, 20969.00
865.4480, 21159.00
866.5810, 21033.00
867.7130, 20981.00
868.8460, 21001.00
869.9780, 21063.00
871.1100, 21123.00
872.2410, 21018.00
873.3730, 21174.00
874.5050, 21027.00
875.6360, 21103.00
876.7670, 21160.00
877.8980, 21043.00
879.0290, 21022.00
880.1590, 21173.00
881.2900, 21064.00
882.4200, 21036.00
883.5500, 20924.00
884.6800, 20770.00
885.8100, 20865.00
886.9400, 20802.00
888.0690, 20764.00
889.1990, 20855.00
890.3280, 20759.00
891.4570, 20654.00
892.5860, 20519.00
893.7140, 20511.00
894.8430, 20439.13
895.9710, 20525.00
897.1000, 20371.00
898.2280, 20414.00
899.3560, 20355.00
900.4830, 20352.00
901.6110, 20357.24
902.7380, 20358.00
903.8660, 20382.00
904.9930, 20442.00
906.1200, 20512.00
907.2460, 20393.00
908.3730, 20299.00
909.5000, 20479.00
910.6260, 20356.00
911.7520, 20408.00
912.8780, 20475.00
914.0040, 20517.00
915.1290, 20614.45
916.2550, 20676.00
917.3800, 20815.00
918.5050, 20793.00
919.6300, 20897.00
920.7550, 20799.00
921.8800, 21005.00
923.0040, 20919.00
924.1290, 20957.00
925.2530, 21251.00
926.3770, 21306.00
927.5010, 21566.00
928.6250, 21893.00
929.7480, 21580.00
930.8720, 21816.00
931.9950, 21823.00
933.1180, 22145.00
934.2410, 22209.00
935.3640, 22338.00
936.4860, 22667.00
937.6090, 22599.00
938.7310, 22883.00
939.8530, 22832.74
940.9750, 22920.04
942.0970, 22869.00
943.2180, 22994.00
944.3400, 23319.00
945.4610, 23297.00
946.5820, 23342.00
947.7030, 23147.00
948.8240, 23230.50
949.9450, 23373.00
951.0650, 23315.00
952.1860, 23309.00
953.3060, 23436.00
954.4260, 23502.00
955.5460, 23502.00
956.6650, 23415.00
957.7850, 23392.00
958.9040, 23770.00
960.0230, 23717.00
961.1420, 23888.00
962.2610, 23974.47
963.3800, 23928.00
964.4990, 24037.00
965.6170, 23897.00
966.7350, 23861.00
967.8530, 23923.00
968.9710, 24271.00
970.0890, 24239.13
971.2070, 24616.00
972.3240, 24454.00
973.4410, 24434.00
974.5580, 24586.00
975.6750, 24703.00
976.7920, 24665.00
977.9090, 24603.00
979.0250, 24803.00
980.1410, 24582.00
981.2580, 24892.00
982.3740, 24752.00
983.4890, 24608.00
984.6050, 24591.00
985.7200, 24564.00
986.8360, 24713.00
987.9510, 24574.00
989.0660, 24553.00
990.1810, 24175.00
991.2950, 24354.00
992.4100, 24181.00
993.5240, 24448.00
994.6390, 24386.00
995.7530, 24295.00
996.8660, 24499.00
997.9800, 24354.00
999.0940, 24680.00
1000.207, 24625.00
1001.320, 24991.00
1002.433, 24950.23
1003.546, 24994.80
1004.659, 24889.00
1005.772, 25023.00
1006.884, 24917.00
1007.996, 25010.00
1009.108, 24948.00
1010.220, 25164.00
1011.332, 25271.00
1012.444, 25572.00
1013.555, 25558.00
1014.666, 26037.00
1015.777, 25894.00
1016.888, 26334.00
1017.999, 26596.00
1019.110, 26692.00
1020.220, 27072.00
1021.331, 27109.00
1022.441, 27635.00
1023.551, 27712.00
1024.661, 27784.00
1025.770, 27960.00
1026.880, 28371.00
1027.989, 28051.00
1029.098, 28518.00
1030.207, 28537.00
1031.316, 28630.00
1032.425, 28754.00
1033.533, 28902.33
1034.642, 29606.00
1035.750, 29392.00
1036.858, 29781.00
1037.966, 30271.00
1039.073, 30316.00
1040.181, 30760.00
1041.288, 31227.00
1042.396, 31610.00
1043.503, 32337.00
1044.610, 32658.00
1045.716, 33451.00
1046.823, 34119.00
1047.929, 34683.00
1049.036, 35475.00
1050.142, 36080.00
1051.248, 37130.00
1052.353, 38487.00
1053.459, 39139.00
1054.564, 40607.00
1055.670, 42024.00
1056.775, 43299.00
1057.880, 44523.00
1058.985, 46134.00
1060.089, 47501.00
1061.194, 49089.00
1062.298, 50362.00
1063.402, 51215.00
1064.506, 51652.00
1065.610, 51922.00
1066.713, 51684.00
1067.817, 51376.00
1068.920, 50408.00
1070.023, 48947.00
1071.126, 47426.00
1072.229, 45684.00
1073.332, 43772.00
1074.435, 41901.00
1075.537, 40366.00
1076.639, 38605.00
1077.741, 37121.00
1078.843, 35752.00
1079.945, 34243.00
1081.046, 33146.00
1082.148, 31948.00
1083.249, 31115.00
1084.350, 30160.00
1085.451, 29352.66
1086.551, 28749.19
1087.652, 27995.00
1088.752, 27743.00
1089.853, 27313.00
1090.953, 26999.00
1092.053, 26469.00
1093.152, 26022.00
1094.252, 25719.00
1095.351, 26048.00
1096.451, 25594.00
1097.550, 25384.00
1098.649, 24803.00
1099.748, 25016.00
1100.846, 24864.00
1101.945, 24837.00
1103.043, 24815.00
1104.141, 24619.00
1105.239, 24389.00
1106.337, 24549.00
1107.434, 24614.00
1108.532, 24235.00
1109.629, 23972.00
1110.726, 24004.00
1111.823, 23962.00
1112.920, 23975.00
1114.017, 23825.00
1115.113, 23939.00
1116.210, 23994.00
1117.306, 23896.05
1118.402, 24049.00
1119.498, 23817.00
1120.593, 23721.00
1121.689, 23760.00
1122.784, 23820.00
1123.879, 23679.00
1124.974, 23443.00
1126.069, 23545.00
1127.164, 23308.00
1128.259, 23301.00
1129.353, 23241.00
1130.447, 23154.00
1131.541, 23093.90
1132.635, 23085.53
1133.729, 23043.68
1134.822, 23149.00
1135.916, 23036.00
1137.009, 23183.00
1138.102, 23225.00
1139.195, 23133.00
1140.288, 22933.00
1141.380, 22898.00
1142.473, 22959.00
1143.565, 22971.00
1144.657, 23045.00
1145.749, 23142.00
1146.841, 23030.40
1147.932, 23004.00
1149.024, 22731.00
1150.115, 22842.00
1151.206, 22523.00
1152.297, 22803.00
1153.388, 22625.00
1154.479, 22701.00
1155.569, 22763.00
1156.659, 22623.00
1157.750, 22545.00
1158.839, 22734.00
1159.929, 22626.00
1161.019, 22732.00
1162.108, 22827.00
1163.198, 22706.00
1164.287, 22681.00
1165.376, 22600.00
1166.465, 22584.00
1167.553, 22767.00
1168.642, 22701.00
1169.730, 22671.00
1170.818, 22602.00
1171.906, 22761.00
1172.994, 22760.00
1174.082, 22937.00
1175.170, 22768.00
1176.257, 22715.00
1177.344, 22557.00
1178.431, 22912.00
1179.518, 22726.00
1180.605, 22765.00
1181.691, 22561.00
1182.778, 22571.79
1183.864, 22755.00
1184.950, 22650.00
1186.036, 22755.00
1187.122, 23004.00
1188.207, 22775.00
1189.292, 22580.00
1190.378, 22823.00
1191.463, 22835.00
1192.548, 22931.00
1193.632, 22724.00
1194.717, 23270.00
1195.801, 22645.00
1196.886, 22747.00
1197.970, 23014.00
1199.054, 22844.27
1200.137, 22987.44
1201.221, 23015.00
1202.305, 22998.00
1203.388, 23014.00
1204.471, 22952.00
1205.554, 23156.00
1206.637, 23025.00
1207.719, 23063.00
1208.802, 23115.00
1209.884, 22952.00
1210.966, 23163.00
1212.048, 23004.00
1213.130, 22985.00
1214.212, 23111.00
1215.293, 23162.00
1216.374, 23095.00
1217.456, 23350.00
1218.536, 23207.00
1219.617, 23252.00
1220.698, 23028.00
1221.778, 23300.00
1222.859, 23378.00
1223.939, 23323.00
1225.019, 23345.00
1226.099, 23281.00
1227.178, 23320.00
1228.258, 23289.00
1229.337, 23330.44
1230.417, 23442.00
1231.496, 23459.00
1232.574, 23466.00
1233.653, 23587.00
1234.732, 23588.30
1235.810, 23738.00
1236.888, 23672.00
1237.966, 23650.00
1239.044, 23697.00
1240.122, 23674.00
1241.199, 23462.00
1242.277, 23767.00
1243.354, 23622.00
1244.431, 23596.00
1245.508, 23731.00
1246.585, 23669.00
1247.661, 23667.00
1248.738, 23737.00
1249.814, 23704.46
1250.890, 23643.00
1251.966, 23728.00
1253.042, 23676.00
1254.117, 23689.00
1255.193, 23576.00
1256.268, 23529.00
1257.343, 23816.00
1258.418, 23901.00
1259.493, 23869.00
1260.567, 23909.00
1261.642, 24020.00
1262.716, 24025.00
1263.790, 24076.00
1264.864, 24280.00
1265.938, 24298.00
1267.011, 24255.00
1268.085, 24348.00
1269.158, 24206.00
1270.231, 24463.00
1271.304, 24367.00
1272.377, 24613.00
1273.450, 24464.00
1274.522, 24742.00
1275.594, 24563.00
1276.666, 24492.00
1277.738, 24563.00
1278.810, 24620.00
1279.882, 24611.00
1280.953, 24734.00
1282.025, 24518.00
1283.096, 24582.00
1284.167, 24695.00
1285.238, 24550.00
1286.308, 24741.00
1287.379, 24621.00
1288.449, 24402.00
1289.519, 24636.00
1290.589, 24595.00
1291.659, 24726.00
1292.729, 24770.00
1293.798, 24706.00
1294.868, 24653.00
1295.937, 24733.00
1297.006, 24652.00
1298.075, 24678.00
1299.143, 24901.00
1300.212, 24792.00
1301.280, 24676.00
1302.348, 24846.00
1303.416, 24710.00
1304.484, 24941.00
1305.552, 24767.00
1306.620, 24840.00
1307.687, 24696.00
1308.754, 25158.00
1309.821, 24823.00
1310.888, 24887.00
1311.955, 25174.00
1313.021, 24963.00
1314.088, 25108.00
1315.154, 25065.00
1316.220, 25211.00
1317.286, 25011.00
1318.352, 25093.00
1319.417, 25321.00
1320.483, 25157.00
1321.548, 25313.00
1322.613, 25296.00
1323.678, 25080.00
1324.743, 25264.00
1325.807, 25102.00
1326.872, 25260.00
1327.936, 25151.00
1329.000, 25337.00
1330.064, 25122.00
1331.128, 25046.00
1332.191, 25130.00
1333.255, 25206.00
1334.318, 25350.00
1335.381, 25113.00
1336.444, 25251.00
1337.507, 25077.00
1338.569, 25199.00
1339.632, 25093.00
1340.694, 25014.00
1341.756, 25286.00
1342.818, 25239.00
1343.880, 25405.00
1344.941, 25240.00
1346.003, 25184.00
1347.064, 25245.00
1348.125, 25059.00
1349.186, 25251.00
1350.247, 25291.00
1351.308, 25163.00
1352.368, 25177.00
1353.428, 25244.00
1354.489, 25175.00
1355.549, 25283.00
1356.608, 25299.50
1357.668, 25516.00
1358.727, 25355.00
1359.787, 25389.00
1360.846, 25331.00
1361.905, 25256.00
1362.964, 25348.00
1364.022, 25684.00
1365.081, 25735.00
1366.139, 25456.00
1367.197, 25518.00
1368.255, 25343.00
1369.313, 25516.00
1370.371, 25481.00
1371.428, 25710.00
1372.486, 25835.00
1373.543, 25632.00
1374.600, 25674.00
1375.657, 25724.00
1376.713, 25729.00
1377.770, 25690.00
1378.826, 26104.00
1379.882, 26103.00
1380.938, 26158.00
1381.994, 26116.00
1383.050, 26080.00
1384.106, 26200.00
1385.161, 26568.00
1386.216, 26641.00
1387.271, 26537.00
1388.326, 26881.00
1389.381, 26510.00
1390.435, 26804.00
1391.490, 26971.00
1392.544, 27015.00
1393.598, 27119.00
1394.652, 27192.00
1395.705, 27197.00
1396.759, 27322.00
1397.812, 27343.00
1398.866, 27300.00
1399.919, 27267.00
1400.972, 27374.00
1402.024, 27450.00
1403.077, 27578.00
1404.129, 27379.00
1405.181, 27117.00
1406.233, 27100.00
1407.285, 27245.00
1408.337, 27044.00
1409.389, 27009.00
1410.440, 27106.00
1411.491, 26930.00
1412.542, 26796.00
1413.593, 26766.00
1414.644, 26686.00
1415.695, 26627.88
1416.745, 26669.00
1417.795, 26569.00
1418.845, 26567.00
1419.895, 26610.00
1420.945, 26536.00
1421.995, 26498.00
1423.044, 26300.00
1424.093, 26441.00
1425.142, 26347.00
1426.191, 26493.00
1427.240, 26295.00
1428.289, 26361.00
1429.337, 26594.00
1430.385, 26684.00
1431.433, 26505.00
1432.481, 26519.00
1433.529, 26638.00
1434.577, 26994.00
1435.624, 26935.00
1436.672, 27145.00
1437.719, 27247.00
1438.766, 27219.00
1439.812, 27171.00
1440.859, 27119.00
1441.905, 27168.68
1442.952, 27155.00
1443.998, 27267.00
1445.044, 27335.00
1446.090, 27365.00
1447.135, 27416.00
1448.181, 27465.00
1449.226, 27462.57
1450.271, 27541.00
1451.316, 27475.00
1452.361, 27444.00
1453.405, 27487.00
1454.450, 27792.00
1455.494, 27699.00
1456.538, 27750.00
1457.582, 27570.00
1458.626, 27871.00
1459.670, 27955.00
1460.713, 27681.00
1461.757, 27541.00
1462.800, 27488.00
1463.843, 27357.00
1464.886, 27199.00
1465.928, 27043.00
1466.971, 27222.00
1468.013, 26918.00
1469.055, 26886.00
1470.097, 26561.00
1471.139, 26282.00
1472.181, 26477.00
1473.222, 26534.00
1474.263, 26309.00
1475.305, 26422.00
1476.346, 26219.00
1477.386, 26356.00
1478.427, 26441.00
1479.468, 26302.00
1480.508, 26152.00
1481.548, 26415.00
1482.588, 26229.00
1483.628, 26282.00
1484.668, 26107.00
1485.707, 26269.00
1486.747, 26283.00
1487.786, 26306.00
1488.825, 26224.00
1489.864, 26352.00
1490.902, 26153.00
1491.941, 26357.00
1492.979, 26141.00
1494.017, 26355.00
1495.055, 26359.00
1496.093, 26216.00
1497.131, 26201.00
1498.168, 26237.00
1499.206, 26389.00
1500.243, 26406.00
1501.280, 26349.00
1502.317, 26498.00
1503.354, 26553.00
1504.390, 26540.00
1505.426, 26690.00
1506.463, 26616.00
1507.499, 26548.00
1508.535, 26543.00
1509.570, 26531.00
1510.606, 26677.00
1511.641, 26616.00
1512.676, 26596.00
1513.711, 26491.00
1514.746, 26687.00
1515.781, 26482.00
1516.816, 26666.00
1517.850, 26775.00
1518.884, 26722.00
1519.918, 26789.00
1520.952, 26724.00
1521.986, 26770.00
1523.019, 26704.00
1524.053, 26737.00
1525.086, 26577.00
1526.119, 26786.00
1527.152, 26871.00
1528.185, 26890.00
1529.217, 26805.00
1530.250, 26904.00
1531.282, 26666.00
1532.314, 26763.00
1533.346, 26823.00
1534.377, 26678.00
1535.409, 26829.00
1536.440, 26793.00
1537.472, 26748.00
1538.503, 26706.00
1539.534, 26868.00
1540.564, 26733.00
1541.595, 26795.00
1542.625, 26831.00
1543.656, 26714.00
1544.686, 26937.00
1545.716, 26953.00
1546.745, 26661.00
1547.775, 27032.00
1548.804, 26809.00
1549.834, 26771.00
1550.863, 26876.00
1551.892, 26855.00
1552.920, 27069.00
1553.949, 27080.00
1554.977, 26944.00
1556.006, 26846.00
1557.034, 26741.00
1558.062, 26644.00
1559.089, 26784.00
1560.117, 26929.00
1561.144, 26875.00
1562.172, 26860.00
1563.199, 26857.00
1564.226, 26734.00
1565.252, 26984.00
1566.279, 26963.00
1567.305, 26850.00
1568.332, 27052.00
1569.358, 26970.00
1570.384, 27174.00
##END=



