##NAMES=Elbaite
##RRUFFID=R060562
##IDEAL CHEMISTRY=Na(Al_1.5_Li_1.5_)Al_6_(Si_6_O_18_)(BO_3_)_3_(OH)_3_OH
##LOCALITY=unknown
##OWNER=RRUFF
##SOURCE=Gemological Institute of America
##DESCRIPTION=Blue colored polished fragment
##STATUS=The identification of this mineral has been confirmed by X-ray diffraction and chemical analysis
##URL=rruff.info/R060562
##MEASURED CHEMISTRY=(Na_0.68_Ca_0.20_[box]_0.12_)(Li_1.20_Al_1.12_Fe^2+^_0.50_Mn_0.18_)Al_6_(BO_3_)_3_[Si_6_O_18_]((OH)_0.80_F_0.20_)_4_
##PIN_ID=M00501
##ORIENTATION=Laser parallel to c* (0 0 1). Fiducial mark perpendicular to laser is parallel to -a [-1 0 0]
118.1340, 14357.00
119.3650, 14571.00
120.5960, 14901.00
121.8270, 15610.00
123.0580, 16474.00
124.2880, 17307.00
125.5190, 17612.00
126.7490, 18040.00
127.9790, 18968.00
129.2090, 19749.00
130.4390, 20138.00
131.6680, 20314.00
132.8980, 20144.00
134.1270, 19901.00
135.3560, 19762.00
136.5850, 19110.00
137.8140, 18693.00
139.0430, 18514.00
140.2710, 18085.00
141.5000, 17137.00
142.7280, 16820.00
143.9560, 16422.00
145.1840, 16494.00
146.4120, 16408.00
147.6390, 16451.00
148.8670, 16433.00
150.0940, 16782.00
151.3210, 17042.00
152.5490, 17227.00
153.7750, 17180.00
155.0020, 17291.00
156.2290, 17064.00
157.4550, 16954.00
158.6810, 16731.00
159.9080, 16672.00
161.1340, 16507.00
162.3590, 16540.00
163.5850, 16496.00
164.8110, 16623.00
166.0360, 16470.00
167.2610, 16281.00
168.4860, 16163.00
169.7110, 16255.00
170.9360, 16071.00
172.1610, 15942.00
173.3850, 15722.00
174.6100, 15540.00
175.8340, 15617.00
177.0580, 15644.00
178.2820, 15672.00
179.5050, 15649.00
180.7290, 15478.00
181.9520, 15574.00
183.1760, 15725.00
184.3990, 16031.00
185.6220, 16263.00
186.8450, 16360.00
188.0670, 16773.00
189.2900, 17005.00
190.5120, 17227.00
191.7340, 17687.00
192.9560, 18123.00
194.1780, 18528.00
195.4000, 18855.00
196.6220, 19109.00
197.8430, 19364.00
199.0640, 19503.00
200.2860, 19852.00
201.5070, 19822.15
202.7270, 20011.00
203.9480, 19719.00
205.1690, 19296.00
206.3890, 19041.00
207.6090, 19289.00
208.8290, 19568.00
210.0490, 19988.00
211.2690, 20498.00
212.4890, 21353.00
213.7080, 22155.00
214.9280, 23246.00
216.1470, 24549.00
217.3660, 25930.00
218.5850, 27674.00
219.8030, 29240.00
221.0220, 30919.00
222.2400, 32038.00
223.4590, 33239.00
224.6770, 34043.00
225.8950, 34285.00
227.1120, 34254.00
228.3300, 34202.00
229.5480, 33382.00
230.7650, 33160.00
231.9820, 32881.00
233.1990, 32319.00
234.4160, 32241.00
235.6330, 31801.00
236.8490, 31677.00
238.0660, 31522.00
239.2820, 31622.00
240.4980, 31469.00
241.7140, 30465.00
242.9300, 29422.00
244.1460, 27883.00
245.3610, 26454.00
246.5770, 24852.00
247.7920, 23310.00
249.0070, 21825.00
250.2220, 20405.00
251.4370, 19215.00
252.6510, 18233.00
253.8660, 17456.00
255.0800, 16658.00
256.2940, 16268.00
257.5080, 16577.00
258.7220, 15825.20
259.9360, 16653.00
261.1490, 15128.00
262.3630, 14416.00
263.5760, 14274.00
264.7890, 14097.00
266.0020, 14106.00
267.2150, 14013.86
268.4270, 13991.06
269.6400, 14017.00
270.8520, 14051.00
272.0640, 14168.00
273.2760, 14346.00
274.4880, 14392.00
275.7000, 15024.00
276.9120, 14795.00
278.1230, 15005.00
279.3340, 14896.00
280.5450, 14961.00
281.7560, 14967.00
282.9670, 15154.00
284.1780, 15392.00
285.3880, 15400.00
286.5980, 15233.00
287.8090, 15172.00
289.0190, 15336.00
290.2290, 15238.00
291.4380, 15312.00
292.6480, 15145.00
293.8570, 15151.00
295.0670, 15121.00
296.2760, 15206.00
297.4850, 15076.00
298.6930, 15092.00
299.9020, 15230.00
301.1110, 15413.00
302.3190, 15614.00
303.5270, 15811.72
304.7350, 16061.00
305.9430, 16293.00
307.1510, 16554.00
308.3580, 16881.00
309.5660, 17211.00
310.7730, 17398.00
311.9800, 17610.00
313.1870, 17933.00
314.3940, 18103.50
315.6010, 18378.49
316.8070, 18625.00
318.0130, 18957.00
319.2200, 19425.00
320.4260, 19903.00
321.6310, 20360.00
322.8370, 20912.00
324.0430, 21430.00
325.2480, 21874.00
326.4540, 22062.00
327.6590, 22331.00
328.8640, 22629.00
330.0680, 22638.00
331.2730, 22770.00
332.4780, 22733.00
333.6820, 22746.00
334.8860, 22660.00
336.0900, 22594.00
337.2940, 22549.00
338.4980, 22588.00
339.7010, 22482.00
340.9050, 22703.00
342.1080, 22811.00
343.3110, 23066.00
344.5140, 23067.00
345.7170, 23267.00
346.9200, 23158.00
348.1220, 23281.00
349.3240, 23164.00
350.5270, 23239.00
351.7290, 23270.00
352.9310, 23353.00
354.1320, 23793.00
355.3340, 24060.00
356.5350, 24621.00
357.7370, 25333.00
358.9380, 25979.00
360.1390, 26510.00
361.3400, 27449.00
362.5400, 28458.00
363.7410, 29637.00
364.9410, 30881.00
366.1410, 32472.00
367.3410, 34063.00
368.5410, 36349.00
369.7410, 38942.00
370.9400, 41717.00
372.1400, 45109.00
373.3390, 48429.00
374.5380, 51315.00
375.7370, 53171.00
376.9360, 53201.00
378.1350, 52119.00
379.3330, 49737.00
380.5310, 46518.00
381.7300, 43087.00
382.9280, 39999.00
384.1260, 37132.00
385.3230, 34163.00
386.5210, 32154.00
387.7180, 29972.00
388.9160, 28530.00
390.1130, 27278.00
391.3100, 26444.00
392.5060, 25437.00
393.7030, 24835.00
394.9000, 24308.00
396.0960, 23836.80
397.2920, 23624.00
398.4880, 23465.00
399.6840, 23541.00
400.8800, 23840.00
402.0750, 24087.00
403.2710, 24636.00
404.4660, 24856.00
405.6610, 25289.00
406.8560, 25405.00
408.0510, 25850.00
409.2450, 25587.00
410.4400, 25360.00
411.6340, 24617.00
412.8280, 23850.00
414.0220, 23020.00
415.2160, 22361.00
416.4100, 21572.00
417.6030, 20786.00
418.7970, 20080.00
419.9900, 19703.00
421.1830, 19113.00
422.3760, 18871.00
423.5690, 18380.00
424.7610, 18237.00
425.9540, 18070.00
427.1460, 17752.00
428.3380, 17548.00
429.5300, 17669.00
430.7220, 17455.00
431.9140, 17190.00
433.1050, 17494.00
434.2970, 17388.00
435.4880, 17165.00
436.6790, 17381.00
437.8700, 17217.00
439.0610, 17284.00
440.2510, 17444.00
441.4420, 17206.00
442.6320, 17439.00
443.8220, 17334.00
445.0120, 17389.00
446.2020, 17432.00
447.3910, 17380.04
448.5810, 17339.00
449.7700, 17343.00
450.9600, 17323.00
452.1490, 17296.00
453.3370, 17336.00
454.5260, 17419.00
455.7150, 17508.00
456.9030, 17716.00
458.0910, 17895.00
459.2800, 18114.00
460.4670, 18361.00
461.6550, 18597.00
462.8430, 18998.00
464.0300, 18901.00
465.2180, 19383.00
466.4050, 19356.00
467.5920, 19587.00
468.7790, 19652.00
469.9650, 19595.00
471.1520, 19794.00
472.3380, 19537.00
473.5250, 19675.00
474.7110, 19481.00
475.8970, 19519.00
477.0820, 19465.00
478.2680, 19294.00
479.4540, 19232.00
480.6390, 19112.00
481.8240, 18828.00
483.0090, 18942.00
484.1940, 18862.00
485.3780, 18751.00
486.5630, 18432.00
487.7470, 18537.00
488.9320, 18600.00
490.1160, 18279.00
491.3000, 18305.00
492.4830, 18505.00
493.6670, 18446.00
494.8500, 18565.00
496.0340, 18634.00
497.2170, 18683.00
498.4000, 18790.00
499.5820, 18795.00
500.7650, 18858.00
501.9480, 18901.00
503.1300, 18836.00
504.3120, 18837.00
505.4940, 18720.00
506.6760, 18817.00
507.8580, 18945.00
509.0390, 18787.00
510.2210, 18802.00
511.4020, 18443.00
512.5830, 18278.00
513.7640, 18082.00
514.9450, 17861.00
516.1250, 17610.00
517.3060, 17335.00
518.4860, 17101.00
519.6660, 16781.00
520.8460, 16600.00
522.0260, 16464.00
523.2060, 16423.00
524.3850, 16247.00
525.5650, 16332.00
526.7440, 16115.00
527.9230, 16336.00
529.1020, 16349.00
530.2810, 16437.00
531.4590, 16374.00
532.6380, 16697.00
533.8160, 16837.00
534.9940, 17094.00
536.1720, 17075.00
537.3500, 17323.00
538.5270, 17421.00
539.7050, 17600.00
540.8820, 17515.00
542.0590, 17632.00
543.2360, 17789.00
544.4130, 17765.00
545.5900, 17988.00
546.7660, 17858.00
547.9430, 17983.00
549.1190, 17899.00
550.2950, 17858.00
551.4710, 18120.00
552.6470, 17965.00
553.8220, 18110.00
554.9980, 17932.00
556.1730, 17825.00
557.3480, 17779.00
558.5230, 17476.00
559.6980, 17300.00
560.8730, 17297.00
562.0470, 16908.00
563.2220, 16658.00
564.3960, 16532.00
565.5700, 16448.00
566.7440, 16134.00
567.9170, 15730.00
569.0910, 15908.00
570.2640, 15711.00
571.4380, 15850.00
572.6110, 15428.00
573.7840, 15545.00
574.9570, 15433.00
576.1290, 15519.00
577.3020, 15398.00
578.4740, 15405.00
579.6460, 15417.00
580.8180, 15229.00
581.9900, 15121.00
583.1620, 15178.00
584.3330, 15138.00
585.5040, 15048.00
586.6760, 14781.00
587.8470, 14897.00
589.0180, 14653.00
590.1880, 14666.00
591.3590, 14479.00
592.5290, 14301.00
593.7000, 14319.00
594.8700, 14030.00
596.0400, 13996.00
597.2090, 13918.00
598.3790, 13974.00
599.5490, 13843.00
600.7180, 13942.00
601.8870, 13831.00
603.0560, 13482.00
604.2250, 13600.00
605.3940, 13555.00
606.5620, 13238.00
607.7300, 13098.00
608.8990, 13127.00
610.0670, 12876.00
611.2350, 12617.00
612.4020, 12851.00
613.5700, 12638.00
614.7370, 12442.00
615.9050, 12482.00
617.0720, 12208.00
618.2390, 12220.00
619.4060, 12309.00
620.5720, 12125.00
621.7390, 12291.00
622.9050, 12318.00
624.0710, 12458.00
625.2370, 12455.00
626.4030, 12706.00
627.5690, 12725.00
628.7340, 12871.00
629.9000, 13180.00
631.0650, 13332.00
632.2300, 13563.00
633.3950, 13700.00
634.5600, 13961.00
635.7240, 14109.00
636.8890, 14342.00
638.0530, 14301.00
639.2170, 14489.00
640.3810, 14459.00
641.5450, 14257.00
642.7080, 14184.00
643.8720, 14001.00
645.0350, 13789.00
646.1980, 13729.00
647.3610, 13732.00
648.5240, 13601.00
649.6870, 13712.30
650.8490, 13682.00
652.0120, 13963.00
653.1740, 13986.00
654.3360, 14229.00
655.4980, 14423.00
656.6600, 14475.00
657.8210, 14502.00
658.9830, 14382.00
660.1440, 14459.00
661.3050, 14178.00
662.4660, 14223.00
663.6270, 13747.00
664.7870, 13591.00
665.9480, 13501.00
667.1080, 13060.00
668.2680, 13041.00
669.4280, 12838.00
670.5880, 12725.00
671.7480, 12682.00
672.9070, 12629.01
674.0670, 12612.09
675.2260, 12608.00
676.3850, 12589.00
677.5440, 12486.00
678.7030, 12390.00
679.8610, 12198.00
681.0200, 12099.00
682.1780, 11906.00
683.3360, 11789.00
684.4940, 11739.00
685.6520, 11688.00
686.8090, 11698.00
687.9670, 11772.00
689.1240, 11582.00
690.2810, 11635.00
691.4380, 11775.00
692.5950, 11951.00
693.7520, 12010.00
694.9080, 12257.00
696.0650, 12486.00
697.2210, 12724.00
698.3770, 13061.00
699.5330, 13352.00
700.6880, 13682.00
701.8440, 14003.97
702.9990, 14324.00
704.1550, 14692.00
705.3100, 15106.00
706.4650, 15539.00
707.6190, 16045.00
708.7740, 16625.74
709.9290, 17252.00
711.0830, 17972.00
712.2370, 18808.00
713.3910, 19671.00
714.5450, 20958.00
715.6980, 22280.00
716.8520, 23835.00
718.0050, 25685.00
719.1580, 27863.00
720.3110, 30379.00
721.4640, 33413.00
722.6170, 36206.00
723.7700, 39973.00
724.9220, 43116.00
726.0740, 46958.00
727.2260, 50536.00
728.3780, 52485.00
729.5300, 53784.00
730.6810, 53785.00
731.8330, 52383.00
732.9840, 50300.00
734.1350, 47458.00
735.2860, 44492.00
736.4370, 41270.00
737.5880, 38667.00
738.7380, 36024.00
739.8880, 33810.00
741.0390, 31913.00
742.1890, 29974.00
743.3380, 28113.00
744.4880, 26794.00
745.6380, 25201.00
746.7870, 23684.00
747.9360, 22618.00
749.0850, 21327.00
750.2340, 20418.00
751.3830, 19635.00
752.5310, 18795.00
753.6800, 18079.00
754.8280, 17611.00
755.9760, 17154.00
757.1240, 16605.00
758.2720, 16177.55
759.4190, 15799.00
760.5670, 15244.00
761.7140, 14898.00
762.8610, 14386.00
764.0080, 14065.53
765.1550, 13697.16
766.3020, 13399.00
767.4480, 13081.00
768.5950, 12643.00
769.7410, 12440.00
770.8870, 12414.00
772.0330, 12030.27
773.1780, 11966.00
774.3240, 11596.00
775.4690, 11460.00
776.6140, 11449.00
777.7590, 11413.00
778.9040, 11329.00
780.0490, 11348.63
781.1940, 11258.00
782.3380, 11374.00
783.4820, 11368.00
784.6260, 11432.00
785.7700, 11444.00
786.9140, 11483.00
788.0580, 11512.00
789.2010, 11692.00
790.3450, 11836.00
791.4880, 11877.00
792.6310, 12131.00
793.7730, 12228.00
794.9160, 12406.00
796.0590, 12786.00
797.2010, 12927.00
798.3430, 13175.00
799.4850, 13478.00
800.6270, 13903.00
801.7690, 14116.31
802.9100, 14484.00
804.0520, 14607.00
805.1930, 14751.00
806.3340, 14900.00
807.4750, 14844.00
808.6160, 14817.24
809.7560, 14555.00
810.8970, 14492.00
812.0370, 14303.00
813.1770, 13966.00
814.3170, 13736.00
815.4570, 13268.00
816.5960, 12950.00
817.7360, 12596.00
818.8750, 12474.00
820.0140, 12030.00
821.1530, 11854.00
822.2920, 11672.00
823.4310, 11744.00
824.5690, 11500.00
825.7070, 11628.00
826.8460, 11904.00
827.9840, 12001.00
829.1220, 12168.00
830.2590, 12445.00
831.3970, 12665.00
832.5340, 12782.00
833.6710, 12974.00
834.8080, 13047.61
835.9450, 13024.00
837.0820, 13110.00
838.2190, 13015.00
839.3550, 12903.00
840.4910, 12659.00
841.6270, 12313.00
842.7630, 12138.00
843.8990, 11954.00
845.0350, 11803.00
846.1700, 11585.00
847.3060, 11473.00
848.4410, 11232.00
849.5760, 11024.00
850.7100, 11169.00
851.8450, 10993.00
852.9800, 10905.00
854.1140, 10878.00
855.2480, 11000.00
856.3820, 10951.00
857.5160, 10929.00
858.6500, 10897.00
859.7830, 10792.00
860.9170, 10753.00
862.0500, 10766.00
863.1830, 10769.00
864.3160, 10609.00
865.4480, 10473.00
866.5810, 10331.00
867.7130, 10441.00
868.8460, 10370.00
869.9780, 10293.00
871.1100, 10318.00
872.2410, 10265.00
873.3730, 10211.00
874.5050, 10071.00
875.6360, 10044.00
876.7670, 10066.00
877.8980, 10061.00
879.0290, 9938.000
880.1590, 10004.00
881.2900, 10047.00
882.4200, 9993.000
883.5500, 9855.000
884.6800, 9847.000
885.8100, 9900.000
886.9400, 9860.000
888.0690, 9879.000
889.1990, 9914.000
890.3280, 9926.000
891.4570, 9960.000
892.5860, 9998.000
893.7140, 9848.000
894.8430, 9954.000
895.9710, 9905.000
897.1000, 10017.00
898.2280, 10060.00
899.3560, 9895.000
900.4830, 9966.000
901.6110, 10031.00
902.7380, 10000.00
903.8660, 10126.00
904.9930, 10072.00
906.1200, 9983.000
907.2460, 10081.00
908.3730, 10227.00
909.5000, 10049.00
910.6260, 10251.00
911.7520, 10301.12
912.8780, 10452.00
914.0040, 10465.00
915.1290, 10519.00
916.2550, 10469.00
917.3800, 10428.00
918.5050, 10637.81
919.6300, 10602.80
920.7550, 10775.93
921.8800, 10739.00
923.0040, 11060.00
924.1290, 11178.00
925.2530, 11233.00
926.3770, 11242.00
927.5010, 11352.00
928.6250, 11583.00
929.7480, 11684.00
930.8720, 11834.18
931.9950, 11956.00
933.1180, 12110.00
934.2410, 12213.00
935.3640, 12373.00
936.4860, 12573.00
937.6090, 12702.00
938.7310, 12877.00
939.8530, 13039.00
940.9750, 13156.00
942.0970, 13316.00
943.2180, 13461.55
944.3400, 13560.27
945.4610, 13736.00
946.5820, 13766.00
947.7030, 13838.00
948.8240, 13951.00
949.9450, 14031.00
951.0650, 14055.00
952.1860, 14110.00
953.3060, 14127.00
954.4260, 14236.00
955.5460, 14381.00
956.6650, 14412.00
957.7850, 14509.00
958.9040, 14541.00
960.0230, 14630.00
961.1420, 14701.87
962.2610, 14809.00
963.3800, 14851.00
964.4990, 14916.00
965.6170, 14982.00
966.7350, 15197.00
967.8530, 15156.00
968.9710, 15276.00
970.0890, 15232.00
971.2070, 15593.00
972.3240, 15658.00
973.4410, 15537.00
974.5580, 15516.00
975.6750, 15530.52
976.7920, 15382.00
977.9090, 15500.00
979.0250, 15403.00
980.1410, 15285.00
981.2580, 15253.00
982.3740, 15112.00
983.4890, 15010.00
984.6050, 15170.00
985.7200, 14855.00
986.8360, 14946.00
987.9510, 14904.00
989.0660, 14763.00
990.1810, 14849.00
991.2950, 14769.00
992.4100, 14761.00
993.5240, 14692.00
994.6390, 14736.87
995.7530, 14767.00
996.8660, 14861.00
997.9800, 14785.00
999.0940, 14875.00
1000.207, 14975.00
1001.320, 15154.00
1002.433, 15124.00
1003.546, 15376.00
1004.659, 15505.00
1005.772, 15459.00
1006.884, 15634.00
1007.996, 15869.00
1009.108, 15870.00
1010.220, 16194.00
1011.332, 16481.00
1012.444, 16602.00
1013.555, 17031.00
1014.666, 16978.00
1015.777, 17405.00
1016.888, 17683.00
1017.999, 17728.00
1019.110, 18047.00
1020.220, 18258.00
1021.331, 18467.00
1022.441, 18425.00
1023.551, 18803.00
1024.661, 18763.00
1025.770, 19082.00
1026.880, 18952.00
1027.989, 19152.00
1029.098, 19232.00
1030.207, 19325.00
1031.316, 19703.00
1032.425, 19890.00
1033.533, 20198.00
1034.642, 20560.00
1035.750, 20911.00
1036.858, 21389.00
1037.966, 21967.00
1039.073, 22476.00
1040.181, 23018.00
1041.288, 23579.00
1042.396, 24537.00
1043.503, 25684.00
1044.610, 26550.00
1045.716, 27468.00
1046.823, 28697.85
1047.929, 29784.00
1049.036, 31262.00
1050.142, 32544.00
1051.248, 34178.00
1052.353, 36077.00
1053.459, 38081.00
1054.564, 39973.00
1055.670, 41914.21
1056.775, 43782.00
1057.880, 45678.00
1058.985, 47505.00
1060.089, 49186.00
1061.194, 49864.00
1062.298, 50601.00
1063.402, 50431.00
1064.506, 49645.00
1065.610, 48603.00
1066.713, 46897.00
1067.817, 44816.00
1068.920, 42112.00
1070.023, 39899.00
1071.126, 36940.00
1072.229, 34697.00
1073.332, 32012.00
1074.435, 30015.00
1075.537, 27839.00
1076.639, 26213.00
1077.741, 24307.00
1078.843, 23159.00
1079.945, 21892.00
1081.046, 20813.00
1082.148, 19842.00
1083.249, 19114.00
1084.350, 18411.08
1085.451, 17914.00
1086.551, 17444.00
1087.652, 17039.00
1088.752, 16657.49
1089.853, 16398.00
1090.953, 16073.00
1092.053, 15767.00
1093.152, 15670.00
1094.252, 15288.00
1095.351, 15140.00
1096.451, 15103.00
1097.550, 14861.00
1098.649, 14751.00
1099.748, 14647.00
1100.846, 14532.00
1101.945, 14323.00
1103.043, 14081.00
1104.141, 13945.00
1105.239, 13780.00
1106.337, 13737.00
1107.434, 13459.00
1108.532, 13486.00
1109.629, 13366.00
1110.726, 13251.00
1111.823, 13081.00
1112.920, 13015.00
1114.017, 12926.00
1115.113, 12985.00
1116.210, 12803.00
1117.306, 12854.00
1118.402, 12850.00
1119.498, 12803.00
1120.593, 12593.00
1121.689, 12598.00
1122.784, 12522.00
1123.879, 12468.00
1124.974, 12481.00
1126.069, 12269.00
1127.164, 12274.00
1128.259, 12184.00
1129.353, 12162.00
1130.447, 12134.90
1131.541, 12174.00
1132.635, 12089.00
1133.729, 12033.00
1134.822, 12019.00
1135.916, 12216.00
1137.009, 12297.00
1138.102, 12227.00
1139.195, 12295.00
1140.288, 12245.00
1141.380, 12422.00
1142.473, 12309.00
1143.565, 12488.00
1144.657, 12330.00
1145.749, 12355.00
1146.841, 12107.00
1147.932, 11876.00
1149.024, 11828.00
1150.115, 11836.00
1151.206, 11580.00
1152.297, 11457.00
1153.388, 11476.00
1154.479, 11390.00
1155.569, 11383.00
1156.659, 11252.00
1157.750, 11334.00
1158.839, 11254.00
1159.929, 11287.00
1161.019, 11286.00
1162.108, 11187.00
1163.198, 11114.00
1164.287, 11035.00
1165.376, 11160.00
1166.465, 11164.00
1167.553, 11073.00
1168.642, 11081.00
1169.730, 10996.00
1170.818, 11103.00
1171.906, 10906.00
1172.994, 11041.00
1174.082, 11084.00
1175.170, 10886.00
1176.257, 11128.00
1177.344, 11063.00
1178.431, 11036.00
1179.518, 11031.00
1180.605, 10990.00
1181.691, 11027.00
1182.778, 11001.61
1183.864, 11004.38
1184.950, 11000.00
1186.036, 10996.00
1187.122, 11020.00
1188.207, 10994.00
1189.292, 10984.00
1190.378, 10952.00
1191.463, 10962.00
1192.548, 11047.00
1193.632, 11045.00
1194.717, 11086.28
1195.801, 10996.00
1196.886, 11090.00
1197.970, 11089.00
1199.054, 10974.00
1200.137, 11013.00
1201.221, 11091.00
1202.305, 11081.00
1203.388, 11022.00
1204.471, 11031.00
1205.554, 11089.00
1206.637, 11048.00
1207.719, 11098.00
1208.802, 11057.00
1209.884, 11193.00
1210.966, 11115.00
1212.048, 11070.00
1213.130, 11169.00
1214.212, 11358.00
1215.293, 11134.00
1216.374, 11139.00
1217.456, 11181.00
1218.536, 11085.00
1219.617, 11207.00
1220.698, 11198.00
1221.778, 11351.00
1222.859, 11138.00
1223.939, 11151.00
1225.019, 11230.00
1226.099, 11304.00
1227.178, 11312.92
1228.258, 11349.74
1229.337, 11338.00
1230.417, 11373.00
1231.496, 11354.00
1232.574, 11386.00
1233.653, 11420.00
1234.732, 11418.00
1235.810, 11453.00
1236.888, 11593.00
1237.966, 11350.00
1239.044, 11424.00
1240.122, 11527.00
1241.199, 11615.00
1242.277, 11492.00
1243.354, 11542.00
1244.431, 11483.00
1245.508, 11606.00
1246.585, 11536.00
1247.661, 11550.00
1248.738, 11629.00
1249.814, 11675.00
1250.890, 11612.00
1251.966, 11549.00
1253.042, 11734.00
1254.117, 11770.00
1255.193, 11724.00
1256.268, 11887.00
1257.343, 11712.00
1258.418, 11790.00
1259.493, 11729.00
1260.567, 11837.00
1261.642, 11848.00
1262.716, 11800.00
1263.790, 11879.00
1264.864, 12026.00
1265.938, 11883.00
1267.011, 12039.00
1268.085, 11923.00
1269.158, 12229.00
1270.231, 12120.00
1271.304, 12117.00
1272.377, 12213.00
1273.450, 12436.00
1274.522, 12255.00
1275.594, 12310.00
1276.666, 12162.00
1277.738, 12368.00
1278.810, 12389.00
1279.882, 12298.00
1280.953, 12412.00
1282.025, 12382.00
1283.096, 12338.00
1284.167, 12315.00
1285.238, 12421.00
1286.308, 12433.00
1287.379, 12574.00
1288.449, 12474.00
1289.519, 12505.00
1290.589, 12500.00
1291.659, 12355.00
1292.729, 12548.00
1293.798, 12541.00
1294.868, 12428.00
1295.937, 12445.00
1297.006, 12448.00
1298.075, 12499.00
1299.143, 12566.00
1300.212, 12398.00
1301.280, 12565.00
1302.348, 12547.00
1303.416, 12618.00
1304.484, 12766.00
1305.552, 12572.00
1306.620, 12558.00
1307.687, 12562.00
1308.754, 12528.00
1309.821, 12590.00
1310.888, 12687.00
1311.955, 12807.00
1313.021, 12638.00
1314.088, 12763.00
1315.154, 12785.00
1316.220, 12874.00
1317.286, 12851.00
1318.352, 12950.00
1319.417, 12830.00
1320.483, 12858.00
1321.548, 12916.00
1322.613, 13033.00
1323.678, 13212.00
1324.743, 13126.00
1325.807, 13231.00
1326.872, 13205.00
1327.936, 13047.00
1329.000, 13175.00
1330.064, 13454.00
1331.128, 13511.88
1332.191, 13877.00
1333.255, 13771.00
1334.318, 13451.00
1335.381, 13234.00
1336.444, 13497.00
1337.507, 13256.73
1338.569, 13252.14
1339.632, 13189.00
1340.694, 13158.00
1341.756, 13113.00
1342.818, 13088.90
1343.880, 13069.72
1344.941, 13058.00
1346.003, 13045.00
1347.064, 13039.50
1348.125, 13029.79
1349.186, 13063.00
1350.247, 13054.00
1351.308, 13069.00
1352.368, 13124.00
1353.428, 13178.00
1354.489, 13134.00
1355.549, 13112.00
1356.608, 13207.00
1357.668, 13131.00
1358.727, 13084.00
1359.787, 13219.00
1360.846, 13206.00
1361.905, 13348.00
1362.964, 13229.00
1364.022, 13044.00
1365.081, 13292.00
1366.139, 13269.00
1367.197, 13274.00
1368.255, 13443.00
1369.313, 13605.00
1370.371, 13739.00
1371.428, 13638.00
1372.486, 13751.00
1373.543, 13852.00
1374.600, 13974.00
1375.657, 14135.09
1376.713, 14399.00
1377.770, 14527.00
1378.826, 14717.00
1379.882, 15015.00
1380.938, 15079.00
1381.994, 15358.00
1383.050, 15564.00
1384.106, 15524.00
1385.161, 15578.00
1386.216, 15695.00
1387.271, 15515.00
1388.326, 15467.00
1389.381, 15346.79
1390.435, 15323.29
1391.490, 15246.25
1392.544, 15118.78
1393.598, 14789.34
1394.652, 14720.70
1395.705, 14547.69
1396.759, 14370.24
1397.812, 14338.44
1398.866, 14038.39
1399.919, 14004.28
1400.972, 13864.05
1402.024, 13889.00
1403.077, 13749.00
1404.129, 13914.00
1405.181, 13658.00
1406.233, 13583.00
1407.285, 13457.00
1408.337, 13313.00
1409.389, 13526.00
1410.440, 13495.00
1411.491, 13413.00
1412.542, 13204.00
1413.593, 13348.00
1414.644, 13193.00
1415.695, 13201.00
1416.745, 13340.00
1417.795, 13302.00
1418.845, 13328.00
1419.895, 13259.00
1420.945, 13198.00
1421.995, 13290.00
1423.044, 13335.00
1424.093, 13415.00
1425.142, 13443.00
1426.191, 13383.00
1427.240, 13409.00
1428.289, 13382.00
1429.337, 13329.00
1430.385, 13310.00
1431.433, 13324.00
1432.481, 13253.00
1433.529, 13250.00
1434.577, 13170.00
1435.624, 13166.00
1436.672, 13020.00
1437.719, 12964.00
1438.766, 12887.00
1439.812, 12906.00
1440.859, 12842.00
1441.905, 12777.00
1442.952, 12823.00
1443.998, 12715.00
1445.044, 12654.00
1446.090, 12735.00
1447.135, 12651.00
1448.181, 12563.00
1449.226, 12605.00
1450.271, 12474.00
1451.316, 12760.00
1452.361, 12524.00
1453.405, 12689.00
1454.450, 12515.00
1455.494, 12453.00
1456.538, 12568.00
1457.582, 12569.00
1458.626, 12341.00
1459.670, 12610.00
1460.713, 12359.00
1461.757, 12344.00
1462.800, 12463.00
1463.843, 12458.00
1464.886, 12353.00
1465.928, 12496.00
1466.971, 12355.00
1468.013, 12267.00
1469.055, 12306.00
1470.097, 12300.00
1471.139, 12288.10
1472.181, 12308.00
1473.222, 12310.00
1474.263, 12336.00
1475.305, 12364.00
1476.346, 12348.00
1477.386, 12404.00
1478.427, 12367.00
1479.468, 12393.00
1480.508, 12343.00
1481.548, 12360.00
1482.588, 12398.00
1483.628, 12385.00
1484.668, 12381.00
1485.707, 12455.00
1486.747, 12466.00
1487.786, 12461.00
1488.825, 12364.00
1489.864, 12417.00
1490.902, 12409.00
1491.941, 12438.00
1492.979, 12512.00
1494.017, 12392.00
1495.055, 12541.00
1496.093, 12598.00
1497.131, 12481.00
1498.168, 12529.00
1499.206, 12524.00
1500.243, 12459.00
1501.280, 12484.00
1502.317, 12498.00
1503.354, 12796.00
1504.390, 12573.00
1505.426, 12742.00
1506.463, 12621.00
1507.499, 12684.00
1508.535, 12713.00
1509.570, 12843.00
1510.606, 12852.77
1511.641, 12832.00
1512.676, 12915.00
1513.711, 12908.00
1514.746, 12926.00
1515.781, 12866.00
1516.816, 12906.00
1517.850, 13004.00
1518.884, 12901.00
1519.918, 13049.00
1520.952, 12892.00
1521.986, 12983.00
1523.019, 12885.00
1524.053, 13018.00
1525.086, 12929.00
1526.119, 13108.00
1527.152, 13045.00
1528.185, 13044.00
1529.217, 12951.00
1530.250, 12960.00
1531.282, 12912.00
1532.314, 13020.00
1533.346, 13034.00
1534.377, 12865.00
1535.409, 13075.00
1536.440, 12875.00
1537.472, 12882.00
1538.503, 12960.00
1539.534, 12918.00
1540.564, 12967.00
1541.595, 12773.00
1542.625, 12999.00
1543.656, 12850.00
1544.686, 12995.00
1545.716, 12857.00
1546.745, 13051.00
1547.775, 12992.00
1548.804, 13019.00
1549.834, 12970.00
1550.863, 13029.00
1551.892, 12974.00
1552.920, 13250.00
1553.949, 13394.00
1554.977, 13286.00
1556.006, 13126.00
1557.034, 13001.00
1558.062, 12852.00
1559.089, 12840.52
1560.117, 12946.00
1561.144, 12892.00
1562.172, 12973.00
1563.199, 13091.00
1564.226, 12951.00
1565.252, 13042.00
1566.279, 13017.00
1567.305, 12996.00
1568.332, 13024.00
1569.358, 12986.00
1570.384, 13088.00
1571.409, 13075.00
1572.435, 13028.00
##END=



