##NAMES=Elbaite
##RRUFFID=R060631
##IDEAL CHEMISTRY=Na(Al_1.5_Li_1.5_)Al_6_(Si_6_O_18_)(BO_3_)_3_(OH)_3_OH
##LOCALITY=unknown
##OWNER=RRUFF
##SOURCE=Gemological Institute of America
##DESCRIPTION=Pink polished fragment
##STATUS=The identification of this mineral is confirmed by single-crystal X-ray diffraction and chemical analysis.
##URL=rruff.info/R060631
##MEASURED CHEMISTRY=(Na_0.55_Ca_0.34_[box]_0.11_)(Li_1.53_Al_1.30_Mn_0.14_Fe^2+^_0.03_)Al_6.00_(BO_3_)_3_[Si_6.00_O_18_]((OH)_0.82_F_0.18_)_4_
##PIN_ID=L01625
##ORIENTATION=Laser parallel to a* (1 0 0). Fiducial mark perpendicular to laser is parallel to c [0 0 1]
113.2080, 4426.000
114.4400, 4532.000
115.6710, 4522.000
116.9030, 4502.000
118.1340, 4409.000
119.3650, 4407.000
120.5960, 4413.000
121.8270, 4330.000
123.0580, 4295.000
124.2880, 4176.000
125.5190, 4189.000
126.7490, 4230.000
127.9790, 4141.000
129.2090, 4356.000
130.4390, 4347.000
131.6680, 4305.000
132.8980, 4347.000
134.1270, 4410.000
135.3560, 4501.000
136.5850, 4672.000
137.8140, 4783.000
139.0430, 4918.000
140.2710, 5035.000
141.5000, 5185.000
142.7280, 5376.000
143.9560, 5529.000
145.1840, 5748.000
146.4120, 5977.000
147.6390, 6126.000
148.8670, 6260.000
150.0940, 6497.000
151.3210, 6452.000
152.5490, 6372.000
153.7750, 6222.000
155.0020, 6235.000
156.2290, 6064.000
157.4550, 6011.000
158.6810, 5850.000
159.9080, 5833.000
161.1340, 5777.000
162.3590, 5819.000
163.5850, 5777.000
164.8110, 5685.000
166.0360, 5672.000
167.2610, 5665.000
168.4860, 5702.000
169.7110, 5694.000
170.9360, 5754.000
172.1610, 5758.000
173.3850, 5789.000
174.6100, 5940.000
175.8340, 5932.000
177.0580, 6125.000
178.2820, 6192.000
179.5050, 6294.000
180.7290, 6503.000
181.9520, 6788.000
183.1760, 7057.000
184.3990, 7236.000
185.6220, 7458.000
186.8450, 8037.000
188.0670, 8348.000
189.2900, 8867.000
190.5120, 9341.000
191.7340, 9859.000
192.9560, 10462.00
194.1780, 11006.00
195.4000, 11728.00
196.6220, 12421.00
197.8430, 13243.00
199.0640, 13810.00
200.2860, 14895.00
201.5070, 15623.00
202.7270, 16685.00
203.9480, 17523.00
205.1690, 18967.00
206.3890, 20421.00
207.6090, 22252.00
208.8290, 24386.00
210.0490, 26508.00
211.2690, 29085.00
212.4890, 31607.00
213.7080, 34643.00
214.9280, 37320.00
216.1470, 39840.00
217.3660, 41600.00
218.5850, 42775.00
219.8030, 43022.00
221.0220, 41985.00
222.2400, 40512.00
223.4590, 38363.00
224.6770, 36494.00
225.8950, 34415.00
227.1120, 32847.00
228.3300, 31663.00
229.5480, 30557.00
230.7650, 29987.00
231.9820, 29561.00
233.1990, 29763.00
234.4160, 29468.00
235.6330, 29658.00
236.8490, 29916.00
238.0660, 30182.00
239.2820, 30405.00
240.4980, 30153.00
241.7140, 30069.00
242.9300, 29525.00
244.1460, 28965.00
245.3610, 28135.00
246.5770, 26920.00
247.7920, 26378.00
249.0070, 25027.00
250.2220, 23707.00
251.4370, 22881.00
252.6510, 21943.00
253.8660, 21340.00
255.0800, 20636.00
256.2940, 20118.00
257.5080, 19916.00
258.7220, 19281.00
259.9360, 18791.00
261.1490, 18421.00
262.3630, 17880.00
263.5760, 17699.00
264.7890, 17398.00
266.0020, 17065.00
267.2150, 16619.00
268.4270, 16448.00
269.6400, 15705.00
270.8520, 15453.00
272.0640, 14877.00
273.2760, 14289.00
274.4880, 13734.00
275.7000, 13193.00
276.9120, 12571.00
278.1230, 11994.00
279.3340, 11359.00
280.5450, 10779.00
281.7560, 10369.00
282.9670, 9926.000
284.1780, 9428.000
285.3880, 9120.000
286.5980, 8900.000
287.8090, 8525.000
289.0190, 8309.000
290.2290, 8294.000
291.4380, 8154.000
292.6480, 8188.000
293.8570, 8204.000
295.0670, 8209.000
296.2760, 8384.000
297.4850, 8462.000
298.6930, 8531.000
299.9020, 8783.000
301.1110, 8969.000
302.3190, 9245.000
303.5270, 9538.000
304.7350, 9973.000
305.9430, 10320.00
307.1510, 10767.00
308.3580, 11232.00
309.5660, 11538.00
310.7730, 11723.00
311.9800, 11774.00
313.1870, 11819.00
314.3940, 11665.00
315.6010, 11363.00
316.8070, 10990.00
318.0130, 10808.00
319.2200, 10656.00
320.4260, 10490.00
321.6310, 10436.00
322.8370, 10271.00
324.0430, 10228.00
325.2480, 10386.00
326.4540, 10273.00
327.6590, 10368.00
328.8640, 10340.00
330.0680, 10296.00
331.2730, 10386.00
332.4780, 10418.00
333.6820, 10454.00
334.8860, 10488.00
336.0900, 10752.00
337.2940, 10902.00
338.4980, 11126.00
339.7010, 11359.00
340.9050, 11607.66
342.1080, 11851.00
343.3110, 12166.00
344.5140, 12487.00
345.7170, 12767.00
346.9200, 13336.00
348.1220, 13700.00
349.3240, 14538.00
350.5270, 14942.00
351.7290, 15903.00
352.9310, 16928.00
354.1320, 17932.00
355.3340, 19393.00
356.5350, 21161.00
357.7370, 23103.00
358.9380, 25813.00
360.1390, 28934.00
361.3400, 32212.00
362.5400, 36799.00
363.7410, 41614.00
364.9410, 46738.00
366.1410, 51772.00
367.3410, 56756.00
368.5410, 61073.00
369.7410, 63215.00
370.9400, 63941.00
372.1400, 62316.00
373.3390, 59076.00
374.5380, 53939.00
375.7370, 49290.00
376.9360, 44657.00
378.1350, 40203.00
379.3330, 36053.00
380.5310, 32770.00
381.7300, 30250.00
382.9280, 27980.00
384.1260, 26531.00
385.3230, 25299.00
386.5210, 24429.00
387.7180, 23777.00
388.9160, 23279.00
390.1130, 23277.00
391.3100, 23529.00
392.5060, 23667.00
393.7030, 24348.00
394.9000, 24823.00
396.0960, 25553.00
397.2920, 26286.00
398.4880, 27085.00
399.6840, 27570.00
400.8800, 27978.00
402.0750, 28275.00
403.2710, 28444.00
404.4660, 28121.94
405.6610, 27741.00
406.8560, 26869.00
408.0510, 25748.00
409.2450, 24461.00
410.4400, 22844.00
411.6340, 21243.00
412.8280, 19542.00
414.0220, 18249.00
415.2160, 16833.00
416.4100, 15350.00
417.6030, 14369.00
418.7970, 13442.00
419.9900, 12680.00
421.1830, 12006.00
422.3760, 11388.00
423.5690, 10883.36
424.7610, 10291.00
425.9540, 10073.00
427.1460, 9727.000
428.3380, 9448.963
429.5300, 9138.000
430.7220, 8958.000
431.9140, 8815.000
433.1050, 8627.000
434.2970, 8570.000
435.4880, 8356.000
436.6790, 8286.000
437.8700, 8056.000
439.0610, 7952.000
440.2510, 8014.000
441.4420, 7979.000
442.6320, 7758.000
443.8220, 7813.952
445.0120, 7715.688
446.2020, 7726.000
447.3910, 7645.000
448.5810, 7553.000
449.7700, 7543.000
450.9600, 7428.000
452.1490, 7543.000
453.3370, 7499.000
454.5260, 7526.000
455.7150, 7520.000
456.9030, 7620.000
458.0910, 7498.000
459.2800, 7623.000
460.4670, 7717.000
461.6550, 7561.000
462.8430, 7769.000
464.0300, 7646.000
465.2180, 7694.000
466.4050, 7614.000
467.5920, 7682.000
468.7790, 7609.869
469.9650, 7630.000
471.1520, 7488.000
472.3380, 7430.000
473.5250, 7361.000
474.7110, 7418.000
475.8970, 7447.449
477.0820, 7555.000
478.2680, 7635.000
479.4540, 7804.000
480.6390, 7943.000
481.8240, 8040.063
483.0090, 8105.000
484.1940, 8291.000
485.3780, 8355.000
486.5630, 8558.000
487.7470, 8780.000
488.9320, 8922.000
490.1160, 9172.000
491.3000, 9413.000
492.4830, 9608.000
493.6670, 9873.000
494.8500, 10176.00
496.0340, 10531.00
497.2170, 10722.00
498.4000, 11175.00
499.5820, 11403.00
500.7650, 11804.00
501.9480, 12024.00
503.1300, 12153.00
504.3120, 12663.00
505.4940, 12574.00
506.6760, 13097.00
507.8580, 13152.00
509.0390, 13198.00
510.2210, 13252.00
511.4020, 13307.00
512.5830, 13104.00
513.7640, 12954.00
514.9450, 12868.00
516.1250, 12570.00
517.3060, 12040.00
518.4860, 11825.00
519.6660, 11399.00
520.8460, 11153.00
522.0260, 10983.00
523.2060, 10623.00
524.3850, 10478.00
525.5650, 10247.00
526.7440, 10140.00
527.9230, 10016.00
529.1020, 9970.000
530.2810, 9767.000
531.4590, 9682.000
532.6380, 9638.000
533.8160, 9611.000
534.9940, 9459.000
536.1720, 9356.000
537.3500, 9247.000
538.5270, 8977.000
539.7050, 8827.000
540.8820, 8864.000
542.0590, 8581.000
543.2360, 8559.000
544.4130, 8480.000
545.5900, 8495.000
546.7660, 8426.000
547.9430, 8369.159
549.1190, 8258.000
550.2950, 8231.000
551.4710, 8161.000
552.6470, 8077.000
553.8220, 8089.000
554.9980, 8131.000
556.1730, 8085.000
557.3480, 8089.000
558.5230, 8078.000
559.6980, 8046.000
560.8730, 8120.000
562.0470, 8157.000
563.2220, 8012.000
564.3960, 8015.000
565.5700, 8090.000
566.7440, 8069.418
567.9170, 8120.641
569.0910, 8194.000
570.2640, 8192.000
571.4380, 8292.000
572.6110, 8328.000
573.7840, 8277.000
574.9570, 8381.000
576.1290, 8319.000
577.3020, 8450.000
578.4740, 8544.000
579.6460, 8618.000
580.8180, 8502.000
581.9900, 8485.000
583.1620, 8622.000
584.3330, 8610.000
585.5040, 8694.000
586.6760, 8768.000
587.8470, 8800.000
589.0180, 8776.000
590.1880, 8683.000
591.3590, 8747.000
592.5290, 8710.000
593.7000, 8826.000
594.8700, 8797.000
596.0400, 8718.000
597.2090, 8647.000
598.3790, 8680.000
599.5490, 8753.000
600.7180, 8675.000
601.8870, 8736.000
603.0560, 8692.000
604.2250, 8754.000
605.3940, 8780.275
606.5620, 8756.000
607.7300, 8861.000
608.8990, 8942.000
610.0670, 8990.000
611.2350, 9078.000
612.4020, 9139.000
613.5700, 9172.000
614.7370, 9452.000
615.9050, 9502.000
617.0720, 9900.000
618.2390, 10161.00
619.4060, 10438.00
620.5720, 10915.00
621.7390, 11376.00
622.9050, 11936.00
624.0710, 12789.00
625.2370, 13663.00
626.4030, 14404.00
627.5690, 15500.00
628.7340, 16523.00
629.9000, 17505.00
631.0650, 18422.00
632.2300, 19176.00
633.3950, 19588.00
634.5600, 19711.00
635.7240, 19688.00
636.8890, 19177.00
638.0530, 18831.00
639.2170, 18262.00
640.3810, 17531.00
641.5450, 17125.00
642.7080, 16543.00
643.8720, 15959.00
645.0350, 15460.00
646.1980, 15209.00
647.3610, 15131.00
648.5240, 14842.00
649.6870, 14481.00
650.8490, 14081.00
652.0120, 13809.00
653.1740, 13388.00
654.3360, 13156.00
655.4980, 12856.00
656.6600, 12590.00
657.8210, 12112.00
658.9830, 11775.00
660.1440, 11462.00
661.3050, 11077.00
662.4660, 10802.00
663.6270, 10615.00
664.7870, 10243.00
665.9480, 9928.000
667.1080, 9828.000
668.2680, 9501.000
669.4280, 9396.000
670.5880, 9356.000
671.7480, 9200.000
672.9070, 9226.000
674.0670, 9239.000
675.2260, 9181.000
676.3850, 9309.000
677.5440, 9265.000
678.7030, 9333.000
679.8610, 9485.000
681.0200, 9640.000
682.1780, 9942.000
683.3360, 10160.00
684.4940, 10441.00
685.6520, 10888.00
686.8090, 11381.00
687.9670, 12026.00
689.1240, 12662.00
690.2810, 13651.00
691.4380, 14536.00
692.5950, 15561.00
693.7520, 16888.00
694.9080, 18225.00
696.0650, 19704.00
697.2210, 21313.00
698.3770, 23307.00
699.5330, 25051.00
700.6880, 26931.00
701.8440, 28633.00
702.9990, 29678.00
704.1550, 30733.00
705.3100, 30995.00
706.4650, 30663.00
707.6190, 30099.00
708.7740, 28796.00
709.9290, 26962.00
711.0830, 25235.00
712.2370, 23324.00
713.3910, 21302.00
714.5450, 19270.00
715.6980, 17879.00
716.8520, 16282.00
718.0050, 15155.00
719.1580, 14188.84
720.3110, 13356.58
721.4640, 12724.00
722.6170, 12300.00
723.7700, 11806.00
724.9220, 11501.00
726.0740, 11465.00
727.2260, 11244.00
728.3780, 11136.00
729.5300, 11157.00
730.6810, 11151.00
731.8330, 11141.00
732.9840, 11409.00
734.1350, 11417.00
735.2860, 11632.00
736.4370, 11966.00
737.5880, 12000.00
738.7380, 12203.00
739.8880, 12413.00
741.0390, 12576.00
742.1890, 12534.00
743.3380, 12588.00
744.4880, 12553.00
745.6380, 12228.00
746.7870, 12169.00
747.9360, 11738.00
749.0850, 11390.00
750.2340, 10982.00
751.3830, 10616.00
752.5310, 10096.00
753.6800, 9890.000
754.8280, 9342.000
755.9760, 9039.000
757.1240, 8602.000
758.2720, 8315.000
759.4190, 8041.000
760.5670, 7840.000
761.7140, 7598.000
762.8610, 7422.000
764.0080, 7348.000
765.1550, 7013.000
766.3020, 6863.000
767.4480, 6899.000
768.5950, 6766.000
769.7410, 6634.000
770.8870, 6521.000
772.0330, 6556.000
773.1780, 6432.000
774.3240, 6554.000
775.4690, 6360.000
776.6140, 6450.000
777.7590, 6379.000
778.9040, 6388.000
780.0490, 6398.000
781.1940, 6381.000
782.3380, 6404.000
783.4820, 6334.000
784.6260, 6287.000
785.7700, 6385.000
786.9140, 6346.000
788.0580, 6253.000
789.2010, 6341.000
790.3450, 6254.000
791.4880, 6188.000
792.6310, 6140.000
793.7730, 6265.000
794.9160, 6124.000
796.0590, 6192.000
797.2010, 6006.000
798.3430, 6023.000
799.4850, 5907.000
800.6270, 5902.000
801.7690, 5821.000
802.9100, 5739.000
804.0520, 5805.000
805.1930, 5796.000
806.3340, 5719.000
807.4750, 5790.000
808.6160, 5709.000
809.7560, 5644.000
810.8970, 5687.000
812.0370, 5598.000
813.1770, 5717.000
814.3170, 5668.000
815.4570, 5693.000
816.5960, 5635.000
817.7360, 5628.000
818.8750, 5739.000
820.0140, 5601.000
821.1530, 5692.000
822.2920, 5631.000
823.4310, 5608.000
824.5690, 5678.000
825.7070, 5652.000
826.8460, 5719.000
827.9840, 5779.000
829.1220, 5620.000
830.2590, 5717.000
831.3970, 5657.000
832.5340, 5777.000
833.6710, 5699.000
834.8080, 5803.000
835.9450, 5777.000
837.0820, 5752.000
838.2190, 5731.000
839.3550, 5717.000
840.4910, 5708.214
841.6270, 5780.000
842.7630, 5694.000
843.8990, 5766.000
845.0350, 5749.000
846.1700, 5817.000
847.3060, 5794.000
848.4410, 5816.000
849.5760, 5868.000
850.7100, 5837.000
851.8450, 5830.000
852.9800, 5941.000
854.1140, 5919.000
855.2480, 5894.000
856.3820, 5952.000
857.5160, 5930.000
858.6500, 6052.000
859.7830, 6009.000
860.9170, 5959.000
862.0500, 6117.000
863.1830, 6016.000
864.3160, 6083.000
865.4480, 6114.000
866.5810, 6107.000
867.7130, 6123.000
868.8460, 6078.000
869.9780, 6178.000
871.1100, 6282.000
872.2410, 6132.000
873.3730, 6203.000
874.5050, 6196.000
875.6360, 6145.000
876.7670, 6109.000
877.8980, 6165.000
879.0290, 6161.000
880.1590, 6164.000
881.2900, 6179.625
882.4200, 6182.000
883.5500, 6193.000
884.6800, 6178.000
885.8100, 6209.000
886.9400, 6193.364
888.0690, 6074.000
889.1990, 6157.000
890.3280, 6156.000
891.4570, 6092.000
892.5860, 6133.000
893.7140, 6259.000
894.8430, 6152.000
895.9710, 6168.000
897.1000, 6164.000
898.2280, 6103.000
899.3560, 6134.000
900.4830, 6163.000
901.6110, 6181.000
902.7380, 6125.000
903.8660, 6222.000
904.9930, 6146.000
906.1200, 6198.000
907.2460, 6208.000
908.3730, 6180.000
909.5000, 6275.000
910.6260, 6199.000
911.7520, 6147.000
912.8780, 6314.000
914.0040, 6237.000
915.1290, 6400.000
916.2550, 6402.000
917.3800, 6408.000
918.5050, 6408.000
919.6300, 6362.000
920.7550, 6366.000
921.8800, 6397.740
923.0040, 6431.289
924.1290, 6469.000
925.2530, 6590.000
926.3770, 6593.000
927.5010, 6732.000
928.6250, 6715.000
929.7480, 6764.000
930.8720, 6879.000
931.9950, 6874.000
933.1180, 6858.000
934.2410, 6960.000
935.3640, 7068.000
936.4860, 7193.000
937.6090, 7034.000
938.7310, 7246.000
939.8530, 7259.000
940.9750, 7462.000
942.0970, 7499.000
943.2180, 7506.000
944.3400, 7621.000
945.4610, 7798.000
946.5820, 8042.000
947.7030, 8210.000
948.8240, 8382.000
949.9450, 8385.000
951.0650, 8607.000
952.1860, 8809.000
953.3060, 8858.000
954.4260, 9102.000
955.5460, 9283.000
956.6650, 9573.000
957.7850, 9898.000
958.9040, 9973.000
960.0230, 10178.00
961.1420, 10253.00
962.2610, 10411.00
963.3800, 10630.00
964.4990, 10687.00
965.6170, 10776.00
966.7350, 10934.00
967.8530, 10950.00
968.9710, 10981.39
970.0890, 11111.00
971.2070, 10943.00
972.3240, 10984.00
973.4410, 10948.00
974.5580, 10918.00
975.6750, 10793.00
976.7920, 10767.00
977.9090, 10687.00
979.0250, 10668.00
980.1410, 10529.00
981.2580, 10668.00
982.3740, 10569.00
983.4890, 10680.00
984.6050, 10587.00
985.7200, 10692.00
986.8360, 10605.00
987.9510, 10658.00
989.0660, 10733.00
990.1810, 10531.00
991.2950, 10644.00
992.4100, 10593.00
993.5240, 10640.00
994.6390, 10669.00
995.7530, 10727.00
996.8660, 10624.00
997.9800, 10638.00
999.0940, 10560.00
1000.207, 10486.00
1001.320, 10602.00
1002.433, 10528.00
1003.546, 10419.00
1004.659, 10281.00
1005.772, 10262.00
1006.884, 10186.79
1007.996, 10189.67
1009.108, 10176.00
1010.220, 10186.00
1011.332, 10186.38
1012.444, 10195.00
1013.555, 10195.00
1014.666, 10110.00
1015.777, 10102.00
1016.888, 10094.29
1017.999, 10076.39
1019.110, 10073.00
1020.220, 10109.00
1021.331, 10046.07
1022.441, 10098.00
1023.551, 9959.000
1024.661, 9920.000
1025.770, 9845.000
1026.880, 9902.000
1027.989, 9719.000
1029.098, 9687.000
1030.207, 9478.000
1031.316, 9619.000
1032.425, 9475.000
1033.533, 9426.000
1034.642, 9583.000
1035.750, 9411.000
1036.858, 9404.000
1037.966, 9504.000
1039.073, 9491.000
1040.181, 9450.000
1041.288, 9519.000
1042.396, 9444.000
1043.503, 9503.000
1044.610, 9481.000
1045.716, 9602.000
1046.823, 9621.000
1047.929, 9787.000
1049.036, 9803.000
1050.142, 9933.000
1051.248, 9996.000
1052.353, 10270.00
1053.459, 10255.00
1054.564, 10520.00
1055.670, 10646.00
1056.775, 10717.00
1057.880, 10912.00
1058.985, 11075.00
1060.089, 11257.00
1061.194, 11529.00
1062.298, 11616.00
1063.402, 11858.00
1064.506, 12252.00
1065.610, 12519.00
1066.713, 12702.00
1067.817, 13097.00
1068.920, 13240.00
1070.023, 13477.00
1071.126, 13852.00
1072.229, 14167.00
1073.332, 14515.00
1074.435, 14738.00
1075.537, 15076.00
1076.639, 15253.00
1077.741, 15960.00
1078.843, 16120.00
1079.945, 16624.00
1081.046, 16963.00
1082.148, 17158.00
1083.249, 17400.00
1084.350, 17519.89
1085.451, 17613.38
1086.551, 17627.00
1087.652, 17562.00
1088.752, 17491.00
1089.853, 17152.00
1090.953, 16912.00
1092.053, 16622.00
1093.152, 16015.00
1094.252, 15966.00
1095.351, 15330.00
1096.451, 15012.00
1097.550, 14605.00
1098.649, 14218.00
1099.748, 13746.00
1100.846, 13426.00
1101.945, 12996.00
1103.043, 12624.00
1104.141, 12247.00
1105.239, 11855.00
1106.337, 11526.00
1107.434, 11201.00
1108.532, 10910.00
1109.629, 10596.00
1110.726, 10407.96
1111.823, 10201.00
1112.920, 10048.00
1114.017, 9951.000
1115.113, 9744.000
1116.210, 9623.000
1117.306, 9534.000
1118.402, 9389.000
1119.498, 9349.000
1120.593, 9213.000
1121.689, 9033.000
1122.784, 9084.000
1123.879, 8951.000
1124.974, 8914.000
1126.069, 8640.000
1127.164, 8516.000
1128.259, 8431.000
1129.353, 8340.000
1130.447, 8273.000
1131.541, 8168.000
1132.635, 8044.000
1133.729, 7914.000
1134.822, 7902.000
1135.916, 7848.000
1137.009, 7824.000
1138.102, 7750.719
1139.195, 7650.000
1140.288, 7625.000
1141.380, 7539.000
1142.473, 7543.000
1143.565, 7447.000
1144.657, 7434.000
1145.749, 7307.000
1146.841, 7314.000
1147.932, 7202.000
1149.024, 7235.000
1150.115, 7222.000
1151.206, 7119.000
1152.297, 7107.000
1153.388, 7055.000
1154.479, 7072.000
1155.569, 7095.000
1156.659, 7032.000
1157.750, 6982.000
1158.839, 6961.830
1159.929, 7067.000
1161.019, 6926.000
1162.108, 6903.000
1163.198, 6975.000
1164.287, 6895.000
1165.376, 6925.000
1166.465, 6937.000
1167.553, 7033.000
1168.642, 6865.000
1169.730, 6920.000
1170.818, 6869.000
1171.906, 6911.000
1172.994, 6983.000
1174.082, 6938.000
1175.170, 6924.000
1176.257, 6902.000
1177.344, 7008.000
1178.431, 6980.000
1179.518, 6945.000
1180.605, 6867.000
1181.691, 7015.000
1182.778, 6915.000
1183.864, 6828.000
1184.950, 6988.000
1186.036, 7027.000
1187.122, 6888.000
1188.207, 6953.000
1189.292, 6846.000
1190.378, 6968.000
1191.463, 6886.000
1192.548, 7017.000
1193.632, 6939.000
1194.717, 6999.000
1195.801, 6986.000
1196.886, 6885.000
1197.970, 6947.000
1199.054, 7029.000
1200.137, 6868.000
1201.221, 7011.000
1202.305, 6974.000
1203.388, 6988.000
1204.471, 7076.000
1205.554, 6957.000
1206.637, 6982.000
1207.719, 6993.000
1208.802, 6950.000
1209.884, 6958.995
1210.966, 6968.000
1212.048, 6955.000
1213.130, 6968.000
1214.212, 7028.000
1215.293, 7025.000
1216.374, 6968.000
1217.456, 7122.000
1218.536, 7070.000
1219.617, 7007.000
1220.698, 7058.000
1221.778, 7079.000
1222.859, 7049.000
1223.939, 7038.000
1225.019, 7009.000
1226.099, 7044.000
1227.178, 7105.000
1228.258, 7178.000
1229.337, 7161.000
1230.417, 7089.000
1231.496, 7075.000
1232.574, 7108.000
1233.653, 7196.000
1234.732, 7080.000
1235.810, 7153.000
1236.888, 7091.000
1237.966, 7113.000
1239.044, 7024.000
1240.122, 7096.000
1241.199, 7070.000
1242.277, 7143.000
1243.354, 7107.000
1244.431, 7168.000
1245.508, 7085.000
1246.585, 7095.000
1247.661, 7154.000
1248.738, 7140.000
1249.814, 7150.243
1250.890, 7093.000
1251.966, 7146.000
1253.042, 7174.000
1254.117, 7194.000
1255.193, 7133.000
1256.268, 7163.000
1257.343, 7121.000
1258.418, 7208.000
1259.493, 7249.000
1260.567, 7276.000
1261.642, 7203.000
1262.716, 7275.000
1263.790, 7252.000
1264.864, 7312.000
1265.938, 7321.744
1267.011, 7295.000
1268.085, 7338.000
1269.158, 7321.000
1270.231, 7306.000
1271.304, 7354.000
1272.377, 7352.000
1273.450, 7327.000
1274.522, 7318.000
1275.594, 7428.000
1276.666, 7376.000
1277.738, 7409.000
1278.810, 7346.000
1279.882, 7399.000
1280.953, 7422.000
1282.025, 7512.000
1283.096, 7379.000
1284.167, 7373.000
1285.238, 7365.000
1286.308, 7411.000
1287.379, 7378.896
1288.449, 7387.877
1289.519, 7355.000
1290.589, 7402.000
1291.659, 7412.000
1292.729, 7479.000
1293.798, 7396.000
1294.868, 7413.000
1295.937, 7370.000
1297.006, 7373.337
1298.075, 7409.097
1299.143, 7389.000
1300.212, 7487.000
1301.280, 7481.000
1302.348, 7499.000
1303.416, 7465.000
1304.484, 7440.000
1305.552, 7424.000
1306.620, 7383.000
1307.687, 7419.000
1308.754, 7507.000
1309.821, 7443.000
1310.888, 7581.000
1311.955, 7551.000
1313.021, 7470.000
1314.088, 7412.000
1315.154, 7504.000
1316.220, 7539.000
1317.286, 7555.000
1318.352, 7489.000
1319.417, 7645.000
1320.483, 7478.000
1321.548, 7517.000
1322.613, 7563.000
1323.678, 7524.000
1324.743, 7622.000
1325.807, 7571.000
1326.872, 7476.000
1327.936, 7579.000
1329.000, 7550.000
1330.064, 7569.000
1331.128, 7589.000
1332.191, 7605.000
1333.255, 7606.000
1334.318, 7539.000
1335.381, 7540.000
1336.444, 7550.000
1337.507, 7561.000
1338.569, 7570.000
1339.632, 7514.000
1340.694, 7639.000
1341.756, 7639.000
1342.818, 7592.000
1343.880, 7533.000
1344.941, 7550.736
1346.003, 7507.000
1347.064, 7587.000
1348.125, 7654.000
1349.186, 7730.000
1350.247, 7652.000
1351.308, 7673.000
1352.368, 7683.000
1353.428, 7702.000
1354.489, 7666.000
1355.549, 7638.000
1356.608, 7631.000
1357.668, 7726.000
1358.727, 7705.000
1359.787, 7728.000
1360.846, 7831.000
1361.905, 7813.000
1362.964, 7715.000
1364.022, 7761.000
1365.081, 7664.000
1366.139, 7764.000
1367.197, 7769.000
1368.255, 7797.000
1369.313, 7878.000
1370.371, 7812.000
1371.428, 7825.000
1372.486, 7792.000
1373.543, 7805.000
1374.600, 7822.431
1375.657, 7847.000
1376.713, 7850.000
1377.770, 7916.000
1378.826, 7883.000
1379.882, 7934.000
1380.938, 7989.000
1381.994, 8047.000
1383.050, 8062.000
1384.106, 8019.000
1385.161, 8099.000
1386.216, 8249.000
1387.271, 8137.000
1388.326, 8204.000
1389.381, 8360.000
1390.435, 8378.000
1391.490, 8463.000
1392.544, 8369.000
1393.598, 8413.000
1394.652, 8359.000
1395.705, 8499.000
1396.759, 8481.000
1397.812, 8487.000
1398.866, 8375.000
1399.919, 8437.000
1400.972, 8468.000
1402.024, 8369.000
1403.077, 8405.000
1404.129, 8443.000
1405.181, 8390.000
1406.233, 8383.000
1407.285, 8352.000
1408.337, 8312.000
1409.389, 8408.000
1410.440, 8297.000
1411.491, 8275.000
1412.542, 8364.000
1413.593, 8309.000
1414.644, 8207.000
1415.695, 8303.000
1416.745, 8270.000
1417.795, 8250.000
1418.845, 8272.000
1419.895, 8194.000
1420.945, 8227.000
1421.995, 8201.000
1423.044, 8194.000
1424.093, 8257.000
1425.142, 8171.000
1426.191, 8286.000
1427.240, 8230.000
1428.289, 8251.000
1429.337, 8269.000
1430.385, 8160.000
1431.433, 8193.000
1432.481, 8203.758
1433.529, 8156.000
1434.577, 8237.000
1435.624, 8222.000
1436.672, 8150.741
1437.719, 8356.000
1438.766, 8152.000
1439.812, 8231.000
1440.859, 8314.000
1441.905, 8304.000
1442.952, 8332.883
1443.998, 8200.000
1445.044, 8269.000
1446.090, 8275.000
1447.135, 8155.000
1448.181, 8251.000
1449.226, 8339.000
1450.271, 8245.000
1451.316, 8170.000
1452.361, 8288.000
1453.405, 8226.000
1454.450, 8280.000
1455.494, 8310.000
1456.538, 8445.000
1457.582, 8285.000
1458.626, 8364.000
1459.670, 8211.000
1460.713, 8273.000
1461.757, 8326.000
1462.800, 8326.000
1463.843, 8287.000
1464.886, 8278.000
1465.928, 8264.000
1466.971, 8238.000
1468.013, 8297.000
1469.055, 8191.000
1470.097, 8320.000
1471.139, 8247.000
1472.181, 8240.000
1473.222, 8268.000
1474.263, 8330.000
1475.305, 8221.000
1476.346, 8344.000
1477.386, 8261.000
1478.427, 8148.000
1479.468, 8099.000
1480.508, 8168.000
1481.548, 8152.000
1482.588, 8261.000
1483.628, 8169.000
1484.668, 8225.000
1485.707, 8241.000
1486.747, 8268.000
1487.786, 8186.000
1488.825, 8244.000
1489.864, 8235.365
1490.902, 8241.000
1491.941, 8260.000
1492.979, 8288.000
1494.017, 8285.000
1495.055, 8286.000
1496.093, 8373.000
1497.131, 8273.000
1498.168, 8295.000
1499.206, 8261.000
1500.243, 8433.000
1501.280, 8423.000
1502.317, 8419.000
1503.354, 8460.000
1504.390, 8433.568
1505.426, 8435.000
1506.463, 8441.000
1507.499, 8453.000
1508.535, 8520.000
1509.570, 8530.000
1510.606, 8524.000
1511.641, 8610.000
1512.676, 8577.000
1513.711, 8447.000
1514.746, 8645.000
1515.781, 8564.000
1516.816, 8590.000
1517.850, 8654.000
1518.884, 8559.000
1519.918, 8511.000
1520.952, 8656.000
1521.986, 8679.000
1523.019, 8720.000
1524.053, 8707.202
1525.086, 8719.979
1526.119, 8595.000
1527.152, 8704.000
1528.185, 8641.000
1529.217, 8614.000
1530.250, 8698.000
1531.282, 8552.000
1532.314, 8469.000
1533.346, 8583.000
1534.377, 8589.000
1535.409, 8511.000
1536.440, 8468.000
1537.472, 8571.000
1538.503, 8537.000
1539.534, 8528.000
1540.564, 8595.000
1541.595, 8548.000
1542.625, 8560.000
1543.656, 8556.000
1544.686, 8510.000
1545.716, 8624.000
1546.745, 8460.000
1547.775, 8523.000
1548.804, 8347.000
1549.834, 8549.000
1550.863, 8491.000
1551.892, 8453.000
1552.920, 8605.000
1553.949, 8501.000
1554.977, 8537.000
1556.006, 8427.000
1557.034, 8541.000
1558.062, 8569.000
1559.089, 8421.000
1560.117, 8493.000
1561.144, 8540.000
1562.172, 8450.000
1563.199, 8532.000
1564.226, 8362.000
1565.252, 8502.000
1566.279, 8533.000
1567.305, 8465.000
1568.332, 8451.000
1569.358, 8536.000
1570.384, 8512.000
##END=



