##NAMES=Elbaite
##RRUFFID=R050487
##IDEAL CHEMISTRY=Na(Al_1.5_Li_1.5_)Al_6_(Si_6_O_18_)(BO_3_)_3_(OH)_3_OH
##LOCALITY=White Queen mine, Pala, San Diego County, California, USA
##OWNER=RRUFF
##SOURCE=California Institute of Technology
##DESCRIPTION=Mass of blue acicular crystals
##STATUS=The identification of this mineral has been confirmed by X-ray diffraction and chemical analysis
##URL=rruff.info/R050487
##MEASURED CHEMISTRY=(Na_0.86_[box]_0.13_Ca_0.01_)(Al_0.42_Li_0.38_Fe^2+^_0.18_Mn_0.02_)_3_Al_6_(BO_3_)_3_Si_6_O_18_((OH)_0.85_F_0.15_)_4_
##PIN_ID=M00967
##ORIENTATION=Laser parallel to -a* (-1 0 0). Fiducial mark perpendicular to laser is parallel to c [0 0 1]
187.9850, 3853.000
189.2130, 3833.000
190.4400, 3884.000
191.6680, 3867.000
192.8960, 3913.243
194.1230, 3995.000
195.3500, 4011.000
196.5770, 4089.000
197.8030, 4161.000
199.0300, 4257.000
200.2560, 4385.000
201.4830, 4500.000
202.7090, 4548.000
203.9340, 4600.000
205.1600, 4767.000
206.3860, 4938.768
207.6110, 5183.000
208.8360, 5468.000
210.0610, 5813.000
211.2860, 6232.000
212.5100, 6664.000
213.7350, 7207.000
214.9590, 7828.000
216.1830, 8350.000
217.4070, 8761.000
218.6310, 9352.000
219.8540, 9692.000
221.0780, 9976.000
222.3010, 10043.00
223.5240, 9948.000
224.7470, 9666.000
225.9690, 9277.000
227.1920, 8939.000
228.4140, 8429.000
229.6360, 8207.000
230.8580, 7860.000
232.0800, 7523.000
233.3020, 7450.000
234.5230, 7328.000
235.7440, 7123.591
236.9650, 7117.207
238.1860, 7092.109
239.4070, 7049.305
240.6280, 6935.756
241.8480, 6913.599
243.0680, 6854.833
244.2880, 6794.564
245.5080, 6785.265
246.7280, 6682.045
247.9470, 6671.978
249.1660, 6588.000
250.3860, 6482.000
251.6040, 6441.000
252.8230, 6401.000
254.0420, 6229.690
255.2600, 6202.274
256.4790, 6156.086
257.6970, 6092.249
258.9150, 5957.665
260.1320, 5914.492
261.3500, 5834.650
262.5670, 5753.366
263.7840, 5684.000
265.0010, 5583.000
266.2180, 5524.000
267.4350, 5430.000
268.6510, 5402.000
269.8680, 5283.000
271.0840, 5321.000
272.3000, 5238.000
273.5160, 5123.000
274.7310, 5052.000
275.9470, 4875.000
277.1620, 4794.000
278.3770, 4700.000
279.5920, 4553.000
280.8070, 4536.000
282.0210, 4432.000
283.2360, 4180.000
284.4500, 4135.000
285.6640, 3948.000
286.8780, 3855.000
288.0920, 3824.000
289.3050, 3740.000
290.5180, 3618.000
291.7320, 3518.000
292.9450, 3457.000
294.1570, 3436.000
295.3700, 3466.000
296.5830, 3377.000
297.7950, 3483.000
299.0070, 3423.000
300.2190, 3385.000
301.4310, 3409.000
302.6420, 3468.000
303.8540, 3472.000
305.0650, 3588.000
306.2760, 3521.000
307.4870, 3577.000
308.6980, 3698.000
309.9080, 3720.000
311.1190, 3807.000
312.3290, 3824.000
313.5390, 3877.000
314.7490, 3976.000
315.9580, 3919.000
317.1680, 3967.000
318.3770, 4029.000
319.5860, 3965.000
320.7950, 3970.000
322.0040, 3943.000
323.2130, 3999.000
324.4210, 3993.000
325.6290, 4023.000
326.8380, 4054.000
328.0460, 4088.165
329.2530, 4147.000
330.4610, 4167.000
331.6680, 4218.000
332.8760, 4225.000
334.0830, 4325.000
335.2890, 4319.000
336.4960, 4490.000
337.7030, 4563.000
338.9090, 4711.000
340.1150, 4685.000
341.3210, 4742.000
342.5270, 4974.000
343.7330, 5018.000
344.9380, 5152.000
346.1440, 5168.000
347.3490, 5207.000
348.5540, 5230.000
349.7590, 5291.000
350.9630, 5229.000
352.1680, 5332.000
353.3720, 5469.000
354.5760, 5459.000
355.7800, 5623.000
356.9840, 5884.000
358.1870, 6225.000
359.3910, 6455.000
360.5940, 6966.000
361.7970, 7520.000
363.0000, 8249.000
364.2030, 9126.000
365.4050, 10017.00
366.6080, 11079.00
367.8100, 12294.00
369.0120, 12994.00
370.2140, 13594.00
371.4150, 13781.00
372.6170, 13728.00
373.8180, 12930.00
375.0190, 12035.00
376.2200, 10905.00
377.4210, 10015.00
378.6220, 9034.000
379.8220, 8517.000
381.0230, 7754.000
382.2230, 7178.000
383.4230, 6807.000
384.6220, 6457.000
385.8220, 6189.000
387.0220, 5990.000
388.2210, 5886.000
389.4200, 5646.000
390.6190, 5689.000
391.8180, 5526.000
393.0160, 5530.000
394.2150, 5506.000
395.4130, 5546.000
396.6110, 5473.000
397.8090, 5651.000
399.0060, 5719.000
400.2040, 5730.000
401.4010, 5912.000
402.5980, 6051.000
403.7950, 6130.000
404.9920, 6233.000
406.1890, 6364.000
407.3860, 6366.000
408.5820, 6367.000
409.7780, 6287.000
410.9740, 6125.000
412.1700, 5909.000
413.3650, 5681.249
414.5610, 5392.000
415.7560, 5118.000
416.9510, 4800.000
418.1460, 4523.000
419.3410, 4294.000
420.5360, 4093.000
421.7300, 4005.000
422.9240, 3801.000
424.1180, 3778.000
425.3120, 3615.000
426.5060, 3550.000
427.7000, 3509.000
428.8930, 3471.000
430.0860, 3475.000
431.2790, 3384.000
432.4720, 3360.000
433.6650, 3288.000
434.8580, 3293.000
436.0500, 3280.000
437.2420, 3303.580
438.4340, 3340.013
439.6260, 3359.984
440.8180, 3364.379
442.0090, 3306.542
443.2010, 3329.064
444.3920, 3319.383
445.5830, 3308.381
446.7740, 3342.215
447.9640, 3293.431
449.1550, 3326.554
450.3450, 3326.981
451.5350, 3342.373
452.7250, 3324.000
453.9150, 3363.000
455.1050, 3315.000
456.2940, 3290.000
457.4830, 3262.000
458.6720, 3289.000
459.8610, 3244.000
461.0500, 3238.000
462.2390, 3278.000
463.4270, 3245.000
464.6150, 3158.000
465.8040, 3184.000
466.9910, 3266.000
468.1790, 3193.000
469.3670, 3230.000
470.5540, 3191.000
471.7410, 3244.000
472.9280, 3187.000
474.1150, 3202.000
475.3020, 3197.000
476.4890, 3215.000
477.6750, 3225.000
478.8610, 3275.000
480.0470, 3274.000
481.2330, 3248.000
482.4190, 3319.000
483.6040, 3319.000
484.7900, 3332.000
485.9750, 3445.000
487.1600, 3518.000
488.3450, 3473.000
489.5290, 3525.000
490.7140, 3555.000
491.8980, 3604.000
493.0820, 3633.000
494.2660, 3695.000
495.4500, 3732.986
496.6340, 3794.412
497.8170, 3839.357
499.0010, 3868.746
500.1840, 3835.882
501.3670, 3883.377
502.5500, 3927.000
503.7320, 3911.000
504.9150, 3900.000
506.0970, 3880.000
507.2790, 3905.000
508.4610, 3882.000
509.6430, 3878.000
510.8250, 3905.000
512.0060, 3802.000
513.1870, 3781.000
514.3680, 3682.000
515.5490, 3654.000
516.7300, 3644.000
517.9110, 3650.000
519.0910, 3544.000
520.2710, 3501.000
521.4510, 3424.000
522.6310, 3346.000
523.8110, 3379.000
524.9910, 3332.000
526.1700, 3278.000
527.3490, 3336.000
528.5280, 3344.000
529.7070, 3246.000
530.8860, 3225.000
532.0650, 3171.000
533.2430, 3156.000
534.4210, 3166.000
535.5990, 3199.000
536.7770, 3246.000
537.9550, 3094.000
539.1320, 3131.000
540.3100, 3131.000
541.4870, 3058.000
542.6640, 3074.000
543.8410, 3094.000
545.0170, 3068.000
546.1940, 3059.000
547.3700, 3082.000
548.5470, 3081.000
549.7230, 3074.000
550.8980, 3045.000
552.0740, 3091.000
553.2500, 3090.000
554.4250, 3127.000
555.6000, 3148.373
556.7750, 3112.000
557.9500, 3170.000
559.1250, 3165.000
560.2990, 3123.000
561.4730, 3135.000
562.6480, 3118.000
563.8220, 3198.000
564.9950, 3173.000
566.1690, 3171.000
567.3430, 3136.000
568.5160, 3141.000
569.6890, 3157.000
570.8620, 3179.000
572.0350, 3168.000
573.2070, 3169.000
574.3800, 3231.000
575.5520, 3172.000
576.7240, 3176.000
577.8960, 3237.000
579.0680, 3197.000
580.2400, 3249.000
581.4110, 3221.000
582.5830, 3211.000
583.7540, 3243.000
584.9250, 3242.000
586.0950, 3259.055
587.2660, 3276.780
588.4370, 3282.000
589.6070, 3299.000
590.7770, 3287.000
591.9470, 3275.784
593.1170, 3260.000
594.2860, 3264.000
595.4560, 3299.000
596.6250, 3276.000
597.7940, 3316.000
598.9630, 3265.000
600.1320, 3360.000
601.3000, 3310.000
602.4690, 3284.000
603.6370, 3298.000
604.8050, 3354.000
605.9730, 3380.000
607.1410, 3349.000
608.3090, 3335.000
609.4760, 3355.000
610.6430, 3360.000
611.8100, 3388.000
612.9770, 3394.000
614.1440, 3390.000
615.3110, 3458.000
616.4770, 3569.000
617.6430, 3669.000
618.8090, 3797.000
619.9750, 3912.347
621.1410, 4002.000
622.3070, 4189.000
623.4720, 4399.000
624.6370, 4606.000
625.8020, 4922.000
626.9670, 5050.000
628.1320, 5336.000
629.2970, 5450.000
630.4610, 5690.000
631.6250, 5830.000
632.7890, 5983.000
633.9530, 5901.000
635.1170, 5947.000
636.2810, 5881.000
637.4440, 5839.000
638.6070, 5736.000
639.7700, 5634.000
640.9330, 5432.000
642.0960, 5326.000
643.2590, 5259.000
644.4210, 5248.000
645.5830, 5289.000
646.7450, 5120.000
647.9070, 5186.000
649.0690, 5030.000
650.2310, 5055.000
651.3920, 4924.000
652.5530, 4817.000
653.7140, 4721.000
654.8750, 4719.000
656.0360, 4612.000
657.1970, 4546.000
658.3570, 4456.000
659.5170, 4310.000
660.6770, 4149.000
661.8370, 4222.000
662.9970, 3987.000
664.1570, 3930.000
665.3160, 3773.000
666.4750, 3636.000
667.6340, 3609.000
668.7930, 3498.000
669.9520, 3488.000
671.1110, 3383.000
672.2690, 3421.000
673.4270, 3352.000
674.5850, 3327.000
675.7430, 3299.000
676.9010, 3266.444
678.0590, 3300.000
679.2160, 3261.000
680.3730, 3252.000
681.5300, 3324.000
682.6870, 3242.000
683.8440, 3359.000
685.0010, 3481.000
686.1570, 3475.000
687.3130, 3627.000
688.4690, 3772.000
689.6250, 4002.000
690.7810, 4168.000
691.9370, 4564.000
693.0920, 4826.000
694.2470, 5058.000
695.4020, 5696.000
696.5570, 5960.000
697.7120, 6410.000
698.8670, 6968.000
700.0210, 7275.000
701.1750, 7602.000
702.3290, 7680.000
703.4830, 7806.000
704.6370, 7672.000
705.7910, 7385.000
706.9440, 7168.000
708.0970, 6792.000
709.2510, 6342.000
710.4030, 5957.000
711.5560, 5443.000
712.7090, 5086.000
713.8610, 4731.000
715.0140, 4476.000
716.1660, 4208.017
717.3180, 3985.011
718.4690, 3851.000
719.6210, 3606.000
720.7730, 3600.000
721.9240, 3430.000
723.0750, 3436.000
724.2260, 3326.000
725.3770, 3231.000
726.5270, 3236.000
727.6780, 3252.000
728.8280, 3249.000
729.9780, 3214.000
731.1280, 3174.000
732.2780, 3174.000
733.4280, 3175.000
734.5770, 3206.000
735.7260, 3221.000
736.8760, 3241.000
738.0250, 3311.000
739.1730, 3335.000
740.3220, 3370.000
741.4700, 3452.000
742.6190, 3551.000
743.7670, 3713.000
744.9150, 3937.000
746.0630, 4027.000
747.2100, 4260.000
748.3580, 4429.000
749.5050, 4526.000
750.6520, 4536.000
751.7990, 4518.000
752.9460, 4473.000
754.0930, 4373.150
755.2390, 4238.000
756.3860, 4086.000
757.5320, 3882.000
758.6780, 3672.000
759.8240, 3606.000
760.9690, 3481.000
762.1150, 3352.000
763.2600, 3336.000
764.4060, 3244.000
765.5510, 3203.000
766.6950, 3138.000
767.8400, 3125.000
768.9850, 3043.000
770.1290, 3044.000
771.2730, 2976.000
772.4170, 3029.000
773.5610, 2987.000
774.7050, 2967.000
775.8480, 2973.000
776.9920, 2914.000
778.1350, 2834.000
779.2780, 2799.000
780.4210, 2766.000
781.5640, 2737.416
782.7060, 2732.000
783.8490, 2721.000
784.9910, 2707.000
786.1330, 2715.000
787.2750, 2698.000
788.4170, 2660.000
789.5580, 2698.000
790.7000, 2638.000
791.8410, 2690.000
792.9820, 2653.000
794.1230, 2670.000
795.2640, 2736.000
796.4040, 2717.000
797.5450, 2729.995
798.6850, 2693.000
799.8250, 2709.000
800.9650, 2672.000
802.1050, 2652.000
803.2450, 2678.000
804.3840, 2669.000
805.5230, 2739.000
806.6630, 2628.000
807.8020, 2665.000
808.9400, 2684.000
810.0790, 2625.000
811.2170, 2755.000
812.3560, 2659.000
813.4940, 2734.000
814.6320, 2717.000
815.7700, 2675.000
816.9070, 2758.000
818.0450, 2695.000
819.1820, 2785.000
820.3190, 2761.000
821.4560, 2817.000
822.5930, 2809.000
823.7300, 2801.000
824.8670, 2855.000
826.0030, 2941.000
827.1390, 2934.000
828.2750, 2996.000
829.4110, 2982.000
830.5470, 2972.000
831.6820, 3137.000
832.8180, 3168.000
833.9530, 3192.000
835.0880, 3154.000
836.2230, 3201.000
837.3580, 3265.000
838.4920, 3215.000
839.6270, 3286.000
840.7610, 3251.000
841.8950, 3341.000
843.0290, 3358.000
844.1630, 3319.000
845.2960, 3347.000
846.4300, 3344.000
847.5630, 3277.000
848.6960, 3290.000
849.8290, 3328.000
850.9620, 3381.000
852.0940, 3339.000
853.2270, 3404.000
854.3590, 3377.000
855.4910, 3453.000
856.6230, 3535.000
857.7550, 3487.000
858.8870, 3474.000
860.0180, 3482.000
861.1500, 3470.000
862.2810, 3397.000
863.4120, 3368.000
864.5430, 3350.000
865.6730, 3230.000
866.8040, 3196.000
867.9340, 3100.000
869.0640, 3028.000
870.1940, 3078.000
871.3240, 2989.000
872.4540, 2947.000
873.5830, 3030.000
874.7130, 2946.000
875.8420, 2958.000
876.9710, 2922.000
878.1000, 2972.000
879.2290, 2891.000
880.3570, 2943.000
881.4860, 2924.000
882.6140, 2934.000
883.7420, 2941.000
884.8700, 2908.000
885.9980, 2880.000
887.1250, 2898.000
888.2530, 2854.000
889.3800, 2894.000
890.5070, 2925.000
891.6340, 2842.000
892.7610, 2955.000
893.8880, 2903.000
895.0140, 2878.000
896.1400, 2945.000
897.2670, 2934.000
898.3930, 2899.000
899.5180, 2895.000
900.6440, 2882.867
901.7700, 2886.000
902.8950, 2874.000
904.0200, 2948.000
905.1450, 2956.000
906.2700, 2913.000
907.3950, 2956.000
908.5190, 2903.000
909.6440, 2928.000
910.7680, 2894.000
911.8920, 2891.000
913.0160, 2982.000
914.1400, 2923.000
915.2630, 2840.000
916.3870, 2927.000
917.5100, 2918.000
918.6330, 2910.000
919.7560, 2916.000
920.8790, 2914.000
922.0010, 2920.874
923.1240, 2950.000
924.2460, 2943.000
925.3680, 2961.000
926.4900, 2983.000
927.6120, 3046.000
928.7340, 2986.000
929.8550, 3092.000
930.9760, 3078.000
932.0980, 3034.000
933.2190, 3066.000
934.3390, 3091.000
935.4600, 3089.000
936.5810, 3096.000
937.7010, 3119.000
938.8210, 3175.000
939.9410, 3140.000
941.0610, 3130.000
942.1810, 3200.000
943.3010, 3206.000
944.4200, 3299.000
945.5390, 3206.000
946.6580, 3276.000
947.7770, 3318.000
948.8960, 3339.000
950.0150, 3413.000
951.1330, 3466.000
952.2510, 3493.000
953.3690, 3499.000
954.4870, 3606.000
955.6050, 3607.000
956.7230, 3685.000
957.8400, 3737.000
958.9580, 3713.000
960.0750, 3814.000
961.1920, 3820.000
962.3090, 3811.000
963.4250, 3878.000
964.5420, 3903.000
965.6580, 3832.000
966.7740, 3883.000
967.8900, 3876.000
969.0060, 3874.000
970.1220, 3945.000
971.2380, 3896.000
972.3530, 3902.000
973.4680, 3864.000
974.5830, 3847.724
975.6980, 3911.000
976.8130, 3854.000
977.9280, 3854.000
979.0420, 3945.000
980.1560, 3889.000
981.2710, 3952.267
982.3850, 3906.000
983.4980, 4013.000
984.6120, 3983.000
985.7260, 3985.000
986.8390, 4001.000
987.9520, 3956.000
989.0650, 4056.000
990.1780, 4000.000
991.2910, 4012.000
992.4030, 3990.362
993.5160, 4056.562
994.6280, 4104.028
995.7400, 4133.787
996.8520, 4092.802
997.9640, 4143.167
999.0750, 4156.903
1000.187, 4169.159
1001.298, 4232.360
1002.409, 4201.644
1003.520, 4264.038
1004.631, 4289.263
1005.741, 4331.479
1006.852, 4336.880
1007.962, 4353.637
1009.072, 4407.243
1010.182, 4440.445
1011.292, 4441.584
1012.402, 4431.000
1013.511, 4437.000
1014.621, 4499.000
1015.730, 4514.000
1016.839, 4494.000
1017.948, 4534.000
1019.056, 4586.000
1020.165, 4663.000
1021.273, 4626.000
1022.382, 4681.000
1023.490, 4660.000
1024.598, 4583.000
1025.706, 4572.000
1026.813, 4536.000
1027.921, 4505.000
1029.028, 4393.000
1030.135, 4449.000
1031.242, 4378.000
1032.349, 4331.000
1033.456, 4401.000
1034.562, 4460.000
1035.668, 4384.000
1036.775, 4391.000
1037.881, 4421.000
1038.987, 4460.000
1040.092, 4521.922
1041.198, 4576.000
1042.303, 4684.000
1043.408, 4755.000
1044.514, 4853.000
1045.618, 4919.000
1046.723, 5058.000
1047.828, 5179.000
1048.932, 5325.000
1050.037, 5390.000
1051.141, 5599.000
1052.245, 5619.000
1053.349, 5831.000
1054.452, 5875.000
1055.556, 5882.000
1056.659, 5904.000
1057.762, 5876.000
1058.865, 5903.000
1059.968, 5951.000
1061.071, 5711.000
1062.174, 5679.000
1063.276, 5619.000
1064.378, 5382.000
1065.480, 5412.000
1066.582, 5255.000
1067.684, 5141.000
1068.786, 5082.000
1069.887, 5002.000
1070.988, 4893.000
1072.090, 4952.000
1073.191, 4958.000
1074.291, 4899.000
1075.392, 4929.000
1076.493, 5056.000
1077.593, 5088.000
1078.693, 5131.000
1079.793, 5283.000
1080.893, 5324.000
1081.993, 5375.000
1083.092, 5483.000
1084.192, 5515.000
1085.291, 5452.000
1086.390, 5368.000
1087.489, 5236.000
1088.588, 5102.000
1089.686, 4965.000
1090.785, 4880.000
1091.883, 4669.000
1092.981, 4535.000
1094.079, 4382.000
1095.177, 4314.000
1096.275, 4272.000
1097.373, 4127.000
1098.470, 3993.000
1099.567, 3989.000
1100.664, 3926.000
1101.761, 3845.000
1102.858, 3768.000
1103.954, 3752.000
1105.051, 3748.000
1106.147, 3652.000
1107.243, 3585.000
1108.339, 3639.000
1109.435, 3631.000
1110.531, 3616.000
1111.626, 3530.000
1112.722, 3548.000
1113.817, 3485.000
1114.912, 3482.000
1116.007, 3437.000
1117.101, 3372.000
1118.196, 3370.000
1119.290, 3317.000
1120.385, 3354.000
1121.479, 3305.000
1122.573, 3299.000
1123.666, 3293.000
1124.760, 3302.000
1125.853, 3281.000
1126.947, 3268.000
1128.040, 3273.212
1129.133, 3254.000
1130.226, 3249.000
1131.318, 3219.000
1132.411, 3146.000
1133.503, 3182.000
1134.596, 3218.000
1135.688, 3128.000
1136.780, 3066.000
1137.871, 3048.000
1138.963, 3102.000
1140.054, 3023.000
1141.146, 3058.000
1142.237, 3117.000
1143.328, 3007.000
1144.419, 3040.000
1145.509, 3081.000
1146.600, 3043.000
1147.690, 3011.000
1148.780, 3060.000
1149.870, 2998.000
1150.960, 3069.000
1152.050, 3060.000
1153.139, 2994.000
1154.229, 2988.000
1155.318, 3010.000
1156.407, 3057.000
1157.496, 3063.000
1158.585, 3053.000
1159.674, 3063.000
1160.762, 3069.214
1161.850, 3103.000
1162.939, 3091.000
1164.027, 3098.000
1165.114, 3111.000
1166.202, 3108.000
1167.290, 3177.000
1168.377, 3232.000
1169.464, 3077.000
1170.551, 3136.000
1171.638, 3101.000
1172.725, 3206.000
1173.812, 3070.000
1174.898, 3116.000
1175.984, 3131.000
1177.071, 3087.000
1178.157, 3154.000
1179.242, 3114.000
1180.328, 3117.000
1181.414, 3082.000
1182.499, 3159.000
1183.584, 3146.000
1184.669, 3118.000
1185.754, 3160.000
1186.839, 3118.000
1187.924, 3209.000
1189.008, 3132.000
1190.092, 3107.000
1191.177, 3055.000
1192.260, 3083.000
1193.344, 3101.000
1194.428, 3049.000
1195.512, 3106.000
1196.595, 3078.000
1197.678, 3171.000
1198.761, 3157.743
1199.844, 3152.000
1200.927, 3177.000
1202.009, 3132.000
1203.092, 3157.000
1204.174, 3139.000
1205.256, 3069.000
1206.338, 3043.000
1207.420, 3083.000
1208.502, 3072.000
1209.583, 3138.000
1210.665, 3086.000
1211.746, 3121.000
1212.827, 3181.000
1213.908, 3186.000
1214.988, 3224.000
1216.069, 3225.000
1217.149, 3198.000
1218.230, 3173.000
1219.310, 3166.833
1220.390, 3250.000
1221.470, 3160.000
1222.549, 3185.000
1223.629, 3222.000
1224.708, 3174.000
1225.787, 3216.000
1226.866, 3253.000
1227.945, 3268.000
1229.024, 3266.000
1230.103, 3275.000
1231.181, 3294.000
1232.259, 3306.000
1233.337, 3333.097
1234.415, 3375.000
1235.493, 3389.000
1236.571, 3403.293
1237.648, 3422.561
1238.726, 3411.000
1239.803, 3426.000
1240.880, 3424.000
1241.957, 3386.000
1243.034, 3432.000
1244.110, 3348.000
1245.187, 3503.000
1246.263, 3494.000
1247.339, 3482.000
1248.415, 3534.000
1249.491, 3482.000
1250.566, 3467.000
1251.642, 3475.000
1252.717, 3454.000
1253.793, 3463.693
1254.868, 3492.000
1255.943, 3476.000
1257.017, 3445.000
1258.092, 3445.000
1259.166, 3531.000
1260.241, 3561.000
1261.315, 3516.000
1262.389, 3540.000
1263.462, 3514.000
1264.536, 3518.000
1265.610, 3642.000
1266.683, 3650.000
1267.756, 3624.000
1268.829, 3689.000
1269.902, 3677.000
1270.975, 3646.000
1272.048, 3733.000
1273.120, 3652.000
1274.192, 3679.000
1275.264, 3684.000
1276.336, 3710.000
1277.408, 3682.000
1278.480, 3667.000
1279.551, 3617.000
1280.623, 3613.000
1281.694, 3533.000
1282.765, 3515.406
1283.836, 3586.000
1284.907, 3488.000
1285.977, 3514.000
1287.048, 3584.000
1288.118, 3546.000
1289.188, 3560.000
1290.258, 3624.000
1291.328, 3594.000
1292.398, 3629.000
1293.467, 3714.000
1294.537, 3793.000
1295.606, 3755.000
1296.675, 3700.000
1297.744, 3672.000
1298.813, 3660.000
1299.882, 3679.000
1300.950, 3711.000
1302.018, 3621.000
1303.086, 3712.000
1304.155, 3697.000
1305.222, 3633.000
1306.290, 3738.000
1307.358, 3697.000
1308.425, 3710.000
1309.492, 3781.000
1310.559, 3861.000
1311.626, 3815.000
1312.693, 3819.000
1313.760, 3807.000
1314.826, 3832.000
1315.893, 3845.000
1316.959, 3766.000
1318.025, 3838.000
1319.091, 3799.000
1320.157, 3837.000
1321.222, 3781.000
1322.288, 3805.000
1323.353, 3735.000
1324.418, 3667.000
1325.483, 3703.000
1326.548, 3553.000
1327.612, 3579.000
1328.677, 3632.000
1329.741, 3559.000
1330.806, 3583.000
1331.870, 3502.000
1332.934, 3510.000
1333.997, 3545.000
1335.061, 3458.000
1336.124, 3456.000
1337.188, 3561.000
1338.251, 3501.000
1339.314, 3519.000
1340.377, 3572.000
1341.439, 3551.000
1342.502, 3517.000
1343.564, 3530.000
1344.627, 3484.000
1345.689, 3501.000
1346.751, 3503.441
1347.813, 3516.000
1348.874, 3521.000
1349.936, 3509.000
1350.997, 3501.000
1352.058, 3528.000
1353.119, 3509.000
1354.180, 3544.000
1355.241, 3514.000
1356.301, 3591.000
1357.362, 3533.000
1358.422, 3561.000
1359.482, 3600.000
1360.542, 3582.000
1361.602, 3568.000
1362.662, 3571.000
1363.721, 3569.761
1364.781, 3549.000
1365.840, 3595.000
1366.899, 3622.000
1367.958, 3656.000
1369.017, 3628.000
1370.075, 3650.000
1371.134, 3695.000
1372.192, 3734.000
1373.250, 3764.000
1374.308, 3858.000
1375.366, 3817.000
1376.424, 3812.000
1377.481, 3875.000
1378.539, 3920.000
1379.596, 3889.000
1380.653, 3841.000
1381.710, 3932.000
1382.767, 3893.000
1383.824, 3883.000
1384.880, 3841.000
1385.937, 3944.000
1386.993, 3825.000
1388.049, 3848.000
1389.105, 3781.000
1390.161, 3742.000
1391.216, 3758.000
1392.272, 3755.000
1393.327, 3741.000
1394.382, 3690.000
1395.437, 3704.000
1396.492, 3642.000
1397.547, 3655.000
1398.601, 3615.000
1399.656, 3672.000
1400.710, 3696.000
1401.764, 3675.000
1402.818, 3628.000
1403.872, 3645.875
1404.925, 3607.836
1405.979, 3658.000
1407.032, 3587.000
1408.085, 3621.000
1409.139, 3663.000
1410.191, 3588.000
1411.244, 3681.000
1412.297, 3645.000
1413.349, 3590.000
1414.402, 3588.000
1415.454, 3629.000
1416.506, 3621.000
1417.558, 3634.000
1418.609, 3628.000
1419.661, 3579.000
1420.712, 3599.000
1421.764, 3651.000
1422.815, 3588.000
1423.866, 3565.000
1424.916, 3677.000
1425.967, 3666.000
1427.018, 3680.000
1428.068, 3679.000
1429.118, 3688.000
1430.168, 3748.000
1431.218, 3747.000
1432.268, 3830.000
1433.318, 3834.000
1434.367, 3924.000
1435.416, 3962.000
1436.465, 4130.000
1437.514, 4109.000
1438.563, 4324.000
1439.612, 4409.000
1440.661, 4439.000
1441.709, 4489.000
1442.757, 4550.950
1443.805, 4582.000
1444.853, 4624.048
1445.901, 4648.000
1446.949, 4692.000
1447.996, 4723.000
1449.044, 4765.000
1450.091, 4841.000
1451.138, 4882.000
1452.185, 4880.000
1453.232, 4957.000
1454.278, 4874.000
1455.325, 4897.000
1456.371, 4754.000
1457.417, 4811.000
1458.463, 4761.000
1459.509, 4665.000
1460.555, 4711.000
1461.601, 4570.000
1462.646, 4509.000
1463.691, 4345.000
1464.737, 4385.000
1465.782, 4242.000
1466.826, 4225.000
1467.871, 4121.000
1468.916, 4062.000
1469.960, 4047.000
1471.004, 3962.000
1472.048, 3943.000
1473.092, 3887.000
1474.136, 3878.000
1475.180, 3841.652
1476.223, 3941.000
1477.267, 3811.000
1478.310, 3837.000
1479.353, 3884.000
1480.396, 3808.000
1481.439, 3784.000
1482.481, 3816.000
1483.524, 3776.000
1484.566, 3709.000
1485.608, 3734.000
1486.650, 3672.000
1487.692, 3583.000
1488.734, 3507.000
1489.775, 3547.000
1490.817, 3514.000
1491.858, 3469.000
1492.899, 3450.000
1493.940, 3484.000
1494.981, 3421.000
1496.022, 3437.000
1497.062, 3366.000
1498.103, 3407.000
1499.143, 3389.000
1500.183, 3449.000
1501.223, 3451.000
1502.263, 3441.299
1503.302, 3400.000
1504.342, 3414.000
1505.381, 3450.000
1506.420, 3442.000
1507.459, 3446.000
1508.498, 3428.000
1509.537, 3472.000
1510.576, 3417.000
1511.614, 3356.000
1512.652, 3399.000
1513.691, 3396.000
1514.729, 3344.000
1515.767, 3408.000
1516.804, 3422.000
1517.842, 3473.000
1518.879, 3484.000
1519.917, 3474.000
1520.954, 3478.000
1521.991, 3458.000
1523.028, 3444.000
1524.064, 3447.156
1525.101, 3497.000
1526.137, 3477.000
1527.173, 3495.000
1528.210, 3574.000
1529.245, 3525.000
1530.281, 3498.000
1531.317, 3436.000
1532.352, 3500.000
1533.388, 3502.000
1534.423, 3476.000
1535.458, 3463.000
1536.493, 3528.000
1537.528, 3494.000
1538.562, 3512.000
1539.597, 3502.000
1540.631, 3499.000
1541.665, 3441.000
1542.700, 3458.074
1543.733, 3479.000
1544.767, 3450.000
1545.801, 3501.000
1546.834, 3477.000
1547.868, 3476.000
1548.901, 3501.000
1549.934, 3497.000
1550.967, 3458.000
1551.999, 3460.000
1553.032, 3518.000
1554.064, 3456.000
1555.097, 3444.000
1556.129, 3486.000
1557.161, 3454.000
1558.193, 3463.000
1559.224, 3415.000
1560.256, 3473.000
1561.287, 3447.000
1562.318, 3447.000
1563.350, 3420.000
##END=



