##NAMES=Elbaite
##RRUFFID=R050260
##IDEAL CHEMISTRY=Na(Al_1.5_Li_1.5_)Al_6_(Si_6_O_18_)(BO_3_)_3_(OH)_3_OH
##LOCALITY=Minas Gerais, Brazil
##OWNER=RRUFF
##SOURCE=Marcus Origlieri
##DESCRIPTION=Greenish-gray prismatic single crystal
##STATUS=The identification of this mineral has been confirmed by X-ray diffraction and chemical analysis
##URL=rruff.info/R050260
##MEASURED CHEMISTRY=(Na_0.76_[box]_0.17_Ca_0.07_)_Σ=1_(Al_1.67_Li_0.97_Mn_0.36_)_Σ=3_Al_6.00_(B_1.00_O_3_)_3_Si_6.00_O_18_((OH)_3.40_F_0.60_)_Σ=4_; B assumed by stoichiometry; OH estimated by charge balance
##PIN_ID=L01964
##ORIENTATION=Laser parallel to a* (1 0 0). Fiducial mark perpendicular to laser is parallel to -c [0 0 -1]
118.1340, 9741.000
119.3650, 9824.000
120.5960, 9641.000
121.8270, 9833.000
123.0580, 9920.000
124.2880, 10042.00
125.5190, 9795.000
126.7490, 9834.000
127.9790, 9901.000
129.2090, 10087.00
130.4390, 10285.00
131.6680, 10215.00
132.8980, 10307.00
134.1270, 10440.00
135.3560, 10352.00
136.5850, 10584.00
137.8140, 10565.00
139.0430, 10593.00
140.2710, 10591.00
141.5000, 10457.00
142.7280, 10184.00
143.9560, 10142.00
145.1840, 10101.00
146.4120, 10104.00
147.6390, 10257.00
148.8670, 10461.00
150.0940, 10533.00
151.3210, 10801.00
152.5490, 10982.00
153.7750, 10834.00
155.0020, 11053.00
156.2290, 11220.00
157.4550, 11152.00
158.6810, 11077.00
159.9080, 11158.00
161.1340, 11091.00
162.3590, 10976.00
163.5850, 10874.00
164.8110, 10858.42
166.0360, 10862.00
167.2610, 10867.00
168.4860, 10858.14
169.7110, 10942.00
170.9360, 10845.00
172.1610, 10883.00
173.3850, 10949.00
174.6100, 11075.00
175.8340, 11080.00
177.0580, 11102.00
178.2820, 11176.00
179.5050, 11435.00
180.7290, 11511.00
181.9520, 11532.00
183.1760, 11667.00
184.3990, 11600.00
185.6220, 11753.00
186.8450, 11882.00
188.0670, 12109.00
189.2900, 12148.00
190.5120, 12361.00
191.7340, 12590.51
192.9560, 12835.33
194.1780, 13163.00
195.4000, 13471.00
196.6220, 13894.00
197.8430, 14242.00
199.0640, 14828.00
200.2860, 15296.66
201.5070, 16003.00
202.7270, 16410.00
203.9480, 17016.00
205.1690, 17619.00
206.3890, 18506.00
207.6090, 19618.00
208.8290, 20980.00
210.0490, 22599.00
211.2690, 24336.00
212.4890, 25902.00
213.7080, 28233.00
214.9280, 30105.00
216.1470, 32423.00
217.3660, 34603.00
218.5850, 37050.00
219.8030, 39626.00
221.0220, 42362.00
222.2400, 44459.00
223.4590, 45794.00
224.6770, 46079.00
225.8950, 45191.00
227.1120, 43406.00
228.3300, 40892.00
229.5480, 39030.00
230.7650, 36946.00
231.9820, 34840.00
233.1990, 33484.00
234.4160, 32320.00
235.6330, 31523.00
236.8490, 30818.00
238.0660, 30500.00
239.2820, 30333.00
240.4980, 30316.00
241.7140, 30086.00
242.9300, 30353.00
244.1460, 30296.00
245.3610, 30464.00
246.5770, 30439.00
247.7920, 30447.00
249.0070, 30145.00
250.2220, 30069.00
251.4370, 29353.00
252.6510, 29091.00
253.8660, 28405.00
255.0800, 28051.00
256.2940, 27397.00
257.5080, 27320.00
258.7220, 27241.00
259.9360, 26702.00
261.1490, 25780.00
262.3630, 24900.00
263.5760, 24393.00
264.7890, 24000.00
266.0020, 23791.00
267.2150, 23441.00
268.4270, 22976.00
269.6400, 22650.00
270.8520, 22272.00
272.0640, 21867.00
273.2760, 21288.00
274.4880, 21062.00
275.7000, 20380.00
276.9120, 19940.00
278.1230, 19100.00
279.3340, 18777.00
280.5450, 18194.00
281.7560, 17636.00
282.9670, 17095.00
284.1780, 16451.00
285.3880, 16210.00
286.5980, 15638.00
287.8090, 15160.00
289.0190, 14877.00
290.2290, 14429.00
291.4380, 14053.00
292.6480, 13659.00
293.8570, 13429.00
295.0670, 13343.00
296.2760, 13089.00
297.4850, 12808.00
298.6930, 12686.00
299.9020, 12821.00
301.1110, 12949.00
302.3190, 12960.00
303.5270, 13010.00
304.7350, 13174.00
305.9430, 13208.00
307.1510, 13597.00
308.3580, 13726.00
309.5660, 13985.00
310.7730, 14240.00
311.9800, 14534.00
313.1870, 14914.00
314.3940, 15273.00
315.6010, 15440.00
316.8070, 15835.00
318.0130, 15883.00
319.2200, 15889.00
320.4260, 15820.00
321.6310, 15610.00
322.8370, 15472.00
324.0430, 15463.00
325.2480, 15259.00
326.4540, 15455.00
327.6590, 15659.00
328.8640, 15661.00
330.0680, 16049.00
331.2730, 16154.00
332.4780, 16418.00
333.6820, 16610.00
334.8860, 16896.00
336.0900, 17313.00
337.2940, 17391.00
338.4980, 17972.00
339.7010, 18351.00
340.9050, 18482.00
342.1080, 19022.00
343.3110, 19236.00
344.5140, 19806.00
345.7170, 20155.00
346.9200, 20371.00
348.1220, 20817.00
349.3240, 21174.00
350.5270, 21355.00
351.7290, 21630.00
352.9310, 22174.00
354.1320, 22597.00
355.3340, 23521.00
356.5350, 24193.00
357.7370, 25268.00
358.9380, 26613.00
360.1390, 28395.00
361.3400, 30874.00
362.5400, 33192.00
363.7410, 35794.00
364.9410, 38363.00
366.1410, 41266.00
367.3410, 44191.00
368.5410, 47397.00
369.7410, 51005.00
370.9400, 54929.00
372.1400, 58723.00
373.3390, 61348.00
374.5380, 62790.00
375.7370, 61893.00
376.9360, 59071.00
378.1350, 54991.00
379.3330, 49829.00
380.5310, 45541.00
381.7300, 41045.00
382.9280, 37604.00
384.1260, 34912.00
385.3230, 32695.00
386.5210, 30241.00
387.7180, 28751.00
388.9160, 27440.00
390.1130, 26566.00
391.3100, 26084.00
392.5060, 25537.00
393.7030, 25149.00
394.9000, 25106.00
396.0960, 24982.00
397.2920, 25242.00
398.4880, 25510.00
399.6840, 25819.52
400.8800, 26140.57
402.0750, 26753.00
403.2710, 26710.00
404.4660, 27221.00
405.6610, 27258.00
406.8560, 27640.00
408.0510, 27560.00
409.2450, 27265.00
410.4400, 27180.00
411.6340, 26406.00
412.8280, 25590.00
414.0220, 24864.00
415.2160, 23788.00
416.4100, 22677.00
417.6030, 21418.00
418.7970, 20166.00
419.9900, 19178.00
421.1830, 18090.00
422.3760, 17391.00
423.5690, 16799.00
424.7610, 16167.00
425.9540, 15542.00
427.1460, 15080.00
428.3380, 14743.00
429.5300, 14464.00
430.7220, 14249.00
431.9140, 14145.00
433.1050, 14079.00
434.2970, 13855.00
435.4880, 13795.00
436.6790, 13706.00
437.8700, 13558.00
439.0610, 13631.00
440.2510, 13403.00
441.4420, 13517.00
442.6320, 13434.00
443.8220, 13542.00
445.0120, 13539.00
446.2020, 13658.00
447.3910, 13377.00
448.5810, 13330.00
449.7700, 13405.00
450.9600, 13386.00
452.1490, 13341.00
453.3370, 13327.00
454.5260, 13264.00
455.7150, 13259.00
456.9030, 13158.00
458.0910, 13107.00
459.2800, 13218.00
460.4670, 13227.00
461.6550, 13107.00
462.8430, 13142.00
464.0300, 12990.00
465.2180, 13160.00
466.4050, 13077.00
467.5920, 13081.00
468.7790, 13248.00
469.9650, 13070.00
471.1520, 13178.00
472.3380, 13077.00
473.5250, 13263.00
474.7110, 13122.00
475.8970, 13212.00
477.0820, 13309.00
478.2680, 13251.00
479.4540, 13455.00
480.6390, 13316.00
481.8240, 13318.00
483.0090, 13594.00
484.1940, 13860.00
485.3780, 13971.00
486.5630, 14183.05
487.7470, 14153.00
488.9320, 14483.00
490.1160, 14530.00
491.3000, 14695.00
492.4830, 14868.00
493.6670, 15178.00
494.8500, 15259.00
496.0340, 15452.00
497.2170, 15545.00
498.4000, 15831.00
499.5820, 15928.10
500.7650, 16087.24
501.9480, 16212.00
503.1300, 16352.00
504.3120, 16521.00
505.4940, 16634.00
506.6760, 16711.00
507.8580, 16792.00
509.0390, 16638.00
510.2210, 16835.00
511.4020, 16596.00
512.5830, 16753.00
513.7640, 16668.00
514.9450, 16596.00
516.1250, 16318.00
517.3060, 16170.00
518.4860, 15929.00
519.6660, 15723.00
520.8460, 15529.00
522.0260, 15371.00
523.2060, 14880.00
524.3850, 14847.00
525.5650, 14599.00
526.7440, 14495.00
527.9230, 14350.66
529.1020, 14113.00
530.2810, 14161.00
531.4590, 13849.00
532.6380, 13975.00
533.8160, 13973.00
534.9940, 13788.00
536.1720, 13862.00
537.3500, 13756.00
538.5270, 13728.00
539.7050, 13543.00
540.8820, 13429.00
542.0590, 13511.00
543.2360, 13461.00
544.4130, 13459.00
545.5900, 13361.00
546.7660, 13228.00
547.9430, 13164.00
549.1190, 13120.41
550.2950, 13100.18
551.4710, 13118.00
552.6470, 13118.00
553.8220, 13192.00
554.9980, 13176.00
556.1730, 13204.00
557.3480, 13271.00
558.5230, 13164.00
559.6980, 13159.00
560.8730, 13262.00
562.0470, 13353.00
563.2220, 13234.00
564.3960, 13274.00
565.5700, 13340.00
566.7440, 13293.35
567.9170, 13332.95
569.0910, 13255.00
570.2640, 13376.00
571.4380, 13263.00
572.6110, 13353.00
573.7840, 13472.00
574.9570, 13540.00
576.1290, 13634.00
577.3020, 13500.00
578.4740, 13545.00
579.6460, 13674.00
580.8180, 13852.00
581.9900, 13858.00
583.1620, 13818.00
584.3330, 13785.00
585.5040, 13802.00
586.6760, 13919.00
587.8470, 13892.00
589.0180, 13979.00
590.1880, 13976.00
591.3590, 13918.00
592.5290, 13835.00
593.7000, 13943.00
594.8700, 13994.00
596.0400, 13914.00
597.2090, 13886.00
598.3790, 13905.35
599.5490, 13801.00
600.7180, 13896.00
601.8870, 13878.00
603.0560, 13819.00
604.2250, 13849.00
605.3940, 13799.00
606.5620, 13956.00
607.7300, 13977.00
608.8990, 14003.00
610.0670, 14056.00
611.2350, 13990.00
612.4020, 13912.00
613.5700, 14049.00
614.7370, 14191.00
615.9050, 14209.00
617.0720, 14149.00
618.2390, 14293.00
619.4060, 14688.00
620.5720, 14997.00
621.7390, 15379.00
622.9050, 15868.00
624.0710, 16277.00
625.2370, 17054.00
626.4030, 17805.00
627.5690, 18539.00
628.7340, 19552.00
629.9000, 20366.00
631.0650, 21675.00
632.2300, 22528.00
633.3950, 23558.00
634.5600, 24249.00
635.7240, 24694.00
636.8890, 24782.00
638.0530, 24461.00
639.2170, 24517.00
640.3810, 23837.00
641.5450, 23305.00
642.7080, 22845.00
643.8720, 22058.00
645.0350, 21501.00
646.1980, 21058.00
647.3610, 20543.00
648.5240, 20351.00
649.6870, 19944.00
650.8490, 19826.00
652.0120, 19442.00
653.1740, 19238.00
654.3360, 19130.00
655.4980, 18913.00
656.6600, 18337.00
657.8210, 18256.00
658.9830, 17933.00
660.1440, 17704.00
661.3050, 17538.00
662.4660, 17141.00
663.6270, 16965.00
664.7870, 16407.00
665.9480, 16177.00
667.1080, 15895.00
668.2680, 15508.00
669.4280, 15125.00
670.5880, 14897.00
671.7480, 14731.00
672.9070, 14664.00
674.0670, 14505.00
675.2260, 14292.00
676.3850, 14330.00
677.5440, 14235.00
678.7030, 14205.00
679.8610, 14386.00
681.0200, 14500.00
682.1780, 14660.00
683.3360, 14800.00
684.4940, 15024.00
685.6520, 15390.00
686.8090, 15864.00
687.9670, 16408.57
689.1240, 16803.00
690.2810, 17799.00
691.4380, 18635.00
692.5950, 19520.00
693.7520, 20883.00
694.9080, 22312.00
696.0650, 23767.00
697.2210, 25622.00
698.3770, 27212.00
699.5330, 28796.00
700.6880, 30516.00
701.8440, 32222.00
702.9990, 33873.00
704.1550, 35065.00
705.3100, 35537.00
706.4650, 36202.00
707.6190, 35817.00
708.7740, 35343.00
709.9290, 33884.00
711.0830, 32540.00
712.2370, 30432.00
713.3910, 28470.00
714.5450, 26351.00
715.6980, 24738.00
716.8520, 22790.00
718.0050, 21311.00
719.1580, 20078.00
720.3110, 18892.00
721.4640, 18166.00
722.6170, 17292.00
723.7700, 16741.00
724.9220, 16109.00
726.0740, 15995.00
727.2260, 15618.00
728.3780, 15346.00
729.5300, 15091.00
730.6810, 14993.00
731.8330, 14860.00
732.9840, 14806.88
734.1350, 14817.00
735.2860, 14837.00
736.4370, 14781.00
737.5880, 14891.00
738.7380, 15184.00
739.8880, 15423.00
741.0390, 15445.00
742.1890, 15673.00
743.3380, 16151.00
744.4880, 16426.00
745.6380, 17110.00
746.7870, 17427.00
747.9360, 18074.00
749.0850, 18335.00
750.2340, 18662.00
751.3830, 18854.00
752.5310, 18639.00
753.6800, 18609.00
754.8280, 18004.00
755.9760, 17438.00
757.1240, 16831.00
758.2720, 16157.00
759.4190, 15687.00
760.5670, 15061.00
761.7140, 14523.00
762.8610, 14085.00
764.0080, 13820.00
765.1550, 13370.00
766.3020, 13021.00
767.4480, 12952.00
768.5950, 12604.00
769.7410, 12532.00
770.8870, 12393.00
772.0330, 12246.00
773.1780, 12167.00
774.3240, 12037.00
775.4690, 12001.00
776.6140, 11855.00
777.7590, 11793.44
778.9040, 11697.77
780.0490, 11644.00
781.1940, 11512.00
782.3380, 11430.00
783.4820, 11346.00
784.6260, 11253.00
785.7700, 11242.00
786.9140, 11207.00
788.0580, 11158.00
789.2010, 11174.00
790.3450, 11018.00
791.4880, 11161.00
792.6310, 11068.00
793.7730, 11052.00
794.9160, 11149.00
796.0590, 11253.00
797.2010, 11101.00
798.3430, 11126.00
799.4850, 11093.00
800.6270, 11026.00
801.7690, 11007.00
802.9100, 11053.00
804.0520, 10959.00
805.1930, 11122.00
806.3340, 10990.00
807.4750, 11122.00
808.6160, 11105.00
809.7560, 11018.00
810.8970, 11072.00
812.0370, 11035.00
813.1770, 11040.00
814.3170, 11078.78
815.4570, 11075.34
816.5960, 11133.00
817.7360, 11150.00
818.8750, 11148.00
820.0140, 11249.00
821.1530, 11445.00
822.2920, 11303.00
823.4310, 11422.00
824.5690, 11394.00
825.7070, 11381.00
826.8460, 11511.00
827.9840, 11739.00
829.1220, 11691.00
830.2590, 11619.00
831.3970, 11871.00
832.5340, 11829.00
833.6710, 11798.00
834.8080, 12007.00
835.9450, 11888.00
837.0820, 12116.00
838.2190, 12203.00
839.3550, 11918.00
840.4910, 12253.00
841.6270, 11943.00
842.7630, 12079.00
843.8990, 11881.00
845.0350, 11937.82
846.1700, 11864.00
847.3060, 11979.00
848.4410, 12194.00
849.5760, 12007.00
850.7100, 11997.00
851.8450, 11799.00
852.9800, 11833.00
854.1140, 11781.00
855.2480, 11976.00
856.3820, 11840.00
857.5160, 11897.00
858.6500, 11728.00
859.7830, 11800.00
860.9170, 11858.00
862.0500, 11770.00
863.1830, 11758.00
864.3160, 11534.00
865.4480, 11673.00
866.5810, 11564.00
867.7130, 11492.95
868.8460, 11566.00
869.9780, 11402.00
871.1100, 11361.00
872.2410, 11416.00
873.3730, 11325.00
874.5050, 11417.00
875.6360, 11257.00
876.7670, 11247.00
877.8980, 11052.00
879.0290, 11225.00
880.1590, 11212.00
881.2900, 11160.00
882.4200, 11141.00
883.5500, 11121.00
884.6800, 11192.00
885.8100, 11167.00
886.9400, 10981.00
888.0690, 11008.00
889.1990, 11119.00
890.3280, 10994.00
891.4570, 11277.00
892.5860, 11168.00
893.7140, 11090.00
894.8430, 10957.00
895.9710, 11055.00
897.1000, 11164.00
898.2280, 11199.00
899.3560, 11160.00
900.4830, 11147.00
901.6110, 11133.00
902.7380, 11110.00
903.8660, 11165.00
904.9930, 11157.00
906.1200, 11254.00
907.2460, 11351.00
908.3730, 11332.00
909.5000, 11206.00
910.6260, 11447.00
911.7520, 11353.00
912.8780, 11539.00
914.0040, 11638.00
915.1290, 11650.00
916.2550, 11615.00
917.3800, 11646.00
918.5050, 11750.00
919.6300, 11871.00
920.7550, 11912.00
921.8800, 11929.00
923.0040, 11994.00
924.1290, 12142.00
925.2530, 12139.00
926.3770, 12247.00
927.5010, 12461.00
928.6250, 12458.00
929.7480, 12552.00
930.8720, 12572.00
931.9950, 12636.00
933.1180, 12925.00
934.2410, 12846.00
935.3640, 12962.00
936.4860, 12909.00
937.6090, 13179.00
938.7310, 13219.00
939.8530, 13365.00
940.9750, 13314.00
942.0970, 13603.00
943.2180, 13537.00
944.3400, 13602.00
945.4610, 13656.00
946.5820, 13944.00
947.7030, 13882.00
948.8240, 14235.00
949.9450, 14023.00
951.0650, 14516.00
952.1860, 14615.00
953.3060, 14863.00
954.4260, 15126.00
955.5460, 15119.00
956.6650, 15262.00
957.7850, 15505.00
958.9040, 15678.00
960.0230, 15960.00
961.1420, 16096.00
962.2610, 16327.00
963.3800, 16524.00
964.4990, 16764.00
965.6170, 16711.00
966.7350, 16869.00
967.8530, 16929.00
968.9710, 17371.00
970.0890, 17330.00
971.2070, 17315.75
972.3240, 17390.89
973.4410, 17308.05
974.5580, 17278.00
975.6750, 17239.00
976.7920, 17205.00
977.9090, 17236.00
979.0250, 17192.00
980.1410, 17099.00
981.2580, 17107.00
982.3740, 16959.00
983.4890, 16936.39
984.6050, 17014.00
985.7200, 16874.00
986.8360, 16934.00
987.9510, 16995.00
989.0660, 16835.00
990.1810, 16967.00
991.2950, 16957.00
992.4100, 16899.00
993.5240, 16839.00
994.6390, 16771.00
995.7530, 16981.00
996.8660, 16998.00
997.9800, 17030.00
999.0940, 17069.00
1000.207, 17153.00
1001.320, 17118.00
1002.433, 16970.00
1003.546, 16934.00
1004.659, 17024.00
1005.772, 17132.00
1006.884, 17190.00
1007.996, 17229.91
1009.108, 17290.00
1010.220, 17300.00
1011.332, 17323.00
1012.444, 17428.00
1013.555, 17551.00
1014.666, 17347.00
1015.777, 17501.00
1016.888, 17565.00
1017.999, 17792.00
1019.110, 17840.00
1020.220, 17792.00
1021.331, 17780.00
1022.441, 17778.91
1023.551, 17783.00
1024.661, 17745.00
1025.770, 17708.93
1026.880, 17551.00
1027.989, 17600.00
1029.098, 17500.00
1030.207, 17444.00
1031.316, 17634.00
1032.425, 17441.00
1033.533, 17642.00
1034.642, 17521.00
1035.750, 17441.00
1036.858, 17617.00
1037.966, 17824.00
1039.073, 17843.00
1040.181, 18056.00
1041.288, 18264.00
1042.396, 18360.00
1043.503, 18725.00
1044.610, 18902.02
1045.716, 19033.00
1046.823, 19407.00
1047.929, 19700.00
1049.036, 19969.00
1050.142, 20475.00
1051.248, 20931.00
1052.353, 21101.00
1053.459, 21271.00
1054.564, 21621.00
1055.670, 21981.00
1056.775, 22296.00
1057.880, 22243.00
1058.985, 22570.00
1060.089, 22862.00
1061.194, 22650.00
1062.298, 22846.00
1063.402, 22735.00
1064.506, 23121.00
1065.610, 22704.00
1066.713, 22587.00
1067.817, 22774.00
1068.920, 22279.00
1070.023, 22325.00
1071.126, 22357.00
1072.229, 22383.00
1073.332, 22189.00
1074.435, 22212.00
1075.537, 22255.00
1076.639, 22528.00
1077.741, 22699.00
1078.843, 22800.00
1079.945, 23153.00
1081.046, 23203.00
1082.148, 23695.00
1083.249, 23924.00
1084.350, 23892.00
1085.451, 24072.00
1086.551, 24064.00
1087.652, 23981.00
1088.752, 23696.00
1089.853, 23071.00
1090.953, 22829.00
1092.053, 21879.00
1093.152, 21559.00
1094.252, 20770.00
1095.351, 20025.00
1096.451, 19758.00
1097.550, 19286.00
1098.649, 18722.00
1099.748, 18305.00
1100.846, 17912.00
1101.945, 17345.00
1103.043, 16977.00
1104.141, 16766.00
1105.239, 16275.00
1106.337, 15947.00
1107.434, 15709.00
1108.532, 15427.00
1109.629, 15303.00
1110.726, 15145.00
1111.823, 15073.00
1112.920, 14752.00
1114.017, 14703.00
1115.113, 14447.00
1116.210, 14429.00
1117.306, 14201.00
1118.402, 14129.00
1119.498, 14139.00
1120.593, 14132.00
1121.689, 14055.09
1122.784, 13967.00
1123.879, 13927.00
1124.974, 13753.00
1126.069, 13692.00
1127.164, 13540.00
1128.259, 13416.00
1129.353, 13302.00
1130.447, 13144.00
1131.541, 13131.00
1132.635, 12997.00
1133.729, 13042.00
1134.822, 12932.00
1135.916, 12862.00
1137.009, 12866.00
1138.102, 12868.00
1139.195, 12826.54
1140.288, 12772.00
1141.380, 12758.00
1142.473, 12715.00
1143.565, 12632.00
1144.657, 12552.00
1145.749, 12484.00
1146.841, 12466.40
1147.932, 12473.00
1149.024, 12466.00
1150.115, 12531.00
1151.206, 12554.00
1152.297, 12512.00
1153.388, 12611.00
1154.479, 12544.00
1155.569, 12559.00
1156.659, 12493.00
1157.750, 12455.00
1158.839, 12528.00
1159.929, 12412.00
1161.019, 12495.00
1162.108, 12518.00
1163.198, 12557.00
1164.287, 12539.00
1165.376, 12700.00
1166.465, 12683.00
1167.553, 12561.00
1168.642, 12338.58
1169.730, 12655.02
1170.818, 12837.90
1171.906, 12894.39
1172.994, 12445.98
1174.082, 12649.55
1175.170, 12591.84
1176.257, 12523.40
1177.344, 12818.72
1178.431, 12443.74
1179.518, 12733.29
1180.605, 12757.58
1181.691, 12903.26
1182.778, 12786.05
1183.864, 12750.04
1184.950, 12701.00
1186.036, 12850.13
1187.122, 12814.00
1188.207, 12906.00
1189.292, 12881.00
1190.378, 12635.00
1191.463, 12747.00
1192.548, 12622.00
1193.632, 12883.00
1194.717, 12768.00
1195.801, 12879.00
1196.886, 12763.00
1197.970, 12721.00
1199.054, 12554.13
1200.137, 12844.64
1201.221, 13001.57
1202.305, 13032.12
1203.388, 12557.77
1204.471, 12735.41
1205.554, 12651.77
1206.637, 12557.40
1207.719, 12826.82
1208.802, 12425.91
1209.884, 12689.56
1210.966, 12687.93
1212.048, 12807.71
1213.130, 12571.00
1214.212, 12631.00
1215.293, 12560.00
1216.374, 12605.00
1217.456, 12473.00
1218.536, 12540.00
1219.617, 12574.00
1220.698, 12487.00
1221.778, 12547.00
1222.859, 12350.00
1223.939, 12505.00
1225.019, 12517.00
1226.099, 12391.00
1227.178, 12391.00
1228.258, 12527.00
1229.337, 12549.00
1230.417, 12583.00
1231.496, 12497.00
1232.574, 12562.00
1233.653, 12476.00
1234.732, 12453.00
1235.810, 12454.00
1236.888, 12617.00
1237.966, 12378.00
1239.044, 12595.00
1240.122, 12451.00
1241.199, 12385.00
1242.277, 12300.00
1243.354, 12465.00
1244.431, 12412.00
1245.508, 12496.00
1246.585, 12542.87
1247.661, 12508.16
1248.738, 12626.00
1249.814, 12500.00
1250.890, 12545.00
1251.966, 12605.00
1253.042, 12596.00
1254.117, 12514.00
1255.193, 12599.00
1256.268, 12494.00
1257.343, 12544.32
1258.418, 12746.00
1259.493, 12597.00
1260.567, 12674.00
1261.642, 12683.00
1262.716, 12771.00
1263.790, 12776.00
1264.864, 12908.00
1265.938, 12752.00
1267.011, 12876.00
1268.085, 12932.00
1269.158, 13015.00
1270.231, 12918.00
1271.304, 12924.00
1272.377, 12935.00
1273.450, 12914.00
1274.522, 12992.46
1275.594, 13029.60
1276.666, 13129.00
1277.738, 13175.00
1278.810, 13204.00
1279.882, 13282.00
1280.953, 13192.00
1282.025, 13179.00
1283.096, 13254.00
1284.167, 13334.00
1285.238, 13214.00
1286.308, 13420.00
1287.379, 13200.00
1288.449, 13458.00
1289.519, 13439.00
1290.589, 13487.00
1291.659, 13359.00
1292.729, 13501.00
1293.798, 13434.00
1294.868, 13400.00
1295.937, 13408.00
1297.006, 13566.00
1298.075, 13546.00
1299.143, 13428.00
1300.212, 13545.00
1301.280, 13485.00
1302.348, 13646.00
1303.416, 13533.00
1304.484, 13465.00
1305.552, 13489.00
1306.620, 13472.95
1307.687, 13630.00
1308.754, 13580.00
1309.821, 13545.00
1310.888, 13652.00
1311.955, 13562.00
1313.021, 13562.00
1314.088, 13561.00
1315.154, 13657.00
1316.220, 13547.00
1317.286, 13599.00
1318.352, 13479.00
1319.417, 13569.00
1320.483, 13741.00
1321.548, 13852.00
1322.613, 13595.00
1323.678, 13587.00
1324.743, 13500.00
1325.807, 13431.00
1326.872, 13500.00
1327.936, 13457.00
1329.000, 13452.00
1330.064, 13454.00
1331.128, 13480.00
1332.191, 13443.00
1333.255, 13387.00
1334.318, 13506.00
1335.381, 13429.00
1336.444, 13515.00
1337.507, 13388.00
1338.569, 13453.00
1339.632, 13340.00
1340.694, 13375.00
1341.756, 13377.62
1342.818, 13385.00
1343.880, 13394.00
1344.941, 13432.00
1346.003, 13423.00
1347.064, 13426.47
1348.125, 13307.00
1349.186, 13384.00
1350.247, 13343.00
1351.308, 13265.00
1352.368, 13332.00
1353.428, 13264.00
1354.489, 13296.00
1355.549, 13393.00
1356.608, 13342.00
1357.668, 13363.00
1358.727, 13336.00
1359.787, 13364.00
1360.846, 13391.00
1361.905, 13374.00
1362.964, 13426.00
1364.022, 13387.00
1365.081, 13479.00
1366.139, 13479.62
1367.197, 13471.00
1368.255, 13508.00
1369.313, 13519.00
1370.371, 13491.00
1371.428, 13637.00
1372.486, 13577.00
1373.543, 13644.00
1374.600, 13732.00
1375.657, 13766.00
1376.713, 13689.00
1377.770, 13838.00
1378.826, 13943.00
1379.882, 13905.00
1380.938, 14055.00
1381.994, 14014.00
1383.050, 14155.00
1384.106, 14184.00
1385.161, 14179.00
1386.216, 14221.00
1387.271, 14341.00
1388.326, 14473.00
1389.381, 14506.00
1390.435, 14495.00
1391.490, 14527.00
1392.544, 14826.00
1393.598, 14815.00
1394.652, 14927.00
1395.705, 14731.00
1396.759, 14676.00
1397.812, 14844.00
1398.866, 14831.00
1399.919, 14888.00
1400.972, 14832.00
1402.024, 14719.00
1403.077, 14714.00
1404.129, 14774.00
1405.181, 14788.00
1406.233, 14597.00
1407.285, 14904.00
1408.337, 14643.00
1409.389, 14710.00
1410.440, 14728.00
1411.491, 14668.00
1412.542, 14684.68
1413.593, 14644.00
1414.644, 14609.00
1415.695, 14712.00
1416.745, 14646.00
1417.795, 14447.00
1418.845, 14399.00
1419.895, 14552.00
1420.945, 14514.00
1421.995, 14548.00
1423.044, 14489.00
1424.093, 14492.00
1425.142, 14415.00
1426.191, 14482.00
1427.240, 14487.00
1428.289, 14540.00
1429.337, 14509.00
1430.385, 14545.00
1431.433, 14553.00
1432.481, 14459.00
1433.529, 14565.00
1434.577, 14592.00
1435.624, 14503.00
1436.672, 14604.00
1437.719, 14515.00
1438.766, 14631.00
1439.812, 14461.00
1440.859, 14441.00
1441.905, 14479.00
1442.952, 14320.00
1443.998, 14358.00
1445.044, 14309.00
1446.090, 14325.00
1447.135, 14270.00
1448.181, 14245.00
1449.226, 14270.00
1450.271, 14164.00
1451.316, 14244.00
1452.361, 14159.00
1453.405, 14312.00
1454.450, 14093.00
1455.494, 14294.00
1456.538, 14247.00
1457.582, 14001.00
1458.626, 14095.00
1459.670, 14122.00
1460.713, 14114.00
1461.757, 14134.00
1462.800, 14039.00
1463.843, 14053.00
1464.886, 14090.00
1465.928, 13998.00
1466.971, 13890.00
1468.013, 13929.00
1469.055, 13822.00
1470.097, 13862.00
1471.139, 13897.00
1472.181, 13907.00
1473.222, 13696.00
1474.263, 13867.00
1475.305, 13730.00
1476.346, 13887.00
1477.386, 13650.00
1478.427, 13826.00
1479.468, 13826.00
1480.508, 13651.00
1481.548, 13882.00
1482.588, 13898.00
1483.628, 13915.00
1484.668, 13821.00
1485.707, 13728.00
1486.747, 13755.56
1487.786, 13737.00
1488.825, 13764.00
1489.864, 13768.00
1490.902, 13763.00
1491.941, 13814.00
1492.979, 13715.00
1494.017, 13805.00
1495.055, 13791.54
1496.093, 13744.00
1497.131, 13844.00
1498.168, 13927.00
1499.206, 13997.00
1500.243, 14054.00
1501.280, 14089.00
1502.317, 14057.00
1503.354, 14235.00
1504.390, 14159.00
1505.426, 14095.00
1506.463, 14244.00
1507.499, 14243.00
1508.535, 14249.00
1509.570, 14222.00
1510.606, 14218.00
1511.641, 14407.00
1512.676, 14299.00
1513.711, 14323.00
1514.746, 14516.00
1515.781, 14373.00
1516.816, 14440.00
1517.850, 14593.00
1518.884, 14527.00
1519.918, 14586.00
1520.952, 14633.00
1521.986, 14537.00
1523.019, 14538.00
1524.053, 14564.00
1525.086, 14493.00
1526.119, 14580.00
1527.152, 14558.00
1528.185, 14620.00
1529.217, 14728.00
1530.250, 14702.00
1531.282, 14539.00
1532.314, 14710.00
1533.346, 14477.00
1534.377, 14590.00
1535.409, 14701.00
1536.440, 14697.00
1537.472, 14527.00
1538.503, 14692.00
1539.534, 14624.00
1540.564, 14549.00
1541.595, 14671.00
1542.625, 14533.00
1543.656, 14517.00
1544.686, 14530.00
1545.716, 14440.00
1546.745, 14567.00
1547.775, 14606.00
1548.804, 14577.00
1549.834, 14507.00
1550.863, 14570.56
1551.892, 14895.00
1552.920, 14677.00
1553.949, 14788.00
1554.977, 14915.00
1556.006, 14768.00
1557.034, 14608.00
1558.062, 14474.00
1559.089, 14294.00
1560.117, 14455.00
1561.144, 14427.00
1562.172, 14265.00
1563.199, 14384.00
1564.226, 14362.00
1565.252, 14531.00
1566.279, 14473.00
1567.305, 14288.00
1568.332, 14385.00
1569.358, 14355.00
1570.384, 14331.00
1571.409, 14208.00
1572.435, 14502.00
##END=



