##NAMES=Elbaite
##RRUFFID=R060003
##IDEAL CHEMISTRY=Na(Al_1.5_Li_1.5_)Al_6_(Si_6_O_18_)(BO_3_)_3_(OH)_3_OH
##LOCALITY=Mount Begbie, Revelstoke, British Columbia, Canada
##OWNER=RRUFF
##SOURCE=Bob Downs
##DESCRIPTION=Pink crystal associated with trilithionite, R060004
##STATUS=The identification of this mineral has been confirmed by X-ray diffraction and chemical analysis
##URL=rruff.info/R060003
##MEASURED CHEMISTRY=(Na_0.58_[box]_0.42_)(Al_1.69_Li_1.27_Mn_0.04_)Al_6_(BO_3_)_3_[Si_6_O_18_](OH)_4_
##PIN_ID=L00688
##ORIENTATION=Laser parallel to -a* (-1 0 0). Fiducial mark perpendicular to laser is parallel to -c [0 0 -1]
118.1340, 21864.00
119.3650, 21709.00
120.5960, 21452.00
121.8270, 21567.00
123.0580, 21861.00
124.2880, 21670.00
125.5190, 21948.00
126.7490, 21869.00
127.9790, 22175.00
129.2090, 22597.00
130.4390, 22801.00
131.6680, 23236.00
132.8980, 23222.00
134.1270, 23539.00
135.3560, 24026.00
136.5850, 24227.00
137.8140, 24747.00
139.0430, 25236.00
140.2710, 25810.00
141.5000, 25908.00
142.7280, 25956.00
143.9560, 26186.00
145.1840, 26111.00
146.4120, 26092.00
147.6390, 26325.00
148.8670, 25953.00
150.0940, 25809.00
151.3210, 25864.00
152.5490, 25793.00
153.7750, 25493.00
155.0020, 25454.00
156.2290, 25424.00
157.4550, 25238.00
158.6810, 25206.00
159.9080, 25089.55
161.1340, 24910.00
162.3590, 24934.00
163.5850, 24882.00
164.8110, 24915.00
166.0360, 24969.00
167.2610, 24948.00
168.4860, 25012.00
169.7110, 25117.30
170.9360, 25205.00
172.1610, 25365.00
173.3850, 25592.00
174.6100, 25707.53
175.8340, 25818.90
177.0580, 25789.00
178.2820, 25927.00
179.5050, 25848.00
180.7290, 25787.00
181.9520, 25871.00
183.1760, 26051.00
184.3990, 25851.00
185.6220, 26176.00
186.8450, 26316.00
188.0670, 26139.00
189.2900, 26292.00
190.5120, 26211.00
191.7340, 26370.00
192.9560, 26353.00
194.1780, 26464.00
195.4000, 26611.00
196.6220, 26991.00
197.8430, 27030.00
199.0640, 27287.00
200.2860, 27451.00
201.5070, 27700.00
202.7270, 27641.00
203.9480, 27787.00
205.1690, 27795.00
206.3890, 27633.00
207.6090, 27989.00
208.8290, 28081.00
210.0490, 28300.00
211.2690, 28749.00
212.4890, 28967.00
213.7080, 29416.00
214.9280, 29585.00
216.1470, 29990.00
217.3660, 30161.99
218.5850, 30421.00
219.8030, 30406.00
221.0220, 30312.00
222.2400, 30222.00
223.4590, 29795.00
224.6770, 29631.00
225.8950, 29391.00
227.1120, 29335.00
228.3300, 29040.00
229.5480, 28759.00
230.7650, 28733.79
231.9820, 28458.00
233.1990, 28641.00
234.4160, 28426.00
235.6330, 28449.00
236.8490, 28691.00
238.0660, 28603.00
239.2820, 28649.00
240.4980, 28688.00
241.7140, 28836.00
242.9300, 28823.00
244.1460, 28754.00
245.3610, 28625.00
246.5770, 28575.11
247.7920, 28415.00
249.0070, 28376.00
250.2220, 28366.00
251.4370, 28225.00
252.6510, 28385.00
253.8660, 28219.00
255.0800, 28323.00
256.2940, 28191.00
257.5080, 28490.00
258.7220, 28546.47
259.9360, 28566.08
261.1490, 28802.00
262.3630, 28765.00
263.5760, 28733.00
264.7890, 29089.00
266.0020, 29037.00
267.2150, 29323.00
268.4270, 29519.00
269.6400, 29454.00
270.8520, 29571.00
272.0640, 29618.00
273.2760, 29797.00
274.4880, 29720.00
275.7000, 29912.00
276.9120, 30133.00
278.1230, 30136.00
279.3340, 30297.00
280.5450, 30573.00
281.7560, 30468.00
282.9670, 30583.00
284.1780, 30425.00
285.3880, 29959.00
286.5980, 29852.00
287.8090, 29912.00
289.0190, 29557.00
290.2290, 29436.00
291.4380, 29141.00
292.6480, 29040.00
293.8570, 28815.00
295.0670, 28523.00
296.2760, 28586.00
297.4850, 28384.00
298.6930, 28275.00
299.9020, 28477.00
301.1110, 28323.00
302.3190, 28353.00
303.5270, 28461.00
304.7350, 28335.00
305.9430, 28543.00
307.1510, 28602.00
308.3580, 28520.00
309.5660, 28561.00
310.7730, 28704.00
311.9800, 28708.00
313.1870, 29007.00
314.3940, 29009.00
315.6010, 29079.00
316.8070, 29374.00
318.0130, 29427.00
319.2200, 29718.00
320.4260, 30155.00
321.6310, 30215.00
322.8370, 30364.00
324.0430, 30772.00
325.2480, 31054.00
326.4540, 31029.00
327.6590, 31259.00
328.8640, 31051.00
330.0680, 31400.00
331.2730, 31238.00
332.4780, 31167.00
333.6820, 31146.00
334.8860, 30947.00
336.0900, 30968.00
337.2940, 30796.00
338.4980, 30641.00
339.7010, 30606.00
340.9050, 30601.00
342.1080, 30680.00
343.3110, 30602.00
344.5140, 30565.00
345.7170, 30725.00
346.9200, 30730.00
348.1220, 30731.00
349.3240, 30957.00
350.5270, 31199.00
351.7290, 31119.00
352.9310, 31707.00
354.1320, 31754.00
355.3340, 31935.00
356.5350, 32520.00
357.7370, 33106.00
358.9380, 33490.00
360.1390, 33896.00
361.3400, 34733.00
362.5400, 35315.00
363.7410, 36168.00
364.9410, 37006.00
366.1410, 37726.00
367.3410, 38255.00
368.5410, 39018.00
369.7410, 39358.00
370.9400, 39425.00
372.1400, 39674.00
373.3390, 39357.00
374.5380, 39003.00
375.7370, 38704.00
376.9360, 37848.00
378.1350, 37351.00
379.3330, 36712.00
380.5310, 36037.00
381.7300, 35438.00
382.9280, 35099.00
384.1260, 34644.00
385.3230, 34307.82
386.5210, 33970.00
387.7180, 33856.00
388.9160, 33666.00
390.1130, 33732.00
391.3100, 33762.00
392.5060, 33641.00
393.7030, 33462.00
394.9000, 33795.00
396.0960, 33991.00
397.2920, 33933.00
398.4880, 33813.00
399.6840, 34273.00
400.8800, 34126.00
402.0750, 34382.00
403.2710, 34382.00
404.4660, 34479.00
405.6610, 34419.00
406.8560, 34474.00
408.0510, 34319.00
409.2450, 34322.00
410.4400, 33983.00
411.6340, 33768.00
412.8280, 33245.00
414.0220, 33217.00
415.2160, 32787.00
416.4100, 32436.00
417.6030, 32249.00
418.7970, 31968.00
419.9900, 31667.00
421.1830, 31572.00
422.3760, 31501.00
423.5690, 31303.00
424.7610, 31379.00
425.9540, 31117.00
427.1460, 31258.00
428.3380, 31315.00
429.5300, 31173.00
430.7220, 31315.00
431.9140, 31272.00
433.1050, 31434.00
434.2970, 31267.00
435.4880, 31499.00
436.6790, 31588.00
437.8700, 31834.00
439.0610, 31839.00
440.2510, 32070.08
441.4420, 32238.00
442.6320, 32494.00
443.8220, 32652.00
445.0120, 32945.00
446.2020, 33083.00
447.3910, 33301.52
448.5810, 33479.98
449.7700, 33649.00
450.9600, 33749.00
452.1490, 33816.00
453.3370, 33826.00
454.5260, 33739.00
455.7150, 33758.00
456.9030, 33656.00
458.0910, 33657.00
459.2800, 33713.00
460.4670, 33681.00
461.6550, 33546.00
462.8430, 33681.00
464.0300, 33886.00
465.2180, 33974.00
466.4050, 34453.00
467.5920, 34858.00
468.7790, 35332.00
469.9650, 36539.00
471.1520, 37137.00
472.3380, 37359.00
473.5250, 37602.00
474.7110, 37429.00
475.8970, 37379.00
477.0820, 37186.00
478.2680, 36999.00
479.4540, 36579.00
480.6390, 36617.00
481.8240, 36080.00
483.0090, 35890.00
484.1940, 35305.00
485.3780, 35062.00
486.5630, 34746.00
487.7470, 34842.00
488.9320, 34709.00
490.1160, 34562.00
491.3000, 35265.00
492.4830, 35736.00
493.6670, 35684.00
494.8500, 36582.00
496.0340, 37511.00
497.2170, 38443.00
498.4000, 39791.00
499.5820, 41012.00
500.7650, 41276.00
501.9480, 42456.00
503.1300, 42627.00
504.3120, 42872.00
505.4940, 42976.00
506.6760, 42983.00
507.8580, 42799.00
509.0390, 42816.00
510.2210, 42217.00
511.4020, 41824.00
512.5830, 41052.00
513.7640, 40716.00
514.9450, 40094.00
516.1250, 39492.00
517.3060, 38636.00
518.4860, 38289.00
519.6660, 37973.00
520.8460, 37113.00
522.0260, 37126.00
523.2060, 36598.00
524.3850, 36557.00
525.5650, 36245.00
526.7440, 36287.00
527.9230, 36333.00
529.1020, 36130.00
530.2810, 36149.00
531.4590, 36438.00
532.6380, 36607.00
533.8160, 36573.00
534.9940, 36605.00
536.1720, 36602.00
537.3500, 36551.00
538.5270, 36688.00
539.7050, 36722.00
540.8820, 36612.00
542.0590, 36368.00
543.2360, 36381.00
544.4130, 36274.00
545.5900, 36258.00
546.7660, 36192.00
547.9430, 36053.00
549.1190, 35915.00
550.2950, 35728.00
551.4710, 35551.00
552.6470, 35470.00
553.8220, 35723.00
554.9980, 35352.00
556.1730, 35595.00
557.3480, 35343.00
558.5230, 35097.00
559.6980, 35038.00
560.8730, 35172.00
562.0470, 35129.00
563.2220, 35030.00
564.3960, 35346.00
565.5700, 35236.00
566.7440, 35416.00
567.9170, 35133.00
569.0910, 35320.00
570.2640, 35173.00
571.4380, 35227.00
572.6110, 35369.00
573.7840, 35293.00
574.9570, 35423.00
576.1290, 35210.00
577.3020, 35311.00
578.4740, 35264.00
579.6460, 35268.00
580.8180, 35231.00
581.9900, 35239.38
583.1620, 35266.00
584.3330, 35276.00
585.5040, 35238.73
586.6760, 35137.00
587.8470, 35174.00
589.0180, 35110.00
590.1880, 35131.93
591.3590, 35129.00
592.5290, 35159.00
593.7000, 35072.00
594.8700, 35209.00
596.0400, 35133.00
597.2090, 35135.00
598.3790, 35040.00
599.5490, 35148.00
600.7180, 35262.00
601.8870, 35143.00
603.0560, 35316.00
604.2250, 35255.00
605.3940, 35076.00
606.5620, 35152.00
607.7300, 34960.00
608.8990, 35291.00
610.0670, 35413.00
611.2350, 35526.00
612.4020, 35354.00
613.5700, 35421.00
614.7370, 35511.00
615.9050, 35707.00
617.0720, 35549.00
618.2390, 35486.00
619.4060, 35721.00
620.5720, 35947.00
621.7390, 36002.00
622.9050, 35884.00
624.0710, 36066.00
625.2370, 36158.00
626.4030, 36166.00
627.5690, 36361.00
628.7340, 36379.00
629.9000, 36648.00
631.0650, 36658.00
632.2300, 36881.00
633.3950, 36725.00
634.5600, 36804.00
635.7240, 36999.00
636.8890, 37280.00
638.0530, 37415.00
639.2170, 37286.00
640.3810, 36966.00
641.5450, 37464.00
642.7080, 37254.00
643.8720, 36889.00
645.0350, 37045.00
646.1980, 36876.00
647.3610, 36973.00
648.5240, 36705.00
649.6870, 36627.00
650.8490, 36525.00
652.0120, 36723.00
653.1740, 36310.00
654.3360, 36232.00
655.4980, 36439.00
656.6600, 36200.00
657.8210, 36333.00
658.9830, 36246.00
660.1440, 36295.00
661.3050, 36326.00
662.4660, 36330.00
663.6270, 36216.00
664.7870, 36133.00
665.9480, 36434.00
667.1080, 36657.00
668.2680, 36688.00
669.4280, 36718.00
670.5880, 36657.00
671.7480, 36609.00
672.9070, 36709.00
674.0670, 36604.00
675.2260, 36695.00
676.3850, 36645.00
677.5440, 36764.00
678.7030, 36777.00
679.8610, 36936.00
681.0200, 36613.00
682.1780, 36901.00
683.3360, 36786.00
684.4940, 36954.00
685.6520, 36772.00
686.8090, 36902.00
687.9670, 37188.00
689.1240, 37108.00
690.2810, 37466.00
691.4380, 37349.00
692.5950, 37677.00
693.7520, 37911.00
694.9080, 37788.00
696.0650, 38439.00
697.2210, 38739.00
698.3770, 39140.00
699.5330, 39659.00
700.6880, 40072.00
701.8440, 40560.00
702.9990, 40970.96
704.1550, 41350.00
705.3100, 41737.00
706.4650, 42024.00
707.6190, 42311.00
708.7740, 42447.00
709.9290, 42476.52
711.0830, 42514.00
712.2370, 42248.00
713.3910, 42192.00
714.5450, 41841.00
715.6980, 41588.00
716.8520, 41451.00
718.0050, 41331.00
719.1580, 40692.00
720.3110, 40562.00
721.4640, 40257.00
722.6170, 40269.00
723.7700, 40060.00
724.9220, 40144.00
726.0740, 40080.00
727.2260, 39927.00
728.3780, 39939.00
729.5300, 40114.00
730.6810, 40089.00
731.8330, 40182.00
732.9840, 40408.00
734.1350, 40496.00
735.2860, 40585.00
736.4370, 41063.00
737.5880, 41184.00
738.7380, 41556.00
739.8880, 41868.00
741.0390, 42764.00
742.1890, 42781.00
743.3380, 43580.00
744.4880, 43747.00
745.6380, 44095.00
746.7870, 44242.00
747.9360, 44568.00
749.0850, 44496.00
750.2340, 44454.00
751.3830, 44324.00
752.5310, 44258.23
753.6800, 43983.00
754.8280, 44116.00
755.9760, 44020.00
757.1240, 44035.00
758.2720, 43656.00
759.4190, 43628.00
760.5670, 43016.00
761.7140, 43325.00
762.8610, 42673.00
764.0080, 42670.00
765.1550, 42193.00
766.3020, 42144.00
767.4480, 41778.00
768.5950, 41431.00
769.7410, 41264.00
770.8870, 41327.00
772.0330, 41179.00
773.1780, 41392.00
774.3240, 41016.00
775.4690, 41025.00
776.6140, 41235.00
777.7590, 40454.00
778.9040, 40219.00
780.0490, 40406.00
781.1940, 40237.00
782.3380, 40123.00
783.4820, 39888.00
784.6260, 40001.00
785.7700, 39833.00
786.9140, 39835.00
788.0580, 39662.00
789.2010, 39694.00
790.3450, 39891.00
791.4880, 39601.00
792.6310, 39712.00
793.7730, 39675.00
794.9160, 39595.00
796.0590, 39852.00
797.2010, 39854.00
798.3430, 39775.00
799.4850, 39977.00
800.6270, 39888.00
801.7690, 40142.00
802.9100, 39996.00
804.0520, 40458.00
805.1930, 40761.00
806.3340, 40843.00
807.4750, 41077.00
808.6160, 41343.00
809.7560, 41533.00
810.8970, 41739.00
812.0370, 41553.00
813.1770, 41709.00
814.3170, 41382.00
815.4570, 41213.00
816.5960, 41047.00
817.7360, 40855.38
818.8750, 40697.00
820.0140, 40658.00
821.1530, 40527.00
822.2920, 40467.21
823.4310, 40448.00
824.5690, 40404.00
825.7070, 40375.00
826.8460, 40453.00
827.9840, 40252.00
829.1220, 40245.00
830.2590, 40269.00
831.3970, 40556.00
832.5340, 40368.00
833.6710, 40604.00
834.8080, 40332.00
835.9450, 40579.00
837.0820, 40575.00
838.2190, 40653.00
839.3550, 40748.00
840.4910, 40683.00
841.6270, 40682.00
842.7630, 40710.00
843.8990, 40593.00
845.0350, 40830.00
846.1700, 41041.00
847.3060, 41051.00
848.4410, 41064.00
849.5760, 41285.00
850.7100, 41240.00
851.8450, 41087.00
852.9800, 41240.00
854.1140, 41349.00
855.2480, 41681.00
856.3820, 41559.00
857.5160, 41908.00
858.6500, 41668.00
859.7830, 41814.00
860.9170, 41952.00
862.0500, 42026.00
863.1830, 42107.00
864.3160, 41697.00
865.4480, 41714.00
866.5810, 41828.00
867.7130, 42509.00
868.8460, 41986.00
869.9780, 42001.00
871.1100, 42288.00
872.2410, 42061.00
873.3730, 42099.00
874.5050, 42055.00
875.6360, 41992.00
876.7670, 42395.00
877.8980, 42159.00
879.0290, 42411.00
880.1590, 42290.00
881.2900, 42090.00
882.4200, 42481.00
883.5500, 42211.00
884.6800, 42388.00
885.8100, 42345.00
886.9400, 42281.00
888.0690, 42263.00
889.1990, 42414.00
890.3280, 42516.00
891.4570, 42428.00
892.5860, 42390.00
893.7140, 42579.00
894.8430, 42410.00
895.9710, 42168.00
897.1000, 42336.00
898.2280, 42399.00
899.3560, 42576.00
900.4830, 42610.29
901.6110, 42635.20
902.7380, 42623.00
903.8660, 42585.00
904.9930, 42582.79
906.1200, 42585.30
907.2460, 42568.00
908.3730, 42607.00
909.5000, 42671.00
910.6260, 42680.00
911.7520, 42830.00
912.8780, 42878.00
914.0040, 42903.59
915.1290, 42980.36
916.2550, 43018.00
917.3800, 43093.00
918.5050, 43110.21
919.6300, 43166.42
920.7550, 43145.00
921.8800, 43234.00
923.0040, 43266.00
924.1290, 43251.00
925.2530, 43553.00
926.3770, 43487.00
927.5010, 43432.00
928.6250, 43666.00
929.7480, 43803.00
930.8720, 43567.00
931.9950, 43666.00
933.1180, 44213.00
934.2410, 43737.00
935.3640, 43974.00
936.4860, 44137.00
937.6090, 44066.00
938.7310, 44198.00
939.8530, 44103.00
940.9750, 44246.00
942.0970, 44344.00
943.2180, 44421.00
944.3400, 44371.00
945.4610, 44669.00
946.5820, 44524.00
947.7030, 44440.00
948.8240, 44835.00
949.9450, 44842.00
951.0650, 44816.00
952.1860, 44936.00
953.3060, 45060.00
954.4260, 45105.00
955.5460, 44812.00
956.6650, 44949.00
957.7850, 45043.00
958.9040, 45292.00
960.0230, 44958.00
961.1420, 45220.00
962.2610, 45213.00
963.3800, 45328.00
964.4990, 45347.00
965.6170, 45429.40
966.7350, 45521.79
967.8530, 45615.00
968.9710, 45652.00
970.0890, 45781.00
971.2070, 45729.00
972.3240, 45988.00
973.4410, 45961.00
974.5580, 46264.00
975.6750, 46124.00
976.7920, 46231.00
977.9090, 46197.00
979.0250, 46310.00
980.1410, 46591.00
981.2580, 46714.00
982.3740, 46915.00
983.4890, 46469.00
984.6050, 46557.00
985.7200, 46705.00
986.8360, 46861.00
987.9510, 46709.00
989.0660, 46857.00
990.1810, 46799.00
991.2950, 46853.00
992.4100, 46988.00
993.5240, 46749.00
994.6390, 47018.00
995.7530, 46747.00
996.8660, 47195.00
997.9800, 47071.00
999.0940, 46975.00
1000.207, 47435.00
1001.320, 47352.00
1002.433, 47528.00
1003.546, 47433.00
1004.659, 47366.00
1005.772, 47628.00
1006.884, 47384.00
1007.996, 47347.00
1009.108, 47687.00
1010.220, 47622.00
1011.332, 47363.00
1012.444, 47859.00
1013.555, 47997.00
1014.666, 47733.00
1015.777, 47963.00
1016.888, 47901.00
1017.999, 48167.00
1019.110, 48005.00
1020.220, 48156.00
1021.331, 48287.00
1022.441, 48397.00
1023.551, 48594.00
1024.661, 48527.00
1025.770, 48471.00
1026.880, 48931.00
1027.989, 48785.00
1029.098, 49019.00
1030.207, 49214.00
1031.316, 49232.00
1032.425, 49567.00
1033.533, 49158.00
1034.642, 49625.00
1035.750, 49669.00
1036.858, 49589.00
1037.966, 49899.00
1039.073, 50193.00
1040.181, 50289.00
1041.288, 50466.00
1042.396, 50727.00
1043.503, 51097.00
1044.610, 51182.00
1045.716, 51738.00
1046.823, 51808.00
1047.929, 51985.00
1049.036, 52595.00
1050.142, 52844.00
1051.248, 53015.00
1052.353, 53624.00
1053.459, 53962.00
1054.564, 54059.00
1055.670, 54466.00
1056.775, 54547.00
1057.880, 54532.00
1058.985, 55013.00
1060.089, 54987.00
1061.194, 54868.00
1062.298, 55047.00
1063.402, 54654.00
1064.506, 54641.00
1065.610, 54704.00
1066.713, 54572.00
1067.817, 54490.00
1068.920, 54364.00
1070.023, 54110.00
1071.126, 53903.00
1072.229, 54006.00
1073.332, 53357.00
1074.435, 53373.00
1075.537, 53018.00
1076.639, 53151.00
1077.741, 52944.00
1078.843, 52990.00
1079.945, 52550.00
1081.046, 52543.00
1082.148, 52380.00
1083.249, 52464.00
1084.350, 52032.00
1085.451, 51969.00
1086.551, 51993.00
1087.652, 51916.00
1088.752, 51737.00
1089.853, 51664.00
1090.953, 51523.00
1092.053, 51411.00
1093.152, 51346.43
1094.252, 51065.00
1095.351, 51308.00
1096.451, 51246.00
1097.550, 51431.00
1098.649, 51304.00
1099.748, 50833.00
1100.846, 50922.00
1101.945, 50856.00
1103.043, 50715.00
1104.141, 50985.00
1105.239, 50892.00
1106.337, 51131.16
1107.434, 50902.00
1108.532, 51434.00
1109.629, 51662.00
1110.726, 51442.00
1111.823, 51209.00
1112.920, 51040.00
1114.017, 50805.00
1115.113, 50637.00
1116.210, 50789.00
1117.306, 50651.00
1118.402, 50899.00
1119.498, 50892.00
1120.593, 50894.00
1121.689, 51069.00
1122.784, 50877.00
1123.879, 50997.00
1124.974, 50807.00
1126.069, 50958.00
1127.164, 50630.00
1128.259, 50696.00
1129.353, 50359.00
1130.447, 50593.00
1131.541, 50648.00
1132.635, 50585.00
1133.729, 50689.00
1134.822, 50679.00
1135.916, 50607.00
1137.009, 50945.00
1138.102, 50703.00
1139.195, 51024.00
1140.288, 50636.00
1141.380, 50971.00
1142.473, 51362.00
1143.565, 51046.00
1144.657, 50500.00
1145.749, 51142.00
1146.841, 50907.00
1147.932, 51053.00
1149.024, 50910.00
1150.115, 51049.00
1151.206, 51300.00
1152.297, 50780.00
1153.388, 51127.00
1154.479, 51192.00
1155.569, 51226.00
1156.659, 51112.00
1157.750, 50977.00
1158.839, 51212.00
1159.929, 50959.00
1161.019, 51432.00
1162.108, 51049.00
1163.198, 51150.00
1164.287, 51362.00
1165.376, 51112.00
1166.465, 51523.00
1167.553, 51519.00
1168.642, 51460.00
1169.730, 51364.00
1170.818, 51577.00
1171.906, 51337.00
1172.994, 51312.00
1174.082, 51608.00
1175.170, 51630.00
1176.257, 51648.00
1177.344, 52238.00
1178.431, 51987.00
1179.518, 51458.00
1180.605, 51887.00
1181.691, 51757.00
1182.778, 51751.00
1183.864, 51974.00
1184.950, 51580.00
1186.036, 51745.00
1187.122, 51781.00
1188.207, 51753.57
1189.292, 52062.00
1190.378, 51999.00
1191.463, 52058.00
1192.548, 52332.00
1193.632, 52228.00
1194.717, 52314.00
1195.801, 52530.00
1196.886, 52590.00
1197.970, 52214.00
1199.054, 52447.00
1200.137, 52309.00
1201.221, 52233.00
1202.305, 52446.00
1203.388, 52686.00
1204.471, 52456.00
1205.554, 52443.00
1206.637, 52842.00
1207.719, 52570.00
1208.802, 52671.00
1209.884, 52730.00
1210.966, 52891.00
1212.048, 52897.00
1213.130, 52857.00
1214.212, 53075.00
1215.293, 53375.00
1216.374, 53187.00
1217.456, 53250.00
1218.536, 53249.00
1219.617, 53257.00
1220.698, 53411.00
1221.778, 53561.00
1222.859, 53403.00
1223.939, 53552.00
1225.019, 53313.00
1226.099, 53758.00
1227.178, 53789.00
1228.258, 53409.00
1229.337, 53761.00
1230.417, 53938.00
1231.496, 53821.00
1232.574, 53929.00
1233.653, 53770.00
1234.732, 53890.00
1235.810, 53886.00
1236.888, 53984.00
1237.966, 53830.00
1239.044, 53893.00
1240.122, 54017.00
1241.199, 54087.00
1242.277, 54202.00
1243.354, 54024.00
1244.431, 54256.00
1245.508, 54100.00
1246.585, 54209.00
1247.661, 54206.00
1248.738, 54351.00
1249.814, 54530.00
1250.890, 54152.00
1251.966, 54148.00
1253.042, 54335.00
1254.117, 54545.00
1255.193, 54317.00
1256.268, 54293.00
1257.343, 54316.00
1258.418, 54301.00
1259.493, 54436.00
1260.567, 54458.00
1261.642, 54648.00
1262.716, 54632.00
1263.790, 54707.00
1264.864, 54579.00
1265.938, 54942.00
1267.011, 54697.00
1268.085, 55251.00
1269.158, 54918.00
1270.231, 54820.00
1271.304, 55091.00
1272.377, 55014.00
1273.450, 55370.00
1274.522, 55219.00
1275.594, 55459.00
1276.666, 55207.00
1277.738, 55445.00
1278.810, 55490.00
1279.882, 55584.00
1280.953, 55482.00
1282.025, 55755.00
1283.096, 55531.00
1284.167, 55521.00
1285.238, 55752.00
1286.308, 55469.00
1287.379, 55751.00
1288.449, 55790.00
1289.519, 55925.00
1290.589, 56139.00
1291.659, 55910.00
1292.729, 56048.00
1293.798, 56297.00
1294.868, 56385.00
1295.937, 56143.00
1297.006, 56259.00
1298.075, 56203.00
1299.143, 56180.00
1300.212, 56550.00
1301.280, 56467.00
1302.348, 56565.00
1303.416, 56511.00
1304.484, 56543.00
1305.552, 56570.00
1306.620, 56656.00
1307.687, 56871.00
1308.754, 56373.00
1309.821, 56838.00
1310.888, 56633.00
1311.955, 56697.00
1313.021, 56873.00
1314.088, 56685.00
1315.154, 56878.00
1316.220, 56767.00
1317.286, 57054.00
1318.352, 57236.00
1319.417, 57050.00
1320.483, 57376.00
1321.548, 57226.00
1322.613, 56842.00
1323.678, 57214.00
1324.743, 57049.00
1325.807, 57387.00
1326.872, 57237.00
1327.936, 57475.00
1329.000, 57328.00
1330.064, 57365.00
1331.128, 57446.00
1332.191, 57527.00
1333.255, 57630.00
1334.318, 57579.00
1335.381, 57652.00
1336.444, 57754.00
1337.507, 58159.00
1338.569, 57703.00
1339.632, 57917.00
1340.694, 57687.00
1341.756, 57892.00
1342.818, 57804.00
1343.880, 58132.00
1344.941, 58053.00
1346.003, 57818.00
1347.064, 58372.00
1348.125, 57992.00
1349.186, 58015.00
1350.247, 58259.00
1351.308, 58007.00
1352.368, 58307.00
1353.428, 58310.00
1354.489, 58165.00
1355.549, 58044.00
1356.608, 58698.00
1357.668, 58390.00
1358.727, 58541.00
1359.787, 58400.00
1360.846, 58574.00
1361.905, 58604.00
1362.964, 58882.00
1364.022, 58613.00
1365.081, 58700.00
1366.139, 58694.00
1367.197, 58606.00
1368.255, 59011.00
1369.313, 58953.00
1370.371, 59032.00
1371.428, 59293.00
1372.486, 59054.00
1373.543, 58891.00
1374.600, 58865.00
1375.657, 59061.00
1376.713, 59214.00
1377.770, 59333.00
1378.826, 59470.00
1379.882, 59382.00
1380.938, 59463.11
1381.994, 59100.00
1383.050, 59405.00
1384.106, 59411.00
1385.161, 59272.00
1386.216, 59764.00
1387.271, 59537.00
1388.326, 59841.00
1389.381, 59686.00
1390.435, 59542.00
1391.490, 59779.00
1392.544, 59543.00
1393.598, 59717.00
1394.652, 59966.00
1395.705, 60178.00
1396.759, 60206.97
1397.812, 60240.21
1398.866, 60141.00
1399.919, 60220.00
1400.972, 59998.00
1402.024, 60229.00
1403.077, 60884.00
1404.129, 60359.00
1405.181, 60642.00
1406.233, 60550.00
1407.285, 60384.00
1408.337, 60282.00
1409.389, 60549.00
1410.440, 60523.00
1411.491, 60745.00
1412.542, 60263.00
1413.593, 60634.00
1414.644, 60708.00
1415.695, 60540.00
1416.745, 60979.00
1417.795, 60768.00
1418.845, 60895.00
1419.895, 60684.00
1420.945, 60761.04
1421.995, 61027.00
1423.044, 60854.00
1424.093, 61141.00
1425.142, 61156.00
1426.191, 61029.00
1427.240, 61313.00
1428.289, 61322.98
1429.337, 61431.00
1430.385, 61462.00
1431.433, 62004.00
1432.481, 61840.00
1433.529, 61975.00
1434.577, 62270.00
1435.624, 62116.00
1436.672, 62361.00
1437.719, 62266.00
1438.766, 62199.00
1439.812, 62294.00
1440.859, 62435.00
1441.905, 62548.00
1442.952, 62434.00
1443.998, 62768.00
1445.044, 62743.00
1446.090, 63063.00
1447.135, 62596.00
1448.181, 62643.00
1449.226, 62481.00
1450.271, 62909.00
1451.316, 62638.00
1452.361, 62733.00
1453.405, 62866.00
1454.450, 62754.00
1455.494, 62713.00
1456.538, 62850.00
1457.582, 62810.89
1458.626, 63153.00
1459.670, 62994.00
1460.713, 63038.00
1461.757, 63304.00
1462.800, 63113.00
1463.843, 63239.00
1464.886, 63263.00
1465.928, 63236.64
1466.971, 63118.00
1468.013, 63184.00
1469.055, 63261.00
1470.097, 63031.00
1471.139, 62973.00
1472.181, 63067.00
1473.222, 63147.00
1474.263, 63026.00
1475.305, 62831.00
1476.346, 63126.00
1477.386, 63081.00
1478.427, 62751.00
1479.468, 62904.00
1480.508, 63183.00
1481.548, 62931.00
1482.588, 62601.00
1483.628, 63328.00
1484.668, 62937.00
1485.707, 63173.00
1486.747, 62993.00
1487.786, 63173.00
1488.825, 63081.00
1489.864, 62859.00
1490.902, 63207.00
1491.941, 63145.00
1492.979, 63026.00
1494.017, 63180.00
1495.055, 63241.00
1496.093, 63475.00
1497.131, 63319.00
1498.168, 63426.00
1499.206, 63217.00
1500.243, 63389.00
1501.280, 63545.00
1502.317, 63139.00
1503.354, 63889.00
1504.390, 63660.00
1505.426, 63525.00
1506.463, 63569.00
1507.499, 63688.00
1508.535, 63668.00
1509.570, 63754.00
1510.606, 63875.00
1511.641, 63961.00
1512.676, 63930.00
1513.711, 63841.00
1514.746, 63885.00
1515.781, 64105.00
1516.816, 63784.00
1517.850, 63885.00
1518.884, 63812.00
1519.918, 64360.00
1520.952, 64115.00
1521.986, 64368.00
1523.019, 64167.00
1524.053, 63986.00
1525.086, 64290.00
1526.119, 64428.00
1527.152, 64243.00
1528.185, 63960.00
1529.217, 64393.00
1530.250, 64095.00
1531.282, 64451.00
1532.314, 64478.00
1533.346, 64090.00
1534.377, 64596.00
1535.409, 64459.00
1536.440, 64298.00
1537.472, 64502.00
1538.503, 64722.00
1539.534, 64407.00
1540.564, 64637.00
1541.595, 64560.00
1542.625, 64712.00
1543.656, 64575.00
1544.686, 64631.00
1545.716, 64295.00
1546.745, 64814.00
1547.775, 64973.00
1548.804, 64694.00
1549.834, 64770.00
1550.863, 64864.00
1551.892, 64841.00
1552.920, 64872.00
1553.949, 65196.00
1554.977, 65093.00
1556.006, 65049.00
1557.034, 65207.00
1558.062, 65052.00
1559.089, 65325.00
1560.117, 65059.00
1561.144, 64981.00
1562.172, 65140.00
1563.199, 65414.00
1564.226, 65062.00
1565.252, 65247.00
1566.279, 65493.00
1567.305, 65535.00
1568.332, 65333.00
1569.358, 65269.00
1570.384, 65512.00
1571.409, 65481.00
1572.435, 65535.00
##END=



