##NAMES=Elbaite
##RRUFFID=R060631
##IDEAL CHEMISTRY=Na(Al_1.5_Li_1.5_)Al_6_(Si_6_O_18_)(BO_3_)_3_(OH)_3_OH
##LOCALITY=unknown
##OWNER=RRUFF
##SOURCE=Gemological Institute of America
##DESCRIPTION=Pink polished fragment
##STATUS=The identification of this mineral is confirmed by single-crystal X-ray diffraction and chemical analysis.
##URL=rruff.info/R060631
##MEASURED CHEMISTRY=(Na_0.55_Ca_0.34_[box]_0.11_)(Li_1.53_Al_1.30_Mn_0.14_Fe^2+^_0.03_)Al_6.00_(BO_3_)_3_[Si_6.00_O_18_]((OH)_0.82_F_0.18_)_4_
##PIN_ID=L01326
##ORIENTATION=Laser parallel to -c* (0 0 -1). Fiducial mark perpendicular to laser is parallel to b [0 1 0]
113.2080, 15588.00
114.4400, 15830.00
115.6710, 15715.00
116.9030, 15837.00
118.1340, 16152.00
119.3650, 16165.00
120.5960, 16458.00
121.8270, 16794.00
123.0580, 17163.00
124.2880, 17122.00
125.5190, 17215.00
126.7490, 17716.00
127.9790, 17759.00
129.2090, 18002.00
130.4390, 18166.00
131.6680, 18178.00
132.8980, 18182.00
134.1270, 17844.00
135.3560, 17627.00
136.5850, 17319.00
137.8140, 17028.00
139.0430, 16796.00
140.2710, 16416.00
141.5000, 15963.00
142.7280, 16030.00
143.9560, 15895.00
145.1840, 15827.00
146.4120, 15908.00
147.6390, 16160.00
148.8670, 16418.00
150.0940, 16493.00
151.3210, 16520.00
152.5490, 16501.00
153.7750, 16408.00
155.0020, 16272.00
156.2290, 16106.00
157.4550, 16235.00
158.6810, 15553.00
159.9080, 15443.00
161.1340, 15483.00
162.3590, 15346.00
163.5850, 15481.00
164.8110, 15287.00
166.0360, 15363.00
167.2610, 15205.00
168.4860, 15365.00
169.7110, 15273.00
170.9360, 15136.00
172.1610, 15168.00
173.3850, 15204.00
174.6100, 15189.55
175.8340, 15290.01
177.0580, 15332.00
178.2820, 15432.00
179.5050, 15653.00
180.7290, 15648.00
181.9520, 15753.00
183.1760, 15920.00
184.3990, 16261.00
185.6220, 16527.00
186.8450, 16731.00
188.0670, 17142.00
189.2900, 17232.00
190.5120, 17973.00
191.7340, 18159.00
192.9560, 18396.00
194.1780, 18747.00
195.4000, 19061.00
196.6220, 19252.00
197.8430, 19627.00
199.0640, 20000.00
200.2860, 20339.00
201.5070, 20520.00
202.7270, 20558.00
203.9480, 20471.00
205.1690, 20521.00
206.3890, 20510.00
207.6090, 21222.00
208.8290, 21735.00
210.0490, 22568.00
211.2690, 23556.00
212.4890, 24711.00
213.7080, 25775.00
214.9280, 26811.00
216.1470, 28495.00
217.3660, 29976.00
218.5850, 31836.00
219.8030, 33374.00
221.0220, 34691.00
222.2400, 35352.00
223.4590, 35581.00
224.6770, 35189.00
225.8950, 34278.00
227.1120, 32996.00
228.3300, 31832.00
229.5480, 30820.00
230.7650, 30057.00
231.9820, 29477.00
233.1990, 29168.00
234.4160, 28523.00
235.6330, 28854.00
236.8490, 28405.12
238.0660, 28553.00
239.2820, 28112.00
240.4980, 28012.00
241.7140, 27993.00
242.9300, 27543.00
244.1460, 27497.00
245.3610, 26681.78
246.5770, 25545.00
247.7920, 24951.00
249.0070, 24028.00
250.2220, 23115.00
251.4370, 22397.00
252.6510, 21786.00
253.8660, 21167.00
255.0800, 20683.00
256.2940, 20762.00
257.5080, 20248.27
258.7220, 20674.00
259.9360, 19722.00
261.1490, 19017.00
262.3630, 18721.00
263.5760, 18775.00
264.7890, 18763.00
266.0020, 18701.00
267.2150, 18610.00
268.4270, 18681.00
269.6400, 18768.00
270.8520, 18695.00
272.0640, 18684.00
273.2760, 18993.00
274.4880, 18971.00
275.7000, 19023.00
276.9120, 18862.00
278.1230, 18911.00
279.3340, 19032.00
280.5450, 19030.00
281.7560, 19043.00
282.9670, 18977.00
284.1780, 19040.00
285.3880, 19146.00
286.5980, 19103.00
287.8090, 18865.00
289.0190, 18818.00
290.2290, 18605.00
291.4380, 18365.00
292.6480, 18189.00
293.8570, 18145.00
295.0670, 17887.00
296.2760, 17905.00
297.4850, 17737.00
298.6930, 18004.00
299.9020, 18046.00
301.1110, 18156.00
302.3190, 18573.00
303.5270, 18738.48
304.7350, 19124.00
305.9430, 19345.00
307.1510, 19741.00
308.3580, 20028.00
309.5660, 20587.00
310.7730, 20531.00
311.9800, 20774.00
313.1870, 21041.00
314.3940, 20976.00
315.6010, 21288.00
316.8070, 21677.00
318.0130, 22025.00
319.2200, 22214.00
320.4260, 22503.00
321.6310, 23217.00
322.8370, 23739.00
324.0430, 24335.00
325.2480, 24660.00
326.4540, 25269.00
327.6590, 25338.00
328.8640, 25881.00
330.0680, 25951.00
331.2730, 25766.00
332.4780, 25919.00
333.6820, 25656.00
334.8860, 25255.00
336.0900, 25224.00
337.2940, 24973.00
338.4980, 24730.00
339.7010, 24648.00
340.9050, 24382.00
342.1080, 24177.00
343.3110, 24440.00
344.5140, 24265.00
345.7170, 24366.00
346.9200, 24500.00
348.1220, 24469.00
349.3240, 24739.00
350.5270, 24666.00
351.7290, 25255.00
352.9310, 25382.00
354.1320, 25775.00
355.3340, 26284.00
356.5350, 26849.00
357.7370, 27508.00
358.9380, 28226.00
360.1390, 29223.00
361.3400, 30195.00
362.5400, 31160.00
363.7410, 32246.00
364.9410, 33722.00
366.1410, 35147.00
367.3410, 36678.00
368.5410, 38379.00
369.7410, 40266.00
370.9400, 42290.00
372.1400, 44281.00
373.3390, 46316.00
374.5380, 48044.00
375.7370, 49207.00
376.9360, 49966.00
378.1350, 49512.00
379.3330, 48114.00
380.5310, 46155.00
381.7300, 43462.00
382.9280, 41109.00
384.1260, 38488.00
385.3230, 36161.00
386.5210, 34391.00
387.7180, 32767.00
388.9160, 31419.00
390.1130, 30579.00
391.3100, 29812.00
392.5060, 29407.00
393.7030, 28992.00
394.9000, 28816.00
396.0960, 28756.00
397.2920, 28669.00
398.4880, 28585.00
399.6840, 28867.00
400.8800, 28934.00
402.0750, 29064.00
403.2710, 29406.00
404.4660, 29701.00
405.6610, 29754.00
406.8560, 29788.00
408.0510, 29707.33
409.2450, 29390.44
410.4400, 29166.00
411.6340, 28428.00
412.8280, 27745.00
414.0220, 26936.00
415.2160, 26117.00
416.4100, 25127.00
417.6030, 24583.00
418.7970, 23634.00
419.9900, 23166.00
421.1830, 22277.00
422.3760, 21946.00
423.5690, 21623.00
424.7610, 21331.00
425.9540, 21155.35
427.1460, 21011.68
428.3380, 20929.00
429.5300, 20929.00
430.7220, 20955.00
431.9140, 21051.00
433.1050, 20990.00
434.2970, 21129.27
435.4880, 21028.00
436.6790, 21352.00
437.8700, 21388.00
439.0610, 21499.00
440.2510, 21687.00
441.4420, 21531.00
442.6320, 21835.00
443.8220, 21784.00
445.0120, 21805.00
446.2020, 22000.00
447.3910, 21871.00
448.5810, 21729.00
449.7700, 21842.00
450.9600, 21733.00
452.1490, 21699.00
453.3370, 21599.00
454.5260, 21616.00
455.7150, 21578.00
456.9030, 21671.00
458.0910, 21686.39
459.2800, 21867.00
460.4670, 21796.00
461.6550, 21920.80
462.8430, 21992.48
464.0300, 22217.00
465.2180, 22030.00
466.4050, 22293.00
467.5920, 22377.00
468.7790, 22576.00
469.9650, 22589.00
471.1520, 22416.00
472.3380, 22447.00
473.5250, 22093.00
474.7110, 22141.00
475.8970, 21971.00
477.0820, 21928.00
478.2680, 21902.21
479.4540, 21937.00
480.6390, 21794.00
481.8240, 21792.00
483.0090, 21651.00
484.1940, 21697.00
485.3780, 21537.00
486.5630, 21582.00
487.7470, 21624.00
488.9320, 21587.00
490.1160, 21743.00
491.3000, 21548.00
492.4830, 21432.00
493.6670, 21395.00
494.8500, 21506.00
496.0340, 21516.00
497.2170, 21717.00
498.4000, 21852.26
499.5820, 22171.00
500.7650, 22285.00
501.9480, 22470.00
503.1300, 22807.00
504.3120, 23093.00
505.4940, 23110.00
506.6760, 23497.00
507.8580, 23772.00
509.0390, 23902.00
510.2210, 23916.00
511.4020, 24305.00
512.5830, 24276.00
513.7640, 24328.00
514.9450, 24423.00
516.1250, 24254.00
517.3060, 24301.00
518.4860, 24156.00
519.6660, 23873.00
520.8460, 23784.00
522.0260, 23639.00
523.2060, 23522.00
524.3850, 23556.26
525.5650, 23582.00
526.7440, 23752.00
527.9230, 24006.00
529.1020, 24332.00
530.2810, 24707.00
531.4590, 24999.00
532.6380, 25419.00
533.8160, 25835.00
534.9940, 26273.00
536.1720, 26588.26
537.3500, 26939.00
538.5270, 27112.00
539.7050, 27355.00
540.8820, 27408.00
542.0590, 27488.00
543.2360, 27450.00
544.4130, 27454.00
545.5900, 27717.00
546.7660, 27572.00
547.9430, 27574.00
549.1190, 27577.00
550.2950, 27323.00
551.4710, 27446.00
552.6470, 27175.00
553.8220, 26489.00
554.9980, 26295.00
556.1730, 25936.00
557.3480, 25451.00
558.5230, 25288.00
559.6980, 24647.00
560.8730, 24110.00
562.0470, 23816.00
563.2220, 23444.00
564.3960, 22733.00
565.5700, 22592.00
566.7440, 22316.31
567.9170, 23379.00
569.0910, 21793.00
570.2640, 22345.00
571.4380, 21545.00
572.6110, 20870.00
573.7840, 20586.00
574.9570, 20485.00
576.1290, 20161.00
577.3020, 20269.00
578.4740, 20231.00
579.6460, 20388.00
580.8180, 20298.00
581.9900, 20045.00
583.1620, 19957.00
584.3330, 20107.00
585.5040, 20127.00
586.6760, 20100.01
587.8470, 20029.00
589.0180, 20019.00
590.1880, 19885.00
591.3590, 19739.00
592.5290, 19527.00
593.7000, 19815.00
594.8700, 19644.00
596.0400, 19520.00
597.2090, 19194.00
598.3790, 19221.00
599.5490, 19230.00
600.7180, 19055.00
601.8870, 19035.00
603.0560, 18898.00
604.2250, 18795.81
605.3940, 18664.00
606.5620, 18599.00
607.7300, 18608.00
608.8990, 18544.00
610.0670, 18463.00
611.2350, 18323.00
612.4020, 18429.00
613.5700, 18350.00
614.7370, 18310.00
615.9050, 18470.00
617.0720, 18275.00
618.2390, 18288.00
619.4060, 18214.00
620.5720, 18244.43
621.7390, 18585.00
622.9050, 18413.00
624.0710, 18502.00
625.2370, 18650.00
626.4030, 18432.00
627.5690, 18623.00
628.7340, 18524.99
629.9000, 18646.00
631.0650, 18460.00
632.2300, 18711.00
633.3950, 18794.00
634.5600, 18783.00
635.7240, 18804.00
636.8890, 19169.00
638.0530, 19129.00
639.2170, 19197.00
640.3810, 19502.00
641.5450, 19346.00
642.7080, 19354.00
643.8720, 19463.00
645.0350, 19383.00
646.1980, 19335.00
647.3610, 19076.00
648.5240, 19005.00
649.6870, 18977.00
650.8490, 18854.00
652.0120, 18978.00
653.1740, 18875.00
654.3360, 18854.00
655.4980, 18869.00
656.6600, 18789.00
657.8210, 18901.00
658.9830, 18854.00
660.1440, 18747.00
661.3050, 18809.00
662.4660, 18780.00
663.6270, 18787.00
664.7870, 18695.00
665.9480, 18662.30
667.1080, 18915.00
668.2680, 18572.00
669.4280, 18658.00
670.5880, 18699.00
671.7480, 18983.00
672.9070, 19136.00
674.0670, 19009.00
675.2260, 18487.00
676.3850, 18432.00
677.5440, 18527.00
678.7030, 18382.00
679.8610, 18241.00
681.0200, 18039.00
682.1780, 17902.00
683.3360, 17689.00
684.4940, 17637.00
685.6520, 17340.00
686.8090, 17173.00
687.9670, 17372.00
689.1240, 17110.00
690.2810, 17150.00
691.4380, 17192.00
692.5950, 17290.00
693.7520, 17333.00
694.9080, 17644.00
696.0650, 17563.00
697.2210, 17953.00
698.3770, 18082.99
699.5330, 18071.00
700.6880, 18453.00
701.8440, 18827.00
702.9990, 18961.00
704.1550, 19210.00
705.3100, 19621.00
706.4650, 19934.00
707.6190, 20445.00
708.7740, 21339.00
709.9290, 21746.88
711.0830, 22456.00
712.2370, 23049.00
713.3910, 24069.00
714.5450, 24963.00
715.6980, 26294.00
716.8520, 27947.00
718.0050, 29869.00
719.1580, 31943.00
720.3110, 34621.00
721.4640, 37495.00
722.6170, 41000.00
723.7700, 44854.00
724.9220, 48821.00
726.0740, 52704.00
727.2260, 56516.00
728.3780, 59893.00
729.5300, 61515.00
730.6810, 62032.00
731.8330, 61607.00
732.9840, 59429.00
734.1350, 56121.00
735.2860, 52366.00
736.4370, 48514.00
737.5880, 45049.00
738.7380, 41596.00
739.8880, 38814.00
741.0390, 36412.00
742.1890, 34157.00
743.3380, 32280.00
744.4880, 30826.00
745.6380, 29411.00
746.7870, 28314.00
747.9360, 27158.00
749.0850, 26126.00
750.2340, 25145.00
751.3830, 24553.00
752.5310, 24204.00
753.6800, 23414.00
754.8280, 23109.00
755.9760, 22571.00
757.1240, 22225.00
758.2720, 21978.00
759.4190, 21679.00
760.5670, 21255.00
761.7140, 21042.00
762.8610, 20663.00
764.0080, 20271.00
765.1550, 19856.00
766.3020, 19652.00
767.4480, 19331.00
768.5950, 19020.00
769.7410, 18867.00
770.8870, 18592.00
772.0330, 18204.00
773.1780, 18167.00
774.3240, 17797.00
775.4690, 17720.00
776.6140, 17595.00
777.7590, 17506.00
778.9040, 17535.00
780.0490, 17262.00
781.1940, 17213.00
782.3380, 17199.00
783.4820, 17292.00
784.6260, 17183.00
785.7700, 17102.00
786.9140, 17275.00
788.0580, 17188.00
789.2010, 17257.40
790.3450, 17245.45
791.4880, 17397.00
792.6310, 17216.00
793.7730, 17374.00
794.9160, 17446.00
796.0590, 17503.00
797.2010, 17602.00
798.3430, 17650.00
799.4850, 17836.00
800.6270, 17869.00
801.7690, 18125.00
802.9100, 18253.00
804.0520, 18116.00
805.1930, 18414.00
806.3340, 18660.00
807.4750, 18269.00
808.6160, 17926.00
809.7560, 17595.00
810.8970, 17451.00
812.0370, 17279.00
813.1770, 17180.00
814.3170, 17195.00
815.4570, 17138.00
816.5960, 17120.00
817.7360, 17157.00
818.8750, 17039.00
820.0140, 17158.00
821.1530, 17068.00
822.2920, 17262.00
823.4310, 17149.00
824.5690, 17366.00
825.7070, 17281.00
826.8460, 17539.00
827.9840, 17483.00
829.1220, 17466.00
830.2590, 17535.00
831.3970, 17709.00
832.5340, 17878.00
833.6710, 17807.00
834.8080, 17844.00
835.9450, 18194.00
837.0820, 18025.00
838.2190, 18142.00
839.3550, 18084.00
840.4910, 18053.00
841.6270, 18159.00
842.7630, 17972.00
843.8990, 18077.00
845.0350, 17787.00
846.1700, 17987.00
847.3060, 18106.00
848.4410, 17994.00
849.5760, 18010.00
850.7100, 18075.00
851.8450, 17923.00
852.9800, 18219.00
854.1140, 18404.00
855.2480, 18364.00
856.3820, 18417.00
857.5160, 18529.00
858.6500, 18722.00
859.7830, 18516.00
860.9170, 18829.00
862.0500, 18781.00
863.1830, 18719.00
864.3160, 18864.00
865.4480, 18719.00
866.5810, 18578.00
867.7130, 18775.00
868.8460, 18765.00
869.9780, 18894.00
871.1100, 18631.00
872.2410, 18585.00
873.3730, 18782.00
874.5050, 18772.00
875.6360, 18815.00
876.7670, 18741.00
877.8980, 18690.00
879.0290, 18708.00
880.1590, 18582.00
881.2900, 18655.00
882.4200, 18571.13
883.5500, 18416.00
884.6800, 18465.00
885.8100, 18339.00
886.9400, 18279.00
888.0690, 18167.00
889.1990, 18139.47
890.3280, 18156.00
891.4570, 18139.00
892.5860, 18128.00
893.7140, 18216.00
894.8430, 17958.00
895.9710, 18103.00
897.1000, 18097.00
898.2280, 17880.00
899.3560, 17948.00
900.4830, 17891.41
901.6110, 17911.38
902.7380, 17961.00
903.8660, 17892.00
904.9930, 18075.00
906.1200, 17765.00
907.2460, 17888.00
908.3730, 18021.00
909.5000, 17757.00
910.6260, 17984.00
911.7520, 17919.00
912.8780, 18100.00
914.0040, 18088.00
915.1290, 18130.00
916.2550, 18085.00
917.3800, 18183.00
918.5050, 18124.00
919.6300, 18285.00
920.7550, 18134.00
921.8800, 18378.00
923.0040, 18379.00
924.1290, 18726.00
925.2530, 18646.00
926.3770, 18867.00
927.5010, 18943.00
928.6250, 19190.00
929.7480, 19387.00
930.8720, 19413.00
931.9950, 19672.00
933.1180, 19861.00
934.2410, 19910.00
935.3640, 20029.00
936.4860, 20282.00
937.6090, 20391.00
938.7310, 20515.00
939.8530, 20680.00
940.9750, 20850.00
942.0970, 20951.86
943.2180, 20917.00
944.3400, 21107.00
945.4610, 21213.00
946.5820, 21154.00
947.7030, 21305.00
948.8240, 21342.00
949.9450, 21503.00
951.0650, 21307.00
952.1860, 21366.00
953.3060, 21363.00
954.4260, 21507.00
955.5460, 21634.00
956.6650, 21643.00
957.7850, 21537.00
958.9040, 21635.00
960.0230, 21823.00
961.1420, 21628.00
962.2610, 21633.00
963.3800, 21812.00
964.4990, 21780.00
965.6170, 21966.00
966.7350, 21973.00
967.8530, 22113.00
968.9710, 22234.00
970.0890, 22428.00
971.2070, 22432.71
972.3240, 22229.00
973.4410, 22476.00
974.5580, 22491.00
975.6750, 22560.00
976.7920, 22743.00
977.9090, 22661.00
979.0250, 22746.00
980.1410, 22499.00
981.2580, 22593.00
982.3740, 22562.00
983.4890, 22528.00
984.6050, 22557.00
985.7200, 22503.00
986.8360, 22420.30
987.9510, 22440.00
989.0660, 22258.00
990.1810, 22216.00
991.2950, 22249.00
992.4100, 22260.00
993.5240, 22262.64
994.6390, 22416.00
995.7530, 22259.00
996.8660, 22378.00
997.9800, 22310.00
999.0940, 22619.00
1000.207, 22862.00
1001.320, 23035.00
1002.433, 23061.00
1003.546, 22849.00
1004.659, 22704.00
1005.772, 22823.00
1006.884, 22596.00
1007.996, 22886.00
1009.108, 22945.00
1010.220, 23087.00
1011.332, 23220.00
1012.444, 23444.00
1013.555, 23676.41
1014.666, 23988.00
1015.777, 24302.00
1016.888, 24557.00
1017.999, 25027.00
1019.110, 25210.00
1020.220, 25678.00
1021.331, 25764.00
1022.441, 26118.00
1023.551, 26404.00
1024.661, 26236.00
1025.770, 26716.00
1026.880, 27202.00
1027.989, 26845.00
1029.098, 26904.00
1030.207, 27486.00
1031.316, 27183.00
1032.425, 27348.00
1033.533, 27469.00
1034.642, 27742.00
1035.750, 27842.00
1036.858, 28033.00
1037.966, 28603.00
1039.073, 29030.00
1040.181, 29514.00
1041.288, 29789.00
1042.396, 30438.00
1043.503, 30931.00
1044.610, 31656.00
1045.716, 32322.97
1046.823, 33061.59
1047.929, 33813.00
1049.036, 34686.00
1050.142, 35538.57
1051.248, 36424.00
1052.353, 37458.00
1053.459, 38616.00
1054.564, 39826.00
1055.670, 41348.00
1056.775, 42778.04
1057.880, 44459.00
1058.985, 46060.00
1060.089, 47694.00
1061.194, 49554.00
1062.298, 50657.00
1063.402, 51750.00
1064.506, 52798.00
1065.610, 53057.00
1066.713, 53024.00
1067.817, 52574.00
1068.920, 51655.00
1070.023, 50405.00
1071.126, 48658.00
1072.229, 46388.00
1073.332, 44643.00
1074.435, 42224.00
1075.537, 40585.00
1076.639, 38278.00
1077.741, 36698.00
1078.843, 34983.00
1079.945, 33788.00
1081.046, 32229.00
1082.148, 31109.00
1083.249, 29725.00
1084.350, 28938.00
1085.451, 27825.00
1086.551, 27079.87
1087.652, 26452.00
1088.752, 25811.00
1089.853, 25146.00
1090.953, 24627.00
1092.053, 24225.00
1093.152, 24178.00
1094.252, 23581.00
1095.351, 23446.00
1096.451, 23083.00
1097.550, 22878.00
1098.649, 22907.00
1099.748, 22654.00
1100.846, 22567.00
1101.945, 22246.00
1103.043, 22192.00
1104.141, 21951.00
1105.239, 21934.00
1106.337, 22011.00
1107.434, 21735.00
1108.532, 21470.00
1109.629, 21685.00
1110.726, 21499.00
1111.823, 21313.00
1112.920, 21098.00
1114.017, 21172.00
1115.113, 21059.00
1116.210, 21024.00
1117.306, 20846.00
1118.402, 20849.00
1119.498, 20829.00
1120.593, 20703.00
1121.689, 20557.00
1122.784, 20619.00
1123.879, 20493.00
1124.974, 20539.00
1126.069, 20702.00
1127.164, 20611.00
1128.259, 20119.00
1129.353, 20302.00
1130.447, 20218.00
1131.541, 20046.00
1132.635, 20331.00
1133.729, 19901.00
1134.822, 20013.00
1135.916, 20079.00
1137.009, 20131.00
1138.102, 20056.00
1139.195, 19924.00
1140.288, 20011.00
1141.380, 20038.00
1142.473, 19894.00
1143.565, 20007.00
1144.657, 20011.00
1145.749, 19980.00
1146.841, 19832.00
1147.932, 19823.32
1149.024, 19685.00
1150.115, 19676.00
1151.206, 19647.00
1152.297, 19521.00
1153.388, 19472.84
1154.479, 19466.95
1155.569, 19366.00
1156.659, 19490.00
1157.750, 19625.00
1158.839, 19672.00
1159.929, 19589.00
1161.019, 19288.00
1162.108, 19671.00
1163.198, 19460.00
1164.287, 19525.00
1165.376, 19681.00
1166.465, 19643.00
1167.553, 19729.00
1168.642, 19702.00
1169.730, 19701.73
1170.818, 19587.00
1171.906, 19626.00
1172.994, 19698.00
1174.082, 19555.00
1175.170, 19701.00
1176.257, 19544.00
1177.344, 19481.00
1178.431, 19564.00
1179.518, 19624.00
1180.605, 19544.00
1181.691, 19622.00
1182.778, 19530.00
1183.864, 19652.00
1184.950, 19743.00
1186.036, 19710.00
1187.122, 19566.00
1188.207, 19524.00
1189.292, 19642.00
1190.378, 19550.00
1191.463, 19617.00
1192.548, 19719.00
1193.632, 19657.00
1194.717, 19766.77
1195.801, 19700.00
1196.886, 19828.00
1197.970, 19827.00
1199.054, 19719.00
1200.137, 19743.00
1201.221, 19690.00
1202.305, 19718.00
1203.388, 19691.00
1204.471, 19760.00
1205.554, 19776.00
1206.637, 19814.00
1207.719, 19782.00
1208.802, 19936.00
1209.884, 19732.00
1210.966, 19794.00
1212.048, 19927.00
1213.130, 19909.00
1214.212, 19686.00
1215.293, 19997.00
1216.374, 20014.00
1217.456, 19861.00
1218.536, 20165.00
1219.617, 20078.00
1220.698, 19925.00
1221.778, 20129.00
1222.859, 19861.00
1223.939, 19990.00
1225.019, 20058.00
1226.099, 20028.00
1227.178, 19993.00
1228.258, 20222.00
1229.337, 20364.00
1230.417, 20118.00
1231.496, 20433.00
1232.574, 20312.00
1233.653, 20432.00
1234.732, 20400.00
1235.810, 20585.00
1236.888, 20531.00
1237.966, 20418.00
1239.044, 20510.00
1240.122, 20536.00
1241.199, 20480.00
1242.277, 20459.00
1243.354, 20588.00
1244.431, 20560.00
1245.508, 20527.00
1246.585, 20623.00
1247.661, 20523.00
1248.738, 20624.00
1249.814, 20686.00
1250.890, 20600.00
1251.966, 20736.00
1253.042, 20598.00
1254.117, 20616.00
1255.193, 20843.00
1256.268, 20588.00
1257.343, 20783.00
1258.418, 20664.00
1259.493, 20766.00
1260.567, 20773.00
1261.642, 20781.00
1262.716, 21050.00
1263.790, 21150.00
1264.864, 21298.00
1265.938, 21238.00
1267.011, 21226.00
1268.085, 21382.00
1269.158, 21419.00
1270.231, 21179.00
1271.304, 21613.00
1272.377, 21423.00
1273.450, 21629.00
1274.522, 21506.00
1275.594, 21582.00
1276.666, 21578.00
1277.738, 21640.00
1278.810, 21602.00
1279.882, 21557.00
1280.953, 21726.00
1282.025, 21724.00
1283.096, 21535.00
1284.167, 21696.00
1285.238, 21530.00
1286.308, 21617.00
1287.379, 21635.00
1288.449, 21623.00
1289.519, 21655.00
1290.589, 21714.00
1291.659, 21758.00
1292.729, 21730.00
1293.798, 21771.00
1294.868, 21688.00
1295.937, 21701.00
1297.006, 21926.00
1298.075, 21825.00
1299.143, 21601.00
1300.212, 21787.00
1301.280, 21646.00
1302.348, 21687.00
1303.416, 21588.00
1304.484, 21621.92
1305.552, 21806.00
1306.620, 21803.00
1307.687, 21716.00
1308.754, 22004.00
1309.821, 22049.00
1310.888, 22014.00
1311.955, 21981.00
1313.021, 22065.00
1314.088, 22235.00
1315.154, 22367.00
1316.220, 22262.00
1317.286, 22178.00
1318.352, 22257.00
1319.417, 22391.00
1320.483, 22418.00
1321.548, 22078.00
1322.613, 22175.00
1323.678, 22023.00
1324.743, 21949.00
1325.807, 22158.00
1326.872, 22023.00
1327.936, 22049.00
1329.000, 22182.00
1330.064, 22171.00
1331.128, 22056.00
1332.191, 21880.00
1333.255, 22086.00
1334.318, 22008.00
1335.381, 21831.00
1336.444, 21949.00
1337.507, 21889.00
1338.569, 21881.00
1339.632, 21818.00
1340.694, 21981.00
1341.756, 21898.00
1342.818, 21727.00
1343.880, 21828.00
1344.941, 21995.00
1346.003, 21648.00
1347.064, 21973.00
1348.125, 21895.00
1349.186, 22064.00
1350.247, 22002.00
1351.308, 22269.00
1352.368, 22024.00
1353.428, 22085.00
1354.489, 21983.00
1355.549, 22074.00
1356.608, 22052.00
1357.668, 22030.00
1358.727, 22097.00
1359.787, 22312.00
1360.846, 22154.00
1361.905, 22227.00
1362.964, 22279.00
1364.022, 22227.00
1365.081, 22252.00
1366.139, 22235.00
1367.197, 22258.00
1368.255, 22321.00
1369.313, 22301.00
1370.371, 22269.00
1371.428, 22401.00
1372.486, 22514.00
1373.543, 22559.00
1374.600, 22508.00
1375.657, 22627.00
1376.713, 22628.00
1377.770, 22716.00
1378.826, 22964.00
1379.882, 22997.00
1380.938, 22977.00
1381.994, 23062.00
1383.050, 23304.00
1384.106, 23207.00
1385.161, 23433.00
1386.216, 23405.00
1387.271, 23452.82
1388.326, 23752.00
1389.381, 23606.00
1390.435, 23766.00
1391.490, 24014.00
1392.544, 24134.00
1393.598, 24271.00
1394.652, 24182.00
1395.705, 24243.00
1396.759, 24388.00
1397.812, 24358.00
1398.866, 24600.00
1399.919, 24396.00
1400.972, 24430.00
1402.024, 24494.00
1403.077, 24395.00
1404.129, 24331.00
1405.181, 24280.00
1406.233, 24404.00
1407.285, 24351.00
1408.337, 24313.00
1409.389, 23959.00
1410.440, 24206.00
1411.491, 23647.00
1412.542, 23732.00
1413.593, 23495.00
1414.644, 23610.00
1415.695, 23488.00
1416.745, 23348.00
1417.795, 23270.00
1418.845, 23108.00
1419.895, 23147.00
1420.945, 23043.00
1421.995, 22864.00
1423.044, 23064.00
1424.093, 23006.00
1425.142, 22657.00
1426.191, 22941.00
1427.240, 22765.00
1428.289, 22938.00
1429.337, 23270.00
1430.385, 23157.00
1431.433, 23211.00
1432.481, 23509.00
1433.529, 23506.00
1434.577, 23694.00
1435.624, 23907.00
1436.672, 24025.00
1437.719, 24188.00
1438.766, 24067.00
1439.812, 24294.00
1440.859, 24229.00
1441.905, 24386.00
1442.952, 24420.00
1443.998, 24404.00
1445.044, 24353.00
1446.090, 24377.00
1447.135, 24318.00
1448.181, 24412.00
1449.226, 24585.00
1450.271, 24608.00
1451.316, 24693.00
1452.361, 24977.00
1453.405, 24895.00
1454.450, 24729.00
1455.494, 25055.00
1456.538, 24959.00
1457.582, 25030.00
1458.626, 24933.00
1459.670, 24734.00
1460.713, 24879.00
1461.757, 24442.00
1462.800, 24461.00
1463.843, 24492.00
1464.886, 24241.00
1465.928, 24043.00
1466.971, 23766.00
1468.013, 23676.00
1469.055, 23498.00
1470.097, 23397.00
1471.139, 23271.00
1472.181, 23143.00
1473.222, 23079.00
1474.263, 23163.00
1475.305, 23130.00
1476.346, 22911.00
1477.386, 23035.00
1478.427, 22808.00
1479.468, 23023.00
1480.508, 22939.00
1481.548, 22832.00
1482.588, 22691.00
1483.628, 22691.00
1484.668, 22602.58
1485.707, 22573.12
1486.747, 22591.00
1487.786, 22555.00
1488.825, 22700.00
1489.864, 22747.00
1490.902, 22759.00
1491.941, 22588.00
1492.979, 22574.00
1494.017, 22594.00
1495.055, 22673.00
1496.093, 22637.11
1497.131, 22518.00
1498.168, 22592.00
1499.206, 22668.00
1500.243, 22598.00
1501.280, 22777.00
1502.317, 22922.00
1503.354, 22749.00
1504.390, 22759.00
1505.426, 23001.00
1506.463, 22868.00
1507.499, 22829.00
1508.535, 22870.00
1509.570, 22674.00
1510.606, 22930.00
1511.641, 22829.00
1512.676, 22982.00
1513.711, 22909.00
1514.746, 22948.00
1515.781, 22992.57
1516.816, 22765.00
1517.850, 23038.00
1518.884, 22928.00
1519.918, 22927.00
1520.952, 23016.00
1521.986, 22945.00
1523.019, 23059.00
1524.053, 23111.00
1525.086, 22931.00
1526.119, 23068.00
1527.152, 23124.00
1528.185, 23210.00
1529.217, 23095.00
1530.250, 23032.00
1531.282, 23165.00
1532.314, 23029.00
1533.346, 23066.00
1534.377, 23174.00
1535.409, 22906.00
1536.440, 23231.00
1537.472, 22947.00
1538.503, 23068.00
1539.534, 23084.00
1540.564, 23133.00
1541.595, 22961.00
1542.625, 23221.00
1543.656, 23102.00
1544.686, 23346.00
1545.716, 22992.00
1546.745, 23003.00
1547.775, 22874.00
1548.804, 23092.00
1549.834, 23178.00
1550.863, 23097.00
1551.892, 22940.00
1552.920, 23258.00
1553.949, 22861.00
1554.977, 23018.00
1556.006, 23067.00
1557.034, 23018.00
1558.062, 22932.00
1559.089, 23001.00
1560.117, 23053.00
1561.144, 23086.00
1562.172, 23137.13
1563.199, 22901.00
1564.226, 23147.00
1565.252, 23056.00
1566.279, 22907.00
1567.305, 23145.00
1568.332, 23276.00
1569.358, 23249.00
1570.384, 23305.00
##END=



