##NAMES=Elbaite
##RRUFFID=R060631
##IDEAL CHEMISTRY=Na(Al_1.5_Li_1.5_)Al_6_(Si_6_O_18_)(BO_3_)_3_(OH)_3_OH
##LOCALITY=unknown
##OWNER=RRUFF
##SOURCE=Gemological Institute of America
##DESCRIPTION=Pink polished fragment
##STATUS=The identification of this mineral is confirmed by single-crystal X-ray diffraction and chemical analysis.
##URL=rruff.info/R060631
##MEASURED CHEMISTRY=(Na_0.55_Ca_0.34_[box]_0.11_)(Li_1.53_Al_1.30_Mn_0.14_Fe^2+^_0.03_)Al_6.00_(BO_3_)_3_[Si_6.00_O_18_]((OH)_0.82_F_0.18_)_4_
##PIN_ID=L01625
##ORIENTATION=Laser parallel to a* (1 0 0). Fiducial mark perpendicular to laser is parallel to c [0 0 1]
113.2080, 6993.000
114.4400, 7304.000
115.6710, 7246.000
116.9030, 7367.809
118.1340, 7598.000
119.3650, 7424.000
120.5960, 7668.000
121.8270, 7856.000
123.0580, 7957.000
124.2880, 7876.000
125.5190, 8064.000
126.7490, 8000.000
127.9790, 8216.000
129.2090, 8324.000
130.4390, 8404.000
131.6680, 8488.000
132.8980, 8565.000
134.1270, 8609.000
135.3560, 8727.318
136.5850, 8797.523
137.8140, 8901.000
139.0430, 8940.000
140.2710, 8926.000
141.5000, 8908.000
142.7280, 9004.000
143.9560, 9398.000
145.1840, 9452.000
146.4120, 9579.000
147.6390, 9990.000
148.8670, 10079.00
150.0940, 10211.00
151.3210, 10342.00
152.5490, 10230.00
153.7750, 10363.00
155.0020, 10017.00
156.2290, 10028.00
157.4550, 9750.000
158.6810, 9640.000
159.9080, 9520.000
161.1340, 9509.000
162.3590, 9415.000
163.5850, 9410.000
164.8110, 9403.000
166.0360, 9336.000
167.2610, 9287.000
168.4860, 9265.000
169.7110, 9450.000
170.9360, 9458.000
172.1610, 9513.000
173.3850, 9535.000
174.6100, 9515.000
175.8340, 9667.000
177.0580, 9800.000
178.2820, 9933.000
179.5050, 9951.000
180.7290, 9899.000
181.9520, 10030.00
183.1760, 10290.00
184.3990, 10526.00
185.6220, 10861.00
186.8450, 11071.00
188.0670, 11431.00
189.2900, 11685.00
190.5120, 12346.00
191.7340, 12823.00
192.9560, 13239.00
194.1780, 14044.00
195.4000, 14449.00
196.6220, 14947.00
197.8430, 15765.00
199.0640, 16575.00
200.2860, 17333.00
201.5070, 18084.00
202.7270, 18726.00
203.9480, 19580.00
205.1690, 20399.00
206.3890, 21624.00
207.6090, 23059.00
208.8290, 24645.00
210.0490, 26631.00
211.2690, 28963.00
212.4890, 31131.00
213.7080, 33880.00
214.9280, 36202.00
216.1470, 39252.00
217.3660, 41386.00
218.5850, 43559.00
219.8030, 44610.00
221.0220, 45503.00
222.2400, 44713.00
223.4590, 43659.00
224.6770, 42371.00
225.8950, 40361.00
227.1120, 38761.00
228.3300, 36883.00
229.5480, 35521.00
230.7650, 34156.00
231.9820, 33643.00
233.1990, 32856.00
234.4160, 32854.00
235.6330, 32599.00
236.8490, 32599.00
238.0660, 32815.00
239.2820, 32871.00
240.4980, 32771.00
241.7140, 32485.00
242.9300, 32234.00
244.1460, 31887.00
245.3610, 31337.00
246.5770, 30548.00
247.7920, 29507.00
249.0070, 28634.00
250.2220, 27604.00
251.4370, 26679.00
252.6510, 25604.00
253.8660, 24789.00
255.0800, 23970.00
256.2940, 23865.00
257.5080, 23277.00
258.7220, 22859.00
259.9360, 21862.00
261.1490, 21606.00
262.3630, 21191.00
263.5760, 21068.00
264.7890, 20748.00
266.0020, 20607.00
267.2150, 20319.00
268.4270, 20093.00
269.6400, 19696.00
270.8520, 19553.00
272.0640, 18929.00
273.2760, 18765.00
274.4880, 18275.00
275.7000, 17876.00
276.9120, 17408.00
278.1230, 17028.00
279.3340, 16522.00
280.5450, 16043.00
281.7560, 15499.00
282.9670, 15147.00
284.1780, 14864.00
285.3880, 14408.68
286.5980, 14024.00
287.8090, 13645.00
289.0190, 13262.00
290.2290, 13011.88
291.4380, 12760.00
292.6480, 12605.00
293.8570, 12563.00
295.0670, 12504.00
296.2760, 12458.00
297.4850, 12389.00
298.6930, 12524.00
299.9020, 12618.00
301.1110, 12902.00
302.3190, 13118.00
303.5270, 13326.00
304.7350, 13724.00
305.9430, 14066.00
307.1510, 14407.00
308.3580, 14838.00
309.5660, 15250.00
310.7730, 15499.00
311.9800, 15884.00
313.1870, 16167.00
314.3940, 16242.00
315.6010, 16257.00
316.8070, 16221.00
318.0130, 16091.00
319.2200, 16087.00
320.4260, 16012.00
321.6310, 16191.00
322.8370, 16225.00
324.0430, 16424.00
325.2480, 16419.00
326.4540, 16655.00
327.6590, 16558.00
328.8640, 16526.00
330.0680, 16482.00
331.2730, 16552.75
332.4780, 16727.00
333.6820, 16710.00
334.8860, 16872.00
336.0900, 16860.00
337.2940, 16987.00
338.4980, 17150.00
339.7010, 17330.00
340.9050, 17581.00
342.1080, 17690.00
343.3110, 17928.00
344.5140, 18216.99
345.7170, 18553.00
346.9200, 18859.00
348.1220, 19197.00
349.3240, 19558.00
350.5270, 20097.00
351.7290, 20634.00
352.9310, 21394.00
354.1320, 22180.00
355.3340, 23296.00
356.5350, 24582.00
357.7370, 26052.00
358.9380, 28192.00
360.1390, 30282.00
361.3400, 33538.00
362.5400, 36764.00
363.7410, 40774.00
364.9410, 45129.00
366.1410, 49808.00
367.3410, 54932.00
368.5410, 59609.00
369.7410, 63538.00
370.9400, 65535.00
372.1400, 65535.00
373.3390, 65535.00
374.5380, 63986.00
375.7370, 60471.00
376.9360, 56505.00
378.1350, 52213.00
379.3330, 47452.00
380.5310, 43645.00
381.7300, 39963.00
382.9280, 37018.00
384.1260, 34695.00
385.3230, 32456.00
386.5210, 31084.00
387.7180, 29510.00
388.9160, 28918.00
390.1130, 28509.00
391.3100, 28059.00
392.5060, 27891.00
393.7030, 27864.00
394.9000, 28151.00
396.0960, 28892.00
397.2920, 29444.00
398.4880, 30014.00
399.6840, 30676.00
400.8800, 30945.00
402.0750, 31379.00
403.2710, 31633.00
404.4660, 31803.00
405.6610, 31522.00
406.8560, 31290.00
408.0510, 30427.00
409.2450, 28981.00
410.4400, 28000.00
411.6340, 26541.00
412.8280, 25214.00
414.0220, 23577.00
415.2160, 22172.00
416.4100, 20880.00
417.6030, 19616.00
418.7970, 18463.00
419.9900, 17362.00
421.1830, 16645.00
422.3760, 15920.00
423.5690, 15476.00
424.7610, 14917.00
425.9540, 14401.00
427.1460, 14256.00
428.3380, 13864.00
429.5300, 13632.00
430.7220, 13345.00
431.9140, 13161.00
433.1050, 13014.00
434.2970, 12839.00
435.4880, 12887.00
436.6790, 12652.00
437.8700, 12698.00
439.0610, 12534.00
440.2510, 12389.00
441.4420, 12552.00
442.6320, 12506.00
443.8220, 12309.00
445.0120, 12405.00
446.2020, 12408.00
447.3910, 12372.00
448.5810, 12385.00
449.7700, 12367.03
450.9600, 12255.00
452.1490, 12302.00
453.3370, 12227.00
454.5260, 12095.00
455.7150, 12242.00
456.9030, 12092.00
458.0910, 12244.00
459.2800, 12297.00
460.4670, 12250.00
461.6550, 12347.00
462.8430, 12209.00
464.0300, 12359.00
465.2180, 12177.00
466.4050, 12254.00
467.5920, 12164.00
468.7790, 12237.00
469.9650, 12047.00
471.1520, 11909.00
472.3380, 12105.00
473.5250, 11978.00
474.7110, 12107.00
475.8970, 12189.00
477.0820, 12143.00
478.2680, 12235.00
479.4540, 12366.00
480.6390, 12427.48
481.8240, 12563.00
483.0090, 12632.00
484.1940, 13015.00
485.3780, 13072.00
486.5630, 13266.00
487.7470, 13574.00
488.9320, 13538.00
490.1160, 13807.72
491.3000, 14210.00
492.4830, 14212.00
493.6670, 14626.00
494.8500, 14962.00
496.0340, 15067.00
497.2170, 15457.00
498.4000, 15687.00
499.5820, 16056.00
500.7650, 16294.00
501.9480, 16713.00
503.1300, 16866.00
504.3120, 17339.00
505.4940, 17405.00
506.6760, 17569.00
507.8580, 17891.00
509.0390, 18044.00
510.2210, 18196.00
511.4020, 18218.00
512.5830, 18248.00
513.7640, 18001.00
514.9450, 17821.00
516.1250, 17649.00
517.3060, 17454.00
518.4860, 17013.00
519.6660, 16563.00
520.8460, 16278.00
522.0260, 16087.00
523.2060, 15675.00
524.3850, 15453.00
525.5650, 15442.00
526.7440, 15400.00
527.9230, 15202.76
529.1020, 15161.51
530.2810, 14960.00
531.4590, 14960.00
532.6380, 15026.00
533.8160, 14975.00
534.9940, 14975.00
536.1720, 14878.00
537.3500, 14801.00
538.5270, 14659.00
539.7050, 14560.00
540.8820, 14409.00
542.0590, 14221.00
543.2360, 14214.00
544.4130, 13956.00
545.5900, 13712.00
546.7660, 13647.00
547.9430, 13470.00
549.1190, 13469.00
550.2950, 13353.00
551.4710, 13213.00
552.6470, 13071.00
553.8220, 12970.00
554.9980, 12891.30
556.1730, 12999.00
557.3480, 12805.00
558.5230, 12729.00
559.6980, 12740.00
560.8730, 12590.00
562.0470, 12425.00
563.2220, 12365.00
564.3960, 12389.00
565.5700, 12240.00
566.7440, 12381.00
567.9170, 12357.00
569.0910, 12155.00
570.2640, 12403.00
571.4380, 12248.00
572.6110, 12254.00
573.7840, 12394.00
574.9570, 12478.00
576.1290, 12436.00
577.3020, 12415.00
578.4740, 12347.00
579.6460, 12595.00
580.8180, 12626.00
581.9900, 12763.00
583.1620, 12660.00
584.3330, 12820.00
585.5040, 12864.00
586.6760, 12736.00
587.8470, 12713.00
589.0180, 12757.00
590.1880, 12689.00
591.3590, 12738.00
592.5290, 12729.00
593.7000, 12756.00
594.8700, 12746.00
596.0400, 12731.00
597.2090, 12612.00
598.3790, 12588.00
599.5490, 12603.00
600.7180, 12628.00
601.8870, 12544.00
603.0560, 12579.91
604.2250, 12572.88
605.3940, 12600.00
606.5620, 12603.00
607.7300, 12655.00
608.8990, 12692.00
610.0670, 12648.00
611.2350, 12797.00
612.4020, 12740.00
613.5700, 13006.00
614.7370, 12990.00
615.9050, 13168.00
617.0720, 13277.00
618.2390, 13462.00
619.4060, 13688.00
620.5720, 14045.05
621.7390, 14448.83
622.9050, 14948.00
624.0710, 15520.00
625.2370, 16122.00
626.4030, 16869.00
627.5690, 17829.00
628.7340, 18733.00
629.9000, 19561.00
631.0650, 20582.00
632.2300, 21193.00
633.3950, 21879.00
634.5600, 22326.00
635.7240, 22421.00
636.8890, 22558.00
638.0530, 22238.00
639.2170, 21792.00
640.3810, 21364.00
641.5450, 20909.32
642.7080, 20299.00
643.8720, 19894.00
645.0350, 19373.98
646.1980, 18793.00
647.3610, 18467.00
648.5240, 18142.00
649.6870, 17752.00
650.8490, 17491.00
652.0120, 17233.00
653.1740, 16887.00
654.3360, 16518.00
655.4980, 16279.00
656.6600, 16002.00
657.8210, 15731.00
658.9830, 15306.00
660.1440, 15122.00
661.3050, 14792.00
662.4660, 14463.00
663.6270, 14413.00
664.7870, 14026.00
665.9480, 13729.00
667.1080, 13612.00
668.2680, 13526.00
669.4280, 13601.00
670.5880, 13213.00
671.7480, 13159.00
672.9070, 13151.00
674.0670, 12981.00
675.2260, 13051.00
676.3850, 13059.00
677.5440, 12987.00
678.7030, 12829.00
679.8610, 13037.00
681.0200, 13031.00
682.1780, 13193.00
683.3360, 13342.00
684.4940, 13609.48
685.6520, 13820.00
686.8090, 14356.00
687.9670, 14832.00
689.1240, 15394.00
690.2810, 16163.00
691.4380, 16857.00
692.5950, 17788.00
693.7520, 19018.00
694.9080, 20112.00
696.0650, 21749.00
697.2210, 23501.00
698.3770, 25232.00
699.5330, 27298.00
700.6880, 29222.00
701.8440, 31195.00
702.9990, 32423.00
704.1550, 34111.00
705.3100, 35203.00
706.4650, 35851.00
707.6190, 35693.00
708.7740, 35022.00
709.9290, 34149.00
711.0830, 32427.00
712.2370, 30564.00
713.3910, 28613.00
714.5450, 26600.00
715.6980, 24908.00
716.8520, 23122.00
718.0050, 21469.00
719.1580, 20209.00
720.3110, 19219.00
721.4640, 18136.00
722.6170, 17426.40
723.7700, 16932.00
724.9220, 16346.00
726.0740, 16140.00
727.2260, 15970.00
728.3780, 15775.00
729.5300, 15901.00
730.6810, 16099.00
731.8330, 15968.00
732.9840, 16129.00
734.1350, 16313.00
735.2860, 16547.74
736.4370, 16961.00
737.5880, 17278.00
738.7380, 17755.00
739.8880, 18196.00
741.0390, 18504.00
742.1890, 19020.00
743.3380, 19270.00
744.4880, 19738.00
745.6380, 19884.00
746.7870, 19804.00
747.9360, 20012.00
749.0850, 19690.00
750.2340, 19490.00
751.3830, 19269.00
752.5310, 18578.00
753.6800, 17996.00
754.8280, 17348.00
755.9760, 16773.00
757.1240, 16245.00
758.2720, 15728.08
759.4190, 15234.00
760.5670, 14824.00
761.7140, 14432.00
762.8610, 14054.00
764.0080, 13786.00
765.1550, 13648.00
766.3020, 13415.00
767.4480, 13016.00
768.5950, 13062.00
769.7410, 12693.00
770.8870, 12817.00
772.0330, 12662.00
773.1780, 12548.00
774.3240, 12450.00
775.4690, 12318.00
776.6140, 11978.00
777.7590, 11939.00
778.9040, 11705.00
780.0490, 11411.00
781.1940, 11241.00
782.3380, 11004.00
783.4820, 10918.00
784.6260, 10767.00
785.7700, 10654.00
786.9140, 10498.00
788.0580, 10525.00
789.2010, 10398.00
790.3450, 10445.00
791.4880, 10284.00
792.6310, 10250.00
793.7730, 10080.00
794.9160, 10067.00
796.0590, 9902.000
797.2010, 9892.000
798.3430, 9807.000
799.4850, 9778.000
800.6270, 9699.000
801.7690, 9641.247
802.9100, 9547.000
804.0520, 9533.000
805.1930, 9504.000
806.3340, 9483.000
807.4750, 9478.000
808.6160, 9322.000
809.7560, 9465.000
810.8970, 9432.000
812.0370, 9679.000
813.1770, 9798.000
814.3170, 9411.000
815.4570, 9529.000
816.5960, 9340.000
817.7360, 9529.000
818.8750, 9359.000
820.0140, 9483.000
821.1530, 9426.000
822.2920, 9446.000
823.4310, 9610.000
824.5690, 9561.000
825.7070, 9554.000
826.8460, 9716.000
827.9840, 9757.000
829.1220, 9751.000
830.2590, 9825.002
831.3970, 9823.000
832.5340, 9859.000
833.6710, 9818.000
834.8080, 9815.000
835.9450, 9893.000
837.0820, 9762.000
838.2190, 9955.000
839.3550, 9806.000
840.4910, 9954.000
841.6270, 9870.000
842.7630, 9811.000
843.8990, 9801.000
845.0350, 9858.000
846.1700, 9879.000
847.3060, 9852.000
848.4410, 9854.000
849.5760, 9902.000
850.7100, 9900.000
851.8450, 9840.000
852.9800, 10044.00
854.1140, 9923.000
855.2480, 10023.00
856.3820, 10167.00
857.5160, 10030.00
858.6500, 10173.00
859.7830, 10247.00
860.9170, 10240.00
862.0500, 10258.00
863.1830, 10190.00
864.3160, 10262.00
865.4480, 10483.00
866.5810, 10467.00
867.7130, 10347.00
868.8460, 10549.00
869.9780, 10394.00
871.1100, 10572.00
872.2410, 10424.00
873.3730, 10466.00
874.5050, 10512.00
875.6360, 10467.00
876.7670, 10524.00
877.8980, 10456.00
879.0290, 10470.00
880.1590, 10423.00
881.2900, 10351.00
882.4200, 10321.00
883.5500, 10351.00
884.6800, 10231.00
885.8100, 10128.00
886.9400, 10154.00
888.0690, 10197.00
889.1990, 10181.00
890.3280, 10202.65
891.4570, 10194.74
892.5860, 10186.00
893.7140, 10164.00
894.8430, 10106.00
895.9710, 10075.00
897.1000, 10088.00
898.2280, 10027.00
899.3560, 10120.00
900.4830, 10138.00
901.6110, 9988.000
902.7380, 9955.000
903.8660, 10081.00
904.9930, 10051.00
906.1200, 9896.000
907.2460, 10035.00
908.3730, 10042.00
909.5000, 9992.000
910.6260, 10095.00
911.7520, 10058.00
912.8780, 10103.00
914.0040, 10044.00
915.1290, 10178.00
916.2550, 10195.00
917.3800, 10319.00
918.5050, 10358.00
919.6300, 10295.00
920.7550, 10379.00
921.8800, 10422.23
923.0040, 10487.00
924.1290, 10562.00
925.2530, 10650.00
926.3770, 10690.00
927.5010, 10779.00
928.6250, 10923.00
929.7480, 10904.00
930.8720, 11008.00
931.9950, 11055.00
933.1180, 11041.00
934.2410, 11280.00
935.3640, 11493.00
936.4860, 11270.00
937.6090, 11422.00
938.7310, 11650.00
939.8530, 11576.00
940.9750, 11770.00
942.0970, 11971.00
943.2180, 12038.00
944.3400, 12113.00
945.4610, 12386.00
946.5820, 12249.00
947.7030, 12432.00
948.8240, 12707.00
949.9450, 12755.00
951.0650, 12959.00
952.1860, 13228.00
953.3060, 13220.00
954.4260, 13439.00
955.5460, 13792.00
956.6650, 13992.00
957.7850, 14080.00
958.9040, 14133.00
960.0230, 14515.00
961.1420, 14642.00
962.2610, 14915.00
963.3800, 15129.60
964.4990, 15282.72
965.6170, 15463.00
966.7350, 15578.00
967.8530, 15618.00
968.9710, 15680.70
970.0890, 15756.60
971.2070, 15878.00
972.3240, 15841.00
973.4410, 15982.00
974.5580, 15938.00
975.6750, 15844.00
976.7920, 15904.00
977.9090, 15899.00
979.0250, 15707.00
980.1410, 15843.00
981.2580, 15711.00
982.3740, 15804.00
983.4890, 15595.00
984.6050, 15733.00
985.7200, 15680.00
986.8360, 15603.00
987.9510, 15708.00
989.0660, 15651.00
990.1810, 15775.00
991.2950, 15726.00
992.4100, 15575.00
993.5240, 15670.00
994.6390, 15756.00
995.7530, 15620.00
996.8660, 15661.00
997.9800, 15627.00
999.0940, 15823.00
1000.207, 15766.00
1001.320, 15746.00
1002.433, 15734.00
1003.546, 15681.00
1004.659, 15679.67
1005.772, 15598.00
1006.884, 15648.00
1007.996, 15626.00
1009.108, 15595.00
1010.220, 15675.00
1011.332, 15695.00
1012.444, 15834.00
1013.555, 15754.00
1014.666, 15932.00
1015.777, 15969.00
1016.888, 15895.00
1017.999, 15959.00
1019.110, 16197.00
1020.220, 15984.00
1021.331, 15976.00
1022.441, 16162.00
1023.551, 15876.00
1024.661, 15957.00
1025.770, 16036.00
1026.880, 15889.74
1027.989, 15971.00
1029.098, 15790.00
1030.207, 15958.00
1031.316, 15942.00
1032.425, 15937.00
1033.533, 16094.00
1034.642, 16098.00
1035.750, 16114.00
1036.858, 16499.00
1037.966, 16544.00
1039.073, 16765.00
1040.181, 16993.00
1041.288, 17258.00
1042.396, 17428.00
1043.503, 17771.00
1044.610, 18089.00
1045.716, 18456.59
1046.823, 18861.00
1047.929, 19281.00
1049.036, 19753.00
1050.142, 20140.00
1051.248, 20468.00
1052.353, 21044.00
1053.459, 21126.00
1054.564, 21769.00
1055.670, 21696.00
1056.775, 22072.00
1057.880, 22363.00
1058.985, 22401.00
1060.089, 22578.00
1061.194, 22421.00
1062.298, 22433.00
1063.402, 22335.00
1064.506, 22365.00
1065.610, 22491.00
1066.713, 22320.00
1067.817, 22063.00
1068.920, 22232.00
1070.023, 22037.00
1071.126, 21881.00
1072.229, 22098.00
1073.332, 22092.00
1074.435, 22255.00
1075.537, 22298.00
1076.639, 22453.00
1077.741, 22505.00
1078.843, 22724.00
1079.945, 22815.00
1081.046, 23093.00
1082.148, 22987.00
1083.249, 23500.00
1084.350, 23674.00
1085.451, 23589.00
1086.551, 23520.00
1087.652, 23250.00
1088.752, 23110.00
1089.853, 22963.00
1090.953, 22574.00
1092.053, 22092.00
1093.152, 21735.00
1094.252, 21182.00
1095.351, 20599.00
1096.451, 20163.00
1097.550, 19711.00
1098.649, 19225.23
1099.748, 18799.43
1100.846, 18337.00
1101.945, 17927.00
1103.043, 17507.00
1104.141, 17090.00
1105.239, 16805.00
1106.337, 16339.00
1107.434, 16237.00
1108.532, 15738.00
1109.629, 15468.00
1110.726, 15370.00
1111.823, 14690.00
1112.920, 14766.00
1114.017, 14447.00
1115.113, 14411.00
1116.210, 14172.00
1117.306, 14123.00
1118.402, 13894.00
1119.498, 13762.00
1120.593, 13750.00
1121.689, 13589.00
1122.784, 13395.00
1123.879, 13427.00
1124.974, 13268.00
1126.069, 13047.00
1127.164, 12993.00
1128.259, 12877.00
1129.353, 12900.00
1130.447, 12833.00
1131.541, 12709.14
1132.635, 12535.00
1133.729, 12519.00
1134.822, 12259.00
1135.916, 12300.00
1137.009, 12199.00
1138.102, 12057.00
1139.195, 12182.00
1140.288, 12054.00
1141.380, 12025.00
1142.473, 11893.00
1143.565, 11831.00
1144.657, 11903.00
1145.749, 11769.00
1146.841, 11588.00
1147.932, 11525.00
1149.024, 11666.00
1150.115, 11574.00
1151.206, 11644.00
1152.297, 11587.00
1153.388, 11586.00
1154.479, 11477.00
1155.569, 11435.00
1156.659, 11416.00
1157.750, 11316.00
1158.839, 11368.00
1159.929, 11332.00
1161.019, 11316.00
1162.108, 11334.79
1163.198, 11412.00
1164.287, 11345.00
1165.376, 11352.00
1166.465, 11363.00
1167.553, 11325.00
1168.642, 11296.00
1169.730, 11302.06
1170.818, 11266.00
1171.906, 11317.00
1172.994, 11300.00
1174.082, 11344.00
1175.170, 11356.00
1176.257, 11389.00
1177.344, 11433.00
1178.431, 11341.00
1179.518, 11302.00
1180.605, 11479.00
1181.691, 11377.00
1182.778, 11373.00
1183.864, 11311.00
1184.950, 11329.00
1186.036, 11429.00
1187.122, 11432.00
1188.207, 11328.00
1189.292, 11420.00
1190.378, 11319.00
1191.463, 11445.00
1192.548, 11503.00
1193.632, 11514.00
1194.717, 11542.17
1195.801, 11420.00
1196.886, 11540.00
1197.970, 11449.00
1199.054, 11504.00
1200.137, 11377.00
1201.221, 11569.00
1202.305, 11371.00
1203.388, 11544.00
1204.471, 11455.00
1205.554, 11457.00
1206.637, 11498.00
1207.719, 11580.00
1208.802, 11481.00
1209.884, 11479.00
1210.966, 11548.00
1212.048, 11439.00
1213.130, 11534.00
1214.212, 11575.00
1215.293, 11625.00
1216.374, 11534.00
1217.456, 11673.00
1218.536, 11589.00
1219.617, 11545.00
1220.698, 11799.00
1221.778, 11647.00
1222.859, 11717.00
1223.939, 11564.00
1225.019, 11751.00
1226.099, 11634.00
1227.178, 11692.00
1228.258, 11654.00
1229.337, 11682.00
1230.417, 11642.00
1231.496, 11745.00
1232.574, 11619.00
1233.653, 11753.00
1234.732, 11675.37
1235.810, 11714.75
1236.888, 11568.00
1237.966, 11748.00
1239.044, 11705.00
1240.122, 11633.00
1241.199, 11831.00
1242.277, 11942.00
1243.354, 11758.00
1244.431, 11891.00
1245.508, 11806.00
1246.585, 11886.00
1247.661, 11963.00
1248.738, 11936.00
1249.814, 11891.00
1250.890, 11899.00
1251.966, 11988.00
1253.042, 11903.00
1254.117, 11933.00
1255.193, 11969.00
1256.268, 11930.00
1257.343, 12013.00
1258.418, 12082.00
1259.493, 12101.30
1260.567, 12043.00
1261.642, 12171.00
1262.716, 12052.00
1263.790, 12022.00
1264.864, 12101.00
1265.938, 12054.00
1267.011, 11973.00
1268.085, 12196.00
1269.158, 12106.00
1270.231, 12262.00
1271.304, 12158.00
1272.377, 12210.00
1273.450, 12301.00
1274.522, 12264.00
1275.594, 12250.00
1276.666, 12276.00
1277.738, 12422.00
1278.810, 12150.00
1279.882, 12250.00
1280.953, 12447.00
1282.025, 12286.00
1283.096, 12367.00
1284.167, 12357.00
1285.238, 12475.00
1286.308, 12443.00
1287.379, 12433.00
1288.449, 12551.00
1289.519, 12378.00
1290.589, 12454.00
1291.659, 12347.00
1292.729, 12414.00
1293.798, 12451.00
1294.868, 12547.00
1295.937, 12456.00
1297.006, 12408.00
1298.075, 12537.00
1299.143, 12558.00
1300.212, 12534.00
1301.280, 12590.48
1302.348, 12580.49
1303.416, 12574.00
1304.484, 12561.00
1305.552, 12480.00
1306.620, 12393.00
1307.687, 12397.00
1308.754, 12470.00
1309.821, 12648.00
1310.888, 12518.00
1311.955, 12644.00
1313.021, 12484.00
1314.088, 12754.00
1315.154, 12664.00
1316.220, 12681.00
1317.286, 12709.00
1318.352, 12735.00
1319.417, 12747.38
1320.483, 12746.00
1321.548, 12750.00
1322.613, 12766.00
1323.678, 12716.00
1324.743, 12794.00
1325.807, 12765.00
1326.872, 12777.00
1327.936, 12737.00
1329.000, 12845.00
1330.064, 12880.00
1331.128, 12729.00
1332.191, 12818.00
1333.255, 12737.00
1334.318, 12781.00
1335.381, 12837.00
1336.444, 12760.00
1337.507, 12752.00
1338.569, 12802.00
1339.632, 12935.00
1340.694, 12828.00
1341.756, 12892.00
1342.818, 12788.00
1343.880, 12836.28
1344.941, 12988.00
1346.003, 12961.00
1347.064, 12939.00
1348.125, 13087.00
1349.186, 12907.00
1350.247, 13001.00
1351.308, 12918.00
1352.368, 12934.00
1353.428, 12931.00
1354.489, 12916.00
1355.549, 13090.00
1356.608, 13156.00
1357.668, 13137.00
1358.727, 13110.00
1359.787, 13083.00
1360.846, 13145.00
1361.905, 13148.00
1362.964, 13174.00
1364.022, 13169.00
1365.081, 13087.00
1366.139, 13171.00
1367.197, 13129.00
1368.255, 13176.96
1369.313, 13328.00
1370.371, 13256.00
1371.428, 13348.00
1372.486, 13337.00
1373.543, 13325.00
1374.600, 13449.00
1375.657, 13416.00
1376.713, 13427.00
1377.770, 13436.00
1378.826, 13445.18
1379.882, 13517.00
1380.938, 13491.00
1381.994, 13537.00
1383.050, 13562.00
1384.106, 13668.00
1385.161, 13766.00
1386.216, 13835.00
1387.271, 13891.76
1388.326, 13930.00
1389.381, 13975.00
1390.435, 14061.00
1391.490, 14121.53
1392.544, 14313.00
1393.598, 14249.00
1394.652, 14275.00
1395.705, 14429.00
1396.759, 14343.00
1397.812, 14336.00
1398.866, 14381.00
1399.919, 14318.00
1400.972, 14196.00
1402.024, 14279.00
1403.077, 14112.00
1404.129, 14203.00
1405.181, 14278.00
1406.233, 14197.00
1407.285, 14245.00
1408.337, 14116.00
1409.389, 14066.00
1410.440, 13965.00
1411.491, 14048.00
1412.542, 13870.00
1413.593, 13864.00
1414.644, 14025.00
1415.695, 13903.00
1416.745, 14003.00
1417.795, 13895.00
1418.845, 13828.00
1419.895, 13774.00
1420.945, 13829.00
1421.995, 13894.00
1423.044, 14002.00
1424.093, 13783.00
1425.142, 13840.00
1426.191, 13818.00
1427.240, 13758.00
1428.289, 13758.00
1429.337, 13922.00
1430.385, 13886.00
1431.433, 13753.00
1432.481, 14125.00
1433.529, 13932.00
1434.577, 13937.00
1435.624, 14041.00
1436.672, 13980.00
1437.719, 13972.00
1438.766, 13837.00
1439.812, 13981.00
1440.859, 14020.00
1441.905, 14129.00
1442.952, 13947.00
1443.998, 13968.00
1445.044, 13992.00
1446.090, 14016.00
1447.135, 13984.00
1448.181, 13932.00
1449.226, 13931.00
1450.271, 14012.00
1451.316, 13876.00
1452.361, 14087.00
1453.405, 14030.00
1454.450, 13921.00
1455.494, 14006.00
1456.538, 14176.00
1457.582, 14132.00
1458.626, 13987.00
1459.670, 14189.00
1460.713, 14091.00
1461.757, 14144.00
1462.800, 14157.31
1463.843, 14105.00
1464.886, 14087.00
1465.928, 14012.00
1466.971, 13893.00
1468.013, 13973.00
1469.055, 13815.00
1470.097, 13861.00
1471.139, 13904.00
1472.181, 13762.00
1473.222, 13811.00
1474.263, 13788.00
1475.305, 13868.00
1476.346, 13853.00
1477.386, 13848.00
1478.427, 13846.00
1479.468, 13857.93
1480.508, 13872.00
1481.548, 13861.00
1482.588, 13799.00
1483.628, 13721.00
1484.668, 13884.00
1485.707, 13888.00
1486.747, 13788.00
1487.786, 13859.00
1488.825, 13820.00
1489.864, 13920.00
1490.902, 13831.00
1491.941, 13969.00
1492.979, 13920.00
1494.017, 13827.00
1495.055, 13876.00
1496.093, 14037.00
1497.131, 13946.00
1498.168, 14089.00
1499.206, 14041.00
1500.243, 14041.00
1501.280, 14081.00
1502.317, 14113.00
1503.354, 14102.00
1504.390, 14133.80
1505.426, 14232.00
1506.463, 14123.00
1507.499, 14208.00
1508.535, 14129.00
1509.570, 14309.00
1510.606, 14204.00
1511.641, 14246.00
1512.676, 14190.00
1513.711, 14267.00
1514.746, 14307.00
1515.781, 14277.00
1516.816, 14373.00
1517.850, 14475.00
1518.884, 14423.00
1519.918, 14314.00
1520.952, 14253.00
1521.986, 14401.00
1523.019, 14469.00
1524.053, 14294.00
1525.086, 14497.00
1526.119, 14403.00
1527.152, 14489.00
1528.185, 14402.00
1529.217, 14607.00
1530.250, 14417.00
1531.282, 14359.00
1532.314, 14349.00
1533.346, 14541.00
1534.377, 14507.00
1535.409, 14382.00
1536.440, 14472.00
1537.472, 14400.73
1538.503, 14345.00
1539.534, 14360.00
1540.564, 14396.00
1541.595, 14358.00
1542.625, 14385.00
1543.656, 14366.00
1544.686, 14301.00
1545.716, 14383.00
1546.745, 14327.00
1547.775, 14397.00
1548.804, 14266.00
1549.834, 14316.00
1550.863, 14520.00
1551.892, 14444.00
1552.920, 14603.00
1553.949, 14631.00
1554.977, 14386.00
1556.006, 14512.00
1557.034, 14451.00
1558.062, 14346.00
1559.089, 14429.00
1560.117, 14380.00
1561.144, 14435.00
1562.172, 14426.00
1563.199, 14464.00
1564.226, 14484.00
1565.252, 14473.00
1566.279, 14404.00
1567.305, 14441.00
1568.332, 14285.00
1569.358, 14441.00
1570.384, 14492.00
##END=



