##NAMES=Elbaite
##RRUFFID=R050487
##IDEAL CHEMISTRY=Na(Al_1.5_Li_1.5_)Al_6_(Si_6_O_18_)(BO_3_)_3_(OH)_3_OH
##LOCALITY=White Queen mine, Pala, San Diego County, California, USA
##OWNER=RRUFF
##SOURCE=California Institute of Technology
##DESCRIPTION=Mass of blue acicular crystals
##STATUS=The identification of this mineral has been confirmed by X-ray diffraction and chemical analysis
##URL=rruff.info/R050487
##MEASURED CHEMISTRY=(Na_0.86_[box]_0.13_Ca_0.01_)(Al_0.42_Li_0.38_Fe^2+^_0.18_Mn_0.02_)_3_Al_6_(BO_3_)_3_Si_6_O_18_((OH)_0.85_F_0.15_)_4_
##PIN_ID=M01385
##ORIENTATION=Laser parallel to c* (0 0 1). Fiducial mark perpendicular to laser is parallel to b [0 1 0]
191.3990, 14077.00
192.6230, 13841.00
193.8480, 14065.00
195.0720, 14136.00
196.2960, 14106.00
197.5200, 13997.00
198.7430, 14007.00
199.9670, 14136.00
201.1900, 14141.88
202.4130, 14313.00
203.6360, 14405.00
204.8590, 14618.00
206.0820, 14942.00
207.3050, 15236.00
208.5270, 15670.00
209.7490, 16200.00
210.9710, 16828.00
212.1930, 17299.00
213.4150, 17976.00
214.6370, 18487.00
215.8580, 19039.00
217.0790, 19446.00
218.3010, 19546.00
219.5210, 19953.00
220.7420, 20020.00
221.9630, 20204.00
223.1830, 19823.00
224.4040, 19614.00
225.6240, 19253.00
226.8440, 18409.00
228.0640, 17958.00
229.2840, 17605.00
230.5030, 17036.00
231.7230, 16657.00
232.9420, 16313.00
234.1610, 16039.00
235.3800, 15849.00
236.5990, 15697.00
237.8170, 15527.00
239.0360, 15320.00
240.2540, 15122.00
241.4720, 15045.00
242.6900, 14722.00
243.9080, 14545.00
245.1250, 14613.00
246.3430, 14191.00
247.5600, 13914.00
248.7770, 13800.00
249.9940, 13465.00
251.2110, 13475.00
252.4280, 13216.00
253.6450, 13128.00
254.8610, 12956.00
256.0770, 12860.00
257.2930, 12775.00
258.5090, 12748.83
259.7250, 12643.03
260.9400, 12773.00
262.1560, 12570.00
263.3710, 12564.00
264.5860, 12733.00
265.8010, 12774.00
267.0160, 12823.00
268.2310, 12758.00
269.4450, 12831.56
270.6600, 12854.00
271.8740, 12922.00
273.0880, 12910.00
274.3020, 12985.65
275.5150, 12976.00
276.7290, 12971.00
277.9420, 13009.00
279.1550, 12921.00
280.3680, 12868.00
281.5810, 12937.00
282.7940, 12755.00
284.0070, 12781.00
285.2190, 12696.00
286.4310, 12797.00
287.6430, 12666.00
288.8550, 12709.00
290.0670, 12733.00
291.2790, 12801.00
292.4900, 12700.00
293.7020, 12738.00
294.9130, 12748.00
296.1240, 12595.00
297.3350, 12872.00
298.5450, 12678.00
299.7560, 12790.00
300.9660, 12855.00
302.1760, 12935.00
303.3860, 12930.00
304.5960, 12896.00
305.8060, 13239.00
307.0150, 13143.00
308.2250, 13373.00
309.4340, 13312.00
310.6430, 13398.00
311.8520, 13514.00
313.0610, 13622.00
314.2700, 13813.00
315.4780, 13872.00
316.6860, 14170.00
317.8940, 14362.00
319.1020, 14512.00
320.3100, 14691.00
321.5180, 14990.00
322.7250, 15101.00
323.9330, 15436.00
325.1400, 15660.00
326.3470, 15861.00
327.5540, 16190.00
328.7600, 16244.00
329.9670, 16430.00
331.1730, 16403.00
332.3800, 16588.00
333.5860, 16583.00
334.7920, 16743.00
335.9970, 16775.00
337.2030, 16608.00
338.4080, 16880.00
339.6140, 16632.00
340.8190, 16794.00
342.0240, 16795.00
343.2290, 16947.00
344.4330, 17167.00
345.6380, 17207.00
346.8420, 17653.00
348.0460, 17654.00
349.2500, 18001.00
350.4540, 18046.00
351.6580, 18339.00
352.8610, 18340.00
354.0650, 18621.00
355.2680, 18988.00
356.4710, 18698.00
357.6740, 19145.00
358.8760, 19250.00
360.0790, 19637.00
361.2810, 19958.00
362.4840, 20395.00
363.6860, 21258.00
364.8880, 21872.00
366.0900, 22885.00
367.2910, 23513.00
368.4930, 24136.00
369.6940, 24883.00
370.8950, 25275.00
372.0960, 25693.00
373.2970, 25789.00
374.4980, 25861.00
375.6980, 25494.00
376.8980, 24917.00
378.0990, 24037.00
379.2990, 22983.00
380.4980, 22015.00
381.6980, 21021.00
382.8980, 19982.00
384.0970, 19312.00
385.2960, 18578.00
386.4950, 17858.00
387.6940, 17518.00
388.8930, 17153.00
390.0920, 16914.00
391.2900, 16649.00
392.4880, 16498.44
393.6860, 16235.00
394.8840, 16251.00
396.0820, 16042.00
397.2800, 15838.00
398.4770, 16019.00
399.6750, 15797.00
400.8720, 15981.00
402.0690, 16018.00
403.2660, 16079.00
404.4620, 16069.14
405.6590, 15931.00
406.8550, 15924.00
408.0510, 15820.00
409.2480, 15672.00
410.4430, 15746.00
411.6390, 15520.00
412.8350, 15327.00
414.0300, 15065.00
415.2250, 15003.00
416.4200, 14780.00
417.6150, 14771.00
418.8100, 14606.00
420.0050, 14510.00
421.1990, 14352.00
422.3940, 14282.00
423.5880, 14212.00
424.7820, 14240.00
425.9750, 14108.00
427.1690, 14136.00
428.3630, 14049.00
429.5560, 14008.00
430.7490, 14179.00
431.9420, 14096.00
433.1350, 14027.00
434.3280, 14170.00
435.5200, 14058.00
436.7130, 14110.00
437.9050, 14246.00
439.0970, 14270.00
440.2890, 14237.00
441.4810, 14237.00
442.6720, 14350.00
443.8640, 14370.00
445.0550, 14355.52
446.2460, 14414.00
447.4370, 14325.00
448.6280, 14232.00
449.8180, 14263.00
451.0090, 14205.00
452.1990, 14218.33
453.3890, 14315.00
454.5790, 14287.00
455.7690, 14344.00
456.9590, 14445.00
458.1480, 14471.00
459.3380, 14518.00
460.5270, 14553.52
461.7160, 14535.65
462.9050, 14572.98
464.0940, 14597.34
465.2820, 14565.58
466.4700, 14609.55
467.6590, 14625.20
468.8470, 14641.04
470.0350, 14699.77
471.2220, 14683.53
472.4100, 14744.47
473.5970, 14776.58
474.7850, 14823.99
475.9720, 14842.85
477.1590, 14872.39
478.3460, 14933.33
479.5320, 14979.08
480.7190, 15000.21
481.9050, 15057.03
483.0910, 15187.00
484.2770, 15315.00
485.4630, 15501.00
486.6490, 15392.00
487.8340, 15774.00
489.0200, 15671.00
490.2050, 15946.00
491.3900, 15995.00
492.5750, 16121.00
493.7600, 16296.00
494.9440, 16359.51
496.1290, 16536.00
497.3130, 16532.00
498.4970, 16716.00
499.6810, 16753.00
500.8650, 16824.00
502.0480, 16929.00
503.2320, 16744.00
504.4150, 16506.00
505.5980, 16442.00
506.7810, 16205.00
507.9640, 15905.00
509.1460, 15652.00
510.3290, 15565.00
511.5110, 15310.00
512.6930, 14910.00
513.8750, 14842.00
515.0570, 14727.00
516.2390, 14671.00
517.4210, 14372.00
518.6020, 14142.00
519.7830, 14097.00
520.9640, 14048.00
522.1450, 14120.00
523.3260, 14058.00
524.5060, 14074.53
525.6870, 14099.00
526.8670, 14066.00
528.0470, 14074.00
529.2270, 14051.00
530.4070, 14016.00
531.5870, 14191.00
532.7660, 14176.00
533.9450, 14401.00
535.1240, 14481.00
536.3030, 14365.00
537.4820, 14366.00
538.6610, 14493.00
539.8390, 14519.00
541.0180, 14684.00
542.1960, 14778.00
543.3740, 14729.00
544.5520, 14733.00
545.7290, 14705.00
546.9070, 14874.00
548.0840, 14736.00
549.2620, 14900.00
550.4390, 14757.00
551.6160, 14804.00
552.7920, 14619.00
553.9690, 14650.00
555.1450, 14626.00
556.3220, 14546.00
557.4980, 14520.98
558.6740, 14480.00
559.8490, 14389.00
561.0250, 14226.00
562.2000, 14144.00
563.3760, 14270.00
564.5510, 14062.00
565.7260, 14169.00
566.9010, 14138.00
568.0750, 14324.00
569.2500, 14263.00
570.4240, 14121.00
571.5980, 14105.00
572.7720, 14066.00
573.9460, 14116.00
575.1200, 14184.00
576.2930, 14205.00
577.4670, 14335.00
578.6400, 14391.00
579.8130, 14252.00
580.9860, 14230.00
582.1590, 14346.00
583.3310, 14320.00
584.5040, 14434.00
585.6760, 14395.00
586.8480, 14617.00
588.0200, 14561.00
589.1920, 14627.00
590.3630, 14783.00
591.5350, 14754.00
592.7060, 14856.00
593.8770, 14999.00
595.0480, 15033.00
596.2190, 15123.00
597.3900, 15210.00
598.5600, 15277.00
599.7310, 15320.00
600.9010, 15242.00
602.0710, 15265.00
603.2410, 15249.00
604.4100, 15060.00
605.5800, 15013.00
606.7490, 14790.00
607.9190, 14695.00
609.0880, 14748.00
610.2570, 14509.00
611.4250, 14584.00
612.5940, 14411.00
613.7620, 14535.00
614.9310, 14347.00
616.0990, 14396.00
617.2670, 14230.00
618.4340, 14027.00
619.6020, 14121.00
620.7690, 14084.00
621.9370, 14026.00
623.1040, 14113.00
624.2710, 14029.00
625.4380, 14013.00
626.6040, 14142.00
627.7710, 14292.00
628.9370, 14212.00
630.1030, 14104.00
631.2690, 14398.00
632.4350, 14539.00
633.6010, 14524.00
634.7660, 14654.00
635.9320, 14636.00
637.0970, 14812.00
638.2620, 14616.00
639.4270, 14678.00
640.5920, 14502.00
641.7560, 14497.00
642.9210, 14395.00
644.0850, 14384.00
645.2490, 14305.00
646.4130, 14400.00
647.5770, 14239.00
648.7400, 14467.00
649.9040, 14603.00
651.0670, 14497.00
652.2300, 14415.00
653.3930, 14710.00
654.5560, 14615.00
655.7190, 14716.00
656.8810, 14836.00
658.0440, 14577.00
659.2060, 14933.00
660.3680, 14638.00
661.5300, 14568.00
662.6910, 14788.00
663.8530, 14629.00
665.0140, 14478.00
666.1750, 14335.00
667.3360, 14298.00
668.4970, 14329.00
669.6580, 14131.00
670.8190, 14153.00
671.9790, 13962.00
673.1390, 13873.00
674.2990, 13868.00
675.4590, 13768.00
676.6190, 13809.00
677.7790, 13729.73
678.9380, 13684.99
680.0970, 13640.59
681.2570, 13597.31
682.4160, 13512.10
683.5740, 13516.76
684.7330, 13507.18
685.8920, 13511.94
687.0500, 13573.67
688.2080, 13574.56
689.3660, 13666.71
690.5240, 13744.16
691.6820, 13850.97
692.8390, 13920.00
693.9960, 13889.00
695.1540, 13991.00
696.3110, 14229.00
697.4680, 14199.00
698.6240, 14433.00
699.7810, 14629.00
700.9370, 14662.00
702.0940, 15032.00
703.2500, 15193.00
704.4060, 15439.00
705.5610, 15745.00
706.7170, 15858.00
707.8720, 16307.00
709.0280, 16905.00
710.1830, 17201.00
711.3380, 17898.00
712.4920, 18613.00
713.6470, 19557.00
714.8020, 20542.00
715.9560, 21250.00
717.1100, 22354.00
718.2640, 23239.00
719.4180, 24313.00
720.5720, 25573.00
721.7250, 26216.00
722.8780, 26909.00
724.0320, 27291.00
725.1850, 27359.00
726.3380, 26976.00
727.4900, 26568.00
728.6430, 25867.00
729.7950, 24810.00
730.9470, 24038.00
732.1000, 22895.00
733.2510, 21878.00
734.4030, 20743.00
735.5550, 19964.00
736.7060, 19243.00
737.8570, 18272.00
739.0090, 18152.00
740.1600, 17437.00
741.3100, 17151.00
742.4610, 16920.00
743.6110, 16819.00
744.7620, 16759.00
745.9120, 16851.00
747.0620, 16911.00
748.2120, 16859.00
749.3610, 16851.00
750.5110, 17046.00
751.6600, 16916.00
752.8090, 17013.00
753.9580, 17017.00
755.1070, 17077.00
756.2560, 17084.00
757.4050, 17024.00
758.5530, 16830.00
759.7010, 16870.00
760.8490, 16388.00
761.9970, 16403.00
763.1450, 16363.00
764.2920, 16100.00
765.4400, 16047.00
766.5870, 15790.00
767.7340, 15694.00
768.8810, 15626.00
770.0280, 15449.95
771.1740, 15402.02
772.3210, 15351.65
773.4670, 15299.78
774.6130, 15203.22
775.7590, 15193.78
776.9050, 15167.41
778.0510, 15152.66
779.1960, 15192.18
780.3420, 15168.16
781.4870, 15232.67
782.6320, 15107.47
783.7770, 15151.30
784.9210, 15192.97
786.0660, 15233.34
787.2100, 15229.22
788.3540, 15312.46
789.4980, 15378.99
790.6420, 15457.36
791.7860, 15586.00
792.9300, 15662.00
794.0730, 15806.00
795.2160, 15916.00
796.3590, 15940.00
797.5020, 16103.00
798.6450, 16241.00
799.7880, 16234.00
800.9300, 16489.07
802.0720, 16727.00
803.2150, 16896.00
804.3560, 17193.00
805.4980, 17385.00
806.6400, 17938.00
807.7810, 18383.00
808.9230, 18796.00
810.0640, 18966.00
811.2050, 19055.00
812.3460, 18768.00
813.4860, 18612.00
814.6270, 17808.00
815.7670, 17569.00
816.9070, 17224.00
818.0470, 16942.00
819.1870, 16783.00
820.3270, 16670.86
821.4670, 16640.00
822.6060, 16672.00
823.7450, 16644.00
824.8840, 16750.00
826.0230, 16818.00
827.1620, 16894.00
828.3010, 17053.00
829.4390, 17138.00
830.5770, 17281.00
831.7150, 17438.00
832.8530, 17338.00
833.9910, 17527.00
835.1290, 17547.00
836.2660, 17800.00
837.4030, 17960.00
838.5410, 17772.00
839.6780, 17793.00
840.8140, 17884.00
841.9510, 17554.00
843.0870, 17712.00
844.2240, 17877.00
845.3600, 17866.00
846.4960, 18144.00
847.6320, 18379.00
848.7680, 18699.00
849.9030, 18869.00
851.0380, 19495.00
852.1740, 19895.00
853.3090, 20077.00
854.4440, 20187.00
855.5780, 20323.00
856.7130, 20557.00
857.8470, 20496.00
858.9820, 20319.00
860.1160, 20060.00
861.2500, 19587.00
862.3830, 19107.00
863.5170, 18597.00
864.6500, 18375.00
865.7840, 17829.00
866.9170, 17465.00
868.0500, 17155.00
869.1830, 16758.00
870.3150, 16499.00
871.4480, 16333.01
872.5800, 16183.28
873.7120, 16151.00
874.8440, 16079.00
875.9760, 16093.00
877.1080, 16061.00
878.2390, 15918.00
879.3710, 15897.40
880.5020, 15773.00
881.6330, 15744.44
882.7640, 15741.51
883.8940, 15727.06
885.0250, 15701.85
886.1550, 15622.80
887.2850, 15621.71
888.4160, 15594.49
889.5450, 15569.74
890.6750, 15590.09
891.8050, 15537.72
892.9340, 15564.75
894.0630, 15565.20
895.1930, 15583.15
896.3220, 15574.79
897.4500, 15579.34
898.5790, 15617.52
899.7070, 15735.00
900.8360, 15639.00
901.9640, 15777.00
903.0920, 15843.00
904.2200, 15808.00
905.3470, 15917.00
906.4750, 15968.44
907.6020, 15955.48
908.7290, 16111.00
909.8560, 15988.00
910.9830, 15996.00
912.1100, 16090.00
913.2360, 16050.00
914.3630, 16082.24
915.4890, 16062.00
916.6150, 16073.00
917.7410, 16141.00
918.8670, 16107.00
919.9920, 16112.00
921.1180, 16254.00
922.2430, 16065.00
923.3680, 16223.00
924.4930, 16084.00
925.6180, 16201.00
926.7420, 16337.00
927.8670, 16399.00
928.9910, 16618.00
930.1150, 16526.00
931.2390, 16687.00
932.3630, 16580.00
933.4860, 16536.00
934.6100, 16685.00
935.7330, 16778.00
936.8560, 16724.00
937.9790, 16833.00
939.1020, 16728.00
940.2250, 16922.00
941.3470, 17150.00
942.4700, 16989.00
943.5920, 17053.00
944.7140, 17111.00
945.8360, 17135.00
946.9570, 17293.00
948.0790, 17313.00
949.2000, 17373.49
950.3220, 17251.00
951.4430, 17489.00
952.5640, 17433.00
953.6840, 17551.00
954.8050, 17724.00
955.9250, 17674.00
957.0460, 17806.00
958.1660, 17814.00
959.2860, 18055.00
960.4050, 18129.00
961.5250, 18049.00
962.6440, 18147.00
963.7640, 18383.00
964.8830, 18377.00
966.0020, 18551.00
967.1210, 18367.00
968.2390, 18345.00
969.3580, 18388.00
970.4760, 18446.00
971.5940, 18460.00
972.7120, 18602.00
973.8300, 18704.00
974.9480, 18583.00
976.0650, 18781.00
977.1830, 18589.00
978.3000, 18683.00
979.4170, 18579.00
980.5340, 18950.00
981.6500, 18942.00
982.7670, 18954.00
983.8830, 18801.00
985.0000, 18915.00
986.1160, 18997.00
987.2320, 19230.00
988.3470, 19082.00
989.4630, 19151.00
990.5780, 19126.00
991.6940, 19173.00
992.8090, 19171.00
993.9240, 19036.00
995.0380, 19225.00
996.1530, 19171.00
997.2680, 19322.00
998.3820, 19351.00
999.4960, 19473.00
1000.610, 19641.00
1001.724, 19557.00
1002.837, 19501.00
1003.951, 19349.00
1005.064, 19398.00
1006.177, 19414.00
1007.291, 19419.00
1008.403, 19644.00
1009.516, 19762.00
1010.629, 19577.00
1011.741, 19779.00
1012.853, 19927.00
1013.965, 19840.00
1015.077, 20042.00
1016.189, 20180.00
1017.300, 20081.00
1018.412, 20011.00
1019.523, 20216.00
1020.634, 20476.00
1021.745, 20346.00
1022.856, 20582.00
1023.966, 20365.00
1025.077, 20531.00
1026.187, 20680.00
1027.297, 20607.00
1028.407, 20802.37
1029.517, 20873.12
1030.627, 21085.00
1031.736, 21130.00
1032.845, 21385.00
1033.955, 21586.00
1035.064, 21816.00
1036.172, 21943.00
1037.281, 22113.00
1038.390, 22569.00
1039.498, 22709.00
1040.606, 22965.00
1041.714, 23296.00
1042.822, 23567.00
1043.930, 23972.80
1045.037, 24178.00
1046.145, 24797.00
1047.252, 25268.00
1048.359, 25659.00
1049.466, 26561.00
1050.573, 26959.00
1051.679, 27520.00
1052.786, 28155.00
1053.892, 28807.00
1054.998, 29380.00
1056.104, 29649.00
1057.210, 30029.00
1058.315, 30066.09
1059.421, 30259.00
1060.526, 29792.00
1061.631, 29551.00
1062.736, 29036.00
1063.841, 28753.00
1064.946, 27818.00
1066.050, 26895.00
1067.154, 26091.00
1068.258, 25406.00
1069.362, 24623.00
1070.466, 23755.00
1071.570, 23416.00
1072.674, 22674.00
1073.777, 22380.00
1074.880, 21939.00
1075.983, 21594.00
1077.086, 21021.00
1078.189, 20918.00
1079.291, 20803.00
1080.394, 20330.00
1081.496, 20128.00
1082.598, 20131.00
1083.700, 20010.00
1084.802, 19941.00
1085.903, 19848.00
1087.005, 19846.15
1088.106, 19752.00
1089.207, 19858.00
1090.308, 19937.00
1091.409, 19909.00
1092.509, 20105.00
1093.610, 20114.00
1094.710, 20243.61
1095.810, 20255.41
1096.910, 20282.61
1098.010, 20326.02
1099.110, 20342.51
1100.209, 20463.79
1101.309, 20585.99
1102.408, 20737.42
1103.507, 20795.00
1104.606, 20948.34
1105.704, 21084.00
1106.803, 21436.00
1107.901, 21651.00
1108.999, 21949.00
1110.097, 22115.00
1111.195, 22388.00
1112.293, 22490.00
1113.391, 22507.00
1114.488, 22404.23
1115.585, 22211.52
1116.682, 21883.00
1117.779, 21652.00
1118.876, 21204.00
1119.973, 20963.00
1121.069, 20711.00
1122.165, 20628.00
1123.261, 20433.00
1124.357, 20331.00
1125.453, 20167.00
1126.549, 20059.00
1127.644, 20141.00
1128.739, 20028.00
1129.835, 20154.00
1130.930, 20258.00
1132.024, 19930.00
1133.119, 19968.00
1134.214, 19752.00
1135.308, 19786.00
1136.402, 19822.00
1137.496, 19760.00
1138.590, 19927.00
1139.684, 19757.00
1140.777, 19761.00
1141.871, 19568.00
1142.964, 19747.00
1144.057, 19734.00
1145.150, 19910.00
1146.243, 19900.00
1147.335, 19742.00
1148.428, 19940.00
1149.520, 19875.00
1150.612, 19677.00
1151.704, 20147.00
1152.796, 20126.00
1153.887, 20207.00
1154.979, 20336.00
1156.070, 20370.63
1157.161, 20395.00
1158.252, 20478.00
1159.343, 20444.00
1160.433, 20373.00
1161.524, 20266.00
1162.614, 20321.00
1163.704, 20124.00
1164.794, 19947.00
1165.884, 20106.00
1166.974, 20126.00
1168.063, 19867.00
1169.153, 19868.00
1170.242, 19705.00
1171.331, 19976.00
1172.420, 19647.00
1173.508, 19958.00
1174.597, 19791.00
1175.685, 19828.00
1176.774, 19852.00
1177.862, 19872.00
1178.950, 19829.00
1180.037, 19820.00
1181.125, 19978.00
1182.212, 20044.00
1183.300, 19966.00
1184.387, 19971.00
1185.474, 19948.00
1186.560, 19942.81
1187.647, 19996.00
1188.733, 19911.00
1189.820, 19808.00
1190.906, 19668.00
1191.992, 19863.00
1193.078, 19664.00
1194.163, 19582.00
1195.249, 19494.00
1196.334, 19350.00
1197.419, 19324.00
1198.504, 19330.71
1199.589, 19381.00
1200.674, 19481.00
1201.758, 19479.00
1202.843, 19654.00
1203.927, 19646.00
1205.011, 19533.00
1206.095, 19741.00
1207.179, 19635.00
1208.262, 19591.00
1209.345, 19747.00
1210.429, 19761.00
1211.512, 19752.00
1212.595, 19924.00
1213.677, 19873.00
1214.760, 19819.00
1215.842, 20015.00
1216.925, 19981.00
1218.007, 20173.00
1219.089, 20335.00
1220.171, 20406.00
1221.252, 20489.02
1222.334, 20382.00
1223.415, 20512.00
1224.496, 20423.00
1225.577, 20348.00
1226.658, 20728.00
1227.738, 20700.00
1228.819, 20785.00
1229.899, 20879.00
1230.979, 20663.00
1232.060, 20725.00
1233.139, 20820.00
1234.219, 20805.00
1235.299, 20977.00
1236.378, 21165.00
1237.457, 20836.00
1238.536, 21140.00
1239.615, 20849.00
1240.694, 21213.00
1241.772, 21008.00
1242.851, 21157.00
1243.929, 21142.00
1245.007, 20934.00
1246.085, 20982.00
1247.163, 21147.00
1248.240, 21099.00
1249.318, 21285.00
1250.395, 20855.00
1251.472, 21327.00
1252.549, 21173.00
1253.626, 21404.00
1254.703, 21400.00
1255.779, 21256.00
1256.855, 21288.00
1257.931, 21405.00
1259.007, 21536.00
1260.083, 21453.00
1261.159, 21691.00
1262.234, 21547.00
1263.310, 21411.00
1264.385, 21497.00
1265.460, 21500.00
1266.535, 21321.00
1267.610, 21464.00
1268.684, 21561.00
1269.758, 21541.00
1270.833, 21329.00
1271.907, 21536.00
1272.981, 21681.00
1274.054, 21353.00
1275.128, 21449.00
1276.201, 21400.00
1277.275, 21334.00
1278.348, 21472.00
1279.421, 21328.00
1280.493, 21132.00
1281.566, 21417.00
1282.638, 21352.00
1283.711, 21397.00
1284.783, 21319.00
1285.855, 21262.00
1286.927, 21267.00
1287.998, 21223.00
1289.070, 21251.98
1290.141, 21286.42
1291.212, 21203.04
1292.283, 21522.02
1293.354, 21704.03
1294.425, 21756.45
1295.495, 21291.10
1296.566, 21494.34
1297.636, 21429.63
1298.706, 21353.94
1299.776, 21651.27
1300.845, 21261.22
1301.915, 21552.64
1302.984, 21572.02
1304.054, 21715.91
1305.123, 21590.21
1306.191, 21547.76
1307.260, 21775.00
1308.329, 21852.92
1309.397, 21504.00
1310.465, 21591.00
1311.534, 21506.00
1312.602, 21416.00
1313.669, 21284.00
1314.737, 21306.00
1315.804, 21499.00
1316.872, 21555.00
1317.939, 21520.00
1319.006, 21378.00
1320.073, 21859.00
1321.139, 21656.00
1322.206, 21599.00
1323.272, 21869.00
1324.338, 21706.00
1325.404, 21526.00
1326.470, 21529.00
1327.536, 21584.00
1328.601, 21451.00
1329.667, 21732.00
1330.732, 21637.00
1331.797, 21724.00
1332.862, 21510.00
1333.926, 21726.00
1334.991, 21539.00
1336.055, 21799.00
1337.120, 21717.00
1338.184, 21724.00
1339.248, 21771.00
1340.311, 21708.12
1341.375, 21913.00
1342.438, 21649.00
1343.502, 21781.00
1344.565, 21755.00
1345.628, 21659.00
1346.691, 21759.00
1347.753, 21883.00
1348.816, 21554.00
1349.878, 21847.00
1350.940, 21723.00
1352.002, 21826.00
1353.064, 21866.00
1354.126, 21825.00
1355.187, 21751.00
1356.248, 21771.00
1357.310, 21927.00
1358.371, 22003.00
1359.431, 21943.00
1360.492, 21983.00
1361.553, 21908.00
1362.613, 21941.00
1363.673, 21950.50
1364.733, 22009.00
1365.793, 22014.00
1366.853, 22057.00
1367.912, 22133.00
1368.972, 22123.00
1370.031, 22252.00
1371.090, 22224.00
1372.149, 22441.00
1373.208, 22493.00
1374.267, 22467.00
1375.325, 22562.00
1376.383, 22625.00
1377.441, 22794.00
1378.499, 22699.00
1379.557, 22783.00
1380.615, 22820.00
1381.672, 22775.00
1382.730, 22867.00
1383.787, 22712.00
1384.844, 22904.00
1385.901, 22969.00
1386.957, 22924.00
1388.014, 23175.00
1389.070, 22937.00
1390.126, 22929.00
1391.182, 22983.00
1392.238, 22990.00
1393.294, 22914.00
1394.349, 23055.00
1395.405, 22895.00
1396.460, 22793.00
1397.515, 23007.00
1398.570, 22806.00
1399.625, 22843.00
1400.679, 22805.00
1401.734, 22779.00
1402.788, 22911.00
1403.842, 22822.00
1404.896, 22826.00
1405.950, 23042.00
1407.003, 22871.00
1408.057, 22707.00
1409.110, 22832.00
1410.163, 22802.00
1411.216, 22816.00
1412.269, 22785.00
1413.322, 22960.00
1414.374, 22904.00
1415.427, 22928.00
1416.479, 22962.00
1417.531, 22839.00
1418.583, 22832.00
1419.634, 23019.00
1420.686, 22942.00
1421.737, 22929.00
1422.788, 23070.00
1423.839, 23331.00
1424.890, 23271.00
1425.941, 23345.00
1426.992, 23662.00
1428.042, 23770.00
1429.092, 23748.00
1430.142, 23913.00
1431.192, 24076.00
1432.242, 24315.00
1433.291, 24498.39
1434.341, 24739.79
1435.390, 24920.00
1436.439, 25210.00
1437.488, 25416.00
1438.537, 25599.00
1439.586, 25763.00
1440.634, 25869.00
1441.682, 26118.88
1442.731, 26567.00
1443.779, 26600.00
1444.826, 26737.00
1445.874, 27002.00
1446.922, 26895.00
1447.969, 26667.00
1449.016, 27003.00
1450.063, 27109.00
1451.110, 26740.00
1452.157, 26933.00
1453.203, 26868.00
1454.250, 26803.00
1455.296, 26933.00
1456.342, 26591.00
1457.388, 26542.00
1458.433, 26609.00
1459.479, 26176.00
1460.524, 25840.00
1461.570, 25479.00
1462.615, 25338.00
1463.660, 25081.00
1464.705, 24938.00
1465.749, 24886.00
1466.794, 24642.00
1467.838, 24399.00
1468.882, 24247.00
1469.926, 24232.00
1470.970, 24050.00
1472.013, 23839.00
1473.057, 24024.00
1474.100, 23989.00
1475.143, 23813.00
1476.186, 23890.00
1477.229, 24010.00
1478.272, 23864.00
1479.314, 23777.00
1480.357, 23648.00
1481.399, 23498.00
1482.441, 23614.00
1483.483, 23686.00
1484.525, 23619.00
1485.566, 23605.00
1486.608, 23337.00
1487.649, 23379.00
1488.690, 23359.00
1489.731, 23461.00
1490.771, 23314.00
1491.812, 23299.99
1492.853, 23174.00
1493.893, 23147.00
1494.933, 23088.00
1495.973, 23029.00
1497.013, 23237.00
1498.052, 22858.00
1499.092, 22847.00
1500.131, 23228.00
1501.170, 23084.00
1502.209, 23040.00
1503.248, 22906.00
1504.287, 23037.00
1505.325, 23086.00
1506.363, 23024.00
1507.402, 23070.00
1508.440, 23165.00
1509.478, 23210.00
1510.515, 23132.00
1511.553, 23077.00
1512.590, 23277.00
1513.627, 23096.00
1514.664, 23199.00
1515.701, 23285.00
1516.738, 23272.00
1517.775, 23530.00
1518.811, 23090.00
1519.847, 23111.00
1520.883, 23183.00
1521.919, 23367.00
1522.955, 23350.00
1523.991, 23274.00
1525.026, 23314.00
1526.061, 23291.33
1527.096, 23298.00
1528.131, 23360.00
1529.166, 23380.00
1530.201, 23393.00
1531.235, 23384.61
1532.270, 23413.00
1533.304, 23301.00
1534.338, 23302.00
1535.372, 23206.00
1536.405, 23352.00
1537.439, 23320.00
1538.472, 23227.00
1539.505, 23256.00
1540.538, 23230.00
1541.571, 23115.00
1542.604, 23201.00
1543.637, 23225.00
1544.669, 23307.00
1545.701, 23337.00
1546.733, 23266.00
1547.765, 23226.00
1548.797, 23200.00
1549.829, 23464.00
1550.860, 23309.00
1551.891, 23348.00
1552.922, 23669.00
1553.953, 23580.00
1554.984, 23520.00
1556.015, 23676.00
1557.045, 23360.00
1558.076, 23427.00
1559.106, 23555.00
1560.136, 23372.00
1561.165, 23598.00
1562.195, 23518.00
1563.225, 23436.00
1564.254, 23635.00
1565.283, 23461.00
##END=



