##NAMES=Elbaite
##RRUFFID=R060560
##IDEAL CHEMISTRY=Na(Al_1.5_Li_1.5_)Al_6_(Si_6_O_18_)(BO_3_)_3_(OH)_3_OH
##LOCALITY=California, USA
##OWNER=RRUFF
##SOURCE=Gemological Institute of America
##DESCRIPTION=Pink fragment
##STATUS=The identification of this mineral has been confirmed by X-ray diffraction and chemical analysis
##URL=rruff.info/R060560
##MEASURED CHEMISTRY=(Na_0.56_Ca_0.12_[box]_0.32_)(Al_1.60_Li_1.40_)Al_6_(BO_3_)_3_[Si_6_O_18_](OH)_4_
##PIN_ID=L01306
##ORIENTATION=Laser parallel to c* (0 0 1). Fiducial mark perpendicular to laser is parallel to a [1 0 0]
118.1340, 10562.00
119.3650, 10661.00
120.5960, 10847.00
121.8270, 11205.00
123.0580, 11404.00
124.2880, 11612.00
125.5190, 11646.00
126.7490, 11759.00
127.9790, 11894.00
129.2090, 12224.00
130.4390, 12540.00
131.6680, 12468.00
132.8980, 12674.00
134.1270, 12667.00
135.3560, 12679.00
136.5850, 12604.00
137.8140, 12561.00
139.0430, 12364.00
140.2710, 12386.00
141.5000, 12258.00
142.7280, 12082.00
143.9560, 12172.00
145.1840, 12059.00
146.4120, 12156.00
147.6390, 12338.00
148.8670, 12344.00
150.0940, 12472.00
151.3210, 12571.00
152.5490, 12581.00
153.7750, 12261.00
155.0020, 12184.00
156.2290, 11956.00
157.4550, 11889.00
158.6810, 11596.00
159.9080, 11428.00
161.1340, 11418.00
162.3590, 11304.00
163.5850, 11330.00
164.8110, 11349.00
166.0360, 11292.00
167.2610, 11412.00
168.4860, 11577.00
169.7110, 11429.00
170.9360, 11556.00
172.1610, 11702.00
173.3850, 11635.00
174.6100, 11660.00
175.8340, 11796.00
177.0580, 11967.00
178.2820, 11855.00
179.5050, 11885.00
180.7290, 11957.00
181.9520, 11918.00
183.1760, 12153.00
184.3990, 12150.00
185.6220, 12277.00
186.8450, 12357.00
188.0670, 12468.00
189.2900, 12708.00
190.5120, 12967.00
191.7340, 13285.00
192.9560, 13491.00
194.1780, 13850.00
195.4000, 14104.00
196.6220, 14164.00
197.8430, 14485.00
199.0640, 14473.00
200.2860, 14809.00
201.5070, 15137.00
202.7270, 15350.00
203.9480, 15423.00
205.1690, 15822.00
206.3890, 15791.00
207.6090, 16106.00
208.8290, 16762.00
210.0490, 17330.00
211.2690, 17992.00
212.4890, 18822.00
213.7080, 19768.34
214.9280, 20824.00
216.1470, 22068.00
217.3660, 23396.00
218.5850, 24884.00
219.8030, 26502.00
221.0220, 27821.00
222.2400, 28986.00
223.4590, 29860.00
224.6770, 29789.00
225.8950, 29323.00
227.1120, 28408.00
228.3300, 27385.00
229.5480, 26345.00
230.7650, 25123.00
231.9820, 24134.00
233.1990, 23409.00
234.4160, 22843.00
235.6330, 22462.00
236.8490, 22231.00
238.0660, 22217.00
239.2820, 21917.00
240.4980, 22133.00
241.7140, 22109.00
242.9300, 21984.00
244.1460, 21880.00
245.3610, 21606.63
246.5770, 21310.80
247.7920, 20904.00
249.0070, 20489.00
250.2220, 19987.00
251.4370, 19415.00
252.6510, 18737.00
253.8660, 18307.00
255.0800, 17823.00
256.2940, 17515.00
257.5080, 17477.00
258.7220, 17083.71
259.9360, 16883.60
261.1490, 16567.00
262.3630, 16492.00
263.5760, 16393.18
264.7890, 16278.00
266.0020, 16412.00
267.2150, 16578.00
268.4270, 16732.00
269.6400, 16852.00
270.8520, 16939.00
272.0640, 17162.00
273.2760, 17249.00
274.4880, 17281.00
275.7000, 17521.00
276.9120, 17416.00
278.1230, 17472.00
279.3340, 17434.00
280.5450, 17392.00
281.7560, 17265.00
282.9670, 17280.00
284.1780, 17230.00
285.3880, 17055.00
286.5980, 16934.00
287.8090, 16842.00
289.0190, 16533.00
290.2290, 16077.00
291.4380, 15881.00
292.6480, 15580.00
293.8570, 15423.00
295.0670, 14962.00
296.2760, 14826.00
297.4850, 14687.00
298.6930, 14722.00
299.9020, 14641.00
301.1110, 14893.00
302.3190, 15004.00
303.5270, 15283.00
304.7350, 15438.00
305.9430, 15834.00
307.1510, 16252.00
308.3580, 16433.00
309.5660, 16687.00
310.7730, 17000.00
311.9800, 17250.00
313.1870, 17442.35
314.3940, 17788.00
315.6010, 17785.00
316.8070, 17872.00
318.0130, 18027.00
319.2200, 18231.00
320.4260, 18706.00
321.6310, 19214.00
322.8370, 19423.00
324.0430, 19940.00
325.2480, 20444.00
326.4540, 20791.00
327.6590, 21106.00
328.8640, 21558.00
330.0680, 21805.00
331.2730, 21934.00
332.4780, 21915.00
333.6820, 21961.00
334.8860, 21661.00
336.0900, 21498.00
337.2940, 21136.00
338.4980, 20801.00
339.7010, 20636.00
340.9050, 20582.00
342.1080, 20622.00
343.3110, 20310.00
344.5140, 20327.00
345.7170, 20087.00
346.9200, 20282.00
348.1220, 20312.00
349.3240, 20391.00
350.5270, 20645.00
351.7290, 20784.00
352.9310, 20983.00
354.1320, 21359.00
355.3340, 21651.00
356.5350, 22161.00
357.7370, 22821.00
358.9380, 23469.80
360.1390, 24298.00
361.3400, 25214.00
362.5400, 26148.00
363.7410, 27364.00
364.9410, 28703.00
366.1410, 29721.00
367.3410, 31286.00
368.5410, 33167.00
369.7410, 34181.00
370.9400, 36071.00
372.1400, 38250.00
373.3390, 39818.00
374.5380, 41503.00
375.7370, 42615.00
376.9360, 43406.00
378.1350, 43261.00
379.3330, 42486.00
380.5310, 41051.00
381.7300, 39452.00
382.9280, 37203.00
384.1260, 34825.00
385.3230, 32660.00
386.5210, 30851.00
387.7180, 29240.65
388.9160, 27928.70
390.1130, 26816.00
391.3100, 26127.00
392.5060, 25505.00
393.7030, 25309.00
394.9000, 24996.00
396.0960, 24852.00
397.2920, 24971.00
398.4880, 25200.00
399.6840, 25221.00
400.8800, 25588.00
402.0750, 25778.00
403.2710, 26052.00
404.4660, 26146.00
405.6610, 26353.00
406.8560, 26388.00
408.0510, 26431.00
409.2450, 26350.00
410.4400, 25883.00
411.6340, 25828.00
412.8280, 25149.00
414.0220, 24597.00
415.2160, 23740.00
416.4100, 23028.00
417.6030, 22010.00
418.7970, 21319.00
419.9900, 20260.00
421.1830, 19636.00
422.3760, 19060.00
423.5690, 18337.00
424.7610, 17964.00
425.9540, 17656.00
427.1460, 17383.00
428.3380, 17174.00
429.5300, 17024.00
430.7220, 17090.00
431.9140, 16998.00
433.1050, 16989.00
434.2970, 17117.00
435.4880, 17057.00
436.6790, 17233.00
437.8700, 17427.00
439.0610, 17466.00
440.2510, 17737.00
441.4420, 17865.00
442.6320, 18060.00
443.8220, 18276.00
445.0120, 18364.00
446.2020, 18545.00
447.3910, 18557.00
448.5810, 18621.00
449.7700, 18736.00
450.9600, 18717.76
452.1490, 18747.16
453.3370, 18704.00
454.5260, 18673.00
455.7150, 18601.00
456.9030, 18459.00
458.0910, 18486.00
459.2800, 18380.00
460.4670, 18092.00
461.6550, 18200.00
462.8430, 18355.00
464.0300, 17927.00
465.2180, 18079.00
466.4050, 17988.00
467.5920, 18094.00
468.7790, 17970.00
469.9650, 18030.00
471.1520, 18015.00
472.3380, 17857.00
473.5250, 17733.00
474.7110, 17709.00
475.8970, 17668.00
477.0820, 17570.00
478.2680, 17604.00
479.4540, 17371.00
480.6390, 17443.00
481.8240, 17427.00
483.0090, 17561.00
484.1940, 17550.00
485.3780, 17436.00
486.5630, 17281.00
487.7470, 17385.00
488.9320, 17399.00
490.1160, 17395.00
491.3000, 17539.00
492.4830, 17643.00
493.6670, 17746.00
494.8500, 17793.00
496.0340, 17894.80
497.2170, 17982.00
498.4000, 18101.00
499.5820, 18247.00
500.7650, 18452.00
501.9480, 18613.00
503.1300, 18888.00
504.3120, 19251.00
505.4940, 19435.00
506.6760, 19946.00
507.8580, 20215.00
509.0390, 20415.00
510.2210, 20754.00
511.4020, 20937.36
512.5830, 21169.00
513.7640, 21377.00
514.9450, 21620.00
516.1250, 21768.62
517.3060, 22021.00
518.4860, 22037.00
519.6660, 22067.00
520.8460, 22140.00
522.0260, 21913.00
523.2060, 21669.00
524.3850, 21480.00
525.5650, 21411.00
526.7440, 21326.00
527.9230, 21356.00
529.1020, 21599.00
530.2810, 21918.00
531.4590, 21922.00
532.6380, 22415.00
533.8160, 22823.00
534.9940, 23228.00
536.1720, 23619.05
537.3500, 24116.00
538.5270, 24279.00
539.7050, 24512.00
540.8820, 24705.00
542.0590, 24453.00
543.2360, 24769.00
544.4130, 24713.00
545.5900, 24325.00
546.7660, 24465.00
547.9430, 24206.00
549.1190, 24118.00
550.2950, 24023.00
551.4710, 23984.00
552.6470, 23952.00
553.8220, 23778.00
554.9980, 23709.00
556.1730, 23396.00
557.3480, 23242.00
558.5230, 22810.00
559.6980, 22607.00
560.8730, 22474.00
562.0470, 22147.00
563.2220, 21602.00
564.3960, 21337.00
565.5700, 20987.00
566.7440, 20737.00
567.9170, 20389.00
569.0910, 19990.00
570.2640, 19610.00
571.4380, 19349.00
572.6110, 18990.00
573.7840, 18700.00
574.9570, 18424.00
576.1290, 18253.00
577.3020, 18055.00
578.4740, 17921.00
579.6460, 17849.00
580.8180, 17581.00
581.9900, 17413.00
583.1620, 17456.00
584.3330, 17213.00
585.5040, 17088.00
586.6760, 17030.00
587.8470, 17192.00
589.0180, 16942.00
590.1880, 16896.00
591.3590, 16635.00
592.5290, 16535.00
593.7000, 16639.00
594.8700, 16359.00
596.0400, 16371.00
597.2090, 16168.00
598.3790, 16198.00
599.5490, 16098.00
600.7180, 16034.00
601.8870, 16084.00
603.0560, 15948.00
604.2250, 15883.00
605.3940, 15853.00
606.5620, 15787.00
607.7300, 15767.00
608.8990, 15776.00
610.0670, 15637.00
611.2350, 15711.00
612.4020, 15465.00
613.5700, 15581.00
614.7370, 15433.00
615.9050, 15398.00
617.0720, 15380.00
618.2390, 15393.00
619.4060, 15437.00
620.5720, 15219.00
621.7390, 15350.28
622.9050, 15591.00
624.0710, 15312.00
625.2370, 15507.00
626.4030, 15179.00
627.5690, 15636.00
628.7340, 15435.00
629.9000, 15406.00
631.0650, 15422.00
632.2300, 15587.00
633.3950, 15528.00
634.5600, 15559.00
635.7240, 15697.00
636.8890, 15498.00
638.0530, 15646.00
639.2170, 15766.00
640.3810, 15790.00
641.5450, 15758.00
642.7080, 15957.00
643.8720, 16033.00
645.0350, 15992.00
646.1980, 15823.00
647.3610, 15921.00
648.5240, 15816.00
649.6870, 15997.00
650.8490, 15648.00
652.0120, 15543.00
653.1740, 15579.00
654.3360, 15472.00
655.4980, 15650.00
656.6600, 15486.00
657.8210, 15490.00
658.9830, 15370.00
660.1440, 15338.00
661.3050, 15385.00
662.4660, 15479.00
663.6270, 15406.00
664.7870, 15464.00
665.9480, 15542.00
667.1080, 15674.00
668.2680, 15628.00
669.4280, 15706.00
670.5880, 15641.00
671.7480, 15916.00
672.9070, 15871.00
674.0670, 15854.00
675.2260, 15889.00
676.3850, 15863.00
677.5440, 15808.15
678.7030, 15860.00
679.8610, 15684.00
681.0200, 15517.00
682.1780, 15487.00
683.3360, 15339.00
684.4940, 15091.00
685.6520, 14945.00
686.8090, 14950.00
687.9670, 14928.00
689.1240, 14836.00
690.2810, 14665.00
691.4380, 14816.00
692.5950, 14711.00
693.7520, 14755.00
694.9080, 15066.00
696.0650, 15133.00
697.2210, 15183.00
698.3770, 15246.00
699.5330, 15412.00
700.6880, 15506.00
701.8440, 15802.00
702.9990, 16097.00
704.1550, 16458.00
705.3100, 16644.00
706.4650, 17033.00
707.6190, 17431.00
708.7740, 17922.00
709.9290, 18367.00
711.0830, 19059.00
712.2370, 19651.00
713.3910, 20436.00
714.5450, 21167.00
715.6980, 22186.00
716.8520, 23519.00
718.0050, 24916.00
719.1580, 26520.00
720.3110, 28729.00
721.4640, 31418.00
722.6170, 34066.00
723.7700, 37275.00
724.9220, 40982.00
726.0740, 44719.00
727.2260, 48916.00
728.3780, 52460.00
729.5300, 55163.00
730.6810, 57357.00
731.8330, 57976.00
732.9840, 57109.00
734.1350, 55362.00
735.2860, 51821.00
736.4370, 48229.00
737.5880, 44417.00
738.7380, 40919.00
739.8880, 37485.00
741.0390, 34641.00
742.1890, 31940.00
743.3380, 29942.00
744.4880, 28195.00
745.6380, 26694.00
746.7870, 25407.00
747.9360, 24291.00
749.0850, 23160.00
750.2340, 22404.00
751.3830, 21595.00
752.5310, 21138.00
753.6800, 20734.00
754.8280, 20329.00
755.9760, 20002.38
757.1240, 19631.00
758.2720, 19371.00
759.4190, 19177.00
760.5670, 18801.00
761.7140, 18659.00
762.8610, 18086.00
764.0080, 17991.00
765.1550, 17626.00
766.3020, 17483.00
767.4480, 17138.00
768.5950, 16934.00
769.7410, 16460.00
770.8870, 16298.00
772.0330, 16019.00
773.1780, 15766.00
774.3240, 15734.00
775.4690, 15510.00
776.6140, 15357.00
777.7590, 15165.00
778.9040, 15145.00
780.0490, 15053.00
781.1940, 15067.00
782.3380, 14963.00
783.4820, 14961.00
784.6260, 14988.00
785.7700, 14868.00
786.9140, 14905.00
788.0580, 14786.00
789.2010, 14802.00
790.3450, 14847.00
791.4880, 14826.44
792.6310, 14915.54
793.7730, 14922.00
794.9160, 15088.00
796.0590, 15221.00
797.2010, 15338.00
798.3430, 15451.88
799.4850, 15485.81
800.6270, 15600.00
801.7690, 15537.00
802.9100, 15510.00
804.0520, 15569.00
805.1930, 15442.00
806.3340, 15381.00
807.4750, 15165.00
808.6160, 14822.00
809.7560, 14934.00
810.8970, 14654.00
812.0370, 14640.00
813.1770, 14455.00
814.3170, 14563.00
815.4570, 14526.00
816.5960, 14535.00
817.7360, 14364.00
818.8750, 14460.00
820.0140, 14389.00
821.1530, 14454.00
822.2920, 14563.00
823.4310, 14581.00
824.5690, 14491.00
825.7070, 14447.00
826.8460, 14642.00
827.9840, 14652.00
829.1220, 14764.00
830.2590, 14732.00
831.3970, 14926.00
832.5340, 14809.00
833.6710, 14754.00
834.8080, 14851.00
835.9450, 14838.00
837.0820, 14792.00
838.2190, 14891.00
839.3550, 15050.00
840.4910, 15065.00
841.6270, 14971.00
842.7630, 14787.00
843.8990, 14745.00
845.0350, 14856.00
846.1700, 15028.00
847.3060, 15045.00
848.4410, 14928.00
849.5760, 14951.00
850.7100, 14987.00
851.8450, 15054.00
852.9800, 15090.34
854.1140, 14997.00
855.2480, 15180.00
856.3820, 15324.00
857.5160, 15345.00
858.6500, 15283.00
859.7830, 15449.00
860.9170, 15552.00
862.0500, 15513.00
863.1830, 15638.00
864.3160, 15645.00
865.4480, 15647.00
866.5810, 15861.00
867.7130, 15794.00
868.8460, 15883.00
869.9780, 15947.00
871.1100, 16003.00
872.2410, 16144.00
873.3730, 16161.00
874.5050, 16234.35
875.6360, 16294.00
876.7670, 16277.00
877.8980, 16380.00
879.0290, 16295.00
880.1590, 16232.00
881.2900, 16364.00
882.4200, 16156.00
883.5500, 16472.00
884.6800, 16263.00
885.8100, 16106.00
886.9400, 16257.00
888.0690, 16059.00
889.1990, 16060.00
890.3280, 16097.00
891.4570, 15982.00
892.5860, 15960.00
893.7140, 15861.00
894.8430, 15763.00
895.9710, 15691.26
897.1000, 15632.89
898.2280, 15576.00
899.3560, 15538.00
900.4830, 15639.00
901.6110, 15586.00
902.7380, 15591.00
903.8660, 15467.00
904.9930, 15647.00
906.1200, 15532.00
907.2460, 15308.00
908.3730, 15505.00
909.5000, 15491.00
910.6260, 15299.00
911.7520, 15373.00
912.8780, 15388.00
914.0040, 15474.00
915.1290, 15517.52
916.2550, 15573.00
917.3800, 15574.00
918.5050, 15616.00
919.6300, 15687.08
920.7550, 15916.00
921.8800, 15851.00
923.0040, 15983.00
924.1290, 16091.00
925.2530, 16074.00
926.3770, 16071.00
927.5010, 16344.00
928.6250, 16194.00
929.7480, 16363.00
930.8720, 16687.00
931.9950, 16594.00
933.1180, 16789.00
934.2410, 16966.00
935.3640, 17025.00
936.4860, 17132.00
937.6090, 17405.00
938.7310, 17474.00
939.8530, 17436.00
940.9750, 17295.00
942.0970, 17724.00
943.2180, 17636.00
944.3400, 17657.00
945.4610, 17795.00
946.5820, 17758.00
947.7030, 17829.00
948.8240, 18008.00
949.9450, 18006.00
951.0650, 18009.00
952.1860, 17813.00
953.3060, 18056.00
954.4260, 18077.00
955.5460, 18122.00
956.6650, 18235.00
957.7850, 18079.00
958.9040, 18141.00
960.0230, 18125.00
961.1420, 18363.00
962.2610, 18472.00
963.3800, 18458.00
964.4990, 18517.00
965.6170, 18432.00
966.7350, 18637.00
967.8530, 18564.00
968.9710, 18790.00
970.0890, 18965.00
971.2070, 19062.00
972.3240, 19167.00
973.4410, 19314.00
974.5580, 19311.00
975.6750, 19536.00
976.7920, 19526.00
977.9090, 19595.00
979.0250, 19871.00
980.1410, 19871.00
981.2580, 19954.00
982.3740, 19946.00
983.4890, 19702.00
984.6050, 19854.00
985.7200, 19723.00
986.8360, 19922.00
987.9510, 19897.00
989.0660, 19732.00
990.1810, 19709.00
991.2950, 19577.00
992.4100, 19522.00
993.5240, 19649.00
994.6390, 19415.00
995.7530, 19571.00
996.8660, 19305.00
997.9800, 19534.00
999.0940, 19443.00
1000.207, 19474.00
1001.320, 19659.00
1002.433, 19491.00
1003.546, 19534.00
1004.659, 19583.00
1005.772, 19495.00
1006.884, 19789.00
1007.996, 19809.00
1009.108, 19780.00
1010.220, 19965.00
1011.332, 20048.00
1012.444, 20265.00
1013.555, 20323.00
1014.666, 20457.00
1015.777, 20678.29
1016.888, 20870.00
1017.999, 21172.00
1019.110, 21314.00
1020.220, 21682.00
1021.331, 21746.00
1022.441, 22268.00
1023.551, 22276.00
1024.661, 22695.00
1025.770, 22829.00
1026.880, 22973.00
1027.989, 23158.00
1029.098, 23273.00
1030.207, 23483.00
1031.316, 23845.00
1032.425, 23912.00
1033.533, 24143.00
1034.642, 24322.00
1035.750, 24404.00
1036.858, 24573.00
1037.966, 24957.00
1039.073, 24992.00
1040.181, 25458.00
1041.288, 25584.00
1042.396, 25754.00
1043.503, 26295.00
1044.610, 26594.00
1045.716, 26926.00
1046.823, 27365.00
1047.929, 27876.00
1049.036, 28273.00
1050.142, 28881.00
1051.248, 29479.00
1052.353, 30197.00
1053.459, 30742.00
1054.564, 31590.00
1055.670, 32455.00
1056.775, 33413.00
1057.880, 34547.00
1058.985, 35531.00
1060.089, 36550.00
1061.194, 37926.00
1062.298, 39798.00
1063.402, 40642.00
1064.506, 41603.00
1065.610, 42833.00
1066.713, 43657.00
1067.817, 43940.00
1068.920, 44402.00
1070.023, 44294.00
1071.126, 43566.00
1072.229, 42737.00
1073.332, 41638.00
1074.435, 40270.00
1075.537, 38910.00
1076.639, 37151.00
1077.741, 35748.00
1078.843, 34170.00
1079.945, 33033.00
1081.046, 31350.00
1082.148, 29923.00
1083.249, 28846.00
1084.350, 27732.00
1085.451, 26512.00
1086.551, 25655.00
1087.652, 24753.00
1088.752, 24130.00
1089.853, 23404.00
1090.953, 22782.00
1092.053, 22297.00
1093.152, 21850.00
1094.252, 21542.00
1095.351, 21451.00
1096.451, 21050.00
1097.550, 20758.00
1098.649, 20374.00
1099.748, 20468.00
1100.846, 20085.00
1101.945, 19838.00
1103.043, 20023.00
1104.141, 19769.00
1105.239, 19635.00
1106.337, 19669.00
1107.434, 19450.00
1108.532, 19395.00
1109.629, 19288.00
1110.726, 19387.00
1111.823, 19262.00
1112.920, 19163.00
1114.017, 19031.00
1115.113, 18989.00
1116.210, 19106.00
1117.306, 19033.00
1118.402, 18747.00
1119.498, 18877.00
1120.593, 18681.00
1121.689, 18851.00
1122.784, 18725.00
1123.879, 18562.00
1124.974, 18674.00
1126.069, 18745.00
1127.164, 18693.00
1128.259, 18708.00
1129.353, 18477.00
1130.447, 18637.00
1131.541, 18442.00
1132.635, 18597.00
1133.729, 18537.00
1134.822, 18623.00
1135.916, 18506.00
1137.009, 18569.00
1138.102, 18703.00
1139.195, 18670.00
1140.288, 18720.00
1141.380, 18616.00
1142.473, 18709.00
1143.565, 18574.00
1144.657, 18640.00
1145.749, 18538.00
1146.841, 18513.00
1147.932, 18557.00
1149.024, 18356.00
1150.115, 18184.00
1151.206, 18155.00
1152.297, 18171.00
1153.388, 18222.00
1154.479, 18171.00
1155.569, 17987.00
1156.659, 18108.00
1157.750, 17815.00
1158.839, 17926.00
1159.929, 17908.00
1161.019, 17895.00
1162.108, 17930.00
1163.198, 18031.00
1164.287, 18036.00
1165.376, 17779.00
1166.465, 17909.00
1167.553, 17813.00
1168.642, 17597.00
1169.730, 17798.00
1170.818, 17806.00
1171.906, 17914.00
1172.994, 17724.00
1174.082, 17860.00
1175.170, 17837.00
1176.257, 17935.00
1177.344, 17909.00
1178.431, 17835.00
1179.518, 17900.00
1180.605, 17856.00
1181.691, 17863.07
1182.778, 17837.00
1183.864, 17900.00
1184.950, 17871.00
1186.036, 17941.00
1187.122, 17970.00
1188.207, 18005.00
1189.292, 17826.00
1190.378, 17954.00
1191.463, 17860.00
1192.548, 18060.00
1193.632, 17895.00
1194.717, 18028.00
1195.801, 17908.00
1196.886, 18037.00
1197.970, 18165.00
1199.054, 18069.00
1200.137, 18008.00
1201.221, 18109.00
1202.305, 18033.00
1203.388, 17903.00
1204.471, 18038.00
1205.554, 18081.00
1206.637, 18121.00
1207.719, 18192.00
1208.802, 18109.00
1209.884, 18096.00
1210.966, 18078.00
1212.048, 18130.00
1213.130, 18121.29
1214.212, 18191.00
1215.293, 18190.00
1216.374, 18302.00
1217.456, 18420.00
1218.536, 18433.30
1219.617, 18350.00
1220.698, 18443.00
1221.778, 18492.00
1222.859, 18344.00
1223.939, 18378.00
1225.019, 18320.00
1226.099, 18367.00
1227.178, 18372.00
1228.258, 18407.00
1229.337, 18483.00
1230.417, 18425.00
1231.496, 18664.00
1232.574, 18509.00
1233.653, 18466.00
1234.732, 18641.00
1235.810, 18674.00
1236.888, 18560.00
1237.966, 18605.00
1239.044, 18574.00
1240.122, 18674.00
1241.199, 18712.00
1242.277, 18683.00
1243.354, 18707.34
1244.431, 18796.00
1245.508, 18608.00
1246.585, 18687.00
1247.661, 18531.00
1248.738, 18852.00
1249.814, 18811.00
1250.890, 18824.00
1251.966, 18884.00
1253.042, 18902.00
1254.117, 18876.00
1255.193, 18738.00
1256.268, 19065.00
1257.343, 18770.00
1258.418, 18974.00
1259.493, 18875.00
1260.567, 19051.00
1261.642, 19131.00
1262.716, 19037.00
1263.790, 19057.00
1264.864, 18993.00
1265.938, 19179.00
1267.011, 19318.00
1268.085, 19368.00
1269.158, 19341.00
1270.231, 19318.00
1271.304, 19446.00
1272.377, 19405.00
1273.450, 19372.00
1274.522, 19252.00
1275.594, 19316.00
1276.666, 19455.00
1277.738, 19635.00
1278.810, 19490.00
1279.882, 19548.00
1280.953, 19573.00
1282.025, 19267.00
1283.096, 19568.00
1284.167, 19539.00
1285.238, 19329.00
1286.308, 19513.00
1287.379, 19527.00
1288.449, 19586.00
1289.519, 19565.00
1290.589, 19486.00
1291.659, 19534.76
1292.729, 19693.00
1293.798, 19576.00
1294.868, 19581.00
1295.937, 19649.00
1297.006, 19494.00
1298.075, 19638.00
1299.143, 19577.00
1300.212, 19571.00
1301.280, 19642.00
1302.348, 19727.00
1303.416, 19806.00
1304.484, 19810.00
1305.552, 19722.00
1306.620, 19745.00
1307.687, 19802.00
1308.754, 19736.00
1309.821, 19824.00
1310.888, 19918.00
1311.955, 19883.00
1313.021, 19940.00
1314.088, 19950.00
1315.154, 19942.00
1316.220, 20090.00
1317.286, 20133.00
1318.352, 20009.00
1319.417, 20119.00
1320.483, 20168.00
1321.548, 20103.00
1322.613, 20077.00
1323.678, 20245.00
1324.743, 20092.00
1325.807, 20251.00
1326.872, 20366.00
1327.936, 20405.00
1329.000, 20191.00
1330.064, 20193.00
1331.128, 20086.00
1332.191, 20359.00
1333.255, 20219.00
1334.318, 20308.00
1335.381, 20288.00
1336.444, 20322.00
1337.507, 20239.00
1338.569, 20249.00
1339.632, 20328.00
1340.694, 20395.00
1341.756, 20424.00
1342.818, 20369.00
1343.880, 20495.00
1344.941, 20329.00
1346.003, 20332.00
1347.064, 20361.00
1348.125, 20461.00
1349.186, 20416.00
1350.247, 20446.00
1351.308, 20291.00
1352.368, 20492.00
1353.428, 20403.00
1354.489, 20596.00
1355.549, 20451.00
1356.608, 20550.00
1357.668, 20730.00
1358.727, 20660.00
1359.787, 20538.00
1360.846, 20672.00
1361.905, 20625.00
1362.964, 20648.00
1364.022, 20642.00
1365.081, 20741.00
1366.139, 20653.00
1367.197, 20692.00
1368.255, 20534.00
1369.313, 20567.00
1370.371, 20832.00
1371.428, 20734.00
1372.486, 20834.00
1373.543, 20837.00
1374.600, 20823.00
1375.657, 20849.00
1376.713, 20800.00
1377.770, 21125.00
1378.826, 21055.00
1379.882, 20905.00
1380.938, 21129.00
1381.994, 20894.00
1383.050, 21129.00
1384.106, 21242.00
1385.161, 21397.00
1386.216, 21351.00
1387.271, 21438.00
1388.326, 21532.00
1389.381, 21474.00
1390.435, 21528.00
1391.490, 21691.00
1392.544, 21772.00
1393.598, 21907.00
1394.652, 22019.00
1395.705, 22181.00
1396.759, 22193.00
1397.812, 22290.00
1398.866, 22256.00
1399.919, 22247.00
1400.972, 22254.00
1402.024, 22004.00
1403.077, 22093.00
1404.129, 22057.00
1405.181, 22235.00
1406.233, 22196.00
1407.285, 22165.00
1408.337, 22086.00
1409.389, 22175.00
1410.440, 22206.00
1411.491, 22367.00
1412.542, 22066.00
1413.593, 22082.00
1414.644, 22212.00
1415.695, 22049.00
1416.745, 22079.00
1417.795, 21860.00
1418.845, 21972.00
1419.895, 22008.00
1420.945, 22078.00
1421.995, 21767.00
1423.044, 21651.00
1424.093, 21559.00
1425.142, 21756.00
1426.191, 21749.00
1427.240, 21648.00
1428.289, 21517.00
1429.337, 21733.00
1430.385, 21604.00
1431.433, 21604.00
1432.481, 21681.00
1433.529, 21618.00
1434.577, 21836.00
1435.624, 21727.00
1436.672, 21786.00
1437.719, 21930.00
1438.766, 21895.00
1439.812, 21950.00
1440.859, 22130.00
1441.905, 22081.00
1442.952, 22279.00
1443.998, 22115.00
1445.044, 22140.00
1446.090, 22376.00
1447.135, 22499.00
1448.181, 22278.00
1449.226, 22338.00
1450.271, 22427.00
1451.316, 22644.00
1452.361, 22464.00
1453.405, 22752.00
1454.450, 22753.00
1455.494, 22898.74
1456.538, 23155.00
1457.582, 23239.00
1458.626, 23305.00
1459.670, 23434.00
1460.713, 23491.00
1461.757, 23640.00
1462.800, 23619.10
1463.843, 23698.00
1464.886, 23645.00
1465.928, 23540.00
1466.971, 23690.00
1468.013, 23401.00
1469.055, 23066.00
1470.097, 23008.00
1471.139, 22959.00
1472.181, 22663.00
1473.222, 22693.00
1474.263, 22398.00
1475.305, 22322.00
1476.346, 22105.00
1477.386, 22193.00
1478.427, 22091.00
1479.468, 22258.00
1480.508, 22130.00
1481.548, 22299.00
1482.588, 21926.00
1483.628, 22007.00
1484.668, 21998.00
1485.707, 22173.00
1486.747, 22075.00
1487.786, 22003.00
1488.825, 22023.00
1489.864, 21930.00
1490.902, 22166.00
1491.941, 21993.00
1492.979, 22015.00
1494.017, 22203.00
1495.055, 22206.00
1496.093, 22175.00
1497.131, 22367.00
1498.168, 22241.00
1499.206, 22356.00
1500.243, 22498.00
1501.280, 22461.00
1502.317, 22805.00
1503.354, 22729.00
1504.390, 22665.00
1505.426, 22571.00
1506.463, 22753.00
1507.499, 22611.00
1508.535, 22860.00
1509.570, 22823.00
1510.606, 22682.00
1511.641, 22887.00
1512.676, 22728.00
1513.711, 22647.00
1514.746, 22794.00
1515.781, 22755.00
1516.816, 22539.00
1517.850, 22635.00
1518.884, 22585.00
1519.918, 22722.00
1520.952, 22596.00
1521.986, 22669.00
1523.019, 22806.00
1524.053, 22640.00
1525.086, 22709.00
1526.119, 22893.00
1527.152, 22674.00
1528.185, 22669.00
1529.217, 22749.00
1530.250, 22838.00
1531.282, 22982.00
1532.314, 22814.00
1533.346, 22653.00
1534.377, 22806.00
1535.409, 22893.00
1536.440, 22742.00
1537.472, 22923.00
1538.503, 22763.00
1539.534, 22804.00
1540.564, 22726.00
1541.595, 22824.00
1542.625, 22754.00
1543.656, 22684.00
1544.686, 22864.00
1545.716, 22987.00
1546.745, 22800.00
1547.775, 22882.00
1548.804, 22814.00
1549.834, 22709.00
1550.863, 22935.00
1551.892, 22855.00
1552.920, 22887.00
1553.949, 23108.00
1554.977, 22881.00
1556.006, 23050.00
1557.034, 22959.00
1558.062, 22836.00
1559.089, 22874.00
1560.117, 23123.00
1561.144, 22831.00
1562.172, 22998.00
1563.199, 23029.00
1564.226, 22915.00
1565.252, 22917.00
1566.279, 22966.00
1567.305, 23017.00
1568.332, 23095.00
1569.358, 23102.00
1570.384, 23070.00
1571.409, 23092.00
1572.435, 22975.00
##END=



