##NAMES=Elbaite
##RRUFFID=R050487
##IDEAL CHEMISTRY=Na(Al_1.5_Li_1.5_)Al_6_(Si_6_O_18_)(BO_3_)_3_(OH)_3_OH
##LOCALITY=White Queen mine, Pala, San Diego County, California, USA
##OWNER=RRUFF
##SOURCE=California Institute of Technology
##DESCRIPTION=Mass of blue acicular crystals
##STATUS=The identification of this mineral has been confirmed by X-ray diffraction and chemical analysis
##URL=rruff.info/R050487
##MEASURED CHEMISTRY=(Na_0.86_[box]_0.13_Ca_0.01_)(Al_0.42_Li_0.38_Fe^2+^_0.18_Mn_0.02_)_3_Al_6_(BO_3_)_3_Si_6_O_18_((OH)_0.85_F_0.15_)_4_
##PIN_ID=M00967
##ORIENTATION=Laser parallel to -a* (-1 0 0). Fiducial mark perpendicular to laser is parallel to c [0 0 1]
187.9850, 5947.000
189.2130, 6008.000
190.4400, 5861.000
191.6680, 6038.000
192.8960, 5883.000
194.1230, 5952.000
195.3500, 6000.000
196.5770, 6001.000
197.8030, 6001.000
199.0300, 6103.000
200.2560, 6072.000
201.4830, 6128.000
202.7090, 6148.000
203.9340, 6313.000
205.1600, 6357.000
206.3860, 6493.000
207.6110, 6873.000
208.8360, 7017.000
210.0610, 7402.000
211.2860, 7934.000
212.5100, 8126.000
213.7350, 8595.000
214.9590, 9024.000
216.1830, 9408.000
217.4070, 9831.000
218.6310, 9990.000
219.8540, 10173.00
221.0780, 10257.00
222.3010, 10038.00
223.5240, 9900.000
224.7470, 9554.000
225.9690, 9214.000
227.1920, 8831.000
228.4140, 8514.000
229.6360, 8158.000
230.8580, 7794.000
232.0800, 7600.000
233.3020, 7369.000
234.5230, 7322.000
235.7440, 7059.000
236.9650, 7029.000
238.1860, 6932.000
239.4070, 6863.000
240.6280, 6798.000
241.8480, 6669.000
243.0680, 6619.000
244.2880, 6558.000
245.5080, 6322.000
246.7280, 6197.000
247.9470, 6010.000
249.1660, 5979.000
250.3860, 5885.000
251.6040, 5631.112
252.8230, 5577.873
254.0420, 5526.144
255.2600, 5476.226
256.4790, 5414.295
257.6970, 5382.412
258.9150, 5347.391
260.1320, 5318.348
261.3500, 5308.827
262.5670, 5281.335
263.7840, 5284.295
265.0010, 5327.000
266.2180, 5324.000
267.4350, 5333.000
268.6510, 5385.000
269.8680, 5400.000
271.0840, 5387.021
272.3000, 5383.615
273.5160, 5375.362
274.7310, 5362.534
275.9470, 5331.371
277.1620, 5297.000
278.3770, 5104.000
279.5920, 5071.000
280.8070, 4912.000
282.0210, 4858.000
283.2360, 4846.000
284.4500, 4734.000
285.6640, 4642.000
286.8780, 4621.000
288.0920, 4596.000
289.3050, 4547.000
290.5180, 4555.000
291.7320, 4531.000
292.9450, 4590.000
294.1570, 4538.000
295.3700, 4609.000
296.5830, 4555.000
297.7950, 4548.000
299.0070, 4606.000
300.2190, 4566.000
301.4310, 4700.000
302.6420, 4669.000
303.8540, 4776.000
305.0650, 4877.000
306.2760, 4774.000
307.4870, 4932.000
308.6980, 5051.000
309.9080, 5063.000
311.1190, 5100.000
312.3290, 5152.000
313.5390, 5291.000
314.7490, 5272.000
315.9580, 5434.000
317.1680, 5551.000
318.3770, 5644.000
319.5860, 5820.000
320.7950, 5969.000
322.0040, 6166.000
323.2130, 6272.000
324.4210, 6363.000
325.6290, 6490.000
326.8380, 6692.000
328.0460, 6841.000
329.2530, 6778.000
330.4610, 6902.000
331.6680, 6898.000
332.8760, 6906.000
334.0830, 6862.000
335.2890, 6811.259
336.4960, 6802.301
337.7030, 6788.496
338.9090, 6770.122
340.1150, 6733.426
341.3210, 6720.389
342.5270, 6697.871
343.7330, 6685.583
344.9380, 6670.710
346.1440, 6651.233
347.3490, 6613.451
348.5540, 6622.000
349.7590, 6618.000
350.9630, 6628.000
352.1680, 6651.000
353.3720, 6727.000
354.5760, 6926.000
355.7800, 7062.000
356.9840, 7346.542
358.1870, 7623.000
359.3910, 8025.000
360.5940, 8453.000
361.7970, 8914.000
363.0000, 9519.000
364.2030, 10411.00
365.4050, 10991.00
366.6080, 11718.00
367.8100, 12440.00
369.0120, 13202.00
370.2140, 13504.00
371.4150, 13303.00
372.6170, 13184.00
373.8180, 12786.00
375.0190, 12159.00
376.2200, 11632.00
377.4210, 10895.00
378.6220, 10228.00
379.8220, 9509.000
381.0230, 8920.000
382.2230, 8445.000
383.4230, 8145.000
384.6220, 7727.000
385.8220, 7569.000
387.0220, 7295.000
388.2210, 7158.000
389.4200, 6914.000
390.6190, 6894.000
391.8180, 6680.000
393.0160, 6599.000
394.2150, 6469.000
395.4130, 6396.000
396.6110, 6365.018
397.8090, 6456.000
399.0060, 6350.000
400.2040, 6408.000
401.4010, 6433.000
402.5980, 6461.000
403.7950, 6473.800
404.9920, 6463.245
406.1890, 6447.000
407.3860, 6385.000
408.5820, 6303.000
409.7780, 6177.000
410.9740, 6095.636
412.1700, 5908.000
413.3650, 5840.000
414.5610, 5722.000
415.7560, 5492.000
416.9510, 5377.000
418.1460, 5334.000
419.3410, 5213.000
420.5360, 5204.000
421.7300, 5019.000
422.9240, 4855.000
424.1180, 4947.000
425.3120, 4904.000
426.5060, 4755.000
427.7000, 4841.000
428.8930, 4795.000
430.0860, 4741.000
431.2790, 4706.000
432.4720, 4690.224
433.6650, 4724.000
434.8580, 4693.000
436.0500, 4740.000
437.2420, 4780.000
438.4340, 4766.000
439.6260, 4757.000
440.8180, 4828.000
442.0090, 4880.000
443.2010, 4844.000
444.3920, 4818.000
445.5830, 4797.000
446.7740, 4971.000
447.9640, 5003.000
449.1550, 5002.042
450.3450, 4961.000
451.5350, 4964.000
452.7250, 4952.000
453.9150, 4897.000
455.1050, 4874.000
456.2940, 4909.000
457.4830, 4882.642
458.6720, 4883.432
459.8610, 4879.374
461.0500, 4870.730
462.2390, 4843.763
463.4270, 4840.466
464.6150, 4827.686
465.8040, 4814.509
466.9910, 4784.000
468.1790, 4768.000
469.3670, 4742.399
470.5540, 4730.000
471.7410, 4765.000
472.9280, 4780.000
474.1150, 4855.000
475.3020, 4814.000
476.4890, 4764.000
477.6750, 4810.000
478.8610, 4761.000
480.0470, 4879.000
481.2330, 4959.000
482.4190, 4958.000
483.6040, 5021.000
484.7900, 5068.000
485.9750, 5077.000
487.1600, 5211.000
488.3450, 5199.000
489.5290, 5171.000
490.7140, 5322.000
491.8980, 5307.000
493.0820, 5378.000
494.2660, 5455.834
495.4500, 5444.584
496.6340, 5534.000
497.8170, 5476.000
499.0010, 5389.000
500.1840, 5423.000
501.3670, 5446.000
502.5500, 5339.000
503.7320, 5323.000
504.9150, 5417.000
506.0970, 5255.000
507.2790, 5299.000
508.4610, 5337.000
509.6430, 5303.000
510.8250, 5194.000
512.0060, 5215.000
513.1870, 5180.000
514.3680, 5066.000
515.5490, 5055.000
516.7300, 4971.000
517.9110, 4908.000
519.0910, 4924.000
520.2710, 4900.000
521.4510, 4783.000
522.6310, 4769.000
523.8110, 4740.000
524.9910, 4724.000
526.1700, 4724.000
527.3490, 4700.000
528.5280, 4699.000
529.7070, 4718.000
530.8860, 4769.000
532.0650, 4697.000
533.2430, 4719.000
534.4210, 4590.000
535.5990, 4667.000
536.7770, 4697.000
537.9550, 4583.000
539.1320, 4561.000
540.3100, 4530.000
541.4870, 4561.000
542.6640, 4505.000
543.8410, 4472.000
545.0170, 4436.000
546.1940, 4445.000
547.3700, 4387.000
548.5470, 4416.000
549.7230, 4397.000
550.8980, 4382.000
552.0740, 4340.000
553.2500, 4369.000
554.4250, 4295.000
555.6000, 4381.000
556.7750, 4324.000
557.9500, 4372.000
559.1250, 4377.986
560.2990, 4438.000
561.4730, 4363.000
562.6480, 4352.000
563.8220, 4289.000
564.9950, 4346.000
566.1690, 4265.000
567.3430, 4339.000
568.5160, 4355.000
569.6890, 4240.000
570.8620, 4362.000
572.0350, 4329.000
573.2070, 4267.000
574.3800, 4314.000
575.5520, 4272.000
576.7240, 4292.000
577.8960, 4265.000
579.0680, 4228.000
580.2400, 4286.000
581.4110, 4242.000
582.5830, 4290.000
583.7540, 4301.000
584.9250, 4315.000
586.0950, 4252.000
587.2660, 4297.000
588.4370, 4262.000
589.6070, 4288.000
590.7770, 4258.000
591.9470, 4201.000
593.1170, 4149.000
594.2860, 4136.315
595.4560, 4207.000
596.6250, 4107.000
597.7940, 4170.000
598.9630, 4160.000
600.1320, 4280.000
601.3000, 4201.000
602.4690, 4199.000
603.6370, 4121.000
604.8050, 4187.000
605.9730, 4191.000
607.1410, 4241.000
608.3090, 4212.000
609.4760, 4173.000
610.6430, 4192.000
611.8100, 4210.000
612.9770, 4176.000
614.1440, 4185.000
615.3110, 4264.000
616.4770, 4354.000
617.6430, 4378.000
618.8090, 4405.000
619.9750, 4543.000
621.1410, 4605.000
622.3070, 4747.000
623.4720, 4937.000
624.6370, 5140.000
625.8020, 5344.000
626.9670, 5492.000
628.1320, 5610.000
629.2970, 5600.000
630.4610, 5664.000
631.6250, 5648.000
632.7890, 5507.000
633.9530, 5458.000
635.1170, 5272.000
636.2810, 5192.000
637.4440, 5099.000
638.6070, 5021.000
639.7700, 4928.630
640.9330, 4851.000
642.0960, 4787.521
643.2590, 4727.000
644.4210, 4679.070
645.5830, 4633.000
646.7450, 4601.000
647.9070, 4529.000
649.0690, 4536.000
650.2310, 4434.000
651.3920, 4484.000
652.5530, 4369.000
653.7140, 4390.000
654.8750, 4383.000
656.0360, 4422.000
657.1970, 4332.000
658.3570, 4325.000
659.5170, 4180.000
660.6770, 4138.000
661.8370, 4021.000
662.9970, 4008.000
664.1570, 3967.000
665.3160, 3945.000
666.4750, 3890.000
667.6340, 3861.000
668.7930, 3754.000
669.9520, 3821.000
671.1110, 3707.000
672.2690, 3765.000
673.4270, 3690.000
674.5850, 3746.000
675.7430, 3744.000
676.9010, 3745.000
678.0590, 3758.000
679.2160, 3747.000
680.3730, 3718.000
681.5300, 3777.000
682.6870, 3799.000
683.8440, 3911.000
685.0010, 3910.000
686.1570, 3999.000
687.3130, 4115.000
688.4690, 4254.000
689.6250, 4461.000
690.7810, 4687.000
691.9370, 4963.002
693.0920, 5319.000
694.2470, 5635.000
695.4020, 6052.000
696.5570, 6489.000
697.7120, 6887.000
698.8670, 7250.000
700.0210, 7455.000
701.1750, 7815.000
702.3290, 7863.000
703.4830, 7915.000
704.6370, 7836.000
705.7910, 7554.000
706.9440, 7340.000
708.0970, 7157.000
709.2510, 6645.000
710.4030, 6407.000
711.5560, 5925.000
712.7090, 5664.000
713.8610, 5355.000
715.0140, 5039.000
716.1660, 4837.000
717.3180, 4600.970
718.4690, 4407.000
719.6210, 4275.000
720.7730, 4186.000
721.9240, 4130.000
723.0750, 4056.000
724.2260, 3987.000
725.3770, 4029.000
726.5270, 4047.000
727.6780, 4000.000
728.8280, 4029.000
729.9780, 4044.000
731.1280, 4144.000
732.2780, 4179.000
733.4280, 4207.000
734.5770, 4269.000
735.7260, 4412.000
736.8760, 4513.000
738.0250, 4808.000
739.1730, 4986.000
740.3220, 5164.000
741.4700, 5567.000
742.6190, 5951.000
743.7670, 6433.000
744.9150, 6966.000
746.0630, 7488.000
747.2100, 7935.000
748.3580, 8446.000
749.5050, 8664.000
750.6520, 8844.000
751.7990, 8746.000
752.9460, 8555.000
754.0930, 8153.000
755.2390, 7895.000
756.3860, 7325.000
757.5320, 6870.000
758.6780, 6581.000
759.8240, 6353.000
760.9690, 5933.000
762.1150, 5583.000
763.2600, 5521.000
764.4060, 5406.000
765.5510, 5108.000
766.6950, 5026.000
767.8400, 4840.000
768.9850, 4807.000
770.1290, 4707.000
771.2730, 4714.000
772.4170, 4639.000
773.5610, 4596.000
774.7050, 4503.000
775.8480, 4439.000
776.9920, 4257.000
778.1350, 4181.000
779.2780, 4155.000
780.4210, 3949.000
781.5640, 3907.000
782.7060, 3827.000
783.8490, 3770.000
784.9910, 3712.000
786.1330, 3626.000
787.2750, 3552.000
788.4170, 3551.000
789.5580, 3521.000
790.7000, 3553.000
791.8410, 3518.000
792.9820, 3490.000
794.1230, 3462.000
795.2640, 3433.000
796.4040, 3364.000
797.5450, 3505.000
798.6850, 3435.000
799.8250, 3483.000
800.9650, 3419.000
802.1050, 3379.000
803.2450, 3423.000
804.3840, 3314.000
805.5230, 3426.000
806.6630, 3402.000
807.8020, 3387.000
808.9400, 3461.000
810.0790, 3361.000
811.2170, 3419.000
812.3560, 3457.000
813.4940, 3411.000
814.6320, 3468.000
815.7700, 3456.000
816.9070, 3539.000
818.0450, 3534.000
819.1820, 3573.000
820.3190, 3555.000
821.4560, 3602.489
822.5930, 3628.000
823.7300, 3710.000
824.8670, 3758.000
826.0030, 3862.000
827.1390, 3894.000
828.2750, 4058.000
829.4110, 4102.000
830.5470, 4277.000
831.6820, 4244.000
832.8180, 4387.000
833.9530, 4379.000
835.0880, 4525.000
836.2230, 4554.000
837.3580, 4679.000
838.4920, 4594.000
839.6270, 4605.000
840.7610, 4630.000
841.8950, 4510.000
843.0290, 4548.000
844.1630, 4478.000
845.2960, 4401.000
846.4300, 4342.000
847.5630, 4314.162
848.6960, 4336.000
849.8290, 4276.000
850.9620, 4256.000
852.0940, 4229.000
853.2270, 4218.000
854.3590, 4240.000
855.4910, 4221.114
856.6230, 4245.899
857.7550, 4223.000
858.8870, 4280.000
860.0180, 4300.000
861.1500, 4300.000
862.2810, 4318.000
863.4120, 4151.000
864.5430, 4052.000
865.6730, 4011.000
866.8040, 3982.000
867.9340, 3863.000
869.0640, 3836.000
870.1940, 3645.000
871.3240, 3672.000
872.4540, 3597.000
873.5830, 3580.000
874.7130, 3570.000
875.8420, 3547.000
876.9710, 3499.000
878.1000, 3484.000
879.2290, 3478.740
880.3570, 3389.000
881.4860, 3484.000
882.6140, 3516.000
883.7420, 3515.000
884.8700, 3445.000
885.9980, 3463.000
887.1250, 3493.000
888.2530, 3435.000
889.3800, 3448.000
890.5070, 3453.000
891.6340, 3483.000
892.7610, 3441.000
893.8880, 3495.000
895.0140, 3465.000
896.1400, 3525.000
897.2670, 3403.000
898.3930, 3502.000
899.5180, 3524.000
900.6440, 3445.000
901.7700, 3484.000
902.8950, 3393.000
904.0200, 3407.000
905.1450, 3523.000
906.2700, 3467.000
907.3950, 3456.000
908.5190, 3468.000
909.6440, 3484.000
910.7680, 3444.000
911.8920, 3527.000
913.0160, 3529.000
914.1400, 3521.000
915.2630, 3436.000
916.3870, 3548.000
917.5100, 3485.000
918.6330, 3432.000
919.7560, 3515.000
920.8790, 3580.000
922.0010, 3533.000
923.1240, 3506.000
924.2460, 3500.000
925.3680, 3595.000
926.4900, 3597.000
927.6120, 3612.000
928.7340, 3646.000
929.8550, 3666.000
930.9760, 3696.000
932.0980, 3757.000
933.2190, 3714.000
934.3390, 3727.000
935.4600, 3774.000
936.5810, 3807.000
937.7010, 3801.000
938.8210, 3874.000
939.9410, 3854.000
941.0610, 3908.000
942.1810, 3851.000
943.3010, 3897.000
944.4200, 3872.000
945.5390, 3933.000
946.6580, 3996.000
947.7770, 3973.000
948.8960, 3860.000
950.0150, 4003.000
951.1330, 3989.000
952.2510, 3974.000
953.3690, 4094.000
954.4870, 4160.000
955.6050, 4085.000
956.7230, 4058.000
957.8400, 4097.000
958.9580, 4150.000
960.0750, 4138.000
961.1920, 4167.000
962.3090, 4202.000
963.4250, 4232.000
964.5420, 4232.001
965.6580, 4196.000
966.7740, 4227.000
967.8900, 4257.000
969.0060, 4265.000
970.1220, 4190.000
971.2380, 4127.000
972.3530, 4304.000
973.4680, 4132.000
974.5830, 4213.000
975.6980, 4259.000
976.8130, 4216.000
977.9280, 4301.000
979.0420, 4255.000
980.1560, 4218.000
981.2710, 4192.000
982.3850, 4254.000
983.4980, 4228.000
984.6120, 4309.000
985.7260, 4293.000
986.8390, 4371.000
987.9520, 4268.000
989.0650, 4335.000
990.1780, 4253.000
991.2910, 4225.000
992.4030, 4239.000
993.5160, 4305.000
994.6280, 4253.000
995.7400, 4258.029
996.8520, 4347.508
997.9640, 4402.123
999.0750, 4423.735
1000.187, 4313.549
1001.298, 4373.557
1002.409, 4365.354
1003.520, 4354.356
1004.631, 4438.318
1005.741, 4347.286
1006.852, 4429.742
1007.962, 4442.940
1009.072, 4487.832
1010.182, 4464.093
1011.292, 4491.000
1012.402, 4548.000
1013.511, 4575.000
1014.621, 4557.000
1015.730, 4683.000
1016.839, 4705.000
1017.948, 4871.000
1019.056, 4788.604
1020.165, 4873.432
1021.273, 4936.920
1022.382, 4979.424
1023.490, 4987.137
1024.598, 5002.084
1025.706, 4991.125
1026.813, 5109.000
1027.921, 5103.000
1029.028, 5257.000
1030.135, 5230.000
1031.242, 5415.000
1032.349, 5389.000
1033.456, 5583.000
1034.562, 5597.000
1035.668, 5714.000
1036.775, 5878.000
1037.881, 6173.000
1038.987, 6416.000
1040.092, 6650.000
1041.198, 7088.000
1042.303, 7307.000
1043.408, 7668.000
1044.514, 8068.000
1045.618, 8414.000
1046.723, 8791.468
1047.828, 9118.000
1048.932, 9487.000
1050.037, 9752.000
1051.141, 10006.00
1052.245, 10409.00
1053.349, 10346.00
1054.452, 10524.00
1055.556, 10581.00
1056.659, 10435.00
1057.762, 10394.00
1058.865, 10117.00
1059.968, 9953.000
1061.071, 9434.000
1062.174, 9104.000
1063.276, 8774.000
1064.378, 8379.000
1065.480, 8062.580
1066.582, 7702.000
1067.684, 7367.000
1068.786, 7129.000
1069.887, 6751.000
1070.988, 6604.000
1072.090, 6343.000
1073.191, 6240.000
1074.291, 6045.000
1075.392, 5867.000
1076.493, 5888.000
1077.593, 5728.000
1078.693, 5756.000
1079.793, 5642.000
1080.893, 5569.000
1081.993, 5594.000
1083.092, 5583.000
1084.192, 5435.000
1085.291, 5442.000
1086.390, 5316.000
1087.489, 5127.000
1088.588, 5024.000
1089.686, 4910.709
1090.785, 4790.000
1091.883, 4727.000
1092.981, 4604.000
1094.079, 4514.000
1095.177, 4432.000
1096.275, 4353.201
1097.373, 4242.000
1098.470, 4238.000
1099.567, 4159.000
1100.664, 4125.000
1101.761, 4129.000
1102.858, 4102.000
1103.954, 4007.000
1105.051, 4040.000
1106.147, 3930.000
1107.243, 4062.000
1108.339, 3952.000
1109.435, 3966.000
1110.531, 4000.000
1111.626, 4009.000
1112.722, 3957.000
1113.817, 4047.000
1114.912, 3962.000
1116.007, 3870.000
1117.101, 3940.000
1118.196, 3788.000
1119.290, 3773.000
1120.385, 3798.000
1121.479, 3732.000
1122.573, 3789.000
1123.666, 3699.000
1124.760, 3673.000
1125.853, 3558.000
1126.947, 3638.000
1128.040, 3693.000
1129.133, 3642.000
1130.226, 3622.000
1131.318, 3600.000
1132.411, 3605.000
1133.503, 3589.260
1134.596, 3564.360
1135.688, 3562.000
1136.780, 3520.000
1137.871, 3469.000
1138.963, 3467.000
1140.054, 3455.000
1141.146, 3463.000
1142.237, 3507.000
1143.328, 3448.000
1144.419, 3460.000
1145.509, 3471.000
1146.600, 3360.000
1147.690, 3473.000
1148.780, 3441.000
1149.870, 3340.000
1150.960, 3478.000
1152.050, 3436.000
1153.139, 3409.000
1154.229, 3371.000
1155.318, 3452.000
1156.407, 3360.000
1157.496, 3419.000
1158.585, 3540.000
1159.674, 3438.000
1160.762, 3448.000
1161.850, 3511.000
1162.939, 3502.000
1164.027, 3421.000
1165.114, 3405.000
1166.202, 3401.000
1167.290, 3376.948
1168.377, 3490.000
1169.464, 3415.000
1170.551, 3439.000
1171.638, 3537.000
1172.725, 3491.000
1173.812, 3524.000
1174.898, 3456.000
1175.984, 3565.000
1177.071, 3470.000
1178.157, 3463.000
1179.242, 3542.000
1180.328, 3556.000
1181.414, 3508.000
1182.499, 3477.000
1183.584, 3472.000
1184.669, 3488.000
1185.754, 3570.000
1186.839, 3530.000
1187.924, 3534.000
1189.008, 3513.000
1190.092, 3483.000
1191.177, 3501.000
1192.260, 3473.627
1193.344, 3460.156
1194.428, 3447.000
1195.512, 3420.000
1196.595, 3401.000
1197.678, 3373.000
1198.761, 3381.760
1199.844, 3474.000
1200.927, 3408.000
1202.009, 3472.000
1203.092, 3496.000
1204.174, 3431.000
1205.256, 3467.000
1206.338, 3359.000
1207.420, 3434.000
1208.502, 3419.000
1209.583, 3457.000
1210.665, 3492.000
1211.746, 3498.000
1212.827, 3495.000
1213.908, 3468.000
1214.988, 3489.000
1216.069, 3512.000
1217.149, 3559.000
1218.230, 3596.000
1219.310, 3614.000
1220.390, 3529.000
1221.470, 3537.000
1222.549, 3478.000
1223.629, 3647.000
1224.708, 3655.000
1225.787, 3622.000
1226.866, 3600.000
1227.945, 3626.000
1229.024, 3606.315
1230.103, 3614.586
1231.181, 3627.000
1232.259, 3642.000
1233.337, 3689.000
1234.415, 3743.000
1235.493, 3762.000
1236.571, 3815.000
1237.648, 3810.000
1238.726, 3813.000
1239.803, 3766.000
1240.880, 3747.000
1241.957, 3784.000
1243.034, 3838.000
1244.110, 3729.000
1245.187, 3858.000
1246.263, 3813.000
1247.339, 3865.000
1248.415, 3774.000
1249.491, 3816.000
1250.566, 3850.000
1251.642, 3808.000
1252.717, 3858.000
1253.793, 3868.000
1254.868, 3827.000
1255.943, 3897.000
1257.017, 3904.000
1258.092, 3890.000
1259.166, 3944.000
1260.241, 3858.000
1261.315, 3862.000
1262.389, 3909.000
1263.462, 3940.000
1264.536, 3977.000
1265.610, 3973.000
1266.683, 3973.000
1267.756, 4004.000
1268.829, 3992.000
1269.902, 4050.000
1270.975, 4036.000
1272.048, 4102.000
1273.120, 4024.000
1274.192, 4057.000
1275.264, 4122.000
1276.336, 4033.000
1277.408, 4015.000
1278.480, 4001.000
1279.551, 3980.000
1280.623, 3993.000
1281.694, 3937.000
1282.765, 3941.000
1283.836, 3950.000
1284.907, 4037.000
1285.977, 3932.000
1287.048, 3886.000
1288.118, 3957.000
1289.188, 4056.000
1290.258, 3955.000
1291.328, 3988.000
1292.398, 4029.000
1293.467, 4131.000
1294.537, 4079.000
1295.606, 4101.000
1296.675, 4081.000
1297.744, 4019.000
1298.813, 4044.000
1299.882, 4045.000
1300.950, 3991.000
1302.018, 4043.000
1303.086, 4070.000
1304.155, 4014.000
1305.222, 4070.000
1306.290, 4156.000
1307.358, 4049.000
1308.425, 4107.000
1309.492, 4186.000
1310.559, 4203.000
1311.626, 4191.000
1312.693, 4187.000
1313.760, 4206.000
1314.826, 4168.000
1315.893, 4083.000
1316.959, 4195.000
1318.025, 4221.000
1319.091, 4208.000
1320.157, 4072.000
1321.222, 4161.000
1322.288, 4120.000
1323.353, 4155.000
1324.418, 4147.000
1325.483, 4038.000
1326.548, 3991.000
1327.612, 4116.000
1328.677, 3974.000
1329.741, 4056.000
1330.806, 3905.000
1331.870, 3919.000
1332.934, 3911.000
1333.997, 3868.000
1335.061, 3818.000
1336.124, 3846.000
1337.188, 3886.000
1338.251, 3955.000
1339.314, 3896.000
1340.377, 3938.000
1341.439, 3858.000
1342.502, 3877.000
1343.564, 3964.000
1344.627, 3853.000
1345.689, 3922.000
1346.751, 3901.000
1347.813, 3893.000
1348.874, 3904.000
1349.936, 3917.000
1350.997, 3926.496
1352.058, 3955.000
1353.119, 3945.000
1354.180, 3941.000
1355.241, 3918.000
1356.301, 3935.000
1357.362, 3940.000
1358.422, 3916.000
1359.482, 3955.000
1360.542, 3988.000
1361.602, 4017.000
1362.662, 4065.000
1363.721, 4022.000
1364.781, 4035.000
1365.840, 4028.000
1366.899, 4098.000
1367.958, 4081.000
1369.017, 4160.000
1370.075, 4100.000
1371.134, 4223.000
1372.192, 4321.000
1373.250, 4311.000
1374.308, 4341.000
1375.366, 4343.000
1376.424, 4338.000
1377.481, 4367.000
1378.539, 4397.000
1379.596, 4440.000
1380.653, 4425.000
1381.710, 4368.000
1382.767, 4388.000
1383.824, 4340.000
1384.880, 4299.000
1385.937, 4294.000
1386.993, 4177.000
1388.049, 4222.000
1389.105, 4210.000
1390.161, 4214.000
1391.216, 4120.000
1392.272, 4159.000
1393.327, 4075.000
1394.382, 4067.000
1395.437, 4048.000
1396.492, 3988.000
1397.547, 3970.000
1398.601, 3984.000
1399.656, 3966.000
1400.710, 3931.000
1401.764, 3910.000
1402.818, 3929.000
1403.872, 3939.000
1404.925, 3914.000
1405.979, 4007.000
1407.032, 3897.000
1408.085, 3831.000
1409.139, 3825.000
1410.191, 3879.000
1411.244, 3946.000
1412.297, 3852.000
1413.349, 3888.000
1414.402, 3889.000
1415.454, 3845.000
1416.506, 3842.000
1417.558, 3892.000
1418.609, 3762.000
1419.661, 3870.000
1420.712, 3794.000
1421.764, 3800.000
1422.815, 3792.000
1423.866, 3813.000
1424.916, 3853.000
1425.967, 3860.747
1427.018, 3827.000
1428.068, 3902.000
1429.118, 3872.000
1430.168, 3879.000
1431.218, 3901.000
1432.268, 3984.000
1433.318, 3964.000
1434.367, 3968.000
1435.416, 4099.000
1436.465, 4062.000
1437.514, 4138.000
1438.563, 4316.000
1439.612, 4330.927
1440.661, 4414.000
1441.709, 4481.000
1442.757, 4521.000
1443.805, 4560.000
1444.853, 4551.000
1445.901, 4578.000
1446.949, 4561.000
1447.996, 4633.000
1449.044, 4665.000
1450.091, 4707.000
1451.138, 4674.000
1452.185, 4695.000
1453.232, 4730.000
1454.278, 4763.000
1455.325, 4754.000
1456.371, 4740.000
1457.417, 4720.000
1458.463, 4649.000
1459.509, 4598.000
1460.555, 4556.407
1461.601, 4518.000
1462.646, 4438.000
1463.691, 4396.000
1464.737, 4287.000
1465.782, 4219.000
1466.826, 4117.000
1467.871, 4104.000
1468.916, 4023.000
1469.960, 4040.000
1471.004, 3930.000
1472.048, 3915.000
1473.092, 3956.000
1474.136, 3958.000
1475.180, 3897.000
1476.223, 3805.000
1477.267, 3819.000
1478.310, 3848.000
1479.353, 3823.000
1480.396, 3856.000
1481.439, 3848.000
1482.481, 3731.000
1483.524, 3816.000
1484.566, 3728.000
1485.608, 3716.000
1486.650, 3710.000
1487.692, 3592.000
1488.734, 3586.000
1489.775, 3576.000
1490.817, 3592.000
1491.858, 3499.000
1492.899, 3500.000
1493.940, 3459.000
1494.981, 3542.000
1496.022, 3535.000
1497.062, 3518.000
1498.103, 3428.000
1499.143, 3380.000
1500.183, 3497.000
1501.223, 3418.000
1502.263, 3474.000
1503.302, 3443.000
1504.342, 3467.000
1505.381, 3474.000
1506.420, 3532.000
1507.459, 3498.000
1508.498, 3530.000
1509.537, 3451.000
1510.576, 3548.000
1511.614, 3411.000
1512.652, 3460.000
1513.691, 3438.000
1514.729, 3451.000
1515.767, 3469.000
1516.804, 3477.318
1517.842, 3452.000
1518.879, 3512.000
1519.917, 3514.000
1520.954, 3513.000
1521.991, 3445.000
1523.028, 3525.000
1524.064, 3469.000
1525.101, 3519.000
1526.137, 3544.000
1527.173, 3482.000
1528.210, 3476.000
1529.245, 3587.000
1530.281, 3552.000
1531.317, 3518.000
1532.352, 3513.000
1533.388, 3505.000
1534.423, 3539.000
1535.458, 3518.000
1536.493, 3505.000
1537.528, 3532.000
1538.562, 3461.000
1539.597, 3498.013
1540.631, 3488.000
1541.665, 3524.000
1542.700, 3505.000
1543.733, 3505.000
1544.767, 3518.000
1545.801, 3529.000
1546.834, 3525.000
1547.868, 3547.000
1548.901, 3464.000
1549.934, 3446.000
1550.967, 3492.000
1551.999, 3516.000
1553.032, 3536.000
1554.064, 3565.000
1555.097, 3508.000
1556.129, 3597.000
1557.161, 3456.000
1558.193, 3487.000
1559.224, 3453.000
1560.256, 3477.000
1561.287, 3461.000
1562.318, 3502.000
1563.350, 3451.000
##END=



