##NAMES=Elbaite
##RRUFFID=R060562
##IDEAL CHEMISTRY=Na(Al_1.5_Li_1.5_)Al_6_(Si_6_O_18_)(BO_3_)_3_(OH)_3_OH
##LOCALITY=unknown
##OWNER=RRUFF
##SOURCE=Gemological Institute of America
##DESCRIPTION=Blue colored polished fragment
##STATUS=The identification of this mineral has been confirmed by X-ray diffraction and chemical analysis
##URL=rruff.info/R060562
##MEASURED CHEMISTRY=(Na_0.68_Ca_0.20_[box]_0.12_)(Li_1.20_Al_1.12_Fe^2+^_0.50_Mn_0.18_)Al_6_(BO_3_)_3_[Si_6_O_18_]((OH)_0.80_F_0.20_)_4_
##PIN_ID=L01792
##ORIENTATION=Laser parallel to -a* (-1 0 0). Fiducial mark perpendicular to laser is parallel to c [0 0 1]
118.1340, 16370.00
119.3650, 16443.00
120.5960, 16573.00
121.8270, 17194.00
123.0580, 17931.00
124.2880, 18136.00
125.5190, 18377.00
126.7490, 18768.00
127.9790, 19290.00
129.2090, 19636.00
130.4390, 19920.00
131.6680, 20098.76
132.8980, 20324.00
134.1270, 20098.00
135.3560, 20144.00
136.5850, 19814.00
137.8140, 19866.00
139.0430, 19913.00
140.2710, 19840.00
141.5000, 19731.00
142.7280, 19512.00
143.9560, 19571.00
145.1840, 19637.00
146.4120, 20026.00
147.6390, 20368.00
148.8670, 20206.00
150.0940, 20767.00
151.3210, 21465.00
152.5490, 21614.00
153.7750, 21660.00
155.0020, 21831.00
156.2290, 21956.00
157.4550, 22063.00
158.6810, 21968.00
159.9080, 21783.00
161.1340, 21725.00
162.3590, 21596.00
163.5850, 21339.00
164.8110, 21176.00
166.0360, 20815.00
167.2610, 20368.00
168.4860, 19959.00
169.7110, 19823.00
170.9360, 19827.00
172.1610, 19187.00
173.3850, 19012.00
174.6100, 18928.00
175.8340, 18627.00
177.0580, 18614.00
178.2820, 18636.00
179.5050, 18569.00
180.7290, 18613.00
181.9520, 18698.00
183.1760, 18671.00
184.3990, 18884.00
185.6220, 19143.00
186.8450, 19514.00
188.0670, 19566.00
189.2900, 19809.00
190.5120, 20280.00
191.7340, 20684.00
192.9560, 21024.00
194.1780, 21365.00
195.4000, 21417.00
196.6220, 21546.00
197.8430, 21840.00
199.0640, 22134.00
200.2860, 22461.00
201.5070, 22765.00
202.7270, 23034.00
203.9480, 22852.00
205.1690, 22877.00
206.3890, 23028.00
207.6090, 23515.00
208.8290, 24266.00
210.0490, 25261.00
211.2690, 26250.00
212.4890, 27448.00
213.7080, 28797.00
214.9280, 30352.00
216.1470, 31687.00
217.3660, 33433.00
218.5850, 35175.00
219.8030, 36322.00
221.0220, 37539.00
222.2400, 38423.00
223.4590, 38690.00
224.6770, 38670.00
225.8950, 38507.00
227.1120, 37794.00
228.3300, 37032.00
229.5480, 36448.00
230.7650, 35751.00
231.9820, 35290.00
233.1990, 34846.00
234.4160, 34168.00
235.6330, 33953.00
236.8490, 33546.00
238.0660, 33202.00
239.2820, 32719.00
240.4980, 32011.51
241.7140, 31269.00
242.9300, 30239.00
244.1460, 29070.00
245.3610, 27713.00
246.5770, 26474.00
247.7920, 24811.00
249.0070, 23856.00
250.2220, 22715.00
251.4370, 21620.00
252.6510, 20976.00
253.8660, 20309.00
255.0800, 19559.00
256.2940, 19426.00
257.5080, 19347.00
258.7220, 18889.82
259.9360, 18642.21
261.1490, 18350.00
262.3630, 17930.00
263.5760, 17659.00
264.7890, 17462.00
266.0020, 17474.00
267.2150, 17433.00
268.4270, 17452.00
269.6400, 17491.42
270.8520, 17511.69
272.0640, 17614.00
273.2760, 17634.00
274.4880, 17723.00
275.7000, 17844.00
276.9120, 17989.00
278.1230, 17916.00
279.3340, 17956.53
280.5450, 17939.23
281.7560, 17901.00
282.9670, 17790.00
284.1780, 17832.00
285.3880, 17620.00
286.5980, 17572.00
287.8090, 17544.00
289.0190, 17608.00
290.2290, 17560.00
291.4380, 17459.00
292.6480, 17530.00
293.8570, 17571.00
295.0670, 17631.82
296.2760, 17924.00
297.4850, 17908.00
298.6930, 17972.00
299.9020, 18245.00
301.1110, 18598.00
302.3190, 18834.00
303.5270, 19143.00
304.7350, 19318.00
305.9430, 19705.00
307.1510, 20117.00
308.3580, 20378.00
309.5660, 20991.00
310.7730, 21236.00
311.9800, 21711.00
313.1870, 22109.00
314.3940, 22513.00
315.6010, 22981.00
316.8070, 23261.00
318.0130, 23792.00
319.2200, 24231.00
320.4260, 25001.00
321.6310, 25395.00
322.8370, 25861.00
324.0430, 26342.00
325.2480, 26758.00
326.4540, 27088.00
327.6590, 27636.00
328.8640, 27816.00
330.0680, 27981.00
331.2730, 27629.00
332.4780, 27717.00
333.6820, 27530.00
334.8860, 27548.00
336.0900, 27253.00
337.2940, 27111.00
338.4980, 26846.00
339.7010, 26944.00
340.9050, 26865.00
342.1080, 26698.00
343.3110, 26638.00
344.5140, 26430.00
345.7170, 26476.00
346.9200, 26513.00
348.1220, 26392.00
349.3240, 26718.00
350.5270, 26617.00
351.7290, 27140.00
352.9310, 27323.00
354.1320, 27685.00
355.3340, 28229.00
356.5350, 28834.00
357.7370, 29830.00
358.9380, 31012.00
360.1390, 32122.00
361.3400, 34125.00
362.5400, 35988.00
363.7410, 38674.00
364.9410, 41585.00
366.1410, 44490.00
367.3410, 48405.00
368.5410, 52208.00
369.7410, 56268.00
370.9400, 58969.00
372.1400, 61031.00
373.3390, 61633.00
374.5380, 60562.00
375.7370, 58375.00
376.9360, 55554.00
378.1350, 52484.00
379.3330, 48801.00
380.5310, 46119.00
381.7300, 42917.00
382.9280, 40293.00
384.1260, 37774.00
385.3230, 35739.00
386.5210, 33966.07
387.7180, 32625.00
388.9160, 31320.00
390.1130, 30622.00
391.3100, 29969.00
392.5060, 29182.00
393.7030, 28621.00
394.9000, 28223.00
396.0960, 27884.00
397.2920, 27861.00
398.4880, 28093.00
399.6840, 27953.00
400.8800, 28213.00
402.0750, 28577.00
403.2710, 28728.00
404.4660, 28860.00
405.6610, 29120.00
406.8560, 29140.00
408.0510, 29119.00
409.2450, 28641.00
410.4400, 28150.00
411.6340, 27359.00
412.8280, 26348.00
414.0220, 25612.00
415.2160, 24569.00
416.4100, 23838.00
417.6030, 23115.00
418.7970, 22390.00
419.9900, 21909.00
421.1830, 21316.00
422.3760, 21083.00
423.5690, 20812.00
424.7610, 20639.00
425.9540, 20417.00
427.1460, 20143.00
428.3380, 19805.00
429.5300, 19809.00
430.7220, 19606.00
431.9140, 19550.00
433.1050, 19508.00
434.2970, 19457.00
435.4880, 19437.00
436.6790, 19416.00
437.8700, 19493.00
439.0610, 19506.46
440.2510, 19553.00
441.4420, 19628.00
442.6320, 19850.00
443.8220, 19955.00
445.0120, 19936.00
446.2020, 20254.00
447.3910, 20364.00
448.5810, 20646.00
449.7700, 20474.00
450.9600, 20778.00
452.1490, 20886.00
453.3370, 20668.00
454.5260, 20737.00
455.7150, 20873.00
456.9030, 20813.00
458.0910, 21073.00
459.2800, 21196.00
460.4670, 20954.00
461.6550, 21150.00
462.8430, 21099.00
464.0300, 20940.00
465.2180, 21019.00
466.4050, 20963.00
467.5920, 20812.00
468.7790, 20605.00
469.9650, 20530.39
471.1520, 20470.00
472.3380, 20340.00
473.5250, 20252.00
474.7110, 20254.00
475.8970, 20245.00
477.0820, 20314.00
478.2680, 20436.00
479.4540, 20599.00
480.6390, 20847.00
481.8240, 21134.00
483.0090, 21305.00
484.1940, 21569.00
485.3780, 21888.00
486.5630, 22413.00
487.7470, 22501.00
488.9320, 22676.00
490.1160, 23098.00
491.3000, 23159.00
492.4830, 23510.00
493.6670, 23428.00
494.8500, 23606.00
496.0340, 23693.00
497.2170, 23408.00
498.4000, 23589.00
499.5820, 23386.00
500.7650, 23002.00
501.9480, 23030.00
503.1300, 23121.00
504.3120, 23090.00
505.4940, 22915.00
506.6760, 22709.00
507.8580, 22408.00
509.0390, 22539.00
510.2210, 22114.00
511.4020, 21810.00
512.5830, 21852.00
513.7640, 21472.00
514.9450, 21305.00
516.1250, 21054.00
517.3060, 20603.00
518.4860, 20233.00
519.6660, 19986.00
520.8460, 19847.00
522.0260, 19632.00
523.2060, 19216.00
524.3850, 19195.00
525.5650, 18849.00
526.7440, 18784.00
527.9230, 18758.00
529.1020, 18882.00
530.2810, 18697.00
531.4590, 18934.00
532.6380, 18561.00
533.8160, 18548.00
534.9940, 18546.00
536.1720, 18377.00
537.3500, 18680.00
538.5270, 18358.00
539.7050, 18564.00
540.8820, 18318.00
542.0590, 18344.00
543.2360, 18325.00
544.4130, 18277.00
545.5900, 18177.00
546.7660, 18232.00
547.9430, 18229.02
549.1190, 18255.00
550.2950, 18317.00
551.4710, 18081.00
552.6470, 18078.00
553.8220, 18078.00
554.9980, 17996.00
556.1730, 18028.00
557.3480, 17960.00
558.5230, 17906.00
559.6980, 17675.00
560.8730, 17733.00
562.0470, 17395.00
563.2220, 17647.00
564.3960, 17779.00
565.5700, 17586.00
566.7440, 17376.00
567.9170, 17455.00
569.0910, 17506.00
570.2640, 17447.00
571.4380, 17396.00
572.6110, 17465.00
573.7840, 17492.00
574.9570, 17537.00
576.1290, 17481.00
577.3020, 17551.00
578.4740, 17366.00
579.6460, 17368.00
580.8180, 17357.00
581.9900, 17270.00
583.1620, 17300.48
584.3330, 17434.00
585.5040, 17350.00
586.6760, 17356.00
587.8470, 17473.00
589.0180, 17484.00
590.1880, 17514.00
591.3590, 17341.00
592.5290, 17351.00
593.7000, 17208.00
594.8700, 17295.00
596.0400, 17447.00
597.2090, 17472.00
598.3790, 17523.00
599.5490, 17696.00
600.7180, 17572.00
601.8870, 17588.00
603.0560, 17665.00
604.2250, 17670.00
605.3940, 17610.00
606.5620, 17959.00
607.7300, 17694.00
608.8990, 17811.00
610.0670, 17988.00
611.2350, 17938.00
612.4020, 18055.00
613.5700, 18585.00
614.7370, 18362.28
615.9050, 19396.00
617.0720, 18406.00
618.2390, 18556.00
619.4060, 18934.00
620.5720, 19479.00
621.7390, 19717.00
622.9050, 20530.00
624.0710, 21065.00
625.2370, 21870.00
626.4030, 22622.00
627.5690, 23263.00
628.7340, 23847.00
629.9000, 24340.00
631.0650, 24561.00
632.2300, 24487.92
633.3950, 24164.00
634.5600, 23776.00
635.7240, 23129.00
636.8890, 22398.00
638.0530, 21483.00
639.2170, 20841.00
640.3810, 20351.00
641.5450, 19861.00
642.7080, 19346.00
643.8720, 19061.00
645.0350, 18776.00
646.1980, 18634.00
647.3610, 18447.44
648.5240, 18248.00
649.6870, 18247.00
650.8490, 18226.00
652.0120, 18224.00
653.1740, 18370.00
654.3360, 18361.00
655.4980, 18413.00
656.6600, 18335.00
657.8210, 18466.00
658.9830, 18410.00
660.1440, 18329.00
661.3050, 18362.00
662.4660, 18184.00
663.6270, 18281.00
664.7870, 18115.00
665.9480, 18140.00
667.1080, 18022.00
668.2680, 17766.00
669.4280, 17855.00
670.5880, 17708.05
671.7480, 17807.00
672.9070, 17666.00
674.0670, 17717.00
675.2260, 17835.00
676.3850, 17639.00
677.5440, 17782.00
678.7030, 17858.00
679.8610, 17690.00
681.0200, 17558.00
682.1780, 17704.00
683.3360, 17838.00
684.4940, 17774.00
685.6520, 17964.00
686.8090, 18420.00
687.9670, 18821.00
689.1240, 19253.00
690.2810, 19999.00
691.4380, 20771.00
692.5950, 21716.00
693.7520, 22858.00
694.9080, 24353.00
696.0650, 25761.00
697.2210, 27618.00
698.3770, 29176.00
699.5330, 31311.00
700.6880, 32968.00
701.8440, 34684.00
702.9990, 36099.00
704.1550, 37463.00
705.3100, 38201.00
706.4650, 38620.00
707.6190, 38403.00
708.7740, 37638.00
709.9290, 36182.00
711.0830, 35015.00
712.2370, 32969.00
713.3910, 31098.00
714.5450, 29535.00
715.6980, 27695.00
716.8520, 26117.00
718.0050, 24835.00
719.1580, 23730.00
720.3110, 22635.00
721.4640, 22114.67
722.6170, 21602.00
723.7700, 21444.00
724.9220, 20901.00
726.0740, 20759.00
727.2260, 20748.00
728.3780, 20857.00
729.5300, 21081.00
730.6810, 21366.00
731.8330, 21566.00
732.9840, 22186.00
734.1350, 22661.00
735.2860, 23097.00
736.4370, 23600.00
737.5880, 24344.00
738.7380, 25030.00
739.8880, 25998.00
741.0390, 26753.00
742.1890, 27660.00
743.3380, 28930.00
744.4880, 29907.00
745.6380, 31093.00
746.7870, 32116.00
747.9360, 33248.00
749.0850, 34202.00
750.2340, 34933.00
751.3830, 35276.00
752.5310, 35480.00
753.6800, 35014.00
754.8280, 34237.00
755.9760, 33225.00
757.1240, 32202.00
758.2720, 31286.00
759.4190, 30365.00
760.5670, 29413.00
761.7140, 28534.00
762.8610, 28010.00
764.0080, 27545.00
765.1550, 26763.00
766.3020, 26388.00
767.4480, 26135.00
768.5950, 25918.00
769.7410, 25387.00
770.8870, 25372.00
772.0330, 25061.00
773.1780, 24813.00
774.3240, 24406.00
775.4690, 23989.00
776.6140, 23143.00
777.7590, 22497.00
778.9040, 21696.00
780.0490, 20836.00
781.1940, 20292.00
782.3380, 19696.00
783.4820, 19205.00
784.6260, 18945.00
785.7700, 18590.00
786.9140, 18467.00
788.0580, 18208.00
789.2010, 18084.00
790.3450, 17732.00
791.4880, 17664.00
792.6310, 17542.00
793.7730, 17468.00
794.9160, 17400.00
796.0590, 17343.86
797.2010, 17288.89
798.3430, 17310.00
799.4850, 17271.00
800.6270, 17334.00
801.7690, 17497.00
802.9100, 17509.00
804.0520, 17601.00
805.1930, 17676.71
806.3340, 17725.78
807.4750, 17812.00
808.6160, 17836.00
809.7560, 17920.00
810.8970, 17937.50
812.0370, 17739.00
813.1770, 17789.00
814.3170, 17614.00
815.4570, 17372.00
816.5960, 17343.00
817.7360, 17052.00
818.8750, 16856.00
820.0140, 16766.00
821.1530, 16707.00
822.2920, 16854.00
823.4310, 16734.00
824.5690, 16875.00
825.7070, 16914.00
826.8460, 17247.00
827.9840, 17199.00
829.1220, 17568.00
830.2590, 17724.00
831.3970, 17961.00
832.5340, 18100.00
833.6710, 18171.00
834.8080, 18446.00
835.9450, 18402.00
837.0820, 18330.00
838.2190, 18261.00
839.3550, 18075.00
840.4910, 17989.00
841.6270, 17934.00
842.7630, 17724.00
843.8990, 17462.00
845.0350, 17548.00
846.1700, 17422.00
847.3060, 17336.07
848.4410, 17490.00
849.5760, 17174.00
850.7100, 17124.00
851.8450, 16998.00
852.9800, 17152.00
854.1140, 17034.00
855.2480, 17199.00
856.3820, 17375.00
857.5160, 16979.00
858.6500, 16993.00
859.7830, 16867.00
860.9170, 17006.00
862.0500, 16743.00
863.1830, 16736.00
864.3160, 16482.00
865.4480, 16560.00
866.5810, 16232.00
867.7130, 16381.00
868.8460, 16312.00
869.9780, 16190.00
871.1100, 16121.00
872.2410, 16135.00
873.3730, 16277.00
874.5050, 16002.00
875.6360, 15842.00
876.7670, 15769.00
877.8980, 15939.00
879.0290, 15856.00
880.1590, 15705.00
881.2900, 15797.00
882.4200, 15687.00
883.5500, 15685.00
884.6800, 15820.00
885.8100, 15612.00
886.9400, 15845.00
888.0690, 15797.00
889.1990, 15835.00
890.3280, 15865.00
891.4570, 15644.00
892.5860, 15820.00
893.7140, 15686.00
894.8430, 15674.00
895.9710, 15810.00
897.1000, 15934.00
898.2280, 15857.00
899.3560, 15884.00
900.4830, 15855.00
901.6110, 15854.00
902.7380, 15967.00
903.8660, 15791.00
904.9930, 16061.00
906.1200, 16070.00
907.2460, 15916.00
908.3730, 15986.00
909.5000, 16007.00
910.6260, 15990.33
911.7520, 16084.82
912.8780, 16076.00
914.0040, 16241.00
915.1290, 16355.00
916.2550, 16456.00
917.3800, 16334.00
918.5050, 16443.00
919.6300, 16516.00
920.7550, 16499.00
921.8800, 16773.00
923.0040, 16764.00
924.1290, 16898.00
925.2530, 16982.00
926.3770, 17132.00
927.5010, 17262.00
928.6250, 17325.73
929.7480, 17287.00
930.8720, 17518.00
931.9950, 17477.00
933.1180, 17687.00
934.2410, 17854.00
935.3640, 17956.00
936.4860, 18141.00
937.6090, 18115.00
938.7310, 18284.00
939.8530, 18123.00
940.9750, 18473.00
942.0970, 18537.00
943.2180, 18522.00
944.3400, 18704.00
945.4610, 18891.00
946.5820, 18958.00
947.7030, 19082.00
948.8240, 19148.00
949.9450, 19140.00
951.0650, 19348.00
952.1860, 19368.00
953.3060, 19564.00
954.4260, 19656.08
955.5460, 19790.00
956.6650, 19867.00
957.7850, 19768.00
958.9040, 19864.00
960.0230, 20058.00
961.1420, 20117.00
962.2610, 20304.00
963.3800, 20573.00
964.4990, 20551.00
965.6170, 20679.00
966.7350, 20650.00
967.8530, 20757.00
968.9710, 20811.00
970.0890, 20969.00
971.2070, 20930.00
972.3240, 21185.00
973.4410, 21052.00
974.5580, 21060.00
975.6750, 21084.00
976.7920, 21213.00
977.9090, 21201.00
979.0250, 21217.00
980.1410, 21237.13
981.2580, 21078.00
982.3740, 21145.00
983.4890, 21122.00
984.6050, 20931.00
985.7200, 20977.00
986.8360, 20875.00
987.9510, 21146.00
989.0660, 20950.00
990.1810, 20937.00
991.2950, 20801.00
992.4100, 21214.00
993.5240, 21080.00
994.6390, 21101.00
995.7530, 21107.00
996.8660, 21071.00
997.9800, 21377.00
999.0940, 21317.00
1000.207, 21678.00
1001.320, 21551.00
1002.433, 21653.00
1003.546, 21973.00
1004.659, 21916.00
1005.772, 22041.00
1006.884, 22273.00
1007.996, 22277.00
1009.108, 22395.00
1010.220, 22512.00
1011.332, 22768.00
1012.444, 22860.00
1013.555, 22883.00
1014.666, 23149.00
1015.777, 23083.00
1016.888, 23420.00
1017.999, 23559.10
1019.110, 23815.00
1020.220, 23905.00
1021.331, 24026.00
1022.441, 24061.00
1023.551, 24175.00
1024.661, 24484.00
1025.770, 24450.00
1026.880, 24823.00
1027.989, 25026.00
1029.098, 25419.00
1030.207, 25547.00
1031.316, 26008.00
1032.425, 26341.00
1033.533, 26998.00
1034.642, 27561.00
1035.750, 28314.00
1036.858, 29250.00
1037.966, 29934.00
1039.073, 30898.00
1040.181, 32016.00
1041.288, 33373.00
1042.396, 34628.89
1043.503, 36202.00
1044.610, 37565.00
1045.716, 39105.00
1046.823, 40819.00
1047.929, 42431.00
1049.036, 44213.00
1050.142, 45400.00
1051.248, 47443.00
1052.353, 48602.00
1053.459, 49738.00
1054.564, 50814.00
1055.670, 51547.00
1056.775, 51783.00
1057.880, 51661.00
1058.985, 51227.00
1060.089, 50681.00
1061.194, 49473.00
1062.298, 48371.00
1063.402, 46872.00
1064.506, 45102.00
1065.610, 43575.00
1066.713, 41848.00
1067.817, 40361.00
1068.920, 38557.00
1070.023, 37230.00
1071.126, 35650.00
1072.229, 34731.00
1073.332, 33249.00
1074.435, 32137.00
1075.537, 31700.00
1076.639, 30562.00
1077.741, 30260.00
1078.843, 29727.00
1079.945, 29527.00
1081.046, 29595.16
1082.148, 29635.00
1083.249, 29462.00
1084.350, 29017.48
1085.451, 28543.00
1086.551, 27845.00
1087.652, 27357.00
1088.752, 26813.00
1089.853, 26139.00
1090.953, 25878.00
1092.053, 25618.00
1093.152, 24995.00
1094.252, 24570.00
1095.351, 24409.00
1096.451, 23968.00
1097.550, 23635.00
1098.649, 23299.00
1099.748, 22940.00
1100.846, 22658.74
1101.945, 22493.00
1103.043, 22105.00
1104.141, 21783.00
1105.239, 21532.66
1106.337, 21578.00
1107.434, 21150.00
1108.532, 21023.00
1109.629, 21043.00
1110.726, 20841.00
1111.823, 20621.00
1112.920, 20596.12
1114.017, 20356.00
1115.113, 20385.00
1116.210, 20286.00
1117.306, 20083.00
1118.402, 20224.00
1119.498, 20100.00
1120.593, 19936.00
1121.689, 19863.00
1122.784, 19753.00
1123.879, 19899.00
1124.974, 19739.72
1126.069, 19671.00
1127.164, 19592.00
1128.259, 19405.00
1129.353, 19362.00
1130.447, 19254.00
1131.541, 19140.00
1132.635, 19111.00
1133.729, 19026.00
1134.822, 19069.00
1135.916, 18962.00
1137.009, 18901.00
1138.102, 18859.62
1139.195, 18783.64
1140.288, 18793.00
1141.380, 18681.00
1142.473, 18784.00
1143.565, 18763.00
1144.657, 18800.00
1145.749, 18772.00
1146.841, 18873.00
1147.932, 18842.26
1149.024, 18828.30
1150.115, 18810.00
1151.206, 18767.00
1152.297, 18700.00
1153.388, 18682.00
1154.479, 18662.00
1155.569, 18571.00
1156.659, 18679.00
1157.750, 18586.05
1158.839, 18723.00
1159.929, 18596.00
1161.019, 18703.00
1162.108, 18927.00
1163.198, 18699.00
1164.287, 18741.00
1165.376, 18602.00
1166.465, 18771.00
1167.553, 18681.00
1168.642, 18725.00
1169.730, 18742.00
1170.818, 18800.00
1171.906, 18683.00
1172.994, 18803.00
1174.082, 18712.00
1175.170, 18570.00
1176.257, 18868.00
1177.344, 19095.00
1178.431, 18855.00
1179.518, 18747.00
1180.605, 18734.00
1181.691, 18596.00
1182.778, 18791.00
1183.864, 18779.00
1184.950, 18792.00
1186.036, 18823.00
1187.122, 18792.00
1188.207, 18963.00
1189.292, 19055.00
1190.378, 18965.00
1191.463, 19050.00
1192.548, 19010.00
1193.632, 18866.00
1194.717, 18826.00
1195.801, 18843.00
1196.886, 18966.00
1197.970, 19035.00
1199.054, 19028.11
1200.137, 19099.28
1201.221, 19088.32
1202.305, 19152.00
1203.388, 19064.00
1204.471, 19085.00
1205.554, 19057.00
1206.637, 19104.00
1207.719, 19083.00
1208.802, 19103.00
1209.884, 19186.00
1210.966, 19158.00
1212.048, 19240.00
1213.130, 19201.00
1214.212, 19292.00
1215.293, 19270.00
1216.374, 19195.00
1217.456, 19181.00
1218.536, 19287.00
1219.617, 19264.00
1220.698, 19361.00
1221.778, 19276.00
1222.859, 19310.00
1223.939, 19322.00
1225.019, 19403.00
1226.099, 19443.00
1227.178, 19398.00
1228.258, 19535.00
1229.337, 19525.00
1230.417, 19630.00
1231.496, 19632.00
1232.574, 19495.00
1233.653, 19627.00
1234.732, 19633.00
1235.810, 19543.00
1236.888, 19677.00
1237.966, 19685.00
1239.044, 19808.00
1240.122, 19801.00
1241.199, 19875.00
1242.277, 19839.00
1243.354, 19858.51
1244.431, 19724.00
1245.508, 19837.00
1246.585, 19933.00
1247.661, 19889.00
1248.738, 19999.00
1249.814, 19962.00
1250.890, 20023.00
1251.966, 19962.00
1253.042, 19989.00
1254.117, 20230.00
1255.193, 20200.00
1256.268, 20217.00
1257.343, 20161.00
1258.418, 20247.00
1259.493, 20312.00
1260.567, 20289.00
1261.642, 20418.00
1262.716, 20515.00
1263.790, 20389.00
1264.864, 20263.00
1265.938, 20409.00
1267.011, 20404.00
1268.085, 20551.00
1269.158, 20606.00
1270.231, 20629.00
1271.304, 20698.50
1272.377, 20704.28
1273.450, 20737.00
1274.522, 20740.00
1275.594, 20716.00
1276.666, 20764.00
1277.738, 20687.00
1278.810, 20755.00
1279.882, 20895.00
1280.953, 20750.00
1282.025, 20798.00
1283.096, 20727.00
1284.167, 20905.00
1285.238, 21018.00
1286.308, 20902.00
1287.379, 20908.00
1288.449, 20972.00
1289.519, 21001.00
1290.589, 21020.00
1291.659, 20881.00
1292.729, 21061.00
1293.798, 20975.00
1294.868, 21188.00
1295.937, 21099.00
1297.006, 21020.00
1298.075, 21346.00
1299.143, 21113.00
1300.212, 21190.00
1301.280, 21202.00
1302.348, 21298.00
1303.416, 21324.18
1304.484, 21154.00
1305.552, 21395.00
1306.620, 21280.00
1307.687, 21294.00
1308.754, 21547.00
1309.821, 21376.00
1310.888, 21456.00
1311.955, 21391.00
1313.021, 21457.00
1314.088, 21459.00
1315.154, 21598.00
1316.220, 21500.00
1317.286, 21520.00
1318.352, 21647.00
1319.417, 21569.00
1320.483, 21882.00
1321.548, 21715.00
1322.613, 21588.00
1323.678, 22022.00
1324.743, 21697.00
1325.807, 21719.00
1326.872, 21780.00
1327.936, 21879.00
1329.000, 21858.00
1330.064, 22000.00
1331.128, 22018.00
1332.191, 22001.00
1333.255, 22073.00
1334.318, 21802.00
1335.381, 22264.00
1336.444, 22117.00
1337.507, 22085.00
1338.569, 22380.00
1339.632, 22366.00
1340.694, 22287.00
1341.756, 22286.00
1342.818, 22369.00
1343.880, 22331.00
1344.941, 22350.00
1346.003, 22331.00
1347.064, 22383.00
1348.125, 22493.00
1349.186, 22387.00
1350.247, 22638.00
1351.308, 22575.00
1352.368, 22470.00
1353.428, 22689.00
1354.489, 22652.00
1355.549, 22681.00
1356.608, 22812.00
1357.668, 22716.00
1358.727, 22792.00
1359.787, 22908.00
1360.846, 23059.00
1361.905, 23016.00
1362.964, 22949.00
1364.022, 23157.00
1365.081, 23214.00
1366.139, 23278.00
1367.197, 23093.00
1368.255, 23229.00
1369.313, 23264.00
1370.371, 23602.00
1371.428, 23822.00
1372.486, 23547.00
1373.543, 23847.00
1374.600, 23806.00
1375.657, 24109.00
1376.713, 24185.00
1377.770, 24385.00
1378.826, 24494.00
1379.882, 24761.00
1380.938, 24787.00
1381.994, 24880.00
1383.050, 24861.00
1384.106, 24998.00
1385.161, 24921.00
1386.216, 25097.00
1387.271, 25066.00
1388.326, 25159.00
1389.381, 24950.00
1390.435, 24937.00
1391.490, 24803.00
1392.544, 24682.00
1393.598, 24491.00
1394.652, 24395.00
1395.705, 24349.00
1396.759, 24017.00
1397.812, 24122.00
1398.866, 23825.00
1399.919, 23830.00
1400.972, 23628.00
1402.024, 23602.00
1403.077, 23630.00
1404.129, 23234.00
1405.181, 23410.00
1406.233, 23278.00
1407.285, 23187.00
1408.337, 23192.00
1409.389, 23143.00
1410.440, 23138.00
1411.491, 23162.00
1412.542, 23045.00
1413.593, 22967.00
1414.644, 22862.00
1415.695, 22971.00
1416.745, 22965.00
1417.795, 23169.00
1418.845, 23109.19
1419.895, 22742.00
1420.945, 23032.00
1421.995, 22972.00
1423.044, 22882.00
1424.093, 23189.00
1425.142, 22991.00
1426.191, 23082.00
1427.240, 23106.00
1428.289, 23069.00
1429.337, 23038.00
1430.385, 23178.00
1431.433, 23107.00
1432.481, 23229.00
1433.529, 23168.00
1434.577, 23047.00
1435.624, 22913.00
1436.672, 22939.00
1437.719, 22827.00
1438.766, 22820.00
1439.812, 22856.00
1440.859, 22725.00
1441.905, 22697.00
1442.952, 22574.00
1443.998, 22591.29
1445.044, 22622.00
1446.090, 22659.00
1447.135, 22554.00
1448.181, 22627.00
1449.226, 22569.00
1450.271, 22566.00
1451.316, 22670.00
1452.361, 22628.00
1453.405, 22600.00
1454.450, 22611.00
1455.494, 22877.00
1456.538, 22713.00
1457.582, 22697.00
1458.626, 22467.00
1459.670, 22692.00
1460.713, 22533.00
1461.757, 22502.00
1462.800, 22660.00
1463.843, 22425.00
1464.886, 22566.00
1465.928, 22559.00
1466.971, 22497.00
1468.013, 22679.00
1469.055, 22608.00
1470.097, 22394.00
1471.139, 22640.00
1472.181, 22588.00
1473.222, 22611.00
1474.263, 22433.00
1475.305, 22695.00
1476.346, 22486.00
1477.386, 22405.00
1478.427, 22756.00
1479.468, 22615.00
1480.508, 22563.00
1481.548, 22787.00
1482.588, 22672.00
1483.628, 22533.00
1484.668, 22733.00
1485.707, 22577.00
1486.747, 22730.00
1487.786, 22711.00
1488.825, 22400.00
1489.864, 22743.00
1490.902, 22926.00
1491.941, 22783.00
1492.979, 22834.00
1494.017, 22732.00
1495.055, 22703.00
1496.093, 22784.00
1497.131, 22621.00
1498.168, 22968.00
1499.206, 22852.00
1500.243, 22894.00
1501.280, 22931.00
1502.317, 23043.00
1503.354, 23015.00
1504.390, 22901.00
1505.426, 23042.00
1506.463, 22979.00
1507.499, 23247.00
1508.535, 23129.00
1509.570, 23238.00
1510.606, 23271.00
1511.641, 23201.00
1512.676, 23259.00
1513.711, 23221.00
1514.746, 23444.00
1515.781, 23348.00
1516.816, 23349.00
1517.850, 23369.00
1518.884, 23273.00
1519.918, 23485.00
1520.952, 23372.00
1521.986, 23422.00
1523.019, 23379.00
1524.053, 23477.00
1525.086, 23562.00
1526.119, 23553.81
1527.152, 23438.00
1528.185, 23585.00
1529.217, 23531.00
1530.250, 23519.00
1531.282, 23658.00
1532.314, 23507.00
1533.346, 23432.00
1534.377, 23665.00
1535.409, 23445.00
1536.440, 23651.00
1537.472, 23716.00
1538.503, 23718.00
1539.534, 23646.00
1540.564, 23728.00
1541.595, 23679.00
1542.625, 23562.00
1543.656, 23632.00
1544.686, 23640.00
1545.716, 23491.00
1546.745, 23593.00
1547.775, 23706.00
1548.804, 23594.00
1549.834, 23724.00
1550.863, 23800.00
1551.892, 23906.00
1552.920, 23832.00
1553.949, 24013.00
1554.977, 24082.00
1556.006, 23756.00
1557.034, 23835.00
1558.062, 23902.00
1559.089, 23550.00
1560.117, 23765.00
1561.144, 23831.00
1562.172, 23843.00
1563.199, 23891.00
1564.226, 23774.00
1565.252, 23967.00
1566.279, 24058.00
1567.305, 23943.00
1568.332, 23925.00
1569.358, 23953.00
1570.384, 24166.00
1571.409, 24131.00
1572.435, 24143.00
##END=



