##NAMES=Enstatite
##RRUFFID=R050644
##IDEAL CHEMISTRY=MgSiO_3_
##LOCALITY=Morogoro, Tanzania
##OWNER=RRUFF
##SOURCE=Jibamitra Ganguly
##DESCRIPTION=Light brown crystal fragment
##STATUS=The identification of this mineral has been confirmed by X-ray diffraction and chemical analysis
##URL=rruff.info/R050644
##MEASURED CHEMISTRY=(Mg_0.90_Fe_0.10_)SiO_3_
##PIN_ID=L01052
##ORIENTATION=Laser parallel to b* (0 1 0). Fiducial mark perpendicular to laser is parallel to c [0 0 1]
113.2080, 16404.00
114.4400, 16114.00
115.6710, 15886.00
116.9030, 16044.00
118.1340, 16043.00
119.3650, 16415.00
120.5960, 17105.00
121.8270, 17392.00
123.0580, 17740.00
124.2880, 18030.00
125.5190, 18573.00
126.7490, 19146.00
127.9790, 19283.00
129.2090, 19103.00
130.4390, 18986.00
131.6680, 19029.00
132.8980, 19230.00
134.1270, 19238.00
135.3560, 19140.00
136.5850, 18651.00
137.8140, 18245.00
139.0430, 17738.00
140.2710, 17451.00
141.5000, 17341.00
142.7280, 17580.00
143.9560, 17414.00
145.1840, 17423.00
146.4120, 17427.00
147.6390, 17469.00
148.8670, 17377.00
150.0940, 17177.00
151.3210, 17194.00
152.5490, 17011.00
153.7750, 17013.00
155.0020, 16669.00
156.2290, 16644.00
157.4550, 16585.00
158.6810, 16539.00
159.9080, 16448.00
161.1340, 16337.00
162.3590, 16242.00
163.5850, 16328.00
164.8110, 16274.00
166.0360, 16291.00
167.2610, 16236.00
168.4860, 16233.58
169.7110, 16338.00
170.9360, 16181.00
172.1610, 16141.00
173.3850, 16033.00
174.6100, 16389.00
175.8340, 16253.00
177.0580, 16273.00
178.2820, 16302.00
179.5050, 16220.00
180.7290, 16424.00
181.9520, 16317.00
183.1760, 16324.00
184.3990, 16531.00
185.6220, 16319.00
186.8450, 16476.00
188.0670, 16510.00
189.2900, 16729.00
190.5120, 16723.00
191.7340, 17020.00
192.9560, 16990.00
194.1780, 16972.00
195.4000, 17136.00
196.6220, 17032.00
197.8430, 17085.00
199.0640, 17247.00
200.2860, 17084.00
201.5070, 17197.00
202.7270, 17078.00
203.9480, 17141.00
205.1690, 17012.00
206.3890, 17026.00
207.6090, 16976.00
208.8290, 17052.00
210.0490, 17094.00
211.2690, 17015.00
212.4890, 16970.00
213.7080, 17034.11
214.9280, 17154.00
216.1470, 17143.00
217.3660, 17194.00
218.5850, 17248.00
219.8030, 17412.00
221.0220, 17456.00
222.2400, 17570.00
223.4590, 17983.00
224.6770, 18202.00
225.8950, 18675.00
227.1120, 19108.00
228.3300, 19112.00
229.5480, 19449.00
230.7650, 19797.00
231.9820, 19888.00
233.1990, 20056.00
234.4160, 19989.00
235.6330, 19904.00
236.8490, 19785.00
238.0660, 19927.00
239.2820, 19467.00
240.4980, 19213.00
241.7140, 18612.00
242.9300, 18133.00
244.1460, 18054.00
245.3610, 17866.00
246.5770, 17601.00
247.7920, 17611.00
249.0070, 17631.00
250.2220, 17782.00
251.4370, 17747.00
252.6510, 17720.00
253.8660, 17735.00
255.0800, 17758.00
256.2940, 17871.00
257.5080, 18139.00
258.7220, 18150.00
259.9360, 18159.04
261.1490, 17695.00
262.3630, 18058.00
263.5760, 18006.00
264.7890, 18028.00
266.0020, 18248.00
267.2150, 18192.00
268.4270, 18039.00
269.6400, 18332.00
270.8520, 18347.00
272.0640, 18189.00
273.2760, 18124.00
274.4880, 18324.00
275.7000, 18154.00
276.9120, 18263.00
278.1230, 18150.00
279.3340, 18220.00
280.5450, 18041.00
281.7560, 18033.00
282.9670, 18022.00
284.1780, 18104.00
285.3880, 18095.95
286.5980, 18109.64
287.8090, 18191.00
289.0190, 18207.00
290.2290, 18347.00
291.4380, 18604.00
292.6480, 18698.00
293.8570, 18755.00
295.0670, 18690.00
296.2760, 18737.00
297.4850, 18805.00
298.6930, 18975.00
299.9020, 19116.00
301.1110, 19090.19
302.3190, 18969.00
303.5270, 18966.00
304.7350, 19034.00
305.9430, 18831.00
307.1510, 19083.00
308.3580, 19132.00
309.5660, 19332.00
310.7730, 19533.00
311.9800, 19628.00
313.1870, 19441.00
314.3940, 19962.00
315.6010, 19707.00
316.8070, 20054.00
318.0130, 20172.00
319.2200, 20508.00
320.4260, 20555.00
321.6310, 20927.00
322.8370, 21310.00
324.0430, 21596.00
325.2480, 21725.00
326.4540, 22420.00
327.6590, 23195.00
328.8640, 24090.00
330.0680, 24990.00
331.2730, 26138.00
332.4780, 27189.00
333.6820, 28220.00
334.8860, 28902.00
336.0900, 29700.00
337.2940, 30053.00
338.4980, 30254.00
339.7010, 30215.00
340.9050, 29860.00
342.1080, 29435.00
343.3110, 28787.00
344.5140, 27747.00
345.7170, 26720.00
346.9200, 25535.00
348.1220, 24276.00
349.3240, 23348.00
350.5270, 22608.00
351.7290, 22275.00
352.9310, 21580.00
354.1320, 21287.00
355.3340, 21017.00
356.5350, 20914.00
357.7370, 20540.00
358.9380, 20582.00
360.1390, 20468.00
361.3400, 20177.00
362.5400, 19987.00
363.7410, 19882.00
364.9410, 19788.90
366.1410, 19896.00
367.3410, 19845.00
368.5410, 19848.00
369.7410, 20065.00
370.9400, 20129.00
372.1400, 20176.00
373.3390, 20500.00
374.5380, 20499.00
375.7370, 20508.00
376.9360, 20536.00
378.1350, 20581.00
379.3330, 20668.00
380.5310, 20503.00
381.7300, 20566.00
382.9280, 20361.00
384.1260, 20366.00
385.3230, 20209.00
386.5210, 20677.00
387.7180, 20353.00
388.9160, 20527.00
390.1130, 20634.00
391.3100, 20595.00
392.5060, 20768.00
393.7030, 20818.00
394.9000, 21032.00
396.0960, 21095.00
397.2920, 21292.00
398.4880, 21062.00
399.6840, 21215.00
400.8800, 21215.00
402.0750, 21281.00
403.2710, 21205.00
404.4660, 21134.00
405.6610, 21258.00
406.8560, 21231.00
408.0510, 21178.00
409.2450, 21101.00
410.4400, 21286.00
411.6340, 21348.00
412.8280, 21203.00
414.0220, 21293.00
415.2160, 21119.00
416.4100, 21122.00
417.6030, 21129.00
418.7970, 20798.00
419.9900, 20734.00
421.1830, 20597.00
422.3760, 20622.00
423.5690, 20334.00
424.7610, 20341.00
425.9540, 20055.00
427.1460, 19936.00
428.3380, 20078.00
429.5300, 20120.00
430.7220, 20186.00
431.9140, 20372.00
433.1050, 20233.00
434.2970, 20307.00
435.4880, 20450.00
436.6790, 20600.00
437.8700, 20574.00
439.0610, 20525.00
440.2510, 20601.00
441.4420, 20531.00
442.6320, 20467.00
443.8220, 20594.00
445.0120, 20635.00
446.2020, 20343.00
447.3910, 20441.00
448.5810, 20435.00
449.7700, 20233.00
450.9600, 20249.00
452.1490, 20142.00
453.3370, 20272.00
454.5260, 20194.00
455.7150, 20212.00
456.9030, 20289.00
458.0910, 20085.00
459.2800, 20282.00
460.4670, 20377.00
461.6550, 20304.00
462.8430, 20279.00
464.0300, 20347.00
465.2180, 20455.00
466.4050, 20400.00
467.5920, 20391.00
468.7790, 20365.00
469.9650, 20430.00
471.1520, 20426.00
472.3380, 20265.00
473.5250, 20411.00
474.7110, 20317.00
475.8970, 20097.00
477.0820, 20199.00
478.2680, 20115.00
479.4540, 20293.00
480.6390, 20205.00
481.8240, 20250.00
483.0090, 20238.00
484.1940, 20203.00
485.3780, 20209.00
486.5630, 20390.00
487.7470, 20304.00
488.9320, 20428.00
490.1160, 20328.00
491.3000, 20295.00
492.4830, 20276.00
493.6670, 20493.00
494.8500, 20248.00
496.0340, 20649.00
497.2170, 21310.00
498.4000, 21006.00
499.5820, 21029.60
500.7650, 20399.00
501.9480, 20463.00
503.1300, 20515.00
504.3120, 20453.00
505.4940, 20555.00
506.6760, 20710.00
507.8580, 20605.00
509.0390, 20707.00
510.2210, 20731.00
511.4020, 20877.00
512.5830, 20766.00
513.7640, 21007.00
514.9450, 20933.00
516.1250, 20983.00
517.3060, 21013.00
518.4860, 21112.00
519.6660, 21178.00
520.8460, 21163.00
522.0260, 21192.00
523.2060, 21353.00
524.3850, 21363.00
525.5650, 21324.00
526.7440, 21399.00
527.9230, 21640.00
529.1020, 21484.00
530.2810, 21771.00
531.4590, 21781.00
532.6380, 21806.00
533.8160, 21965.00
534.9940, 21943.00
536.1720, 21939.00
537.3500, 21981.00
538.5270, 22029.00
539.7050, 22024.00
540.8820, 22142.00
542.0590, 22093.00
543.2360, 21824.00
544.4130, 21978.00
545.5900, 21809.00
546.7660, 21752.00
547.9430, 21803.00
549.1190, 21846.00
550.2950, 21663.00
551.4710, 21863.00
552.6470, 21702.00
553.8220, 21492.00
554.9980, 21617.00
556.1730, 21632.00
557.3480, 21698.00
558.5230, 21680.00
559.6980, 21672.00
560.8730, 21793.00
562.0470, 21777.00
563.2220, 21665.00
564.3960, 21636.00
565.5700, 21773.00
566.7440, 21888.00
567.9170, 21886.00
569.0910, 21813.00
570.2640, 21928.00
571.4380, 21890.00
572.6110, 21979.00
573.7840, 22004.00
574.9570, 21998.00
576.1290, 22015.00
577.3020, 22027.00
578.4740, 22119.00
579.6460, 22111.00
580.8180, 22248.00
581.9900, 22214.00
583.1620, 22232.00
584.3330, 22120.00
585.5040, 22104.00
586.6760, 22239.00
587.8470, 22264.00
589.0180, 22202.00
590.1880, 22107.00
591.3590, 22149.00
592.5290, 22140.88
593.7000, 22211.00
594.8700, 22235.00
596.0400, 22429.00
597.2090, 22508.00
598.3790, 22447.00
599.5490, 22283.00
600.7180, 22454.00
601.8870, 22312.00
603.0560, 22469.00
604.2250, 22370.00
605.3940, 22500.00
606.5620, 22404.00
607.7300, 22623.00
608.8990, 22279.00
610.0670, 22552.00
611.2350, 22497.00
612.4020, 22496.00
613.5700, 22733.00
614.7370, 22632.00
615.9050, 22743.00
617.0720, 22938.00
618.2390, 23009.00
619.4060, 22920.00
620.5720, 23116.00
621.7390, 23176.00
622.9050, 23260.00
624.0710, 23389.00
625.2370, 23371.00
626.4030, 23404.00
627.5690, 23754.00
628.7340, 23659.00
629.9000, 23793.00
631.0650, 23622.00
632.2300, 23627.00
633.3950, 23826.00
634.5600, 23829.00
635.7240, 23988.00
636.8890, 24026.00
638.0530, 24091.00
639.2170, 24246.00
640.3810, 24519.00
641.5450, 24604.00
642.7080, 25116.00
643.8720, 25302.00
645.0350, 25859.00
646.1980, 26109.00
647.3610, 26554.00
648.5240, 27305.00
649.6870, 28199.00
650.8490, 29015.00
652.0120, 30268.00
653.1740, 31304.00
654.3360, 32937.00
655.4980, 33983.00
656.6600, 34971.00
657.8210, 35750.00
658.9830, 36597.00
660.1440, 36507.00
661.3050, 36864.00
662.4660, 36646.00
663.6270, 36068.00
664.7870, 35394.00
665.9480, 34601.00
667.1080, 33764.00
668.2680, 33199.00
669.4280, 32971.00
670.5880, 33174.00
671.7480, 33814.00
672.9070, 34477.00
674.0670, 35619.00
675.2260, 37406.00
676.3850, 38882.00
677.5440, 40387.00
678.7030, 41664.00
679.8610, 42671.00
681.0200, 43157.00
682.1780, 43047.00
683.3360, 42390.00
684.4940, 41569.00
685.6520, 40418.00
686.8090, 38724.00
687.9670, 36832.00
689.1240, 34460.00
690.2810, 32850.00
691.4380, 31215.00
692.5950, 29817.00
693.7520, 28751.00
694.9080, 27944.00
696.0650, 27383.00
697.2210, 26647.00
698.3770, 26376.00
699.5330, 26103.00
700.6880, 25675.00
701.8440, 25686.00
702.9990, 25333.00
704.1550, 25178.00
705.3100, 25267.00
706.4650, 25071.00
707.6190, 24989.00
708.7740, 24922.00
709.9290, 24799.00
711.0830, 24836.00
712.2370, 24783.76
713.3910, 24611.00
714.5450, 24770.00
715.6980, 24704.00
716.8520, 24674.00
718.0050, 24727.00
719.1580, 24721.00
720.3110, 24841.00
721.4640, 24966.00
722.6170, 24781.00
723.7700, 24851.00
724.9220, 24680.00
726.0740, 24759.00
727.2260, 24725.00
728.3780, 24727.00
729.5300, 24720.00
730.6810, 24920.00
731.8330, 24944.00
732.9840, 24854.00
734.1350, 24780.00
735.2860, 24805.00
736.4370, 24977.00
737.5880, 24953.00
738.7380, 25120.00
739.8880, 24734.00
741.0390, 24881.00
742.1890, 24839.00
743.3380, 24783.00
744.4880, 25130.00
745.6380, 24989.00
746.7870, 24913.00
747.9360, 25103.00
749.0850, 25015.00
750.2340, 25061.00
751.3830, 24864.00
752.5310, 25109.00
753.6800, 24928.00
754.8280, 25243.00
755.9760, 25021.00
757.1240, 25028.00
758.2720, 25246.00
759.4190, 25177.00
760.5670, 25229.00
761.7140, 25372.00
762.8610, 25115.00
764.0080, 25400.00
765.1550, 25344.00
766.3020, 25134.00
767.4480, 25352.00
768.5950, 25186.00
769.7410, 25311.00
770.8870, 25280.00
772.0330, 25256.00
773.1780, 25418.00
774.3240, 25316.00
775.4690, 25492.00
776.6140, 25533.00
777.7590, 25366.00
778.9040, 25524.00
780.0490, 25516.20
781.1940, 25558.32
782.3380, 25579.00
783.4820, 25716.00
784.6260, 25617.00
785.7700, 25700.00
786.9140, 25796.00
788.0580, 25756.00
789.2010, 25732.00
790.3450, 25734.12
791.4880, 25739.07
792.6310, 25713.00
793.7730, 25787.00
794.9160, 25877.00
796.0590, 25908.00
797.2010, 25869.00
798.3430, 26003.00
799.4850, 26139.00
800.6270, 26016.00
801.7690, 26106.00
802.9100, 26008.00
804.0520, 26209.00
805.1930, 26119.00
806.3340, 26174.00
807.4750, 26029.00
808.6160, 26270.00
809.7560, 26228.00
810.8970, 26280.00
812.0370, 26339.00
813.1770, 26475.00
814.3170, 26450.00
815.4570, 26341.00
816.5960, 26464.00
817.7360, 26417.00
818.8750, 26399.00
820.0140, 26483.00
821.1530, 26579.00
822.2920, 26712.00
823.4310, 26593.00
824.5690, 26792.00
825.7070, 26727.00
826.8460, 26643.00
827.9840, 26646.00
829.1220, 26833.00
830.2590, 26685.00
831.3970, 27043.00
832.5340, 26833.00
833.6710, 27143.00
834.8080, 26943.00
835.9450, 26816.00
837.0820, 27275.00
838.2190, 27063.00
839.3550, 27184.00
840.4910, 27184.00
841.6270, 27430.00
842.7630, 27447.00
843.8990, 27600.00
845.0350, 27601.00
846.1700, 27929.00
847.3060, 28027.00
848.4410, 28240.00
849.5760, 28451.00
850.7100, 28686.00
851.8450, 28812.12
852.9800, 28880.00
854.1140, 29072.00
855.2480, 29195.00
856.3820, 29352.00
857.5160, 29092.00
858.6500, 29158.00
859.7830, 29034.00
860.9170, 28830.00
862.0500, 28678.00
863.1830, 28793.00
864.3160, 28445.00
865.4480, 28497.00
866.5810, 28360.00
867.7130, 28080.00
868.8460, 28200.00
869.9780, 27983.00
871.1100, 28164.00
872.2410, 28203.00
873.3730, 28090.00
874.5050, 28090.00
875.6360, 28052.00
876.7670, 28108.00
877.8980, 28273.00
879.0290, 28061.00
880.1590, 28240.00
881.2900, 28169.00
882.4200, 28265.00
883.5500, 28313.00
884.6800, 28212.00
885.8100, 28317.00
886.9400, 28327.00
888.0690, 28166.00
889.1990, 28358.00
890.3280, 28435.00
891.4570, 28442.00
892.5860, 28333.00
893.7140, 28499.00
894.8430, 28654.00
895.9710, 28665.00
897.1000, 28398.00
898.2280, 28753.00
899.3560, 28783.00
900.4830, 28780.00
901.6110, 28351.00
902.7380, 28567.00
903.8660, 28614.00
904.9930, 28681.00
906.1200, 28897.00
907.2460, 28726.00
908.3730, 28841.00
909.5000, 28981.00
910.6260, 28838.00
911.7520, 28681.00
912.8780, 29109.00
914.0040, 29007.00
915.1290, 28938.00
916.2550, 29132.00
917.3800, 29213.00
918.5050, 29158.00
919.6300, 29137.00
920.7550, 29423.00
921.8800, 29587.00
923.0040, 29859.00
924.1290, 30080.00
925.2530, 30155.00
926.3770, 30206.00
927.5010, 30285.00
928.6250, 30950.00
929.7480, 30769.00
930.8720, 31091.00
931.9950, 31073.00
933.1180, 31407.00
934.2410, 31301.00
935.3640, 31498.00
936.4860, 31366.00
937.6090, 31337.00
938.7310, 31399.00
939.8530, 31095.00
940.9750, 30959.00
942.0970, 30812.00
943.2180, 30670.99
944.3400, 30571.00
945.4610, 30496.00
946.5820, 30288.00
947.7030, 30200.00
948.8240, 30316.00
949.9450, 30391.00
951.0650, 30311.27
952.1860, 30347.00
953.3060, 30233.00
954.4260, 30199.00
955.5460, 30215.00
956.6650, 30349.00
957.7850, 30228.00
958.9040, 30237.00
960.0230, 30166.00
961.1420, 30215.00
962.2610, 30289.00
963.3800, 30213.00
964.4990, 30396.00
965.6170, 30354.00
966.7350, 30465.00
967.8530, 30249.00
968.9710, 30224.00
970.0890, 30492.00
971.2070, 30463.00
972.3240, 30760.00
973.4410, 30647.00
974.5580, 30735.00
975.6750, 30554.00
976.7920, 30845.00
977.9090, 30983.00
979.0250, 31065.00
980.1410, 31273.00
981.2580, 31335.00
982.3740, 31475.74
983.4890, 31506.00
984.6050, 31721.00
985.7200, 31830.00
986.8360, 32105.57
987.9510, 32408.21
989.0660, 32771.00
990.1810, 33173.00
991.2950, 33630.00
992.4100, 34145.00
993.5240, 34724.00
994.6390, 35632.00
995.7530, 36407.00
996.8660, 37716.00
997.9800, 39113.00
999.0940, 40928.00
1000.207, 43179.00
1001.320, 46311.00
1002.433, 49731.00
1003.546, 53121.00
1004.659, 56432.00
1005.772, 59371.00
1006.884, 61713.00
1007.996, 62584.00
1009.108, 63092.00
1010.220, 62386.00
1011.332, 60988.00
1012.444, 58134.00
1013.555, 55446.00
1014.666, 52176.00
1015.777, 49217.00
1016.888, 46794.00
1017.999, 44831.00
1019.110, 43559.00
1020.220, 42623.00
1021.331, 41961.00
1022.441, 41700.00
1023.551, 41129.00
1024.661, 40705.00
1025.770, 40713.00
1026.880, 40476.00
1027.989, 40262.00
1029.098, 39968.00
1030.207, 39394.00
1031.316, 38956.00
1032.425, 38429.00
1033.533, 37909.00
1034.642, 37343.00
1035.750, 36746.00
1036.858, 36328.00
1037.966, 35473.00
1039.073, 35357.00
1040.181, 34698.00
1041.288, 34530.00
1042.396, 34258.00
1043.503, 34169.00
1044.610, 33531.00
1045.716, 33502.00
1046.823, 33257.00
1047.929, 33252.00
1049.036, 32801.00
1050.142, 32898.00
1051.248, 32881.00
1052.353, 32824.00
1053.459, 33054.00
1054.564, 32678.00
1055.670, 32658.00
1056.775, 32739.00
1057.880, 32574.00
1058.985, 32436.00
1060.089, 32526.00
1061.194, 32612.00
1062.298, 32385.00
1063.402, 32689.00
1064.506, 32551.00
1065.610, 32673.00
1066.713, 32574.00
1067.817, 32634.00
1068.920, 32495.00
1070.023, 32627.00
1071.126, 32559.00
1072.229, 32585.00
1073.332, 32473.00
1074.435, 32702.00
1075.537, 32440.00
1076.639, 32655.00
1077.741, 32685.00
1078.843, 32724.00
1079.945, 32774.00
1081.046, 32817.17
1082.148, 32852.05
1083.249, 32924.00
1084.350, 32892.00
1085.451, 32949.67
1086.551, 32911.00
1087.652, 32897.00
1088.752, 33022.00
1089.853, 32878.00
1090.953, 32971.50
1092.053, 32800.00
1093.152, 33002.00
1094.252, 32931.00
1095.351, 32847.00
1096.451, 33029.00
1097.550, 33156.00
1098.649, 32866.00
1099.748, 33030.00
1100.846, 32954.00
1101.945, 32755.00
1103.043, 32956.00
1104.141, 33060.00
1105.239, 33144.00
1106.337, 32961.00
1107.434, 33146.00
1108.532, 33294.00
1109.629, 33169.00
1110.726, 33329.00
1111.823, 33393.00
1112.920, 33359.00
1114.017, 33274.00
1115.113, 33249.00
1116.210, 33687.00
1117.306, 33583.00
1118.402, 33568.00
1119.498, 33834.00
1120.593, 33721.00
1121.689, 33661.00
1122.784, 33660.00
1123.879, 33684.00
1124.974, 33766.00
1126.069, 33515.00
1127.164, 33743.00
1128.259, 33716.00
1129.353, 33576.00
1130.447, 33319.00
1131.541, 33630.00
1132.635, 33666.00
1133.729, 33894.00
1134.822, 33891.10
1135.916, 33725.00
1137.009, 33753.00
1138.102, 33725.00
1139.195, 33482.00
1140.288, 33872.00
1141.380, 33595.00
1142.473, 33794.00
1143.565, 33944.00
1144.657, 33732.00
1145.749, 34038.00
1146.841, 33872.00
1147.932, 33981.00
1149.024, 34123.00
1150.115, 34043.00
1151.206, 33961.00
1152.297, 33939.00
1153.388, 33960.00
1154.479, 33955.27
1155.569, 34066.00
1156.659, 34069.00
1157.750, 34109.00
1158.839, 34267.00
1159.929, 34013.00
1161.019, 34141.00
1162.108, 34211.00
1163.198, 34143.00
1164.287, 34396.00
1165.376, 34415.00
1166.465, 34293.00
1167.553, 34489.00
1168.642, 34523.00
1169.730, 34431.00
1170.818, 34289.00
1171.906, 34523.00
1172.994, 34587.00
1174.082, 34556.23
1175.170, 34648.00
1176.257, 34584.00
1177.344, 34579.00
1178.431, 34660.00
1179.518, 34727.00
1180.605, 34551.00
1181.691, 34571.00
1182.778, 34782.00
1183.864, 34730.00
1184.950, 34920.00
1186.036, 34934.00
1187.122, 34954.29
1188.207, 34814.00
1189.292, 34983.00
1190.378, 34887.00
1191.463, 34892.00
1192.548, 34904.00
1193.632, 34962.00
1194.717, 34984.00
1195.801, 35038.00
1196.886, 35020.00
1197.970, 35109.00
1199.054, 35004.00
1200.137, 35115.00
1201.221, 35351.00
1202.305, 35155.00
1203.388, 34920.00
1204.471, 35221.00
1205.554, 35126.00
1206.637, 34945.00
1207.719, 35215.00
1208.802, 35408.00
1209.884, 35323.00
1210.966, 35423.00
1212.048, 35517.00
1213.130, 35671.00
1214.212, 35557.00
1215.293, 35670.00
1216.374, 35655.00
1217.456, 35634.00
1218.536, 35695.00
1219.617, 35642.00
1220.698, 35661.00
1221.778, 35770.00
1222.859, 35546.00
1223.939, 35736.00
1225.019, 35762.00
1226.099, 35949.00
1227.178, 35834.00
1228.258, 35991.00
1229.337, 35750.00
1230.417, 35885.00
1231.496, 35960.00
1232.574, 35762.00
1233.653, 36006.00
1234.732, 36121.00
1235.810, 35942.00
1236.888, 35837.00
1237.966, 35885.07
1239.044, 35918.53
1240.122, 35935.00
1241.199, 36187.00
1242.277, 36313.00
1243.354, 36455.00
1244.431, 36313.00
1245.508, 36388.00
1246.585, 36156.00
1247.661, 36629.00
1248.738, 36429.00
1249.814, 36691.00
1250.890, 36660.00
1251.966, 36649.00
1253.042, 36445.00
1254.117, 36571.00
1255.193, 36760.00
1256.268, 36604.00
1257.343, 36853.00
1258.418, 36730.00
1259.493, 36768.00
1260.567, 36822.00
1261.642, 36768.28
1262.716, 37007.00
1263.790, 36880.00
1264.864, 36926.00
1265.938, 37250.00
1267.011, 37248.00
1268.085, 37322.93
1269.158, 37029.00
1270.231, 37348.00
1271.304, 37233.00
1272.377, 37222.00
1273.450, 37456.00
1274.522, 37249.00
1275.594, 37241.00
1276.666, 37098.00
1277.738, 37170.75
1278.810, 37384.00
1279.882, 37286.00
1280.953, 37422.00
1282.025, 37304.00
1283.096, 37674.00
1284.167, 37449.00
1285.238, 37491.00
1286.308, 37527.00
1287.379, 37314.00
1288.449, 37190.00
1289.519, 37652.00
1290.589, 37352.00
1291.659, 37225.00
1292.729, 37629.00
1293.798, 37640.00
1294.868, 37557.00
1295.937, 37788.00
1297.006, 37759.00
1298.075, 37540.00
1299.143, 37733.00
1300.212, 37929.00
1301.280, 38111.00
1302.348, 38192.44
1303.416, 38176.00
1304.484, 38264.00
1305.552, 38206.00
1306.620, 38116.00
1307.687, 38061.00
1308.754, 38391.00
1309.821, 38104.00
1310.888, 38259.00
1311.955, 38371.00
1313.021, 38327.00
1314.088, 38638.00
1315.154, 38781.00
1316.220, 38498.00
1317.286, 38632.00
1318.352, 38776.00
1319.417, 38731.00
1320.483, 38759.00
1321.548, 38918.00
1322.613, 38731.00
1323.678, 38544.00
1324.743, 39007.00
1325.807, 38663.00
1326.872, 38514.00
1327.936, 38907.00
1329.000, 38633.00
1330.064, 38881.00
1331.128, 38842.00
1332.191, 38746.00
1333.255, 38975.00
1334.318, 39110.00
1335.381, 38968.00
1336.444, 38765.00
1337.507, 39079.00
1338.569, 38870.00
1339.632, 38679.00
1340.694, 39145.00
1341.756, 38999.00
1342.818, 38957.00
1343.880, 39167.00
1344.941, 39352.00
1346.003, 39028.00
1347.064, 39151.00
1348.125, 39212.00
1349.186, 39254.00
1350.247, 39365.58
1351.308, 39372.00
1352.368, 39466.00
1353.428, 39325.00
1354.489, 39184.00
1355.549, 39286.00
1356.608, 39267.26
1357.668, 39338.00
1358.727, 39432.00
1359.787, 39555.00
1360.846, 39622.00
1361.905, 39494.00
1362.964, 39435.00
1364.022, 39417.00
1365.081, 39726.00
1366.139, 39543.00
1367.197, 39877.00
1368.255, 39676.00
1369.313, 39808.00
1370.371, 39890.00
1371.428, 40016.00
1372.486, 39748.00
1373.543, 39978.00
1374.600, 39706.00
1375.657, 39990.00
1376.713, 40109.00
1377.770, 40114.00
1378.826, 40127.00
1379.882, 40117.00
1380.938, 40113.00
1381.994, 40243.00
1383.050, 40246.00
1384.106, 40283.00
1385.161, 40384.00
1386.216, 40233.00
1387.271, 40439.00
1388.326, 40273.00
1389.381, 40578.00
1390.435, 40575.00
1391.490, 40652.00
1392.544, 40652.06
1393.598, 40618.96
1394.652, 40544.00
1395.705, 40501.00
1396.759, 40529.00
1397.812, 40433.00
1398.866, 40389.00
1399.919, 40733.00
1400.972, 40893.00
1402.024, 40750.00
1403.077, 40622.00
1404.129, 40671.00
1405.181, 40943.00
1406.233, 40828.00
1407.285, 40666.00
1408.337, 40978.00
1409.389, 40760.00
1410.440, 40818.00
1411.491, 41132.00
1412.542, 41308.00
1413.593, 40990.00
1414.644, 41331.00
1415.695, 41153.00
1416.745, 41053.00
1417.795, 41143.00
1418.845, 41339.00
1419.895, 41284.00
1420.945, 41278.00
1421.995, 41006.00
1423.044, 41421.00
1424.093, 41284.00
1425.142, 41067.00
1426.191, 41431.00
1427.240, 41554.00
1428.289, 41509.00
1429.337, 41509.00
1430.385, 41602.00
1431.433, 41662.00
1432.481, 41817.00
1433.529, 41930.00
1434.577, 41885.00
1435.624, 42036.00
1436.672, 42207.00
1437.719, 41804.00
1438.766, 42249.00
1439.812, 42213.00
1440.859, 42655.00
1441.905, 42282.00
1442.952, 42660.00
1443.998, 42580.00
1445.044, 42779.00
1446.090, 42718.00
1447.135, 42678.00
1448.181, 42845.00
1449.226, 43039.00
1450.271, 43055.00
1451.316, 43033.00
1452.361, 43054.00
1453.405, 43009.00
1454.450, 43045.00
1455.494, 42982.00
1456.538, 43123.00
1457.582, 43431.00
1458.626, 43116.00
1459.670, 43325.00
1460.713, 42966.00
1461.757, 43107.00
1462.800, 42892.00
1463.843, 43048.00
1464.886, 43270.00
1465.928, 43043.00
1466.971, 43102.00
1468.013, 43113.59
1469.055, 42991.00
1470.097, 43054.00
1471.139, 43155.00
1472.181, 43015.00
1473.222, 42995.00
1474.263, 42793.00
1475.305, 42836.00
1476.346, 42957.00
1477.386, 42997.00
1478.427, 43201.00
1479.468, 43134.00
1480.508, 43114.00
1481.548, 43135.00
1482.588, 43380.00
1483.628, 43263.00
1484.668, 43242.00
1485.707, 43056.00
1486.747, 43211.00
1487.786, 43173.00
1488.825, 43236.00
1489.864, 43262.00
1490.902, 43336.00
1491.941, 43252.00
1492.979, 43393.00
1494.017, 43270.00
1495.055, 43472.00
1496.093, 43463.00
1497.131, 43079.00
1498.168, 43340.00
1499.206, 43517.00
1500.243, 43324.00
1501.280, 43491.00
1502.317, 43495.00
1503.354, 43592.00
1504.390, 43525.00
1505.426, 43575.00
1506.463, 43744.00
1507.499, 43597.00
1508.535, 43924.00
1509.570, 43772.00
1510.606, 43795.00
1511.641, 43776.00
1512.676, 43804.00
1513.711, 43676.00
1514.746, 43870.00
1515.781, 43883.00
1516.816, 43704.00
1517.850, 43553.00
1518.884, 43944.00
1519.918, 43845.00
1520.952, 44199.00
1521.986, 44104.00
1523.019, 44133.00
1524.053, 44108.00
1525.086, 44079.00
1526.119, 43955.00
1527.152, 44017.00
1528.185, 44159.00
1529.217, 44185.00
1530.250, 44399.00
1531.282, 44118.00
1532.314, 44041.00
1533.346, 44253.00
1534.377, 44601.00
1535.409, 44382.00
1536.440, 44441.00
1537.472, 44502.00
1538.503, 44335.00
1539.534, 44463.00
1540.564, 44386.07
1541.595, 44523.00
1542.625, 44351.00
1543.656, 44367.00
1544.686, 44417.00
1545.716, 44421.00
1546.745, 44693.00
1547.775, 44542.00
1548.804, 44414.00
1549.834, 44831.00
1550.863, 44698.00
1551.892, 44622.00
1552.920, 44801.00
1553.949, 44538.00
1554.977, 44567.00
1556.006, 44758.00
1557.034, 44645.00
1558.062, 44766.00
1559.089, 45028.00
1560.117, 44778.00
1561.144, 44939.00
1562.172, 44742.00
1563.199, 44889.00
1564.226, 44965.00
1565.252, 45047.00
1566.279, 44734.00
1567.305, 45088.00
1568.332, 45100.00
1569.358, 44928.00
1570.384, 44969.00
##END=



