##NAMES=Enstatite
##RRUFFID=R040093
##IDEAL CHEMISTRY=MgSiO_3_
##LOCALITY=Castle Rock, Pennsylvania, USA
##OWNER=RRUFF
##SOURCE=University of Arizona Mineral Museum
##DESCRIPTION=Dark green massive
##STATUS=The identification of this mineral has been confirmed by X-ray diffraction and chemical analysis
##URL=rruff.info/R040093
##MEASURED CHEMISTRY=(Mg_0.84_Fe_0.15_Al_0.01_)Si_1.00_O_3_
##PIN_ID=L00094
##ORIENTATION=Laser parallel to -b* (0 -1 0). Fiducial mark perpendicular to laser is parallel to c [0 0 1]
103.0850, 14810.00
104.3220, 16059.00
105.5590, 17188.00
106.7950, 17493.00
108.0320, 17319.00
109.2680, 17138.00
110.5040, 16742.00
111.7400, 16733.00
112.9760, 16302.00
114.2120, 16155.00
115.4470, 16665.00
116.6820, 16453.00
117.9170, 16272.00
119.1520, 16585.00
120.3870, 17255.00
121.6220, 17899.00
122.8560, 17822.00
124.0900, 17916.00
125.3240, 18330.00
126.5580, 19207.00
127.7920, 20486.00
129.0260, 21549.00
130.2590, 22769.00
131.4920, 23734.00
132.7250, 24310.00
133.9580, 22610.00
135.1910, 21392.00
136.4230, 20096.00
137.6560, 18647.00
138.8880, 17849.00
140.1200, 17324.00
141.3520, 16800.00
142.5830, 16714.00
143.8150, 16631.00
145.0460, 16596.00
146.2770, 16661.00
147.5080, 16390.00
148.7390, 16222.00
149.9700, 16034.00
151.2000, 15563.00
152.4310, 15441.00
153.6610, 14984.00
154.8910, 14698.00
156.1210, 14502.00
157.3500, 14239.00
158.5800, 14112.00
159.8090, 14001.00
161.0380, 13995.00
162.2670, 13935.00
163.4960, 13908.22
164.7240, 13900.33
165.9530, 13880.00
167.1810, 13817.00
168.4090, 13800.00
169.6370, 13609.00
170.8650, 13589.00
172.0920, 13736.00
173.3200, 13627.00
174.5470, 13708.00
175.7740, 13798.00
177.0010, 14106.00
178.2280, 14103.00
179.4540, 14129.00
180.6810, 14116.00
181.9070, 14158.00
183.1330, 14274.00
184.3590, 14363.80
185.5850, 14637.35
186.8100, 14833.76
188.0350, 14957.25
189.2610, 14789.53
190.4860, 14997.88
191.7110, 15055.49
192.9350, 14905.00
194.1600, 15111.00
195.3840, 14996.00
196.6080, 14924.00
197.8320, 14716.00
199.0560, 14494.00
200.2800, 14218.00
201.5030, 14189.00
202.7270, 14126.00
203.9500, 14128.00
205.1730, 14024.00
206.3950, 13827.00
207.6180, 13957.00
208.8410, 13838.00
210.0630, 14020.00
211.2850, 13928.00
212.5070, 14064.00
213.7290, 14084.00
214.9500, 14083.00
216.1720, 14245.00
217.3930, 14343.00
218.6140, 14588.00
219.8350, 14763.00
221.0560, 15068.00
222.2770, 15408.00
223.4970, 15715.00
224.7170, 15888.00
225.9370, 16276.00
227.1570, 16482.00
228.3770, 16910.00
229.5970, 17395.00
230.8160, 18006.00
232.0350, 18356.00
233.2540, 18956.00
234.4730, 19327.00
235.6920, 19548.00
236.9110, 19480.00
238.1290, 19048.00
239.3470, 18406.00
240.5650, 17447.00
241.7830, 16461.00
243.0010, 15524.00
244.2180, 14817.00
245.4360, 14523.00
246.6530, 14235.00
247.8700, 14078.00
249.0870, 13927.00
250.3040, 13784.00
251.5200, 14000.00
252.7370, 13956.00
253.9530, 14261.00
255.1690, 14774.00
256.3850, 15001.00
257.6000, 15002.00
258.8160, 14501.00
260.0310, 14098.00
261.2460, 13817.00
262.4610, 13892.00
263.6760, 13755.00
264.8910, 13780.00
266.1050, 13860.00
267.3200, 13973.00
268.5340, 14026.00
269.7480, 14079.00
270.9620, 14184.00
272.1750, 14390.00
273.3890, 14378.00
274.6020, 14210.00
275.8150, 14303.00
277.0280, 14161.00
278.2410, 14167.00
279.4540, 13915.00
280.6660, 13875.00
281.8790, 13883.00
283.0910, 13811.00
284.3030, 13874.00
285.5140, 13989.00
286.7260, 13964.00
287.9380, 14432.00
289.1490, 14604.00
290.3600, 14809.00
291.5710, 15011.91
292.7820, 15108.36
293.9920, 15176.00
295.2030, 15321.00
296.4130, 15241.00
297.6230, 15390.00
298.8330, 15589.00
300.0430, 15427.00
301.2520, 15420.00
302.4620, 15404.00
303.6710, 15336.00
304.8800, 15484.00
306.0890, 15580.00
307.2980, 15433.00
308.5070, 15419.00
309.7150, 15531.00
310.9230, 15661.00
312.1310, 15877.00
313.3390, 15978.00
314.5470, 16102.00
315.7550, 16471.00
316.9620, 16647.00
318.1690, 17126.00
319.3760, 17327.00
320.5830, 17803.00
321.7900, 18059.00
322.9960, 18369.00
324.2030, 18806.00
325.4090, 19380.90
326.6150, 20113.56
327.8210, 20937.00
329.0270, 22012.00
330.2320, 23272.00
331.4380, 24622.00
332.6430, 26540.00
333.8480, 28336.00
335.0530, 30746.00
336.2580, 32773.00
337.4620, 34915.00
338.6670, 36497.00
339.8710, 37813.00
341.0750, 37942.46
342.2790, 37784.00
343.4820, 36517.00
344.6860, 34475.00
345.8890, 32020.00
347.0920, 29039.00
348.2960, 26496.00
349.4980, 24720.00
350.7010, 23005.00
351.9040, 21906.00
353.1060, 21022.00
354.3080, 20322.00
355.5100, 19630.00
356.7120, 19193.00
357.9140, 18945.00
359.1150, 18480.00
360.3170, 18418.00
361.5180, 17837.00
362.7190, 17617.00
363.9200, 17422.00
365.1200, 17294.00
366.3210, 17126.00
367.5210, 17127.00
368.7210, 17130.00
369.9210, 17035.00
371.1210, 17223.00
372.3210, 17161.00
373.5200, 17607.00
374.7200, 17700.00
375.9190, 17837.00
377.1180, 17953.00
378.3170, 18063.00
379.5150, 18095.39
380.7140, 18158.00
381.9120, 18071.00
383.1110, 17934.00
384.3090, 17803.00
385.5060, 17497.00
386.7040, 17444.00
387.9020, 17519.00
389.0990, 17717.00
390.2960, 17618.00
391.4930, 17879.00
392.6900, 18178.00
393.8860, 18482.00
395.0830, 18661.00
396.2790, 19043.00
397.4750, 19200.00
398.6710, 19271.00
399.8670, 19164.00
401.0630, 19239.00
402.2580, 19182.29
403.4540, 19067.00
404.6490, 19057.00
405.8440, 18928.00
407.0390, 18771.00
408.2330, 19021.00
409.4280, 18749.00
410.6220, 18762.00
411.8160, 18887.00
413.0100, 18830.00
414.2040, 18886.00
415.3980, 18860.00
416.5910, 18546.00
417.7850, 18034.00
418.9780, 17749.00
420.1710, 17362.00
421.3640, 16947.00
422.5560, 16772.00
423.7490, 16471.00
424.9410, 16250.00
426.1330, 16114.00
427.3250, 15912.00
428.5170, 15993.00
429.7090, 16075.00
430.9000, 15990.00
432.0910, 16086.00
433.2820, 16460.00
434.4730, 16695.00
435.6640, 16861.00
436.8550, 16899.00
438.0450, 17112.00
439.2360, 17208.00
440.4260, 17232.00
441.6160, 17288.00
442.8060, 16899.00
443.9950, 16603.00
445.1850, 16198.00
446.3740, 15967.00
447.5630, 15570.00
448.7520, 15755.00
449.9410, 15321.00
451.1300, 15225.00
452.3180, 15402.00
453.5060, 15243.00
454.6950, 15184.00
455.8830, 15296.00
457.0700, 15202.99
458.2580, 15401.00
459.4450, 15217.00
460.6330, 15382.00
461.8200, 15436.00
463.0070, 15544.00
464.1940, 15417.00
465.3800, 15389.00
466.5670, 15247.00
467.7530, 15234.00
468.9390, 15185.00
470.1250, 15164.00
471.3110, 15049.00
472.4970, 15022.44
473.6820, 15025.00
474.8680, 14909.00
476.0530, 14914.00
477.2380, 14845.00
478.4230, 14746.00
479.6070, 14713.00
480.7920, 14953.00
481.9760, 14757.00
483.1600, 14783.00
484.3440, 14633.00
485.5280, 14719.00
486.7120, 14806.00
487.8950, 14771.00
489.0780, 14712.00
490.2620, 14602.00
491.4450, 14604.00
492.6270, 14606.04
493.8100, 14613.00
494.9920, 14722.00
496.1750, 14714.00
497.3570, 14842.00
498.5390, 14799.00
499.7210, 14839.05
500.9020, 14675.00
502.0840, 14863.00
503.2650, 14824.00
504.4460, 14836.00
505.6270, 14884.00
506.8080, 14920.77
507.9890, 15022.00
509.1690, 15075.00
510.3500, 15150.00
511.5300, 15257.00
512.7100, 15325.00
513.8900, 15481.00
515.0690, 15663.00
516.2490, 15740.00
517.4280, 15782.00
518.6070, 15926.00
519.7860, 15951.00
520.9650, 15978.00
522.1440, 16147.00
523.3220, 16356.00
524.5010, 16035.00
525.6790, 16250.00
526.8570, 16149.00
528.0350, 16208.00
529.2130, 16246.00
530.3900, 16304.00
531.5670, 16383.00
532.7450, 16417.00
533.9220, 16682.00
535.0980, 16869.00
536.2750, 17023.00
537.4520, 17336.00
538.6280, 17454.00
539.8040, 17275.00
540.9800, 17251.00
542.1560, 16995.00
543.3320, 16858.00
544.5070, 16804.00
545.6830, 16682.00
546.8580, 16507.00
548.0330, 16602.00
549.2080, 16369.00
550.3830, 16303.00
551.5570, 16284.00
552.7310, 16097.00
553.9060, 15960.00
555.0800, 15786.00
556.2540, 15901.00
557.4270, 15945.00
558.6010, 15905.00
559.7740, 15756.00
560.9470, 15822.00
562.1210, 15787.00
563.2930, 15778.00
564.4660, 15795.00
565.6390, 15757.00
566.8110, 15912.00
567.9830, 15990.00
569.1550, 16014.55
570.3270, 16107.58
571.4990, 16069.00
572.6710, 16174.00
573.8420, 16135.00
575.0130, 16091.00
576.1840, 16073.00
577.3550, 16129.00
578.5260, 16097.00
579.6970, 16053.00
580.8670, 16007.63
582.0370, 15936.14
583.2070, 15846.00
584.3770, 15774.00
585.5470, 15694.00
586.7170, 15606.00
587.8860, 15645.00
589.0550, 15565.00
590.2240, 15678.00
591.3930, 15676.00
592.5620, 15586.00
593.7310, 15724.00
594.8990, 15741.00
596.0670, 15571.00
597.2350, 15570.00
598.4030, 15688.00
599.5710, 15547.00
600.7390, 15597.00
601.9060, 15416.00
603.0740, 15479.00
604.2410, 15397.00
605.4080, 15564.00
606.5740, 15589.00
607.7410, 15486.00
608.9080, 15444.00
610.0740, 15621.00
611.2400, 15720.00
612.4060, 15653.00
613.5720, 15629.00
614.7370, 15622.00
615.9030, 15601.00
617.0680, 15683.98
618.2330, 15807.00
619.3980, 15863.00
620.5630, 15927.00
621.7280, 15991.00
622.8920, 16049.00
624.0570, 16090.00
625.2210, 16163.00
626.3850, 16376.00
627.5490, 16317.00
628.7120, 16519.00
629.8760, 16445.00
631.0390, 16630.00
632.2020, 16854.00
633.3650, 16778.00
634.5280, 16996.00
635.6910, 17084.00
636.8530, 17171.00
638.0160, 17531.00
639.1780, 17532.00
640.3400, 17853.00
641.5020, 18451.00
642.6640, 18652.52
643.8250, 19184.10
644.9870, 19542.00
646.1480, 20195.00
647.3090, 20872.00
648.4700, 21552.00
649.6300, 22718.00
650.7910, 23977.00
651.9510, 25402.00
653.1120, 27126.00
654.2720, 29186.00
655.4320, 31466.00
656.5910, 33613.00
657.7510, 36259.00
658.9100, 38482.00
660.0690, 40534.00
661.2290, 42200.00
662.3880, 42671.00
663.5460, 42870.00
664.7050, 41558.00
665.8630, 40207.00
667.0220, 38723.00
668.1800, 37608.00
669.3380, 36874.00
670.4950, 36728.00
671.6530, 37190.00
672.8100, 38136.00
673.9680, 39465.00
675.1250, 41122.00
676.2820, 43337.00
677.4390, 45375.00
678.5950, 47588.00
679.7520, 50201.00
680.9080, 52081.00
682.0640, 53692.00
683.2200, 54081.00
684.3760, 52936.00
685.5320, 51208.00
686.6870, 47427.00
687.8420, 43712.00
688.9980, 39314.00
690.1530, 35542.00
691.3070, 31942.00
692.4620, 29027.00
693.6170, 26865.00
694.7710, 25009.00
695.9250, 23369.00
697.0790, 22442.00
698.2330, 21417.00
699.3870, 20879.00
700.5400, 20177.00
701.6940, 19725.00
702.8470, 19237.00
704.0000, 18620.00
705.1530, 18484.00
706.3050, 18146.00
707.4580, 18031.00
708.6100, 17837.00
709.7630, 17685.00
710.9150, 17570.00
712.0660, 17428.06
713.2180, 17299.00
714.3700, 17214.72
715.5210, 17110.00
716.6720, 17031.00
717.8240, 16981.00
718.9740, 16890.85
720.1250, 16782.00
721.2760, 16766.00
722.4260, 16769.00
723.5770, 16755.00
724.7270, 16670.00
725.8770, 16680.63
727.0260, 16665.00
728.1760, 16648.00
729.3250, 16669.00
730.4750, 16664.00
731.6240, 16638.26
732.7730, 16499.00
733.9220, 16555.00
735.0700, 16543.00
736.2190, 16447.00
737.3670, 16514.01
738.5150, 16485.03
739.6630, 16568.00
740.8110, 16508.00
741.9590, 16543.90
743.1060, 16556.00
744.2540, 16655.00
745.4010, 16687.00
746.5480, 16693.00
747.6950, 16556.00
748.8410, 16654.00
749.9880, 16793.00
751.1340, 16651.00
752.2800, 16888.00
753.4260, 16754.00
754.5720, 16579.00
755.7180, 16668.00
756.8640, 16487.00
758.0090, 16550.00
759.1540, 16413.00
760.2990, 16460.00
761.4440, 16411.00
762.5890, 16506.00
763.7340, 16417.00
764.8780, 16350.00
766.0220, 16346.00
767.1660, 16380.00
768.3100, 16347.00
769.4540, 16537.00
770.5980, 16150.00
771.7410, 16370.00
772.8840, 16369.00
774.0280, 16240.00
775.1700, 16382.00
776.3130, 16216.00
777.4560, 16196.00
778.5980, 16134.00
779.7410, 16169.00
780.8830, 16372.00
782.0250, 16428.00
783.1670, 16373.00
784.3080, 16341.00
785.4500, 16253.00
786.5910, 16392.00
787.7320, 16407.00
788.8730, 16391.00
790.0140, 16426.00
791.1550, 16503.00
792.2950, 16458.87
793.4360, 16469.15
794.5760, 16421.00
795.7160, 16418.00
796.8560, 16412.00
797.9960, 16403.00
799.1350, 16464.00
800.2750, 16538.00
801.4140, 16627.00
802.5530, 16424.00
803.6920, 16521.00
804.8310, 16524.00
805.9690, 16604.00
807.1080, 16654.00
808.2460, 16635.00
809.3840, 16630.00
810.5220, 16518.00
811.6600, 16766.00
812.7970, 16816.00
813.9350, 16707.00
815.0720, 16604.00
816.2090, 16504.00
817.3460, 16517.78
818.4830, 16598.00
819.6200, 16594.00
820.7560, 16677.00
821.8930, 16747.00
823.0290, 16714.00
824.1650, 16787.93
825.3010, 16726.00
826.4360, 16831.00
827.5720, 16759.00
828.7070, 16727.00
829.8420, 16747.00
830.9770, 16790.00
832.1120, 16812.00
833.2470, 16826.13
834.3820, 16819.00
835.5160, 16822.00
836.6500, 16837.00
837.7840, 16782.00
838.9180, 17175.00
840.0520, 16972.00
841.1860, 17126.00
842.3190, 17144.00
843.4520, 17124.00
844.5850, 17287.00
845.7180, 17179.00
846.8510, 17325.00
847.9840, 17536.00
849.1160, 17820.00
850.2490, 17872.00
851.3810, 18243.00
852.5130, 18513.00
853.6450, 18757.00
854.7760, 18916.00
855.9080, 19317.00
857.0390, 19620.00
858.1700, 19652.00
859.3010, 19791.00
860.4320, 19545.00
861.5630, 19602.00
862.6930, 19305.00
863.8240, 19140.00
864.9540, 18936.00
866.0840, 18878.00
867.2140, 18738.00
868.3440, 18324.00
869.4730, 18410.00
870.6030, 18208.00
871.7320, 17995.00
872.8610, 17944.00
873.9900, 17821.00
875.1190, 17795.00
876.2470, 17709.00
877.3760, 17502.00
878.5040, 17589.00
879.6320, 17498.00
880.7600, 17594.00
881.8880, 17496.00
883.0150, 17577.00
884.1430, 17612.00
885.2700, 17671.00
886.3970, 17598.00
887.5240, 17761.00
888.6510, 17733.00
889.7780, 17646.00
890.9040, 17717.00
892.0310, 17755.00
893.1570, 17656.00
894.2830, 17946.00
895.4090, 17926.39
896.5350, 17806.00
897.6600, 18067.00
898.7860, 17950.00
899.9110, 17924.00
901.0360, 17924.00
902.1610, 17809.00
903.2860, 17852.00
904.4100, 17841.00
905.5350, 17791.00
906.6590, 17929.00
907.7830, 18020.00
908.9070, 18054.00
910.0310, 17992.00
911.1540, 18037.00
912.2780, 18010.00
913.4010, 18075.41
914.5240, 18067.00
915.6470, 18268.00
916.7700, 18335.00
917.8930, 18513.00
919.0150, 18696.00
920.1380, 18605.00
921.2600, 18839.00
922.3820, 19009.00
923.5040, 19261.00
924.6260, 19557.00
925.7470, 19661.00
926.8690, 19986.00
927.9900, 20415.00
929.1110, 20457.00
930.2320, 20730.01
931.3530, 21061.18
932.4730, 21336.12
933.5940, 21558.20
934.7140, 21568.25
935.8340, 21851.87
936.9540, 21979.00
938.0740, 21962.02
939.1930, 21873.62
940.3130, 21716.00
941.4320, 21535.00
942.5510, 21228.00
943.6700, 21091.00
944.7890, 20807.00
945.9080, 20688.00
947.0260, 20431.00
948.1450, 20170.00
949.2630, 20153.00
950.3810, 20019.00
951.4990, 19709.00
952.6170, 19670.00
953.7340, 19489.48
954.8520, 19492.00
955.9690, 19290.00
957.0860, 19348.00
958.2030, 19361.00
959.3200, 19342.00
960.4360, 19386.00
961.5530, 19409.00
962.6690, 19283.00
963.7850, 19251.00
964.9010, 19194.00
966.0170, 19212.00
967.1330, 19223.00
968.2480, 19132.00
969.3630, 19141.00
970.4790, 19291.00
971.5940, 19182.00
972.7080, 19325.00
973.8230, 19258.00
974.9380, 19349.00
976.0520, 19437.00
977.1660, 19407.00
978.2800, 19570.00
979.3940, 19785.00
980.5080, 19814.00
981.6220, 20131.00
982.7350, 20186.00
983.8480, 20507.00
984.9610, 20732.00
986.0740, 21179.00
987.1870, 21366.00
988.3000, 21727.00
989.4120, 22309.00
990.5250, 22915.00
991.6370, 23780.00
992.7490, 24801.00
993.8610, 25887.37
994.9720, 27225.73
996.0840, 28821.00
997.1950, 30647.00
998.3060, 33054.00
999.4170, 35941.00
1000.528, 39212.00
1001.639, 42951.00
1002.750, 47921.00
1003.860, 52596.00
1004.970, 58039.00
1006.080, 63704.00
1007.190, 68633.00
1008.300, 72249.00
1009.410, 74120.00
1010.519, 72953.00
1011.628, 69020.00
1012.738, 63781.00
1013.846, 58054.00
1014.955, 52476.00
1016.064, 48124.00
1017.172, 44903.00
1018.281, 42337.00
1019.389, 40463.00
1020.497, 38827.00
1021.605, 37130.00
1022.713, 36278.00
1023.820, 35196.00
1024.928, 34153.00
1026.035, 33485.00
1027.142, 32811.00
1028.249, 31900.00
1029.356, 31353.00
1030.462, 30760.00
1031.569, 30301.00
1032.675, 29468.00
1033.781, 28475.00
1034.887, 27907.00
1035.993, 26996.00
1037.098, 26383.00
1038.204, 25694.00
1039.309, 25005.00
1040.415, 24583.00
1041.520, 24049.00
1042.624, 23447.00
1043.729, 23146.00
1044.834, 22777.00
1045.938, 22423.00
1047.042, 22150.00
1048.146, 21993.00
1049.250, 21737.00
1050.354, 21655.00
1051.458, 21551.00
1052.561, 21259.00
1053.664, 21269.00
1054.767, 21114.00
1055.870, 20989.00
1056.973, 21028.00
1058.076, 20859.00
1059.178, 20724.00
1060.281, 20582.00
1061.383, 20462.00
1062.485, 20385.00
1063.587, 20351.00
1064.688, 20229.00
1065.790, 20139.55
1066.891, 19937.00
1067.993, 19930.00
1069.094, 19677.00
1070.195, 19603.00
1071.295, 19503.00
1072.396, 19556.00
1073.496, 19360.00
1074.597, 19348.00
1075.697, 19179.00
1076.797, 19402.00
1077.897, 19252.00
1078.996, 19240.00
1080.096, 19318.00
1081.195, 19136.00
1082.294, 19232.00
1083.393, 19153.62
1084.492, 19338.00
1085.591, 19131.00
1086.689, 19137.00
1087.788, 19292.00
1088.886, 19106.00
1089.984, 19198.00
1091.082, 19238.00
1092.180, 19350.00
1093.277, 19123.00
1094.375, 19368.00
1095.472, 19249.00
1096.569, 19254.00
1097.666, 19337.00
1098.763, 19210.00
1099.860, 19339.00
1100.956, 19118.00
1102.053, 19051.00
1103.149, 19039.00
1104.245, 18971.00
1105.341, 19080.00
1106.436, 19004.00
1107.532, 19052.00
1108.627, 18868.00
1109.723, 19021.00
1110.818, 18962.00
1111.913, 19090.00
1113.007, 18956.00
1114.102, 19018.00
1115.197, 19039.00
1116.291, 19006.00
1117.385, 18960.00
1118.479, 18927.00
1119.573, 18946.66
1120.666, 19061.00
1121.760, 19036.00
1122.853, 19146.00
1123.947, 19113.29
1125.040, 18946.00
1126.132, 19018.00
1127.225, 18982.00
1128.318, 18859.00
1129.410, 19102.00
1130.502, 19077.00
1131.595, 18893.00
1132.687, 19062.00
1133.778, 18867.00
1134.870, 18967.00
1135.961, 19043.00
1137.053, 19020.00
1138.144, 19074.00
1139.235, 18927.00
1140.326, 18844.00
1141.416, 18858.00
1142.507, 18968.00
1143.597, 18895.00
1144.688, 19033.00
1145.778, 18960.00
1146.868, 19095.00
1147.957, 19058.67
1149.047, 18885.00
1150.136, 19016.00
1151.226, 18973.00
1152.315, 18966.00
1153.404, 19056.00
1154.493, 18912.00
1155.581, 18972.00
1156.670, 18789.00
1157.758, 18921.00
1158.846, 18878.00
1159.934, 19005.00
1161.022, 18904.00
1162.110, 19016.00
1163.198, 19031.00
1164.285, 19010.00
1165.372, 19099.00
1166.459, 18825.00
1167.546, 18978.00
1168.633, 18822.00
1169.720, 18782.98
1170.806, 18967.39
1171.892, 19074.74
1172.979, 19109.18
1174.065, 18852.31
1175.150, 18971.59
1176.236, 18940.14
1177.322, 18902.50
1178.407, 19074.72
1179.492, 18860.22
1180.577, 19029.12
1181.662, 19044.96
1182.747, 19130.86
1183.832, 19065.08
1184.916, 19073.00
1186.000, 19000.00
1187.084, 19021.00
1188.168, 19017.00
1189.252, 19053.00
1190.336, 18899.00
1191.419, 19020.00
1192.503, 18860.00
1193.586, 19089.00
1194.669, 18913.00
1195.752, 18895.00
1196.835, 19039.00
1197.917, 18951.00
1199.000, 19009.00
1200.082, 19128.00
1201.164, 19090.00
1202.246, 19074.00
1203.328, 19053.00
1204.409, 19152.00
1205.491, 19109.00
1206.572, 19010.00
1207.653, 19174.00
1208.734, 19149.00
1209.815, 19218.00
1210.896, 19352.00
1211.976, 19111.00
1213.057, 19158.00
1214.137, 19115.00
1215.217, 19214.00
1216.297, 19239.00
1217.377, 19085.00
1218.456, 19263.00
1219.536, 19191.00
1220.615, 19370.00
1221.694, 19389.00
1222.773, 19397.00
1223.852, 19382.00
1224.931, 19395.63
1226.009, 19345.00
1227.088, 19330.00
1228.166, 19435.00
1229.244, 19261.00
1230.322, 19348.00
1231.400, 19313.00
1232.477, 19250.00
1233.555, 19481.00
1234.632, 19230.00
1235.709, 19315.00
1236.786, 19365.00
1237.863, 19459.00
1238.939, 19388.00
1240.016, 19473.00
1241.092, 19400.00
1242.168, 19456.00
1243.245, 19421.00
1244.320, 19503.00
1245.396, 19512.00
1246.472, 19503.00
1247.547, 19512.00
1248.622, 19551.00
1249.697, 19601.21
1250.772, 19540.00
1251.847, 19670.00
1252.922, 19635.00
1253.996, 19497.00
1255.071, 19785.00
1256.145, 19816.00
1257.219, 19599.00
1258.293, 19654.00
1259.366, 19673.00
1260.440, 19636.00
1261.513, 19686.00
1262.587, 19715.00
1263.660, 19714.00
1264.733, 19730.00
1265.805, 19765.00
1266.878, 19799.00
1267.951, 19822.00
1269.023, 19804.00
1270.095, 19943.00
1271.167, 19669.00
1272.239, 19978.00
1273.311, 20020.00
1274.382, 19804.00
1275.454, 19764.00
1276.525, 19926.00
1277.596, 19879.00
1278.667, 20094.00
1279.738, 19984.00
1280.808, 20214.00
1281.879, 20099.00
1282.949, 20149.00
1284.019, 19933.00
1285.089, 19990.00
1286.159, 20158.00
1287.229, 20098.00
1288.298, 20066.00
1289.368, 20242.00
1290.437, 20060.00
1291.506, 20307.00
1292.575, 20099.00
1293.644, 20263.00
1294.712, 20267.00
1295.781, 20185.00
1296.849, 20189.00
1297.917, 20374.00
1298.985, 20493.00
1300.053, 20422.00
1301.121, 20270.00
1302.188, 20445.00
1303.255, 20259.00
1304.323, 20379.00
1305.390, 20372.00
1306.457, 20524.00
1307.523, 20444.00
1308.590, 20541.00
1309.656, 20268.00
1310.723, 20404.00
1311.789, 20365.00
1312.855, 20420.00
1313.921, 20355.00
1314.986, 20515.00
1316.052, 20636.00
1317.117, 20638.00
1318.182, 20586.00
1319.248, 20557.00
1320.312, 20596.00
1321.377, 20525.00
1322.442, 20436.00
1323.506, 20486.00
1324.571, 20529.00
1325.635, 20639.00
1326.699, 20437.00
1327.762, 20679.00
1328.826, 20625.00
1329.890, 20485.00
1330.953, 20687.00
1332.016, 20804.00
1333.079, 20743.00
1334.142, 20548.00
1335.205, 20933.00
1336.268, 20724.00
1337.330, 20718.00
1338.392, 20800.00
1339.454, 20812.00
1340.516, 20842.17
1341.578, 20848.00
1342.640, 20887.00
1343.701, 20920.00
1344.763, 20923.04
1345.824, 20980.28
1346.885, 20986.72
1347.946, 21032.00
1349.007, 21051.00
1350.067, 21058.48
1351.128, 21073.00
1352.188, 21056.00
1353.248, 21097.00
1354.308, 21068.00
1355.368, 21119.31
1356.428, 21175.00
1357.487, 21164.00
1358.547, 21141.00
1359.606, 21056.00
1360.665, 21128.00
1361.724, 21272.00
1362.783, 21257.00
1363.841, 21202.00
1364.900, 21375.00
1365.958, 21201.00
1367.016, 21341.00
1368.074, 21149.00
1369.132, 21341.00
1370.190, 21339.00
1371.247, 21271.00
1372.304, 21507.00
1373.362, 21360.00
1374.419, 21579.00
1375.476, 21289.00
1376.532, 21439.00
1377.589, 21302.00
1378.645, 21315.00
1379.702, 21530.00
1380.758, 21458.00
1381.814, 21443.00
1382.870, 21544.00
1383.925, 21386.00
1384.981, 21510.00
1386.036, 21445.00
1387.092, 21579.00
1388.147, 21577.00
1389.202, 21512.00
1390.256, 21619.00
1391.311, 21739.00
1392.365, 21558.00
1393.420, 21614.00
1394.474, 21677.00
1395.528, 21770.00
1396.582, 21701.00
1397.636, 21721.00
1398.689, 21658.00
1399.742, 21704.00
1400.796, 21657.00
1401.849, 21695.00
1402.902, 21707.00
1403.955, 21844.00
1405.007, 21696.00
1406.060, 21834.00
1407.112, 21774.00
1408.164, 21908.00
1409.216, 21960.00
1410.268, 21988.00
1411.320, 21807.00
1412.371, 21928.00
1413.423, 21709.00
1414.474, 21927.00
1415.525, 21943.00
1416.576, 21988.00
1417.627, 21929.00
1418.678, 21819.00
1419.728, 21870.00
1420.778, 21895.00
1421.829, 22132.00
1422.879, 22162.00
1423.928, 22096.00
1424.978, 22088.00
1426.028, 21919.00
1427.077, 21860.00
1428.126, 21886.00
1429.176, 21901.79
1430.225, 21962.41
1431.273, 22071.00
1432.322, 22105.00
1433.371, 22147.00
1434.419, 22136.00
1435.467, 22031.00
1436.515, 22277.00
1437.563, 22253.00
1438.611, 22048.00
1439.658, 22223.00
1440.706, 22242.00
1441.753, 22250.00
1442.800, 22354.00
1443.847, 22369.00
1444.894, 22312.00
1445.941, 22259.00
1446.987, 22281.00
1448.034, 22496.00
1449.080, 22253.00
1450.126, 22512.00
1451.172, 22577.00
1452.218, 22408.00
1453.263, 22531.00
1454.309, 22487.00
1455.354, 22559.00
1456.399, 22476.00
1457.444, 22668.00
1458.489, 22423.00
1459.534, 22378.00
1460.579, 22491.00
1461.623, 22501.00
1462.667, 22766.00
1463.711, 22613.00
1464.755, 22659.00
1465.799, 22769.00
1466.843, 22602.00
1467.886, 22450.00
1468.930, 22667.00
1469.973, 22829.00
1471.016, 22756.00
1472.059, 22542.00
1473.101, 22784.00
1474.144, 22572.00
1475.186, 22565.00
1476.229, 22783.00
1477.271, 22730.00
1478.313, 22595.00
1479.355, 22832.00
1480.396, 22838.00
1481.438, 22812.00
1482.479, 22691.00
1483.520, 22782.00
1484.561, 22743.27
1485.602, 22749.00
1486.643, 22840.00
1487.684, 22795.00
1488.724, 22966.00
1489.765, 22934.00
1490.805, 22895.00
1491.845, 22864.00
1492.885, 23031.00
1493.924, 23080.00
1494.964, 23032.00
1496.003, 22888.00
1497.042, 23076.00
1498.082, 22774.00
1499.120, 22998.00
1500.159, 23213.00
1501.198, 22961.00
1502.236, 22989.00
1503.275, 22964.00
1504.313, 22960.30
1505.351, 23009.00
1506.389, 23093.00
1507.427, 22996.00
1508.464, 23050.00
1509.502, 23044.00
1510.539, 22848.00
1511.576, 23095.00
1512.613, 23243.00
1513.650, 23072.00
1514.687, 23333.00
1515.723, 23113.00
1516.759, 23109.00
1517.796, 23082.00
1518.832, 23294.00
1519.868, 23193.00
1520.903, 23216.00
1521.939, 23244.00
1522.975, 23177.00
1524.010, 23352.00
1525.045, 23132.00
1526.080, 23233.00
1527.115, 23531.00
1528.150, 23329.00
1529.184, 23314.00
1530.219, 23324.00
1531.253, 23396.00
1532.287, 23121.00
1533.321, 23469.00
1534.355, 23454.00
1535.388, 23632.00
1536.422, 23315.00
1537.455, 23424.00
1538.488, 23345.00
1539.522, 23432.00
1540.554, 23604.00
1541.587, 23436.00
1542.620, 23537.00
1543.652, 23397.80
1544.685, 23588.88
1545.717, 23702.89
1546.749, 23743.98
1547.781, 23493.77
1548.812, 23619.71
1549.844, 23594.91
1550.875, 23563.92
1551.906, 23742.79
1552.938, 23534.96
1553.968, 23710.49
1554.999, 23732.99
1556.030, 23825.54
1557.060, 23766.40
1558.091, 23754.12
1559.121, 23893.55
1560.151, 23948.97
1561.181, 23872.37
1562.211, 23831.00
1563.240, 23721.00
1564.270, 23733.00
1565.299, 23954.00
1566.328, 23965.00
1567.357, 23743.00
1568.386, 23803.00
1569.415, 23692.00
1570.443, 23698.00
1571.472, 23871.00
1572.500, 23916.00
1573.528, 23875.00
1574.556, 23847.00
1575.584, 24020.00
1576.611, 24012.00
1577.639, 23965.00
1578.666, 23776.00
##END=



