##NAMES=Enstatite
##RRUFFID=R050644
##IDEAL CHEMISTRY=MgSiO_3_
##LOCALITY=Morogoro, Tanzania
##OWNER=RRUFF
##SOURCE=Jibamitra Ganguly
##DESCRIPTION=Light brown crystal fragment
##STATUS=The identification of this mineral has been confirmed by X-ray diffraction and chemical analysis
##URL=rruff.info/R050644
##MEASURED CHEMISTRY=(Mg_0.90_Fe_0.10_)SiO_3_
##PIN_ID=L01041
##ORIENTATION=Laser parallel to -a* (-1 0 0). Fiducial mark perpendicular to laser is parallel to -b [0 -1 0]
113.2080, 16486.00
114.4400, 16880.00
115.6710, 17281.00
116.9030, 17585.00
118.1340, 18228.00
119.3650, 19049.00
120.5960, 20251.00
121.8270, 21187.00
123.0580, 22380.00
124.2880, 23900.00
125.5190, 26770.00
126.7490, 29852.00
127.9790, 32552.00
129.2090, 33539.00
130.4390, 32370.00
131.6680, 30605.00
132.8980, 28755.00
134.1270, 26922.00
135.3560, 25507.00
136.5850, 24397.00
137.8140, 23946.00
139.0430, 23519.00
140.2710, 23110.00
141.5000, 22641.00
142.7280, 21946.00
143.9560, 21564.00
145.1840, 21035.00
146.4120, 20616.00
147.6390, 20127.00
148.8670, 19894.00
150.0940, 19447.00
151.3210, 19081.00
152.5490, 19053.00
153.7750, 18919.00
155.0020, 18756.00
156.2290, 18712.00
157.4550, 18750.00
158.6810, 18719.00
159.9080, 18596.00
161.1340, 18656.20
162.3590, 18471.00
163.5850, 18682.00
164.8110, 18588.00
166.0360, 18584.00
167.2610, 18552.00
168.4860, 18571.00
169.7110, 18587.37
170.9360, 18640.00
172.1610, 18648.00
173.3850, 18716.00
174.6100, 18742.00
175.8340, 18648.00
177.0580, 18685.00
178.2820, 18615.00
179.5050, 18965.00
180.7290, 18880.00
181.9520, 19014.00
183.1760, 19279.00
184.3990, 19165.00
185.6220, 19208.00
186.8450, 19347.00
188.0670, 19367.46
189.2900, 19494.00
190.5120, 19576.00
191.7340, 19751.00
192.9560, 19856.00
194.1780, 19814.00
195.4000, 19786.00
196.6220, 19873.00
197.8430, 20067.00
199.0640, 19986.00
200.2860, 20104.00
201.5070, 20028.65
202.7270, 19966.21
203.9480, 19844.00
205.1690, 19774.00
206.3890, 19685.00
207.6090, 19565.00
208.8290, 19404.00
210.0490, 19475.00
211.2690, 19524.00
212.4890, 19613.00
213.7080, 19304.00
214.9280, 19603.00
216.1470, 19499.00
217.3660, 19658.00
218.5850, 19800.00
219.8030, 19749.00
221.0220, 19860.00
222.2400, 20030.00
223.4590, 20280.00
224.6770, 20291.00
225.8950, 20638.00
227.1120, 21046.00
228.3300, 21081.00
229.5480, 21485.00
230.7650, 21848.00
231.9820, 22498.00
233.1990, 22808.00
234.4160, 22737.00
235.6330, 22771.00
236.8490, 22169.00
238.0660, 21834.00
239.2820, 21524.00
240.4980, 21208.00
241.7140, 20962.00
242.9300, 20758.10
244.1460, 20538.00
245.3610, 20475.00
246.5770, 20389.00
247.7920, 20358.00
249.0070, 20441.00
250.2220, 20506.00
251.4370, 20250.00
252.6510, 20429.00
253.8660, 20450.00
255.0800, 20618.00
256.2940, 20636.00
257.5080, 20678.52
258.7220, 20978.00
259.9360, 20750.00
261.1490, 20586.00
262.3630, 20673.00
263.5760, 20858.00
264.7890, 20812.00
266.0020, 20904.00
267.2150, 20976.00
268.4270, 20874.00
269.6400, 21001.00
270.8520, 21075.00
272.0640, 21176.00
273.2760, 21043.00
274.4880, 20992.00
275.7000, 21206.00
276.9120, 21315.00
278.1230, 21222.00
279.3340, 21087.00
280.5450, 21243.00
281.7560, 21195.00
282.9670, 21097.00
284.1780, 21229.00
285.3880, 21251.00
286.5980, 21461.00
287.8090, 21501.93
289.0190, 21622.18
290.2290, 21642.00
291.4380, 21831.00
292.6480, 21884.00
293.8570, 21964.00
295.0670, 22041.00
296.2760, 22103.00
297.4850, 22121.00
298.6930, 22145.00
299.9020, 22103.00
301.1110, 22295.00
302.3190, 22212.00
303.5270, 22020.00
304.7350, 21845.00
305.9430, 22157.00
307.1510, 22110.00
308.3580, 22172.00
309.5660, 22274.00
310.7730, 22364.00
311.9800, 22514.28
313.1870, 22583.00
314.3940, 22838.71
315.6010, 23027.00
316.8070, 23178.00
318.0130, 23251.00
319.2200, 23583.00
320.4260, 23796.00
321.6310, 24091.00
322.8370, 24713.00
324.0430, 25305.00
325.2480, 26195.00
326.4540, 27029.00
327.6590, 28304.00
328.8640, 29772.00
330.0680, 31418.00
331.2730, 33402.00
332.4780, 35735.00
333.6820, 38310.00
334.8860, 41067.00
336.0900, 43580.00
337.2940, 45833.00
338.4980, 46495.00
339.7010, 45932.00
340.9050, 44232.00
342.1080, 41943.00
343.3110, 39555.00
344.5140, 36686.00
345.7170, 34040.00
346.9200, 32079.00
348.1220, 30320.00
349.3240, 29139.00
350.5270, 28191.00
351.7290, 27311.00
352.9310, 26991.00
354.1320, 26581.00
355.3340, 25997.00
356.5350, 25677.00
357.7370, 25494.47
358.9380, 25303.00
360.1390, 25215.00
361.3400, 25148.00
362.5400, 24806.00
363.7410, 24808.00
364.9410, 24699.56
366.1410, 24775.00
367.3410, 24650.00
368.5410, 24687.00
369.7410, 24748.00
370.9400, 24807.00
372.1400, 24794.00
373.3390, 24850.00
374.5380, 24931.00
375.7370, 25111.00
376.9360, 25031.00
378.1350, 25278.00
379.3330, 25047.00
380.5310, 25076.00
381.7300, 25225.00
382.9280, 25267.00
384.1260, 25345.00
385.3230, 25522.00
386.5210, 25657.00
387.7180, 25835.00
388.9160, 26197.00
390.1130, 26870.00
391.3100, 27342.00
392.5060, 27865.00
393.7030, 28243.00
394.9000, 28469.00
396.0960, 28852.00
397.2920, 29115.00
398.4880, 29041.00
399.6840, 29199.00
400.8800, 29023.00
402.0750, 28692.00
403.2710, 28771.00
404.4660, 28832.00
405.6610, 28422.00
406.8560, 28350.00
408.0510, 28396.00
409.2450, 28776.00
410.4400, 28419.00
411.6340, 28534.00
412.8280, 28478.00
414.0220, 28598.00
415.2160, 28474.00
416.4100, 28393.57
417.6030, 28104.00
418.7970, 28083.00
419.9900, 27671.00
421.1830, 27416.00
422.3760, 27207.00
423.5690, 26852.00
424.7610, 26628.00
425.9540, 26499.00
427.1460, 26476.00
428.3380, 26510.00
429.5300, 26505.00
430.7220, 26721.64
431.9140, 26929.48
433.1050, 27296.00
434.2970, 27627.00
435.4880, 28105.00
436.6790, 28661.00
437.8700, 28956.00
439.0610, 29033.20
440.2510, 29175.00
441.4420, 28792.00
442.6320, 28299.00
443.8220, 27856.00
445.0120, 27291.00
446.2020, 27083.00
447.3910, 26591.00
448.5810, 26559.00
449.7700, 26203.00
450.9600, 26015.00
452.1490, 26075.00
453.3370, 26032.00
454.5260, 25966.47
455.7150, 26129.00
456.9030, 25913.00
458.0910, 26035.00
459.2800, 26065.00
460.4670, 26035.00
461.6550, 26143.00
462.8430, 26058.00
464.0300, 25952.00
465.2180, 25976.00
466.4050, 25907.00
467.5920, 25899.00
468.7790, 26265.00
469.9650, 26195.00
471.1520, 26128.00
472.3380, 26255.00
473.5250, 25961.00
474.7110, 26027.00
475.8970, 26364.00
477.0820, 26262.00
478.2680, 26444.00
479.4540, 26119.00
480.6390, 26205.00
481.8240, 26279.00
483.0090, 26238.00
484.1940, 26276.00
485.3780, 26322.00
486.5630, 26483.00
487.7470, 26422.00
488.9320, 26436.00
490.1160, 26221.00
491.3000, 26413.00
492.4830, 26291.00
493.6670, 26544.00
494.8500, 26486.00
496.0340, 26802.00
497.2170, 26576.00
498.4000, 26685.00
499.5820, 26758.00
500.7650, 26860.00
501.9480, 26883.00
503.1300, 26994.00
504.3120, 26989.00
505.4940, 26830.00
506.6760, 26993.00
507.8580, 27087.00
509.0390, 26952.00
510.2210, 27359.00
511.4020, 27316.00
512.5830, 27183.00
513.7640, 27373.00
514.9450, 27528.00
516.1250, 27694.00
517.3060, 27469.00
518.4860, 27654.00
519.6660, 27548.00
520.8460, 27673.00
522.0260, 27829.00
523.2060, 27695.00
524.3850, 27795.00
525.5650, 27954.00
526.7440, 27906.00
527.9230, 27930.00
529.1020, 27998.00
530.2810, 27894.00
531.4590, 28092.00
532.6380, 28363.00
533.8160, 28418.00
534.9940, 28400.00
536.1720, 28648.00
537.3500, 28271.00
538.5270, 28418.00
539.7050, 28477.00
540.8820, 28330.00
542.0590, 28393.00
543.2360, 28435.00
544.4130, 28373.00
545.5900, 28200.00
546.7660, 28375.00
547.9430, 28592.00
549.1190, 28439.00
550.2950, 28453.00
551.4710, 28274.00
552.6470, 28221.00
553.8220, 28313.00
554.9980, 28341.00
556.1730, 28444.00
557.3480, 28145.00
558.5230, 28162.00
559.6980, 28166.00
560.8730, 28301.00
562.0470, 28414.00
563.2220, 28435.00
564.3960, 28155.00
565.5700, 28539.00
566.7440, 28426.00
567.9170, 28147.00
569.0910, 28554.00
570.2640, 28635.00
571.4380, 28479.00
572.6110, 28756.00
573.7840, 28508.00
574.9570, 28390.00
576.1290, 28758.00
577.3020, 28417.00
578.4740, 28677.00
579.6460, 28685.00
580.8180, 28832.00
581.9900, 28759.00
583.1620, 28712.00
584.3330, 28978.00
585.5040, 29039.00
586.6760, 29017.00
587.8470, 28993.00
589.0180, 29002.00
590.1880, 28934.00
591.3590, 29074.00
592.5290, 29066.00
593.7000, 29160.00
594.8700, 29125.00
596.0400, 29291.00
597.2090, 29198.00
598.3790, 29192.00
599.5490, 29265.00
600.7180, 29324.00
601.8870, 29300.00
603.0560, 29376.00
604.2250, 29370.00
605.3940, 29317.00
606.5620, 29432.00
607.7300, 29509.00
608.8990, 29540.00
610.0670, 29517.00
611.2350, 29749.00
612.4020, 29525.00
613.5700, 29896.00
614.7370, 29835.00
615.9050, 29892.00
617.0720, 29907.00
618.2390, 29725.00
619.4060, 30118.00
620.5720, 29954.00
621.7390, 30240.00
622.9050, 30435.00
624.0710, 30149.00
625.2370, 30531.00
626.4030, 30572.00
627.5690, 30547.00
628.7340, 30751.00
629.9000, 30781.00
631.0650, 31105.00
632.2300, 31151.00
633.3950, 31104.00
634.5600, 31256.00
635.7240, 31300.00
636.8890, 31472.00
638.0530, 31731.00
639.2170, 31718.00
640.3810, 31838.00
641.5450, 32075.00
642.7080, 32326.00
643.8720, 32446.00
645.0350, 32874.69
646.1980, 32987.00
647.3610, 33744.00
648.5240, 34253.00
649.6870, 34813.00
650.8490, 35696.00
652.0120, 36832.00
653.1740, 38109.00
654.3360, 39576.00
655.4980, 41262.00
656.6600, 42888.00
657.8210, 44743.00
658.9830, 45728.00
660.1440, 46093.00
661.3050, 46385.00
662.4660, 45716.00
663.6270, 44270.00
664.7870, 42776.00
665.9480, 41798.00
667.1080, 40859.00
668.2680, 40228.00
669.4280, 39512.00
670.5880, 39701.00
671.7480, 40071.00
672.9070, 41004.00
674.0670, 42161.00
675.2260, 43220.00
676.3850, 45063.00
677.5440, 46618.00
678.7030, 48555.00
679.8610, 50121.00
681.0200, 51021.00
682.1780, 51248.00
683.3360, 50524.00
684.4940, 49193.00
685.6520, 47204.00
686.8090, 44961.00
687.9670, 42645.00
689.1240, 40556.00
690.2810, 39042.00
691.4380, 37659.00
692.5950, 36451.00
693.7520, 35755.00
694.9080, 34946.00
696.0650, 34480.00
697.2210, 34102.00
698.3770, 33985.00
699.5330, 33640.00
700.6880, 33543.00
701.8440, 33228.00
702.9990, 33075.00
704.1550, 32879.00
705.3100, 33022.00
706.4650, 32871.00
707.6190, 32816.00
708.7740, 32858.00
709.9290, 32690.00
711.0830, 32626.00
712.2370, 32679.00
713.3910, 32684.00
714.5450, 32677.00
715.6980, 32670.00
716.8520, 32531.00
718.0050, 32482.00
719.1580, 32593.00
720.3110, 32668.00
721.4640, 32696.00
722.6170, 32798.00
723.7700, 32549.00
724.9220, 32902.00
726.0740, 32864.00
727.2260, 32712.00
728.3780, 32956.00
729.5300, 32776.00
730.6810, 32685.00
731.8330, 32759.00
732.9840, 33008.00
734.1350, 32954.00
735.2860, 33104.00
736.4370, 32924.00
737.5880, 32756.00
738.7380, 32801.00
739.8880, 32972.00
741.0390, 32935.00
742.1890, 32923.00
743.3380, 33125.00
744.4880, 33070.00
745.6380, 32949.00
746.7870, 33045.00
747.9360, 33067.00
749.0850, 33195.00
750.2340, 33250.00
751.3830, 33211.78
752.5310, 33175.00
753.6800, 33081.00
754.8280, 33105.00
755.9760, 32984.00
757.1240, 33292.00
758.2720, 33229.00
759.4190, 33447.00
760.5670, 33452.90
761.7140, 33190.00
762.8610, 33363.00
764.0080, 33451.00
765.1550, 33243.00
766.3020, 33527.00
767.4480, 33501.00
768.5950, 33440.00
769.7410, 33396.00
770.8870, 33297.00
772.0330, 33389.13
773.1780, 33567.00
774.3240, 33606.00
775.4690, 33531.00
776.6140, 33684.00
777.7590, 33575.18
778.9040, 33646.00
780.0490, 33484.00
781.1940, 33502.00
782.3380, 33554.00
783.4820, 33708.00
784.6260, 33822.00
785.7700, 33604.00
786.9140, 33578.00
788.0580, 33722.00
789.2010, 33835.00
790.3450, 33905.00
791.4880, 33759.00
792.6310, 33929.00
793.7730, 34038.00
794.9160, 33760.00
796.0590, 33880.00
797.2010, 33960.00
798.3430, 34098.00
799.4850, 34048.00
800.6270, 34136.00
801.7690, 34065.00
802.9100, 34097.00
804.0520, 34302.00
805.1930, 34205.00
806.3340, 34396.00
807.4750, 34354.00
808.6160, 34389.00
809.7560, 34427.00
810.8970, 34209.00
812.0370, 34231.00
813.1770, 34422.00
814.3170, 34549.00
815.4570, 34300.00
816.5960, 34664.00
817.7360, 34574.00
818.8750, 34481.00
820.0140, 34536.00
821.1530, 34639.00
822.2920, 34558.00
823.4310, 34581.00
824.5690, 34661.00
825.7070, 34646.86
826.8460, 34896.00
827.9840, 34732.00
829.1220, 34938.00
830.2590, 35019.00
831.3970, 34979.00
832.5340, 35038.00
833.6710, 35179.00
834.8080, 35265.00
835.9450, 35056.00
837.0820, 35040.00
838.2190, 35225.00
839.3550, 35414.00
840.4910, 35591.00
841.6270, 35378.00
842.7630, 35346.00
843.8990, 35736.00
845.0350, 35616.00
846.1700, 35772.00
847.3060, 36059.00
848.4410, 36237.00
849.5760, 36493.00
850.7100, 36709.00
851.8450, 36742.00
852.9800, 36829.00
854.1140, 36958.90
855.2480, 37120.00
856.3820, 37138.00
857.5160, 37099.00
858.6500, 37127.00
859.7830, 36882.00
860.9170, 36869.00
862.0500, 36808.00
863.1830, 36568.00
864.3160, 36452.00
865.4480, 36557.00
866.5810, 36429.00
867.7130, 36497.00
868.8460, 36331.00
869.9780, 36094.00
871.1100, 36150.00
872.2410, 36266.00
873.3730, 36337.00
874.5050, 36163.00
875.6360, 36570.00
876.7670, 36256.00
877.8980, 36399.00
879.0290, 36306.00
880.1590, 36327.00
881.2900, 36420.00
882.4200, 36183.00
883.5500, 36560.00
884.6800, 36411.00
885.8100, 36499.00
886.9400, 36442.00
888.0690, 36506.00
889.1990, 36498.00
890.3280, 36655.00
891.4570, 36640.00
892.5860, 36530.00
893.7140, 36556.00
894.8430, 36457.00
895.9710, 36733.00
897.1000, 36509.00
898.2280, 36716.00
899.3560, 36821.00
900.4830, 36718.00
901.6110, 36755.00
902.7380, 36812.00
903.8660, 36876.00
904.9930, 36920.00
906.1200, 36840.00
907.2460, 36985.00
908.3730, 37189.00
909.5000, 37046.00
910.6260, 37257.00
911.7520, 37227.00
912.8780, 37140.00
914.0040, 37283.00
915.1290, 37138.00
916.2550, 37316.00
917.3800, 37193.00
918.5050, 37226.62
919.6300, 37315.00
920.7550, 37330.00
921.8800, 37304.00
923.0040, 37524.00
924.1290, 37592.00
925.2530, 37916.00
926.3770, 37698.00
927.5010, 38128.00
928.6250, 38014.00
929.7480, 37602.00
930.8720, 37920.00
931.9950, 38045.00
933.1180, 38082.00
934.2410, 38109.00
935.3640, 38160.44
936.4860, 38171.00
937.6090, 38212.00
938.7310, 38227.00
939.8530, 38276.00
940.9750, 38210.00
942.0970, 38198.22
943.2180, 38221.00
944.3400, 38111.00
945.4610, 38094.00
946.5820, 38083.50
947.7030, 38430.00
948.8240, 38231.00
949.9450, 38409.00
951.0650, 38526.00
952.1860, 38334.00
953.3060, 38301.00
954.4260, 38383.00
955.5460, 38302.12
956.6650, 38443.00
957.7850, 38386.00
958.9040, 38435.00
960.0230, 38623.00
961.1420, 38656.00
962.2610, 38414.00
963.3800, 38365.00
964.4990, 38725.00
965.6170, 38643.00
966.7350, 38784.00
967.8530, 38759.00
968.9710, 38712.00
970.0890, 38547.00
971.2070, 38906.00
972.3240, 39047.00
973.4410, 38874.00
974.5580, 39035.00
975.6750, 38965.00
976.7920, 39183.00
977.9090, 39255.00
979.0250, 39222.00
980.1410, 39361.00
981.2580, 39258.00
982.3740, 39462.00
983.4890, 39439.00
984.6050, 39557.00
985.7200, 39639.00
986.8360, 39700.00
987.9510, 39813.00
989.0660, 39907.00
990.1810, 39897.00
991.2950, 40057.60
992.4100, 40138.00
993.5240, 40361.00
994.6390, 40528.75
995.7530, 40609.00
996.8660, 40948.00
997.9800, 41070.00
999.0940, 41293.00
1000.207, 41748.00
1001.320, 42121.00
1002.433, 42175.00
1003.546, 42895.00
1004.659, 43210.00
1005.772, 43797.00
1006.884, 44237.00
1007.996, 44610.00
1009.108, 44913.00
1010.220, 45264.00
1011.332, 44844.00
1012.444, 44796.00
1013.555, 44844.00
1014.666, 44823.00
1015.777, 44931.00
1016.888, 45064.02
1017.999, 44883.00
1019.110, 45375.00
1020.220, 45562.00
1021.331, 45625.00
1022.441, 45618.00
1023.551, 45760.00
1024.661, 45754.00
1025.770, 46297.00
1026.880, 46125.00
1027.989, 46161.00
1029.098, 45994.00
1030.207, 45851.00
1031.316, 45392.00
1032.425, 45163.00
1033.533, 44708.00
1034.642, 44606.00
1035.750, 44147.00
1036.858, 43578.00
1037.966, 43188.00
1039.073, 43107.00
1040.181, 42774.00
1041.288, 42151.00
1042.396, 42564.00
1043.503, 41970.00
1044.610, 41940.00
1045.716, 41803.00
1046.823, 41766.00
1047.929, 41839.00
1049.036, 41489.00
1050.142, 41716.00
1051.248, 41554.00
1052.353, 41551.00
1053.459, 41589.00
1054.564, 41665.00
1055.670, 41494.00
1056.775, 41804.00
1057.880, 41662.00
1058.985, 41631.00
1060.089, 41776.00
1061.194, 41660.00
1062.298, 41774.00
1063.402, 41922.00
1064.506, 41574.00
1065.610, 41898.00
1066.713, 41404.00
1067.817, 41790.00
1068.920, 41873.00
1070.023, 41883.00
1071.126, 41931.00
1072.229, 41897.00
1073.332, 41788.00
1074.435, 42051.00
1075.537, 41893.00
1076.639, 42052.00
1077.741, 41901.00
1078.843, 41901.00
1079.945, 41997.00
1081.046, 42038.00
1082.148, 42098.98
1083.249, 42338.00
1084.350, 42224.00
1085.451, 42268.00
1086.551, 42304.00
1087.652, 42196.00
1088.752, 42313.00
1089.853, 42366.00
1090.953, 42208.00
1092.053, 42233.00
1093.152, 42167.00
1094.252, 42377.00
1095.351, 42324.00
1096.451, 42243.00
1097.550, 42473.00
1098.649, 42201.00
1099.748, 42433.00
1100.846, 42106.00
1101.945, 42378.00
1103.043, 42334.00
1104.141, 42549.00
1105.239, 42306.00
1106.337, 42574.00
1107.434, 42552.00
1108.532, 42541.00
1109.629, 42518.00
1110.726, 42719.00
1111.823, 42742.00
1112.920, 42672.00
1114.017, 43027.00
1115.113, 42867.00
1116.210, 43214.00
1117.306, 43232.00
1118.402, 43387.00
1119.498, 43260.00
1120.593, 43612.00
1121.689, 43477.00
1122.784, 43345.00
1123.879, 43170.00
1124.974, 43115.00
1126.069, 43056.83
1127.164, 43274.00
1128.259, 43157.00
1129.353, 43043.00
1130.447, 43356.00
1131.541, 43116.00
1132.635, 43499.00
1133.729, 43193.00
1134.822, 43306.00
1135.916, 43201.00
1137.009, 43487.00
1138.102, 43388.00
1139.195, 43271.00
1140.288, 43606.00
1141.380, 43396.00
1142.473, 43568.00
1143.565, 43419.00
1144.657, 43476.00
1145.749, 43777.00
1146.841, 43383.00
1147.932, 43366.00
1149.024, 43630.00
1150.115, 44108.00
1151.206, 43959.00
1152.297, 43866.00
1153.388, 43913.00
1154.479, 43830.00
1155.569, 43862.00
1156.659, 43867.38
1157.750, 43986.00
1158.839, 43882.00
1159.929, 43745.00
1161.019, 43703.00
1162.108, 43845.00
1163.198, 44235.00
1164.287, 44158.00
1165.376, 44273.00
1166.465, 44111.00
1167.553, 44304.00
1168.642, 43950.00
1169.730, 44470.00
1170.818, 44099.00
1171.906, 44207.00
1172.994, 44264.00
1174.082, 44278.00
1175.170, 44419.00
1176.257, 44398.00
1177.344, 44321.00
1178.431, 44357.00
1179.518, 44581.00
1180.605, 44789.00
1181.691, 44575.00
1182.778, 44749.00
1183.864, 44518.00
1184.950, 44686.00
1186.036, 44596.00
1187.122, 44698.00
1188.207, 44805.00
1189.292, 44701.00
1190.378, 44735.00
1191.463, 44942.00
1192.548, 44801.00
1193.632, 44930.00
1194.717, 44829.00
1195.801, 45055.00
1196.886, 45328.00
1197.970, 45020.00
1199.054, 44809.00
1200.137, 45042.00
1201.221, 45157.00
1202.305, 45160.00
1203.388, 45154.00
1204.471, 45486.00
1205.554, 44997.00
1206.637, 45494.00
1207.719, 45253.00
1208.802, 45290.00
1209.884, 45293.00
1210.966, 45243.00
1212.048, 45332.70
1213.130, 45530.00
1214.212, 45470.00
1215.293, 45671.00
1216.374, 45746.00
1217.456, 45656.00
1218.536, 45690.00
1219.617, 45597.00
1220.698, 45628.57
1221.778, 45619.00
1222.859, 45703.00
1223.939, 45730.00
1225.019, 45817.00
1226.099, 45841.00
1227.178, 46052.00
1228.258, 45951.00
1229.337, 46094.00
1230.417, 46325.00
1231.496, 46123.00
1232.574, 46033.00
1233.653, 46126.00
1234.732, 46349.00
1235.810, 46338.00
1236.888, 46342.00
1237.966, 46473.76
1239.044, 46449.33
1240.122, 46575.00
1241.199, 46464.00
1242.277, 46384.00
1243.354, 46310.00
1244.431, 46443.00
1245.508, 46659.00
1246.585, 46394.00
1247.661, 46666.00
1248.738, 46777.00
1249.814, 46680.00
1250.890, 46785.00
1251.966, 46800.83
1253.042, 46666.00
1254.117, 46845.00
1255.193, 46828.00
1256.268, 46788.00
1257.343, 46751.00
1258.418, 46923.00
1259.493, 47000.00
1260.567, 46889.00
1261.642, 47122.00
1262.716, 47203.00
1263.790, 47187.00
1264.864, 47533.00
1265.938, 47299.00
1267.011, 47273.00
1268.085, 47147.00
1269.158, 47298.00
1270.231, 47501.00
1271.304, 47496.00
1272.377, 47317.00
1273.450, 47562.00
1274.522, 47402.00
1275.594, 47601.00
1276.666, 47486.00
1277.738, 47657.00
1278.810, 47614.00
1279.882, 47794.00
1280.953, 47683.00
1282.025, 47766.00
1283.096, 47690.00
1284.167, 47732.64
1285.238, 47626.00
1286.308, 47798.00
1287.379, 48033.00
1288.449, 48036.00
1289.519, 48231.00
1290.589, 48197.00
1291.659, 48126.00
1292.729, 48353.00
1293.798, 48175.00
1294.868, 48525.00
1295.937, 48229.00
1297.006, 48307.00
1298.075, 48309.00
1299.143, 48428.00
1300.212, 48335.00
1301.280, 48530.00
1302.348, 48577.24
1303.416, 48791.00
1304.484, 48719.00
1305.552, 48734.00
1306.620, 48669.00
1307.687, 48647.00
1308.754, 48871.00
1309.821, 49029.00
1310.888, 48909.00
1311.955, 49091.00
1313.021, 48958.00
1314.088, 48834.00
1315.154, 49340.00
1316.220, 49174.00
1317.286, 49345.00
1318.352, 49409.00
1319.417, 49586.00
1320.483, 49334.00
1321.548, 49513.00
1322.613, 49343.00
1323.678, 49553.00
1324.743, 49652.00
1325.807, 49508.00
1326.872, 49688.00
1327.936, 50146.00
1329.000, 49497.00
1330.064, 49377.00
1331.128, 49817.00
1332.191, 49679.00
1333.255, 49799.00
1334.318, 49935.00
1335.381, 49889.00
1336.444, 49979.27
1337.507, 49977.00
1338.569, 50017.00
1339.632, 50031.33
1340.694, 50034.00
1341.756, 50081.00
1342.818, 50216.00
1343.880, 50220.00
1344.941, 50238.00
1346.003, 50537.00
1347.064, 50466.00
1348.125, 50757.00
1349.186, 50463.00
1350.247, 50289.00
1351.308, 50764.00
1352.368, 50770.00
1353.428, 50580.00
1354.489, 50570.00
1355.549, 50578.81
1356.608, 50660.00
1357.668, 50712.00
1358.727, 50845.00
1359.787, 51054.00
1360.846, 51132.00
1361.905, 51064.00
1362.964, 51249.00
1364.022, 51064.00
1365.081, 51259.00
1366.139, 50912.00
1367.197, 51283.00
1368.255, 51275.00
1369.313, 51338.00
1370.371, 51383.00
1371.428, 51367.00
1372.486, 51441.67
1373.543, 51471.00
1374.600, 51540.00
1375.657, 51553.00
1376.713, 51596.00
1377.770, 51819.00
1378.826, 51612.00
1379.882, 51582.00
1380.938, 51891.00
1381.994, 51729.00
1383.050, 51768.00
1384.106, 51989.00
1385.161, 51910.00
1386.216, 51734.00
1387.271, 51808.00
1388.326, 51914.00
1389.381, 51940.00
1390.435, 52166.00
1391.490, 51929.00
1392.544, 52280.00
1393.598, 52549.00
1394.652, 52072.00
1395.705, 52489.00
1396.759, 52224.00
1397.812, 52103.00
1398.866, 52501.00
1399.919, 52384.00
1400.972, 52573.00
1402.024, 52619.00
1403.077, 52541.00
1404.129, 52383.00
1405.181, 52567.00
1406.233, 52900.00
1407.285, 52723.00
1408.337, 52781.00
1409.389, 52958.00
1410.440, 52819.00
1411.491, 52816.00
1412.542, 53115.00
1413.593, 52834.00
1414.644, 53003.00
1415.695, 53133.00
1416.745, 53144.00
1417.795, 53255.00
1418.845, 52892.00
1419.895, 53376.00
1420.945, 53082.00
1421.995, 53469.00
1423.044, 53446.00
1424.093, 53574.00
1425.142, 53234.00
1426.191, 53543.00
1427.240, 53484.00
1428.289, 53446.00
1429.337, 53842.00
1430.385, 53675.00
1431.433, 53549.00
1432.481, 53754.00
1433.529, 53787.00
1434.577, 53853.82
1435.624, 54212.00
1436.672, 54096.00
1437.719, 54200.00
1438.766, 54429.00
1439.812, 54091.00
1440.859, 54463.00
1441.905, 54612.00
1442.952, 54355.00
1443.998, 54298.00
1445.044, 54355.00
1446.090, 54505.00
1447.135, 54709.00
1448.181, 54764.00
1449.226, 54980.00
1450.271, 54922.57
1451.316, 54878.00
1452.361, 54754.00
1453.405, 54798.00
1454.450, 54626.00
1455.494, 54932.00
1456.538, 54964.00
1457.582, 54936.00
1458.626, 54783.00
1459.670, 55009.00
1460.713, 54772.00
1461.757, 55111.00
1462.800, 55131.00
1463.843, 55234.00
1464.886, 55304.00
1465.928, 55087.00
1466.971, 54871.00
1468.013, 55413.00
1469.055, 55205.00
1470.097, 55421.00
1471.139, 55286.00
1472.181, 55692.00
1473.222, 55410.00
1474.263, 55435.00
1475.305, 55417.00
1476.346, 55776.00
1477.386, 55787.00
1478.427, 55953.00
1479.468, 55581.00
1480.508, 55885.00
1481.548, 55813.00
1482.588, 56330.00
1483.628, 55858.00
1484.668, 56000.00
1485.707, 56103.00
1486.747, 55903.00
1487.786, 55864.00
1488.825, 56185.00
1489.864, 56140.00
1490.902, 56221.73
1491.941, 56541.00
1492.979, 56293.00
1494.017, 56247.00
1495.055, 56274.00
1496.093, 56404.00
1497.131, 56374.00
1498.168, 56494.00
1499.206, 56526.55
1500.243, 56390.00
1501.280, 56653.00
1502.317, 56586.00
1503.354, 56728.00
1504.390, 56910.00
1505.426, 56805.00
1506.463, 57002.00
1507.499, 56912.00
1508.535, 56990.00
1509.570, 56920.00
1510.606, 57142.00
1511.641, 57155.00
1512.676, 56804.00
1513.711, 56927.00
1514.746, 57094.00
1515.781, 57084.00
1516.816, 57347.00
1517.850, 57324.00
1518.884, 57130.00
1519.918, 57335.00
1520.952, 57336.00
1521.986, 57270.00
1523.019, 57191.00
1524.053, 57584.00
1525.086, 57283.00
1526.119, 57637.00
1527.152, 57654.00
1528.185, 57372.00
1529.217, 57628.00
1530.250, 57718.00
1531.282, 57975.00
1532.314, 57663.00
1533.346, 57713.00
1534.377, 57709.00
1535.409, 58039.00
1536.440, 57751.00
1537.472, 58173.00
1538.503, 57778.00
1539.534, 57686.00
1540.564, 57703.00
1541.595, 58178.00
1542.625, 58540.00
1543.656, 58025.00
1544.686, 58176.00
1545.716, 58167.00
1546.745, 58130.00
1547.775, 58198.05
1548.804, 58133.00
1549.834, 58211.00
1550.863, 58442.00
1551.892, 58434.00
1552.920, 58636.00
1553.949, 58493.00
1554.977, 58736.00
1556.006, 58539.00
1557.034, 58585.00
1558.062, 58674.00
1559.089, 58490.00
1560.117, 58288.00
1561.144, 58436.00
1562.172, 58873.00
1563.199, 58834.00
1564.226, 58824.00
1565.252, 59084.00
1566.279, 58683.00
1567.305, 58912.00
1568.332, 59071.00
1569.358, 59170.00
1570.384, 59461.00
##END=



