##NAMES=Enstatite
##RRUFFID=R070418
##IDEAL CHEMISTRY=MgSiO_3_
##LOCALITY=India
##OWNER=RRUFF
##SOURCE=Michael Scott
##DESCRIPTION=Brown translucent fragments
##STATUS=The identification of this mineral has been confirmed by X-ray diffraction and chemical analysis
##URL=rruff.info/R070418
##MEASURED CHEMISTRY=(Mg_0.86_Fe_0.14_)_Î£=1_Si_1.00_O_3_; trace amounts of Al, Ca, Mn
##PIN_ID=L01848
##ORIENTATION=Laser parallel to a* (1 0 0). Fiducial mark perpendicular to laser is parallel to b [0 1 0]
112.8890, 4088.000
114.1310, 4305.000
115.3720, 4529.000
116.6130, 4531.000
117.8540, 4644.000
119.0950, 4569.000
120.3360, 4593.000
121.5760, 4622.000
122.8160, 4833.000
124.0560, 4896.000
125.2960, 4942.000
126.5350, 4899.000
127.7750, 5061.000
129.0140, 5023.000
130.2530, 5153.000
131.4920, 5299.000
132.7300, 5244.000
133.9690, 5475.000
135.2070, 5439.000
136.4450, 5488.000
137.6830, 5650.000
138.9210, 5847.000
140.1580, 6036.000
141.3950, 6290.000
142.6330, 6623.000
143.8690, 6732.000
145.1060, 7076.000
146.3430, 7149.000
147.5790, 7428.000
148.8150, 7467.000
150.0510, 7441.000
151.2870, 7408.000
152.5220, 7140.000
153.7580, 6868.000
154.9930, 6730.000
156.2280, 6556.989
157.4620, 6436.000
158.6970, 6365.000
159.9310, 6294.000
161.1660, 6271.000
162.4000, 6350.000
163.6330, 6476.000
164.8670, 6531.000
166.1000, 6605.000
167.3340, 6762.000
168.5670, 6263.000
169.8000, 6243.000
171.0320, 6319.000
172.2650, 6171.000
173.4970, 6125.000
174.7290, 6192.000
175.9610, 6138.000
177.1930, 6176.000
178.4240, 6214.000
179.6550, 6405.000
180.8870, 6524.000
182.1170, 6576.000
183.3480, 6888.000
184.5790, 7189.000
185.8090, 7605.000
187.0390, 8180.000
188.2690, 8798.000
189.4990, 9652.000
190.7290, 10055.00
191.9580, 9835.000
193.1870, 9354.000
194.4160, 8832.000
195.6450, 8283.000
196.8740, 7886.000
198.1020, 7595.000
199.3310, 7399.000
200.5590, 7212.000
201.7870, 7220.000
203.0140, 7074.000
204.2420, 6718.000
205.4690, 6461.000
206.6960, 6197.000
207.9230, 6036.000
209.1500, 6061.000
210.3760, 6024.000
211.6030, 5991.000
212.8290, 5920.000
214.0550, 5973.000
215.2810, 6053.000
216.5060, 5968.000
217.7320, 6078.000
218.9570, 6129.000
220.1820, 6304.000
221.4070, 6433.000
222.6320, 6650.000
223.8560, 6869.000
225.0800, 7180.000
226.3040, 7607.000
227.5280, 8014.000
228.7520, 8658.000
229.9760, 9561.000
231.1990, 10579.00
232.4220, 12056.00
233.6450, 13805.00
234.8680, 15692.00
236.0910, 16532.00
237.3130, 15664.00
238.5350, 14241.00
239.7570, 12269.00
240.9790, 10484.00
242.2010, 9272.000
243.4220, 8205.000
244.6430, 7504.000
245.8640, 6926.000
247.0850, 6697.000
248.3060, 6414.000
249.5270, 6199.000
250.7470, 6239.000
251.9670, 6056.000
253.1870, 5968.000
254.4070, 6015.000
255.6260, 5905.000
256.8460, 5919.000
258.0650, 6038.000
259.2840, 5950.885
260.5030, 5923.340
261.7220, 5919.000
262.9400, 5766.000
264.1580, 5755.000
265.3760, 5720.000
266.5940, 5678.000
267.8120, 5676.400
269.0290, 5697.000
270.2470, 5679.232
271.4640, 5700.000
272.6810, 5744.000
273.8980, 5765.000
275.1140, 5789.000
276.3310, 5928.000
277.5470, 5881.000
278.7630, 5935.000
279.9790, 5935.000
281.1940, 6055.000
282.4100, 6149.000
283.6250, 6268.000
284.8400, 6362.000
286.0550, 6401.000
287.2700, 6615.000
288.4850, 6814.000
289.6990, 7084.000
290.9130, 7485.000
292.1270, 7771.000
293.3410, 8183.000
294.5540, 8670.000
295.7680, 9014.000
296.9810, 9482.000
298.1940, 9686.000
299.4070, 9706.000
300.6200, 9575.000
301.8320, 9162.000
303.0450, 8852.000
304.2570, 8809.000
305.4690, 8621.000
306.6800, 8812.000
307.8920, 9009.000
309.1030, 9268.000
310.3150, 9671.000
311.5260, 10094.00
312.7360, 10733.00
313.9470, 11563.00
315.1580, 12577.00
316.3680, 13731.00
317.5780, 14738.00
318.7880, 15248.00
319.9980, 15647.00
321.2070, 15402.00
322.4170, 15026.00
323.6260, 14655.00
324.8350, 14537.00
326.0430, 15036.00
327.2520, 15635.00
328.4610, 16771.00
329.6690, 18186.00
330.8770, 20086.00
332.0850, 22783.00
333.2920, 26103.00
334.5000, 29929.00
335.7070, 34746.00
336.9140, 39833.00
338.1210, 44672.00
339.3280, 49351.00
340.5350, 51098.00
341.7410, 50032.00
342.9470, 47346.00
344.1540, 42698.00
345.3590, 37370.00
346.5650, 32326.00
347.7710, 27996.00
348.9760, 24163.00
350.1810, 21326.00
351.3860, 19161.00
352.5910, 17374.00
353.7950, 15818.00
355.0000, 14652.00
356.2040, 13913.00
357.4080, 13024.00
358.6120, 12445.00
359.8150, 11945.00
361.0190, 11689.00
362.2220, 11354.00
363.4250, 11073.00
364.6280, 10932.00
365.8310, 10924.00
367.0340, 10967.00
368.2360, 10976.00
369.4380, 11214.00
370.6400, 11596.00
371.8420, 11726.00
373.0440, 12264.00
374.2450, 12706.00
375.4470, 13242.00
376.6480, 13731.00
377.8490, 14219.00
379.0490, 14675.00
380.2500, 14854.00
381.4500, 14954.00
382.6510, 14955.00
383.8510, 15104.00
385.0500, 15386.00
386.2500, 15810.00
387.4500, 16417.00
388.6490, 17626.00
389.8480, 19060.00
391.0470, 20818.00
392.2460, 22752.00
393.4440, 24726.00
394.6430, 27005.00
395.8410, 29175.00
397.0390, 30849.00
398.2370, 32149.00
399.4340, 32624.00
400.6320, 32557.00
401.8290, 31942.00
403.0260, 30754.00
404.2230, 29466.00
405.4200, 28179.00
406.6170, 26539.00
407.8130, 25311.00
409.0090, 23942.00
410.2050, 22581.00
411.4010, 21573.00
412.5970, 20435.00
413.7920, 19443.00
414.9880, 18356.00
416.1830, 17462.00
417.3780, 16503.00
418.5730, 15601.00
419.7670, 14696.00
420.9620, 13897.00
422.1560, 13065.00
423.3500, 12276.00
424.5440, 11596.00
425.7380, 10846.00
426.9310, 10090.00
428.1240, 9625.000
429.3180, 9157.000
430.5110, 8822.000
431.7030, 8518.000
432.8960, 8282.000
434.0890, 8172.000
435.2810, 8172.000
436.4730, 7977.000
437.6650, 7868.000
438.8570, 7889.000
440.0480, 7771.000
441.2390, 7609.000
442.4310, 7395.000
443.6220, 7248.000
444.8120, 7115.062
446.0030, 6955.000
447.1940, 6910.000
448.3840, 6821.000
449.5740, 6775.000
450.7640, 6881.000
451.9540, 6976.000
453.1430, 6851.000
454.3330, 6993.000
455.5220, 6985.000
456.7110, 6934.000
457.9000, 6761.000
459.0890, 6861.000
460.2770, 6902.000
461.4650, 6889.000
462.6540, 6897.000
463.8420, 6703.000
465.0290, 6622.000
466.2170, 6781.000
467.4050, 6708.000
468.5920, 6795.000
469.7790, 6847.000
470.9660, 6701.000
472.1530, 6677.000
473.3390, 6723.000
474.5250, 6641.000
475.7120, 6678.000
476.8980, 6601.000
478.0840, 6560.000
479.2690, 6703.000
480.4550, 6561.000
481.6400, 6733.000
482.8250, 6672.000
484.0100, 6656.000
485.1950, 6739.000
486.3800, 6678.000
487.5640, 6674.000
488.7480, 6612.000
489.9320, 6648.000
491.1160, 6630.000
492.3000, 6699.000
493.4840, 6605.000
494.6670, 6625.596
495.8500, 6618.747
497.0330, 6615.000
498.2160, 6620.000
499.3990, 6666.000
500.5810, 6707.000
501.7630, 6699.000
502.9460, 6771.000
504.1280, 6876.000
505.3090, 6994.000
506.4910, 7065.000
507.6720, 7218.000
508.8540, 7324.000
510.0350, 7459.000
511.2160, 7757.000
512.3960, 8020.000
513.5770, 8484.000
514.7570, 8833.000
515.9380, 9513.000
517.1180, 9986.000
518.2970, 10647.00
519.4770, 11580.00
520.6570, 12246.00
521.8360, 13022.00
523.0150, 13864.00
524.1940, 14307.00
525.3730, 14461.00
526.5510, 13895.00
527.7300, 13186.00
528.9080, 12553.00
530.0860, 12062.00
531.2640, 11624.00
532.4420, 11447.00
533.6200, 11740.00
534.7970, 12116.00
535.9740, 12783.00
537.1510, 13246.00
538.3280, 13332.00
539.5050, 13280.00
540.6810, 12798.00
541.8580, 12298.00
543.0340, 11789.00
544.2100, 11763.00
545.3860, 11606.00
546.5610, 11815.00
547.7370, 12273.00
548.9120, 12394.00
550.0870, 12539.00
551.2620, 11988.00
552.4370, 11377.00
553.6120, 10614.00
554.7860, 9943.000
555.9600, 9445.000
557.1340, 9110.000
558.3080, 8662.000
559.4820, 8343.000
560.6560, 8299.000
561.8290, 8193.000
563.0020, 8167.000
564.1750, 8045.000
565.3480, 7973.000
566.5210, 7925.000
567.6930, 7992.000
568.8660, 7918.000
570.0380, 8010.000
571.2100, 8130.000
572.3820, 8084.000
573.5530, 8197.000
574.7250, 8129.000
575.8960, 8316.000
577.0670, 8184.000
578.2380, 8132.000
579.4090, 7915.000
580.5800, 7923.000
581.7500, 7648.000
582.9210, 7593.000
584.0910, 7547.000
585.2610, 7565.000
586.4300, 7554.000
587.6000, 7522.000
588.7690, 7378.000
589.9390, 7521.000
591.1080, 7360.000
592.2770, 7514.000
593.4450, 7293.000
594.6140, 7407.000
595.7820, 7236.000
596.9500, 7267.000
598.1190, 7245.000
599.2860, 7072.000
600.4540, 7159.000
601.6220, 7102.000
602.7890, 7236.000
603.9560, 7142.000
605.1230, 7213.000
606.2900, 7127.000
607.4570, 7058.000
608.6230, 7068.000
609.7890, 7093.000
610.9560, 7111.000
612.1220, 7036.000
613.2870, 7162.000
614.4530, 7085.000
615.6180, 7203.000
616.7840, 7255.000
617.9490, 7225.000
619.1140, 7314.000
620.2790, 7390.000
621.4430, 7413.000
622.6080, 7601.000
623.7720, 7699.000
624.9360, 7834.000
626.1000, 7901.000
627.2640, 7782.000
628.4270, 7847.000
629.5910, 7809.000
630.7540, 7692.000
631.9170, 7748.000
633.0800, 7773.000
634.2430, 7756.000
635.4050, 7871.000
636.5680, 7922.000
637.7300, 7934.000
638.8920, 8075.000
640.0540, 8157.000
641.2150, 8390.000
642.3770, 8513.000
643.5380, 8949.000
644.7000, 9254.000
645.8610, 9527.000
647.0210, 9850.000
648.1820, 10266.00
649.3430, 10912.00
650.5030, 11342.00
651.6630, 12037.00
652.8230, 12969.00
653.9830, 14169.00
655.1430, 15680.00
656.3020, 17184.00
657.4620, 19017.00
658.6210, 21076.00
659.7800, 23160.00
660.9390, 24885.00
662.0970, 25361.00
663.2560, 25075.00
664.4140, 23555.00
665.5720, 22031.00
666.7300, 19995.00
667.8880, 18493.00
669.0460, 17134.00
670.2030, 16375.00
671.3600, 16154.00
672.5180, 15993.00
673.6740, 16462.00
674.8310, 17031.00
675.9880, 18043.00
677.1440, 19317.00
678.3010, 20868.00
679.4570, 22737.00
680.6130, 24436.00
681.7690, 26027.00
682.9240, 26647.00
684.0800, 26464.00
685.2350, 25330.00
686.3900, 23210.00
687.5450, 20745.00
688.7000, 18557.00
689.8540, 16558.00
691.0090, 15023.00
692.1630, 13518.00
693.3170, 12335.00
694.4710, 11563.00
695.6250, 10711.00
696.7780, 10224.00
697.9320, 9725.000
699.0850, 9575.000
700.2380, 9099.000
701.3910, 8895.000
702.5440, 8606.000
703.6970, 8586.000
704.8490, 8397.000
706.0010, 8365.000
707.1530, 8098.000
708.3050, 8012.000
709.4570, 8001.000
710.6090, 8069.000
711.7600, 7933.000
712.9110, 7873.000
714.0620, 7747.000
715.2130, 7705.155
716.3640, 7728.000
717.5150, 7643.000
718.6650, 7684.000
719.8150, 7692.000
720.9650, 7620.000
722.1150, 7718.000
723.2650, 7705.000
724.4150, 7711.000
725.5640, 7618.000
726.7130, 7650.000
727.8630, 7621.000
729.0110, 7615.000
730.1600, 7680.000
731.3090, 7743.000
732.4570, 7842.000
733.6060, 7708.000
734.7540, 7646.000
735.9020, 7648.000
737.0490, 7773.000
738.1970, 7799.000
739.3440, 7757.000
740.4920, 7780.000
741.6390, 7691.000
742.7860, 7764.000
743.9320, 7741.000
745.0790, 7872.000
746.2250, 7773.000
747.3720, 7882.000
748.5180, 8029.000
749.6640, 8034.000
750.8100, 7992.000
751.9550, 7998.000
753.1010, 8020.000
754.2460, 7874.000
755.3910, 7795.000
756.5360, 7878.000
757.6810, 7808.000
758.8250, 7780.000
759.9700, 7804.000
761.1140, 7668.000
762.2580, 7694.000
763.4020, 7597.000
764.5460, 7652.000
765.6900, 7653.000
766.8330, 7638.000
767.9760, 7675.999
769.1200, 7697.000
770.2620, 7663.000
771.4050, 7690.000
772.5480, 7576.000
773.6900, 7631.000
774.8330, 7492.000
775.9750, 7553.000
777.1170, 7598.000
778.2590, 7627.000
779.4000, 7755.000
780.5420, 7641.000
781.6830, 7536.000
782.8240, 7638.000
783.9650, 7565.000
785.1060, 7695.000
786.2470, 7592.000
787.3870, 7513.000
788.5280, 7589.000
789.6680, 7569.000
790.8080, 7642.000
791.9480, 7799.000
793.0870, 7608.000
794.2270, 7746.000
795.3660, 7808.000
796.5060, 7728.000
797.6450, 7778.000
798.7830, 7689.000
799.9220, 7739.000
801.0610, 7851.000
802.1990, 7838.000
803.3370, 7901.000
804.4750, 7927.185
805.6130, 7848.000
806.7510, 7922.000
807.8890, 7917.000
809.0260, 7826.000
810.1630, 7987.000
811.3000, 7996.000
812.4370, 7942.000
813.5740, 8095.000
814.7110, 7951.000
815.8470, 8027.000
816.9830, 7955.000
818.1190, 8031.000
819.2550, 8090.000
820.3910, 7949.000
821.5270, 8127.000
822.6620, 8066.000
823.7970, 7994.000
824.9330, 8092.000
826.0670, 8116.000
827.2020, 8187.000
828.3370, 8241.000
829.4710, 8137.000
830.6060, 8134.000
831.7400, 8297.000
832.8740, 8227.000
834.0080, 8292.000
835.1410, 8325.000
836.2750, 8344.000
837.4080, 8319.000
838.5410, 8311.000
839.6740, 8416.000
840.8070, 8478.000
841.9400, 8512.000
843.0730, 8690.000
844.2050, 8741.000
845.3370, 8817.000
846.4690, 8868.000
847.6010, 8906.000
848.7330, 9035.000
849.8640, 9188.876
850.9960, 9255.000
852.1270, 9638.000
853.2580, 9862.000
854.3890, 10203.00
855.5200, 11492.00
856.6500, 10697.00
857.7810, 11028.00
858.9110, 10835.00
860.0410, 12309.00
861.1710, 12513.00
862.3010, 13454.00
863.4310, 10704.00
864.5600, 10470.00
865.6900, 10250.00
866.8190, 10123.00
867.9480, 9874.000
869.0770, 9615.000
870.2050, 9541.000
871.3340, 9468.000
872.4620, 9286.000
873.5900, 9218.000
874.7180, 9131.000
875.8460, 9201.000
876.9740, 9127.000
878.1010, 9069.000
879.2290, 9116.000
880.3560, 8910.000
881.4830, 9014.000
882.6100, 9063.000
883.7370, 8945.000
884.8630, 8977.000
885.9900, 8949.000
887.1160, 8962.000
888.2420, 9047.000
889.3680, 8993.000
890.4940, 9070.000
891.6200, 9143.000
892.7450, 9253.000
893.8700, 9233.000
894.9960, 9254.000
896.1210, 9315.000
897.2460, 9189.000
898.3700, 9236.000
899.4950, 9194.000
900.6190, 9374.000
901.7430, 9345.000
902.8670, 9278.000
903.9910, 9293.000
905.1150, 9261.000
906.2390, 9379.000
907.3620, 9359.000
908.4850, 9300.000
909.6080, 9602.000
910.7310, 9406.000
911.8540, 9570.000
912.9770, 9550.000
914.0990, 9863.000
915.2210, 10007.00
916.3440, 10007.00
917.4660, 10500.00
918.5870, 10559.00
919.7090, 10929.00
920.8310, 11401.00
921.9520, 11932.00
923.0730, 12469.00
924.1940, 13222.00
925.3150, 13908.00
926.4360, 14381.00
927.5560, 14946.00
928.6770, 15122.00
929.7970, 15244.00
930.9170, 15197.00
932.0370, 15268.00
933.1570, 15383.00
934.2760, 15437.00
935.3960, 15480.00
936.5150, 15403.00
937.6340, 15644.00
938.7530, 15383.00
939.8720, 15266.00
940.9910, 14831.00
942.1090, 14566.00
943.2280, 14094.00
944.3460, 13808.00
945.4640, 13347.00
946.5820, 12904.00
947.6990, 12507.00
948.8170, 12348.00
949.9340, 12021.00
951.0520, 11738.98
952.1690, 11624.00
953.2860, 11148.00
954.4030, 11081.00
955.5190, 10739.00
956.6360, 10675.87
957.7520, 10849.00
958.8680, 10575.00
959.9840, 10526.00
961.1000, 10378.00
962.2160, 10415.00
963.3310, 10241.00
964.4470, 10298.00
965.5620, 10201.00
966.6770, 10023.00
967.7920, 10054.00
968.9060, 10104.00
970.0210, 10201.00
971.1360, 10099.00
972.2500, 10110.00
973.3640, 10085.00
974.4780, 10129.00
975.5920, 10235.00
976.7050, 10216.00
977.8190, 10334.00
978.9320, 10347.00
980.0450, 10378.00
981.1580, 10658.00
982.2710, 10838.00
983.3840, 11133.00
984.4970, 11193.00
985.6090, 11508.00
986.7210, 11951.00
987.8330, 12113.00
988.9450, 12560.00
990.0570, 13036.00
991.1690, 13531.00
992.2800, 14352.00
993.3920, 15109.00
994.5030, 16167.00
995.6140, 17544.00
996.7250, 18693.00
997.8350, 20572.00
998.9460, 22360.00
1000.056, 24602.00
1001.167, 27026.00
1002.277, 29775.00
1003.387, 32663.00
1004.496, 35826.00
1005.606, 39216.00
1006.715, 42908.00
1007.825, 45596.00
1008.934, 47627.00
1010.043, 48332.00
1011.152, 47549.00
1012.260, 46443.00
1013.369, 45304.00
1014.477, 44710.00
1015.586, 44456.00
1016.694, 44322.00
1017.802, 44768.00
1018.909, 45193.00
1020.017, 45647.00
1021.124, 45832.00
1022.232, 46467.00
1023.339, 46615.00
1024.446, 46545.00
1025.553, 46370.00
1026.659, 46149.00
1027.766, 46145.00
1028.872, 45593.00
1029.979, 44416.00
1031.085, 43374.00
1032.191, 41518.00
1033.296, 39318.00
1034.402, 37045.00
1035.507, 34666.00
1036.613, 32498.00
1037.718, 30310.00
1038.823, 28168.00
1039.928, 26592.00
1041.032, 24697.00
1042.137, 23213.00
1043.241, 21731.00
1044.346, 20485.00
1045.450, 19232.00
1046.554, 18326.00
1047.657, 17290.00
1048.761, 16613.00
1049.864, 16108.00
1050.968, 15516.00
1052.071, 14919.00
1053.174, 14560.00
1054.277, 14181.00
1055.379, 13562.00
1056.482, 13247.00
1057.584, 12912.00
1058.687, 12599.00
1059.789, 12300.27
1060.891, 12013.00
1061.992, 11745.00
1063.094, 11456.00
1064.196, 11243.00
1065.297, 11200.00
1066.398, 10892.00
1067.499, 10881.00
1068.600, 10623.00
1069.701, 10560.00
1070.801, 10475.00
1071.902, 10432.00
1073.002, 10342.00
1074.102, 10255.00
1075.202, 10320.00
1076.302, 10373.00
1077.402, 10305.00
1078.501, 10144.00
1079.600, 10177.00
1080.700, 10254.00
1081.799, 10348.00
1082.898, 10156.00
1083.996, 10230.00
1085.095, 10098.00
1086.193, 10083.00
1087.292, 10176.00
1088.390, 9994.000
1089.488, 9936.000
1090.586, 9931.000
1091.683, 9978.000
1092.781, 9866.000
1093.878, 9868.000
1094.975, 9849.000
1096.073, 9658.000
1097.169, 9633.000
1098.266, 9742.000
1099.363, 9859.000
1100.459, 9878.000
1101.556, 9707.000
1102.652, 9790.000
1103.748, 9825.000
1104.844, 9811.000
1105.940, 9912.000
1107.035, 9818.000
1108.131, 9837.000
1109.226, 9832.000
1110.321, 9769.000
1111.416, 9737.000
1112.511, 9803.000
1113.605, 9708.000
1114.700, 9755.000
1115.794, 9715.000
1116.889, 9762.000
1117.983, 9794.000
1119.077, 9804.000
1120.170, 9721.000
1121.264, 9756.000
1122.357, 9770.000
1123.451, 9650.000
1124.544, 9721.000
1125.637, 9719.000
1126.730, 9788.000
1127.823, 9735.000
1128.915, 9726.000
1130.008, 9652.000
1131.100, 9684.000
1132.192, 9696.000
1133.284, 9799.000
1134.376, 9685.000
1135.467, 9706.000
1136.559, 9599.000
1137.650, 9617.000
1138.742, 9672.000
1139.833, 9607.000
1140.924, 9544.000
1142.014, 9582.000
1143.105, 9482.000
1144.195, 9432.000
1145.286, 9662.000
1146.376, 9597.000
1147.466, 9709.000
1148.556, 9440.000
1149.646, 9535.000
1150.735, 9584.000
1151.825, 9402.000
1152.914, 9547.000
1154.003, 9536.000
1155.092, 9609.000
1156.181, 9631.000
1157.270, 9499.000
1158.358, 9558.000
1159.447, 9599.000
1160.535, 9587.000
1161.623, 9621.000
1162.711, 9704.000
1163.799, 9638.000
1164.886, 9650.000
1165.974, 9655.000
1167.061, 9608.000
1168.148, 9600.000
1169.235, 9480.000
1170.322, 9603.000
1171.409, 9665.000
1172.496, 9541.000
1173.582, 9709.000
1174.669, 9622.000
1175.755, 9584.000
1176.841, 9540.000
1177.927, 9613.000
1179.012, 9576.000
1180.098, 9511.000
1181.183, 9714.000
1182.269, 9491.000
1183.354, 9702.000
1184.439, 9663.000
1185.524, 9622.000
1186.608, 9645.000
1187.693, 9590.000
1188.777, 9649.000
1189.862, 9594.000
1190.946, 9640.000
1192.030, 9569.000
1193.113, 9602.139
1194.197, 9431.000
1195.281, 9670.000
1196.364, 9591.000
1197.447, 9668.000
1198.530, 9549.000
1199.613, 9579.000
1200.696, 9536.000
1201.779, 9627.000
1202.861, 9610.000
1203.944, 9590.000
1205.026, 9543.000
1206.108, 9616.000
1207.190, 9532.000
1208.271, 9531.000
1209.353, 9477.000
1210.435, 9546.000
1211.516, 9584.000
1212.597, 9646.000
1213.678, 9560.000
1214.759, 9684.000
1215.840, 9695.000
1216.920, 9557.000
1218.001, 9850.000
1219.081, 9594.000
1220.161, 9598.000
1221.241, 9652.000
1222.321, 9668.000
1223.401, 9755.000
1224.480, 9696.000
1225.560, 9655.000
1226.639, 9662.000
1227.718, 9732.000
1228.797, 9663.000
1229.876, 9706.000
1230.955, 9647.000
1232.033, 9661.000
1233.112, 9876.000
1234.190, 9921.000
1235.268, 9878.000
1236.346, 9797.000
1237.424, 9919.000
1238.501, 9836.000
1239.579, 9801.000
1240.656, 9914.000
1241.733, 9894.000
1242.811, 9802.000
1243.888, 9836.000
1244.964, 9871.000
1246.041, 9914.000
1247.117, 10039.00
1248.194, 9919.000
1249.270, 9971.000
1250.346, 9888.000
1251.422, 9855.000
1252.498, 9948.000
1253.573, 9922.000
1254.649, 10018.00
1255.724, 9982.000
1256.800, 9974.000
1257.875, 10024.00
1258.950, 10016.00
1260.024, 10044.00
1261.099, 10132.00
1262.173, 10245.00
1263.248, 10212.23
1264.322, 10067.00
1265.396, 10173.00
1266.470, 10191.00
1267.544, 10171.00
1268.617, 10256.00
1269.691, 10209.00
1270.764, 10300.00
1271.837, 10158.00
1272.910, 10405.00
1273.983, 10302.00
1275.056, 10305.00
1276.129, 10447.00
1277.201, 10233.00
1278.273, 10277.00
1279.346, 10304.00
1280.418, 10227.00
1281.489, 10158.00
1282.561, 10284.00
1283.633, 10129.00
1284.704, 10215.00
1285.776, 10207.00
1286.847, 10110.00
1287.918, 10242.00
1288.989, 10240.00
1290.059, 10335.00
1291.130, 10363.34
1292.200, 10506.00
1293.271, 10428.00
1294.341, 10422.00
1295.411, 10490.00
1296.481, 10451.00
1297.551, 10511.00
1298.620, 10401.00
1299.690, 10521.00
1300.759, 10489.00
1301.828, 10419.00
1302.897, 10556.00
1303.966, 10631.00
1305.035, 10528.00
1306.103, 10550.00
1307.172, 10614.00
1308.240, 10633.00
1309.308, 10689.00
1310.376, 10678.85
1311.444, 10526.00
1312.512, 10626.00
1313.580, 10608.00
1314.647, 10533.00
1315.714, 10692.00
1316.781, 10686.00
1317.848, 10720.00
1318.915, 10594.00
1319.982, 10643.00
1321.049, 10597.00
1322.115, 10585.00
1323.181, 10660.00
1324.248, 10493.00
1325.314, 10645.00
1326.380, 10519.00
1327.445, 10538.00
1328.511, 10440.00
1329.576, 10452.00
1330.642, 10426.00
1331.707, 10540.00
1332.772, 10409.00
1333.837, 10468.00
1334.902, 10498.00
1335.966, 10360.00
1337.031, 10360.00
1338.095, 10446.00
1339.159, 10486.00
1340.223, 10555.00
1341.287, 10582.00
1342.351, 10453.00
1343.415, 10377.00
1344.478, 10648.00
1345.541, 10458.00
1346.605, 10545.00
1347.668, 10574.00
1348.731, 10604.00
1349.793, 10484.00
1350.856, 10505.00
1351.918, 10502.00
1352.981, 10536.00
1354.043, 10519.00
1355.105, 10540.00
1356.167, 10556.00
1357.229, 10549.00
1358.290, 10556.00
1359.352, 10628.00
1360.413, 10533.00
1361.475, 10555.00
1362.536, 10719.00
1363.597, 10644.00
1364.657, 10640.00
1365.718, 10548.00
1366.779, 10600.00
1367.839, 10730.00
1368.899, 10643.00
1369.959, 10748.00
1371.019, 10738.00
1372.079, 10714.00
1373.139, 10787.00
1374.198, 10734.00
1375.258, 10779.00
1376.317, 10700.00
1377.376, 10797.00
1378.435, 10689.00
1379.494, 10837.00
1380.553, 10815.00
1381.611, 10794.00
1382.670, 10787.00
1383.728, 10829.00
1384.786, 10812.00
1385.844, 10923.00
1386.902, 10906.00
1387.960, 10817.00
1389.017, 10905.00
1390.075, 10793.00
1391.132, 10820.00
1392.189, 10863.00
1393.246, 10876.00
1394.303, 10831.00
1395.360, 10853.00
1396.417, 10904.00
1397.473, 10758.00
1398.529, 10882.00
1399.585, 10795.00
1400.642, 10759.00
1401.697, 10820.00
1402.753, 10846.00
1403.809, 10696.00
1404.864, 10850.00
1405.920, 10813.00
1406.975, 10903.00
1408.030, 10884.00
1409.085, 10928.00
1410.140, 10888.00
1411.194, 10871.00
1412.249, 10814.00
1413.303, 10922.00
1414.358, 10997.00
1415.412, 10989.00
1416.466, 10820.00
1417.520, 10944.00
1418.573, 10812.00
1419.627, 11015.00
1420.680, 10849.00
1421.733, 10926.00
1422.787, 10911.00
1423.840, 10915.00
1424.892, 10942.00
1425.945, 11050.00
1426.998, 10990.00
1428.050, 10958.00
1429.103, 11043.00
1430.155, 11173.00
1431.207, 11149.00
1432.259, 11276.00
1433.310, 11280.00
1434.362, 11176.00
1435.414, 11339.00
1436.465, 11312.00
1437.516, 11322.00
1438.567, 11460.00
1439.618, 11437.00
1440.669, 11618.00
1441.720, 11559.00
1442.770, 11843.00
1443.820, 11742.00
1444.871, 11835.00
1445.921, 11881.00
1446.971, 11867.00
1448.021, 11806.00
1449.070, 12092.00
1450.120, 11935.00
1451.169, 12042.00
1452.219, 11991.00
1453.268, 12023.00
1454.317, 12033.00
1455.366, 12050.00
1456.414, 12084.00
1457.463, 12117.00
1458.511, 12038.00
1459.560, 11986.00
1460.608, 11832.00
1461.656, 11820.00
1462.704, 11858.00
1463.752, 11704.00
1464.799, 11865.00
1465.847, 11576.00
1466.894, 11654.00
1467.941, 11536.00
1468.988, 11727.00
1470.035, 11468.00
1471.082, 11681.00
1472.129, 11546.00
1473.175, 11663.00
1474.222, 11552.00
1475.268, 11542.00
1476.314, 11528.00
1477.360, 11495.13
1478.406, 11577.00
1479.452, 11486.00
1480.498, 11563.00
1481.543, 11561.00
1482.588, 11584.00
1483.633, 11625.00
1484.679, 11495.00
1485.723, 11624.00
1486.768, 11393.00
1487.813, 11385.00
1488.857, 11492.00
1489.902, 11367.00
1490.946, 11365.00
1491.990, 11365.00
1493.034, 11311.00
1494.078, 11327.00
1495.122, 11214.00
1496.165, 11323.00
1497.209, 11385.00
1498.252, 11377.00
1499.295, 11298.00
1500.338, 11250.00
1501.381, 11257.00
1502.424, 11367.00
1503.466, 11512.00
1504.509, 11387.00
1505.551, 11416.00
1506.593, 11327.00
1507.635, 11300.00
1508.677, 11417.00
1509.719, 11342.00
1510.761, 11401.00
1511.802, 11319.00
1512.844, 11449.00
1513.885, 11382.00
1514.926, 11478.00
1515.967, 11369.00
1517.008, 11408.49
1518.049, 11497.00
1519.089, 11441.00
1520.130, 11386.00
1521.170, 11420.00
1522.210, 11502.00
1523.250, 11537.00
1524.290, 11505.00
1525.330, 11503.00
1526.370, 11564.00
1527.409, 11482.00
1528.448, 11607.00
1529.488, 11562.00
1530.527, 11574.00
1531.566, 11508.00
1532.605, 11668.00
1533.643, 11560.00
1534.682, 11559.00
1535.720, 11714.00
1536.759, 11634.00
1537.797, 11808.00
1538.835, 11631.00
1539.873, 11679.00
1540.910, 11711.00
1541.948, 11647.00
1542.986, 11684.00
1544.023, 11584.00
1545.060, 11647.00
1546.097, 11736.00
1547.134, 11680.00
1548.171, 11782.00
1549.208, 11588.00
1550.244, 11633.00
1551.281, 11624.00
1552.317, 11804.00
1553.353, 11789.00
1554.389, 11795.00
1555.425, 11733.00
1556.461, 11753.00
1557.497, 11742.00
1558.532, 11837.00
1559.567, 11715.00
1560.603, 11700.00
1561.638, 11778.00
1562.673, 11687.00
1563.708, 11843.00
##END=



