##NAMES=Enstatite
##RRUFFID=R070418
##IDEAL CHEMISTRY=MgSiO_3_
##LOCALITY=India
##OWNER=RRUFF
##SOURCE=Michael Scott
##DESCRIPTION=Brown translucent fragments
##STATUS=The identification of this mineral has been confirmed by X-ray diffraction and chemical analysis
##URL=rruff.info/R070418
##MEASURED CHEMISTRY=(Mg_0.86_Fe_0.14_)_Î£=1_Si_1.00_O_3_; trace amounts of Al, Ca, Mn
##PIN_ID=L01848
##ORIENTATION=Laser parallel to a* (1 0 0). Fiducial mark perpendicular to laser is parallel to b [0 1 0]
112.8890, 5327.000
114.1310, 5767.000
115.3720, 6306.000
116.6130, 6573.000
117.8540, 7320.000
119.0950, 7996.000
120.3360, 8714.000
121.5760, 9706.000
122.8160, 11045.00
124.0560, 12720.00
125.2960, 14898.00
126.5350, 17607.00
127.7750, 20611.00
129.0140, 23010.00
130.2530, 23580.00
131.4920, 21909.00
132.7300, 18936.00
133.9690, 16066.00
135.2070, 13763.00
136.4450, 12241.00
137.6830, 11071.00
138.9210, 10377.00
140.1580, 9938.000
141.3950, 9394.000
142.6330, 9196.000
143.8690, 9019.000
145.1060, 8818.000
146.3430, 8613.000
147.5790, 8511.000
148.8150, 8264.000
150.0510, 8323.000
151.2870, 8233.000
152.5220, 7942.000
153.7580, 7817.000
154.9930, 7679.000
156.2280, 7566.000
157.4620, 7516.000
158.6970, 7482.000
159.9310, 7437.000
161.1660, 7530.000
162.4000, 7585.000
163.6330, 7768.000
164.8670, 7750.318
166.1000, 7948.000
167.3340, 7710.000
168.5670, 7694.000
169.8000, 7552.000
171.0320, 7551.000
172.2650, 7447.000
173.4970, 7458.000
174.7290, 7438.567
175.9610, 7295.000
177.1930, 7432.000
178.4240, 7493.000
179.6550, 7483.000
180.8870, 7625.000
182.1170, 7598.000
183.3480, 7786.000
184.5790, 7963.000
185.8090, 8302.000
187.0390, 8519.000
188.2690, 8947.000
189.4990, 9000.000
190.7290, 9322.000
191.9580, 9188.000
193.1870, 9099.000
194.4160, 8728.000
195.6450, 8632.000
196.8740, 8489.000
198.1020, 8299.000
199.3310, 8218.000
200.5590, 8381.000
201.7870, 8175.000
203.0140, 8006.000
204.2420, 7597.000
205.4690, 7193.000
206.6960, 6940.000
207.9230, 6797.000
209.1500, 6823.000
210.3760, 6670.000
211.6030, 6612.000
212.8290, 6687.000
214.0550, 6734.000
215.2810, 6735.000
216.5060, 6773.000
217.7320, 6923.000
218.9570, 6987.000
220.1820, 7157.000
221.4070, 7423.000
222.6320, 7799.000
223.8560, 8043.000
225.0800, 8453.000
226.3040, 8988.000
227.5280, 9677.000
228.7520, 10464.00
229.9760, 11408.00
231.1990, 12516.00
232.4220, 13685.00
233.6450, 15109.00
234.8680, 15907.00
236.0910, 16081.00
237.3130, 15267.00
238.5350, 13801.00
239.7570, 12366.00
240.9790, 11019.00
242.2010, 9987.255
243.4220, 9042.120
244.6430, 8323.000
245.8640, 7771.000
247.0850, 7424.000
248.3060, 7305.000
249.5270, 7083.000
250.7470, 6934.000
251.9670, 6855.000
253.1870, 6764.000
254.4070, 6814.000
255.6260, 6727.000
256.8460, 6759.000
258.0650, 7054.000
259.2840, 6945.614
260.5030, 6931.594
261.7220, 6926.000
262.9400, 6738.000
264.1580, 6623.000
265.3760, 6603.000
266.5940, 6643.000
267.8120, 6674.000
269.0290, 6628.000
270.2470, 6682.000
271.4640, 6696.000
272.6810, 6679.000
273.8980, 6711.000
275.1140, 6694.000
276.3310, 6714.000
277.5470, 6653.000
278.7630, 6656.000
279.9790, 6707.000
281.1940, 6767.000
282.4100, 6728.000
283.6250, 6873.000
284.8400, 6877.000
286.0550, 6956.000
287.2700, 7082.000
288.4850, 7201.000
289.6990, 7331.000
290.9130, 7622.776
292.1270, 7835.000
293.3410, 8199.000
294.5540, 8570.000
295.7680, 8746.000
296.9810, 8901.000
298.1940, 9011.000
299.4070, 8925.000
300.6200, 8771.000
301.8320, 8721.000
303.0450, 8685.000
304.2570, 8671.000
305.4690, 8692.795
306.6800, 8640.000
307.8920, 8790.000
309.1030, 9019.000
310.3150, 9112.000
311.5260, 9410.000
312.7360, 9593.000
313.9470, 10303.00
315.1580, 10690.00
316.3680, 11328.00
317.5780, 11735.00
318.7880, 12194.00
319.9980, 12764.00
321.2070, 12857.00
322.4170, 13174.00
323.6260, 13688.00
324.8350, 14438.00
326.0430, 15446.00
327.2520, 16649.00
328.4610, 18179.00
329.6690, 20330.00
330.8770, 23082.00
332.0850, 26030.00
333.2920, 29574.00
334.5000, 34846.00
335.7070, 39783.00
336.9140, 43494.00
338.1210, 47374.00
339.3280, 50472.00
340.5350, 51484.00
341.7410, 49713.00
342.9470, 46614.00
344.1540, 41744.00
345.3590, 36801.00
346.5650, 32188.00
347.7710, 27766.00
348.9760, 24480.00
350.1810, 21590.00
351.3860, 19407.00
352.5910, 17842.00
353.7950, 16385.00
355.0000, 15162.00
356.2040, 14488.00
357.4080, 13828.00
358.6120, 13041.00
359.8150, 12604.00
361.0190, 12019.00
362.2220, 11649.00
363.4250, 11321.00
364.6280, 11145.00
365.8310, 11080.00
367.0340, 10850.00
368.2360, 10702.00
369.4380, 10855.00
370.6400, 11032.00
371.8420, 11206.00
373.0440, 11416.44
374.2450, 11616.00
375.4470, 11854.00
376.6480, 12184.00
377.8490, 12400.00
379.0490, 12512.11
380.2500, 12539.19
381.4500, 12624.00
382.6510, 12462.00
383.8510, 12425.00
385.0500, 12538.00
386.2500, 13041.00
387.4500, 13734.00
388.6490, 14498.00
389.8480, 15384.00
391.0470, 16408.00
392.2460, 17716.00
393.4440, 18912.00
394.6430, 20110.00
395.8410, 21255.00
397.0390, 22290.00
398.2370, 23019.00
399.4340, 23303.00
400.6320, 23188.00
401.8290, 22762.00
403.0260, 22109.00
404.2230, 21652.00
405.4200, 20696.00
406.6170, 20149.00
407.8130, 19276.00
409.0090, 18599.00
410.2050, 17903.00
411.4010, 17192.00
412.5970, 16789.00
413.7920, 16109.00
414.9880, 15490.00
416.1830, 14871.00
417.3780, 14506.00
418.5730, 14107.00
419.7670, 13519.00
420.9620, 12808.00
422.1560, 12360.00
423.3500, 11791.00
424.5440, 11294.00
425.7380, 10620.00
426.9310, 10311.00
428.1240, 10102.00
429.3180, 10035.00
430.5110, 10119.00
431.7030, 10160.95
432.8960, 10419.00
434.0890, 10560.00
435.2810, 10799.00
436.4730, 11179.00
437.6650, 11711.00
438.8570, 11769.55
440.0480, 11742.33
441.2390, 11738.00
442.4310, 11137.00
443.6220, 10474.00
444.8120, 9791.000
446.0030, 9227.000
447.1940, 8862.000
448.3840, 8491.000
449.5740, 8251.000
450.7640, 8135.000
451.9540, 7996.000
453.1430, 8047.000
454.3330, 8013.000
455.5220, 7974.000
456.7110, 7940.000
457.9000, 8015.000
459.0890, 7955.476
460.2770, 7956.919
461.4650, 7913.000
462.6540, 7908.000
463.8420, 7886.000
465.0290, 7848.000
466.2170, 7789.000
467.4050, 7694.000
468.5920, 7674.341
469.7790, 7543.000
470.9660, 7581.000
472.1530, 7542.000
473.3390, 7445.000
474.5250, 7446.000
475.7120, 7400.000
476.8980, 7301.000
478.0840, 7398.000
479.2690, 7247.000
480.4550, 7179.000
481.6400, 7344.000
482.8250, 7160.000
484.0100, 7247.000
485.1950, 7142.000
486.3800, 7206.000
487.5640, 7202.000
488.7480, 7131.000
489.9320, 7169.000
491.1160, 7175.000
492.3000, 7176.000
493.4840, 7116.000
494.6670, 7207.000
495.8500, 7137.000
497.0330, 7244.000
498.2160, 7191.000
499.3990, 7172.000
500.5810, 7304.000
501.7630, 7326.000
502.9460, 7284.000
504.1280, 7332.000
505.3090, 7431.000
506.4910, 7489.000
507.6720, 7567.000
508.8540, 7853.000
510.0350, 8095.000
511.2160, 8065.000
512.3960, 8321.000
513.5770, 8695.000
514.7570, 9078.000
515.9380, 9573.000
517.1180, 9801.000
518.2970, 10333.00
519.4770, 10497.00
520.6570, 10854.00
521.8360, 11466.00
523.0150, 11398.22
524.1940, 11466.00
525.3730, 11377.00
526.5510, 11037.00
527.7300, 10790.00
528.9080, 10524.00
530.0860, 10330.00
531.2640, 10239.00
532.4420, 10286.00
533.6200, 10469.00
534.7970, 10878.00
535.9740, 11164.00
537.1510, 11468.00
538.3280, 11598.00
539.5050, 11347.00
540.6810, 11275.00
541.8580, 11010.00
543.0340, 10658.00
544.2100, 10714.00
545.3860, 10636.00
546.5610, 10606.00
547.7370, 10826.00
548.9120, 10574.00
550.0870, 10500.00
551.2620, 10148.00
552.4370, 9906.000
553.6120, 9555.000
554.7860, 9204.000
555.9600, 9081.000
557.1340, 8692.000
558.3080, 8505.000
559.4820, 8366.000
560.6560, 8304.000
561.8290, 8196.000
563.0020, 8121.000
564.1750, 8097.000
565.3480, 7979.000
566.5210, 8032.000
567.6930, 8070.000
568.8660, 8197.000
570.0380, 8214.000
571.2100, 8232.000
572.3820, 8218.000
573.5530, 8205.698
574.7250, 8176.000
575.8960, 8190.000
577.0670, 8116.000
578.2380, 8189.000
579.4090, 8146.000
580.5800, 8060.000
581.7500, 8144.000
582.9210, 7983.000
584.0910, 8003.000
585.2610, 8030.000
586.4300, 8151.000
587.6000, 8017.000
588.7690, 8006.000
589.9390, 8044.000
591.1080, 8011.000
592.2770, 8129.000
593.4450, 8017.928
594.6140, 7975.000
595.7820, 7871.000
596.9500, 7925.000
598.1190, 7929.000
599.2860, 7792.000
600.4540, 7943.000
601.6220, 7924.000
602.7890, 7872.000
603.9560, 7902.000
605.1230, 7919.000
606.2900, 7743.000
607.4570, 7853.000
608.6230, 7767.000
609.7890, 7946.000
610.9560, 7902.000
612.1220, 7725.000
613.2870, 7922.000
614.4530, 7862.000
615.6180, 8020.000
616.7840, 8115.000
617.9490, 8151.000
619.1140, 8246.000
620.2790, 8326.000
621.4430, 8426.000
622.6080, 8571.000
623.7720, 8746.000
624.9360, 8895.000
626.1000, 9044.000
627.2640, 8939.000
628.4270, 9049.000
629.5910, 8888.000
630.7540, 8823.000
631.9170, 8881.000
633.0800, 8901.000
634.2430, 8902.000
635.4050, 9010.000
636.5680, 9126.000
637.7300, 9237.000
638.8920, 9448.000
640.0540, 9622.000
641.2150, 10004.00
642.3770, 10220.00
643.5380, 10600.00
644.7000, 10978.00
645.8610, 11667.00
647.0210, 12216.00
648.1820, 12965.00
649.3430, 13808.00
650.5030, 14724.00
651.6630, 16266.00
652.8230, 17540.00
653.9830, 19495.00
655.1430, 21715.00
656.3020, 24142.00
657.4620, 26770.00
658.6210, 29827.00
659.7800, 32182.00
660.9390, 33959.00
662.0970, 34336.00
663.2560, 33375.00
664.4140, 31538.00
665.5720, 29351.00
666.7300, 26770.00
667.8880, 24753.00
669.0460, 23607.00
670.2030, 22885.00
671.3600, 22828.00
672.5180, 23118.00
673.6740, 24084.00
674.8310, 25715.00
675.9880, 27426.00
677.1440, 29927.00
678.3010, 33066.00
679.4570, 35672.00
680.6130, 38210.00
681.7690, 40119.00
682.9240, 40373.00
684.0800, 39458.00
685.2350, 37210.00
686.3900, 33947.00
687.5450, 30302.00
688.7000, 26421.00
689.8540, 23246.00
691.0090, 20381.00
692.1630, 18102.00
693.3170, 16402.00
694.4710, 14811.00
695.6250, 13718.00
696.7780, 12914.00
697.9320, 12055.00
699.0850, 11631.00
700.2380, 11295.00
701.3910, 10792.00
702.5440, 10375.00
703.6970, 10149.00
704.8490, 9835.000
706.0010, 9572.000
707.1530, 9457.000
708.3050, 9364.000
709.4570, 9273.000
710.6090, 9047.000
711.7600, 9070.000
712.9110, 8956.000
714.0620, 8794.000
715.2130, 8842.000
716.3640, 8716.000
717.5150, 8633.000
718.6650, 8690.000
719.8150, 8563.000
720.9650, 8528.000
722.1150, 8529.000
723.2650, 8599.000
724.4150, 8476.000
725.5640, 8475.000
726.7130, 8518.000
727.8630, 8464.000
729.0110, 8621.000
730.1600, 8661.000
731.3090, 8615.000
732.4570, 8538.000
733.6060, 8610.000
734.7540, 8561.000
735.9020, 8675.000
737.0490, 8715.000
738.1970, 8650.000
739.3440, 8670.000
740.4920, 8674.944
741.6390, 8704.000
742.7860, 8700.000
743.9320, 8802.000
745.0790, 8832.000
746.2250, 8955.000
747.3720, 9050.000
748.5180, 9103.000
749.6640, 9202.000
750.8100, 9240.000
751.9550, 9215.000
753.1010, 9022.000
754.2460, 9047.000
755.3910, 8758.000
756.5360, 8642.000
757.6810, 8558.000
758.8250, 8494.000
759.9700, 8433.000
761.1140, 8287.000
762.2580, 8376.000
763.4020, 8397.000
764.5460, 8300.000
765.6900, 8303.000
766.8330, 8241.000
767.9760, 8254.000
769.1200, 8322.000
770.2620, 8359.000
771.4050, 8346.000
772.5480, 8309.000
773.6900, 8276.000
774.8330, 8346.000
775.9750, 8337.000
777.1170, 8327.000
778.2590, 8336.000
779.4000, 8307.000
780.5420, 8356.000
781.6830, 8139.000
782.8240, 8307.000
783.9650, 8172.000
785.1060, 8419.000
786.2470, 8275.000
787.3870, 8295.000
788.5280, 8346.000
789.6680, 8432.000
790.8080, 8346.198
791.9480, 8435.000
793.0870, 8271.000
794.2270, 8437.000
795.3660, 8601.000
796.5060, 8433.000
797.6450, 8452.000
798.7830, 8502.000
799.9220, 8548.000
801.0610, 8514.000
802.1990, 8473.000
803.3370, 8520.000
804.4750, 8429.000
805.6130, 8493.289
806.7510, 8575.000
807.8890, 8606.000
809.0260, 8567.000
810.1630, 8666.000
811.3000, 8643.000
812.4370, 8653.286
813.5740, 8673.944
814.7110, 8654.000
815.8470, 8651.000
816.9830, 8653.000
818.1190, 8602.000
819.2550, 8666.000
820.3910, 8755.000
821.5270, 8819.000
822.6620, 8674.000
823.7970, 8855.000
824.9330, 8729.000
826.0670, 8780.000
827.2020, 8800.000
828.3370, 8859.000
829.4710, 8880.015
830.6060, 8936.000
831.7400, 8945.000
832.8740, 8964.000
834.0080, 9027.000
835.1410, 9011.000
836.2750, 8974.000
837.4080, 9047.000
838.5410, 9094.000
839.6740, 9080.000
840.8070, 9130.000
841.9400, 9251.000
843.0730, 9389.000
844.2050, 9417.000
845.3370, 9531.000
846.4690, 9614.000
847.6010, 9796.000
848.7330, 9876.000
849.8640, 10012.00
850.9960, 10279.00
852.1270, 10531.00
853.2580, 10808.00
854.3890, 11173.00
855.5200, 11396.00
856.6500, 11878.00
857.7810, 12006.00
858.9110, 12173.00
860.0410, 12270.00
861.1710, 11985.00
862.3010, 11849.00
863.4310, 11858.00
864.5600, 11469.00
865.6900, 11342.00
866.8190, 11027.00
867.9480, 10907.00
869.0770, 10672.00
870.2050, 10448.00
871.3340, 10290.00
872.4620, 10085.00
873.5900, 10044.00
874.7180, 9816.000
875.8460, 9965.000
876.9740, 9874.000
878.1010, 9715.000
879.2290, 9733.000
880.3560, 9609.000
881.4830, 9698.000
882.6100, 9718.000
883.7370, 9697.000
884.8630, 9663.000
885.9900, 9601.000
887.1160, 9626.000
888.2420, 9585.000
889.3680, 9668.000
890.4940, 9667.000
891.6200, 9694.000
892.7450, 9802.000
893.8700, 9845.000
894.9960, 9985.000
896.1210, 9931.000
897.2460, 9966.000
898.3700, 9874.000
899.4950, 9883.201
900.6190, 9885.000
901.7430, 9872.000
902.8670, 9811.000
903.9910, 9826.000
905.1150, 9891.000
906.2390, 9806.000
907.3620, 9800.000
908.4850, 9875.000
909.6080, 9892.000
910.7310, 9872.000
911.8540, 9978.000
912.9770, 10036.00
914.0990, 10003.00
915.2210, 10212.00
916.3440, 10101.00
917.4660, 10276.00
918.5870, 10437.00
919.7090, 10480.00
920.8310, 10918.00
921.9520, 11027.00
923.0730, 11289.00
924.1940, 11675.00
925.3150, 11919.00
926.4360, 12191.00
927.5560, 12530.00
928.6770, 12579.00
929.7970, 12641.00
930.9170, 12995.00
932.0370, 12834.00
933.1570, 12921.00
934.2760, 12958.00
935.3960, 13026.00
936.5150, 13148.00
937.6340, 13240.00
938.7530, 13070.00
939.8720, 12948.00
940.9910, 12739.00
942.1090, 12645.00
943.2280, 12342.00
944.3460, 12201.00
945.4640, 12020.00
946.5820, 11866.00
947.6990, 11628.00
948.8170, 11449.00
949.9340, 11236.00
951.0520, 11157.00
952.1690, 11073.00
953.2860, 10886.00
954.4030, 10782.00
955.5190, 10739.00
956.6360, 10635.00
957.7520, 10573.00
958.8680, 10453.00
959.9840, 10511.00
961.1000, 10565.00
962.2160, 10359.00
963.3310, 10401.00
964.4470, 10472.00
965.5620, 10242.00
966.6770, 10290.00
967.7920, 10307.00
968.9060, 10192.00
970.0210, 10266.00
971.1360, 10216.00
972.2500, 10227.00
973.3640, 10224.00
974.4780, 10234.26
975.5920, 10219.00
976.7050, 10306.00
977.8190, 10390.00
978.9320, 10476.00
980.0450, 10609.00
981.1580, 10736.00
982.2710, 10897.00
983.3840, 11005.00
984.4970, 11066.00
985.6090, 11325.00
986.7210, 11652.00
987.8330, 11769.00
988.9450, 12129.00
990.0570, 12612.00
991.1690, 13014.00
992.2800, 13467.00
993.3920, 14348.00
994.5030, 14983.00
995.6140, 15740.00
996.7250, 16980.00
997.8350, 18249.00
998.9460, 19515.00
1000.056, 21369.00
1001.167, 23370.00
1002.277, 24878.00
1003.387, 26941.87
1004.496, 28557.00
1005.606, 30714.00
1006.715, 32665.00
1007.825, 34328.00
1008.934, 35362.00
1010.043, 35353.00
1011.152, 34982.00
1012.260, 34564.00
1013.369, 34125.00
1014.477, 33792.00
1015.586, 33571.00
1016.694, 33830.00
1017.802, 33835.00
1018.909, 34058.00
1020.017, 34425.00
1021.124, 34292.00
1022.232, 34384.00
1023.339, 34300.00
1024.446, 33911.00
1025.553, 33661.00
1026.659, 33450.00
1027.766, 32846.00
1028.872, 32353.00
1029.979, 31558.00
1031.085, 30405.00
1032.191, 29332.00
1033.296, 27808.00
1034.402, 26383.00
1035.507, 24796.00
1036.613, 23465.00
1037.718, 22005.00
1038.823, 20953.00
1039.928, 19758.77
1041.032, 18797.00
1042.137, 17886.00
1043.241, 16806.00
1044.346, 16365.00
1045.450, 15538.00
1046.554, 15003.00
1047.657, 14659.00
1048.761, 14070.00
1049.864, 13625.00
1050.968, 13510.00
1052.071, 13228.00
1053.174, 12972.00
1054.277, 12671.00
1055.379, 12444.00
1056.482, 12186.00
1057.584, 11904.00
1058.687, 11806.00
1059.789, 11722.00
1060.891, 11460.00
1061.992, 11427.00
1063.094, 11097.00
1064.196, 11147.00
1065.297, 10991.00
1066.398, 11051.00
1067.499, 11023.00
1068.600, 10902.41
1069.701, 10756.00
1070.801, 10735.00
1071.902, 10664.00
1073.002, 10670.00
1074.102, 10673.00
1075.202, 10627.00
1076.302, 10708.00
1077.402, 10676.00
1078.501, 10661.00
1079.600, 10709.00
1080.700, 10716.00
1081.799, 10700.00
1082.898, 10688.00
1083.996, 10728.00
1085.095, 10717.00
1086.193, 10548.00
1087.292, 10587.00
1088.390, 10674.00
1089.488, 10536.00
1090.586, 10350.00
1091.683, 10466.00
1092.781, 10317.00
1093.878, 10454.00
1094.975, 10365.00
1096.073, 10287.00
1097.169, 10366.00
1098.266, 10377.00
1099.363, 10391.00
1100.459, 10436.00
1101.556, 10383.00
1102.652, 10407.00
1103.748, 10296.00
1104.844, 10458.00
1105.940, 10395.00
1107.035, 10344.00
1108.131, 10468.00
1109.226, 10452.00
1110.321, 10379.00
1111.416, 10431.00
1112.511, 10390.00
1113.605, 10470.00
1114.700, 10311.00
1115.794, 10468.00
1116.889, 10378.00
1117.983, 10323.00
1119.077, 10349.00
1120.170, 10580.00
1121.264, 10429.00
1122.357, 10484.00
1123.451, 10353.00
1124.544, 10517.00
1125.637, 10271.00
1126.730, 10512.00
1127.823, 10371.00
1128.915, 10372.00
1130.008, 10349.00
1131.100, 10307.00
1132.192, 10302.35
1133.284, 10319.00
1134.376, 10290.00
1135.467, 10312.00
1136.559, 10357.00
1137.650, 10240.00
1138.742, 10293.00
1139.833, 10132.00
1140.924, 10246.00
1142.014, 10189.00
1143.105, 10167.00
1144.195, 10136.00
1145.286, 10174.00
1146.376, 10242.00
1147.466, 10269.00
1148.556, 10213.00
1149.646, 10275.00
1150.735, 10187.00
1151.825, 10159.00
1152.914, 10162.00
1154.003, 10093.00
1155.092, 10165.00
1156.181, 10145.00
1157.270, 10323.00
1158.358, 10219.00
1159.447, 10252.00
1160.535, 10201.00
1161.623, 10187.00
1162.711, 10189.00
1163.799, 10314.00
1164.886, 10251.00
1165.974, 10204.00
1167.061, 10370.00
1168.148, 10337.00
1169.235, 10333.00
1170.322, 10391.48
1171.409, 10270.00
1172.496, 10400.00
1173.582, 10289.00
1174.669, 10239.00
1175.755, 10322.00
1176.841, 10371.00
1177.927, 10265.00
1179.012, 10140.00
1180.098, 10163.00
1181.183, 10344.00
1182.269, 10389.00
1183.354, 10205.00
1184.439, 10260.00
1185.524, 10146.00
1186.608, 10123.00
1187.693, 10310.00
1188.777, 10260.00
1189.862, 10249.00
1190.946, 10152.00
1192.030, 10108.00
1193.113, 10047.00
1194.197, 10090.00
1195.281, 10074.00
1196.364, 10166.00
1197.447, 10238.00
1198.530, 10301.00
1199.613, 10181.00
1200.696, 10219.00
1201.779, 10187.00
1202.861, 10138.00
1203.944, 10128.00
1205.026, 10107.00
1206.108, 10203.00
1207.190, 10193.15
1208.271, 10206.00
1209.353, 10221.00
1210.435, 10193.00
1211.516, 10221.97
1212.597, 10237.00
1213.678, 10244.00
1214.759, 10276.00
1215.840, 10269.00
1216.920, 10358.00
1218.001, 10219.00
1219.081, 10225.00
1220.161, 10254.00
1221.241, 10323.00
1222.321, 10273.39
1223.401, 10275.25
1224.480, 10233.00
1225.560, 10206.00
1226.639, 10259.00
1227.718, 10243.00
1228.797, 10343.00
1229.876, 10426.00
1230.955, 10494.00
1232.033, 10339.00
1233.112, 10296.00
1234.190, 10469.00
1235.268, 10645.00
1236.346, 10533.00
1237.424, 10483.00
1238.501, 10489.00
1239.579, 10515.00
1240.656, 10422.00
1241.733, 10400.00
1242.811, 10499.00
1243.888, 10544.00
1244.964, 10622.00
1246.041, 10550.00
1247.117, 10573.00
1248.194, 10500.00
1249.270, 10591.00
1250.346, 10580.00
1251.422, 10588.00
1252.498, 10601.00
1253.573, 10600.00
1254.649, 10544.00
1255.724, 10653.00
1256.800, 10692.00
1257.875, 10612.00
1258.950, 10566.00
1260.024, 10825.00
1261.099, 10707.00
1262.173, 10824.00
1263.248, 10833.00
1264.322, 10988.00
1265.396, 10924.00
1266.470, 10933.00
1267.544, 11034.00
1268.617, 10906.00
1269.691, 11014.00
1270.764, 11020.00
1271.837, 10977.00
1272.910, 11022.00
1273.983, 11122.00
1275.056, 11096.00
1276.129, 11061.00
1277.201, 11100.00
1278.273, 11072.00
1279.346, 10959.00
1280.418, 10864.00
1281.489, 10788.00
1282.561, 10954.00
1283.633, 10958.00
1284.704, 10941.00
1285.776, 10872.00
1286.847, 10955.00
1287.918, 10896.00
1288.989, 11039.00
1290.059, 11092.00
1291.130, 11079.00
1292.200, 11130.00
1293.271, 11247.00
1294.341, 11108.00
1295.411, 11268.00
1296.481, 11124.00
1297.551, 11178.00
1298.620, 11170.00
1299.690, 11267.00
1300.759, 11141.00
1301.828, 11178.00
1302.897, 11166.00
1303.966, 11156.00
1305.035, 11351.00
1306.103, 11332.00
1307.172, 11404.00
1308.240, 11289.00
1309.308, 11465.00
1310.376, 11348.00
1311.444, 11366.00
1312.512, 11436.00
1313.580, 11399.00
1314.647, 11434.00
1315.714, 11542.00
1316.781, 11485.32
1317.848, 11479.00
1318.915, 11467.00
1319.982, 11443.00
1321.049, 11468.00
1322.115, 11397.00
1323.181, 11310.00
1324.248, 11189.00
1325.314, 11209.00
1326.380, 11131.34
1327.445, 11181.00
1328.511, 11073.00
1329.576, 11088.00
1330.642, 11072.00
1331.707, 11019.00
1332.772, 11134.00
1333.837, 11001.00
1334.902, 10952.00
1335.966, 11158.00
1337.031, 11043.00
1338.095, 10967.00
1339.159, 11087.00
1340.223, 11112.00
1341.287, 10965.00
1342.351, 11133.00
1343.415, 11123.00
1344.478, 11033.00
1345.541, 11230.00
1346.605, 11184.77
1347.668, 11299.00
1348.731, 11175.00
1349.793, 11227.00
1350.856, 11031.00
1351.918, 11077.00
1352.981, 11166.00
1354.043, 11167.00
1355.105, 11603.00
1356.167, 11382.29
1357.229, 11853.00
1358.290, 11192.00
1359.352, 11158.00
1360.413, 11164.00
1361.475, 11204.00
1362.536, 11135.00
1363.597, 11272.00
1364.657, 11361.00
1365.718, 11231.00
1366.779, 11211.00
1367.839, 11397.00
1368.899, 11359.00
1369.959, 11304.00
1371.019, 11257.00
1372.079, 11267.00
1373.139, 11321.00
1374.198, 11319.00
1375.258, 11299.00
1376.317, 11356.23
1377.376, 11334.00
1378.435, 11407.00
1379.494, 11466.00
1380.553, 11433.00
1381.611, 11403.00
1382.670, 11454.00
1383.728, 11414.14
1384.786, 11387.00
1385.844, 11386.00
1386.902, 11423.00
1387.960, 11396.00
1389.017, 11479.00
1390.075, 11428.00
1391.132, 11413.00
1392.189, 11245.00
1393.246, 11528.00
1394.303, 11415.00
1395.360, 11333.00
1396.417, 11408.00
1397.473, 11316.00
1398.529, 11271.00
1399.585, 11514.00
1400.642, 11488.00
1401.697, 11299.00
1402.753, 11463.00
1403.809, 11470.00
1404.864, 11455.00
1405.920, 11384.00
1406.975, 11374.00
1408.030, 11392.00
1409.085, 11558.00
1410.140, 11553.00
1411.194, 11553.00
1412.249, 11577.92
1413.303, 11528.70
1414.358, 11529.00
1415.412, 11467.00
1416.466, 11448.00
1417.520, 11478.00
1418.573, 11510.00
1419.627, 11595.00
1420.680, 11456.00
1421.733, 11472.00
1422.787, 11539.00
1423.840, 11586.00
1424.892, 11515.00
1425.945, 11629.00
1426.998, 11531.00
1428.050, 11657.00
1429.103, 11743.00
1430.155, 11704.00
1431.207, 11795.00
1432.259, 11946.00
1433.310, 11839.00
1434.362, 11966.00
1435.414, 12035.00
1436.465, 12108.00
1437.516, 12192.00
1438.567, 12291.00
1439.618, 12379.00
1440.669, 12467.00
1441.720, 12394.00
1442.770, 12651.00
1443.820, 12715.00
1444.871, 12845.00
1445.921, 12765.00
1446.971, 12748.00
1448.021, 12904.00
1449.070, 12944.00
1450.120, 12807.00
1451.169, 13017.00
1452.219, 12801.00
1453.268, 13070.00
1454.317, 13081.00
1455.366, 13103.00
1456.414, 13106.00
1457.463, 12994.00
1458.511, 12920.00
1459.560, 12828.00
1460.608, 12774.00
1461.656, 12729.00
1462.704, 12705.00
1463.752, 12608.00
1464.799, 12475.00
1465.847, 12575.00
1466.894, 12353.00
1467.941, 12515.00
1468.988, 12299.00
1470.035, 12276.00
1471.082, 12220.00
1472.129, 12266.00
1473.175, 12274.00
1474.222, 12164.00
1475.268, 12381.00
1476.314, 12267.00
1477.360, 12211.00
1478.406, 12359.00
1479.452, 12147.00
1480.498, 12299.00
1481.543, 12229.00
1482.588, 12149.00
1483.633, 12121.00
1484.679, 12092.00
1485.723, 12060.00
1486.768, 12030.00
1487.813, 12020.76
1488.857, 12031.00
1489.902, 12011.00
1490.946, 11998.94
1491.990, 12001.00
1493.034, 11948.00
1494.078, 11959.00
1495.122, 11891.00
1496.165, 11841.00
1497.209, 11772.00
1498.252, 11911.00
1499.295, 11746.00
1500.338, 11814.00
1501.381, 11927.00
1502.424, 11762.00
1503.466, 11966.00
1504.509, 11816.00
1505.551, 11914.00
1506.593, 11817.00
1507.635, 11852.00
1508.677, 12001.00
1509.719, 11843.00
1510.761, 11808.00
1511.802, 11953.00
1512.844, 11997.00
1513.885, 11959.00
1514.926, 11926.00
1515.967, 11993.00
1517.008, 12048.00
1518.049, 12001.00
1519.089, 11854.00
1520.130, 11964.00
1521.170, 12004.00
1522.210, 11855.00
1523.250, 12073.00
1524.290, 12123.00
1525.330, 12032.00
1526.370, 12130.00
1527.409, 12040.00
1528.448, 12030.00
1529.488, 12028.00
1530.527, 12000.00
1531.566, 12074.00
1532.605, 12052.00
1533.643, 12162.00
1534.682, 12168.00
1535.720, 12202.00
1536.759, 12204.00
1537.797, 12165.00
1538.835, 12211.00
1539.873, 12203.00
1540.910, 12133.00
1541.948, 12268.00
1542.986, 12162.00
1544.023, 12211.00
1545.060, 12210.00
1546.097, 12285.00
1547.134, 12128.00
1548.171, 12257.00
1549.208, 12200.00
1550.244, 12151.00
1551.281, 12240.00
1552.317, 12259.00
1553.353, 12234.00
1554.389, 12284.00
1555.425, 12337.00
1556.461, 12268.00
1557.497, 12095.00
1558.532, 12145.53
1559.567, 12199.00
1560.603, 12150.00
1561.638, 12236.00
1562.673, 12314.00
1563.708, 12263.00
##END=



