##NAMES=Enstatite
##RRUFFID=R050644
##IDEAL CHEMISTRY=MgSiO_3_
##LOCALITY=Morogoro, Tanzania
##OWNER=RRUFF
##SOURCE=Jibamitra Ganguly
##DESCRIPTION=Light brown crystal fragment
##STATUS=The identification of this mineral has been confirmed by X-ray diffraction and chemical analysis
##URL=rruff.info/R050644
##MEASURED CHEMISTRY=(Mg_0.90_Fe_0.10_)SiO_3_
##PIN_ID=L01052
##ORIENTATION=Laser parallel to b* (0 1 0). Fiducial mark perpendicular to laser is parallel to c [0 0 1]
113.2080, 9497.000
114.4400, 9527.000
115.6710, 9699.000
116.9030, 9894.000
118.1340, 10236.00
119.3650, 11139.00
120.5960, 11918.00
121.8270, 12939.00
123.0580, 13741.00
124.2880, 14247.00
125.5190, 15208.00
126.7490, 16317.00
127.9790, 16787.00
129.2090, 16572.00
130.4390, 16192.00
131.6680, 15821.00
132.8980, 15548.00
134.1270, 14981.00
135.3560, 14151.00
136.5850, 13076.00
137.8140, 12085.00
139.0430, 11405.00
140.2710, 10969.00
141.5000, 10594.00
142.7280, 10485.00
143.9560, 10404.00
145.1840, 10427.00
146.4120, 10293.00
147.6390, 10302.00
148.8670, 10145.00
150.0940, 10090.00
151.3210, 10077.00
152.5490, 9886.000
153.7750, 9857.048
155.0020, 9639.000
156.2290, 9658.000
157.4550, 9587.000
158.6810, 9417.000
159.9080, 9462.000
161.1340, 9368.000
162.3590, 9347.000
163.5850, 9322.000
164.8110, 9174.000
166.0360, 9288.000
167.2610, 9126.000
168.4860, 9300.000
169.7110, 9372.000
170.9360, 9067.000
172.1610, 9147.000
173.3850, 9214.000
174.6100, 9206.000
175.8340, 9253.000
177.0580, 9217.000
178.2820, 9309.000
179.5050, 9217.000
180.7290, 9211.000
181.9520, 9347.000
183.1760, 9356.000
184.3990, 9511.000
185.6220, 9517.000
186.8450, 9521.000
188.0670, 9686.000
189.2900, 9704.000
190.5120, 9825.000
191.7340, 9888.492
192.9560, 9826.000
194.1780, 9999.000
195.4000, 10011.00
196.6220, 10049.00
197.8430, 10241.00
199.0640, 10221.00
200.2860, 10222.00
201.5070, 10234.00
202.7270, 10106.00
203.9480, 9992.000
205.1690, 10093.00
206.3890, 9905.000
207.6090, 9922.000
208.8290, 9831.000
210.0490, 9784.000
211.2690, 9735.000
212.4890, 9769.000
213.7080, 9714.000
214.9280, 9820.000
216.1470, 9716.000
217.3660, 9829.000
218.5850, 9939.000
219.8030, 9937.000
221.0220, 10188.00
222.2400, 10404.00
223.4590, 10809.00
224.6770, 11213.00
225.8950, 11675.00
227.1120, 12115.28
228.3300, 12729.00
229.5480, 13037.00
230.7650, 13517.00
231.9820, 13957.00
233.1990, 14082.00
234.4160, 14070.00
235.6330, 14032.00
236.8490, 13752.00
238.0660, 13825.00
239.2820, 13302.00
240.4980, 12598.00
241.7140, 11629.00
242.9300, 11203.00
244.1460, 10622.00
245.3610, 10329.00
246.5770, 10091.00
247.7920, 10184.00
249.0070, 10100.00
250.2220, 10191.00
251.4370, 10167.00
252.6510, 10122.00
253.8660, 10249.00
255.0800, 10236.00
256.2940, 10202.00
257.5080, 10469.00
258.7220, 10582.00
259.9360, 10465.00
261.1490, 10204.00
262.3630, 10534.00
263.5760, 10368.00
264.7890, 10458.00
266.0020, 10481.00
267.2150, 10541.00
268.4270, 10674.00
269.6400, 10787.00
270.8520, 10827.00
272.0640, 10797.00
273.2760, 10869.00
274.4880, 10703.00
275.7000, 10793.00
276.9120, 10657.00
278.1230, 10593.00
279.3340, 10636.00
280.5450, 10347.00
281.7560, 10343.00
282.9670, 10170.00
284.1780, 10248.00
285.3880, 10280.00
286.5980, 10269.00
287.8090, 10568.00
289.0190, 10615.00
290.2290, 10743.00
291.4380, 10765.00
292.6480, 10901.00
293.8570, 11077.00
295.0670, 11127.00
296.2760, 11242.27
297.4850, 11298.18
298.6930, 11350.00
299.9020, 11313.00
301.1110, 11270.00
302.3190, 11244.29
303.5270, 11067.00
304.7350, 11142.00
305.9430, 11073.00
307.1510, 11042.00
308.3580, 11208.00
309.5660, 11346.00
310.7730, 11601.00
311.9800, 11612.00
313.1870, 12002.00
314.3940, 12128.00
315.6010, 12569.00
316.8070, 12799.12
318.0130, 13225.00
319.2200, 13409.00
320.4260, 13793.00
321.6310, 14249.00
322.8370, 14854.00
324.0430, 15243.00
325.2480, 16177.00
326.4540, 17108.00
327.6590, 18417.00
328.8640, 19890.00
330.0680, 21630.00
331.2730, 23943.00
332.4780, 25744.00
333.6820, 27855.00
334.8860, 29411.00
336.0900, 30710.00
337.2940, 31328.00
338.4980, 31634.00
339.7010, 31455.00
340.9050, 30760.22
342.1080, 29601.00
343.3110, 28075.00
344.5140, 26077.00
345.7170, 23641.00
346.9200, 21433.00
348.1220, 19327.00
349.3240, 17855.00
350.5270, 16666.00
351.7290, 15663.00
352.9310, 14957.00
354.1320, 14327.00
355.3340, 13878.00
356.5350, 13402.00
357.7370, 13191.00
358.9380, 12881.00
360.1390, 12729.00
361.3400, 12422.00
362.5400, 12378.00
363.7410, 12144.00
364.9410, 12038.00
366.1410, 11971.00
367.3410, 11959.00
368.5410, 11797.00
369.7410, 11869.00
370.9400, 12139.00
372.1400, 12154.00
373.3390, 12185.00
374.5380, 12286.00
375.7370, 12425.00
376.9360, 12313.00
378.1350, 12470.00
379.3330, 12359.00
380.5310, 12453.00
381.7300, 12467.00
382.9280, 12260.00
384.1260, 12317.00
385.3230, 12368.00
386.5210, 12545.00
387.7180, 12553.00
388.9160, 12758.00
390.1130, 12861.00
391.3100, 13080.00
392.5060, 13234.00
393.7030, 13624.00
394.9000, 13776.00
396.0960, 13868.00
397.2920, 13975.00
398.4880, 14016.00
399.6840, 13992.00
400.8800, 14048.00
402.0750, 13693.00
403.2710, 13742.00
404.4660, 13893.00
405.6610, 13588.00
406.8560, 13777.00
408.0510, 13597.00
409.2450, 13759.00
410.4400, 13720.00
411.6340, 13701.00
412.8280, 13643.00
414.0220, 13525.00
415.2160, 13680.00
416.4100, 13357.00
417.6030, 13314.00
418.7970, 13016.00
419.9900, 12702.00
421.1830, 12540.00
422.3760, 12306.00
423.5690, 12202.00
424.7610, 11942.00
425.9540, 11887.00
427.1460, 11737.00
428.3380, 11840.00
429.5300, 11785.00
430.7220, 11913.00
431.9140, 12064.00
433.1050, 12430.00
434.2970, 12646.00
435.4880, 12711.00
436.6790, 12885.00
437.8700, 12952.00
439.0610, 12946.00
440.2510, 12970.00
441.4420, 12885.00
442.6320, 12587.00
443.8220, 12558.00
445.0120, 12380.00
446.2020, 11959.00
447.3910, 11866.00
448.5810, 11675.00
449.7700, 11706.00
450.9600, 11443.00
452.1490, 11524.00
453.3370, 11364.00
454.5260, 11355.00
455.7150, 11317.00
456.9030, 11419.00
458.0910, 11353.00
459.2800, 11356.00
460.4670, 11407.00
461.6550, 11375.00
462.8430, 11441.00
464.0300, 11456.00
465.2180, 11581.00
466.4050, 11407.00
467.5920, 11491.00
468.7790, 11336.00
469.9650, 11266.00
471.1520, 11287.00
472.3380, 11316.00
473.5250, 11351.00
474.7110, 11204.00
475.8970, 11221.00
477.0820, 11093.00
478.2680, 11162.00
479.4540, 11184.00
480.6390, 11185.00
481.8240, 11175.02
483.0090, 11136.00
484.1940, 11080.00
485.3780, 11108.00
486.5630, 11023.00
487.7470, 11002.00
488.9320, 11145.00
490.1160, 11110.00
491.3000, 11169.00
492.4830, 11137.00
493.6670, 11072.00
494.8500, 11126.00
496.0340, 11116.00
497.2170, 11063.00
498.4000, 11115.00
499.5820, 11081.00
500.7650, 11106.00
501.9480, 11097.00
503.1300, 11146.00
504.3120, 11158.00
505.4940, 11217.00
506.6760, 11146.00
507.8580, 11224.00
509.0390, 11304.00
510.2210, 11356.00
511.4020, 11494.00
512.5830, 11553.00
513.7640, 11457.00
514.9450, 11761.00
516.1250, 11564.00
517.3060, 11744.00
518.4860, 11743.00
519.6660, 11755.00
520.8460, 11675.00
522.0260, 11869.00
523.2060, 11913.00
524.3850, 11929.00
525.5650, 12095.00
526.7440, 12165.00
527.9230, 12285.00
529.1020, 12324.00
530.2810, 12417.00
531.4590, 12487.00
532.6380, 12542.00
533.8160, 12860.00
534.9940, 12825.00
536.1720, 12946.00
537.3500, 12844.00
538.5270, 12753.00
539.7050, 12764.00
540.8820, 12858.00
542.0590, 12620.00
543.2360, 12622.00
544.4130, 12457.00
545.5900, 12325.00
546.7660, 12464.00
547.9430, 12271.00
549.1190, 12206.00
550.2950, 12324.00
551.4710, 12228.00
552.6470, 12192.00
553.8220, 12115.00
554.9980, 12123.00
556.1730, 12073.30
557.3480, 12063.56
558.5230, 11999.00
559.6980, 12011.00
560.8730, 11940.00
562.0470, 11929.21
563.2220, 11924.71
564.3960, 11909.00
565.5700, 11944.00
566.7440, 11976.00
567.9170, 12036.00
569.0910, 11999.00
570.2640, 12069.00
571.4380, 12066.00
572.6110, 12153.00
573.7840, 12148.98
574.9570, 12165.00
576.1290, 12176.00
577.3020, 12090.00
578.4740, 12133.00
579.6460, 12208.00
580.8180, 12152.00
581.9900, 12222.00
583.1620, 12196.73
584.3330, 12154.00
585.5040, 12201.00
586.6760, 12181.00
587.8470, 12271.00
589.0180, 12248.00
590.1880, 12123.00
591.3590, 12223.00
592.5290, 12269.00
593.7000, 12301.00
594.8700, 12384.00
596.0400, 12104.00
597.2090, 12171.00
598.3790, 12215.00
599.5490, 12104.00
600.7180, 12241.00
601.8870, 12144.00
603.0560, 12270.00
604.2250, 12338.00
605.3940, 12078.00
606.5620, 12399.00
607.7300, 12271.00
608.8990, 12347.00
610.0670, 12289.00
611.2350, 12364.00
612.4020, 12388.00
613.5700, 12431.00
614.7370, 12587.00
615.9050, 12553.00
617.0720, 12602.00
618.2390, 12731.00
619.4060, 12678.00
620.5720, 12847.45
621.7390, 12902.00
622.9050, 13104.00
624.0710, 13212.00
625.2370, 13314.00
626.4030, 13414.00
627.5690, 13433.00
628.7340, 13357.00
629.9000, 13565.00
631.0650, 13596.00
632.2300, 13505.00
633.3950, 13584.00
634.5600, 13532.00
635.7240, 13854.00
636.8890, 13844.00
638.0530, 14152.00
639.2170, 14350.00
640.3810, 14580.00
641.5450, 14910.00
642.7080, 15320.00
643.8720, 15805.00
645.0350, 16447.00
646.1980, 16822.00
647.3610, 17774.00
648.5240, 18670.00
649.6870, 19797.00
650.8490, 21326.00
652.0120, 22745.00
653.1740, 25101.00
654.3360, 26924.00
655.4980, 28985.00
656.6600, 31072.00
657.8210, 32513.00
658.9830, 33625.00
660.1440, 34220.00
661.3050, 34305.00
662.4660, 33401.00
663.6270, 32652.00
664.7870, 31309.00
665.9480, 30134.00
667.1080, 28747.00
668.2680, 27999.00
669.4280, 27391.00
670.5880, 27485.00
671.7480, 28159.00
672.9070, 29552.00
674.0670, 31477.00
675.2260, 33620.00
676.3850, 36351.00
677.5440, 38776.00
678.7030, 41018.00
679.8610, 42460.00
681.0200, 43660.00
682.1780, 43382.00
683.3360, 42903.00
684.4940, 41212.00
685.6520, 38947.00
686.8090, 35839.00
687.9670, 32978.00
689.1240, 29900.00
690.2810, 26664.00
691.4380, 24067.00
692.5950, 21766.00
693.7520, 20190.00
694.9080, 18948.00
696.0650, 17862.00
697.2210, 17128.00
698.3770, 16255.00
699.5330, 15910.00
700.6880, 15475.00
701.8440, 15065.00
702.9990, 14757.00
704.1550, 14531.00
705.3100, 14387.00
706.4650, 14207.00
707.6190, 14088.00
708.7740, 13856.00
709.9290, 13853.00
711.0830, 13826.00
712.2370, 13696.00
713.3910, 13521.00
714.5450, 13442.00
715.6980, 13428.00
716.8520, 13474.00
718.0050, 13337.00
719.1580, 13416.00
720.3110, 13295.00
721.4640, 13349.00
722.6170, 13209.00
723.7700, 13191.00
724.9220, 13211.00
726.0740, 13106.00
727.2260, 13141.00
728.3780, 13140.00
729.5300, 13142.00
730.6810, 13100.00
731.8330, 13110.75
732.9840, 13045.00
734.1350, 13122.00
735.2860, 13091.00
736.4370, 13133.00
737.5880, 13129.29
738.7380, 13136.58
739.8880, 13113.00
741.0390, 13157.00
742.1890, 13158.00
743.3380, 13167.00
744.4880, 13250.00
745.6380, 13067.00
746.7870, 12955.00
747.9360, 13038.00
749.0850, 13133.00
750.2340, 13214.00
751.3830, 13018.00
752.5310, 13096.00
753.6800, 13008.00
754.8280, 13190.00
755.9760, 12790.00
757.1240, 13075.00
758.2720, 12927.00
759.4190, 13001.00
760.5670, 13040.00
761.7140, 13110.00
762.8610, 13203.00
764.0080, 13110.00
765.1550, 13021.00
766.3020, 13010.00
767.4480, 13142.00
768.5950, 13100.00
769.7410, 13258.00
770.8870, 13139.00
772.0330, 12945.26
773.1780, 13138.46
774.3240, 13248.12
775.4690, 13278.72
776.6140, 12993.51
777.7590, 13116.11
778.9040, 13075.28
780.0490, 13027.74
781.1940, 13207.74
782.3380, 12968.46
783.4820, 13144.85
784.6260, 13155.31
785.7700, 13241.72
786.9140, 13163.68
788.0580, 13177.00
789.2010, 13274.00
790.3450, 13150.00
791.4880, 13300.00
792.6310, 13282.00
793.7730, 13299.00
794.9160, 13335.00
796.0590, 13309.76
797.2010, 13325.91
798.3430, 13307.00
799.4850, 13300.00
800.6270, 13344.00
801.7690, 13291.00
802.9100, 13330.00
804.0520, 13332.00
805.1930, 13472.00
806.3340, 13434.00
807.4750, 13432.00
808.6160, 13551.00
809.7560, 13425.00
810.8970, 13389.00
812.0370, 13541.00
813.1770, 13589.00
814.3170, 13509.00
815.4570, 13601.00
816.5960, 13579.00
817.7360, 13625.00
818.8750, 13498.00
820.0140, 13640.00
821.1530, 13630.00
822.2920, 13705.00
823.4310, 13766.00
824.5690, 13706.00
825.7070, 13547.00
826.8460, 13571.00
827.9840, 13761.00
829.1220, 13595.00
830.2590, 13796.00
831.3970, 13633.00
832.5340, 13689.00
833.6710, 13908.00
834.8080, 13848.00
835.9450, 13964.00
837.0820, 14004.00
838.2190, 14031.00
839.3550, 14020.00
840.4910, 14009.00
841.6270, 14241.00
842.7630, 14179.00
843.8990, 14401.00
845.0350, 14428.00
846.1700, 14580.00
847.3060, 14680.00
848.4410, 15154.00
849.5760, 15364.00
850.7100, 15568.00
851.8450, 15615.00
852.9800, 15745.00
854.1140, 15897.00
855.2480, 15952.00
856.3820, 15943.00
857.5160, 15875.00
858.6500, 15710.00
859.7830, 15727.00
860.9170, 15486.00
862.0500, 15399.00
863.1830, 15155.00
864.3160, 15091.00
865.4480, 14995.00
866.5810, 14821.00
867.7130, 14761.00
868.8460, 14678.00
869.9780, 14664.00
871.1100, 14584.34
872.2410, 14595.00
873.3730, 14494.00
874.5050, 14490.00
875.6360, 14519.00
876.7670, 14311.00
877.8980, 14367.00
879.0290, 14472.00
880.1590, 14401.00
881.2900, 14191.00
882.4200, 14141.00
883.5500, 14387.00
884.6800, 14214.00
885.8100, 14382.00
886.9400, 14235.00
888.0690, 14351.00
889.1990, 14483.00
890.3280, 14363.00
891.4570, 14462.00
892.5860, 14477.00
893.7140, 14490.00
894.8430, 14572.00
895.9710, 14585.26
897.1000, 14538.00
898.2280, 14654.00
899.3560, 14549.00
900.4830, 14555.00
901.6110, 14594.00
902.7380, 14566.00
903.8660, 14432.00
904.9930, 14380.00
906.1200, 14394.55
907.2460, 14373.72
908.3730, 14483.00
909.5000, 14522.00
910.6260, 14635.00
911.7520, 14659.12
912.8780, 14496.00
914.0040, 14762.00
915.1290, 14758.00
916.2550, 14915.00
917.3800, 15098.00
918.5050, 14958.00
919.6300, 14994.00
920.7550, 15190.00
921.8800, 15100.00
923.0040, 15523.00
924.1290, 15383.00
925.2530, 15773.00
926.3770, 16073.00
927.5010, 16159.00
928.6250, 16389.00
929.7480, 16639.00
930.8720, 16762.00
931.9950, 17180.00
933.1180, 17261.00
934.2410, 17261.00
935.3640, 17449.00
936.4860, 17314.00
937.6090, 17297.00
938.7310, 17115.00
939.8530, 16999.00
940.9750, 16846.00
942.0970, 16639.00
943.2180, 16445.00
944.3400, 16266.00
945.4610, 16022.00
946.5820, 16016.00
947.7030, 15691.00
948.8240, 15852.00
949.9450, 15602.00
951.0650, 15655.00
952.1860, 15583.00
953.3060, 15513.00
954.4260, 15498.00
955.5460, 15442.68
956.6650, 15459.00
957.7850, 15391.00
958.9040, 15389.00
960.0230, 15394.00
961.1420, 15496.00
962.2610, 15418.00
963.3800, 15527.00
964.4990, 15326.00
965.6170, 15476.00
966.7350, 15403.00
967.8530, 15364.00
968.9710, 15479.00
970.0890, 15492.00
971.2070, 15452.00
972.3240, 15689.00
973.4410, 15652.00
974.5580, 15619.00
975.6750, 15836.00
976.7920, 15826.00
977.9090, 16108.00
979.0250, 16135.00
980.1410, 16014.00
981.2580, 16231.00
982.3740, 16389.00
983.4890, 16490.00
984.6050, 16649.00
985.7200, 16988.00
986.8360, 17297.00
987.9510, 17444.00
989.0660, 18013.00
990.1810, 18253.00
991.2950, 18968.00
992.4100, 19607.00
993.5240, 20501.00
994.6390, 21277.00
995.7530, 22603.00
996.8660, 23942.00
997.9800, 25753.00
999.0940, 28404.00
1000.207, 31214.00
1001.320, 34570.00
1002.433, 38744.00
1003.546, 43555.00
1004.659, 48216.00
1005.772, 52541.00
1006.884, 55808.00
1007.996, 58211.00
1009.108, 59358.00
1010.220, 58667.00
1011.332, 56518.00
1012.444, 52837.00
1013.555, 48639.00
1014.666, 44233.00
1015.777, 39901.00
1016.888, 36553.00
1017.999, 34113.00
1019.110, 31861.00
1020.220, 30980.00
1021.331, 30158.00
1022.441, 29382.00
1023.551, 29084.00
1024.661, 28685.00
1025.770, 28281.00
1026.880, 27967.00
1027.989, 27502.46
1029.098, 27084.00
1030.207, 26551.00
1031.316, 25997.00
1032.425, 25361.00
1033.533, 24434.00
1034.642, 23712.00
1035.750, 22698.00
1036.858, 22037.00
1037.966, 20961.00
1039.073, 20279.00
1040.181, 19719.00
1041.288, 19367.00
1042.396, 18849.00
1043.503, 18322.00
1044.610, 18074.00
1045.716, 17880.00
1046.823, 17374.00
1047.929, 17243.00
1049.036, 17075.00
1050.142, 17050.00
1051.248, 16743.00
1052.353, 16654.00
1053.459, 16401.00
1054.564, 16456.00
1055.670, 16519.00
1056.775, 16258.00
1057.880, 16127.00
1058.985, 16163.00
1060.089, 16036.00
1061.194, 15884.00
1062.298, 15899.00
1063.402, 15912.00
1064.506, 15908.00
1065.610, 15836.00
1066.713, 15836.00
1067.817, 15845.00
1068.920, 15816.20
1070.023, 15823.00
1071.126, 15801.00
1072.229, 15764.00
1073.332, 15743.00
1074.435, 15766.00
1075.537, 15928.00
1076.639, 15776.00
1077.741, 15886.00
1078.843, 15796.00
1079.945, 15803.00
1081.046, 15772.00
1082.148, 15767.79
1083.249, 15927.00
1084.350, 15820.00
1085.451, 15907.00
1086.551, 15997.00
1087.652, 15676.00
1088.752, 15739.00
1089.853, 15743.00
1090.953, 15802.00
1092.053, 15855.00
1093.152, 15761.00
1094.252, 15810.00
1095.351, 15619.00
1096.451, 15678.41
1097.550, 15677.00
1098.649, 15740.00
1099.748, 15738.00
1100.846, 15815.00
1101.945, 15633.00
1103.043, 15813.00
1104.141, 15974.00
1105.239, 15790.00
1106.337, 15785.00
1107.434, 15802.00
1108.532, 15904.00
1109.629, 15763.00
1110.726, 15736.00
1111.823, 15740.00
1112.920, 15746.00
1114.017, 15878.00
1115.113, 15841.00
1116.210, 15941.00
1117.306, 15824.00
1118.402, 15912.00
1119.498, 15917.00
1120.593, 15944.70
1121.689, 15936.46
1122.784, 16031.00
1123.879, 15889.00
1124.974, 15853.00
1126.069, 15852.00
1127.164, 15917.00
1128.259, 15762.00
1129.353, 15937.00
1130.447, 15709.00
1131.541, 15851.00
1132.635, 15838.00
1133.729, 15820.00
1134.822, 15893.00
1135.916, 15936.00
1137.009, 15961.00
1138.102, 15870.00
1139.195, 15747.00
1140.288, 15695.00
1141.380, 15840.00
1142.473, 15924.00
1143.565, 15962.00
1144.657, 16000.00
1145.749, 15824.00
1146.841, 15845.00
1147.932, 15793.00
1149.024, 15837.00
1150.115, 15879.00
1151.206, 15820.19
1152.297, 15874.53
1153.388, 15871.43
1154.479, 15900.00
1155.569, 15889.00
1156.659, 15877.00
1157.750, 15869.00
1158.839, 15981.00
1159.929, 15822.00
1161.019, 15924.00
1162.108, 16020.00
1163.198, 15847.00
1164.287, 15953.00
1165.376, 15989.00
1166.465, 16083.00
1167.553, 16088.74
1168.642, 16108.65
1169.730, 16112.00
1170.818, 16050.00
1171.906, 16106.00
1172.994, 15968.00
1174.082, 15956.00
1175.170, 16045.00
1176.257, 16166.00
1177.344, 16199.00
1178.431, 16060.00
1179.518, 16076.00
1180.605, 16044.00
1181.691, 16062.00
1182.778, 16031.00
1183.864, 16161.00
1184.950, 16138.00
1186.036, 16144.00
1187.122, 16211.00
1188.207, 16102.00
1189.292, 15929.00
1190.378, 16236.00
1191.463, 15907.00
1192.548, 16044.00
1193.632, 15920.00
1194.717, 16094.00
1195.801, 16158.00
1196.886, 16028.00
1197.970, 16060.00
1199.054, 16125.00
1200.137, 16100.00
1201.221, 16133.00
1202.305, 16111.00
1203.388, 16120.00
1204.471, 16032.00
1205.554, 16173.00
1206.637, 16123.00
1207.719, 16223.00
1208.802, 16076.00
1209.884, 16215.00
1210.966, 16183.00
1212.048, 16063.00
1213.130, 16161.00
1214.212, 16179.00
1215.293, 16311.00
1216.374, 16308.56
1217.456, 16217.00
1218.536, 16345.00
1219.617, 16336.00
1220.698, 16385.61
1221.778, 16259.00
1222.859, 16432.00
1223.939, 16369.00
1225.019, 16476.00
1226.099, 16249.00
1227.178, 16356.00
1228.258, 16366.00
1229.337, 16281.00
1230.417, 16481.00
1231.496, 16460.00
1232.574, 16473.00
1233.653, 16526.00
1234.732, 16578.00
1235.810, 16590.19
1236.888, 16619.30
1237.966, 16633.00
1239.044, 16612.00
1240.122, 16636.00
1241.199, 16570.00
1242.277, 16519.00
1243.354, 16564.00
1244.431, 16592.00
1245.508, 16670.00
1246.585, 16683.55
1247.661, 16670.00
1248.738, 16727.00
1249.814, 16555.00
1250.890, 16548.00
1251.966, 16628.00
1253.042, 16855.00
1254.117, 16738.00
1255.193, 16733.00
1256.268, 16627.00
1257.343, 16737.00
1258.418, 16815.00
1259.493, 16765.00
1260.567, 16729.00
1261.642, 16917.00
1262.716, 16963.00
1263.790, 16902.00
1264.864, 17004.00
1265.938, 16909.00
1267.011, 16914.00
1268.085, 16895.00
1269.158, 17019.00
1270.231, 17108.00
1271.304, 17061.00
1272.377, 17162.00
1273.450, 17050.00
1274.522, 17160.00
1275.594, 17128.00
1276.666, 17156.00
1277.738, 17197.00
1278.810, 17212.00
1279.882, 17035.00
1280.953, 17050.00
1282.025, 17214.00
1283.096, 17122.00
1284.167, 17219.00
1285.238, 17146.00
1286.308, 17023.00
1287.379, 17318.00
1288.449, 17211.00
1289.519, 17167.00
1290.589, 17279.00
1291.659, 17083.00
1292.729, 17357.00
1293.798, 17269.00
1294.868, 17333.00
1295.937, 17343.00
1297.006, 17277.00
1298.075, 17303.00
1299.143, 17267.00
1300.212, 17308.00
1301.280, 17192.00
1302.348, 17149.00
1303.416, 17327.00
1304.484, 17251.00
1305.552, 17454.00
1306.620, 17396.00
1307.687, 17396.00
1308.754, 17460.00
1309.821, 17405.00
1310.888, 17523.00
1311.955, 17423.00
1313.021, 17581.00
1314.088, 17568.00
1315.154, 17601.00
1316.220, 17580.00
1317.286, 17781.00
1318.352, 17699.00
1319.417, 17573.00
1320.483, 17795.00
1321.548, 17698.00
1322.613, 17711.00
1323.678, 17688.00
1324.743, 17570.00
1325.807, 17582.00
1326.872, 17478.00
1327.936, 17519.00
1329.000, 17559.00
1330.064, 17511.00
1331.128, 17590.00
1332.191, 17576.00
1333.255, 17525.00
1334.318, 17574.64
1335.381, 17545.95
1336.444, 17566.00
1337.507, 17550.00
1338.569, 17469.00
1339.632, 17477.00
1340.694, 17420.00
1341.756, 17451.46
1342.818, 17519.00
1343.880, 17562.00
1344.941, 17490.00
1346.003, 17601.00
1347.064, 17577.00
1348.125, 17657.00
1349.186, 17779.00
1350.247, 17465.00
1351.308, 17858.00
1352.368, 17620.00
1353.428, 17635.00
1354.489, 17696.00
1355.549, 17577.00
1356.608, 17700.00
1357.668, 17659.00
1358.727, 17878.00
1359.787, 17762.00
1360.846, 17708.00
1361.905, 17857.00
1362.964, 17803.00
1364.022, 17834.00
1365.081, 17810.00
1366.139, 17922.00
1367.197, 17752.00
1368.255, 17751.00
1369.313, 17937.00
1370.371, 18162.00
1371.428, 17917.00
1372.486, 17979.00
1373.543, 17912.00
1374.600, 17918.00
1375.657, 17833.00
1376.713, 17954.00
1377.770, 17981.00
1378.826, 18169.00
1379.882, 18066.00
1380.938, 18113.00
1381.994, 18094.00
1383.050, 18147.00
1384.106, 18158.60
1385.161, 18184.00
1386.216, 18186.00
1387.271, 18223.00
1388.326, 18210.63
1389.381, 17871.00
1390.435, 18111.00
1391.490, 18020.00
1392.544, 17986.00
1393.598, 18086.00
1394.652, 18200.00
1395.705, 17940.00
1396.759, 18167.00
1397.812, 18075.00
1398.866, 18058.00
1399.919, 18099.00
1400.972, 18206.00
1402.024, 18223.00
1403.077, 18257.00
1404.129, 18256.00
1405.181, 18167.00
1406.233, 18207.00
1407.285, 18323.00
1408.337, 18400.00
1409.389, 18166.00
1410.440, 18226.00
1411.491, 18106.00
1412.542, 18364.00
1413.593, 18064.00
1414.644, 18459.00
1415.695, 18823.00
1416.745, 18730.53
1417.795, 19349.00
1418.845, 18959.00
1419.895, 18839.00
1420.945, 19144.00
1421.995, 19208.00
1423.044, 18841.00
1424.093, 19080.00
1425.142, 18516.00
1426.191, 18412.00
1427.240, 18622.00
1428.289, 18572.00
1429.337, 18485.00
1430.385, 18576.00
1431.433, 18773.00
1432.481, 18640.00
1433.529, 18661.00
1434.577, 18782.00
1435.624, 18700.00
1436.672, 18757.00
1437.719, 18973.00
1438.766, 19100.00
1439.812, 19339.00
1440.859, 19284.00
1441.905, 19429.00
1442.952, 19316.00
1443.998, 19415.00
1445.044, 19561.00
1446.090, 19458.00
1447.135, 19513.00
1448.181, 19679.00
1449.226, 19548.00
1450.271, 19563.00
1451.316, 19616.00
1452.361, 19764.00
1453.405, 19761.00
1454.450, 19565.00
1455.494, 19890.00
1456.538, 19635.00
1457.582, 19796.00
1458.626, 19646.00
1459.670, 19666.00
1460.713, 19648.00
1461.757, 19511.00
1462.800, 19403.00
1463.843, 19463.00
1464.886, 19392.00
1465.928, 19288.00
1466.971, 19331.00
1468.013, 19371.00
1469.055, 19262.00
1470.097, 19336.00
1471.139, 19343.00
1472.181, 19313.35
1473.222, 19297.00
1474.263, 19312.00
1475.305, 19347.00
1476.346, 19375.00
1477.386, 19140.00
1478.427, 19185.00
1479.468, 19251.00
1480.508, 19314.00
1481.548, 19382.00
1482.588, 19305.00
1483.628, 19267.00
1484.668, 19420.00
1485.707, 19118.00
1486.747, 19325.00
1487.786, 19289.00
1488.825, 19218.00
1489.864, 19171.00
1490.902, 19132.76
1491.941, 19242.00
1492.979, 19137.00
1494.017, 19146.00
1495.055, 19319.00
1496.093, 19208.00
1497.131, 19203.00
1498.168, 19258.00
1499.206, 19144.00
1500.243, 19171.00
1501.280, 19194.00
1502.317, 19169.27
1503.354, 19176.00
1504.390, 19229.00
1505.426, 19329.00
1506.463, 19433.00
1507.499, 19243.00
1508.535, 19351.00
1509.570, 19268.00
1510.606, 19271.00
1511.641, 19465.00
1512.676, 19268.00
1513.711, 19424.00
1514.746, 19249.00
1515.781, 19164.00
1516.816, 19327.00
1517.850, 19244.00
1518.884, 19357.00
1519.918, 19416.00
1520.952, 19355.00
1521.986, 19440.18
1523.019, 19289.00
1524.053, 19483.00
1525.086, 19446.00
1526.119, 19442.00
1527.152, 19538.00
1528.185, 19438.00
1529.217, 19483.00
1530.250, 19556.00
1531.282, 19622.00
1532.314, 19670.11
1533.346, 19467.00
1534.377, 19653.00
1535.409, 19582.00
1536.440, 19305.00
1537.472, 19631.00
1538.503, 19789.00
1539.534, 19575.00
1540.564, 19492.00
1541.595, 19596.00
1542.625, 19667.00
1543.656, 19433.00
1544.686, 19521.00
1545.716, 19477.00
1546.745, 19568.00
1547.775, 19796.00
1548.804, 19540.00
1549.834, 19690.00
1550.863, 19483.00
1551.892, 19723.00
1552.920, 19623.00
1553.949, 19716.00
1554.977, 19503.00
1556.006, 19742.00
1557.034, 19746.00
1558.062, 19630.00
1559.089, 19656.00
1560.117, 19695.00
1561.144, 19740.00
1562.172, 19656.00
1563.199, 19651.00
1564.226, 19576.00
1565.252, 19715.00
1566.279, 19676.00
1567.305, 19599.00
1568.332, 19836.00
1569.358, 19913.00
1570.384, 19831.00
##END=



