##NAMES=Enstatite
##RRUFFID=R060630
##IDEAL CHEMISTRY=MgSiO_3_
##LOCALITY=unknown
##OWNER=RRUFF
##SOURCE=Gemological Institute of America
##DESCRIPTION=Tan colored fragment
##STATUS=The identification of this mineral has been confirmed by X-ray diffraction and chemical analysis
##URL=rruff.info/R060630
##MEASURED CHEMISTRY=(Mg_0.89_Fe_0.07_Al_0.04_)_Σ=1_(Si_0.96_Al_0.04_)_Σ=1_O_3_
##PIN_ID=L01844
##ORIENTATION=Laser parallel to -b* (0 -1 0). Fiducial mark perpendicular to laser is parallel to c [0 0 1]
118.1340, 9227.000
119.3650, 9300.000
120.5960, 9497.000
121.8270, 9735.000
123.0580, 9963.000
124.2880, 10411.00
125.5190, 10865.88
126.7490, 11332.00
127.9790, 12088.00
129.2090, 13058.00
130.4390, 13915.00
131.6680, 15266.00
132.8980, 16565.00
134.1270, 18140.00
135.3560, 19897.00
136.5850, 21724.00
137.8140, 23603.00
139.0430, 25396.00
140.2710, 26644.00
141.5000, 26942.00
142.7280, 26533.00
143.9560, 25105.00
145.1840, 22550.00
146.4120, 20460.00
147.6390, 18509.00
148.8670, 16580.00
150.0940, 15146.00
151.3210, 14146.00
152.5490, 13411.00
153.7750, 12960.00
155.0020, 12454.00
156.2290, 12337.00
157.4550, 11968.00
158.6810, 11819.00
159.9080, 11497.00
161.1340, 11337.00
162.3590, 10943.00
163.5850, 10765.00
164.8110, 10632.00
166.0360, 10575.00
167.2610, 10308.00
168.4860, 10333.00
169.7110, 10329.00
170.9360, 10137.00
172.1610, 10259.00
173.3850, 10086.00
174.6100, 10131.00
175.8340, 10047.00
177.0580, 9987.000
178.2820, 10080.00
179.5050, 10031.00
180.7290, 10130.00
181.9520, 10025.00
183.1760, 10161.00
184.3990, 10087.00
185.6220, 10125.00
186.8450, 10201.00
188.0670, 10242.00
189.2900, 10274.00
190.5120, 10326.00
191.7340, 10512.00
192.9560, 10552.00
194.1780, 10723.00
195.4000, 10921.00
196.6220, 10938.00
197.8430, 11229.00
199.0640, 11364.00
200.2860, 11608.00
201.5070, 11723.00
202.7270, 11974.00
203.9480, 12197.00
205.1690, 12565.00
206.3890, 12655.00
207.6090, 12685.00
208.8290, 12660.00
210.0490, 12603.00
211.2690, 12374.00
212.4890, 12014.00
213.7080, 11838.00
214.9280, 11453.00
216.1470, 11287.00
217.3660, 11124.00
218.5850, 11048.00
219.8030, 10954.34
221.0220, 10883.00
222.2400, 10894.00
223.4590, 10949.00
224.6770, 11080.84
225.8950, 11270.18
227.1120, 11521.00
228.3300, 11828.00
229.5480, 12183.00
230.7650, 12597.00
231.9820, 13133.00
233.1990, 13641.00
234.4160, 14214.00
235.6330, 14796.00
236.8490, 15339.00
238.0660, 15586.00
239.2820, 15482.00
240.4980, 15193.00
241.7140, 14280.00
242.9300, 13565.00
244.1460, 12766.00
245.3610, 12430.00
246.5770, 11735.00
247.7920, 11444.00
249.0070, 11070.00
250.2220, 10911.00
251.4370, 10761.00
252.6510, 10720.00
253.8660, 10707.00
255.0800, 10681.00
256.2940, 10546.00
257.5080, 10858.00
258.7220, 10738.00
259.9360, 10808.00
261.1490, 10610.00
262.3630, 10584.00
263.5760, 10616.00
264.7890, 10695.00
266.0020, 10821.00
267.2150, 10686.00
268.4270, 10737.00
269.6400, 10694.00
270.8520, 10870.00
272.0640, 10864.00
273.2760, 10988.00
274.4880, 10932.00
275.7000, 11030.00
276.9120, 11148.00
278.1230, 11153.00
279.3340, 11176.00
280.5450, 11072.00
281.7560, 11177.00
282.9670, 11251.00
284.1780, 11370.00
285.3880, 11516.00
286.5980, 11525.00
287.8090, 11636.00
289.0190, 11687.00
290.2290, 11698.00
291.4380, 11820.63
292.6480, 11937.00
293.8570, 12051.00
295.0670, 12249.00
296.2760, 12451.00
297.4850, 12514.00
298.6930, 12589.00
299.9020, 12521.00
301.1110, 12652.00
302.3190, 12544.00
303.5270, 12547.00
304.7350, 12478.00
305.9430, 12457.00
307.1510, 12516.00
308.3580, 12587.00
309.5660, 12439.00
310.7730, 12613.00
311.9800, 12687.00
313.1870, 12909.00
314.3940, 13068.00
315.6010, 13233.00
316.8070, 13283.00
318.0130, 13638.00
319.2200, 13699.00
320.4260, 14157.00
321.6310, 14380.00
322.8370, 14814.00
324.0430, 15124.00
325.2480, 15681.00
326.4540, 16399.00
327.6590, 17228.00
328.8640, 17674.00
330.0680, 18856.00
331.2730, 19623.00
332.4780, 20622.00
333.6820, 21938.00
334.8860, 23367.00
336.0900, 24625.00
337.2940, 26542.00
338.4980, 28227.00
339.7010, 30023.00
340.9050, 32003.00
342.1080, 34386.00
343.3110, 36361.00
344.5140, 37980.00
345.7170, 39524.00
346.9200, 40445.00
348.1220, 41192.00
349.3240, 41482.00
350.5270, 41025.00
351.7290, 39913.00
352.9310, 38452.00
354.1320, 36728.00
355.3340, 34825.00
356.5350, 32931.00
357.7370, 31335.00
358.9380, 29394.00
360.1390, 27822.00
361.3400, 26256.00
362.5400, 25043.00
363.7410, 23759.00
364.9410, 22502.00
366.1410, 21653.00
367.3410, 20909.00
368.5410, 20061.00
369.7410, 19618.00
370.9400, 19003.00
372.1400, 18573.00
373.3390, 18265.00
374.5380, 17910.00
375.7370, 17615.00
376.9360, 17539.00
378.1350, 17369.00
379.3330, 17252.00
380.5310, 17089.00
381.7300, 16939.00
382.9280, 17147.00
384.1260, 17164.00
385.3230, 17377.00
386.5210, 17378.00
387.7180, 17490.00
388.9160, 17607.00
390.1130, 17810.00
391.3100, 18070.00
392.5060, 18207.00
393.7030, 18549.00
394.9000, 19091.00
396.0960, 19304.00
397.2920, 19816.00
398.4880, 20189.00
399.6840, 20645.00
400.8800, 20918.00
402.0750, 21115.00
403.2710, 21188.00
404.4660, 21231.00
405.6610, 21213.00
406.8560, 20948.00
408.0510, 20876.00
409.2450, 20697.00
410.4400, 20819.00
411.6340, 21014.00
412.8280, 21127.00
414.0220, 21573.00
415.2160, 21825.00
416.4100, 22076.00
417.6030, 22344.00
418.7970, 22486.00
419.9900, 22328.87
421.1830, 22111.00
422.3760, 21659.00
423.5690, 20928.00
424.7610, 20197.00
425.9540, 19184.00
427.1460, 18505.00
428.3380, 17472.00
429.5300, 16976.00
430.7220, 16542.00
431.9140, 16295.00
433.1050, 16367.00
434.2970, 16382.00
435.4880, 16635.48
436.6790, 17013.00
437.8700, 17369.00
439.0610, 18413.00
440.2510, 18859.00
441.4420, 19774.00
442.6320, 20719.00
443.8220, 21303.00
445.0120, 21655.00
446.2020, 21701.00
447.3910, 21212.00
448.5810, 20522.00
449.7700, 19735.00
450.9600, 18683.00
452.1490, 17676.00
453.3370, 16991.00
454.5260, 16397.00
455.7150, 15792.00
456.9030, 15211.00
458.0910, 15067.00
459.2800, 14846.00
460.4670, 14711.00
461.6550, 14457.00
462.8430, 14337.69
464.0300, 14063.00
465.2180, 14096.00
466.4050, 14000.00
467.5920, 13933.00
468.7790, 13788.00
469.9650, 13868.00
471.1520, 13753.00
472.3380, 13531.00
473.5250, 13492.00
474.7110, 13552.00
475.8970, 13555.00
477.0820, 13511.00
478.2680, 13588.00
479.4540, 13519.38
480.6390, 13356.00
481.8240, 13439.00
483.0090, 13358.00
484.1940, 13325.00
485.3780, 13354.00
486.5630, 13169.00
487.7470, 13363.00
488.9320, 13362.00
490.1160, 13285.00
491.3000, 13379.00
492.4830, 13243.00
493.6670, 13275.00
494.8500, 13372.00
496.0340, 13124.00
497.2170, 13229.00
498.4000, 13366.00
499.5820, 13360.00
500.7650, 13309.00
501.9480, 13464.00
503.1300, 13301.00
504.3120, 13404.00
505.4940, 13398.00
506.6760, 13312.00
507.8580, 13302.00
509.0390, 13375.00
510.2210, 13412.00
511.4020, 13530.00
512.5830, 13546.00
513.7640, 13618.22
514.9450, 13589.00
516.1250, 13751.00
517.3060, 13804.00
518.4860, 13916.00
519.6660, 13902.00
520.8460, 13889.00
522.0260, 14085.00
523.2060, 13993.00
524.3850, 14012.00
525.5650, 14037.00
526.7440, 14138.00
527.9230, 13891.00
529.1020, 14244.00
530.2810, 14015.00
531.4590, 14270.00
532.6380, 14272.00
533.8160, 14541.00
534.9940, 14503.00
536.1720, 14573.00
537.3500, 14719.00
538.5270, 14613.00
539.7050, 14635.00
540.8820, 14635.00
542.0590, 14386.00
543.2360, 14407.00
544.4130, 14240.00
545.5900, 14371.00
546.7660, 14105.00
547.9430, 14248.00
549.1190, 14198.00
550.2950, 14202.00
551.4710, 14226.00
552.6470, 14119.00
553.8220, 14027.00
554.9980, 14017.41
556.1730, 14042.00
557.3480, 13954.00
558.5230, 13919.00
559.6980, 13903.00
560.8730, 13861.00
562.0470, 13775.00
563.2220, 13767.63
564.3960, 13692.00
565.5700, 13724.00
566.7440, 13668.00
567.9170, 13670.00
569.0910, 13688.94
570.2640, 13669.00
571.4380, 13743.00
572.6110, 13755.00
573.7840, 13809.00
574.9570, 13882.00
576.1290, 13869.00
577.3020, 13756.00
578.4740, 13772.00
579.6460, 13774.00
580.8180, 13836.00
581.9900, 13821.00
583.1620, 13774.00
584.3330, 13800.00
585.5040, 13763.00
586.6760, 13780.10
587.8470, 13845.00
589.0180, 13837.00
590.1880, 13896.00
591.3590, 13888.02
592.5290, 13894.00
593.7000, 13863.00
594.8700, 13856.00
596.0400, 13822.00
597.2090, 13907.00
598.3790, 13959.00
599.5490, 13907.00
600.7180, 13911.00
601.8870, 13924.00
603.0560, 13924.00
604.2250, 13921.00
605.3940, 13951.00
606.5620, 14003.00
607.7300, 13954.00
608.8990, 14070.00
610.0670, 14165.00
611.2350, 14054.00
612.4020, 14004.00
613.5700, 14037.00
614.7370, 14058.25
615.9050, 14138.00
617.0720, 14225.00
618.2390, 14245.00
619.4060, 14332.00
620.5720, 14490.00
621.7390, 14486.00
622.9050, 14555.00
624.0710, 14600.00
625.2370, 14847.00
626.4030, 14936.00
627.5690, 15115.95
628.7340, 15246.00
629.9000, 15477.00
631.0650, 15701.00
632.2300, 15886.00
633.3950, 16050.00
634.5600, 16206.00
635.7240, 16699.00
636.8890, 16786.00
638.0530, 17186.00
639.2170, 17446.00
640.3810, 17742.00
641.5450, 17714.00
642.7080, 18159.00
643.8720, 18397.00
645.0350, 18940.00
646.1980, 19420.00
647.3610, 20108.00
648.5240, 20921.00
649.6870, 21921.85
650.8490, 23124.00
652.0120, 24402.00
653.1740, 25843.00
654.3360, 27467.00
655.4980, 28801.00
656.6600, 30502.00
657.8210, 32367.00
658.9830, 33346.00
660.1440, 34496.00
661.3050, 35010.00
662.4660, 35189.00
663.6270, 34896.00
664.7870, 33943.00
665.9480, 32884.00
667.1080, 32092.00
668.2680, 31284.00
669.4280, 30659.00
670.5880, 30252.00
671.7480, 30491.00
672.9070, 31063.00
674.0670, 31953.00
675.2260, 33309.00
676.3850, 35192.00
677.5440, 37872.00
678.7030, 40491.00
679.8610, 43862.00
681.0200, 47341.00
682.1780, 50583.00
683.3360, 53863.00
684.4940, 56452.00
685.6520, 57864.00
686.8090, 57741.00
687.9670, 56974.00
689.1240, 54401.00
690.2810, 50990.00
691.4380, 47234.00
692.5950, 42986.00
693.7520, 39344.00
694.9080, 35632.00
696.0650, 32805.00
697.2210, 29961.00
698.3770, 27915.00
699.5330, 26061.00
700.6880, 24730.00
701.8440, 23271.00
702.9990, 22602.00
704.1550, 21707.00
705.3100, 20832.00
706.4650, 20363.00
707.6190, 19910.00
708.7740, 19262.00
709.9290, 18932.00
711.0830, 18693.00
712.2370, 18297.00
713.3910, 18148.00
714.5450, 17899.00
715.6980, 17722.00
716.8520, 17382.00
718.0050, 17390.00
719.1580, 17029.00
720.3110, 16898.59
721.4640, 16915.00
722.6170, 16634.00
723.7700, 16671.00
724.9220, 16711.00
726.0740, 16559.00
727.2260, 16565.00
728.3780, 16453.00
729.5300, 16422.00
730.6810, 16255.00
731.8330, 16255.00
732.9840, 16306.00
734.1350, 16062.00
735.2860, 16100.00
736.4370, 16165.00
737.5880, 15968.00
738.7380, 15884.00
739.8880, 15989.00
741.0390, 16092.00
742.1890, 15848.00
743.3380, 15950.00
744.4880, 15849.00
745.6380, 15705.00
746.7870, 15578.00
747.9360, 15701.00
749.0850, 15713.00
750.2340, 15709.00
751.3830, 15624.00
752.5310, 15615.14
753.6800, 15511.00
754.8280, 15463.00
755.9760, 15467.00
757.1240, 15261.00
758.2720, 15257.00
759.4190, 15452.00
760.5670, 15368.00
761.7140, 15313.00
762.8610, 15157.00
764.0080, 15279.00
765.1550, 15131.00
766.3020, 15311.00
767.4480, 15311.00
768.5950, 15225.00
769.7410, 15260.00
770.8870, 15234.32
772.0330, 15204.39
773.1780, 15225.00
774.3240, 15144.00
775.4690, 15121.00
776.6140, 15048.00
777.7590, 15020.00
778.9040, 15019.58
780.0490, 15151.00
781.1940, 15052.00
782.3380, 15095.00
783.4820, 15146.00
784.6260, 15027.00
785.7700, 15237.00
786.9140, 15054.00
788.0580, 15263.00
789.2010, 15131.00
790.3450, 15072.00
791.4880, 15182.00
792.6310, 15173.00
793.7730, 15151.00
794.9160, 15255.00
796.0590, 15279.00
797.2010, 15264.00
798.3430, 15218.00
799.4850, 15108.00
800.6270, 15150.00
801.7690, 15098.48
802.9100, 15141.00
804.0520, 15120.00
805.1930, 15167.00
806.3340, 15268.00
807.4750, 15294.00
808.6160, 15304.00
809.7560, 15367.47
810.8970, 15385.00
812.0370, 15407.00
813.1770, 15377.00
814.3170, 15316.00
815.4570, 15364.00
816.5960, 15429.00
817.7360, 15370.00
818.8750, 15520.00
820.0140, 15391.00
821.1530, 15536.00
822.2920, 15584.00
823.4310, 15745.00
824.5690, 15633.00
825.7070, 15571.00
826.8460, 15866.00
827.9840, 16009.00
829.1220, 15815.00
830.2590, 15998.00
831.3970, 15949.00
832.5340, 16001.00
833.6710, 16094.00
834.8080, 16305.00
835.9450, 16384.00
837.0820, 16681.00
838.2190, 16889.00
839.3550, 17014.00
840.4910, 17362.00
841.6270, 17511.49
842.7630, 17873.00
843.8990, 17870.00
845.0350, 18072.00
846.1700, 18130.00
847.3060, 18464.00
848.4410, 18509.00
849.5760, 18570.00
850.7100, 18604.00
851.8450, 18592.00
852.9800, 18549.00
854.1140, 18622.00
855.2480, 18365.00
856.3820, 18295.00
857.5160, 18340.00
858.6500, 18168.00
859.7830, 17900.00
860.9170, 17941.00
862.0500, 17667.00
863.1830, 17816.00
864.3160, 17598.00
865.4480, 17361.00
866.5810, 17371.00
867.7130, 17290.00
868.8460, 17255.00
869.9780, 17303.00
871.1100, 17229.00
872.2410, 17126.00
873.3730, 16949.00
874.5050, 16940.96
875.6360, 16892.00
876.7670, 16863.00
877.8980, 16822.00
879.0290, 16757.00
880.1590, 16728.38
881.2900, 16762.00
882.4200, 16651.00
883.5500, 16628.00
884.6800, 16596.00
885.8100, 16351.00
886.9400, 16645.00
888.0690, 16294.00
889.1990, 16461.00
890.3280, 16416.00
891.4570, 16199.00
892.5860, 16469.00
893.7140, 16385.00
894.8430, 16289.00
895.9710, 16313.00
897.1000, 16504.00
898.2280, 16433.00
899.3560, 16375.00
900.4830, 16481.00
901.6110, 16364.00
902.7380, 16493.00
903.8660, 16635.00
904.9930, 16324.00
906.1200, 16621.00
907.2460, 16568.00
908.3730, 16558.00
909.5000, 16649.00
910.6260, 16682.00
911.7520, 16851.00
912.8780, 16821.00
914.0040, 17004.00
915.1290, 17055.00
916.2550, 17027.00
917.3800, 17150.00
918.5050, 17186.00
919.6300, 17233.00
920.7550, 17286.00
921.8800, 17258.00
923.0040, 17297.83
924.1290, 17254.00
925.2530, 17392.00
926.3770, 17484.00
927.5010, 17696.00
928.6250, 17681.00
929.7480, 17671.00
930.8720, 17882.00
931.9950, 17903.00
933.1180, 17886.00
934.2410, 17853.00
935.3640, 17924.00
936.4860, 17979.00
937.6090, 18064.00
938.7310, 18186.00
939.8530, 18108.00
940.9750, 18288.00
942.0970, 18547.00
943.2180, 18437.00
944.3400, 18425.00
945.4610, 18436.00
946.5820, 18363.00
947.7030, 18484.00
948.8240, 18369.00
949.9450, 18519.00
951.0650, 18468.00
952.1860, 18624.00
953.3060, 18458.00
954.4260, 18432.00
955.5460, 18432.00
956.6650, 18121.00
957.7850, 18136.00
958.9040, 18127.00
960.0230, 17732.00
961.1420, 17716.00
962.2610, 17557.00
963.3800, 17147.00
964.4990, 17222.00
965.6170, 17228.00
966.7350, 17088.00
967.8530, 17121.00
968.9710, 17083.00
970.0890, 17001.00
971.2070, 16963.00
972.3240, 16853.00
973.4410, 16779.00
974.5580, 16943.00
975.6750, 16655.00
976.7920, 16714.00
977.9090, 16735.00
979.0250, 16985.00
980.1410, 16923.00
981.2580, 16997.00
982.3740, 17136.00
983.4890, 17039.00
984.6050, 17107.00
985.7200, 17340.00
986.8360, 17309.00
987.9510, 17661.00
989.0660, 17655.00
990.1810, 17881.00
991.2950, 17964.00
992.4100, 18288.00
993.5240, 18287.00
994.6390, 18790.00
995.7530, 18917.00
996.8660, 19199.00
997.9800, 19786.00
999.0940, 20325.00
1000.207, 20562.00
1001.320, 21150.00
1002.433, 21523.00
1003.546, 22076.00
1004.659, 22696.00
1005.772, 23024.00
1006.884, 23520.00
1007.996, 24108.00
1009.108, 24606.00
1010.220, 24907.00
1011.332, 25129.00
1012.444, 25160.00
1013.555, 25222.00
1014.666, 25268.00
1015.777, 25262.00
1016.888, 25378.00
1017.999, 25343.60
1019.110, 25145.00
1020.220, 25264.00
1021.331, 25191.00
1022.441, 25019.00
1023.551, 25226.00
1024.661, 25142.00
1025.770, 25367.00
1026.880, 25325.00
1027.989, 25565.00
1029.098, 25677.00
1030.207, 25620.00
1031.316, 25785.00
1032.425, 25648.00
1033.533, 25766.00
1034.642, 25509.00
1035.750, 24837.00
1036.858, 24599.00
1037.966, 24068.00
1039.073, 23372.00
1040.181, 22755.00
1041.288, 22363.00
1042.396, 21848.00
1043.503, 21422.00
1044.610, 20827.00
1045.716, 20403.00
1046.823, 20313.00
1047.929, 19796.00
1049.036, 19538.00
1050.142, 19318.00
1051.248, 18976.00
1052.353, 18937.00
1053.459, 18774.00
1054.564, 18608.00
1055.670, 18354.00
1056.775, 18410.00
1057.880, 18108.00
1058.985, 17906.00
1060.089, 18070.00
1061.194, 17887.00
1062.298, 17716.00
1063.402, 17866.00
1064.506, 17594.00
1065.610, 17644.00
1066.713, 17392.00
1067.817, 17320.00
1068.920, 17442.00
1070.023, 17293.00
1071.126, 17239.00
1072.229, 17186.00
1073.332, 17130.00
1074.435, 17171.00
1075.537, 17159.75
1076.639, 17239.00
1077.741, 17183.00
1078.843, 17226.00
1079.945, 17163.00
1081.046, 17100.00
1082.148, 17163.00
1083.249, 17153.00
1084.350, 17006.00
1085.451, 17112.00
1086.551, 17028.00
1087.652, 16978.00
1088.752, 17050.00
1089.853, 17193.00
1090.953, 17216.00
1092.053, 17221.00
1093.152, 17134.00
1094.252, 17128.00
1095.351, 17351.00
1096.451, 17177.00
1097.550, 17218.00
1098.649, 17260.00
1099.748, 17045.00
1100.846, 17059.00
1101.945, 17133.00
1103.043, 17156.00
1104.141, 17171.00
1105.239, 17136.00
1106.337, 17162.78
1107.434, 17186.04
1108.532, 17175.00
1109.629, 17255.00
1110.726, 17263.00
1111.823, 17285.00
1112.920, 17355.00
1114.017, 17374.26
1115.113, 17328.00
1116.210, 17417.00
1117.306, 17461.00
1118.402, 17397.00
1119.498, 17376.00
1120.593, 17417.00
1121.689, 17482.00
1122.784, 17444.00
1123.879, 17566.00
1124.974, 17714.00
1126.069, 17422.00
1127.164, 17523.00
1128.259, 17414.00
1129.353, 17278.00
1130.447, 17361.00
1131.541, 17397.00
1132.635, 17143.00
1133.729, 17429.00
1134.822, 17381.00
1135.916, 17269.00
1137.009, 17445.00
1138.102, 17433.00
1139.195, 17515.00
1140.288, 17307.00
1141.380, 17314.00
1142.473, 17402.00
1143.565, 17348.00
1144.657, 17491.00
1145.749, 17196.00
1146.841, 17319.00
1147.932, 17654.00
1149.024, 17381.00
1150.115, 17403.00
1151.206, 17521.00
1152.297, 17441.00
1153.388, 17566.00
1154.479, 17413.00
1155.569, 17415.00
1156.659, 17424.00
1157.750, 17352.28
1158.839, 17414.00
1159.929, 17331.00
1161.019, 17440.00
1162.108, 17510.00
1163.198, 17434.00
1164.287, 17439.00
1165.376, 17526.00
1166.465, 17526.00
1167.553, 17454.00
1168.642, 17478.00
1169.730, 17526.00
1170.818, 17529.00
1171.906, 17579.00
1172.994, 17579.82
1174.082, 17610.00
1175.170, 17592.00
1176.257, 17559.00
1177.344, 17575.51
1178.431, 17558.00
1179.518, 17632.00
1180.605, 17634.00
1181.691, 17680.00
1182.778, 17700.00
1183.864, 17640.00
1184.950, 17678.00
1186.036, 17596.00
1187.122, 17594.51
1188.207, 17624.00
1189.292, 17574.00
1190.378, 17593.00
1191.463, 17620.00
1192.548, 17667.00
1193.632, 17729.00
1194.717, 17777.00
1195.801, 17772.25
1196.886, 17772.42
1197.970, 17709.00
1199.054, 17705.00
1200.137, 17677.48
1201.221, 17640.81
1202.305, 17646.00
1203.388, 17602.00
1204.471, 17612.00
1205.554, 17640.00
1206.637, 17649.37
1207.719, 17832.00
1208.802, 17696.00
1209.884, 17792.00
1210.966, 17775.00
1212.048, 17731.00
1213.130, 17777.00
1214.212, 17857.00
1215.293, 18052.00
1216.374, 17786.00
1217.456, 17801.00
1218.536, 17922.00
1219.617, 17807.00
1220.698, 17896.56
1221.778, 17934.00
1222.859, 17915.00
1223.939, 17962.00
1225.019, 17868.00
1226.099, 18040.00
1227.178, 17855.00
1228.258, 17842.00
1229.337, 18063.00
1230.417, 17692.00
1231.496, 18027.00
1232.574, 17969.00
1233.653, 18022.00
1234.732, 17981.00
1235.810, 18087.00
1236.888, 18028.00
1237.966, 18154.00
1239.044, 18265.00
1240.122, 18023.00
1241.199, 18104.00
1242.277, 18186.00
1243.354, 18038.00
1244.431, 18344.00
1245.508, 18131.00
1246.585, 18191.00
1247.661, 18201.00
1248.738, 18165.00
1249.814, 18194.39
1250.890, 18190.49
1251.966, 18212.00
1253.042, 18229.00
1254.117, 18285.00
1255.193, 18352.00
1256.268, 18327.00
1257.343, 18248.00
1258.418, 18187.00
1259.493, 18343.00
1260.567, 18459.00
1261.642, 18383.00
1262.716, 18409.00
1263.790, 18431.00
1264.864, 18341.00
1265.938, 18368.00
1267.011, 18522.00
1268.085, 18414.00
1269.158, 18310.00
1270.231, 18478.00
1271.304, 18515.00
1272.377, 18540.00
1273.450, 18661.00
1274.522, 18512.00
1275.594, 18508.00
1276.666, 18611.00
1277.738, 18400.00
1278.810, 18567.00
1279.882, 18761.00
1280.953, 18860.00
1282.025, 18726.00
1283.096, 18617.00
1284.167, 18713.00
1285.238, 18665.00
1286.308, 18668.00
1287.379, 18755.00
1288.449, 18771.00
1289.519, 18511.00
1290.589, 18710.00
1291.659, 18632.00
1292.729, 18365.00
1293.798, 18702.00
1294.868, 18529.00
1295.937, 18546.00
1297.006, 18579.00
1298.075, 18572.00
1299.143, 18652.00
1300.212, 18697.24
1301.280, 18793.00
1302.348, 18826.00
1303.416, 18847.00
1304.484, 18880.00
1305.552, 18833.00
1306.620, 18960.00
1307.687, 18932.00
1308.754, 18849.00
1309.821, 18954.00
1310.888, 18960.00
1311.955, 19121.00
1313.021, 18942.00
1314.088, 19060.00
1315.154, 18949.00
1316.220, 19018.00
1317.286, 19165.00
1318.352, 19253.00
1319.417, 18918.00
1320.483, 19011.00
1321.548, 19020.00
1322.613, 19190.00
1323.678, 19091.00
1324.743, 19188.00
1325.807, 19168.00
1326.872, 19189.00
1327.936, 19218.00
1329.000, 19172.00
1330.064, 19324.00
1331.128, 19145.00
1332.191, 19328.00
1333.255, 19229.00
1334.318, 19131.00
1335.381, 19114.00
1336.444, 19107.15
1337.507, 19213.00
1338.569, 19194.00
1339.632, 19271.00
1340.694, 19354.00
1341.756, 19265.00
1342.818, 19278.00
1343.880, 19378.00
1344.941, 19438.00
1346.003, 19381.00
1347.064, 19382.00
1348.125, 19264.00
1349.186, 19399.00
1350.247, 19366.00
1351.308, 19394.00
1352.368, 19557.00
1353.428, 19568.00
1354.489, 19467.00
1355.549, 19405.00
1356.608, 19335.00
1357.668, 19382.38
1358.727, 19402.12
1359.787, 19550.00
1360.846, 19521.00
1361.905, 19650.00
1362.964, 19661.00
1364.022, 19652.70
1365.081, 19711.00
1366.139, 19635.00
1367.197, 19599.00
1368.255, 19622.00
1369.313, 19559.00
1370.371, 19671.00
1371.428, 19783.00
1372.486, 19912.00
1373.543, 19430.00
1374.600, 19788.00
1375.657, 19690.00
1376.713, 19675.00
1377.770, 19907.00
1378.826, 19736.00
1379.882, 19753.00
1380.938, 19693.00
1381.994, 19688.29
1383.050, 19692.00
1384.106, 19746.00
1385.161, 19726.00
1386.216, 19760.00
1387.271, 19824.00
1388.326, 20011.00
1389.381, 20006.00
1390.435, 19727.00
1391.490, 19904.00
1392.544, 19726.00
1393.598, 19794.00
1394.652, 19871.00
1395.705, 19942.00
1396.759, 19993.50
1397.812, 20033.00
1398.866, 20017.00
1399.919, 20007.00
1400.972, 19854.00
1402.024, 19954.00
1403.077, 19779.00
1404.129, 20171.00
1405.181, 20006.00
1406.233, 20078.00
1407.285, 20130.00
1408.337, 20051.00
1409.389, 20035.00
1410.440, 20007.00
1411.491, 19902.00
1412.542, 20105.00
1413.593, 20244.00
1414.644, 20156.00
1415.695, 19982.00
1416.745, 20128.00
1417.795, 20110.00
1418.845, 20206.00
1419.895, 20109.00
1420.945, 20123.00
1421.995, 20223.00
1423.044, 20387.00
1424.093, 20300.00
1425.142, 20253.00
1426.191, 20367.00
1427.240, 20203.00
1428.289, 20236.00
1429.337, 20133.00
1430.385, 20355.00
1431.433, 20102.00
1432.481, 20477.00
1433.529, 20369.00
1434.577, 20276.00
1435.624, 20417.00
1436.672, 20346.00
1437.719, 20414.00
1438.766, 20397.00
1439.812, 20455.00
1440.859, 20512.00
1441.905, 20519.00
1442.952, 20580.00
1443.998, 20574.00
1445.044, 20565.57
1446.090, 20570.37
1447.135, 20562.00
1448.181, 20569.00
1449.226, 20665.00
1450.271, 20744.00
1451.316, 20682.00
1452.361, 20847.00
1453.405, 20549.00
1454.450, 20583.00
1455.494, 20710.00
1456.538, 20787.00
1457.582, 20727.00
1458.626, 20755.00
1459.670, 20737.00
1460.713, 20751.00
1461.757, 20862.00
1462.800, 20761.00
1463.843, 20722.00
1464.886, 20690.00
1465.928, 20804.00
1466.971, 20934.00
1468.013, 20800.00
1469.055, 20815.00
1470.097, 20777.00
1471.139, 20914.00
1472.181, 20944.00
1473.222, 21020.00
1474.263, 20967.00
1475.305, 20868.00
1476.346, 20952.00
1477.386, 20789.00
1478.427, 20888.00
1479.468, 20967.00
1480.508, 21051.00
1481.548, 21068.65
1482.588, 21093.27
1483.628, 21079.00
1484.668, 21042.00
1485.707, 21044.00
1486.747, 20934.00
1487.786, 20994.60
1488.825, 21211.00
1489.864, 21103.00
1490.902, 21038.00
1491.941, 21146.00
1492.979, 21031.00
1494.017, 21193.00
1495.055, 21319.00
1496.093, 21131.00
1497.131, 21229.00
1498.168, 21316.00
1499.206, 21254.00
1500.243, 21220.00
1501.280, 21060.00
1502.317, 21249.00
1503.354, 21317.00
1504.390, 21151.00
1505.426, 21397.00
1506.463, 21275.00
1507.499, 21337.00
1508.535, 21375.00
1509.570, 21375.94
1510.606, 21350.00
1511.641, 21452.00
1512.676, 21399.00
1513.711, 21396.00
1514.746, 21429.00
1515.781, 21245.00
1516.816, 21486.00
1517.850, 21514.00
1518.884, 21473.00
1519.918, 21297.00
1520.952, 21398.00
1521.986, 21580.00
1523.019, 21370.00
1524.053, 21377.00
1525.086, 21459.00
1526.119, 21317.00
1527.152, 21388.00
1528.185, 21363.00
1529.217, 21451.00
1530.250, 21416.00
1531.282, 21442.54
1532.314, 21456.23
1533.346, 21477.00
1534.377, 21461.00
1535.409, 21503.00
1536.440, 21512.00
1537.472, 21676.00
1538.503, 21531.00
1539.534, 21721.00
1540.564, 21661.00
1541.595, 21553.00
1542.625, 21503.00
1543.656, 21532.15
1544.686, 21595.00
1545.716, 21626.00
1546.745, 21734.00
1547.775, 21764.00
1548.804, 21620.00
1549.834, 21788.00
1550.863, 21811.00
1551.892, 21524.00
1552.920, 21896.00
1553.949, 21464.00
1554.977, 21796.00
1556.006, 21695.00
1557.034, 21861.00
1558.062, 21771.00
1559.089, 21836.00
1560.117, 21893.00
1561.144, 21879.00
1562.172, 21905.00
1563.199, 21910.00
1564.226, 21858.00
1565.252, 21893.00
1566.279, 22009.00
1567.305, 21938.00
1568.332, 21955.00
1569.358, 21918.00
1570.384, 22080.00
1571.409, 21913.00
1572.435, 22118.00
##END=



