##NAMES=Enstatite
##RRUFFID=R070550
##IDEAL CHEMISTRY=MgSiO_3_
##LOCALITY=Tanzania
##OWNER=RRUFF
##SOURCE=www.multicolour.com
##DESCRIPTION=Brown, translucent, vitreous crystal fragment
##STATUS=The identification of this mineral has been confirmed by X-ray diffraction and chemical analysis
##URL=rruff.info/R070550
##MEASURED CHEMISTRY=(Mg_0.90_Fe_0.10_)_Î£=1_Si_1.00_O_3_
##PIN_ID=L01735
##ORIENTATION=Laser parallel to -b* (0 -1 0). Fiducial mark perpendicular to laser is parallel to c [0 0 1]
112.8890, 3844.000
114.1310, 3941.000
115.3720, 4109.000
116.6130, 4320.000
117.8540, 4782.741
119.0950, 5176.000
120.3360, 5961.000
121.5760, 6819.000
122.8160, 7647.000
124.0560, 8166.000
125.2960, 8660.000
126.5350, 9688.000
127.7750, 10843.00
129.0140, 12628.00
130.2530, 14362.00
131.4920, 15959.00
132.7300, 16746.00
133.9690, 15878.00
135.2070, 13809.00
136.4450, 11563.00
137.6830, 9858.000
138.9210, 8757.000
140.1580, 8067.000
141.3950, 7770.000
142.6330, 7560.000
143.8690, 7728.000
145.1060, 7745.000
146.3430, 7716.000
147.5790, 7620.000
148.8150, 7470.000
150.0510, 7392.000
151.2870, 7478.000
152.5220, 7297.000
153.7580, 7159.000
154.9930, 6920.000
156.2280, 6416.000
157.4620, 6096.000
158.6970, 5819.000
159.9310, 5606.000
161.1660, 5476.000
162.4000, 5406.000
163.6330, 5368.000
164.8670, 5354.000
166.1000, 5275.000
167.3340, 5177.000
168.5670, 5191.000
169.8000, 5150.000
171.0320, 5115.000
172.2650, 5098.000
173.4970, 5010.000
174.7290, 5114.000
175.9610, 4994.000
177.1930, 5026.000
178.4240, 5034.000
179.6550, 5043.000
180.8870, 5022.000
182.1170, 5108.000
183.3480, 5122.000
184.5790, 5240.000
185.8090, 5170.000
187.0390, 5263.000
188.2690, 5310.000
189.4990, 5447.000
190.7290, 5470.000
191.9580, 5646.000
193.1870, 5726.000
194.4160, 5829.000
195.6450, 5845.000
196.8740, 5826.000
198.1020, 5772.000
199.3310, 5893.000
200.5590, 5807.000
201.7870, 5928.000
203.0140, 5977.000
204.2420, 5956.000
205.4690, 5847.000
206.6960, 5740.000
207.9230, 5621.000
209.1500, 5501.000
210.3760, 5442.000
211.6030, 5397.000
212.8290, 5341.327
214.0550, 5253.000
215.2810, 5290.000
216.5060, 5334.000
217.7320, 5332.000
218.9570, 5445.000
220.1820, 5416.000
221.4070, 5526.000
222.6320, 5660.000
223.8560, 5858.000
225.0800, 6041.000
226.3040, 6471.000
227.5280, 6895.000
228.7520, 7224.000
229.9760, 7490.000
231.1990, 8033.000
232.4220, 8425.000
233.6450, 9007.000
234.8680, 9658.000
236.0910, 10475.00
237.3130, 10967.00
238.5350, 10888.00
239.7570, 10384.00
240.9790, 9278.000
242.2010, 8175.000
243.4220, 7302.000
244.6430, 6514.000
245.8640, 6098.000
247.0850, 5813.000
248.3060, 5615.000
249.5270, 5626.000
250.7470, 5512.000
251.9670, 5512.000
253.1870, 5591.000
254.4070, 5572.000
255.6260, 5723.000
256.8460, 5699.000
258.0650, 5758.000
259.2840, 5770.098
260.5030, 5794.709
261.7220, 5801.063
262.9400, 5855.000
264.1580, 5787.000
265.3760, 5807.000
266.5940, 5795.000
267.8120, 5733.000
269.0290, 5791.000
270.2470, 5867.000
271.4640, 5962.000
272.6810, 6000.000
273.8980, 6152.000
275.1140, 6238.000
276.3310, 6303.000
277.5470, 6093.000
278.7630, 6082.000
279.9790, 5950.000
281.1940, 5820.000
282.4100, 5650.000
283.6250, 5655.000
284.8400, 5740.000
286.0550, 5792.000
287.2700, 5952.000
288.4850, 5983.000
289.6990, 6171.000
290.9130, 6390.000
292.1270, 6502.000
293.3410, 6651.462
294.5540, 6738.000
295.7680, 6848.000
296.9810, 6971.000
298.1940, 7014.000
299.4070, 7077.000
300.6200, 7118.000
301.8320, 7127.000
303.0450, 7030.000
304.2570, 7058.000
305.4690, 7169.000
306.6800, 7013.000
307.8920, 7225.000
309.1030, 7128.000
310.3150, 7269.000
311.5260, 7377.000
312.7360, 7400.000
313.9470, 7503.000
315.1580, 7443.000
316.3680, 7699.000
317.5780, 7995.000
318.7880, 8097.000
319.9980, 8455.000
321.2070, 8754.000
322.4170, 9028.000
323.6260, 9430.000
324.8350, 9800.000
326.0430, 10338.00
327.2520, 10902.00
328.4610, 12027.00
329.6690, 13232.00
330.8770, 14722.00
332.0850, 16210.00
333.2920, 17830.00
334.5000, 19886.00
335.7070, 21839.00
336.9140, 24171.00
338.1210, 26523.00
339.3280, 29024.00
340.5350, 31470.00
341.7410, 32798.00
342.9470, 32994.00
344.1540, 31414.00
345.3590, 28782.00
346.5650, 25431.00
347.7710, 22048.00
348.9760, 18968.00
350.1810, 16611.00
351.3860, 14576.00
352.5910, 13014.00
353.7950, 12061.00
355.0000, 11164.00
356.2040, 10534.00
357.4080, 10142.00
358.6120, 9795.000
359.8150, 9417.000
361.0190, 9080.456
362.2220, 8748.000
363.4250, 8449.000
364.6280, 8181.000
365.8310, 7939.000
367.0340, 7747.000
368.2360, 7702.000
369.4380, 7524.000
370.6400, 7618.000
371.8420, 7714.000
373.0440, 7649.000
374.2450, 7853.000
375.4470, 8021.000
376.6480, 8042.000
377.8490, 8261.000
379.0490, 8576.000
380.2500, 8657.000
381.4500, 8831.000
382.6510, 8882.000
383.8510, 8799.000
385.0500, 8659.000
386.2500, 8454.000
387.4500, 8238.000
388.6490, 8169.000
389.8480, 8147.000
391.0470, 8380.000
392.2460, 8487.000
393.4440, 8729.000
394.6430, 9026.000
395.8410, 9363.000
397.0390, 9813.000
398.2370, 10173.00
399.4340, 10473.00
400.6320, 10615.00
401.8290, 10708.28
403.0260, 10799.00
404.2230, 10628.00
405.4200, 10432.00
406.6170, 10253.00
407.8130, 10078.00
409.0090, 10150.00
410.2050, 10009.00
411.4010, 10094.00
412.5970, 10232.00
413.7920, 10278.00
414.9880, 10198.00
416.1830, 10294.00
417.3780, 10275.00
418.5730, 10135.00
419.7670, 9805.000
420.9620, 9612.000
422.1560, 9154.000
423.3500, 8677.000
424.5440, 8280.000
425.7380, 7947.000
426.9310, 7583.000
428.1240, 7340.000
429.3180, 7156.000
430.5110, 7033.000
431.7030, 7083.000
432.8960, 7244.000
434.0890, 7307.000
435.2810, 7456.000
436.4730, 7605.000
437.6650, 7819.000
438.8570, 8063.000
440.0480, 8262.000
441.2390, 8636.000
442.4310, 8810.000
443.6220, 8903.000
444.8120, 8834.000
446.0030, 8350.000
447.1940, 7868.000
448.3840, 7355.000
449.5740, 7072.000
450.7640, 6750.000
451.9540, 6697.000
453.1430, 6610.000
454.3330, 6561.000
455.5220, 6540.000
456.7110, 6458.000
457.9000, 6564.000
459.0890, 6610.000
460.2770, 6523.000
461.4650, 6598.000
462.6540, 6631.000
463.8420, 6530.000
465.0290, 6451.000
466.2170, 6562.000
467.4050, 6490.000
468.5920, 6431.000
469.7790, 6367.000
470.9660, 6357.000
472.1530, 6333.000
473.3390, 6226.000
474.5250, 6275.000
475.7120, 6144.000
476.8980, 6038.000
478.0840, 5942.000
479.2690, 5925.000
480.4550, 5910.000
481.6400, 5901.000
482.8250, 5897.000
484.0100, 5844.000
485.1950, 5882.000
486.3800, 5864.000
487.5640, 5859.000
488.7480, 5782.000
489.9320, 5840.000
491.1160, 5869.000
492.3000, 5739.000
493.4840, 5781.000
494.6670, 5816.000
495.8500, 5793.000
497.0330, 5725.000
498.2160, 5756.000
499.3990, 5848.000
500.5810, 5861.000
501.7630, 5926.000
502.9460, 5893.000
504.1280, 5833.000
505.3090, 5768.000
506.4910, 5752.000
507.6720, 5861.000
508.8540, 5985.000
510.0350, 5874.000
511.2160, 6032.000
512.3960, 6042.000
513.5770, 6167.000
514.7570, 6081.000
515.9380, 6261.000
517.1180, 6320.000
518.2970, 6430.000
519.4770, 6399.000
520.6570, 6497.000
521.8360, 6756.000
523.0150, 6656.000
524.1940, 6585.000
525.3730, 6812.000
526.5510, 6790.000
527.7300, 6837.000
528.9080, 6931.000
530.0860, 6851.000
531.2640, 6958.000
532.4420, 7060.000
533.6200, 7103.000
534.7970, 7193.000
535.9740, 7315.000
537.1510, 7500.000
538.3280, 7642.000
539.5050, 7736.000
540.6810, 7703.000
541.8580, 7661.000
543.0340, 7611.000
544.2100, 7422.000
545.3860, 7269.000
546.5610, 7174.000
547.7370, 7117.000
548.9120, 7070.000
550.0870, 7061.000
551.2620, 7222.000
552.4370, 7022.000
553.6120, 7063.000
554.7860, 6872.000
555.9600, 6830.000
557.1340, 6740.000
558.3080, 6675.000
559.4820, 6604.000
560.6560, 6585.000
561.8290, 6510.000
563.0020, 6565.000
564.1750, 6443.000
565.3480, 6519.000
566.5210, 6448.000
567.6930, 6484.000
568.8660, 6381.000
570.0380, 6496.000
571.2100, 6506.000
572.3820, 6572.000
573.5530, 6515.000
574.7250, 6578.000
575.8960, 6643.000
577.0670, 6702.000
578.2380, 6664.000
579.4090, 6566.000
580.5800, 6725.000
581.7500, 6597.000
582.9210, 6597.000
584.0910, 6602.000
585.2610, 6662.000
586.4300, 6519.000
587.6000, 6536.000
588.7690, 6548.000
589.9390, 6556.000
591.1080, 6561.029
592.2770, 6580.000
593.4450, 6566.000
594.6140, 6569.000
595.7820, 6578.000
596.9500, 6562.000
598.1190, 6617.000
599.2860, 6703.000
600.4540, 6642.000
601.6220, 6620.000
602.7890, 6526.000
603.9560, 6526.000
605.1230, 6623.000
606.2900, 6691.000
607.4570, 6645.000
608.6230, 6625.000
609.7890, 6602.000
610.9560, 6647.000
612.1220, 6569.000
613.2870, 6580.000
614.4530, 6653.000
615.6180, 6704.000
616.7840, 6695.000
617.9490, 6784.000
619.1140, 6821.000
620.2790, 6819.000
621.4430, 6938.000
622.6080, 7138.000
623.7720, 7118.000
624.9360, 7042.000
626.1000, 7241.000
627.2640, 7270.000
628.4270, 7387.000
629.5910, 7362.000
630.7540, 7402.000
631.9170, 7560.000
633.0800, 7527.000
634.2430, 7540.000
635.4050, 7765.000
636.5680, 7709.000
637.7300, 7830.000
638.8920, 8036.000
640.0540, 8260.000
641.2150, 8494.000
642.3770, 8760.000
643.5380, 9074.000
644.7000, 9394.000
645.8610, 9887.764
647.0210, 10368.00
648.1820, 11085.00
649.3430, 11819.00
650.5030, 12708.00
651.6630, 13913.00
652.8230, 15431.00
653.9830, 17010.00
655.1430, 18798.00
656.3020, 20952.00
657.4620, 22866.00
658.6210, 25260.00
659.7800, 27546.00
660.9390, 29508.00
662.0970, 31265.00
663.2560, 32342.00
664.4140, 32267.00
665.5720, 30995.00
666.7300, 29064.00
667.8880, 26548.00
669.0460, 24595.00
670.2030, 23138.00
671.3600, 22318.00
672.5180, 22424.00
673.6740, 22955.00
674.8310, 23994.00
675.9880, 25620.00
677.1440, 27813.00
678.3010, 30285.00
679.4570, 32937.00
680.6130, 35582.00
681.7690, 38162.00
682.9240, 40563.00
684.0800, 41824.00
685.2350, 42338.00
686.3900, 41016.00
687.5450, 38186.00
688.7000, 34191.00
689.8540, 30093.00
691.0090, 25891.00
692.1630, 22352.00
693.3170, 19191.00
694.4710, 16953.00
695.6250, 14998.00
696.7780, 13613.00
697.9320, 12460.00
699.0850, 11565.00
700.2380, 10855.00
701.3910, 10411.00
702.5440, 9901.000
703.6970, 9634.000
704.8490, 9204.000
706.0010, 8980.000
707.1530, 8853.000
708.3050, 8526.000
709.4570, 8331.000
710.6090, 8254.000
711.7600, 8145.000
712.9110, 8008.000
714.0620, 8015.000
715.2130, 7809.000
716.3640, 7703.000
717.5150, 7648.000
718.6650, 7634.000
719.8150, 7600.000
720.9650, 7481.000
722.1150, 7482.000
723.2650, 7535.000
724.4150, 7386.000
725.5640, 7394.000
726.7130, 7278.000
727.8630, 7313.000
729.0110, 7284.000
730.1600, 7338.000
731.3090, 7289.220
732.4570, 7370.000
733.6060, 7220.000
734.7540, 7159.000
735.9020, 7154.000
737.0490, 7072.000
738.1970, 7192.000
739.3440, 7188.000
740.4920, 7202.000
741.6390, 7201.000
742.7860, 7142.000
743.9320, 7218.000
745.0790, 7291.000
746.2250, 7197.000
747.3720, 7114.000
748.5180, 7223.000
749.6640, 7241.000
750.8100, 7137.000
751.9550, 7218.000
753.1010, 7136.000
754.2460, 7215.000
755.3910, 7081.000
756.5360, 7159.000
757.6810, 7142.000
758.8250, 7059.000
759.9700, 7165.000
761.1140, 7157.000
762.2580, 6988.000
763.4020, 7031.000
764.5460, 7015.000
765.6900, 7068.000
766.8330, 7125.000
767.9760, 7017.000
769.1200, 7008.000
770.2620, 7010.000
771.4050, 7115.000
772.5480, 7089.000
773.6900, 7076.000
774.8330, 7004.000
775.9750, 7236.000
777.1170, 7227.000
778.2590, 7140.000
779.4000, 7024.000
780.5420, 7163.000
781.6830, 7035.000
782.8240, 7126.000
783.9650, 7130.000
785.1060, 7127.000
786.2470, 7135.000
787.3870, 7154.427
788.5280, 7164.275
789.6680, 7194.000
790.8080, 7174.000
791.9480, 7172.000
793.0870, 7119.000
794.2270, 7179.000
795.3660, 7107.000
796.5060, 7203.000
797.6450, 7154.000
798.7830, 7211.000
799.9220, 7242.000
801.0610, 7180.000
802.1990, 7302.000
803.3370, 7340.000
804.4750, 7124.000
805.6130, 7148.000
806.7510, 7251.000
807.8890, 7262.000
809.0260, 7294.249
810.1630, 7309.523
811.3000, 7293.000
812.4370, 7321.000
813.5740, 7252.000
814.7110, 7307.000
815.8470, 7222.000
816.9830, 7388.000
818.1190, 7283.000
819.2550, 7390.000
820.3910, 7403.000
821.5270, 7347.000
822.6620, 7410.000
823.7970, 7347.000
824.9330, 7389.000
826.0670, 7437.000
827.2020, 7506.000
828.3370, 7502.000
829.4710, 7532.120
830.6060, 7562.000
831.7400, 7545.000
832.8740, 7517.000
834.0080, 7526.000
835.1410, 7677.000
836.2750, 7634.000
837.4080, 7697.000
838.5410, 7717.000
839.6740, 7763.000
840.8070, 7850.000
841.9400, 7748.000
843.0730, 7956.000
844.2050, 8028.000
845.3370, 8101.000
846.4690, 8353.000
847.6010, 8604.000
848.7330, 8887.000
849.8640, 9183.000
850.9960, 9572.000
852.1270, 9913.000
853.2580, 10230.00
854.3890, 10623.00
855.5200, 10921.00
856.6500, 11129.00
857.7810, 11123.00
858.9110, 10944.00
860.0410, 10731.00
861.1710, 10381.00
862.3010, 10148.00
863.4310, 9826.000
864.5600, 9680.000
865.6900, 9327.000
866.8190, 9045.000
867.9480, 8940.000
869.0770, 8631.000
870.2050, 8512.000
871.3340, 8468.000
872.4620, 8292.000
873.5900, 8314.000
874.7180, 8204.000
875.8460, 8135.000
876.9740, 8149.000
878.1010, 8067.000
879.2290, 8132.000
880.3560, 8097.000
881.4830, 8022.000
882.6100, 8052.000
883.7370, 8078.000
884.8630, 8131.000
885.9900, 8120.000
887.1160, 8025.000
888.2420, 8168.000
889.3680, 8013.000
890.4940, 8048.000
891.6200, 8077.000
892.7450, 8200.000
893.8700, 8190.000
894.9960, 8296.000
896.1210, 8158.000
897.2460, 8134.000
898.3700, 8149.000
899.4950, 8220.000
900.6190, 8202.647
901.7430, 8235.000
902.8670, 8236.000
903.9910, 8183.000
905.1150, 8213.000
906.2390, 8194.000
907.3620, 8163.000
908.4850, 8315.000
909.6080, 8273.000
910.7310, 8288.000
911.8540, 8280.000
912.9770, 8339.000
914.0990, 8441.000
915.2210, 8460.396
916.3440, 8626.000
917.4660, 8595.000
918.5870, 8658.000
919.7090, 8789.000
920.8310, 8972.000
921.9520, 9056.000
923.0730, 9354.000
924.1940, 9506.000
925.3150, 9756.000
926.4360, 10108.00
927.5560, 10292.00
928.6770, 10651.00
929.7970, 11037.00
930.9170, 11113.00
932.0370, 11402.00
933.1570, 11614.00
934.2760, 11622.00
935.3960, 11631.00
936.5150, 11665.00
937.6340, 11608.00
938.7530, 11558.00
939.8720, 11390.00
940.9910, 11207.00
942.1090, 10913.00
943.2280, 10579.00
944.3460, 10366.00
945.4640, 10168.00
946.5820, 9924.000
947.6990, 9776.000
948.8170, 9653.000
949.9340, 9353.000
951.0520, 9413.000
952.1690, 9219.000
953.2860, 9162.000
954.4030, 9324.000
955.5190, 9250.000
956.6360, 9248.000
957.7520, 9201.000
958.8680, 9177.830
959.9840, 9105.000
961.1000, 9150.000
962.2160, 9052.000
963.3310, 9051.000
964.4470, 9044.000
965.5620, 9118.000
966.6770, 8797.630
967.7920, 8966.621
968.9060, 9083.497
970.0210, 9151.146
971.1360, 9021.944
972.2500, 9146.889
973.3640, 9169.965
974.4780, 9188.864
975.5920, 9349.582
976.7050, 9248.924
977.8190, 9407.393
978.9320, 9548.000
980.0450, 9465.000
981.1580, 9702.000
982.2710, 9811.000
983.3840, 10034.00
984.4970, 10180.00
985.6090, 10338.00
986.7210, 10648.00
987.8330, 10836.00
988.9450, 11208.00
990.0570, 11525.00
991.1690, 11905.00
992.2800, 12467.00
993.3920, 13315.00
994.5030, 14236.00
995.6140, 15119.00
996.7250, 16170.00
997.8350, 17698.00
998.9460, 19393.00
1000.056, 21673.00
1001.167, 24596.00
1002.277, 27903.00
1003.387, 32023.00
1004.496, 36388.00
1005.606, 41283.00
1006.715, 46016.00
1007.825, 50873.00
1008.934, 54602.00
1010.043, 57063.00
1011.152, 57211.00
1012.260, 55004.00
1013.369, 50239.00
1014.477, 44939.00
1015.586, 39883.00
1016.694, 35500.00
1017.802, 32166.00
1018.909, 29639.00
1020.017, 28063.00
1021.124, 26604.00
1022.232, 25776.00
1023.339, 25201.00
1024.446, 24583.00
1025.553, 23931.00
1026.659, 24024.00
1027.766, 23514.00
1028.872, 23382.00
1029.979, 22686.00
1031.085, 22247.00
1032.191, 21510.00
1033.296, 20808.00
1034.402, 19615.00
1035.507, 18435.00
1036.613, 17405.00
1037.718, 16441.33
1038.823, 15653.00
1039.928, 14796.00
1041.032, 14102.00
1042.137, 13525.00
1043.241, 12965.00
1044.346, 12576.00
1045.450, 12025.00
1046.554, 11608.00
1047.657, 11260.00
1048.761, 11088.00
1049.864, 10784.00
1050.968, 10608.00
1052.071, 10378.00
1053.174, 10260.00
1054.277, 10151.00
1055.379, 10058.00
1056.482, 9917.000
1057.584, 9806.000
1058.687, 9771.000
1059.789, 9838.000
1060.891, 9605.000
1061.992, 9628.000
1063.094, 9430.000
1064.196, 9324.000
1065.297, 9375.000
1066.398, 9305.000
1067.499, 9232.000
1068.600, 9247.000
1069.701, 9324.000
1070.801, 9239.000
1071.902, 9299.000
1073.002, 9148.000
1074.102, 9275.000
1075.202, 9182.000
1076.302, 9204.000
1077.402, 9229.000
1078.501, 9249.000
1079.600, 9219.397
1080.700, 9142.000
1081.799, 9180.000
1082.898, 9096.000
1083.996, 9148.000
1085.095, 9108.000
1086.193, 9006.000
1087.292, 9080.000
1088.390, 9075.000
1089.488, 9066.000
1090.586, 9046.000
1091.683, 9098.000
1092.781, 8971.000
1093.878, 9016.000
1094.975, 9072.000
1096.073, 8926.000
1097.169, 9025.000
1098.266, 9014.000
1099.363, 8951.000
1100.459, 9010.000
1101.556, 9118.000
1102.652, 9153.000
1103.748, 9104.000
1104.844, 9161.000
1105.940, 8877.000
1107.035, 9202.000
1108.131, 9188.000
1109.226, 8869.000
1110.321, 9019.000
1111.416, 8971.000
1112.511, 9259.000
1113.605, 9168.000
1114.700, 9055.000
1115.794, 9077.000
1116.889, 9093.000
1117.983, 9229.000
1119.077, 9091.000
1120.170, 9122.000
1121.264, 9270.000
1122.357, 9035.000
1123.451, 9110.000
1124.544, 9185.000
1125.637, 9041.000
1126.730, 9246.000
1127.823, 9115.000
1128.915, 9116.000
1130.008, 9093.000
1131.100, 9180.000
1132.192, 9252.000
1133.284, 9152.000
1134.376, 9165.000
1135.467, 8957.000
1136.559, 8991.000
1137.650, 9148.000
1138.742, 9293.000
1139.833, 9084.000
1140.924, 9147.000
1142.014, 9141.000
1143.105, 9123.000
1144.195, 9141.000
1145.286, 9156.000
1146.376, 9208.000
1147.466, 9167.000
1148.556, 8960.000
1149.646, 8958.000
1150.735, 8968.000
1151.825, 9126.000
1152.914, 8992.000
1154.003, 9005.000
1155.092, 9050.000
1156.181, 9035.000
1157.270, 9038.000
1158.358, 9099.000
1159.447, 9088.000
1160.535, 9037.000
1161.623, 9191.000
1162.711, 8985.000
1163.799, 9127.000
1164.886, 9079.000
1165.974, 9101.000
1167.061, 9015.000
1168.148, 9073.517
1169.235, 9166.000
1170.322, 9155.000
1171.409, 9213.000
1172.496, 9230.000
1173.582, 9136.000
1174.669, 9059.000
1175.755, 9163.000
1176.841, 9099.000
1177.927, 9118.000
1179.012, 9102.000
1180.098, 9177.000
1181.183, 9217.000
1182.269, 9108.000
1183.354, 9189.000
1184.439, 9202.000
1185.524, 9139.000
1186.608, 9212.000
1187.693, 9143.000
1188.777, 9190.000
1189.862, 9067.000
1190.946, 9082.000
1192.030, 9048.000
1193.113, 9153.000
1194.197, 9116.000
1195.281, 9052.000
1196.364, 9019.000
1197.447, 8967.000
1198.530, 9042.000
1199.613, 9114.000
1200.696, 9181.000
1201.779, 9075.000
1202.861, 9035.000
1203.944, 9062.000
1205.026, 9159.000
1206.108, 9118.000
1207.190, 9109.000
1208.271, 9066.000
1209.353, 9189.000
1210.435, 9139.000
1211.516, 9169.000
1212.597, 9185.000
1213.678, 9124.000
1214.759, 9315.000
1215.840, 9208.000
1216.920, 9247.000
1218.001, 9265.000
1219.081, 9189.000
1220.161, 9201.000
1221.241, 9199.000
1222.321, 9185.000
1223.401, 9218.000
1224.480, 9285.000
1225.560, 9268.000
1226.639, 9287.000
1227.718, 9336.000
1228.797, 9269.000
1229.876, 9244.000
1230.955, 9375.000
1232.033, 9389.000
1233.112, 9214.000
1234.190, 9348.000
1235.268, 9256.000
1236.346, 9421.000
1237.424, 9346.000
1238.501, 9321.000
1239.579, 9396.000
1240.656, 9441.000
1241.733, 9362.000
1242.811, 9376.000
1243.888, 9449.000
1244.964, 9385.000
1246.041, 9394.000
1247.117, 9385.000
1248.194, 9348.000
1249.270, 9368.827
1250.346, 9465.000
1251.422, 9392.000
1252.498, 9520.000
1253.573, 9556.000
1254.649, 9496.000
1255.724, 9455.000
1256.800, 9481.000
1257.875, 9472.000
1258.950, 9548.000
1260.024, 9510.906
1261.099, 9574.000
1262.173, 9489.000
1263.248, 9510.000
1264.322, 9545.000
1265.396, 9538.000
1266.470, 9571.603
1267.544, 9711.000
1268.617, 9654.000
1269.691, 9676.000
1270.764, 9797.000
1271.837, 9729.000
1272.910, 9625.000
1273.983, 9669.000
1275.056, 9682.000
1276.129, 9777.000
1277.201, 9837.000
1278.273, 9829.000
1279.346, 9759.000
1280.418, 9821.000
1281.489, 9670.000
1282.561, 9601.000
1283.633, 9843.000
1284.704, 9767.000
1285.776, 9755.000
1286.847, 9746.000
1287.918, 9798.000
1288.989, 9838.000
1290.059, 9777.000
1291.130, 9687.000
1292.200, 9776.000
1293.271, 9793.000
1294.341, 9830.000
1295.411, 9893.000
1296.481, 9983.000
1297.551, 9943.521
1298.620, 9869.000
1299.690, 9901.000
1300.759, 9827.000
1301.828, 9856.000
1302.897, 9859.000
1303.966, 9861.000
1305.035, 9915.853
1306.103, 9922.000
1307.172, 10023.00
1308.240, 10020.00
1309.308, 10074.00
1310.376, 10121.00
1311.444, 10133.00
1312.512, 10033.00
1313.580, 10036.00
1314.647, 9954.000
1315.714, 10006.00
1316.781, 10167.00
1317.848, 10138.00
1318.915, 10152.00
1319.982, 10011.00
1321.049, 10096.00
1322.115, 10090.00
1323.181, 10118.00
1324.248, 9940.000
1325.314, 10075.00
1326.380, 10023.00
1327.445, 9991.000
1328.511, 10030.00
1329.576, 10042.00
1330.642, 10128.00
1331.707, 10103.34
1332.772, 10120.00
1333.837, 10063.00
1334.902, 10026.00
1335.966, 9964.000
1337.031, 10083.00
1338.095, 10095.00
1339.159, 10046.00
1340.223, 10097.00
1341.287, 9990.000
1342.351, 10174.00
1343.415, 10004.00
1344.478, 10001.00
1345.541, 10099.00
1346.605, 10244.00
1347.668, 10197.24
1348.731, 10327.00
1349.793, 10171.00
1350.856, 10148.00
1351.918, 10138.00
1352.981, 10138.00
1354.043, 10248.00
1355.105, 10352.00
1356.167, 10290.00
1357.229, 10165.00
1358.290, 10202.00
1359.352, 10184.49
1360.413, 10200.00
1361.475, 10279.00
1362.536, 10308.00
1363.597, 10407.00
1364.657, 10422.00
1365.718, 10309.00
1366.779, 10375.00
1367.839, 10283.00
1368.899, 10461.00
1369.959, 10334.00
1371.019, 10369.00
1372.079, 10498.00
1373.139, 10348.00
1374.198, 10433.00
1375.258, 10316.00
1376.317, 10435.00
1377.376, 10359.00
1378.435, 10470.00
1379.494, 10602.00
1380.553, 10348.00
1381.611, 10384.00
1382.670, 10466.00
1383.728, 10420.00
1384.786, 10429.00
1385.844, 10539.00
1386.902, 10423.00
1387.960, 10475.00
1389.017, 10287.00
1390.075, 10559.00
1391.132, 10393.00
1392.189, 10532.00
1393.246, 10450.00
1394.303, 10521.00
1395.360, 10633.00
1396.417, 10516.00
1397.473, 10440.00
1398.529, 10499.00
1399.585, 10448.80
1400.642, 10457.00
1401.697, 10505.00
1402.753, 10463.00
1403.809, 10535.00
1404.864, 10629.00
1405.920, 10546.00
1406.975, 10610.00
1408.030, 10600.00
1409.085, 10632.00
1410.140, 10651.18
1411.194, 10722.00
1412.249, 10671.00
1413.303, 10644.00
1414.358, 10634.00
1415.412, 10694.00
1416.466, 10798.00
1417.520, 10726.00
1418.573, 10705.00
1419.627, 10650.00
1420.680, 10727.00
1421.733, 10741.00
1422.787, 10683.00
1423.840, 10844.00
1424.892, 10737.00
1425.945, 10917.00
1426.998, 10812.00
1428.050, 10842.00
1429.103, 10815.00
1430.155, 10814.00
1431.207, 11029.00
1432.259, 10896.00
1433.310, 10957.00
1434.362, 11101.00
1435.414, 11070.00
1436.465, 11014.00
1437.516, 11081.00
1438.567, 11129.00
1439.618, 11184.00
1440.669, 11136.00
1441.720, 11157.00
1442.770, 11264.00
1443.820, 11169.00
1444.871, 11344.00
1445.921, 11286.00
1446.971, 11301.00
1448.021, 11438.00
1449.070, 11371.00
1450.120, 11355.00
1451.169, 11545.00
1452.219, 11458.00
1453.268, 11333.00
1454.317, 11383.43
1455.366, 11470.00
1456.414, 11405.00
1457.463, 11465.54
1458.511, 11535.00
1459.560, 11479.00
1460.608, 11505.00
1461.656, 11485.00
1462.704, 11464.00
1463.752, 11422.13
1464.799, 11458.00
1465.847, 11317.00
1466.894, 11177.00
1467.941, 11151.00
1468.988, 11401.00
1470.035, 11221.00
1471.082, 11384.00
1472.129, 11325.00
1473.175, 11343.00
1474.222, 11184.00
1475.268, 11312.00
1476.314, 11258.00
1477.360, 11268.00
1478.406, 11434.00
1479.452, 11290.00
1480.498, 11385.00
1481.543, 11316.00
1482.588, 11340.00
1483.633, 11410.00
1484.679, 11311.00
1485.723, 11243.00
1486.768, 11364.00
1487.813, 11388.00
1488.857, 11265.00
1489.902, 11223.00
1490.946, 11227.00
1491.990, 11272.00
1493.034, 11171.00
1494.078, 11285.00
1495.122, 11233.00
1496.165, 11229.00
1497.209, 11332.00
1498.252, 11298.00
1499.295, 11291.00
1500.338, 11173.00
1501.381, 11247.00
1502.424, 11285.00
1503.466, 11124.00
1504.509, 11295.00
1505.551, 11290.00
1506.593, 11240.00
1507.635, 11296.00
1508.677, 11362.00
1509.719, 11400.00
1510.761, 11413.00
1511.802, 11395.87
1512.844, 11254.00
1513.885, 11305.00
1514.926, 11288.00
1515.967, 11233.00
1517.008, 11460.00
1518.049, 11473.00
1519.089, 11260.00
1520.130, 11337.00
1521.170, 11527.00
1522.210, 11300.00
1523.250, 11501.00
1524.290, 11349.00
1525.330, 11481.00
1526.370, 11440.00
1527.409, 11375.00
1528.448, 11492.00
1529.488, 11382.00
1530.527, 11535.00
1531.566, 11380.00
1532.605, 11255.00
1533.643, 11391.00
1534.682, 11531.00
1535.720, 11420.00
1536.759, 11524.00
1537.797, 11496.00
1538.835, 11403.00
1539.873, 11482.00
1540.910, 11468.00
1541.948, 11558.00
1542.986, 11554.00
1544.023, 11539.75
1545.060, 11504.00
1546.097, 11525.00
1547.134, 11497.00
1548.171, 11576.00
1549.208, 11512.00
1550.244, 11554.91
1551.281, 11561.00
1552.317, 11646.00
1553.353, 11640.00
1554.389, 11649.70
1555.425, 11661.00
1556.461, 11653.00
1557.497, 11604.00
1558.532, 11640.00
1559.567, 11587.00
1560.603, 11623.00
1561.638, 11713.00
1562.673, 11798.00
1563.708, 11758.00
##END=



