##NAMES=Enstatite
##RRUFFID=R070550
##IDEAL CHEMISTRY=MgSiO_3_
##LOCALITY=Tanzania
##OWNER=RRUFF
##SOURCE=www.multicolour.com
##DESCRIPTION=Brown, translucent, vitreous crystal fragment
##STATUS=The identification of this mineral has been confirmed by X-ray diffraction and chemical analysis
##URL=rruff.info/R070550
##MEASURED CHEMISTRY=(Mg_0.90_Fe_0.10_)_Î£=1_Si_1.00_O_3_
##PIN_ID=L01735
##ORIENTATION=Laser parallel to -b* (0 -1 0). Fiducial mark perpendicular to laser is parallel to c [0 0 1]
112.8890, 4004.000
114.1310, 4388.000
115.3720, 4946.000
116.6130, 5483.000
117.8540, 6272.000
119.0950, 7751.000
120.3360, 9665.000
121.5760, 11919.00
122.8160, 13766.00
124.0560, 14789.00
125.2960, 16187.00
126.5350, 18976.00
127.7750, 21497.72
129.0140, 24978.00
130.2530, 27311.00
131.4920, 30613.00
132.7300, 31819.00
133.9690, 31067.00
135.2070, 27317.00
136.4450, 22242.00
137.6830, 17107.00
138.9210, 13664.00
140.1580, 11455.00
141.3950, 10056.00
142.6330, 9014.000
143.8690, 8423.000
145.1060, 8047.000
146.3430, 7687.000
147.5790, 7416.000
148.8150, 7190.000
150.0510, 7234.000
151.2870, 7094.000
152.5220, 7057.000
153.7580, 6914.000
154.9930, 6909.000
156.2280, 6941.000
157.4620, 6914.000
158.6970, 6830.000
159.9310, 6785.324
161.1660, 6672.000
162.4000, 6617.000
163.6330, 6531.000
164.8670, 6462.000
166.1000, 6494.000
167.3340, 6430.000
168.5670, 6433.000
169.8000, 6403.000
171.0320, 6412.000
172.2650, 6406.000
173.4970, 6344.000
174.7290, 6369.000
175.9610, 6445.000
177.1930, 6430.000
178.4240, 6534.000
179.6550, 6512.000
180.8870, 6675.000
182.1170, 6559.000
183.3480, 6596.000
184.5790, 6701.000
185.8090, 6832.000
187.0390, 6901.378
188.2690, 7020.000
189.4990, 7104.000
190.7290, 7212.000
191.9580, 7332.000
193.1870, 7317.000
194.4160, 7370.000
195.6450, 7427.000
196.8740, 7368.000
198.1020, 7359.000
199.3310, 7297.000
200.5590, 7521.000
201.7870, 7471.000
203.0140, 7690.000
204.2420, 7588.000
205.4690, 7443.000
206.6960, 7218.000
207.9230, 6946.000
209.1500, 6674.000
210.3760, 6531.000
211.6030, 6288.000
212.8290, 6215.000
214.0550, 6112.000
215.2810, 6022.000
216.5060, 5973.000
217.7320, 5935.000
218.9570, 6054.000
220.1820, 6133.000
221.4070, 6166.000
222.6320, 6254.000
223.8560, 6444.000
225.0800, 6615.000
226.3040, 7038.000
227.5280, 7282.000
228.7520, 7653.000
229.9760, 8050.000
231.1990, 8248.000
232.4220, 8605.000
233.6450, 9103.000
234.8680, 9676.000
236.0910, 10293.00
237.3130, 10616.00
238.5350, 10871.00
239.7570, 10491.00
240.9790, 9717.000
242.2010, 8973.000
243.4220, 7790.000
244.6430, 7150.000
245.8640, 6794.000
247.0850, 6443.000
248.3060, 6242.000
249.5270, 6112.000
250.7470, 6141.000
251.9670, 6172.000
253.1870, 6001.000
254.4070, 6087.000
255.6260, 6133.000
256.8460, 5993.000
258.0650, 6173.000
259.2840, 6285.000
260.5030, 6246.000
261.7220, 6283.000
262.9400, 6123.000
264.1580, 6123.000
265.3760, 6112.000
266.5940, 6185.000
267.8120, 6190.000
269.0290, 6228.000
270.2470, 6257.000
271.4640, 6272.966
272.6810, 6283.000
273.8980, 6320.000
275.1140, 6306.000
276.3310, 6338.000
277.5470, 6323.000
278.7630, 6261.000
279.9790, 6150.000
281.1940, 6179.000
282.4100, 6086.000
283.6250, 6162.000
284.8400, 6166.000
286.0550, 6168.000
287.2700, 6267.000
288.4850, 6353.000
289.6990, 6513.000
290.9130, 6606.000
292.1270, 6793.000
293.3410, 6854.000
294.5540, 6957.000
295.7680, 7080.000
296.9810, 7177.158
298.1940, 7299.000
299.4070, 7372.000
300.6200, 7430.000
301.8320, 7435.000
303.0450, 7508.000
304.2570, 7319.000
305.4690, 7319.000
306.6800, 7168.000
307.8920, 7201.000
309.1030, 7231.000
310.3150, 7212.000
311.5260, 7382.000
312.7360, 7302.000
313.9470, 7496.000
315.1580, 7709.000
316.3680, 8023.000
317.5780, 8249.000
318.7880, 8606.000
319.9980, 8858.000
321.2070, 9324.000
322.4170, 9898.000
323.6260, 10574.00
324.8350, 11655.00
326.0430, 12445.00
327.2520, 14050.00
328.4610, 15729.00
329.6690, 18136.00
330.8770, 20842.00
332.0850, 24204.00
333.2920, 27615.00
334.5000, 31487.00
335.7070, 35208.00
336.9140, 39511.00
338.1210, 43713.00
339.3280, 47853.00
340.5350, 51416.00
341.7410, 53870.00
342.9470, 54248.00
344.1540, 52274.00
345.3590, 48275.00
346.5650, 42543.00
347.7710, 36733.00
348.9760, 31331.00
350.1810, 26265.00
351.3860, 22509.00
352.5910, 19686.00
353.7950, 17638.00
355.0000, 15879.00
356.2040, 14730.00
357.4080, 13602.00
358.6120, 12702.00
359.8150, 12081.00
361.0190, 11743.00
362.2220, 10945.00
363.4250, 10657.00
364.6280, 10342.00
365.8310, 10071.00
367.0340, 9804.000
368.2360, 9504.000
369.4380, 9385.000
370.6400, 9230.000
371.8420, 9180.000
373.0440, 9010.000
374.2450, 9039.000
375.4470, 9072.000
376.6480, 8939.000
377.8490, 9041.000
379.0490, 9049.000
380.2500, 9083.907
381.4500, 9161.043
382.6510, 9229.000
383.8510, 9375.000
385.0500, 9465.000
386.2500, 9756.000
387.4500, 9806.000
388.6490, 10364.00
389.8480, 10677.00
391.0470, 11365.00
392.2460, 11887.00
393.4440, 12561.24
394.6430, 13344.30
395.8410, 13982.00
397.0390, 14939.00
398.2370, 15558.00
399.4340, 16254.00
400.6320, 16512.00
401.8290, 16976.00
403.0260, 16933.00
404.2230, 16479.00
405.4200, 16408.00
406.6170, 16078.00
407.8130, 15679.00
409.0090, 15585.00
410.2050, 15506.00
411.4010, 15350.00
412.5970, 15386.00
413.7920, 15279.00
414.9880, 15370.00
416.1830, 15231.00
417.3780, 14989.00
418.5730, 14634.00
419.7670, 14511.00
420.9620, 14248.00
422.1560, 13781.00
423.3500, 13280.00
424.5440, 12550.00
425.7380, 11955.00
426.9310, 11537.00
428.1240, 11067.00
429.3180, 10697.00
430.5110, 10562.00
431.7030, 10661.00
432.8960, 10888.00
434.0890, 11278.00
435.2810, 11733.00
436.4730, 12181.00
437.6650, 12718.00
438.8570, 13409.00
440.0480, 14121.00
441.2390, 14654.00
442.4310, 15060.00
443.6220, 15075.00
444.8120, 14780.00
446.0030, 13812.00
447.1940, 12485.00
448.3840, 11294.00
449.5740, 10431.00
450.7640, 9735.000
451.9540, 9289.000
453.1430, 8985.000
454.3330, 8522.000
455.5220, 8633.000
456.7110, 8355.000
457.9000, 8315.000
459.0890, 8235.000
460.2770, 8079.000
461.4650, 8106.000
462.6540, 8129.000
463.8420, 8070.000
465.0290, 8007.000
466.2170, 7982.000
467.4050, 7944.899
468.5920, 7949.000
469.7790, 7915.000
470.9660, 7795.000
472.1530, 7798.000
473.3390, 7725.000
474.5250, 7777.000
475.7120, 7686.000
476.8980, 7570.000
478.0840, 7521.000
479.2690, 7439.000
480.4550, 7490.000
481.6400, 7384.000
482.8250, 7368.000
484.0100, 7449.000
485.1950, 7421.000
486.3800, 7434.000
487.5640, 7378.000
488.7480, 7360.000
489.9320, 7345.000
491.1160, 7345.000
492.3000, 7353.000
493.4840, 7364.960
494.6670, 7332.000
495.8500, 7373.000
497.0330, 7425.000
498.2160, 7357.000
499.3990, 7286.000
500.5810, 7343.000
501.7630, 7433.000
502.9460, 7410.773
504.1280, 7488.000
505.3090, 7458.000
506.4910, 7447.000
507.6720, 7472.000
508.8540, 7515.000
510.0350, 7461.000
511.2160, 7524.000
512.3960, 7639.000
513.5770, 7608.000
514.7570, 7680.000
515.9380, 7719.000
517.1180, 7847.000
518.2970, 7935.000
519.4770, 8063.000
520.6570, 8130.000
521.8360, 8180.000
523.0150, 8371.000
524.1940, 8413.000
525.3730, 8558.000
526.5510, 8578.000
527.7300, 8695.000
528.9080, 8549.000
530.0860, 8590.000
531.2640, 8594.000
532.4420, 8670.000
533.6200, 8715.000
534.7970, 8808.000
535.9740, 8920.000
537.1510, 9106.000
538.3280, 9269.000
539.5050, 9277.000
540.6810, 9488.000
541.8580, 9263.000
543.0340, 9107.000
544.2100, 8942.000
545.3860, 8876.000
546.5610, 8800.000
547.7370, 8759.000
548.9120, 8809.000
550.0870, 8813.000
551.2620, 8902.000
552.4370, 8763.000
553.6120, 8657.000
554.7860, 8700.000
555.9600, 8528.000
557.1340, 8414.000
558.3080, 8295.000
559.4820, 8242.000
560.6560, 8128.000
561.8290, 8108.000
563.0020, 7980.000
564.1750, 8048.000
565.3480, 8023.000
566.5210, 8073.000
567.6930, 8111.000
568.8660, 8054.000
570.0380, 8000.000
571.2100, 8016.000
572.3820, 8151.000
573.5530, 8044.000
574.7250, 8059.000
575.8960, 8106.000
577.0670, 8066.000
578.2380, 8157.000
579.4090, 8167.000
580.5800, 8125.000
581.7500, 8157.000
582.9210, 8176.000
584.0910, 8221.000
585.2610, 8095.000
586.4300, 8188.000
587.6000, 8217.000
588.7690, 8342.000
589.9390, 8260.000
591.1080, 8246.000
592.2770, 8272.000
593.4450, 8317.000
594.6140, 8252.000
595.7820, 8275.000
596.9500, 8276.000
598.1190, 8330.000
599.2860, 8348.000
600.4540, 8342.144
601.6220, 8422.000
602.7890, 8332.000
603.9560, 8369.000
605.1230, 8385.000
606.2900, 8365.000
607.4570, 8391.000
608.6230, 8293.000
609.7890, 8445.000
610.9560, 8285.000
612.1220, 8527.000
613.2870, 8448.000
614.4530, 8439.000
615.6180, 8436.000
616.7840, 8538.000
617.9490, 8694.000
619.1140, 8557.000
620.2790, 8773.000
621.4430, 8717.000
622.6080, 8963.000
623.7720, 9011.000
624.9360, 8925.000
626.1000, 9228.000
627.2640, 9267.000
628.4270, 9085.000
629.5910, 9262.000
630.7540, 9200.000
631.9170, 9440.000
633.0800, 9344.000
634.2430, 9539.000
635.4050, 9519.000
636.5680, 9634.000
637.7300, 9865.000
638.8920, 10131.00
640.0540, 10151.00
641.2150, 10573.00
642.3770, 10793.00
643.5380, 11293.00
644.7000, 11596.00
645.8610, 12268.00
647.0210, 12807.00
648.1820, 13509.00
649.3430, 14291.00
650.5030, 15552.00
651.6630, 16824.00
652.8230, 18618.00
653.9830, 20890.00
655.1430, 22937.00
656.3020, 26011.00
657.4620, 28702.00
658.6210, 31585.00
659.7800, 34417.00
660.9390, 37452.00
662.0970, 39612.00
663.2560, 40633.00
664.4140, 40527.00
665.5720, 39195.00
666.7300, 36979.00
667.8880, 33730.00
669.0460, 31288.00
670.2030, 29055.00
671.3600, 27950.00
672.5180, 27715.00
673.6740, 28113.00
674.8310, 29414.00
675.9880, 31105.00
677.1440, 33478.00
678.3010, 36468.00
679.4570, 39470.00
680.6130, 42283.00
681.7690, 45503.00
682.9240, 47632.00
684.0800, 49412.00
685.2350, 49732.00
686.3900, 48446.00
687.5450, 45365.00
688.7000, 40918.00
689.8540, 36279.00
691.0090, 31561.00
692.1630, 27180.00
693.3170, 23855.00
694.4710, 20953.00
695.6250, 18568.00
696.7780, 16893.00
697.9320, 15424.00
699.0850, 14598.00
700.2380, 13652.00
701.3910, 13022.00
702.5440, 12350.00
703.6970, 11970.00
704.8490, 11574.00
706.0010, 11247.00
707.1530, 11059.00
708.3050, 10805.00
709.4570, 10644.00
710.6090, 10533.00
711.7600, 10242.00
712.9110, 10096.00
714.0620, 10011.00
715.2130, 9989.000
716.3640, 9854.000
717.5150, 9740.000
718.6650, 9651.000
719.8150, 9528.000
720.9650, 9436.000
722.1150, 9448.000
723.2650, 9312.000
724.4150, 9378.000
725.5640, 9298.000
726.7130, 9286.000
727.8630, 9311.000
729.0110, 9237.000
730.1600, 9166.000
731.3090, 9119.000
732.4570, 9178.000
733.6060, 9177.000
734.7540, 9219.000
735.9020, 9152.000
737.0490, 9232.000
738.1970, 9035.000
739.3440, 9175.000
740.4920, 8980.000
741.6390, 9013.000
742.7860, 9123.000
743.9320, 9034.000
745.0790, 9060.000
746.2250, 9153.000
747.3720, 9007.000
748.5180, 9189.000
749.6640, 9152.000
750.8100, 8999.000
751.9550, 9122.000
753.1010, 9055.000
754.2460, 9056.000
755.3910, 9058.000
756.5360, 8975.000
757.6810, 9046.000
758.8250, 8974.000
759.9700, 8969.000
761.1140, 8906.000
762.2580, 8972.000
763.4020, 8992.000
764.5460, 8953.000
765.6900, 8955.000
766.8330, 9011.000
767.9760, 9127.000
769.1200, 8961.000
770.2620, 9082.000
771.4050, 8934.000
772.5480, 8981.000
773.6900, 9065.000
774.8330, 8993.000
775.9750, 9069.000
777.1170, 9039.000
778.2590, 9055.000
779.4000, 8993.000
780.5420, 8920.000
781.6830, 8970.000
782.8240, 9095.000
783.9650, 8938.000
785.1060, 9141.000
786.2470, 9025.000
787.3870, 9053.000
788.5280, 9043.000
789.6680, 9017.000
790.8080, 9183.000
791.9480, 9088.000
793.0870, 9071.000
794.2270, 9140.000
795.3660, 9037.000
796.5060, 9131.000
797.6450, 9165.000
798.7830, 9110.000
799.9220, 9140.000
801.0610, 8985.000
802.1990, 9048.000
803.3370, 9088.000
804.4750, 9139.000
805.6130, 9244.000
806.7510, 9135.000
807.8890, 9122.000
809.0260, 9252.000
810.1630, 9191.000
811.3000, 9114.000
812.4370, 9144.000
813.5740, 9123.000
814.7110, 9202.000
815.8470, 9215.000
816.9830, 9302.000
818.1190, 9293.000
819.2550, 9318.375
820.3910, 9261.000
821.5270, 9329.000
822.6620, 9285.000
823.7970, 9280.000
824.9330, 9269.000
826.0670, 9269.000
827.2020, 9327.000
828.3370, 9359.000
829.4710, 9473.000
830.6060, 9479.000
831.7400, 9476.000
832.8740, 9588.000
834.0080, 9423.000
835.1410, 9498.000
836.2750, 9464.000
837.4080, 9576.000
838.5410, 9635.000
839.6740, 9639.000
840.8070, 9677.000
841.9400, 9896.000
843.0730, 9868.000
844.2050, 10097.00
845.3370, 10214.00
846.4690, 10272.00
847.6010, 10456.00
848.7330, 10772.00
849.8640, 10929.00
850.9960, 11461.00
852.1270, 11885.00
853.2580, 12128.00
854.3890, 12568.00
855.5200, 12894.00
856.6500, 13122.00
857.7810, 13189.00
858.9110, 12911.00
860.0410, 12830.00
861.1710, 12527.00
862.3010, 12233.00
863.4310, 11925.00
864.5600, 11670.77
865.6900, 11348.00
866.8190, 11213.00
867.9480, 10953.06
869.0770, 10819.77
870.2050, 10581.00
871.3340, 10496.00
872.4620, 10328.00
873.5900, 10115.00
874.7180, 10094.00
875.8460, 10082.00
876.9740, 10024.00
878.1010, 9975.000
879.2290, 9933.000
880.3560, 9856.000
881.4830, 9893.000
882.6100, 9963.000
883.7370, 9936.000
884.8630, 9881.000
885.9900, 9927.000
887.1160, 9829.000
888.2420, 9809.000
889.3680, 9907.000
890.4940, 9843.000
891.6200, 9849.000
892.7450, 9842.000
893.8700, 9898.000
894.9960, 9836.000
896.1210, 9927.000
897.2460, 9911.000
898.3700, 9928.000
899.4950, 9953.000
900.6190, 9937.278
901.7430, 9937.127
902.8670, 9930.000
903.9910, 9900.000
905.1150, 9904.000
906.2390, 9875.000
907.3620, 9926.000
908.4850, 9981.000
909.6080, 9911.000
910.7310, 9949.000
911.8540, 10027.00
912.9770, 9958.000
914.0990, 9833.000
915.2210, 10098.00
916.3440, 9966.000
917.4660, 10070.00
918.5870, 9970.000
919.7090, 10048.00
920.8310, 10084.00
921.9520, 10148.00
923.0730, 10199.00
924.1940, 10240.00
925.3150, 10367.00
926.4360, 10433.00
927.5560, 10551.00
928.6770, 10698.00
929.7970, 10635.00
930.9170, 10723.00
932.0370, 10701.00
933.1570, 10863.00
934.2760, 10953.00
935.3960, 10955.00
936.5150, 10975.00
937.6340, 10978.00
938.7530, 10810.00
939.8720, 10972.00
940.9910, 10740.00
942.1090, 10812.00
943.2280, 10659.00
944.3460, 10682.00
945.4640, 10446.00
946.5820, 10570.00
947.6990, 10552.00
948.8170, 10512.00
949.9340, 10388.00
951.0520, 10461.00
952.1690, 10530.00
953.2860, 10385.00
954.4030, 10434.00
955.5190, 10440.00
956.6360, 10343.00
957.7520, 10264.00
958.8680, 10360.00
959.9840, 10458.00
961.1000, 10393.00
962.2160, 10363.00
963.3310, 10197.00
964.4470, 10281.00
965.5620, 10475.00
966.6770, 10303.00
967.7920, 10422.00
968.9060, 10332.00
970.0210, 10411.00
971.1360, 10369.00
972.2500, 10409.00
973.3640, 10328.00
974.4780, 10404.00
975.5920, 10492.00
976.7050, 10306.00
977.8190, 10456.00
978.9320, 10470.00
980.0450, 10524.00
981.1580, 10599.00
982.2710, 10575.00
983.3840, 10618.00
984.4970, 10682.77
985.6090, 10761.00
986.7210, 10844.00
987.8330, 10965.00
988.9450, 11105.00
990.0570, 11274.00
991.1690, 11393.00
992.2800, 11583.00
993.3920, 11725.00
994.5030, 12034.00
995.6140, 12394.00
996.7250, 12849.00
997.8350, 13270.15
998.9460, 13766.68
1000.056, 14302.00
1001.167, 14851.00
1002.277, 15522.00
1003.387, 16167.74
1004.496, 16800.00
1005.606, 17564.00
1006.715, 18237.00
1007.825, 19048.00
1008.934, 19677.00
1010.043, 20186.00
1011.152, 20858.00
1012.260, 20739.00
1013.369, 20704.00
1014.477, 20597.00
1015.586, 20773.00
1016.694, 20629.00
1017.802, 20768.00
1018.909, 21136.00
1020.017, 21410.00
1021.124, 21556.00
1022.232, 21959.00
1023.339, 22176.00
1024.446, 22129.00
1025.553, 22349.00
1026.659, 22532.00
1027.766, 22433.00
1028.872, 22384.61
1029.979, 22152.17
1031.085, 21846.00
1032.191, 21335.00
1033.296, 20718.00
1034.402, 19925.00
1035.507, 19053.00
1036.613, 18033.00
1037.718, 17184.00
1038.823, 16526.00
1039.928, 15622.00
1041.032, 15063.00
1042.137, 14324.00
1043.241, 13695.00
1044.346, 13576.00
1045.450, 13027.00
1046.554, 12746.00
1047.657, 12469.00
1048.761, 12177.00
1049.864, 12007.00
1050.968, 11876.00
1052.071, 11809.00
1053.174, 11610.00
1054.277, 11421.00
1055.379, 11440.00
1056.482, 11407.00
1057.584, 11293.00
1058.687, 11172.00
1059.789, 11122.00
1060.891, 11177.00
1061.992, 11185.00
1063.094, 11134.00
1064.196, 11028.00
1065.297, 11016.00
1066.398, 10980.00
1067.499, 11032.00
1068.600, 10914.00
1069.701, 10989.00
1070.801, 10935.00
1071.902, 10987.00
1073.002, 10925.00
1074.102, 10887.00
1075.202, 10943.00
1076.302, 10879.00
1077.402, 10879.00
1078.501, 11009.00
1079.600, 10889.00
1080.700, 11014.00
1081.799, 10793.00
1082.898, 10908.00
1083.996, 10909.00
1085.095, 10909.00
1086.193, 10827.00
1087.292, 10829.00
1088.390, 10967.00
1089.488, 10871.00
1090.586, 10893.00
1091.683, 10852.00
1092.781, 10807.00
1093.878, 10949.00
1094.975, 10957.00
1096.073, 10892.00
1097.169, 10958.00
1098.266, 10849.00
1099.363, 10784.00
1100.459, 10891.00
1101.556, 11010.00
1102.652, 10869.00
1103.748, 10798.00
1104.844, 10874.00
1105.940, 10950.00
1107.035, 10915.00
1108.131, 10914.00
1109.226, 10914.00
1110.321, 11056.00
1111.416, 10898.00
1112.511, 11011.00
1113.605, 10998.00
1114.700, 11206.00
1115.794, 11041.00
1116.889, 11111.00
1117.983, 11149.00
1119.077, 11141.00
1120.170, 11293.00
1121.264, 11306.00
1122.357, 11278.00
1123.451, 11152.00
1124.544, 11138.00
1125.637, 11118.00
1126.730, 11131.00
1127.823, 10991.00
1128.915, 10971.00
1130.008, 11031.00
1131.100, 10993.00
1132.192, 11041.00
1133.284, 10915.00
1134.376, 11052.00
1135.467, 10981.00
1136.559, 11103.00
1137.650, 10988.00
1138.742, 11049.00
1139.833, 10977.00
1140.924, 11004.00
1142.014, 11036.00
1143.105, 10947.00
1144.195, 11042.00
1145.286, 11032.00
1146.376, 10945.00
1147.466, 10945.00
1148.556, 11026.00
1149.646, 11049.00
1150.735, 10942.00
1151.825, 10899.00
1152.914, 10911.97
1154.003, 10848.00
1155.092, 10929.00
1156.181, 10990.00
1157.270, 11003.00
1158.358, 10871.00
1159.447, 10947.00
1160.535, 11095.00
1161.623, 10975.00
1162.711, 11054.00
1163.799, 11009.00
1164.886, 11067.00
1165.974, 11083.00
1167.061, 11025.00
1168.148, 10930.00
1169.235, 10996.00
1170.322, 10972.00
1171.409, 10971.48
1172.496, 11020.00
1173.582, 11010.00
1174.669, 11107.00
1175.755, 11167.00
1176.841, 10966.00
1177.927, 11111.00
1179.012, 11002.00
1180.098, 11023.00
1181.183, 10989.00
1182.269, 11058.00
1183.354, 11079.00
1184.439, 10989.00
1185.524, 10930.00
1186.608, 11156.00
1187.693, 11049.00
1188.777, 11012.00
1189.862, 11056.00
1190.946, 10897.00
1192.030, 10960.00
1193.113, 10881.00
1194.197, 10962.00
1195.281, 10967.00
1196.364, 10868.00
1197.447, 11032.00
1198.530, 10980.00
1199.613, 10987.00
1200.696, 10903.00
1201.779, 11107.00
1202.861, 10917.00
1203.944, 11055.00
1205.026, 11079.00
1206.108, 11103.00
1207.190, 11087.00
1208.271, 11110.00
1209.353, 11079.00
1210.435, 10984.00
1211.516, 11080.00
1212.597, 11004.00
1213.678, 11061.00
1214.759, 11195.00
1215.840, 10927.00
1216.920, 11036.00
1218.001, 11178.00
1219.081, 11100.00
1220.161, 10971.00
1221.241, 10905.00
1222.321, 11073.00
1223.401, 11084.00
1224.480, 11018.00
1225.560, 11105.00
1226.639, 11052.00
1227.718, 11087.00
1228.797, 11119.00
1229.876, 11129.00
1230.955, 11160.00
1232.033, 11126.00
1233.112, 11155.00
1234.190, 11128.00
1235.268, 11230.00
1236.346, 11141.00
1237.424, 11096.00
1238.501, 11285.00
1239.579, 11119.00
1240.656, 11235.00
1241.733, 11117.00
1242.811, 11130.00
1243.888, 11196.00
1244.964, 11343.00
1246.041, 11183.00
1247.117, 11236.00
1248.194, 11275.00
1249.270, 11097.00
1250.346, 11221.00
1251.422, 11153.00
1252.498, 11266.00
1253.573, 11253.00
1254.649, 11353.00
1255.724, 11250.00
1256.800, 11272.00
1257.875, 11420.00
1258.950, 11357.00
1260.024, 11363.00
1261.099, 11317.00
1262.173, 11270.00
1263.248, 11345.00
1264.322, 11312.00
1265.396, 11274.00
1266.470, 11486.00
1267.544, 11262.00
1268.617, 11446.00
1269.691, 11396.00
1270.764, 11393.00
1271.837, 11352.00
1272.910, 11480.00
1273.983, 11451.79
1275.056, 11418.00
1276.129, 11505.00
1277.201, 11424.00
1278.273, 11456.00
1279.346, 11394.00
1280.418, 11487.00
1281.489, 11503.00
1282.561, 11463.00
1283.633, 11499.00
1284.704, 11519.00
1285.776, 11580.00
1286.847, 11450.00
1287.918, 11664.00
1288.989, 11466.00
1290.059, 11488.00
1291.130, 11480.00
1292.200, 11654.00
1293.271, 11537.00
1294.341, 11649.00
1295.411, 11500.00
1296.481, 11625.00
1297.551, 11572.00
1298.620, 11622.00
1299.690, 11689.00
1300.759, 11706.00
1301.828, 11578.00
1302.897, 11671.00
1303.966, 11478.00
1305.035, 11775.00
1306.103, 11536.00
1307.172, 11674.00
1308.240, 11743.00
1309.308, 11854.00
1310.376, 11752.00
1311.444, 11851.00
1312.512, 11690.00
1313.580, 11794.00
1314.647, 11840.00
1315.714, 11842.00
1316.781, 11924.00
1317.848, 11900.00
1318.915, 11984.00
1319.982, 11863.00
1321.049, 11747.00
1322.115, 11867.00
1323.181, 11834.00
1324.248, 11890.00
1325.314, 11749.00
1326.380, 11765.00
1327.445, 11775.00
1328.511, 11942.00
1329.576, 11950.00
1330.642, 11707.00
1331.707, 11812.00
1332.772, 11660.00
1333.837, 11892.00
1334.902, 11736.00
1335.966, 11693.00
1337.031, 11829.00
1338.095, 11906.00
1339.159, 11837.00
1340.223, 11900.15
1341.287, 11812.00
1342.351, 11880.00
1343.415, 11756.00
1344.478, 11746.00
1345.541, 11726.00
1346.605, 11825.00
1347.668, 11899.00
1348.731, 11751.00
1349.793, 11970.00
1350.856, 11816.00
1351.918, 11840.00
1352.981, 11951.00
1354.043, 11899.00
1355.105, 11854.00
1356.167, 11936.00
1357.229, 11886.00
1358.290, 11891.00
1359.352, 11892.00
1360.413, 11891.56
1361.475, 11924.00
1362.536, 11933.00
1363.597, 11995.00
1364.657, 12041.00
1365.718, 11981.00
1366.779, 11979.00
1367.839, 12059.00
1368.899, 11948.00
1369.959, 11971.00
1371.019, 12074.00
1372.079, 12028.00
1373.139, 12083.00
1374.198, 12016.00
1375.258, 12030.00
1376.317, 12004.00
1377.376, 11964.00
1378.435, 12064.00
1379.494, 11954.00
1380.553, 12168.00
1381.611, 12161.00
1382.670, 12123.00
1383.728, 12073.00
1384.786, 12233.00
1385.844, 12177.00
1386.902, 12156.00
1387.960, 12155.00
1389.017, 12119.00
1390.075, 12246.00
1391.132, 12118.00
1392.189, 12293.00
1393.246, 12133.00
1394.303, 12092.00
1395.360, 12021.00
1396.417, 12045.93
1397.473, 12113.00
1398.529, 12145.00
1399.585, 12197.00
1400.642, 12193.00
1401.697, 12177.00
1402.753, 12294.00
1403.809, 12254.00
1404.864, 12190.00
1405.920, 12354.00
1406.975, 12246.00
1408.030, 12165.00
1409.085, 12266.00
1410.140, 12430.00
1411.194, 12322.00
1412.249, 12317.00
1413.303, 12153.00
1414.358, 12304.00
1415.412, 12195.00
1416.466, 12289.00
1417.520, 12390.00
1418.573, 12187.00
1419.627, 12393.00
1420.680, 12484.00
1421.733, 12292.00
1422.787, 12293.00
1423.840, 12302.00
1424.892, 12390.00
1425.945, 12367.00
1426.998, 12435.00
1428.050, 12452.14
1429.103, 12352.00
1430.155, 12497.00
1431.207, 12438.00
1432.259, 12469.00
1433.310, 12558.00
1434.362, 12529.00
1435.414, 12563.00
1436.465, 12693.00
1437.516, 12658.00
1438.567, 12634.00
1439.618, 12606.00
1440.669, 12630.00
1441.720, 12697.00
1442.770, 12836.00
1443.820, 12825.00
1444.871, 12956.00
1445.921, 12986.00
1446.971, 12973.00
1448.021, 12855.00
1449.070, 13027.00
1450.120, 12942.00
1451.169, 12930.00
1452.219, 13101.00
1453.268, 13133.00
1454.317, 13140.00
1455.366, 13026.00
1456.414, 13114.00
1457.463, 13050.00
1458.511, 13151.00
1459.560, 13023.00
1460.608, 12981.00
1461.656, 12936.00
1462.704, 12921.00
1463.752, 12864.00
1464.799, 12987.00
1465.847, 12906.00
1466.894, 12912.00
1467.941, 12815.00
1468.988, 12818.00
1470.035, 12923.00
1471.082, 12865.00
1472.129, 12889.00
1473.175, 12866.00
1474.222, 12829.00
1475.268, 12720.00
1476.314, 12721.00
1477.360, 12797.00
1478.406, 12897.00
1479.452, 12986.00
1480.498, 12977.56
1481.543, 13023.00
1482.588, 12969.00
1483.633, 12874.00
1484.679, 12923.00
1485.723, 12895.00
1486.768, 12972.00
1487.813, 12856.00
1488.857, 12802.00
1489.902, 12776.00
1490.946, 12833.00
1491.990, 12842.00
1493.034, 12853.00
1494.078, 12580.00
1495.122, 12846.00
1496.165, 12642.00
1497.209, 12845.00
1498.252, 12724.00
1499.295, 12840.00
1500.338, 12829.00
1501.381, 12707.00
1502.424, 12711.00
1503.466, 12742.00
1504.509, 12841.00
1505.551, 12718.00
1506.593, 12913.00
1507.635, 12831.00
1508.677, 12626.00
1509.719, 12925.00
1510.761, 12750.00
1511.802, 12861.00
1512.844, 12773.00
1513.885, 12804.00
1514.926, 12805.00
1515.967, 12667.00
1517.008, 12780.00
1518.049, 12697.00
1519.089, 12827.00
1520.130, 12792.00
1521.170, 12922.00
1522.210, 12827.00
1523.250, 12702.00
1524.290, 12854.00
1525.330, 12878.00
1526.370, 12905.00
1527.409, 12816.00
1528.448, 12918.00
1529.488, 12981.00
1530.527, 12951.00
1531.566, 13005.00
1532.605, 12921.00
1533.643, 13027.00
1534.682, 13027.00
1535.720, 12950.00
1536.759, 13037.00
1537.797, 13025.00
1538.835, 12800.00
1539.873, 12999.00
1540.910, 12932.00
1541.948, 13069.00
1542.986, 13019.00
1544.023, 13007.00
1545.060, 13058.00
1546.097, 13025.00
1547.134, 13025.00
1548.171, 13001.00
1549.208, 13066.00
1550.244, 13040.00
1551.281, 13002.00
1552.317, 13023.00
1553.353, 13156.00
1554.389, 13202.00
1555.425, 13299.00
1556.461, 13079.00
1557.497, 13303.00
1558.532, 13113.00
1559.567, 13034.00
1560.603, 13039.00
1561.638, 13061.00
1562.673, 13022.00
1563.708, 13155.00
##END=



