##NAMES=Enstatite
##RRUFFID=R070550
##IDEAL CHEMISTRY=MgSiO_3_
##LOCALITY=Tanzania
##OWNER=RRUFF
##SOURCE=www.multicolour.com
##DESCRIPTION=Brown, translucent, vitreous crystal fragment
##STATUS=The identification of this mineral has been confirmed by X-ray diffraction and chemical analysis
##URL=rruff.info/R070550
##MEASURED CHEMISTRY=(Mg_0.90_Fe_0.10_)_Î£=1_Si_1.00_O_3_
##PIN_ID=L01679
##ORIENTATION=Laser parallel to c* (0 0 1). Fiducial mark perpendicular to laser is parallel to a [1 0 0]
112.8890, 960.0000
114.1310, 1053.000
115.3720, 1090.000
116.6130, 1062.000
117.8540, 1116.000
119.0950, 1116.000
120.3360, 1099.000
121.5760, 1198.000
122.8160, 1229.000
124.0560, 1290.000
125.2960, 1277.000
126.5350, 1303.000
127.7750, 1362.000
129.0140, 1501.000
130.2530, 1516.000
131.4920, 1544.000
132.7300, 1552.000
133.9690, 1595.000
135.2070, 1592.000
136.4450, 1654.000
137.6830, 1717.000
138.9210, 1797.000
140.1580, 1808.000
141.3950, 1820.000
142.6330, 1881.000
143.8690, 1948.000
145.1060, 2008.000
146.3430, 2049.000
147.5790, 2142.000
148.8150, 2136.000
150.0510, 2152.000
151.2870, 2188.000
152.5220, 2143.000
153.7580, 2171.000
154.9930, 2060.000
156.2280, 2027.000
157.4620, 1990.000
158.6970, 1963.000
159.9310, 1938.000
161.1660, 1897.000
162.4000, 1932.000
163.6330, 1891.000
164.8670, 1865.000
166.1000, 1863.000
167.3340, 1760.000
168.5670, 1764.000
169.8000, 1742.000
171.0320, 1770.000
172.2650, 1724.000
173.4970, 1707.000
174.7290, 1707.000
175.9610, 1730.000
177.1930, 1737.000
178.4240, 1837.000
179.6550, 1850.000
180.8870, 2035.000
182.1170, 2175.000
183.3480, 2359.000
184.5790, 2583.095
185.8090, 2815.649
187.0390, 3067.000
188.2690, 3370.000
189.4990, 3643.000
190.7290, 3959.000
191.9580, 3964.000
193.1870, 4055.000
194.4160, 3954.000
195.6450, 3767.000
196.8740, 3573.000
198.1020, 3371.000
199.3310, 3161.000
200.5590, 3088.000
201.7870, 2966.000
203.0140, 2779.000
204.2420, 2706.000
205.4690, 2627.000
206.6960, 2512.000
207.9230, 2378.000
209.1500, 2347.000
210.3760, 2305.000
211.6030, 2221.000
212.8290, 2221.000
214.0550, 2231.000
215.2810, 2209.000
216.5060, 2207.000
217.7320, 2311.000
218.9570, 2302.000
220.1820, 2413.000
221.4070, 2548.000
222.6320, 2674.000
223.8560, 2831.000
225.0800, 3135.000
226.3040, 3467.000
227.5280, 3978.000
228.7520, 4371.000
229.9760, 4902.000
231.1990, 5505.000
232.4220, 6343.000
233.6450, 7150.000
234.8680, 7940.000
236.0910, 8279.000
237.3130, 8235.000
238.5350, 7720.000
239.7570, 7033.000
240.9790, 5957.000
242.2010, 5007.000
243.4220, 4072.000
244.6430, 3307.000
245.8640, 2874.000
247.0850, 2647.000
248.3060, 2375.000
249.5270, 2275.000
250.7470, 2205.000
251.9670, 2231.000
253.1870, 2316.000
254.4070, 2261.000
255.6260, 2318.000
256.8460, 2312.000
258.0650, 2348.000
259.2840, 2339.489
260.5030, 2397.000
261.7220, 2301.000
262.9400, 2245.000
264.1580, 2201.000
265.3760, 2252.000
266.5940, 2333.000
267.8120, 2406.000
269.0290, 2549.000
270.2470, 2661.359
271.4640, 2745.000
272.6810, 2901.000
273.8980, 2924.000
275.1140, 2945.000
276.3310, 2905.000
277.5470, 2802.000
278.7630, 2633.000
279.9790, 2479.000
281.1940, 2380.000
282.4100, 2262.000
283.6250, 2191.000
284.8400, 2179.000
286.0550, 2175.000
287.2700, 2246.000
288.4850, 2295.000
289.6990, 2447.000
290.9130, 2556.000
292.1270, 2733.000
293.3410, 2956.000
294.5540, 3136.000
295.7680, 3342.000
296.9810, 3606.000
298.1940, 3784.000
299.4070, 3742.000
300.6200, 3723.000
301.8320, 3650.000
303.0450, 3457.000
304.2570, 3316.000
305.4690, 3202.000
306.6800, 3169.001
307.8920, 3074.000
309.1030, 3251.000
310.3150, 3409.000
311.5260, 3604.000
312.7360, 3993.000
313.9470, 4364.000
315.1580, 4763.000
316.3680, 5265.000
317.5780, 5874.000
318.7880, 6310.000
319.9980, 6566.000
321.2070, 6813.000
322.4170, 6900.000
323.6260, 6943.000
324.8350, 6912.000
326.0430, 6957.000
327.2520, 7328.000
328.4610, 7858.000
329.6690, 8627.000
330.8770, 9626.000
332.0850, 10800.00
333.2920, 12348.00
334.5000, 13984.00
335.7070, 15879.00
336.9140, 17841.00
338.1210, 19634.00
339.3280, 21199.00
340.5350, 22174.00
341.7410, 22011.00
342.9470, 20745.00
344.1540, 19323.00
345.3590, 17097.00
346.5650, 14657.00
347.7710, 12414.00
348.9760, 10455.00
350.1810, 8968.000
351.3860, 7601.000
352.5910, 6722.000
353.7950, 5940.000
355.0000, 5464.000
356.2040, 4869.000
357.4080, 4558.000
358.6120, 4287.000
359.8150, 4073.000
361.0190, 3930.000
362.2220, 3767.000
363.4250, 3642.000
364.6280, 3602.000
365.8310, 3557.000
367.0340, 3565.000
368.2360, 3584.000
369.4380, 3607.000
370.6400, 3753.000
371.8420, 3867.000
373.0440, 4081.000
374.2450, 4293.000
375.4470, 4639.000
376.6480, 4907.000
377.8490, 5210.000
379.0490, 5536.000
380.2500, 5731.000
381.4500, 5849.000
382.6510, 5924.000
383.8510, 5852.002
385.0500, 5778.000
386.2500, 5652.000
387.4500, 5667.000
388.6490, 5741.000
389.8480, 5913.000
391.0470, 6118.000
392.2460, 6544.000
393.4440, 7038.000
394.6430, 7425.000
395.8410, 8026.000
397.0390, 8321.000
398.2370, 8581.000
399.4340, 8631.000
400.6320, 8411.000
401.8290, 8289.000
403.0260, 7988.000
404.2230, 7630.000
405.4200, 7411.000
406.6170, 7096.000
407.8130, 6946.000
409.0090, 6658.000
410.2050, 6575.000
411.4010, 6589.000
412.5970, 6600.000
413.7920, 6378.000
414.9880, 6362.000
416.1830, 6220.000
417.3780, 5927.000
418.5730, 5586.000
419.7670, 5240.000
420.9620, 4942.000
422.1560, 4415.000
423.3500, 4115.000
424.5440, 3703.000
425.7380, 3426.000
426.9310, 3107.000
428.1240, 2855.000
429.3180, 2600.000
430.5110, 2484.000
431.7030, 2436.000
432.8960, 2299.000
434.0890, 2273.000
435.2810, 2231.000
436.4730, 2178.000
437.6650, 2164.000
438.8570, 2134.190
440.0480, 2161.000
441.2390, 2115.000
442.4310, 2119.000
443.6220, 2139.000
444.8120, 2122.000
446.0030, 2109.000
447.1940, 2159.000
448.3840, 2168.000
449.5740, 2162.000
450.7640, 2263.000
451.9540, 2271.000
453.1430, 2348.000
454.3330, 2414.000
455.5220, 2425.000
456.7110, 2430.000
457.9000, 2379.000
459.0890, 2298.000
460.2770, 2249.000
461.4650, 2267.000
462.6540, 2165.000
463.8420, 2209.000
465.0290, 2133.000
466.2170, 2142.000
467.4050, 2150.000
468.5920, 2256.000
469.7790, 2182.000
470.9660, 2229.000
472.1530, 2248.000
473.3390, 2211.000
474.5250, 2158.000
475.7120, 2151.000
476.8980, 2109.419
478.0840, 2067.550
479.2690, 2062.029
480.4550, 2097.000
481.6400, 2099.000
482.8250, 2099.000
484.0100, 2062.000
485.1950, 2086.000
486.3800, 2047.000
487.5640, 2092.000
488.7480, 1948.000
489.9320, 2039.000
491.1160, 1964.000
492.3000, 1891.000
493.4840, 1899.000
494.6670, 1861.000
495.8500, 1899.000
497.0330, 1860.000
498.2160, 1900.000
499.3990, 1871.000
500.5810, 1898.000
501.7630, 1881.000
502.9460, 1938.000
504.1280, 1915.000
505.3090, 1975.000
506.4910, 2010.000
507.6720, 2109.000
508.8540, 2133.000
510.0350, 2263.000
511.2160, 2433.000
512.3960, 2501.000
513.5770, 2650.000
514.7570, 2850.000
515.9380, 3102.000
517.1180, 3208.000
518.2970, 3437.000
519.4770, 3601.000
520.6570, 3777.000
521.8360, 3994.000
523.0150, 4048.000
524.1940, 4177.000
525.3730, 4189.035
526.5510, 4229.000
527.7300, 4088.000
528.9080, 4007.000
530.0860, 3820.000
531.2640, 3781.000
532.4420, 3747.000
533.6200, 3825.000
534.7970, 3963.000
535.9740, 4180.000
537.1510, 4411.000
538.3280, 4405.000
539.5050, 4435.000
540.6810, 4275.000
541.8580, 4066.000
543.0340, 3869.000
544.2100, 3721.000
545.3860, 3595.000
546.5610, 3526.000
547.7370, 3554.000
548.9120, 3582.000
550.0870, 3543.000
551.2620, 3421.000
552.4370, 3364.000
553.6120, 3146.000
554.7860, 3059.000
555.9600, 2889.000
557.1340, 2803.000
558.3080, 2736.000
559.4820, 2613.000
560.6560, 2635.000
561.8290, 2571.000
563.0020, 2543.000
564.1750, 2528.000
565.3480, 2619.000
566.5210, 2696.000
567.6930, 2803.000
568.8660, 2903.000
570.0380, 3062.000
571.2100, 3246.000
572.3820, 3397.000
573.5530, 3561.000
574.7250, 3659.000
575.8960, 3837.000
577.0670, 3916.000
578.2380, 3818.000
579.4090, 3736.000
580.5800, 3517.000
581.7500, 3326.000
582.9210, 3037.000
584.0910, 2913.000
585.2610, 2765.000
586.4300, 2641.000
587.6000, 2619.000
588.7690, 2522.000
589.9390, 2560.000
591.1080, 2503.000
592.2770, 2482.000
593.4450, 2387.000
594.6140, 2386.000
595.7820, 2374.000
596.9500, 2248.000
598.1190, 2172.000
599.2860, 2182.000
600.4540, 2149.000
601.6220, 2110.000
602.7890, 2057.000
603.9560, 2070.000
605.1230, 2054.000
606.2900, 2073.000
607.4570, 2094.000
608.6230, 2067.000
609.7890, 2053.000
610.9560, 2034.000
612.1220, 2035.115
613.2870, 2075.000
614.4530, 2063.000
615.6180, 2068.000
616.7840, 2118.000
617.9490, 2192.000
619.1140, 2126.000
620.2790, 2191.000
621.4430, 2223.000
622.6080, 2194.000
623.7720, 2250.000
624.9360, 2285.000
626.1000, 2363.000
627.2640, 2364.000
628.4270, 2412.326
629.5910, 2402.000
630.7540, 2478.000
631.9170, 2482.000
633.0800, 2523.000
634.2430, 2612.000
635.4050, 2684.000
636.5680, 2755.000
637.7300, 2822.000
638.8920, 2925.000
640.0540, 3050.000
641.2150, 3188.000
642.3770, 3297.000
643.5380, 3509.000
644.7000, 3821.000
645.8610, 3998.000
647.0210, 4280.000
648.1820, 4723.000
649.3430, 5175.000
650.5030, 5879.000
651.6630, 6612.000
652.8230, 7634.000
653.9830, 8924.000
655.1430, 10193.00
656.3020, 11865.00
657.4620, 13556.00
658.6210, 15298.00
659.7800, 17215.00
660.9390, 18565.00
662.0970, 19329.00
663.2560, 19490.00
664.4140, 18625.00
665.5720, 17562.00
666.7300, 16058.00
667.8880, 14647.00
669.0460, 13490.00
670.2030, 12728.00
671.3600, 12157.00
672.5180, 12319.00
673.6740, 12862.00
674.8310, 13941.00
675.9880, 15136.00
677.1440, 16754.00
678.3010, 18871.00
679.4570, 20883.00
680.6130, 22953.00
681.7690, 24815.00
682.9240, 26011.00
684.0800, 26354.00
685.2350, 25811.00
686.3900, 24312.00
687.5450, 21948.00
688.7000, 19159.00
689.8540, 16459.00
691.0090, 13689.00
692.1630, 11503.00
693.3170, 9685.000
694.4710, 8205.000
695.6250, 7009.000
696.7780, 6249.000
697.9320, 5491.000
699.0850, 4968.000
700.2380, 4469.000
701.3910, 4100.000
702.5440, 3848.000
703.6970, 3652.000
704.8490, 3431.000
706.0010, 3212.000
707.1530, 3048.000
708.3050, 3011.000
709.4570, 2852.000
710.6090, 2811.000
711.7600, 2759.000
712.9110, 2635.000
714.0620, 2554.000
715.2130, 2513.000
716.3640, 2456.000
717.5150, 2432.000
718.6650, 2403.000
719.8150, 2342.000
720.9650, 2310.000
722.1150, 2323.000
723.2650, 2290.000
724.4150, 2257.000
725.5640, 2271.000
726.7130, 2248.000
727.8630, 2255.000
729.0110, 2181.000
730.1600, 2166.000
731.3090, 2197.000
732.4570, 2157.000
733.6060, 2072.000
734.7540, 2032.000
735.9020, 2044.000
737.0490, 2048.000
738.1970, 2049.000
739.3440, 2040.000
740.4920, 2001.000
741.6390, 2022.000
742.7860, 1988.000
743.9320, 2061.000
745.0790, 2084.000
746.2250, 2039.000
747.3720, 2030.000
748.5180, 2016.000
749.6640, 2063.000
750.8100, 1982.000
751.9550, 1998.000
753.1010, 2002.000
754.2460, 1955.000
755.3910, 1943.000
756.5360, 1950.000
757.6810, 1906.000
758.8250, 1937.000
759.9700, 1903.000
761.1140, 1887.000
762.2580, 1924.000
763.4020, 1888.000
764.5460, 1888.000
765.6900, 1864.000
766.8330, 1860.000
767.9760, 1882.000
769.1200, 1864.000
770.2620, 1852.000
771.4050, 1831.000
772.5480, 1852.000
773.6900, 1809.000
774.8330, 1830.000
775.9750, 1816.000
777.1170, 1877.000
778.2590, 1889.000
779.4000, 1873.000
780.5420, 1822.000
781.6830, 1818.000
782.8240, 1868.000
783.9650, 1836.000
785.1060, 1877.000
786.2470, 1841.000
787.3870, 1836.000
788.5280, 1877.000
789.6680, 1827.000
790.8080, 1837.000
791.9480, 1798.000
793.0870, 1822.000
794.2270, 1784.000
795.3660, 1792.000
796.5060, 1842.000
797.6450, 1842.000
798.7830, 1868.000
799.9220, 1837.000
801.0610, 1877.000
802.1990, 1812.000
803.3370, 1794.000
804.4750, 1899.000
805.6130, 1835.000
806.7510, 1840.000
807.8890, 1872.000
809.0260, 1875.000
810.1630, 1863.000
811.3000, 1882.000
812.4370, 1851.000
813.5740, 1851.000
814.7110, 1901.000
815.8470, 1891.000
816.9830, 1880.000
818.1190, 1932.000
819.2550, 1874.000
820.3910, 1907.000
821.5270, 1896.000
822.6620, 1875.000
823.7970, 1941.000
824.9330, 1900.000
826.0670, 1926.000
827.2020, 1977.000
828.3370, 1917.000
829.4710, 1955.000
830.6060, 1938.000
831.7400, 1960.000
832.8740, 1958.789
834.0080, 1956.000
835.1410, 1965.000
836.2750, 1965.000
837.4080, 1995.000
838.5410, 1965.000
839.6740, 2063.000
840.8070, 2022.000
841.9400, 2065.000
843.0730, 2032.000
844.2050, 2096.000
845.3370, 2094.000
846.4690, 2156.000
847.6010, 2161.000
848.7330, 2283.000
849.8640, 2363.000
850.9960, 2396.000
852.1270, 2548.000
853.2580, 2643.000
854.3890, 2676.000
855.5200, 2710.000
856.6500, 2764.000
857.7810, 2698.000
858.9110, 2713.000
860.0410, 2633.000
861.1710, 2608.000
862.3010, 2481.000
863.4310, 2411.000
864.5600, 2352.000
865.6900, 2306.000
866.8190, 2279.000
867.9480, 2263.000
869.0770, 2254.000
870.2050, 2194.000
871.3340, 2173.000
872.4620, 2176.000
873.5900, 2120.000
874.7180, 2137.000
875.8460, 2141.000
876.9740, 2102.000
878.1010, 2092.000
879.2290, 2111.428
880.3560, 2131.000
881.4830, 2151.000
882.6100, 2126.000
883.7370, 2127.000
884.8630, 2188.000
885.9900, 2177.000
887.1160, 2231.000
888.2420, 2235.000
889.3680, 2221.000
890.4940, 2243.000
891.6200, 2237.750
892.7450, 2240.148
893.8700, 2249.000
894.9960, 2251.000
896.1210, 2267.000
897.2460, 2268.686
898.3700, 2277.049
899.4950, 2282.000
900.6190, 2290.000
901.7430, 2306.000
902.8670, 2312.000
903.9910, 2325.000
905.1150, 2277.000
906.2390, 2300.000
907.3620, 2294.000
908.4850, 2372.000
909.6080, 2378.000
910.7310, 2403.000
911.8540, 2502.000
912.9770, 2542.000
914.0990, 2607.000
915.2210, 2678.000
916.3440, 2853.000
917.4660, 2883.000
918.5870, 3095.000
919.7090, 3307.000
920.8310, 3429.000
921.9520, 3718.000
923.0730, 3960.000
924.1940, 4223.000
925.3150, 4537.000
926.4360, 4744.000
927.5560, 4897.000
928.6770, 5138.000
929.7970, 5264.000
930.9170, 5404.000
932.0370, 5586.000
933.1570, 5627.000
934.2760, 5788.000
935.3960, 5927.000
936.5150, 5934.000
937.6340, 6000.000
938.7530, 5822.000
939.8720, 5616.000
940.9910, 5315.000
942.1090, 5061.000
943.2280, 4669.000
944.3460, 4536.000
945.4640, 4205.000
946.5820, 4018.000
947.6990, 3701.000
948.8170, 3565.000
949.9340, 3358.000
951.0520, 3307.000
952.1690, 3250.000
953.2860, 3212.000
954.4030, 3147.924
955.5190, 3110.000
956.6360, 3021.000
957.7520, 3015.000
958.8680, 2941.000
959.9840, 2927.000
961.1000, 2881.000
962.2160, 2953.000
963.3310, 2909.000
964.4470, 2882.000
965.5620, 2966.000
966.6770, 2966.000
967.7920, 3031.000
968.9060, 2982.000
970.0210, 3035.000
971.1360, 3034.000
972.2500, 3092.000
973.3640, 3135.000
974.4780, 3181.000
975.5920, 3223.000
976.7050, 3284.000
977.8190, 3371.000
978.9320, 3449.000
980.0450, 3511.000
981.1580, 3626.000
982.2710, 3833.000
983.3840, 3869.000
984.4970, 4085.000
985.6090, 4320.000
986.7210, 4489.000
987.8330, 4736.000
988.9450, 5118.000
990.0570, 5356.000
991.1690, 5883.000
992.2800, 6414.000
993.3920, 7081.000
994.5030, 7967.000
995.6140, 8951.000
996.7250, 10167.00
997.8350, 11493.00
998.9460, 13407.00
1000.056, 15552.00
1001.167, 18370.00
1002.277, 22018.00
1003.387, 26250.00
1004.496, 31536.00
1005.606, 37001.00
1006.715, 42903.00
1007.825, 48232.00
1008.934, 52110.00
1010.043, 53672.00
1011.152, 52575.00
1012.260, 48863.00
1013.369, 43857.00
1014.477, 38468.00
1015.586, 33503.00
1016.694, 29724.00
1017.802, 26602.00
1018.909, 24576.00
1020.017, 23367.00
1021.124, 22527.00
1022.232, 22247.00
1023.339, 21878.00
1024.446, 21934.00
1025.553, 21957.00
1026.659, 22437.00
1027.766, 22354.00
1028.872, 22063.00
1029.979, 21783.00
1031.085, 21169.00
1032.191, 20263.00
1033.296, 19145.00
1034.402, 17931.00
1035.507, 16629.00
1036.613, 15349.00
1037.718, 14098.00
1038.823, 13116.00
1039.928, 12012.00
1041.032, 10985.00
1042.137, 9996.000
1043.241, 9125.000
1044.346, 8346.000
1045.450, 7647.000
1046.554, 6901.000
1047.657, 6429.000
1048.761, 5901.000
1049.864, 5533.000
1050.968, 5120.000
1052.071, 4821.000
1053.174, 4550.000
1054.277, 4329.000
1055.379, 4185.000
1056.482, 4004.000
1057.584, 3852.000
1058.687, 3715.000
1059.789, 3569.935
1060.891, 3470.000
1061.992, 3304.000
1063.094, 3188.000
1064.196, 3039.000
1065.297, 3017.000
1066.398, 2931.000
1067.499, 2879.000
1068.600, 2800.000
1069.701, 2720.000
1070.801, 2681.321
1071.902, 2663.000
1073.002, 2598.000
1074.102, 2557.000
1075.202, 2521.000
1076.302, 2489.000
1077.402, 2438.000
1078.501, 2445.000
1079.600, 2441.000
1080.700, 2401.000
1081.799, 2341.000
1082.898, 2364.000
1083.996, 2345.000
1085.095, 2289.000
1086.193, 2372.000
1087.292, 2243.000
1088.390, 2234.000
1089.488, 2239.000
1090.586, 2203.000
1091.683, 2241.000
1092.781, 2250.000
1093.878, 2150.000
1094.975, 2234.000
1096.073, 2179.000
1097.169, 2168.000
1098.266, 2182.000
1099.363, 2156.000
1100.459, 2203.000
1101.556, 2183.000
1102.652, 2137.000
1103.748, 2164.000
1104.844, 2125.000
1105.940, 2170.000
1107.035, 2175.000
1108.131, 2162.000
1109.226, 2154.000
1110.321, 2171.000
1111.416, 2112.000
1112.511, 2086.000
1113.605, 2097.000
1114.700, 2138.000
1115.794, 2106.000
1116.889, 2109.000
1117.983, 2088.000
1119.077, 2086.324
1120.170, 2109.000
1121.264, 2094.000
1122.357, 2082.000
1123.451, 2099.000
1124.544, 2122.000
1125.637, 2072.000
1126.730, 2115.000
1127.823, 2069.000
1128.915, 2053.000
1130.008, 2107.000
1131.100, 2065.000
1132.192, 2113.000
1133.284, 2058.000
1134.376, 2055.000
1135.467, 2074.000
1136.559, 2034.000
1137.650, 2034.000
1138.742, 2021.000
1139.833, 1999.000
1140.924, 1998.072
1142.014, 1976.000
1143.105, 1987.481
1144.195, 1989.000
1145.286, 1992.000
1146.376, 1955.000
1147.466, 1987.000
1148.556, 1973.000
1149.646, 1996.000
1150.735, 1927.000
1151.825, 1949.000
1152.914, 1970.000
1154.003, 1914.000
1155.092, 1939.000
1156.181, 1999.000
1157.270, 1938.000
1158.358, 1925.000
1159.447, 1899.000
1160.535, 1875.127
1161.623, 1908.000
1162.711, 1856.000
1163.799, 1893.000
1164.886, 1907.000
1165.974, 1879.000
1167.061, 1911.000
1168.148, 1914.000
1169.235, 1917.000
1170.322, 1908.000
1171.409, 1907.465
1172.496, 1904.887
1173.582, 1898.000
1174.669, 1890.000
1175.755, 1888.000
1176.841, 1860.000
1177.927, 1831.000
1179.012, 1851.000
1180.098, 1889.000
1181.183, 1862.000
1182.269, 1832.000
1183.354, 1829.000
1184.439, 1804.000
1185.524, 1815.000
1186.608, 1799.000
1187.693, 1834.000
1188.777, 1799.000
1189.862, 1835.000
1190.946, 1854.000
1192.030, 1830.000
1193.113, 1798.000
1194.197, 1769.000
1195.281, 1836.000
1196.364, 1803.000
1197.447, 1791.000
1198.530, 1783.000
1199.613, 1748.000
1200.696, 1779.000
1201.779, 1778.000
1202.861, 1748.000
1203.944, 1799.000
1205.026, 1758.000
1206.108, 1811.000
1207.190, 1797.000
1208.271, 1777.000
1209.353, 1797.000
1210.435, 1775.000
1211.516, 1798.000
1212.597, 1771.000
1213.678, 1792.000
1214.759, 1765.000
1215.840, 1753.000
1216.920, 1762.000
1218.001, 1779.000
1219.081, 1747.000
1220.161, 1755.000
1221.241, 1775.000
1222.321, 1807.000
1223.401, 1816.000
1224.480, 1780.000
1225.560, 1764.000
1226.639, 1749.000
1227.718, 1786.000
1228.797, 1788.000
1229.876, 1797.000
1230.955, 1770.000
1232.033, 1766.000
1233.112, 1768.763
1234.190, 1754.000
1235.268, 1776.000
1236.346, 1778.000
1237.424, 1784.000
1238.501, 1763.000
1239.579, 1761.000
1240.656, 1776.000
1241.733, 1750.000
1242.811, 1765.000
1243.888, 1778.000
1244.964, 1752.000
1246.041, 1763.000
1247.117, 1792.000
1248.194, 1773.000
1249.270, 1763.000
1250.346, 1800.000
1251.422, 1771.000
1252.498, 1784.000
1253.573, 1828.000
1254.649, 1825.000
1255.724, 1781.000
1256.800, 1790.000
1257.875, 1810.000
1258.950, 1838.000
1260.024, 1868.000
1261.099, 1820.000
1262.173, 1793.000
1263.248, 1745.000
1264.322, 1808.000
1265.396, 1795.000
1266.470, 1838.000
1267.544, 1829.000
1268.617, 1839.000
1269.691, 1873.000
1270.764, 1854.000
1271.837, 1855.414
1272.910, 1810.000
1273.983, 1827.000
1275.056, 1833.000
1276.129, 1821.000
1277.201, 1846.000
1278.273, 1836.000
1279.346, 1823.000
1280.418, 1844.000
1281.489, 1823.000
1282.561, 1862.000
1283.633, 1836.000
1284.704, 1873.000
1285.776, 1872.000
1286.847, 1822.000
1287.918, 1850.000
1288.989, 1830.000
1290.059, 1831.000
1291.130, 1888.000
1292.200, 1834.000
1293.271, 1882.000
1294.341, 1888.000
1295.411, 1868.000
1296.481, 1851.000
1297.551, 1892.000
1298.620, 1928.000
1299.690, 1916.000
1300.759, 1892.000
1301.828, 1907.000
1302.897, 1900.000
1303.966, 1954.000
1305.035, 1852.000
1306.103, 1927.000
1307.172, 1857.000
1308.240, 1919.000
1309.308, 1951.000
1310.376, 1913.000
1311.444, 1872.000
1312.512, 1910.000
1313.580, 1906.000
1314.647, 1951.000
1315.714, 1952.990
1316.781, 1924.000
1317.848, 1957.000
1318.915, 1915.000
1319.982, 1892.000
1321.049, 1861.000
1322.115, 1862.000
1323.181, 1871.641
1324.248, 1930.000
1325.314, 1908.000
1326.380, 1927.000
1327.445, 1920.000
1328.511, 1927.000
1329.576, 1952.000
1330.642, 1902.000
1331.707, 1896.000
1332.772, 1942.000
1333.837, 1893.000
1334.902, 1914.000
1335.966, 1916.000
1337.031, 1950.000
1338.095, 1950.000
1339.159, 1910.000
1340.223, 1957.000
1341.287, 1917.000
1342.351, 1926.000
1343.415, 1914.000
1344.478, 1863.000
1345.541, 1938.000
1346.605, 1914.000
1347.668, 1978.000
1348.731, 1916.000
1349.793, 1908.000
1350.856, 1943.000
1351.918, 1986.000
1352.981, 1974.000
1354.043, 1989.000
1355.105, 2010.000
1356.167, 1981.000
1357.229, 1995.000
1358.290, 2002.000
1359.352, 1997.000
1360.413, 1999.000
1361.475, 1998.000
1362.536, 2005.000
1363.597, 2000.845
1364.657, 2005.000
1365.718, 2005.000
1366.779, 2037.000
1367.839, 2062.000
1368.899, 2054.396
1369.959, 2024.000
1371.019, 2029.000
1372.079, 2032.000
1373.139, 1985.000
1374.198, 1982.000
1375.258, 1988.235
1376.317, 1992.000
1377.376, 2017.000
1378.435, 2017.000
1379.494, 2038.000
1380.553, 2005.000
1381.611, 2024.000
1382.670, 2017.000
1383.728, 2021.000
1384.786, 2026.000
1385.844, 1998.000
1386.902, 2077.000
1387.960, 1973.000
1389.017, 1992.000
1390.075, 2057.000
1391.132, 2057.000
1392.189, 2044.000
1393.246, 1994.000
1394.303, 2066.000
1395.360, 2005.000
1396.417, 2026.000
1397.473, 2045.000
1398.529, 2014.000
1399.585, 2008.000
1400.642, 2036.000
1401.697, 2072.000
1402.753, 2057.000
1403.809, 2055.000
1404.864, 2061.000
1405.920, 2064.000
1406.975, 2079.000
1408.030, 2067.510
1409.085, 2076.218
1410.140, 2044.000
1411.194, 2067.000
1412.249, 2050.000
1413.303, 2015.000
1414.358, 2046.000
1415.412, 2021.000
1416.466, 2083.000
1417.520, 2042.000
1418.573, 2043.000
1419.627, 2085.000
1420.680, 2062.000
1421.733, 2073.000
1422.787, 2084.000
1423.840, 2077.000
1424.892, 2096.000
1425.945, 2054.000
1426.998, 2087.000
1428.050, 2076.000
1429.103, 2019.000
1430.155, 2088.000
1431.207, 2124.000
1432.259, 2020.000
1433.310, 2043.000
1434.362, 2084.000
1435.414, 2100.000
1436.465, 2060.000
1437.516, 2061.000
1438.567, 2167.000
1439.618, 2110.000
1440.669, 2118.000
1441.720, 2146.000
1442.770, 2121.000
1443.820, 2116.000
1444.871, 2090.000
1445.921, 2138.000
1446.971, 2091.000
1448.021, 2127.000
1449.070, 2130.000
1450.120, 2126.000
1451.169, 2128.000
1452.219, 2115.000
1453.268, 2108.000
1454.317, 2107.000
1455.366, 2145.000
1456.414, 2078.000
1457.463, 2179.000
1458.511, 2190.000
1459.560, 2125.000
1460.608, 2159.000
1461.656, 2175.000
1462.704, 2194.000
1463.752, 2155.000
1464.799, 2156.000
1465.847, 2127.000
1466.894, 2154.000
1467.941, 2141.000
1468.988, 2131.000
1470.035, 2154.000
1471.082, 2155.000
1472.129, 2146.000
1473.175, 2129.000
1474.222, 2144.000
1475.268, 2114.000
1476.314, 2123.000
1477.360, 2188.000
1478.406, 2185.000
1479.452, 2127.000
1480.498, 2168.000
1481.543, 2138.000
1482.588, 2191.000
1483.633, 2150.000
1484.679, 2200.000
1485.723, 2155.000
1486.768, 2104.000
1487.813, 2189.000
1488.857, 2169.000
1489.902, 2148.000
1490.946, 2239.000
1491.990, 2156.000
1493.034, 2198.000
1494.078, 2179.000
1495.122, 2179.000
1496.165, 2162.000
1497.209, 2193.000
1498.252, 2139.000
1499.295, 2237.000
1500.338, 2238.000
1501.381, 2209.000
1502.424, 2168.000
1503.466, 2147.000
1504.509, 2157.000
1505.551, 2152.036
1506.593, 2189.000
1507.635, 2162.000
1508.677, 2163.000
1509.719, 2123.000
1510.761, 2200.000
1511.802, 2133.000
1512.844, 2194.000
1513.885, 2205.000
1514.926, 2229.000
1515.967, 2229.000
1517.008, 2179.000
1518.049, 2213.000
1519.089, 2252.000
1520.130, 2201.000
1521.170, 2229.582
1522.210, 2210.000
1523.250, 2200.000
1524.290, 2236.000
1525.330, 2180.000
1526.370, 2226.000
1527.409, 2230.000
1528.448, 2257.000
1529.488, 2216.000
1530.527, 2232.000
1531.566, 2220.000
1532.605, 2196.000
1533.643, 2281.000
1534.682, 2226.000
1535.720, 2264.000
1536.759, 2258.000
1537.797, 2194.000
1538.835, 2219.000
1539.873, 2234.000
1540.910, 2232.000
1541.948, 2216.000
1542.986, 2181.000
1544.023, 2243.000
1545.060, 2207.000
1546.097, 2228.000
1547.134, 2249.000
1548.171, 2268.000
1549.208, 2272.000
1550.244, 2303.000
1551.281, 2230.000
1552.317, 2304.000
1553.353, 2283.000
1554.389, 2329.000
1555.425, 2329.000
1556.461, 2341.000
1557.497, 2240.000
1558.532, 2274.000
1559.567, 2245.000
1560.603, 2289.000
1561.638, 2253.000
1562.673, 2232.000
1563.708, 2349.000
##END=



