##NAMES=Enstatite
##RRUFFID=R040094
##IDEAL CHEMISTRY=MgSiO_3_
##LOCALITY=unknown
##OWNER=RRUFF
##SOURCE=University of Arizona Mineral Museum
##DESCRIPTION=Dark green massive, associated with anthophyllite
##STATUS=The identification of this mineral has been confirmed by X-ray diffraction and chemical analysis
##URL=rruff.info/R040094
##MEASURED CHEMISTRY=(Mg_0.84_Fe_0.15_)(Si_0.99_Al_0.01_)O_3_; = Enstatite :  [box](Mg_0.83_Fe_0.14_Na_0.01_Ca_0.01_)_7_(Si_0.99_Al_0.01_)_8_O_22_(OH)_2_ = Anthophyllite
##PIN_ID=M00384
##ORIENTATION=Laser parallel to c* (0 0 1). Fiducial mark perpendicular to laser is parallel to a [1 0 0]
117.772, 3732.000
119.162, 3830.000
120.551, 3819.000
121.940, 3878.000
123.329, 3836.000
124.718, 3865.000
126.106, 3817.000
127.495, 3906.000
128.883, 3833.000
130.270, 3888.000
131.658, 3857.000
133.045, 3952.000
134.432, 3961.000
135.819, 3968.000
137.206, 4007.000
138.592, 4053.000
139.978, 4089.684
141.364, 4035.000
142.750, 4177.000
144.135, 4191.000
145.520, 4206.000
146.905, 4346.000
148.290, 4288.000
149.675, 4321.000
151.059, 4444.000
152.443, 4372.000
153.827, 4298.000
155.210, 4267.000
156.593, 4271.000
157.976, 4175.000
159.359, 4254.000
160.742, 4278.000
162.124, 4187.000
163.506, 4222.000
164.888, 4266.000
166.270, 4301.000
167.651, 4207.000
169.033, 4230.000
170.413, 4216.000
171.794, 4118.000
173.175, 4180.000
174.555, 4192.000
175.935, 4190.000
177.315, 4153.000
178.694, 4164.000
180.074, 4185.113
181.453, 4234.000
182.831, 4261.000
184.210, 4338.000
185.588, 4394.000
186.967, 4534.000
188.344, 4595.000
189.722, 4747.000
191.100, 4789.000
192.477, 4895.000
193.854, 4995.000
195.231, 5087.000
196.607, 5102.000
197.983, 5017.000
199.359, 4906.000
200.735, 4807.000
202.111, 4731.000
203.486, 4718.000
204.861, 4678.000
206.236, 4618.000
207.611, 4553.000
208.985, 4585.000
210.359, 4583.000
211.733, 4557.000
213.107, 4457.000
214.480, 4502.000
215.854, 4530.000
217.227, 4480.000
218.599, 4526.000
219.972, 4566.000
221.344, 4697.000
222.716, 4726.000
224.088, 4864.000
225.460, 4836.000
226.831, 4928.000
228.202, 5030.000
229.573, 5199.000
230.944, 5405.078
232.314, 5592.000
233.685, 5958.000
235.055, 6371.000
236.424, 6786.000
237.794, 7153.000
239.163, 7298.000
240.532, 7229.000
241.901, 6777.000
243.270, 6313.000
244.638, 5786.000
246.006, 5334.000
247.374, 5020.000
248.742, 4845.000
250.109, 4672.000
251.476, 4738.000
252.843, 4612.000
254.210, 4674.000
255.577, 4600.000
256.943, 4674.000
258.309, 4582.000
259.675, 4594.000
261.040, 4538.000
262.406, 4516.000
263.771, 4480.000
265.136, 4468.000
266.500, 4482.000
267.865, 4398.000
269.229, 4303.000
270.593, 4353.000
271.957, 4337.000
273.320, 4517.000
274.684, 4533.000
276.047, 4602.000
277.409, 4614.000
278.772, 4606.720
280.134, 4542.000
281.496, 4565.000
282.858, 4509.000
284.220, 4483.000
285.582, 4612.000
286.943, 4621.000
288.304, 4638.000
289.664, 4638.000
291.025, 4604.000
292.385, 4706.000
293.745, 4754.000
295.105, 4956.000
296.465, 5014.000
297.824, 5122.000
299.183, 5184.000
300.542, 5190.000
301.901, 5157.000
303.259, 5222.000
304.618, 5124.000
305.976, 5152.000
307.333, 4993.000
308.691, 5043.000
310.048, 5098.000
311.405, 5056.000
312.762, 5176.000
314.119, 5217.000
315.475, 5504.000
316.831, 5735.000
318.187, 5927.000
319.543, 6230.000
320.899, 6445.000
322.254, 6593.000
323.609, 6618.000
324.964, 6540.000
326.318, 6599.000
327.673, 6480.000
329.027, 6617.000
330.381, 6793.000
331.734, 6929.000
333.088, 7211.000
334.441, 7669.000
335.794, 8292.000
337.147, 9010.000
338.499, 10060.000
339.852, 11050.000
341.204, 12090.000
342.556, 12740.000
343.907, 12900.000
345.259, 12680.000
346.610, 11880.000
347.961, 11130.000
349.311, 9885.000
350.662, 9187.000
352.012, 8316.000
353.362, 7701.000
354.712, 7242.000
356.061, 6836.000
357.411, 6659.000
358.760, 6373.000
360.109, 6214.000
361.458, 6090.000
362.806, 5988.000
364.154, 5927.000
365.502, 5846.000
366.850, 5821.547
368.197, 5883.000
369.545, 5820.000
370.892, 5842.000
372.239, 5899.000
373.585, 5890.000
374.932, 6036.000
376.278, 6139.000
377.624, 6179.000
378.970, 6384.000
380.315, 6549.000
381.660, 6654.000
383.005, 6701.000
384.350, 6777.000
385.695, 6775.000
387.039, 6762.000
388.383, 6657.000
389.727, 6665.000
391.071, 6692.000
392.414, 6889.000
393.758, 7048.000
395.101, 7150.000
396.443, 7502.000
397.786, 7633.000
399.128, 7900.000
400.471, 7952.000
401.812, 8005.000
403.154, 8001.000
404.496, 7916.024
405.837, 7770.000
407.178, 7629.000
408.519, 7488.000
409.859, 7381.024
411.199, 7209.000
412.539, 7172.000
413.879, 7054.000
415.219, 6933.000
416.558, 6920.000
417.898, 6871.000
419.237, 6609.000
420.575, 6495.000
421.914, 6353.000
423.252, 6188.000
424.590, 6124.000
425.928, 5924.000
427.266, 5769.000
428.603, 5711.000
429.940, 5617.000
431.277, 5552.000
432.614, 5504.000
433.951, 5467.000
435.287, 5393.000
436.623, 5354.000
437.959, 5421.000
439.294, 5302.000
440.630, 5316.000
441.965, 5387.000
443.300, 5298.000
444.635, 5329.000
445.969, 5301.000
447.303, 5267.000
448.637, 5358.000
449.971, 5327.000
451.305, 5394.000
452.638, 5314.000
453.971, 5401.000
455.304, 5466.000
456.637, 5458.000
457.970, 5476.000
459.302, 5356.000
460.634, 5430.000
461.966, 5472.000
463.297, 5394.000
464.629, 5446.000
465.960, 5366.000
467.291, 5321.000
468.621, 5476.000
469.952, 5417.000
471.282, 5434.000
472.612, 5459.000
473.942, 5432.781
475.272, 5458.000
476.601, 5414.000
477.930, 5435.000
479.259, 5402.000
480.588, 5454.000
481.916, 5372.000
483.245, 5428.000
484.573, 5467.000
485.901, 5593.000
487.228, 5516.000
488.556, 5501.000
489.883, 5492.000
491.210, 5514.000
492.536, 5483.904
493.863, 5460.000
495.189, 5452.000
496.515, 5452.000
497.841, 5452.000
499.167, 5417.000
500.492, 5514.000
501.817, 5413.000
503.142, 5492.000
504.467, 5477.000
505.791, 5524.000
507.116, 5521.000
508.440, 5546.000
509.764, 5606.000
511.087, 5688.000
512.411, 5715.000
513.734, 5770.000
515.057, 5952.000
516.380, 6001.000
517.702, 6111.000
519.024, 6287.000
520.347, 6320.000
521.668, 6379.000
522.990, 6539.000
524.312, 6616.000
525.633, 6764.000
526.954, 6739.000
528.274, 6658.000
529.595, 6676.000
530.915, 6515.000
532.235, 6428.000
533.555, 6525.000
534.875, 6523.000
536.194, 6613.000
537.514, 6753.000
538.833, 6888.000
540.152, 6950.000
541.470, 6967.000
542.788, 6970.000
544.107, 6704.000
545.425, 6615.000
546.742, 6569.000
548.060, 6559.000
549.377, 6668.000
550.694, 6596.000
552.011, 6682.000
553.327, 6585.000
554.644, 6552.000
555.960, 6457.000
557.276, 6267.000
558.592, 6358.000
559.907, 6121.000
561.222, 6172.000
562.538, 6180.000
563.852, 6151.000
565.167, 6239.000
566.481, 6273.000
567.796, 6283.000
569.110, 6312.000
570.423, 6407.000
571.737, 6476.000
573.050, 6528.000
574.363, 6697.000
575.676, 6800.000
576.989, 6831.000
578.301, 6857.000
579.614, 6877.000
580.926, 6774.000
582.237, 6662.000
583.549, 6530.000
584.860, 6473.000
586.172, 6341.000
587.482, 6454.000
588.793, 6186.000
590.104, 6328.000
591.414, 6300.000
592.724, 6214.000
594.034, 6382.000
595.343, 6277.000
596.653, 6171.000
597.962, 6273.000
599.271, 6175.000
600.580, 6228.000
601.888, 6198.000
603.197, 6140.000
604.505, 6165.000
605.813, 6186.000
607.120, 6227.000
608.428, 6237.852
609.735, 6284.000
611.042, 6234.000
612.349, 6263.000
613.656, 6187.000
614.962, 6167.000
616.268, 6240.000
617.574, 6233.000
618.880, 6270.000
620.185, 6287.000
621.491, 6316.000
622.796, 6410.000
624.100, 6332.000
625.405, 6510.000
626.710, 6372.000
628.014, 6518.000
629.318, 6511.000
630.622, 6548.000
631.925, 6524.000
633.228, 6571.885
634.532, 6545.000
635.835, 6691.000
637.137, 6667.000
638.440, 6799.000
639.742, 6831.000
641.044, 6802.000
642.346, 6955.000
643.648, 7053.000
644.949, 7066.000
646.250, 7254.000
647.551, 7358.000
648.852, 7576.000
650.152, 7657.000
651.453, 8043.000
652.753, 8386.000
654.053, 8668.000
655.353, 9172.000
656.652, 9755.000
657.951, 10710.000
659.250, 11640.000
660.549, 12580.000
661.848, 13560.000
663.146, 14180.000
664.444, 14390.000
665.742, 13840.000
667.040, 13390.000
668.338, 12670.000
669.635, 12060.000
670.932, 11820.000
672.229, 11920.000
673.526, 11830.000
674.822, 12420.000
676.119, 12840.000
677.415, 13480.000
678.710, 14450.000
680.006, 15300.000
681.302, 16490.000
682.597, 17570.000
683.892, 18360.000
685.186, 18420.000
686.481, 18020.000
687.775, 16660.000
689.070, 15450.000
690.363, 13710.000
691.657, 12620.000
692.951, 11300.000
694.244, 10540.000
695.537, 9729.000
696.830, 9237.000
698.122, 8921.000
699.415, 8514.000
700.707, 8334.000
701.999, 8036.000
703.291, 7981.000
704.582, 7865.000
705.874, 7757.000
707.165, 7680.000
708.456, 7554.000
709.747, 7539.000
711.037, 7567.000
712.327, 7417.000
713.618, 7361.000
714.907, 7523.000
716.197, 7388.000
717.487, 7264.000
718.776, 7370.000
720.065, 7367.000
721.354, 7315.000
722.642, 7314.000
723.931, 7355.000
725.219, 7370.000
726.507, 7299.000
727.795, 7451.000
729.082, 7262.000
730.369, 7475.000
731.657, 7342.000
732.943, 7257.000
734.230, 7332.000
735.517, 7237.000
736.803, 7361.000
738.089, 7232.000
739.375, 7331.000
740.660, 7273.000
741.946, 7274.000
743.231, 7389.000
744.516, 7232.000
745.801, 7401.000
747.085, 7300.000
748.370, 7403.000
749.654, 7488.000
750.938, 7402.000
752.222, 7372.000
753.505, 7383.000
754.789, 7457.000
756.072, 7588.000
757.355, 7336.000
758.637, 7483.000
759.920, 7454.000
761.202, 7402.000
762.484, 7440.000
763.766, 7431.000
765.047, 7408.000
766.329, 7409.000
767.610, 7539.000
768.891, 7389.000
770.172, 7358.000
771.452, 7532.000
772.733, 7499.000
774.013, 7395.000
775.293, 7531.000
776.573, 7440.000
777.852, 7524.000
779.132, 7440.000
780.411, 7458.000
781.690, 7552.000
782.968, 7464.000
784.247, 7562.000
785.525, 7570.000
786.803, 7591.000
788.081, 7631.000
789.359, 7536.000
790.636, 7544.000
791.913, 7604.000
793.190, 7529.000
794.467, 7639.000
795.744, 7603.000
797.020, 7623.000
798.296, 7735.000
799.572, 7610.000
800.848, 7662.000
802.124, 7650.000
803.399, 7660.000
804.674, 7692.000
805.949, 7665.000
807.224, 7670.000
808.498, 7705.000
809.773, 7744.000
811.047, 7878.000
812.320, 7783.000
813.594, 7867.000
814.868, 7791.000
816.141, 7910.000
817.414, 7862.000
818.687, 7863.000
819.959, 8072.000
821.232, 7900.000
822.504, 7913.000
823.776, 8011.000
825.048, 7987.000
826.319, 8038.000
827.591, 8039.000
828.862, 7940.000
830.133, 8088.000
831.404, 8003.000
832.674, 8017.000
833.945, 8131.000
835.215, 8015.000
836.485, 8081.000
837.754, 8091.000
839.024, 8185.000
840.293, 8122.000
841.562, 8172.259
842.831, 8167.000
844.100, 8188.000
845.368, 8215.000
846.637, 8195.000
847.905, 8189.000
849.173, 8229.000
850.440, 8300.000
851.708, 8275.000
852.975, 8420.000
854.242, 8296.000
855.509, 8385.000
856.775, 8554.000
858.042, 8523.000
859.308, 8673.000
860.574, 8565.000
861.840, 8529.000
863.105, 8663.000
864.371, 8634.000
865.636, 8587.000
866.901, 8546.000
868.166, 8587.000
869.430, 8640.000
870.695, 8534.000
871.959, 8558.000
873.223, 8621.000
874.486, 8549.000
875.750, 8570.000
877.013, 8403.000
878.276, 8449.952
879.539, 8451.000
880.802, 8498.000
882.064, 8605.000
883.327, 8690.000
884.589, 8617.000
885.851, 8599.000
887.112, 8847.000
888.374, 8775.000
889.635, 8651.000
890.896, 8885.000
892.157, 8842.000
893.418, 8798.000
894.678, 8934.000
895.938, 8742.000
897.198, 8849.000
898.458, 9054.000
899.718, 8889.000
900.977, 8916.000
902.236, 9027.000
903.495, 9043.000
904.754, 8976.000
906.013, 8956.000
907.271, 9088.000
908.529, 9093.000
909.787, 9147.000
911.045, 9152.000
912.303, 9183.000
913.560, 9222.000
914.817, 9336.000
916.074, 9366.000
917.331, 9407.947
918.587, 9444.000
919.844, 9481.000
921.100, 9550.000
922.356, 9632.000
923.612, 9909.000
924.867, 9964.000
926.122, 10160.000
927.378, 10200.000
928.632, 10350.000
929.887, 10500.000
931.142, 10620.000
932.396, 10570.000
933.650, 10790.000
934.904, 10750.000
936.158, 10910.000
937.411, 11030.000
938.664, 11000.000
939.917, 11220.000
941.170, 11070.000
942.423, 11080.000
943.675, 10970.000
944.928, 10670.000
946.180, 10840.000
947.432, 10500.000
948.683, 10550.000
949.935, 10360.000
951.186, 10420.000
952.437, 10290.000
953.688, 10180.000
954.939, 10110.000
956.189, 10056.949
957.439, 10080.000
958.689, 10040.000
959.939, 10020.000
961.189, 10080.000
962.438, 10100.000
963.687, 10060.000
964.936, 10160.000
966.185, 10020.000
967.434, 10120.000
968.682, 10150.000
969.930, 10160.000
971.178, 10000.000
972.426, 10280.000
973.674, 10160.000
974.921, 10170.000
976.168, 10420.000
977.415, 10260.000
978.662, 10360.000
979.909, 10620.000
981.155, 10470.000
982.401, 10710.000
983.647, 10850.000
984.893, 10750.000
986.139, 11010.000
987.384, 11040.000
988.629, 11360.000
989.874, 11540.000
991.119, 11760.000
992.364, 12270.000
993.608, 12370.000
994.852, 13120.000
996.096, 13650.000
997.340, 14380.000
998.583, 15380.000
999.827, 16220.000
1001.070, 17840.000
1002.313, 19610.000
1003.556, 21500.000
1004.798, 24420.000
1006.041, 27140.000
1007.283, 30530.000
1008.525, 32720.000
1009.766, 33540.000
1011.008, 32880.000
1012.249, 30330.000
1013.490, 27700.000
1014.731, 25010.000
1015.972, 22950.000
1017.213, 21650.000
1018.453, 20570.000
1019.693, 19930.000
1020.933, 19200.000
1022.173, 18900.000
1023.412, 18510.000
1024.652, 18220.000
1025.891, 17780.000
1027.130, 17860.000
1028.369, 17510.000
1029.607, 17480.000
1030.846, 17100.000
1032.084, 16650.000
1033.322, 16520.000
1034.559, 16160.000
1035.797, 15470.000
1037.034, 15270.000
1038.271, 14820.000
1039.508, 14450.000
1040.745, 14200.000
1041.982, 13870.000
1043.218, 13580.000
1044.454, 12990.000
1045.690, 12990.000
1046.926, 12550.000
1048.161, 12460.000
1049.397, 12260.000
1050.632, 12180.000
1051.867, 12030.000
1053.102, 12050.000
1054.336, 11640.000
1055.570, 11750.000
1056.805, 11770.000
1058.039, 11490.000
1059.272, 11570.000
1060.506, 11520.000
1061.739, 11550.000
1062.972, 11330.000
1064.205, 11220.000
1065.438, 11260.000
1066.671, 11280.000
1067.903, 11200.000
1069.135, 11270.000
1070.367, 11120.000
1071.599, 11150.000
1072.831, 11110.000
1074.062, 10940.000
1075.293, 11000.000
1076.524, 11110.000
1077.755, 10930.000
1078.985, 11060.000
1080.216, 10880.000
1081.446, 10960.000
1082.676, 10880.000
1083.906, 10930.000
1085.135, 11020.000
1086.365, 10990.000
1087.594, 11035.777
1088.823, 11039.649
1090.052, 11060.000
1091.280, 11010.000
1092.509, 11030.000
1093.737, 10970.000
1094.965, 11020.000
1096.193, 11030.000
1097.420, 11040.000
1098.648, 11070.000
1099.875, 10830.000
1101.102, 11080.000
1102.329, 11030.000
1103.555, 10860.000
1104.782, 11100.000
1106.008, 10940.000
1107.234, 10990.000
1108.460, 11000.000
1109.686, 10990.000
1110.911, 11030.000
1112.136, 11100.000
1113.361, 10890.000
1114.586, 11130.000
1115.811, 11000.000
1117.035, 11050.000
1118.260, 11200.000
1119.484, 10980.000
1120.707, 11160.000
1121.931, 11210.000
1123.155, 11080.000
1124.378, 11170.000
1125.601, 11210.000
1126.824, 11170.000
1128.047, 11130.000
1129.269, 11100.000
1130.491, 11160.000
1131.713, 11140.000
1132.935, 11010.000
1134.157, 11300.000
1135.379, 11190.000
1136.600, 11130.000
1137.821, 10990.000
1139.042, 11210.000
1140.263, 11200.000
1141.483, 11270.000
1142.703, 11100.000
1143.924, 11180.000
1145.144, 11110.000
1146.363, 11300.000
1147.583, 11160.000
1148.802, 11200.000
1150.021, 11330.000
1151.240, 11190.000
1152.459, 11220.000
1153.678, 11420.000
1154.896, 11110.000
1156.114, 11340.000
1157.332, 11170.000
1158.550, 11350.000
1159.768, 11270.000
1160.985, 11270.000
1162.202, 11270.000
1163.419, 11410.000
1164.636, 11200.000
1165.853, 11400.000
1167.069, 11380.000
1168.285, 11410.000
1169.501, 11420.000
1170.717, 11280.000
1171.933, 11420.000
1173.148, 11440.000
1174.364, 11310.000
1175.579, 11290.000
1176.793, 11500.000
1178.008, 11380.000
1179.223, 11540.000
1180.437, 11430.000
1181.651, 11590.000
1182.865, 11500.000
1184.079, 11480.000
1185.292, 11440.000
1186.505, 11439.718
1187.719, 11540.000
1188.931, 11500.000
1190.144, 11500.000
1191.357, 11580.000
1192.569, 11560.000
1193.781, 11450.000
1194.993, 11570.000
1196.205, 11450.000
1197.416, 11560.000
1198.628, 11680.000
1199.839, 11630.000
1201.050, 11570.000
1202.261, 11720.000
1203.471, 11690.000
1204.682, 11730.000
1205.892, 11720.000
1207.102, 11650.000
1208.312, 11800.000
1209.521, 11630.000
1210.731, 11830.000
1211.940, 11760.000
1213.149, 11780.000
1214.358, 11810.000
1215.567, 11840.000
1216.775, 11862.675
1217.983, 11810.000
1219.192, 11930.000
1220.399, 11950.000
1221.607, 12020.000
1222.815, 11860.000
1224.022, 11820.000
1225.229, 11860.000
1226.436, 11970.000
1227.643, 12000.000
1228.849, 11850.000
1230.056, 11990.000
1231.262, 11830.000
1232.468, 12030.000
1233.674, 11990.000
1234.879, 11960.000
1236.085, 12050.000
1237.290, 12100.000
1238.495, 12090.000
1239.700, 12020.000
1240.904, 12140.000
1242.109, 12060.000
1243.313, 12150.000
1244.517, 12250.000
1245.721, 12030.000
1246.924, 12140.000
1248.128, 12230.000
1249.331, 12300.000
1250.534, 12260.000
1251.737, 12305.231
1252.940, 12297.473
1254.142, 12270.000
1255.345, 12270.000
1256.547, 12200.000
1257.749, 12160.000
1258.950, 12300.000
1260.152, 12360.000
1261.353, 12280.000
1262.554, 12310.000
1263.755, 12270.000
1264.956, 12230.000
1266.157, 12250.000
1267.357, 12280.000
1268.557, 12300.000
1269.757, 12360.000
1270.957, 12380.000
1272.157, 12450.000
1273.356, 12400.000
1274.556, 12350.000
1275.755, 12660.000
1276.954, 12220.000
1278.152, 12240.000
1279.351, 12510.000
1280.549, 12350.000
1281.747, 12390.000
1282.945, 12330.000
1284.143, 12300.000
1285.340, 12420.000
1286.538, 12640.000
1287.735, 12594.533
1288.932, 12610.000
1290.129, 12580.000
1291.325, 12560.000
1292.522, 12577.812
1293.718, 12573.109
1294.914, 12610.000
1296.110, 12600.000
1297.305, 12630.000
1298.501, 12640.000
1299.696, 12640.000
1300.891, 12520.000
1302.086, 12830.000
1303.281, 12580.000
1304.475, 12530.000
1305.669, 12870.000
1306.863, 12650.000
1308.057, 12690.000
1309.251, 12740.000
1310.445, 12560.000
1311.638, 12780.000
1312.831, 12600.000
1314.024, 12750.000
1315.217, 12770.000
1316.410, 12810.000
1317.602, 12700.000
1318.794, 12740.000
1319.986, 12720.000
1321.178, 12690.000
1322.370, 12780.000
1323.561, 12760.000
1324.752, 12760.000
1325.944, 12830.000
1327.134, 12830.000
1328.325, 13040.000
1329.516, 12920.000
1330.706, 12950.000
1331.896, 12820.000
1333.086, 12930.000
1334.276, 12960.000
1335.465, 13060.000
1336.655, 13000.000
1337.844, 13110.000
1339.033, 13010.000
1340.222, 13240.000
1341.411, 13190.000
1342.599, 13040.000
1343.787, 13110.000
1344.975, 13290.000
1346.163, 13160.000
1347.351, 13220.000
1348.538, 13180.000
1349.726, 13210.000
1350.913, 13219.360
1352.100, 13241.033
1353.286, 13230.000
1354.473, 13320.000
1355.659, 13320.000
1356.846, 13370.000
1358.032, 13320.000
1359.217, 13290.000
1360.403, 13460.000
1361.588, 13470.000
1362.774, 13550.000
1363.959, 13420.000
1365.144, 13320.000
1366.328, 13610.000
1367.513, 13260.000
1368.697, 13500.000
1369.881, 13430.000
1371.065, 13480.000
1372.249, 13470.000
1373.432, 13540.000
1374.616, 13550.000
1375.799, 13690.000
1376.982, 13700.000
1378.165, 13600.000
1379.347, 13760.000
1380.530, 13720.000
1381.712, 13710.000
1382.894, 13830.000
1384.076, 13880.000
1385.258, 13740.000
1386.439, 13880.000
1387.621, 13750.000
1388.802, 13820.000
1389.983, 13880.000
1391.163, 13780.000
1392.344, 13830.000
1393.524, 14020.000
1394.705, 13780.000
1395.885, 14000.000
1397.064, 13850.000
1398.244, 13850.000
1399.423, 14030.000
1400.603, 13710.000
1401.782, 13880.000
1402.961, 14060.000
1404.139, 13860.000
1405.318, 13870.000
1406.496, 14060.000
1407.674, 13830.000
1408.852, 14130.000
1410.030, 13940.000
1411.208, 13960.000
1412.385, 14030.000
1413.562, 13880.000
1414.739, 14260.000
1415.916, 14070.000
1417.093, 13990.000
1418.269, 14360.000
1419.446, 14210.000
1420.622, 14230.000
1421.798, 14270.000
1422.973, 14160.000
1424.149, 14130.000
1425.324, 14160.000
1426.499, 14190.000
1427.674, 14310.000
1428.849, 14350.000
1430.024, 14240.000
1431.198, 14440.000
1432.373, 14280.000
1433.547, 14370.000
1434.720, 14630.000
1435.894, 14320.000
1437.068, 14320.000
1438.241, 14560.000
1439.414, 14450.000
1440.587, 14400.000
1441.760, 14580.000
1442.932, 14490.000
1444.105, 14580.000
1445.277, 14600.000
1446.449, 14630.000
1447.621, 14560.000
1448.793, 14550.000
1449.964, 14510.000
1451.135, 14521.648
1452.306, 14537.471
1453.477, 14610.000
1454.648, 14590.000
1455.819, 14720.000
1456.989, 14730.000
1458.159, 14820.000
1459.329, 14680.000
1460.499, 14930.000
1461.669, 14760.000
1462.838, 14810.000
1464.007, 14900.000
1465.176, 14760.000
1466.345, 14790.000
1467.514, 14920.000
1468.683, 14820.000
1469.851, 14980.000
1471.019, 15040.000
1472.187, 14920.000
1473.355, 14890.000
1474.522, 14890.000
1475.690, 14881.325
1476.857, 14840.000
1478.024, 14970.000
1479.191, 14960.000
1480.358, 15040.000
1481.524, 14940.000
1482.691, 15050.000
1483.857, 14970.000
1485.023, 15050.000
1486.188, 15040.000
##END=



