##NAMES=Enstatite
##RRUFFID=R060744
##IDEAL CHEMISTRY=MgSiO_3_
##LOCALITY=Orissa, India
##OWNER=RRUFF
##SOURCE=Herb Obodda
##DESCRIPTION=Brown transparent fragment
##STATUS=The identification of this mineral has been confirmed by X-ray diffraction and chemical analysis
##URL=rruff.info/R060744
##MEASURED CHEMISTRY=(Mg_0.85_Fe^2+^_0.13_Fe^3+^_0.01_Mn_0.01_)_Σ=1_(Si_0.99_Al_0.01_)_Σ=1_O_3_; trace amounts of Ca; Fe^2+^ and Fe^3+^ splitted by charge balance
##PIN_ID=L01127
##ORIENTATION=Laser parallel to -b* (0 -1 0). Fiducial mark perpendicular to laser is parallel to -c [0 0 -1]
113.2080, 7325.000
114.4400, 8333.000
115.6710, 9559.000
116.9030, 11251.00
118.1340, 13294.00
119.3650, 15616.00
120.5960, 18503.00
121.8270, 22015.00
123.0580, 26690.00
124.2880, 33282.00
125.5190, 39396.00
126.7490, 44422.00
127.9790, 46520.00
129.2090, 44152.00
130.4390, 39807.00
131.6680, 34668.00
132.8980, 29579.00
134.1270, 24699.00
135.3560, 20479.00
136.5850, 17746.00
137.8140, 15661.00
139.0430, 14033.00
140.2710, 12867.00
141.5000, 11923.00
142.7280, 11236.00
143.9560, 10463.00
145.1840, 9825.000
146.4120, 9327.000
147.6390, 8875.000
148.8670, 8577.000
150.0940, 8359.000
151.3210, 8236.000
152.5490, 7949.000
153.7750, 7938.000
155.0020, 7957.000
156.2290, 7870.000
157.4550, 7723.000
158.6810, 7803.000
159.9080, 7611.000
161.1340, 7734.000
162.3590, 7603.000
163.5850, 7583.000
164.8110, 7578.000
166.0360, 7531.849
167.2610, 7586.000
168.4860, 7514.000
169.7110, 7573.000
170.9360, 7561.000
172.1610, 7544.000
173.3850, 7479.000
174.6100, 7603.000
175.8340, 7649.000
177.0580, 7511.000
178.2820, 7590.000
179.5050, 7591.000
180.7290, 7679.000
181.9520, 7636.000
183.1760, 7720.000
184.3990, 7835.000
185.6220, 7779.000
186.8450, 7896.000
188.0670, 7829.686
189.2900, 7845.000
190.5120, 7735.000
191.7340, 7622.000
192.9560, 7627.000
194.1780, 7689.000
195.4000, 7663.000
196.6220, 7592.000
197.8430, 7631.000
199.0640, 7619.000
200.2860, 7505.000
201.5070, 7483.000
202.7270, 7262.000
203.9480, 6984.000
205.1690, 6723.000
206.3890, 6679.000
207.6090, 6487.000
208.8290, 6390.000
210.0490, 6337.000
211.2690, 6362.000
212.4890, 6316.000
213.7080, 6302.000
214.9280, 6409.000
216.1470, 6492.000
217.3660, 6589.000
218.5850, 6540.000
219.8030, 6806.000
221.0220, 7009.000
222.2400, 7236.000
223.4590, 7602.000
224.6770, 8027.000
225.8950, 8481.000
227.1120, 8975.000
228.3300, 9492.000
229.5480, 10320.00
230.7650, 11151.00
231.9820, 11674.00
233.1990, 11989.00
234.4160, 11722.00
235.6330, 11008.00
236.8490, 10243.00
238.0660, 9363.000
239.2820, 8570.000
240.4980, 7943.000
241.7140, 7267.000
242.9300, 7004.000
244.1460, 6824.000
245.3610, 6564.000
246.5770, 6401.000
247.7920, 6353.000
249.0070, 6361.000
250.2220, 6348.000
251.4370, 6347.000
252.6510, 6289.000
253.8660, 6329.000
255.0800, 6403.000
256.2940, 6451.000
257.5080, 6518.338
258.7220, 6619.784
259.9360, 6643.000
261.1490, 6755.145
262.3630, 6796.000
263.5760, 6817.590
264.7890, 6865.612
266.0020, 6874.909
267.2150, 6895.000
268.4270, 6885.000
269.6400, 6883.000
270.8520, 6861.000
272.0640, 6757.000
273.2760, 6671.000
274.4880, 6713.000
275.7000, 6573.000
276.9120, 6471.000
278.1230, 6556.000
279.3340, 6505.000
280.5450, 6469.000
281.7560, 6603.000
282.9670, 6600.000
284.1780, 6617.000
285.3880, 6860.000
286.5980, 7106.000
287.8090, 7112.000
289.0190, 7257.000
290.2290, 7563.000
291.4380, 7703.000
292.6480, 7854.000
293.8570, 7934.000
295.0670, 7974.292
296.2760, 7999.000
297.4850, 7940.000
298.6930, 7912.000
299.9020, 7803.000
301.1110, 7834.000
302.3190, 7938.000
303.5270, 7788.000
304.7350, 7831.000
305.9430, 7956.000
307.1510, 8023.000
308.3580, 8115.000
309.5660, 8449.000
310.7730, 8595.000
311.9800, 8863.000
313.1870, 9165.000
314.3940, 9556.000
315.6010, 10165.00
316.8070, 10697.00
318.0130, 11348.00
319.2200, 12181.00
320.4260, 13254.00
321.6310, 14577.00
322.8370, 16128.00
324.0430, 18221.00
325.2480, 20416.00
326.4540, 23227.00
327.6590, 26759.00
328.8640, 31071.00
330.0680, 35593.00
331.2730, 41078.00
332.4780, 46678.00
333.6820, 53084.00
334.8860, 58486.00
336.0900, 62413.00
337.2940, 64480.00
338.4980, 64024.00
339.7010, 61455.00
340.9050, 57123.00
342.1080, 51786.00
343.3110, 45665.00
344.5140, 39898.00
345.7170, 34652.00
346.9200, 30064.00
348.1220, 26460.00
349.3240, 23537.00
350.5270, 21285.00
351.7290, 19480.00
352.9310, 18121.00
354.1320, 16843.00
355.3340, 15416.00
356.5350, 14439.00
357.7370, 13862.00
358.9380, 13112.00
360.1390, 12787.00
361.3400, 12104.00
362.5400, 11829.00
363.7410, 11453.00
364.9410, 11143.00
366.1410, 10892.00
367.3410, 10765.00
368.5410, 10825.00
369.7410, 10500.00
370.9400, 10534.00
372.1400, 10400.00
373.3390, 10460.00
374.5380, 10427.00
375.7370, 10409.00
376.9360, 10339.00
378.1350, 10499.00
379.3330, 10424.00
380.5310, 10579.00
381.7300, 10707.00
382.9280, 10904.00
384.1260, 11304.00
385.3230, 11827.00
386.5210, 12435.00
387.7180, 13186.00
388.9160, 13857.00
390.1130, 14899.00
391.3100, 15711.00
392.5060, 16654.00
393.7030, 17569.00
394.9000, 18278.00
396.0960, 18759.00
397.2920, 19181.00
398.4880, 19265.00
399.6840, 19264.00
400.8800, 19027.00
402.0750, 18788.00
403.2710, 18332.00
404.4660, 17872.00
405.6610, 17542.00
406.8560, 16953.00
408.0510, 16634.00
409.2450, 16107.00
410.4400, 15737.00
411.6340, 15148.00
412.8280, 14982.00
414.0220, 14338.00
415.2160, 14014.00
416.4100, 13748.00
417.6030, 13333.00
418.7970, 12928.00
419.9900, 12693.00
421.1830, 12329.00
422.3760, 12052.00
423.5690, 11951.00
424.7610, 11955.00
425.9540, 12053.00
427.1460, 12361.57
428.3380, 12655.00
429.5300, 13319.00
430.7220, 14134.00
431.9140, 14911.00
433.1050, 15759.00
434.2970, 16860.00
435.4880, 17356.00
436.6790, 17607.00
437.8700, 17458.00
439.0610, 16511.00
440.2510, 15363.00
441.4420, 13997.00
442.6320, 12908.00
443.8220, 11898.00
445.0120, 11066.00
446.2020, 10397.00
447.3910, 9943.000
448.5810, 9593.000
449.7700, 9404.000
450.9600, 9195.000
452.1490, 9057.000
453.3370, 8920.000
454.5260, 8803.000
455.7150, 8830.000
456.9030, 8737.000
458.0910, 8669.000
459.2800, 8656.000
460.4670, 8526.000
461.6550, 8502.000
462.8430, 8448.000
464.0300, 8492.000
465.2180, 8408.000
466.4050, 8361.000
467.5920, 8330.000
468.7790, 8212.000
469.9650, 8221.000
471.1520, 8145.000
472.3380, 8112.000
473.5250, 8015.000
474.7110, 7947.000
475.8970, 7982.000
477.0820, 7882.000
478.2680, 7954.000
479.4540, 7904.000
480.6390, 7928.000
481.8240, 7838.000
483.0090, 7925.000
484.1940, 7829.000
485.3780, 7854.000
486.5630, 7935.000
487.7470, 7876.000
488.9320, 7766.000
490.1160, 7946.000
491.3000, 7806.000
492.4830, 7812.000
493.6670, 7914.000
494.8500, 7952.000
496.0340, 7871.000
497.2170, 7978.000
498.4000, 7950.000
499.5820, 7840.000
500.7650, 7904.000
501.9480, 7881.695
503.1300, 7943.000
504.3120, 7946.000
505.4940, 7994.000
506.6760, 8055.000
507.8580, 8070.000
509.0390, 8131.000
510.2210, 8132.000
511.4020, 8336.000
512.5830, 8392.000
513.7640, 8386.000
514.9450, 8494.000
516.1250, 8763.000
517.3060, 8862.000
518.4860, 8984.000
519.6660, 9188.000
520.8460, 9217.000
522.0260, 9293.000
523.2060, 9279.000
524.3850, 9289.000
525.5650, 9268.000
526.7440, 9365.000
527.9230, 9565.000
529.1020, 9700.000
530.2810, 9927.000
531.4590, 10061.00
532.6380, 10405.00
533.8160, 10779.00
534.9940, 10797.00
536.1720, 10836.00
537.3500, 10557.00
538.5270, 10410.00
539.7050, 10137.00
540.8820, 10033.00
542.0590, 9930.000
543.2360, 9666.000
544.4130, 9698.000
545.5900, 9586.000
546.7660, 9727.000
547.9430, 9693.000
549.1190, 9373.000
550.2950, 9376.000
551.4710, 9305.000
552.6470, 9214.000
553.8220, 9003.000
554.9980, 8816.000
556.1730, 8931.000
557.3480, 8781.000
558.5230, 8778.000
559.6980, 8812.000
560.8730, 8611.000
562.0470, 8648.000
563.2220, 8719.000
564.3960, 8725.000
565.5700, 8764.000
566.7440, 8733.000
567.9170, 8755.000
569.0910, 8653.000
570.2640, 8785.000
571.4380, 8803.000
572.6110, 8703.000
573.7840, 8708.000
574.9570, 8771.000
576.1290, 8835.000
577.3020, 8862.000
578.4740, 8914.000
579.6460, 8817.000
580.8180, 8971.000
581.9900, 8871.000
583.1620, 8824.000
584.3330, 8904.000
585.5040, 8959.000
586.6760, 8989.000
587.8470, 8935.000
589.0180, 8913.000
590.1880, 8932.000
591.3590, 8928.000
592.5290, 8977.000
593.7000, 9044.000
594.8700, 8948.000
596.0400, 8988.750
597.2090, 8840.000
598.3790, 8952.000
599.5490, 8944.000
600.7180, 8920.000
601.8870, 8845.000
603.0560, 9024.000
604.2250, 8991.000
605.3940, 9010.000
606.5620, 8885.000
607.7300, 8907.000
608.8990, 9014.000
610.0670, 8980.000
611.2350, 9065.125
612.4020, 9105.062
613.5700, 9169.000
614.7370, 9183.000
615.9050, 9203.000
617.0720, 9208.000
618.2390, 9347.000
619.4060, 9337.000
620.5720, 9466.000
621.7390, 9536.000
622.9050, 9625.000
624.0710, 9611.000
625.2370, 9728.000
626.4030, 9801.000
627.5690, 9900.000
628.7340, 10055.00
629.9000, 10197.00
631.0650, 10212.00
632.2300, 10510.00
633.3950, 10731.00
634.5600, 10795.00
635.7240, 11092.00
636.8890, 11499.00
638.0530, 11707.00
639.2170, 12151.00
640.3810, 12692.00
641.5450, 13117.00
642.7080, 13679.00
643.8720, 14650.00
645.0350, 15616.00
646.1980, 16720.00
647.3610, 18315.00
648.5240, 20034.00
649.6870, 22312.00
650.8490, 25392.00
652.0120, 28751.00
653.1740, 32305.00
654.3360, 36600.00
655.4980, 41046.00
656.6600, 45532.00
657.8210, 49027.00
658.9830, 50759.00
660.1440, 51091.00
661.3050, 49365.00
662.4660, 46551.00
663.6270, 43225.00
664.7870, 39855.00
665.9480, 37441.00
667.1080, 35184.00
668.2680, 34530.00
669.4280, 34649.00
670.5880, 36005.00
671.7480, 37953.00
672.9070, 41332.00
674.0670, 45054.00
675.2260, 49263.00
676.3850, 53858.00
677.5440, 57667.00
678.7030, 61258.00
679.8610, 63014.00
681.0200, 62870.00
682.1780, 60624.00
683.3360, 56837.00
684.4940, 51107.00
685.6520, 45293.00
686.8090, 39645.00
687.9670, 34413.00
689.1240, 30053.00
690.2810, 26621.00
691.4380, 23505.00
692.5950, 21133.00
693.7520, 19519.00
694.9080, 17813.00
696.0650, 16461.00
697.2210, 15596.00
698.3770, 14940.00
699.5330, 14325.00
700.6880, 13602.00
701.8440, 13338.00
702.9990, 12832.00
704.1550, 12623.00
705.3100, 12090.00
706.4650, 12060.00
707.6190, 11841.00
708.7740, 11675.00
709.9290, 11395.00
711.0830, 11333.00
712.2370, 11114.00
713.3910, 11010.00
714.5450, 10844.00
715.6980, 10680.00
716.8520, 10744.00
718.0050, 10750.00
719.1580, 10619.00
720.3110, 10421.00
721.4640, 10370.00
722.6170, 10381.00
723.7700, 10351.00
724.9220, 10223.00
726.0740, 10263.00
727.2260, 10184.53
728.3780, 10166.00
729.5300, 10144.00
730.6810, 10092.00
731.8330, 10167.00
732.9840, 10051.00
734.1350, 10204.00
735.2860, 10104.00
736.4370, 9904.000
737.5880, 9877.000
738.7380, 9913.000
739.8880, 9901.000
741.0390, 10005.00
742.1890, 10066.00
743.3380, 9987.000
744.4880, 9949.000
745.6380, 9830.000
746.7870, 9916.000
747.9360, 9872.000
749.0850, 9872.000
750.2340, 9872.000
751.3830, 9833.459
752.5310, 9816.922
753.6800, 9763.000
754.8280, 9746.000
755.9760, 9684.000
757.1240, 9635.055
758.2720, 9716.000
759.4190, 9630.000
760.5670, 9629.000
761.7140, 9761.000
762.8610, 9654.000
764.0080, 9574.000
765.1550, 9745.000
766.3020, 9773.000
767.4480, 9658.000
768.5950, 9803.000
769.7410, 9725.000
770.8870, 9676.000
772.0330, 9745.000
773.1780, 9654.000
774.3240, 9810.000
775.4690, 9695.000
776.6140, 9735.000
777.7590, 9730.000
778.9040, 9589.000
780.0490, 9650.000
781.1940, 9593.000
782.3380, 9604.000
783.4820, 9739.000
784.6260, 9568.000
785.7700, 9655.000
786.9140, 9673.000
788.0580, 9631.000
789.2010, 9697.000
790.3450, 9722.000
791.4880, 9666.000
792.6310, 9744.000
793.7730, 9790.000
794.9160, 9698.000
796.0590, 9686.000
797.2010, 9671.000
798.3430, 9690.799
799.4850, 9900.000
800.6270, 9790.000
801.7690, 9845.000
802.9100, 9896.000
804.0520, 9786.000
805.1930, 9822.000
806.3340, 9836.000
807.4750, 9832.000
808.6160, 9859.000
809.7560, 9924.000
810.8970, 9737.000
812.0370, 9770.000
813.1770, 9808.000
814.3170, 9752.000
815.4570, 9796.495
816.5960, 9849.000
817.7360, 9844.000
818.8750, 9830.000
820.0140, 9901.000
821.1530, 9920.000
822.2920, 9940.000
823.4310, 9886.000
824.5690, 9884.850
825.7070, 9877.071
826.8460, 9849.000
827.9840, 9883.000
829.1220, 9926.000
830.2590, 9976.000
831.3970, 9946.000
832.5340, 9995.000
833.6710, 10094.00
834.8080, 10037.00
835.9450, 10140.00
837.0820, 10077.00
838.2190, 10221.00
839.3550, 10210.00
840.4910, 10308.00
841.6270, 10298.00
842.7630, 10408.00
843.8990, 10599.00
845.0350, 10746.00
846.1700, 10769.00
847.3060, 11000.00
848.4410, 11250.00
849.5760, 11568.00
850.7100, 11989.00
851.8450, 12350.00
852.9800, 12632.00
854.1140, 13093.00
855.2480, 13340.00
856.3820, 13498.00
857.5160, 13752.00
858.6500, 13843.00
859.7830, 14090.00
860.9170, 13831.81
862.0500, 13297.00
863.1830, 13277.00
864.3160, 12942.00
865.4480, 12754.00
866.5810, 12396.00
867.7130, 12289.00
868.8460, 11962.00
869.9780, 11751.00
871.1100, 11684.00
872.2410, 11446.00
873.3730, 11280.00
874.5050, 11130.00
875.6360, 10913.00
876.7670, 10929.00
877.8980, 10945.00
879.0290, 10948.00
880.1590, 10779.00
881.2900, 10677.00
882.4200, 10647.00
883.5500, 10700.00
884.6800, 10641.00
885.8100, 10656.86
886.9400, 10737.00
888.0690, 10622.00
889.1990, 10665.00
890.3280, 10588.00
891.4570, 10523.00
892.5860, 10558.00
893.7140, 10644.00
894.8430, 10714.00
895.9710, 10731.74
897.1000, 10573.00
898.2280, 10777.00
899.3560, 10500.00
900.4830, 10508.00
901.6110, 10674.00
902.7380, 10411.00
903.8660, 10528.00
904.9930, 10523.00
906.1200, 10626.00
907.2460, 10698.00
908.3730, 10531.00
909.5000, 10608.00
910.6260, 10590.00
911.7520, 10616.00
912.8780, 10658.00
914.0040, 10687.00
915.1290, 10711.00
916.2550, 10762.00
917.3800, 10818.00
918.5050, 10933.00
919.6300, 11051.00
920.7550, 11064.00
921.8800, 11114.00
923.0040, 11162.00
924.1290, 11331.00
925.2530, 11214.00
926.3770, 11433.00
927.5010, 11474.00
928.6250, 11649.00
929.7480, 11709.00
930.8720, 11898.00
931.9950, 11854.00
933.1180, 12000.00
934.2410, 12058.00
935.3640, 12178.00
936.4860, 12237.00
937.6090, 12134.00
938.7310, 12259.00
939.8530, 12245.00
940.9750, 12050.00
942.0970, 12129.00
943.2180, 12129.00
944.3400, 12063.00
945.4610, 11859.00
946.5820, 11808.00
947.7030, 11755.00
948.8240, 11613.00
949.9450, 11797.00
951.0650, 11629.00
952.1860, 11578.00
953.3060, 11467.00
954.4260, 11564.00
955.5460, 11490.00
956.6650, 11581.00
957.7850, 11505.00
958.9040, 11454.00
960.0230, 11340.00
961.1420, 11422.00
962.2610, 11348.00
963.3800, 11508.00
964.4990, 11373.00
965.6170, 11286.00
966.7350, 11304.00
967.8530, 11371.00
968.9710, 11383.00
970.0890, 11494.00
971.2070, 11352.00
972.3240, 11223.00
973.4410, 11349.00
974.5580, 11404.00
975.6750, 11449.00
976.7920, 11512.00
977.9090, 11590.62
979.0250, 11686.74
980.1410, 11737.00
981.2580, 11925.00
982.3740, 11951.00
983.4890, 12093.00
984.6050, 12098.00
985.7200, 12395.00
986.8360, 12644.00
987.9510, 12892.00
989.0660, 13225.00
990.1810, 13667.00
991.2950, 14252.00
992.4100, 14812.00
993.5240, 15505.56
994.6390, 16278.65
995.7530, 17093.00
996.8660, 18025.00
997.9800, 19040.00
999.0940, 20065.00
1000.207, 21278.00
1001.320, 22460.00
1002.433, 23887.00
1003.546, 25061.00
1004.659, 26357.00
1005.772, 27335.00
1006.884, 28306.00
1007.996, 28743.00
1009.108, 28809.00
1010.220, 28939.00
1011.332, 28816.00
1012.444, 28530.00
1013.555, 28305.00
1014.666, 28073.00
1015.777, 28123.00
1016.888, 28053.00
1017.999, 27696.00
1019.110, 27557.00
1020.220, 26940.00
1021.331, 26763.00
1022.441, 26142.00
1023.551, 25576.00
1024.661, 24923.00
1025.770, 24293.00
1026.880, 23977.00
1027.989, 23032.00
1029.098, 22454.00
1030.207, 21697.00
1031.316, 20846.00
1032.425, 19844.00
1033.533, 18939.00
1034.642, 18415.00
1035.750, 17601.00
1036.858, 16788.00
1037.966, 16121.00
1039.073, 15486.00
1040.181, 15103.00
1041.288, 14769.00
1042.396, 14143.00
1043.503, 13862.00
1044.610, 13554.00
1045.716, 13226.00
1046.823, 13181.00
1047.929, 12865.00
1049.036, 12788.00
1050.142, 12697.00
1051.248, 12559.00
1052.353, 12354.00
1053.459, 12367.00
1054.564, 12101.00
1055.670, 12020.00
1056.775, 12095.00
1057.880, 11955.00
1058.985, 11935.00
1060.089, 11916.00
1061.194, 11731.00
1062.298, 11831.00
1063.402, 11715.00
1064.506, 11658.00
1065.610, 11705.00
1066.713, 11617.00
1067.817, 11636.00
1068.920, 11724.00
1070.023, 11621.00
1071.126, 11584.00
1072.229, 11420.00
1073.332, 11616.00
1074.435, 11522.00
1075.537, 11550.00
1076.639, 11539.00
1077.741, 11524.00
1078.843, 11497.00
1079.945, 11458.00
1081.046, 11452.74
1082.148, 11437.46
1083.249, 11451.00
1084.350, 11425.00
1085.451, 11466.00
1086.551, 11453.09
1087.652, 11657.00
1088.752, 11524.00
1089.853, 11591.00
1090.953, 11636.00
1092.053, 11437.00
1093.152, 11616.00
1094.252, 11593.00
1095.351, 11553.00
1096.451, 11575.00
1097.550, 11583.00
1098.649, 11573.00
1099.748, 11606.00
1100.846, 11615.99
1101.945, 11618.50
1103.043, 11669.00
1104.141, 11633.00
1105.239, 11672.00
1106.337, 11694.00
1107.434, 11622.00
1108.532, 11553.00
1109.629, 11627.00
1110.726, 11627.00
1111.823, 11633.00
1112.920, 11716.00
1114.017, 11508.00
1115.113, 11697.00
1116.210, 11765.00
1117.306, 11586.00
1118.402, 11608.00
1119.498, 11621.00
1120.593, 11570.00
1121.689, 11598.00
1122.784, 11690.00
1123.879, 11665.00
1124.974, 11702.00
1126.069, 11731.00
1127.164, 11528.00
1128.259, 11653.00
1129.353, 11628.00
1130.447, 11732.00
1131.541, 11634.00
1132.635, 11716.00
1133.729, 11622.00
1134.822, 11684.00
1135.916, 11581.00
1137.009, 11741.00
1138.102, 11717.00
1139.195, 11731.00
1140.288, 11795.00
1141.380, 11690.00
1142.473, 11725.22
1143.565, 11561.00
1144.657, 11658.00
1145.749, 11624.00
1146.841, 11506.00
1147.932, 11589.00
1149.024, 11588.00
1150.115, 11431.00
1151.206, 11564.00
1152.297, 11553.00
1153.388, 11540.00
1154.479, 11678.00
1155.569, 11512.00
1156.659, 11621.00
1157.750, 11770.00
1158.839, 11539.00
1159.929, 11477.00
1161.019, 11739.00
1162.108, 11593.00
1163.198, 11690.00
1164.287, 11611.00
1165.376, 11555.00
1166.465, 11561.00
1167.553, 11589.00
1168.642, 11713.00
1169.730, 11688.00
1170.818, 11663.00
1171.906, 11667.00
1172.994, 11615.00
1174.082, 11590.00
1175.170, 11585.00
1176.257, 11514.00
1177.344, 11606.00
1178.431, 11528.00
1179.518, 11622.00
1180.605, 11704.00
1181.691, 11574.00
1182.778, 11559.00
1183.864, 11516.00
1184.950, 11453.00
1186.036, 11494.49
1187.122, 11611.00
1188.207, 11544.00
1189.292, 11663.00
1190.378, 11649.00
1191.463, 11617.00
1192.548, 11600.00
1193.632, 11549.71
1194.717, 11536.10
1195.801, 11474.00
1196.886, 11537.00
1197.970, 11574.00
1199.054, 11669.00
1200.137, 11605.00
1201.221, 11581.00
1202.305, 11663.00
1203.388, 11610.00
1204.471, 11542.00
1205.554, 11635.00
1206.637, 11619.00
1207.719, 11695.00
1208.802, 11732.00
1209.884, 11618.00
1210.966, 11590.00
1212.048, 11812.00
1213.130, 11810.00
1214.212, 11677.00
1215.293, 12085.00
1216.374, 12323.00
1217.456, 11640.00
1218.536, 11581.00
1219.617, 11691.00
1220.698, 11705.00
1221.778, 11629.00
1222.859, 11826.00
1223.939, 11705.00
1225.019, 11654.00
1226.099, 11644.00
1227.178, 11821.00
1228.258, 11695.00
1229.337, 11811.00
1230.417, 11919.00
1231.496, 11934.00
1232.574, 11963.00
1233.653, 11992.67
1234.732, 11943.85
1235.810, 12018.00
1236.888, 11876.00
1237.966, 11906.00
1239.044, 11964.00
1240.122, 11898.00
1241.199, 11925.00
1242.277, 11867.00
1243.354, 11892.81
1244.431, 11970.00
1245.508, 11952.00
1246.585, 11973.00
1247.661, 12021.00
1248.738, 12045.00
1249.814, 12135.00
1250.890, 12131.44
1251.966, 12165.00
1253.042, 12118.00
1254.117, 12112.00
1255.193, 12035.00
1256.268, 12164.00
1257.343, 12057.00
1258.418, 12010.00
1259.493, 12256.00
1260.567, 12270.00
1261.642, 12169.00
1262.716, 12263.00
1263.790, 12295.00
1264.864, 12239.00
1265.938, 12224.00
1267.011, 12239.43
1268.085, 12243.00
1269.158, 12257.00
1270.231, 12300.00
1271.304, 12305.00
1272.377, 12360.00
1273.450, 12374.00
1274.522, 12348.00
1275.594, 12339.00
1276.666, 12379.00
1277.738, 12392.45
1278.810, 12335.00
1279.882, 12445.00
1280.953, 12496.00
1282.025, 12464.00
1283.096, 12480.00
1284.167, 12423.00
1285.238, 12537.00
1286.308, 12403.00
1287.379, 12517.00
1288.449, 12451.00
1289.519, 12485.00
1290.589, 12723.00
1291.659, 12700.00
1292.729, 12700.00
1293.798, 12634.00
1294.868, 12653.00
1295.937, 12600.00
1297.006, 12768.00
1298.075, 12692.00
1299.143, 12806.00
1300.212, 12740.00
1301.280, 12885.00
1302.348, 12745.00
1303.416, 12882.00
1304.484, 12858.00
1305.552, 12778.00
1306.620, 12826.00
1307.687, 12785.00
1308.754, 12778.99
1309.821, 12808.00
1310.888, 12819.00
1311.955, 12946.00
1313.021, 12923.33
1314.088, 12964.36
1315.154, 12951.00
1316.220, 12981.00
1317.286, 13013.00
1318.352, 13001.00
1319.417, 13073.00
1320.483, 12977.00
1321.548, 13055.00
1322.613, 13098.00
1323.678, 13083.00
1324.743, 13123.00
1325.807, 13083.00
1326.872, 13144.00
1327.936, 13150.00
1329.000, 13025.00
1330.064, 13240.00
1331.128, 13282.00
1332.191, 13160.00
1333.255, 13345.00
1334.318, 13095.00
1335.381, 13315.00
1336.444, 13265.00
1337.507, 13324.00
1338.569, 13154.00
1339.632, 13464.00
1340.694, 13264.00
1341.756, 13368.00
1342.818, 13208.00
1343.880, 13418.00
1344.941, 13409.00
1346.003, 13453.00
1347.064, 13547.00
1348.125, 13441.00
1349.186, 13511.00
1350.247, 13398.00
1351.308, 13572.00
1352.368, 13593.00
1353.428, 13610.00
1354.489, 13493.00
1355.549, 13612.00
1356.608, 13725.00
1357.668, 13780.00
1358.727, 13507.00
1359.787, 13720.00
1360.846, 13666.00
1361.905, 13729.00
1362.964, 13777.00
1364.022, 13642.00
1365.081, 13821.00
1366.139, 13647.00
1367.197, 13832.00
1368.255, 13911.00
1369.313, 13851.00
1370.371, 13844.00
1371.428, 13877.00
1372.486, 13974.00
1373.543, 14006.00
1374.600, 13802.00
1375.657, 13991.00
1376.713, 13855.00
1377.770, 13999.00
1378.826, 13986.00
1379.882, 14026.00
1380.938, 13967.00
1381.994, 14134.00
1383.050, 13872.00
1384.106, 14019.00
1385.161, 14081.00
1386.216, 14002.00
1387.271, 14008.00
1388.326, 14155.00
1389.381, 14201.00
1390.435, 14225.21
1391.490, 14256.72
1392.544, 14281.00
1393.598, 14228.00
1394.652, 14291.00
1395.705, 14273.00
1396.759, 14266.00
1397.812, 14383.00
1398.866, 14212.00
1399.919, 14262.00
1400.972, 14437.00
1402.024, 14286.00
1403.077, 14408.00
1404.129, 14417.00
1405.181, 14349.00
1406.233, 14371.00
1407.285, 14332.00
1408.337, 14370.54
1409.389, 14531.00
1410.440, 14492.00
1411.491, 14458.00
1412.542, 14566.00
1413.593, 14460.00
1414.644, 14573.00
1415.695, 14452.00
1416.745, 14498.00
1417.795, 14662.00
1418.845, 14414.00
1419.895, 14600.00
1420.945, 14717.00
1421.995, 14629.00
1423.044, 14556.00
1424.093, 14733.00
1425.142, 14720.00
1426.191, 14741.90
1427.240, 14932.00
1428.289, 14791.00
1429.337, 14828.00
1430.385, 14894.00
1431.433, 14859.00
1432.481, 14810.00
1433.529, 14947.00
1434.577, 14899.00
1435.624, 14952.00
1436.672, 14986.00
1437.719, 14975.00
1438.766, 14992.61
1439.812, 15009.23
1440.859, 14984.00
1441.905, 15034.00
1442.952, 15048.00
1443.998, 15046.00
1445.044, 15222.00
1446.090, 15233.00
1447.135, 15189.00
1448.181, 15152.00
1449.226, 15163.00
1450.271, 15160.66
1451.316, 15255.00
1452.361, 15203.00
1453.405, 15225.00
1454.450, 15242.00
1455.494, 15480.00
1456.538, 15354.00
1457.582, 15497.00
1458.626, 15380.00
1459.670, 15424.00
1460.713, 15560.00
1461.757, 15410.00
1462.800, 15537.00
1463.843, 15469.00
1464.886, 15452.00
1465.928, 15522.00
1466.971, 15541.00
1468.013, 15620.00
1469.055, 15505.00
1470.097, 15815.00
1471.139, 15549.00
1472.181, 15752.00
1473.222, 15731.00
1474.263, 15729.00
1475.305, 15622.00
1476.346, 15866.00
1477.386, 15797.00
1478.427, 15622.00
1479.468, 15601.00
1480.508, 15873.00
1481.548, 15622.00
1482.588, 15877.00
1483.628, 15911.00
1484.668, 15719.00
1485.707, 15991.00
1486.747, 16038.00
1487.786, 15828.00
1488.825, 15863.00
1489.864, 15853.00
1490.902, 16019.00
1491.941, 16158.00
1492.979, 16086.00
1494.017, 15869.00
1495.055, 15819.00
1496.093, 15933.00
1497.131, 16092.00
1498.168, 16128.00
1499.206, 16291.00
1500.243, 16201.00
1501.280, 16199.00
1502.317, 16046.00
1503.354, 16151.00
1504.390, 16053.00
1505.426, 16333.00
1506.463, 16245.00
1507.499, 16146.00
1508.535, 16093.00
1509.570, 16095.58
1510.606, 16171.00
1511.641, 16216.00
1512.676, 16153.00
1513.711, 16340.00
1514.746, 16286.00
1515.781, 16519.00
1516.816, 16322.00
1517.850, 16401.00
1518.884, 16302.00
1519.918, 16439.00
1520.952, 16477.00
1521.986, 16562.00
1523.019, 16586.67
1524.053, 16355.00
1525.086, 16592.00
1526.119, 16487.00
1527.152, 16460.00
1528.185, 16539.00
1529.217, 16553.00
1530.250, 16547.00
1531.282, 16596.00
1532.314, 16532.00
1533.346, 16541.00
1534.377, 16544.00
1535.409, 16572.00
1536.440, 16576.00
1537.472, 16609.00
1538.503, 16701.00
1539.534, 16659.00
1540.564, 16825.00
1541.595, 16589.00
1542.625, 16687.00
1543.656, 16772.00
1544.686, 16608.00
1545.716, 16673.00
1546.745, 16655.00
1547.775, 16526.00
1548.804, 16900.00
1549.834, 16839.00
1550.863, 16809.00
1551.892, 16892.00
1552.920, 16967.00
1553.949, 17062.00
1554.977, 16836.00
1556.006, 16845.00
1557.034, 16913.00
1558.062, 16950.00
1559.089, 16899.00
1560.117, 16795.00
1561.144, 16960.00
1562.172, 16857.00
1563.199, 17121.00
1564.226, 17008.00
1565.252, 17053.00
1566.279, 17169.00
1567.305, 17109.00
1568.332, 17012.00
1569.358, 17025.00
1570.384, 17080.00
##END=



