##NAMES=Enstatite
##RRUFFID=R060744
##IDEAL CHEMISTRY=MgSiO_3_
##LOCALITY=Orissa, India
##OWNER=RRUFF
##SOURCE=Herb Obodda
##DESCRIPTION=Brown transparent fragment
##STATUS=The identification of this mineral has been confirmed by X-ray diffraction and chemical analysis
##URL=rruff.info/R060744
##MEASURED CHEMISTRY=(Mg_0.85_Fe^2+^_0.13_Fe^3+^_0.01_Mn_0.01_)_Σ=1_(Si_0.99_Al_0.01_)_Σ=1_O_3_; trace amounts of Ca; Fe^2+^ and Fe^3+^ splitted by charge balance
##PIN_ID=L01127
##ORIENTATION=Laser parallel to -b* (0 -1 0). Fiducial mark perpendicular to laser is parallel to -c [0 0 -1]
113.2080, 5183.000
114.4400, 5329.000
115.6710, 5653.000
116.9030, 5973.000
118.1340, 6549.000
119.3650, 7091.000
120.5960, 7537.000
121.8270, 8390.000
123.0580, 9272.000
124.2880, 10619.00
125.5190, 11888.00
126.7490, 12920.00
127.9790, 13254.00
129.2090, 12973.00
130.4390, 12000.00
131.6680, 10954.00
132.8980, 10318.00
134.1270, 9216.000
135.3560, 8623.000
136.5850, 8193.000
137.8140, 7962.000
139.0430, 7712.000
140.2710, 7589.000
141.5000, 7611.000
142.7280, 7443.000
143.9560, 7461.000
145.1840, 7348.000
146.4120, 7034.000
147.6390, 6883.000
148.8670, 6717.000
150.0940, 6602.000
151.3210, 6237.000
152.5490, 6122.000
153.7750, 5936.000
155.0020, 5918.000
156.2290, 5818.000
157.4550, 5787.000
158.6810, 5691.000
159.9080, 5620.000
161.1340, 5647.000
162.3590, 5711.000
163.5850, 5690.000
164.8110, 5697.000
166.0360, 5604.000
167.2610, 5673.000
168.4860, 5695.000
169.7110, 5567.000
170.9360, 5575.000
172.1610, 5532.000
173.3850, 5610.000
174.6100, 5670.000
175.8340, 5641.000
177.0580, 5608.000
178.2820, 5641.000
179.5050, 5651.964
180.7290, 5703.000
181.9520, 5757.000
183.1760, 5764.000
184.3990, 5869.000
185.6220, 5849.000
186.8450, 5931.000
188.0670, 5967.000
189.2900, 5908.000
190.5120, 5887.000
191.7340, 5902.000
192.9560, 5910.825
194.1780, 5963.000
195.4000, 5972.000
196.6220, 6006.005
197.8430, 6080.000
199.0640, 6073.000
200.2860, 6095.000
201.5070, 6142.000
202.7270, 6059.000
203.9480, 6026.000
205.1690, 6084.000
206.3890, 5965.000
207.6090, 5985.000
208.8290, 5952.000
210.0490, 5932.000
211.2690, 6007.000
212.4890, 6129.000
213.7080, 6072.000
214.9280, 6059.000
216.1470, 6244.000
217.3660, 6328.000
218.5850, 6430.000
219.8030, 6550.000
221.0220, 6753.000
222.2400, 7061.000
223.4590, 7455.000
224.6770, 7801.000
225.8950, 8217.000
227.1120, 8726.000
228.3300, 9188.000
229.5480, 10015.00
230.7650, 10555.00
231.9820, 11211.00
233.1990, 11272.00
234.4160, 11043.00
235.6330, 10674.00
236.8490, 9855.000
238.0660, 9294.000
239.2820, 8644.000
240.4980, 7914.000
241.7140, 7419.000
242.9300, 6985.000
244.1460, 6655.000
245.3610, 6579.000
246.5770, 6541.000
247.7920, 6484.000
249.0070, 6537.000
250.2220, 6557.000
251.4370, 6477.000
252.6510, 6588.000
253.8660, 6486.000
255.0800, 6637.000
256.2940, 6615.000
257.5080, 6762.000
258.7220, 6761.000
259.9360, 6719.000
261.1490, 6628.000
262.3630, 6699.000
263.5760, 6781.000
264.7890, 6850.000
266.0020, 7017.000
267.2150, 7128.000
268.4270, 7176.000
269.6400, 7234.000
270.8520, 7259.000
272.0640, 7217.000
273.2760, 7070.000
274.4880, 6925.000
275.7000, 6852.000
276.9120, 6686.000
278.1230, 6522.000
279.3340, 6469.000
280.5450, 6440.000
281.7560, 6448.000
282.9670, 6539.000
284.1780, 6553.000
285.3880, 6691.000
286.5980, 6723.000
287.8090, 6890.000
289.0190, 7045.000
290.2290, 7129.000
291.4380, 7241.000
292.6480, 7399.000
293.8570, 7463.000
295.0670, 7555.000
296.2760, 7534.000
297.4850, 7446.000
298.6930, 7497.000
299.9020, 7387.000
301.1110, 7342.000
302.3190, 7419.000
303.5270, 7411.000
304.7350, 7366.000
305.9430, 7533.000
307.1510, 7565.000
308.3580, 7780.000
309.5660, 8100.000
310.7730, 8245.000
311.9800, 8657.000
313.1870, 8934.000
314.3940, 9202.000
315.6010, 9572.000
316.8070, 9813.000
318.0130, 10177.00
319.2200, 10238.00
320.4260, 10766.00
321.6310, 11125.00
322.8370, 11598.00
324.0430, 12300.00
325.2480, 13091.00
326.4540, 14089.00
327.6590, 15320.00
328.8640, 16668.00
330.0680, 18314.00
331.2730, 20139.00
332.4780, 22239.00
333.6820, 24214.00
334.8860, 26211.00
336.0900, 27731.00
337.2940, 28499.00
338.4980, 28198.00
339.7010, 27183.00
340.9050, 25672.00
342.1080, 23499.00
343.3110, 21125.00
344.5140, 19019.00
345.7170, 17021.00
346.9200, 15402.67
348.1220, 13997.00
349.3240, 12816.00
350.5270, 11977.00
351.7290, 11307.00
352.9310, 10763.00
354.1320, 10214.00
355.3340, 9896.000
356.5350, 9590.000
357.7370, 9339.000
358.9380, 9139.000
360.1390, 8874.000
361.3400, 8729.000
362.5400, 8566.000
363.7410, 8477.000
364.9410, 8455.000
366.1410, 8401.000
367.3410, 8434.000
368.5410, 8393.000
369.7410, 8532.000
370.9400, 8560.000
372.1400, 8781.000
373.3390, 8760.000
374.5380, 8931.000
375.7370, 9092.000
376.9360, 8951.000
378.1350, 9061.000
379.3330, 8942.000
380.5310, 8811.000
381.7300, 8828.000
382.9280, 8573.000
384.1260, 8541.000
385.3230, 8492.000
386.5210, 8614.000
387.7180, 8748.000
388.9160, 8926.000
390.1130, 8978.000
391.3100, 9235.000
392.5060, 9393.000
393.7030, 9465.000
394.9000, 9742.000
396.0960, 9847.000
397.2920, 9832.000
398.4880, 9920.000
399.6840, 9877.000
400.8800, 9692.000
402.0750, 9647.000
403.2710, 9656.000
404.4660, 9462.000
405.6610, 9493.000
406.8560, 9443.000
408.0510, 9379.000
409.2450, 9292.000
410.4400, 9183.300
411.6340, 9054.237
412.8280, 8912.000
414.0220, 8742.000
415.2160, 8568.000
416.4100, 8384.000
417.6030, 8275.000
418.7970, 8091.000
419.9900, 7951.000
421.1830, 7896.000
422.3760, 7798.000
423.5690, 7834.000
424.7610, 7809.000
425.9540, 7814.000
427.1460, 7917.376
428.3380, 7934.000
429.5300, 8156.000
430.7220, 8225.000
431.9140, 8379.000
433.1050, 8574.000
434.2970, 8800.000
435.4880, 8875.000
436.6790, 9093.000
437.8700, 9052.000
439.0610, 8852.000
440.2510, 8458.000
441.4420, 8378.000
442.6320, 8007.000
443.8220, 7918.000
445.0120, 7798.000
446.2020, 7756.000
447.3910, 7467.000
448.5810, 7468.000
449.7700, 7545.000
450.9600, 7441.000
452.1490, 7608.000
453.3370, 7465.000
454.5260, 7562.000
455.7150, 7469.000
456.9030, 7484.000
458.0910, 7552.000
459.2800, 7525.000
460.4670, 7618.000
461.6550, 7517.000
462.8430, 7569.000
464.0300, 7575.000
465.2180, 7492.000
466.4050, 7559.000
467.5920, 7549.000
468.7790, 7633.000
469.9650, 7557.000
471.1520, 7425.000
472.3380, 7462.000
473.5250, 7301.000
474.7110, 7376.000
475.8970, 7298.000
477.0820, 7417.000
478.2680, 7275.000
479.4540, 7345.000
480.6390, 7263.000
481.8240, 7329.000
483.0090, 7289.000
484.1940, 7377.000
485.3780, 7383.000
486.5630, 7314.000
487.7470, 7350.083
488.9320, 7199.000
490.1160, 7317.000
491.3000, 7270.000
492.4830, 7245.000
493.6670, 7275.000
494.8500, 7229.000
496.0340, 7353.000
497.2170, 7306.000
498.4000, 7258.000
499.5820, 7164.000
500.7650, 7427.000
501.9480, 7267.000
503.1300, 7421.000
504.3120, 7470.000
505.4940, 7396.000
506.6760, 7357.000
507.8580, 7304.000
509.0390, 7514.000
510.2210, 7569.000
511.4020, 7619.000
512.5830, 7705.000
513.7640, 7770.000
514.9450, 7903.000
516.1250, 7875.000
517.3060, 8041.000
518.4860, 7974.000
519.6660, 8134.000
520.8460, 8051.000
522.0260, 8200.000
523.2060, 8124.000
524.3850, 8233.000
525.5650, 8333.000
526.7440, 8436.000
527.9230, 8548.000
529.1020, 8744.000
530.2810, 8880.000
531.4590, 8936.000
532.6380, 9204.000
533.8160, 9463.000
534.9940, 9584.000
536.1720, 9546.000
537.3500, 9448.000
538.5270, 9452.000
539.7050, 9094.000
540.8820, 9096.000
542.0590, 9008.000
543.2360, 8771.000
544.4130, 8801.000
545.5900, 8706.000
546.7660, 8730.000
547.9430, 8573.000
549.1190, 8558.000
550.2950, 8529.000
551.4710, 8461.000
552.6470, 8402.000
553.8220, 8325.000
554.9980, 8311.000
556.1730, 8223.000
557.3480, 8184.000
558.5230, 8177.000
559.6980, 8298.000
560.8730, 8116.000
562.0470, 8225.000
563.2220, 8317.000
564.3960, 8261.000
565.5700, 8293.000
566.7440, 8287.000
567.9170, 8377.000
569.0910, 8384.790
570.2640, 8369.000
571.4380, 8458.000
572.6110, 8483.000
573.7840, 8537.000
574.9570, 8482.000
576.1290, 8420.000
577.3020, 8498.000
578.4740, 8439.000
579.6460, 8425.567
580.8180, 8400.000
581.9900, 8352.000
583.1620, 8382.000
584.3330, 8317.000
585.5040, 8396.000
586.6760, 8316.000
587.8470, 8323.000
589.0180, 8304.000
590.1880, 8343.000
591.3590, 8363.000
592.5290, 8282.000
593.7000, 8425.000
594.8700, 8428.000
596.0400, 8396.000
597.2090, 8357.000
598.3790, 8432.000
599.5490, 8449.000
600.7180, 8418.000
601.8870, 8408.000
603.0560, 8431.000
604.2250, 8446.165
605.3940, 8455.000
606.5620, 8495.000
607.7300, 8555.000
608.8990, 8525.000
610.0670, 8534.000
611.2350, 8513.000
612.4020, 8655.000
613.5700, 8642.000
614.7370, 8657.000
615.9050, 8740.000
617.0720, 8685.000
618.2390, 8716.000
619.4060, 8809.000
620.5720, 8934.000
621.7390, 9011.000
622.9050, 8972.000
624.0710, 9033.000
625.2370, 9035.000
626.4030, 9162.000
627.5690, 9249.000
628.7340, 9248.000
629.9000, 9323.000
631.0650, 9507.000
632.2300, 9616.000
633.3950, 9703.000
634.5600, 9869.000
635.7240, 10035.00
636.8890, 10152.00
638.0530, 10376.00
639.2170, 10683.00
640.3810, 11040.00
641.5450, 11179.00
642.7080, 11612.00
643.8720, 12270.00
645.0350, 12703.00
646.1980, 13496.00
647.3610, 14316.00
648.5240, 15536.00
649.6870, 16892.00
650.8490, 18442.00
652.0120, 20415.00
653.1740, 22596.00
654.3360, 25197.00
655.4980, 27623.00
656.6600, 29586.00
657.8210, 31741.00
658.9830, 32846.00
660.1440, 32917.00
661.3050, 31967.00
662.4660, 30788.00
663.6270, 29109.00
664.7870, 27422.00
665.9480, 26095.00
667.1080, 25151.00
668.2680, 24590.00
669.4280, 25127.00
670.5880, 25937.00
671.7480, 27432.00
672.9070, 29603.00
674.0670, 32270.00
675.2260, 35230.00
676.3850, 38105.00
677.5440, 41071.00
678.7030, 43075.00
679.8610, 44630.00
681.0200, 44359.00
682.1780, 43022.00
683.3360, 40477.00
684.4940, 36872.00
685.6520, 32924.00
686.8090, 29108.00
687.9670, 25700.00
689.1240, 22653.00
690.2810, 20232.00
691.4380, 18155.00
692.5950, 16656.00
693.7520, 15398.00
694.9080, 14273.00
696.0650, 13732.00
697.2210, 12995.00
698.3770, 12365.00
699.5330, 12096.00
700.6880, 11662.00
701.8440, 11375.00
702.9990, 11112.00
704.1550, 10981.00
705.3100, 10865.00
706.4650, 10635.00
707.6190, 10426.00
708.7740, 10355.00
709.9290, 10178.00
711.0830, 10048.00
712.2370, 9999.000
713.3910, 9918.000
714.5450, 9938.000
715.6980, 9918.000
716.8520, 9781.000
718.0050, 9764.000
719.1580, 9709.000
720.3110, 9648.158
721.4640, 9661.000
722.6170, 9610.000
723.7700, 9517.000
724.9220, 9585.000
726.0740, 9616.000
727.2260, 9540.000
728.3780, 9473.000
729.5300, 9458.000
730.6810, 9407.188
731.8330, 9402.750
732.9840, 9364.000
734.1350, 9391.000
735.2860, 9395.000
736.4370, 9360.000
737.5880, 9384.000
738.7380, 9278.000
739.8880, 9400.000
741.0390, 9480.000
742.1890, 9243.000
743.3380, 9373.000
744.4880, 9438.000
745.6380, 9450.000
746.7870, 9534.000
747.9360, 9372.000
749.0850, 9434.000
750.2340, 9473.000
751.3830, 9307.000
752.5310, 9451.000
753.6800, 9333.000
754.8280, 9366.000
755.9760, 9207.000
757.1240, 9388.000
758.2720, 9276.000
759.4190, 9213.000
760.5670, 9318.000
761.7140, 9292.000
762.8610, 9386.000
764.0080, 9307.000
765.1550, 9338.000
766.3020, 9380.000
767.4480, 9265.000
768.5950, 9192.000
769.7410, 9355.000
770.8870, 9389.000
772.0330, 9292.000
773.1780, 9327.000
774.3240, 9283.000
775.4690, 9400.000
776.6140, 9450.000
777.7590, 9346.000
778.9040, 9155.000
780.0490, 9341.000
781.1940, 9301.000
782.3380, 9404.000
783.4820, 9250.000
784.6260, 9267.000
785.7700, 9364.000
786.9140, 9347.000
788.0580, 9455.000
789.2010, 9380.000
790.3450, 9375.000
791.4880, 9329.000
792.6310, 9272.000
793.7730, 9293.000
794.9160, 9281.957
796.0590, 9293.147
797.2010, 9361.000
798.3430, 9319.000
799.4850, 9437.000
800.6270, 9410.000
801.7690, 9427.000
802.9100, 9466.000
804.0520, 9470.000
805.1930, 9478.000
806.3340, 9416.000
807.4750, 9478.000
808.6160, 9557.000
809.7560, 9427.000
810.8970, 9532.000
812.0370, 9629.000
813.1770, 9610.000
814.3170, 9558.000
815.4570, 9579.000
816.5960, 9571.000
817.7360, 9496.000
818.8750, 9667.000
820.0140, 9608.000
821.1530, 9638.000
822.2920, 9606.000
823.4310, 9614.000
824.5690, 9648.000
825.7070, 9655.000
826.8460, 9611.000
827.9840, 9647.349
829.1220, 9619.000
830.2590, 9633.000
831.3970, 9706.000
832.5340, 9621.000
833.6710, 9748.000
834.8080, 9778.000
835.9450, 9687.000
837.0820, 9627.000
838.2190, 9769.000
839.3550, 9899.000
840.4910, 9846.000
841.6270, 9915.000
842.7630, 9982.000
843.8990, 9916.000
845.0350, 9983.000
846.1700, 10013.00
847.3060, 10024.00
848.4410, 10217.00
849.5760, 10329.00
850.7100, 10312.00
851.8450, 10641.00
852.9800, 10700.00
854.1140, 11014.00
855.2480, 11023.00
856.3820, 11080.00
857.5160, 11119.00
858.6500, 11171.00
859.7830, 11082.00
860.9170, 10819.00
862.0500, 10957.00
863.1830, 10805.00
864.3160, 10692.00
865.4480, 10778.00
866.5810, 10633.00
867.7130, 10662.00
868.8460, 10540.00
869.9780, 10253.00
871.1100, 10556.00
872.2410, 10215.00
873.3730, 10294.00
874.5050, 10250.00
875.6360, 10121.00
876.7670, 10106.00
877.8980, 10151.00
879.0290, 10188.00
880.1590, 10209.00
881.2900, 10132.00
882.4200, 10041.00
883.5500, 10111.00
884.6800, 10233.00
885.8100, 10105.00
886.9400, 10244.00
888.0690, 10139.00
889.1990, 10088.00
890.3280, 10017.00
891.4570, 10274.00
892.5860, 10177.00
893.7140, 10247.00
894.8430, 10168.00
895.9710, 10156.00
897.1000, 10160.00
898.2280, 10135.00
899.3560, 10242.00
900.4830, 10228.00
901.6110, 10113.00
902.7380, 10151.00
903.8660, 10251.00
904.9930, 10280.00
906.1200, 10338.00
907.2460, 10229.00
908.3730, 10272.00
909.5000, 10275.00
910.6260, 10246.00
911.7520, 10415.00
912.8780, 10377.00
914.0040, 10460.00
915.1290, 10477.00
916.2550, 10668.00
917.3800, 10614.00
918.5050, 10759.00
919.6300, 10809.00
920.7550, 10709.00
921.8800, 10986.00
923.0040, 11081.00
924.1290, 11310.00
925.2530, 11280.00
926.3770, 11637.00
927.5010, 11719.00
928.6250, 12068.00
929.7480, 12219.00
930.8720, 12527.00
931.9950, 12630.00
933.1180, 12853.00
934.2410, 13083.00
935.3640, 13172.00
936.4860, 13267.00
937.6090, 13196.00
938.7310, 13221.00
939.8530, 13073.00
940.9750, 12971.35
942.0970, 12804.00
943.2180, 12650.00
944.3400, 12414.00
945.4610, 12199.00
946.5820, 11971.00
947.7030, 11943.00
948.8240, 11732.00
949.9450, 11684.00
951.0650, 11639.00
952.1860, 11575.00
953.3060, 11523.00
954.4260, 11427.00
955.5460, 11280.00
956.6650, 11385.00
957.7850, 11270.00
958.9040, 11218.00
960.0230, 11259.00
961.1420, 11263.00
962.2610, 11374.00
963.3800, 11237.00
964.4990, 11343.00
965.6170, 11312.00
966.7350, 11200.00
967.8530, 11287.00
968.9710, 11260.00
970.0890, 11402.00
971.2070, 11453.00
972.3240, 11453.00
973.4410, 11512.00
974.5580, 11482.00
975.6750, 11693.00
976.7920, 11750.00
977.9090, 11815.00
979.0250, 11994.00
980.1410, 12189.00
981.2580, 12373.00
982.3740, 12454.00
983.4890, 12633.00
984.6050, 13086.00
985.7200, 13569.00
986.8360, 13822.00
987.9510, 14380.00
989.0660, 14839.00
990.1810, 15517.00
991.2950, 16487.00
992.4100, 17630.00
993.5240, 19143.00
994.6390, 20608.00
995.7530, 22560.00
996.8660, 25098.00
997.9800, 27886.00
999.0940, 31289.00
1000.207, 35282.00
1001.320, 40256.00
1002.433, 45580.00
1003.546, 50907.00
1004.659, 56173.00
1005.772, 60458.00
1006.884, 63073.00
1007.996, 63031.00
1009.108, 60788.00
1010.220, 57066.00
1011.332, 51977.00
1012.444, 46583.00
1013.555, 41739.00
1014.666, 37525.00
1015.777, 33989.00
1016.888, 31519.00
1017.999, 29413.00
1019.110, 27730.00
1020.220, 26055.00
1021.331, 25195.00
1022.441, 24058.00
1023.551, 23232.00
1024.661, 22483.00
1025.770, 21884.00
1026.880, 21156.00
1027.989, 20540.00
1029.098, 19813.00
1030.207, 19347.00
1031.316, 18507.00
1032.425, 17828.00
1033.533, 17313.00
1034.642, 16608.00
1035.750, 15977.00
1036.858, 15524.00
1037.966, 15032.00
1039.073, 14597.44
1040.181, 14242.00
1041.288, 13853.00
1042.396, 13543.00
1043.503, 13242.00
1044.610, 13014.00
1045.716, 12648.00
1046.823, 12477.00
1047.929, 12298.00
1049.036, 12257.00
1050.142, 12065.00
1051.248, 11783.00
1052.353, 11833.00
1053.459, 11708.00
1054.564, 11543.00
1055.670, 11536.00
1056.775, 11422.00
1057.880, 11316.00
1058.985, 11168.00
1060.089, 11241.00
1061.194, 11153.00
1062.298, 11024.00
1063.402, 11179.00
1064.506, 11119.00
1065.610, 10932.00
1066.713, 10952.00
1067.817, 11128.00
1068.920, 10902.00
1070.023, 10988.00
1071.126, 10829.00
1072.229, 10960.00
1073.332, 10834.00
1074.435, 10859.00
1075.537, 10821.00
1076.639, 10872.00
1077.741, 10780.00
1078.843, 10774.00
1079.945, 10716.00
1081.046, 10722.00
1082.148, 10783.00
1083.249, 10639.00
1084.350, 10868.00
1085.451, 10775.00
1086.551, 10756.00
1087.652, 10737.00
1088.752, 10733.00
1089.853, 10750.00
1090.953, 10732.00
1092.053, 10776.00
1093.152, 10714.00
1094.252, 10644.00
1095.351, 10657.00
1096.451, 10586.00
1097.550, 10691.00
1098.649, 10676.00
1099.748, 10683.00
1100.846, 10637.00
1101.945, 10765.00
1103.043, 10679.00
1104.141, 10713.00
1105.239, 10625.00
1106.337, 10669.00
1107.434, 10753.00
1108.532, 10635.00
1109.629, 10700.00
1110.726, 10617.00
1111.823, 10696.00
1112.920, 10563.00
1114.017, 10807.00
1115.113, 10666.00
1116.210, 10754.00
1117.306, 10836.00
1118.402, 10835.00
1119.498, 10879.54
1120.593, 10996.00
1121.689, 10901.00
1122.784, 10916.00
1123.879, 10943.00
1124.974, 10871.00
1126.069, 10792.00
1127.164, 10874.00
1128.259, 10651.00
1129.353, 10729.00
1130.447, 10766.00
1131.541, 10733.00
1132.635, 10763.03
1133.729, 10802.00
1134.822, 10743.00
1135.916, 10748.00
1137.009, 10741.00
1138.102, 10581.00
1139.195, 10565.00
1140.288, 10524.04
1141.380, 10522.16
1142.473, 10534.00
1143.565, 10589.00
1144.657, 10723.00
1145.749, 10742.00
1146.841, 10742.00
1147.932, 10616.00
1149.024, 10582.00
1150.115, 10521.00
1151.206, 10554.00
1152.297, 10529.98
1153.388, 10534.87
1154.479, 10584.00
1155.569, 10578.00
1156.659, 10692.00
1157.750, 10765.00
1158.839, 10647.00
1159.929, 10595.00
1161.019, 10631.00
1162.108, 10799.00
1163.198, 10687.00
1164.287, 10691.00
1165.376, 10680.00
1166.465, 10571.00
1167.553, 10722.00
1168.642, 10582.00
1169.730, 10683.00
1170.818, 10690.00
1171.906, 10707.00
1172.994, 10668.00
1174.082, 10672.06
1175.170, 10711.00
1176.257, 10657.00
1177.344, 10650.00
1178.431, 10675.00
1179.518, 10624.00
1180.605, 10732.00
1181.691, 10695.00
1182.778, 10580.00
1183.864, 10622.00
1184.950, 10699.00
1186.036, 10753.00
1187.122, 10698.00
1188.207, 10618.00
1189.292, 10489.00
1190.378, 10725.00
1191.463, 10692.00
1192.548, 10730.00
1193.632, 10686.00
1194.717, 10666.00
1195.801, 10840.00
1196.886, 10734.00
1197.970, 10674.00
1199.054, 10751.00
1200.137, 10666.00
1201.221, 10673.00
1202.305, 10688.00
1203.388, 10751.00
1204.471, 10729.00
1205.554, 10827.00
1206.637, 10777.00
1207.719, 10803.00
1208.802, 10703.00
1209.884, 10678.00
1210.966, 10802.00
1212.048, 10820.00
1213.130, 10892.00
1214.212, 10935.00
1215.293, 10865.00
1216.374, 10807.00
1217.456, 10819.00
1218.536, 10832.00
1219.617, 10826.00
1220.698, 10864.00
1221.778, 10899.00
1222.859, 10812.00
1223.939, 10928.00
1225.019, 10868.00
1226.099, 10946.00
1227.178, 10999.00
1228.258, 10968.00
1229.337, 11022.00
1230.417, 10852.00
1231.496, 10842.00
1232.574, 10978.00
1233.653, 10915.00
1234.732, 11007.00
1235.810, 11115.00
1236.888, 11076.00
1237.966, 11131.00
1239.044, 11125.00
1240.122, 11123.42
1241.199, 11017.00
1242.277, 11065.00
1243.354, 11141.00
1244.431, 10993.00
1245.508, 11088.00
1246.585, 11193.00
1247.661, 11132.00
1248.738, 11313.00
1249.814, 11152.00
1250.890, 11095.00
1251.966, 11279.00
1253.042, 11200.00
1254.117, 11326.00
1255.193, 11254.00
1256.268, 11142.00
1257.343, 11258.00
1258.418, 11324.00
1259.493, 11379.00
1260.567, 11323.00
1261.642, 11409.00
1262.716, 11492.00
1263.790, 11350.00
1264.864, 11464.00
1265.938, 11359.00
1267.011, 11430.00
1268.085, 11366.00
1269.158, 11457.00
1270.231, 11386.00
1271.304, 11432.00
1272.377, 11385.00
1273.450, 11499.00
1274.522, 11573.00
1275.594, 11622.00
1276.666, 11506.00
1277.738, 11612.00
1278.810, 11480.00
1279.882, 11527.00
1280.953, 11555.00
1282.025, 11555.00
1283.096, 11626.00
1284.167, 11682.00
1285.238, 11625.00
1286.308, 11603.00
1287.379, 11659.00
1288.449, 11709.00
1289.519, 11701.00
1290.589, 11843.00
1291.659, 11714.00
1292.729, 11690.00
1293.798, 11772.00
1294.868, 11793.00
1295.937, 11925.00
1297.006, 11873.00
1298.075, 11761.00
1299.143, 11962.00
1300.212, 11698.00
1301.280, 11784.00
1302.348, 11782.00
1303.416, 11783.00
1304.484, 11724.00
1305.552, 11853.00
1306.620, 11822.00
1307.687, 11911.00
1308.754, 11905.00
1309.821, 11966.00
1310.888, 12018.00
1311.955, 12041.13
1313.021, 11945.00
1314.088, 12050.00
1315.154, 12117.00
1316.220, 11983.00
1317.286, 12084.00
1318.352, 12091.00
1319.417, 12048.00
1320.483, 12194.00
1321.548, 12118.00
1322.613, 12193.00
1323.678, 12271.00
1324.743, 12162.00
1325.807, 12291.00
1326.872, 12204.00
1327.936, 12150.00
1329.000, 12254.00
1330.064, 12288.00
1331.128, 12272.92
1332.191, 12331.38
1333.255, 12267.00
1334.318, 12336.00
1335.381, 12341.00
1336.444, 12266.00
1337.507, 12379.00
1338.569, 12469.00
1339.632, 12437.00
1340.694, 12483.00
1341.756, 12516.00
1342.818, 12506.00
1343.880, 12579.00
1344.941, 12589.00
1346.003, 12442.00
1347.064, 12543.00
1348.125, 12660.00
1349.186, 12493.00
1350.247, 12440.00
1351.308, 12721.00
1352.368, 12699.00
1353.428, 12701.00
1354.489, 12595.00
1355.549, 12683.00
1356.608, 12757.00
1357.668, 12673.00
1358.727, 12851.00
1359.787, 12781.00
1360.846, 12646.00
1361.905, 12780.00
1362.964, 12821.00
1364.022, 12886.00
1365.081, 12903.00
1366.139, 12961.00
1367.197, 12901.00
1368.255, 12925.00
1369.313, 12836.00
1370.371, 12772.00
1371.428, 13039.00
1372.486, 13106.00
1373.543, 12840.00
1374.600, 13130.00
1375.657, 13087.00
1376.713, 12938.00
1377.770, 13172.00
1378.826, 13090.00
1379.882, 13157.00
1380.938, 13031.00
1381.994, 13051.00
1383.050, 13061.00
1384.106, 13139.00
1385.161, 13165.00
1386.216, 13259.00
1387.271, 13177.00
1388.326, 13248.00
1389.381, 13197.00
1390.435, 13142.00
1391.490, 13163.00
1392.544, 13239.00
1393.598, 13227.55
1394.652, 13261.00
1395.705, 13326.00
1396.759, 13309.00
1397.812, 13436.00
1398.866, 13419.00
1399.919, 13383.00
1400.972, 13500.00
1402.024, 13385.00
1403.077, 13476.00
1404.129, 13372.00
1405.181, 13560.00
1406.233, 13527.00
1407.285, 13476.00
1408.337, 13548.00
1409.389, 13561.00
1410.440, 13527.00
1411.491, 13536.00
1412.542, 13717.00
1413.593, 13722.00
1414.644, 13673.00
1415.695, 13732.00
1416.745, 13661.00
1417.795, 13692.86
1418.845, 13684.04
1419.895, 13717.00
1420.945, 13676.00
1421.995, 13665.00
1423.044, 13670.00
1424.093, 13843.00
1425.142, 13997.00
1426.191, 13941.00
1427.240, 13845.00
1428.289, 13833.00
1429.337, 13986.00
1430.385, 13961.00
1431.433, 13935.00
1432.481, 13943.00
1433.529, 13889.00
1434.577, 13957.00
1435.624, 14038.00
1436.672, 14011.00
1437.719, 14055.00
1438.766, 14145.00
1439.812, 14154.00
1440.859, 14094.00
1441.905, 14262.00
1442.952, 14107.00
1443.998, 14221.00
1445.044, 14089.00
1446.090, 14136.00
1447.135, 14260.00
1448.181, 14396.00
1449.226, 14349.00
1450.271, 14407.00
1451.316, 14300.00
1452.361, 14357.00
1453.405, 14244.00
1454.450, 14263.00
1455.494, 14443.00
1456.538, 14515.00
1457.582, 14519.00
1458.626, 14478.00
1459.670, 14565.00
1460.713, 14494.00
1461.757, 14383.00
1462.800, 14474.00
1463.843, 14472.00
1464.886, 14508.22
1465.928, 14698.00
1466.971, 14607.00
1468.013, 14699.00
1469.055, 14696.00
1470.097, 14634.00
1471.139, 14754.00
1472.181, 14680.00
1473.222, 14765.00
1474.263, 14727.00
1475.305, 14810.00
1476.346, 14942.00
1477.386, 14775.00
1478.427, 14691.00
1479.468, 14869.00
1480.508, 14990.00
1481.548, 14849.00
1482.588, 15021.00
1483.628, 14851.00
1484.668, 14865.00
1485.707, 15017.00
1486.747, 15109.00
1487.786, 14904.00
1488.825, 15089.00
1489.864, 14954.00
1490.902, 14975.00
1491.941, 15108.00
1492.979, 15072.00
1494.017, 15134.00
1495.055, 15150.00
1496.093, 15151.00
1497.131, 15213.00
1498.168, 15203.00
1499.206, 15204.00
1500.243, 15295.00
1501.280, 15158.00
1502.317, 15173.00
1503.354, 15355.00
1504.390, 15205.00
1505.426, 15241.00
1506.463, 15332.00
1507.499, 15310.00
1508.535, 15414.00
1509.570, 15279.00
1510.606, 15435.00
1511.641, 15305.00
1512.676, 15374.00
1513.711, 15392.00
1514.746, 15244.00
1515.781, 15341.00
1516.816, 15308.75
1517.850, 15412.00
1518.884, 15376.00
1519.918, 15409.00
1520.952, 15512.00
1521.986, 15472.00
1523.019, 15562.00
1524.053, 15481.00
1525.086, 15507.50
1526.119, 15535.70
1527.152, 15492.00
1528.185, 15581.00
1529.217, 15554.00
1530.250, 15563.00
1531.282, 15780.00
1532.314, 15489.00
1533.346, 15511.00
1534.377, 15739.00
1535.409, 15825.00
1536.440, 15745.00
1537.472, 15763.00
1538.503, 15940.00
1539.534, 15829.00
1540.564, 15756.00
1541.595, 15703.00
1542.625, 15865.00
1543.656, 15825.00
1544.686, 15808.00
1545.716, 15913.00
1546.745, 15739.00
1547.775, 15797.00
1548.804, 15870.00
1549.834, 15922.00
1550.863, 15940.00
1551.892, 16025.00
1552.920, 16215.00
1553.949, 16011.00
1554.977, 15927.00
1556.006, 16074.00
1557.034, 15823.00
1558.062, 16289.00
1559.089, 16024.00
1560.117, 16081.00
1561.144, 16063.00
1562.172, 16116.00
1563.199, 16042.00
1564.226, 16092.00
1565.252, 16107.00
1566.279, 16183.00
1567.305, 16036.00
1568.332, 16001.00
1569.358, 16250.00
1570.384, 16175.00
##END=



