##NAMES=Enstatite
##RRUFFID=R070418
##IDEAL CHEMISTRY=MgSiO_3_
##LOCALITY=India
##OWNER=RRUFF
##SOURCE=Michael Scott
##DESCRIPTION=Brown translucent fragments
##STATUS=The identification of this mineral has been confirmed by X-ray diffraction and chemical analysis
##URL=rruff.info/R070418
##MEASURED CHEMISTRY=(Mg_0.86_Fe_0.14_)_Î£=1_Si_1.00_O_3_; trace amounts of Al, Ca, Mn
##PIN_ID=L01848
##ORIENTATION=Laser parallel to a* (1 0 0). Fiducial mark perpendicular to laser is parallel to b [0 1 0]
115.3720, 6913.000
116.6130, 6978.000
117.8540, 7375.000
119.0950, 7945.000
120.3360, 8497.000
121.5760, 9314.000
122.8160, 10453.00
124.0560, 11918.00
125.2960, 13793.00
126.5350, 15859.00
127.7750, 18312.00
129.0140, 19954.00
130.2530, 20177.00
131.4920, 18778.00
132.7300, 16342.00
133.9690, 14014.00
135.2070, 12343.00
136.4450, 11212.00
137.6830, 10560.00
138.9210, 10168.00
140.1580, 9984.000
141.3950, 9628.460
142.6330, 9648.000
143.8690, 9344.000
145.1060, 9160.000
146.3430, 9211.000
147.5790, 9173.000
148.8150, 9062.000
150.0510, 9007.000
151.2870, 9014.000
152.5220, 8680.000
153.7580, 8445.000
154.9930, 8338.000
156.2280, 8195.000
157.4620, 8168.000
158.6970, 8063.000
159.9310, 8106.000
161.1660, 8392.000
162.4000, 8574.000
163.6330, 9104.000
164.8670, 9610.000
166.1000, 9678.000
167.3340, 9201.000
168.5670, 8817.000
169.8000, 8525.000
171.0320, 8307.000
172.2650, 8112.030
173.4970, 8082.000
174.7290, 7955.000
175.9610, 7937.000
177.1930, 8065.000
178.4240, 8169.000
179.6550, 8282.000
180.8870, 8269.000
182.1170, 8436.000
183.3480, 8657.000
184.5790, 8881.000
185.8090, 9160.000
187.0390, 9524.000
188.2690, 10067.00
189.4990, 10531.00
190.7290, 10683.00
191.9580, 10503.00
193.1870, 10215.00
194.4160, 9841.000
195.6450, 9658.000
196.8740, 9420.000
198.1020, 9260.000
199.3310, 9258.000
200.5590, 9337.000
201.7870, 9191.000
203.0140, 9110.000
204.2420, 8529.000
205.4690, 8099.000
206.6960, 7759.000
207.9230, 7580.000
209.1500, 7537.000
210.3760, 7537.000
211.6030, 7631.000
212.8290, 7624.000
214.0550, 7692.000
215.2810, 7807.000
216.5060, 7860.000
217.7320, 8023.000
218.9570, 8279.000
220.1820, 8632.673
221.4070, 8996.000
222.6320, 9614.000
223.8560, 10234.00
225.0800, 10918.00
226.3040, 11859.00
227.5280, 12798.00
228.7520, 14198.00
229.9760, 15861.00
231.1990, 17797.00
232.4220, 20192.00
233.6450, 21874.00
234.8680, 23120.00
236.0910, 23601.00
237.3130, 22039.00
238.5350, 20009.00
239.7570, 17554.00
240.9790, 15301.00
242.2010, 13587.00
243.4220, 12010.00
244.6430, 10880.00
245.8640, 10011.00
247.0850, 9299.000
248.3060, 8868.000
249.5270, 8481.000
250.7470, 8242.000
251.9670, 8007.000
253.1870, 7872.000
254.4070, 7763.000
255.6260, 7735.000
256.8460, 7673.000
258.0650, 8192.000
259.2840, 7918.366
260.5030, 7900.351
261.7220, 7704.000
262.9400, 7570.000
264.1580, 7415.000
265.3760, 7340.000
266.5940, 7390.000
267.8120, 7538.000
269.0290, 7481.000
270.2470, 7433.000
271.4640, 7477.000
272.6810, 7505.000
273.8980, 7523.000
275.1140, 7550.000
276.3310, 7525.000
277.5470, 7556.000
278.7630, 7682.000
279.9790, 7649.942
281.1940, 7694.505
282.4100, 7768.000
283.6250, 7725.000
284.8400, 7973.000
286.0550, 8042.000
287.2700, 8196.000
288.4850, 8470.000
289.6990, 8709.000
290.9130, 8978.000
292.1270, 9256.000
293.3410, 9729.000
294.5540, 10089.00
295.7680, 10452.00
296.9810, 10797.00
298.1940, 10943.00
299.4070, 10618.00
300.6200, 10585.00
301.8320, 10567.00
303.0450, 10428.00
304.2570, 10416.00
305.4690, 10573.00
306.6800, 10740.00
307.8920, 10919.00
309.1030, 10829.00
310.3150, 11092.00
311.5260, 11318.00
312.7360, 11606.00
313.9470, 12252.00
315.1580, 12627.00
316.3680, 13415.00
317.5780, 14062.00
318.7880, 14538.00
319.9980, 14816.00
321.2070, 14866.00
322.4170, 14929.00
323.6260, 15150.00
324.8350, 15708.00
326.0430, 16509.00
327.2520, 17917.00
328.4610, 20171.00
329.6690, 21358.00
330.8770, 24206.00
332.0850, 27071.00
333.2920, 31197.00
334.5000, 35793.00
335.7070, 40825.00
336.9140, 45757.00
338.1210, 49964.00
339.3280, 53717.00
340.5350, 55202.00
341.7410, 52344.00
342.9470, 48600.00
344.1540, 43595.00
345.3590, 38066.00
346.5650, 33357.00
347.7710, 28969.00
348.9760, 25645.00
350.1810, 22831.00
351.3860, 20592.00
352.5910, 19249.00
353.7950, 17910.00
355.0000, 17166.00
356.2040, 16486.00
357.4080, 15790.00
358.6120, 15034.00
359.8150, 14560.00
361.0190, 13902.00
362.2220, 13429.00
363.4250, 12991.00
364.6280, 12712.00
365.8310, 12599.85
367.0340, 12686.00
368.2360, 12681.00
369.4380, 12976.00
370.6400, 13217.00
371.8420, 13573.00
373.0440, 13963.00
374.2450, 14733.00
375.4470, 15206.00
376.6480, 15806.00
377.8490, 15996.00
379.0490, 15971.00
380.2500, 15684.00
381.4500, 15410.00
382.6510, 15218.00
383.8510, 15090.00
385.0500, 15310.00
386.2500, 15642.00
387.4500, 16367.00
388.6490, 17200.00
389.8480, 18366.00
391.0470, 19810.00
392.2460, 21119.00
393.4440, 22752.00
394.6430, 24422.00
395.8410, 25655.00
397.0390, 26800.00
398.2370, 27722.00
399.4340, 27694.00
400.6320, 27602.00
401.8290, 27316.00
403.0260, 26361.00
404.2230, 25344.00
405.4200, 24647.00
406.6170, 23439.00
407.8130, 22745.00
409.0090, 21685.00
410.2050, 20872.00
411.4010, 20246.00
412.5970, 19420.00
413.7920, 18853.00
414.9880, 18247.00
416.1830, 17466.00
417.3780, 16914.00
418.5730, 16472.00
419.7670, 15884.00
420.9620, 15130.00
422.1560, 14174.00
423.3500, 13247.00
424.5440, 12659.00
425.7380, 11785.00
426.9310, 11202.00
428.1240, 10806.00
429.3180, 10648.00
430.5110, 10544.00
431.7030, 10448.00
432.8960, 10672.00
434.0890, 10923.00
435.2810, 11000.00
436.4730, 11502.00
437.6650, 11872.00
438.8570, 11929.00
440.0480, 11899.00
441.2390, 11670.00
442.4310, 11284.00
443.6220, 10745.00
444.8120, 10187.00
446.0030, 9590.000
447.1940, 9335.000
448.3840, 9016.000
449.5740, 8948.000
450.7640, 8804.000
451.9540, 8707.000
453.1430, 8786.000
454.3330, 8817.000
455.5220, 8711.000
456.7110, 8841.000
457.9000, 8967.000
459.0890, 8947.574
460.2770, 9086.000
461.4650, 8995.000
462.6540, 9059.000
463.8420, 9020.000
465.0290, 8999.000
466.2170, 8851.000
467.4050, 8877.000
468.5920, 8686.000
469.7790, 8411.000
470.9660, 8442.000
472.1530, 8298.000
473.3390, 8318.000
474.5250, 8343.000
475.7120, 8210.000
476.8980, 8206.000
478.0840, 8002.000
479.2690, 8052.000
480.4550, 8049.000
481.6400, 7919.000
482.8250, 8058.000
484.0100, 8016.232
485.1950, 7996.475
486.3800, 8063.000
487.5640, 7929.000
488.7480, 7925.000
489.9320, 7821.000
491.1160, 7872.000
492.3000, 7867.000
493.4840, 7919.000
494.6670, 7963.000
495.8500, 7956.000
497.0330, 7974.000
498.2160, 7970.000
499.3990, 8029.212
500.5810, 8045.000
501.7630, 8166.000
502.9460, 8165.000
504.1280, 8244.000
505.3090, 8325.000
506.4910, 8391.000
507.6720, 8783.000
508.8540, 8928.000
510.0350, 9280.000
511.2160, 9683.000
512.3960, 10176.00
513.5770, 10791.00
514.7570, 11352.00
515.9380, 12136.00
517.1180, 12736.00
518.2970, 13342.00
519.4770, 13642.00
520.6570, 14019.00
521.8360, 14341.00
523.0150, 14107.00
524.1940, 14176.00
525.3730, 14539.00
526.5510, 13380.00
527.7300, 12836.00
528.9080, 12333.00
530.0860, 12054.00
531.2640, 12043.00
532.4420, 11869.00
533.6200, 12272.00
534.7970, 12666.00
535.9740, 13207.00
537.1510, 13542.00
538.3280, 13726.00
539.5050, 13593.00
540.6810, 13411.00
541.8580, 13353.00
543.0340, 13098.00
544.2100, 13129.00
545.3860, 12905.00
546.5610, 13002.00
547.7370, 13055.00
548.9120, 12783.00
550.0870, 12652.00
551.2620, 12160.00
552.4370, 11496.00
553.6120, 11059.00
554.7860, 10677.00
555.9600, 10084.00
557.1340, 9778.000
558.3080, 9555.000
559.4820, 9273.000
560.6560, 9247.000
561.8290, 9122.000
563.0020, 8959.000
564.1750, 8948.000
565.3480, 8951.000
566.5210, 8914.000
567.6930, 8970.000
568.8660, 9024.000
570.0380, 8921.000
571.2100, 9010.000
572.3820, 8963.000
573.5530, 8912.000
574.7250, 8940.000
575.8960, 8992.000
577.0670, 8837.000
578.2380, 8965.000
579.4090, 8755.000
580.5800, 8662.000
581.7500, 8712.000
582.9210, 8674.000
584.0910, 8728.000
585.2610, 8667.000
586.4300, 8770.000
587.6000, 8719.000
588.7690, 8670.000
589.9390, 8700.000
591.1080, 8690.000
592.2770, 8713.000
593.4450, 8677.000
594.6140, 8615.000
595.7820, 8557.000
596.9500, 8543.065
598.1190, 8520.471
599.2860, 8513.000
600.4540, 8522.000
601.6220, 8509.000
602.7890, 8514.000
603.9560, 8457.000
605.1230, 8406.000
606.2900, 8464.000
607.4570, 8494.000
608.6230, 8389.000
609.7890, 8461.000
610.9560, 8393.000
612.1220, 8448.000
613.2870, 8497.000
614.4530, 8518.000
615.6180, 8618.000
616.7840, 8654.000
617.9490, 8778.000
619.1140, 8987.000
620.2790, 8950.000
621.4430, 9081.000
622.6080, 9297.000
623.7720, 9404.000
624.9360, 9540.000
626.1000, 9797.000
627.2640, 9743.000
628.4270, 9679.000
629.5910, 9633.000
630.7540, 9402.000
631.9170, 9451.000
633.0800, 9453.000
634.2430, 9476.000
635.4050, 9609.000
636.5680, 9671.000
637.7300, 9811.000
638.8920, 10098.00
640.0540, 10311.00
641.2150, 10508.00
642.3770, 10853.00
643.5380, 11281.00
644.7000, 11560.00
645.8610, 12240.00
647.0210, 12802.00
648.1820, 13359.00
649.3430, 14229.00
650.5030, 15245.00
651.6630, 16560.07
652.8230, 18019.00
653.9830, 19940.00
655.1430, 21991.00
656.3020, 24411.00
657.4620, 27274.00
658.6210, 29927.00
659.7800, 32415.00
660.9390, 34185.00
662.0970, 34644.00
663.2560, 33506.00
664.4140, 31711.00
665.5720, 29230.00
666.7300, 26630.00
667.8880, 24863.00
669.0460, 23437.00
670.2030, 22755.00
671.3600, 22630.00
672.5180, 22886.00
673.6740, 23947.00
674.8310, 25442.00
675.9880, 27342.00
677.1440, 30459.00
678.3010, 33049.00
679.4570, 35073.00
680.6130, 37523.00
681.7690, 39193.00
682.9240, 39779.00
684.0800, 38964.00
685.2350, 36289.00
686.3900, 33200.00
687.5450, 29633.00
688.7000, 25825.00
689.8540, 22894.00
691.0090, 20329.00
692.1630, 18031.00
693.3170, 16367.00
694.4710, 15122.00
695.6250, 14086.00
696.7780, 13040.00
697.9320, 12460.00
699.0850, 12007.00
700.2380, 11602.00
701.3910, 11169.00
702.5440, 10803.00
703.6970, 10803.00
704.8490, 10462.00
706.0010, 10230.00
707.1530, 10012.00
708.3050, 9849.360
709.4570, 9754.078
710.6090, 9666.000
711.7600, 9627.000
712.9110, 9550.535
714.0620, 9533.000
715.2130, 9451.000
716.3640, 9430.000
717.5150, 9403.000
718.6650, 9251.000
719.8150, 9724.000
720.9650, 10000.00
722.1150, 10305.00
723.2650, 10140.00
724.4150, 9267.000
725.5640, 9232.000
726.7130, 9235.000
727.8630, 9360.000
729.0110, 9267.000
730.1600, 9401.000
731.3090, 9414.000
732.4570, 9553.000
733.6060, 9652.000
734.7540, 9701.846
735.9020, 9742.000
737.0490, 9855.000
738.1970, 9934.000
739.3440, 10058.00
740.4920, 9990.000
741.6390, 10171.00
742.7860, 10166.00
743.9320, 10144.00
745.0790, 10372.00
746.2250, 10581.00
747.3720, 10741.00
748.5180, 10952.00
749.6640, 11194.00
750.8100, 11304.00
751.9550, 11258.00
753.1010, 10963.00
754.2460, 10548.00
755.3910, 10262.00
756.5360, 9855.000
757.6810, 9714.000
758.8250, 9488.000
759.9700, 9390.000
761.1140, 9290.000
762.2580, 9246.000
763.4020, 9232.000
764.5460, 9127.000
765.6900, 8997.000
766.8330, 9124.000
767.9760, 9091.000
769.1200, 9146.000
770.2620, 9010.000
771.4050, 9020.000
772.5480, 9039.000
773.6900, 9067.000
774.8330, 9085.000
775.9750, 8935.000
777.1170, 8834.000
778.2590, 9027.000
779.4000, 8960.000
780.5420, 9090.000
781.6830, 8902.000
782.8240, 8922.000
783.9650, 9010.000
785.1060, 9087.000
786.2470, 8968.000
787.3870, 9024.000
788.5280, 9083.000
789.6680, 9016.000
790.8080, 9074.000
791.9480, 8986.000
793.0870, 9189.000
794.2270, 9024.000
795.3660, 9186.000
796.5060, 9218.000
797.6450, 9090.000
798.7830, 9302.000
799.9220, 9251.000
801.0610, 9201.000
802.1990, 9298.000
803.3370, 9329.000
804.4750, 9301.000
805.6130, 9380.000
806.7510, 9365.000
807.8890, 9383.000
809.0260, 9468.000
810.1630, 9377.000
811.3000, 9413.000
812.4370, 9451.000
813.5740, 9458.000
814.7110, 9450.000
815.8470, 9469.116
816.9830, 9455.000
818.1190, 9488.000
819.2550, 9518.000
820.3910, 9549.577
821.5270, 9543.000
822.6620, 9609.000
823.7970, 9495.000
824.9330, 9561.000
826.0670, 9676.000
827.2020, 9602.000
828.3370, 9740.000
829.4710, 9719.000
830.6060, 9753.000
831.7400, 9739.000
832.8740, 9697.000
834.0080, 9796.000
835.1410, 9775.000
836.2750, 9813.000
837.4080, 9991.000
838.5410, 9896.000
839.6740, 9963.000
840.8070, 10148.00
841.9400, 10139.00
843.0730, 10282.00
844.2050, 10304.00
845.3370, 10397.00
846.4690, 10536.00
847.6010, 10551.00
848.7330, 10907.00
849.8640, 11048.00
850.9960, 11219.00
852.1270, 11585.00
853.2580, 11976.00
854.3890, 12332.00
855.5200, 12713.00
856.6500, 13024.00
857.7810, 13258.00
858.9110, 13460.00
860.0410, 13479.00
861.1710, 13373.00
862.3010, 13280.00
863.4310, 13008.00
864.5600, 12728.00
865.6900, 12441.00
866.8190, 12186.00
867.9480, 11875.00
869.0770, 11730.00
870.2050, 11468.00
871.3340, 11348.00
872.4620, 11113.00
873.5900, 11006.43
874.7180, 10969.00
875.8460, 10850.00
876.9740, 10851.00
878.1010, 10875.00
879.2290, 10751.00
880.3560, 11074.00
881.4830, 10821.22
882.6100, 10845.00
883.7370, 10578.00
884.8630, 10712.00
885.9900, 10749.00
887.1160, 10514.00
888.2420, 10911.00
889.3680, 10783.00
890.4940, 11023.00
891.6200, 11050.00
892.7450, 11160.00
893.8700, 11222.00
894.9960, 11306.00
896.1210, 11353.58
897.2460, 11439.00
898.3700, 11390.00
899.4950, 11441.00
900.6190, 11376.00
901.7430, 11339.00
902.8670, 11764.00
903.9910, 11375.99
905.1150, 11402.52
906.2390, 10989.00
907.3620, 11120.00
908.4850, 11210.00
909.6080, 11217.00
910.7310, 11218.00
911.8540, 11256.32
912.9770, 11163.00
914.0990, 11351.00
915.2210, 11316.00
916.3440, 11509.00
917.4660, 11668.00
918.5870, 11885.00
919.7090, 12049.00
920.8310, 12536.00
921.9520, 12841.00
923.0730, 13377.00
924.1940, 13864.00
925.3150, 14334.00
926.4360, 14719.00
927.5560, 14883.00
928.6770, 15191.00
929.7970, 15224.00
930.9170, 15391.92
932.0370, 15392.25
933.1570, 15594.00
934.2760, 15373.00
935.3960, 15467.00
936.5150, 15623.00
937.6340, 15532.00
938.7530, 15556.00
939.8720, 15201.00
940.9910, 14992.00
942.1090, 14804.00
943.2280, 14467.00
944.3460, 14204.00
945.4640, 14118.00
946.5820, 13690.00
947.6990, 13318.00
948.8170, 13122.00
949.9340, 12945.00
951.0520, 12806.00
952.1690, 12487.00
953.2860, 12336.00
954.4030, 12250.00
955.5190, 12199.00
956.6360, 12177.00
957.7520, 11923.00
958.8680, 11875.00
959.9840, 11709.00
961.1000, 11675.00
962.2160, 11750.00
963.3310, 11624.00
964.4470, 11604.00
965.5620, 11433.00
966.6770, 11626.00
967.7920, 11468.00
968.9060, 11432.00
970.0210, 11588.00
971.1360, 11519.00
972.2500, 11470.00
973.3640, 11450.00
974.4780, 11459.00
975.5920, 11525.61
976.7050, 11697.00
977.8190, 11727.00
978.9320, 11866.00
980.0450, 11981.77
981.1580, 12049.00
982.2710, 12321.00
983.3840, 12469.00
984.4970, 12644.00
985.6090, 13112.00
986.7210, 13297.78
987.8330, 13604.00
988.9450, 13996.00
990.0570, 14468.00
991.1690, 15022.00
992.2800, 15577.00
993.3920, 16549.00
994.5030, 17618.00
995.6140, 18764.00
996.7250, 20149.00
997.8350, 21725.00
998.9460, 23492.00
1000.056, 25671.00
1001.167, 27811.00
1002.277, 30186.00
1003.387, 32668.00
1004.496, 34990.00
1005.606, 37880.00
1006.715, 40311.00
1007.825, 42124.00
1008.934, 43518.00
1010.043, 43630.00
1011.152, 43369.00
1012.260, 43041.00
1013.369, 42217.00
1014.477, 42116.00
1015.586, 42014.00
1016.694, 42480.00
1017.802, 42648.00
1018.909, 43442.00
1020.017, 43373.00
1021.124, 43566.00
1022.232, 43665.00
1023.339, 43514.00
1024.446, 43439.00
1025.553, 43128.00
1026.659, 42768.00
1027.766, 42156.03
1028.872, 41519.00
1029.979, 40429.00
1031.085, 38985.00
1032.191, 37563.00
1033.296, 35751.00
1034.402, 33306.00
1035.507, 31722.00
1036.613, 29663.00
1037.718, 27785.00
1038.823, 26242.00
1039.928, 24569.00
1041.032, 23384.00
1042.137, 21994.00
1043.241, 20702.00
1044.346, 20064.00
1045.450, 18936.00
1046.554, 18158.00
1047.657, 17436.00
1048.761, 17009.00
1049.864, 16601.00
1050.968, 15927.00
1052.071, 15783.00
1053.174, 15468.00
1054.277, 15038.00
1055.379, 14701.00
1056.482, 14422.00
1057.584, 14202.00
1058.687, 13865.00
1059.789, 13693.00
1060.891, 13373.00
1061.992, 13057.00
1063.094, 12996.00
1064.196, 12749.10
1065.297, 12627.41
1066.398, 12443.00
1067.499, 12424.00
1068.600, 12236.00
1069.701, 12177.00
1070.801, 12202.00
1071.902, 12277.00
1073.002, 12096.00
1074.102, 12354.00
1075.202, 11942.00
1076.302, 12087.00
1077.402, 11903.00
1078.501, 11899.00
1079.600, 12032.00
1080.700, 12019.00
1081.799, 12100.00
1082.898, 12075.00
1083.996, 12060.00
1085.095, 11819.00
1086.193, 11932.00
1087.292, 11796.00
1088.390, 11831.00
1089.488, 11749.00
1090.586, 11863.00
1091.683, 11592.00
1092.781, 11733.00
1093.878, 11534.00
1094.975, 11655.00
1096.073, 11545.00
1097.169, 11676.00
1098.266, 11536.00
1099.363, 11694.00
1100.459, 11591.00
1101.556, 11536.00
1102.652, 11445.00
1103.748, 11490.00
1104.844, 11471.00
1105.940, 11538.00
1107.035, 11537.00
1108.131, 11689.00
1109.226, 11482.00
1110.321, 11701.00
1111.416, 11584.00
1112.511, 11515.00
1113.605, 11740.00
1114.700, 11604.00
1115.794, 11782.00
1116.889, 11604.00
1117.983, 11689.00
1119.077, 11558.00
1120.170, 11642.00
1121.264, 11569.00
1122.357, 11701.00
1123.451, 11669.00
1124.544, 11604.00
1125.637, 11630.00
1126.730, 11567.00
1127.823, 11496.00
1128.915, 11480.00
1130.008, 11575.00
1131.100, 11502.00
1132.192, 11476.00
1133.284, 11369.00
1134.376, 11387.00
1135.467, 11513.00
1136.559, 11474.00
1137.650, 11294.00
1138.742, 11421.00
1139.833, 11325.00
1140.924, 11304.00
1142.014, 11294.00
1143.105, 11321.00
1144.195, 11218.00
1145.286, 11202.00
1146.376, 11380.00
1147.466, 11314.00
1148.556, 11249.00
1149.646, 11286.00
1150.735, 11182.00
1151.825, 11215.00
1152.914, 11318.00
1154.003, 11178.00
1155.092, 11309.00
1156.181, 11306.00
1157.270, 11354.00
1158.358, 11279.00
1159.447, 11369.00
1160.535, 11350.00
1161.623, 11370.00
1162.711, 11252.00
1163.799, 11250.00
1164.886, 11354.00
1165.974, 11447.00
1167.061, 11341.00
1168.148, 11359.00
1169.235, 11371.00
1170.322, 11407.00
1171.409, 11481.00
1172.496, 11475.32
1173.582, 11364.00
1174.669, 11470.00
1175.755, 11394.00
1176.841, 11325.00
1177.927, 11451.00
1179.012, 11414.00
1180.098, 11365.00
1181.183, 11406.00
1182.269, 11253.00
1183.354, 11355.00
1184.439, 11484.00
1185.524, 11371.00
1186.608, 11302.00
1187.693, 11291.00
1188.777, 11372.00
1189.862, 11234.00
1190.946, 11288.00
1192.030, 11276.00
1193.113, 11181.00
1194.197, 11239.00
1195.281, 11322.00
1196.364, 11213.00
1197.447, 11403.00
1198.530, 11229.00
1199.613, 11273.00
1200.696, 11386.00
1201.779, 11308.00
1202.861, 11297.00
1203.944, 11321.00
1205.026, 11210.00
1206.108, 11313.00
1207.190, 11258.00
1208.271, 11294.00
1209.353, 11383.00
1210.435, 11328.00
1211.516, 11387.00
1212.597, 11403.00
1213.678, 11456.00
1214.759, 11574.00
1215.840, 11423.00
1216.920, 11351.00
1218.001, 11410.00
1219.081, 11330.00
1220.161, 11439.00
1221.241, 11453.00
1222.321, 11386.00
1223.401, 11423.00
1224.480, 11362.00
1225.560, 11380.00
1226.639, 11397.00
1227.718, 11417.00
1228.797, 11496.00
1229.876, 11467.00
1230.955, 11414.00
1232.033, 11586.00
1233.112, 11607.00
1234.190, 11522.00
1235.268, 11673.00
1236.346, 11592.00
1237.424, 11852.00
1238.501, 11594.00
1239.579, 11772.00
1240.656, 11698.00
1241.733, 11633.00
1242.811, 11678.00
1243.888, 11686.00
1244.964, 11734.00
1246.041, 11765.00
1247.117, 11874.00
1248.194, 11752.00
1249.270, 11861.00
1250.346, 11725.00
1251.422, 11783.00
1252.498, 11764.00
1253.573, 11857.00
1254.649, 11836.00
1255.724, 11861.00
1256.800, 11863.00
1257.875, 11964.00
1258.950, 11861.00
1260.024, 11955.00
1261.099, 12070.00
1262.173, 12268.00
1263.248, 11993.00
1264.322, 12145.27
1265.396, 12183.96
1266.470, 12139.00
1267.544, 12278.00
1268.617, 12277.00
1269.691, 12181.00
1270.764, 12348.00
1271.837, 12238.00
1272.910, 12368.00
1273.983, 12308.00
1275.056, 12479.00
1276.129, 12322.00
1277.201, 12387.00
1278.273, 12269.00
1279.346, 12188.00
1280.418, 12148.00
1281.489, 12320.00
1282.561, 12467.77
1283.633, 12289.83
1284.704, 12914.00
1285.776, 12200.00
1286.847, 12167.00
1287.918, 12628.00
1288.989, 12464.00
1290.059, 12486.00
1291.130, 12307.00
1292.200, 12616.00
1293.271, 12633.00
1294.341, 12586.00
1295.411, 12518.00
1296.481, 12524.00
1297.551, 12534.00
1298.620, 12375.00
1299.690, 12487.00
1300.759, 12510.00
1301.828, 12484.00
1302.897, 12580.00
1303.966, 12537.00
1305.035, 12564.00
1306.103, 12682.00
1307.172, 12704.00
1308.240, 12722.00
1309.308, 12833.00
1310.376, 12864.00
1311.444, 12928.00
1312.512, 12749.00
1313.580, 12870.00
1314.647, 12882.00
1315.714, 12819.00
1316.781, 12928.00
1317.848, 13089.00
1318.915, 12772.00
1319.982, 12722.00
1321.049, 12817.00
1322.115, 12531.00
1323.181, 12822.00
1324.248, 12760.00
1325.314, 12656.00
1326.380, 12578.00
1327.445, 12454.00
1328.511, 12436.00
1329.576, 12351.22
1330.642, 12411.00
1331.707, 12279.00
1332.772, 12357.00
1333.837, 12417.00
1334.902, 12382.00
1335.966, 12306.00
1337.031, 12389.00
1338.095, 12348.00
1339.159, 12461.00
1340.223, 12541.00
1341.287, 12484.00
1342.351, 12489.00
1343.415, 12379.00
1344.478, 12354.00
1345.541, 12438.00
1346.605, 12434.00
1347.668, 12503.00
1348.731, 12510.82
1349.793, 12489.46
1350.856, 12512.27
1351.918, 12604.00
1352.981, 12585.00
1354.043, 12573.00
1355.105, 12476.00
1356.167, 12442.00
1357.229, 12510.00
1358.290, 12479.00
1359.352, 12579.00
1360.413, 12484.00
1361.475, 12562.00
1362.536, 12556.00
1363.597, 12741.00
1364.657, 12574.00
1365.718, 12740.00
1366.779, 12577.00
1367.839, 12736.00
1368.899, 12805.00
1369.959, 12762.00
1371.019, 12825.38
1372.079, 12793.00
1373.139, 12756.00
1374.198, 12779.00
1375.258, 12636.00
1376.317, 12810.00
1377.376, 12830.00
1378.435, 12941.00
1379.494, 12806.00
1380.553, 12911.00
1381.611, 12960.00
1382.670, 12912.00
1383.728, 12984.00
1384.786, 12879.00
1385.844, 12925.00
1386.902, 12979.00
1387.960, 12904.00
1389.017, 12932.00
1390.075, 12767.00
1391.132, 12890.00
1392.189, 12878.00
1393.246, 12820.00
1394.303, 12916.00
1395.360, 12796.00
1396.417, 12868.00
1397.473, 12873.00
1398.529, 12878.00
1399.585, 12816.00
1400.642, 12807.00
1401.697, 12943.00
1402.753, 12911.00
1403.809, 12991.00
1404.864, 12968.00
1405.920, 12970.00
1406.975, 13000.98
1408.030, 13063.00
1409.085, 13007.00
1410.140, 13051.00
1411.194, 13015.00
1412.249, 12893.00
1413.303, 13059.00
1414.358, 12917.00
1415.412, 13063.00
1416.466, 13030.00
1417.520, 12976.00
1418.573, 13068.00
1419.627, 12960.00
1420.680, 12985.00
1421.733, 13106.00
1422.787, 13101.00
1423.840, 12952.00
1424.892, 13075.00
1425.945, 13127.00
1426.998, 13005.00
1428.050, 13223.00
1429.103, 13212.00
1430.155, 13266.00
1431.207, 13396.00
1432.259, 13283.00
1433.310, 13412.00
1434.362, 13604.00
1435.414, 13611.00
1436.465, 13762.00
1437.516, 13855.00
1438.567, 14015.00
1439.618, 13782.00
1440.669, 14073.00
1441.720, 14138.00
1442.770, 14404.00
1443.820, 14393.00
1444.871, 14402.00
1445.921, 14570.00
1446.971, 14480.00
1448.021, 14595.00
1449.070, 14699.00
1450.120, 14796.00
1451.169, 14825.83
1452.219, 14744.00
1453.268, 14824.00
1454.317, 14893.00
1455.366, 14832.00
1456.414, 14888.00
1457.463, 14696.00
1458.511, 14847.00
1459.560, 14664.00
1460.608, 14579.00
1461.656, 14658.00
1462.704, 14521.00
1463.752, 14506.00
1464.799, 14387.00
1465.847, 14376.00
1466.894, 14360.00
1467.941, 13914.00
1468.988, 13922.00
1470.035, 13946.00
1471.082, 13985.00
1472.129, 13947.00
1473.175, 14028.00
1474.222, 13991.00
1475.268, 13842.00
1476.314, 13885.00
1477.360, 13807.00
1478.406, 13724.00
1479.452, 13880.00
1480.498, 13839.00
1481.543, 13865.00
1482.588, 13836.00
1483.633, 13835.00
1484.679, 13733.00
1485.723, 13767.00
1486.768, 13704.00
1487.813, 13523.00
1488.857, 13657.00
1489.902, 13543.00
1490.946, 13590.00
1491.990, 13607.00
1493.034, 13399.00
1494.078, 13557.00
1495.122, 13562.00
1496.165, 13439.00
1497.209, 13409.00
1498.252, 13540.00
1499.295, 13477.00
1500.338, 13482.00
1501.381, 13520.00
1502.424, 13489.00
1503.466, 13467.00
1504.509, 13471.00
1505.551, 13422.00
1506.593, 13417.00
1507.635, 13489.00
1508.677, 13450.00
1509.719, 13623.00
1510.761, 13565.00
1511.802, 13466.00
1512.844, 13524.00
1513.885, 13726.00
1514.926, 13537.00
1515.967, 13546.00
1517.008, 13710.00
1518.049, 13525.00
1519.089, 13550.00
1520.130, 13645.00
1521.170, 13575.00
1522.210, 13695.00
1523.250, 13668.00
1524.290, 13676.00
1525.330, 13665.00
1526.370, 13727.00
1527.409, 13694.62
1528.448, 13771.00
1529.488, 13691.00
1530.527, 13687.00
1531.566, 13740.00
1532.605, 13730.44
1533.643, 13751.00
1534.682, 13810.00
1535.720, 13796.00
1536.759, 13847.00
1537.797, 13829.00
1538.835, 13897.00
1539.873, 13932.00
1540.910, 13779.00
1541.948, 13865.00
1542.986, 13832.00
1544.023, 13907.00
1545.060, 13926.00
1546.097, 13864.00
1547.134, 13996.00
1548.171, 13861.00
1549.208, 13888.00
1550.244, 13771.00
1551.281, 13947.00
1552.317, 13998.00
1553.353, 13995.00
1554.389, 14014.00
1555.425, 13968.00
1556.461, 13945.00
1557.497, 13962.00
1558.532, 13956.00
1559.567, 14050.00
1560.603, 13880.00
1561.638, 13895.00
1562.673, 14022.00
1563.708, 13934.00
##END=



