##NAMES=Enstatite
##RRUFFID=R050644
##IDEAL CHEMISTRY=MgSiO_3_
##LOCALITY=Morogoro, Tanzania
##OWNER=RRUFF
##SOURCE=Jibamitra Ganguly
##DESCRIPTION=Light brown crystal fragment
##STATUS=The identification of this mineral has been confirmed by X-ray diffraction and chemical analysis
##URL=rruff.info/R050644
##MEASURED CHEMISTRY=(Mg_0.90_Fe_0.10_)SiO_3_
##PIN_ID=L01052
##ORIENTATION=Laser parallel to b* (0 1 0). Fiducial mark perpendicular to laser is parallel to c [0 0 1]
113.2080, 20879.00
114.4400, 21119.00
115.6710, 21738.00
116.9030, 22514.00
118.1340, 23791.00
119.3650, 26016.00
120.5960, 28358.00
121.8270, 30671.00
123.0580, 32028.00
124.2880, 33399.00
125.5190, 35447.00
126.7490, 37090.00
127.9790, 37875.00
129.2090, 37267.00
130.4390, 36701.00
131.6680, 36545.00
132.8980, 36232.00
134.1270, 35535.00
135.3560, 33520.00
136.5850, 31289.00
137.8140, 28437.00
139.0430, 26535.00
140.2710, 25103.00
141.5000, 24295.00
142.7280, 23711.00
143.9560, 23287.00
145.1840, 23373.00
146.4120, 23271.00
147.6390, 23105.00
148.8670, 23133.00
150.0940, 23079.00
151.3210, 23051.00
152.5490, 22862.00
153.7750, 22777.00
155.0020, 22740.73
156.2290, 22836.00
157.4550, 22734.00
158.6810, 22681.00
159.9080, 22799.00
161.1340, 22715.00
162.3590, 22726.00
163.5850, 22757.00
164.8110, 22693.00
166.0360, 22703.00
167.2610, 22817.00
168.4860, 22730.00
169.7110, 22883.00
170.9360, 22790.00
172.1610, 23055.00
173.3850, 22928.00
174.6100, 22746.00
175.8340, 22999.00
177.0580, 23016.00
178.2820, 23061.00
179.5050, 23190.00
180.7290, 23290.00
181.9520, 23449.00
183.1760, 23308.00
184.3990, 23377.00
185.6220, 23519.00
186.8450, 23695.00
188.0670, 23645.00
189.2900, 23744.00
190.5120, 23955.00
191.7340, 24046.00
192.9560, 24174.00
194.1780, 24337.00
195.4000, 24350.00
196.6220, 24277.00
197.8430, 24478.00
199.0640, 24335.00
200.2860, 24304.00
201.5070, 24367.00
202.7270, 24209.00
203.9480, 24147.00
205.1690, 24020.00
206.3890, 24112.00
207.6090, 23998.00
208.8290, 23940.02
210.0490, 23879.01
211.2690, 23794.00
212.4890, 23717.00
213.7080, 23675.00
214.9280, 23690.00
216.1470, 23654.00
217.3660, 23730.80
218.5850, 23820.48
219.8030, 23920.00
221.0220, 24138.00
222.2400, 24286.00
223.4590, 24568.00
224.6770, 25309.00
225.8950, 25273.00
227.1120, 25609.00
228.3300, 25951.00
229.5480, 26018.00
230.7650, 26616.00
231.9820, 26679.00
233.1990, 26809.00
234.4160, 26643.00
235.6330, 26729.00
236.8490, 26639.00
238.0660, 26589.00
239.2820, 26263.00
240.4980, 25908.00
241.7140, 25401.00
242.9300, 25124.00
244.1460, 24791.00
245.3610, 24577.00
246.5770, 24350.00
247.7920, 24469.00
249.0070, 24458.00
250.2220, 24529.00
251.4370, 24288.00
252.6510, 24475.00
253.8660, 24514.00
255.0800, 24794.00
256.2940, 24568.00
257.5080, 24946.00
258.7220, 24922.00
259.9360, 24733.00
261.1490, 24854.00
262.3630, 24888.00
263.5760, 24902.00
264.7890, 24856.00
266.0020, 24898.00
267.2150, 24926.00
268.4270, 24925.00
269.6400, 24913.00
270.8520, 24905.02
272.0640, 25015.00
273.2760, 24864.00
274.4880, 24858.00
275.7000, 24847.77
276.9120, 25116.00
278.1230, 25040.00
279.3340, 25228.00
280.5450, 25538.00
281.7560, 25117.00
282.9670, 25406.00
284.1780, 25273.00
285.3880, 25381.00
286.5980, 25517.00
287.8090, 25670.00
289.0190, 25608.00
290.2290, 25897.00
291.4380, 25865.00
292.6480, 26023.00
293.8570, 26087.00
295.0670, 26418.00
296.2760, 26281.00
297.4850, 26458.00
298.6930, 26462.00
299.9020, 26163.00
301.1110, 26397.00
302.3190, 26394.00
303.5270, 26537.00
304.7350, 26512.00
305.9430, 26375.00
307.1510, 26157.00
308.3580, 26493.00
309.5660, 26495.00
310.7730, 26773.00
311.9800, 27008.00
313.1870, 27003.00
314.3940, 27440.00
315.6010, 27818.00
316.8070, 28002.00
318.0130, 28108.00
319.2200, 28477.00
320.4260, 29015.00
321.6310, 29706.16
322.8370, 30398.00
324.0430, 31680.00
325.2480, 32828.00
326.4540, 34286.00
327.6590, 36654.00
328.8640, 38805.00
330.0680, 41976.00
331.2730, 44793.00
332.4780, 47858.00
333.6820, 50513.00
334.8860, 52890.00
336.0900, 54639.00
337.2940, 55402.00
338.4980, 56104.00
339.7010, 55758.00
340.9050, 55002.00
342.1080, 53662.00
343.3110, 51348.00
344.5140, 48917.00
345.7170, 45884.00
346.9200, 42810.00
348.1220, 39929.00
349.3240, 37888.00
350.5270, 35926.00
351.7290, 34683.00
352.9310, 33455.00
354.1320, 32508.00
355.3340, 31793.00
356.5350, 31310.00
357.7370, 30995.00
358.9380, 30722.00
360.1390, 30343.00
361.3400, 30024.00
362.5400, 29781.00
363.7410, 29743.00
364.9410, 29574.00
366.1410, 29547.00
367.3410, 29507.37
368.5410, 29416.00
369.7410, 29518.00
370.9400, 29500.00
372.1400, 29589.26
373.3390, 29554.62
374.5380, 29635.00
375.7370, 29512.00
376.9360, 29534.00
378.1350, 29585.00
379.3330, 29581.00
380.5310, 29560.00
381.7300, 30070.00
382.9280, 29926.00
384.1260, 30147.00
385.3230, 30154.00
386.5210, 30880.00
387.7180, 31231.00
388.9160, 31599.00
390.1130, 32279.00
391.3100, 32725.00
392.5060, 33163.00
393.7030, 33860.00
394.9000, 34148.00
396.0960, 34462.00
397.2920, 35089.00
398.4880, 34933.00
399.6840, 35008.00
400.8800, 35167.00
402.0750, 34903.00
403.2710, 34930.00
404.4660, 34721.00
405.6610, 34762.00
406.8560, 34639.00
408.0510, 34659.00
409.2450, 34415.00
410.4400, 34599.00
411.6340, 34496.00
412.8280, 34688.00
414.0220, 34519.00
415.2160, 34214.00
416.4100, 34044.00
417.6030, 33845.00
418.7970, 33685.00
419.9900, 33183.00
421.1830, 32815.00
422.3760, 32399.00
423.5690, 32505.00
424.7610, 31910.00
425.9540, 31789.00
427.1460, 31438.00
428.3380, 31655.00
429.5300, 31712.00
430.7220, 31965.00
431.9140, 32504.00
433.1050, 32877.00
434.2970, 33316.00
435.4880, 33806.00
436.6790, 34136.00
437.8700, 34204.00
439.0610, 34194.00
440.2510, 34235.00
441.4420, 34209.00
442.6320, 33818.00
443.8220, 33505.00
445.0120, 32885.00
446.2020, 32313.00
447.3910, 31793.00
448.5810, 31365.00
449.7700, 30998.43
450.9600, 30671.34
452.1490, 30480.00
453.3370, 30303.00
454.5260, 30210.31
455.7150, 30425.00
456.9030, 30191.00
458.0910, 30293.00
459.2800, 30433.00
460.4670, 30075.00
461.6550, 30414.00
462.8430, 30271.00
464.0300, 30283.00
465.2180, 30172.00
466.4050, 30233.00
467.5920, 30234.00
468.7790, 30371.00
469.9650, 30168.00
471.1520, 30233.00
472.3380, 30270.00
473.5250, 30516.00
474.7110, 30236.00
475.8970, 30132.00
477.0820, 30310.00
478.2680, 30606.00
479.4540, 30164.00
480.6390, 30395.00
481.8240, 30310.00
483.0090, 30398.00
484.1940, 30417.00
485.3780, 30442.00
486.5630, 30457.43
487.7470, 30311.00
488.9320, 30488.00
490.1160, 30369.00
491.3000, 30465.00
492.4830, 30499.00
493.6670, 30494.00
494.8500, 30544.63
496.0340, 30548.00
497.2170, 30573.00
498.4000, 30539.00
499.5820, 30534.00
500.7650, 30742.00
501.9480, 30783.00
503.1300, 30636.00
504.3120, 30772.00
505.4940, 30740.00
506.6760, 30905.00
507.8580, 30815.00
509.0390, 31105.00
510.2210, 31015.00
511.4020, 31013.00
512.5830, 31245.00
513.7640, 31324.00
514.9450, 31274.00
516.1250, 31326.00
517.3060, 31518.00
518.4860, 31751.00
519.6660, 31761.00
520.8460, 31877.00
522.0260, 31905.00
523.2060, 31868.00
524.3850, 31897.00
525.5650, 31957.00
526.7440, 31858.00
527.9230, 32296.00
529.1020, 32084.00
530.2810, 32456.00
531.4590, 32474.00
532.6380, 32477.00
533.8160, 32319.00
534.9940, 32694.00
536.1720, 32575.00
537.3500, 32987.00
538.5270, 32883.00
539.7050, 32823.00
540.8820, 32802.00
542.0590, 32796.00
543.2360, 32878.00
544.4130, 32783.00
545.5900, 32546.00
546.7660, 32662.00
547.9430, 32592.00
549.1190, 32493.00
550.2950, 32763.00
551.4710, 32620.00
552.6470, 32505.00
553.8220, 32496.00
554.9980, 32470.00
556.1730, 32554.00
557.3480, 32490.00
558.5230, 32543.88
559.6980, 32573.36
560.8730, 32577.00
562.0470, 32579.00
563.2220, 32527.00
564.3960, 32382.00
565.5700, 32434.00
566.7440, 32449.00
567.9170, 32480.56
569.0910, 32820.00
570.2640, 32678.00
571.4380, 32762.00
572.6110, 32937.00
573.7840, 32638.00
574.9570, 32609.00
576.1290, 32944.00
577.3020, 32736.00
578.4740, 33000.00
579.6460, 32842.00
580.8180, 33022.00
581.9900, 33394.00
583.1620, 33198.00
584.3330, 32979.00
585.5040, 33082.00
586.6760, 32805.00
587.8470, 33385.00
589.0180, 33147.00
590.1880, 33223.00
591.3590, 32976.00
592.5290, 33250.00
593.7000, 33260.00
594.8700, 33648.00
596.0400, 33270.00
597.2090, 33452.00
598.3790, 33284.00
599.5490, 33614.00
600.7180, 33403.00
601.8870, 33380.00
603.0560, 33584.00
604.2250, 33847.00
605.3940, 33510.00
606.5620, 33471.00
607.7300, 33668.00
608.8990, 33860.00
610.0670, 33763.00
611.2350, 33862.00
612.4020, 33862.00
613.5700, 33724.00
614.7370, 34181.00
615.9050, 33765.00
617.0720, 34050.00
618.2390, 34027.00
619.4060, 34291.00
620.5720, 34497.00
621.7390, 34434.00
622.9050, 34601.00
624.0710, 34686.23
625.2370, 34512.00
626.4030, 34859.00
627.5690, 35013.00
628.7340, 35048.00
629.9000, 35050.00
631.0650, 35034.00
632.2300, 35253.00
633.3950, 35416.00
634.5600, 35315.00
635.7240, 35351.00
636.8890, 35715.00
638.0530, 35871.00
639.2170, 36202.00
640.3810, 36488.00
641.5450, 36782.00
642.7080, 37147.00
643.8720, 37305.00
645.0350, 38087.00
646.1980, 38546.00
647.3610, 39386.00
648.5240, 40289.00
649.6870, 41541.00
650.8490, 43242.00
652.0120, 44785.00
653.1740, 46848.00
654.3360, 49097.00
655.4980, 50787.00
656.6600, 52620.00
657.8210, 53837.00
658.9830, 54985.00
660.1440, 55099.00
661.3050, 55029.00
662.4660, 54131.00
663.6270, 53645.00
664.7870, 52850.00
665.9480, 51206.00
667.1080, 50073.00
668.2680, 48895.00
669.4280, 49036.00
670.5880, 49008.00
671.7480, 49382.00
672.9070, 50687.00
674.0670, 52799.00
675.2260, 54039.00
676.3850, 56323.00
677.5440, 58281.00
678.7030, 59760.00
679.8610, 61036.00
681.0200, 61433.00
682.1780, 61341.00
683.3360, 60811.00
684.4940, 59409.00
685.6520, 57525.00
686.8090, 55067.00
687.9670, 52692.00
689.1240, 49982.00
690.2810, 47616.00
691.4380, 45514.00
692.5950, 43503.00
693.7520, 42303.00
694.9080, 41196.00
696.0650, 40062.00
697.2210, 39695.00
698.3770, 38861.00
699.5330, 38731.00
700.6880, 38244.00
701.8440, 38041.00
702.9990, 37640.00
704.1550, 37742.00
705.3100, 37399.00
706.4650, 37672.00
707.6190, 37143.00
708.7740, 37143.00
709.9290, 37094.00
711.0830, 36833.00
712.2370, 37027.00
713.3910, 36978.00
714.5450, 36692.00
715.6980, 36759.00
716.8520, 36676.00
718.0050, 36586.00
719.1580, 36549.00
720.3110, 36876.00
721.4640, 36715.00
722.6170, 36762.00
723.7700, 36381.00
724.9220, 36559.00
726.0740, 36694.00
727.2260, 36806.00
728.3780, 36642.00
729.5300, 36826.00
730.6810, 36710.00
731.8330, 36777.00
732.9840, 36782.00
734.1350, 36822.00
735.2860, 36578.00
736.4370, 36847.00
737.5880, 36753.00
738.7380, 36935.00
739.8880, 36633.00
741.0390, 36812.00
742.1890, 36991.00
743.3380, 36734.00
744.4880, 36864.00
745.6380, 36828.00
746.7870, 36875.00
747.9360, 36916.00
749.0850, 36840.00
750.2340, 36775.00
751.3830, 36887.00
752.5310, 36973.00
753.6800, 37045.00
754.8280, 36954.00
755.9760, 36989.98
757.1240, 37048.00
758.2720, 36929.00
759.4190, 37102.00
760.5670, 37102.00
761.7140, 36974.00
762.8610, 37153.00
764.0080, 36883.00
765.1550, 36941.00
766.3020, 37135.00
767.4480, 37195.00
768.5950, 37321.00
769.7410, 37136.00
770.8870, 37301.00
772.0330, 37226.00
773.1780, 37177.00
774.3240, 37285.00
775.4690, 37261.00
776.6140, 37284.00
777.7590, 37427.00
778.9040, 37408.00
780.0490, 37451.33
781.1940, 37609.00
782.3380, 37499.00
783.4820, 37430.00
784.6260, 37503.00
785.7700, 37485.00
786.9140, 37390.00
788.0580, 37481.55
789.2010, 37468.75
790.3450, 37616.00
791.4880, 37550.00
792.6310, 37696.00
793.7730, 37744.00
794.9160, 37806.00
796.0590, 37816.00
797.2010, 37549.00
798.3430, 37661.00
799.4850, 37691.74
800.6270, 38017.00
801.7690, 37883.00
802.9100, 37977.00
804.0520, 37982.00
805.1930, 37864.00
806.3340, 38120.00
807.4750, 38080.00
808.6160, 38352.00
809.7560, 38193.00
810.8970, 38160.00
812.0370, 38247.00
813.1770, 38280.00
814.3170, 38192.00
815.4570, 38366.00
816.5960, 38348.00
817.7360, 38332.00
818.8750, 38446.00
820.0140, 38403.99
821.1530, 38490.00
822.2920, 38426.00
823.4310, 38439.00
824.5690, 38483.00
825.7070, 38555.00
826.8460, 38584.38
827.9840, 38719.00
829.1220, 38655.00
830.2590, 38756.00
831.3970, 38740.37
832.5340, 38752.00
833.6710, 38815.00
834.8080, 38864.00
835.9450, 38958.00
837.0820, 38963.00
838.2190, 39090.00
839.3550, 39181.00
840.4910, 39431.00
841.6270, 39561.00
842.7630, 39534.00
843.8990, 39872.00
845.0350, 39796.00
846.1700, 40285.00
847.3060, 40527.00
848.4410, 40732.00
849.5760, 40911.00
850.7100, 41249.00
851.8450, 41338.00
852.9800, 41680.00
854.1140, 41699.00
855.2480, 41759.00
856.3820, 41928.00
857.5160, 41681.00
858.6500, 41845.00
859.7830, 41558.00
860.9170, 41194.00
862.0500, 41134.00
863.1830, 40966.00
864.3160, 40714.00
865.4480, 40537.00
866.5810, 40464.00
867.7130, 40089.00
868.8460, 40210.00
869.9780, 39981.00
871.1100, 40361.00
872.2410, 40003.00
873.3730, 40182.00
874.5050, 40109.00
875.6360, 40150.00
876.7670, 40133.00
877.8980, 40043.25
879.0290, 39824.00
880.1590, 39917.00
881.2900, 39888.00
882.4200, 39944.00
883.5500, 39931.00
884.6800, 40096.00
885.8100, 39814.00
886.9400, 40083.00
888.0690, 39942.00
889.1990, 40113.00
890.3280, 40047.00
891.4570, 40073.00
892.5860, 40020.00
893.7140, 40065.88
894.8430, 40199.00
895.9710, 40126.00
897.1000, 40243.00
898.2280, 40194.00
899.3560, 40465.00
900.4830, 40257.00
901.6110, 40293.00
902.7380, 40315.00
903.8660, 40553.00
904.9930, 40711.00
906.1200, 40368.00
907.2460, 40528.00
908.3730, 40530.00
909.5000, 40494.00
910.6260, 40577.00
911.7520, 40644.00
912.8780, 40415.00
914.0040, 40878.00
915.1290, 40431.00
916.2550, 40856.00
917.3800, 40679.00
918.5050, 40681.00
919.6300, 40951.00
920.7550, 40792.00
921.8800, 40746.00
923.0040, 40864.00
924.1290, 40833.14
925.2530, 41217.00
926.3770, 40982.00
927.5010, 41160.00
928.6250, 41265.00
929.7480, 41217.00
930.8720, 41432.00
931.9950, 41345.80
933.1180, 41752.00
934.2410, 41382.00
935.3640, 41266.00
936.4860, 41547.00
937.6090, 41757.00
938.7310, 41652.00
939.8530, 41477.00
940.9750, 41780.00
942.0970, 41806.00
943.2180, 41367.00
944.3400, 41479.00
945.4610, 41309.00
946.5820, 41650.00
947.7030, 41401.00
948.8240, 41344.00
949.9450, 41659.00
951.0650, 41737.00
952.1860, 41766.65
953.3060, 41642.00
954.4260, 41775.00
955.5460, 41601.00
956.6650, 41478.00
957.7850, 41356.00
958.9040, 41285.00
960.0230, 41578.00
961.1420, 41584.00
962.2610, 41599.00
963.3800, 41783.00
964.4990, 41463.00
965.6170, 41679.00
966.7350, 41508.00
967.8530, 41738.00
968.9710, 41950.00
970.0890, 41944.00
971.2070, 41831.00
972.3240, 41793.00
973.4410, 42075.00
974.5580, 41836.00
975.6750, 41672.00
976.7920, 41990.00
977.9090, 42049.00
979.0250, 42320.00
980.1410, 41913.00
981.2580, 42203.00
982.3740, 42266.29
983.4890, 42389.00
984.6050, 42502.00
985.7200, 42564.00
986.8360, 42516.00
987.9510, 42876.00
989.0660, 42685.00
990.1810, 42986.00
991.2950, 43206.00
992.4100, 43249.00
993.5240, 43637.00
994.6390, 43819.00
995.7530, 44130.00
996.8660, 44431.00
997.9800, 44812.00
999.0940, 45530.00
1000.207, 45735.00
1001.320, 46327.00
1002.433, 46495.00
1003.546, 47404.00
1004.659, 47456.00
1005.772, 47913.00
1006.884, 48583.00
1007.996, 48660.00
1009.108, 48935.00
1010.220, 49323.00
1011.332, 49235.00
1012.444, 49527.00
1013.555, 49462.00
1014.666, 49496.00
1015.777, 49542.00
1016.888, 49516.00
1017.999, 49984.00
1019.110, 49862.00
1020.220, 50177.00
1021.331, 50586.00
1022.441, 50747.00
1023.551, 50645.00
1024.661, 50926.00
1025.770, 51274.00
1026.880, 50993.00
1027.989, 50916.00
1029.098, 50580.00
1030.207, 50412.00
1031.316, 50161.00
1032.425, 49970.00
1033.533, 49130.00
1034.642, 48424.00
1035.750, 47851.00
1036.858, 47577.00
1037.966, 46864.00
1039.073, 46628.00
1040.181, 46103.00
1041.288, 45699.00
1042.396, 45620.00
1043.503, 45137.00
1044.610, 45020.00
1045.716, 44630.00
1046.823, 44319.00
1047.929, 44522.00
1049.036, 44375.00
1050.142, 44323.00
1051.248, 44042.00
1052.353, 44017.00
1053.459, 43875.00
1054.564, 44017.00
1055.670, 43925.00
1056.775, 44042.00
1057.880, 43930.00
1058.985, 43761.00
1060.089, 43828.00
1061.194, 43866.00
1062.298, 43975.00
1063.402, 44152.00
1064.506, 43895.00
1065.610, 43845.00
1066.713, 43996.00
1067.817, 43867.82
1068.920, 43820.00
1070.023, 43845.00
1071.126, 43875.00
1072.229, 43794.00
1073.332, 43848.00
1074.435, 43830.00
1075.537, 43666.00
1076.639, 43786.95
1077.741, 44017.00
1078.843, 43926.00
1079.945, 44033.00
1081.046, 44145.00
1082.148, 44086.00
1083.249, 44181.00
1084.350, 43953.00
1085.451, 44056.00
1086.551, 44097.00
1087.652, 44146.00
1088.752, 44175.00
1089.853, 44075.00
1090.953, 43910.00
1092.053, 44118.00
1093.152, 44187.00
1094.252, 44314.00
1095.351, 44153.00
1096.451, 44263.00
1097.550, 44393.00
1098.649, 44424.00
1099.748, 44009.00
1100.846, 44201.00
1101.945, 44574.00
1103.043, 44062.00
1104.141, 44385.00
1105.239, 44336.00
1106.337, 44361.00
1107.434, 44306.00
1108.532, 44280.00
1109.629, 44263.00
1110.726, 44590.00
1111.823, 44651.00
1112.920, 44638.00
1114.017, 44456.00
1115.113, 44662.00
1116.210, 44497.00
1117.306, 44676.00
1118.402, 44994.00
1119.498, 45154.00
1120.593, 45267.00
1121.689, 44814.00
1122.784, 44911.00
1123.879, 44780.00
1124.974, 45085.00
1126.069, 44797.00
1127.164, 45030.00
1128.259, 44895.00
1129.353, 44920.00
1130.447, 44919.00
1131.541, 44915.00
1132.635, 44813.00
1133.729, 45057.00
1134.822, 44797.00
1135.916, 44707.00
1137.009, 45011.00
1138.102, 45062.00
1139.195, 44782.00
1140.288, 44894.00
1141.380, 44810.00
1142.473, 44764.00
1143.565, 45078.00
1144.657, 44682.00
1145.749, 44658.00
1146.841, 44882.00
1147.932, 44984.00
1149.024, 44695.00
1150.115, 45308.00
1151.206, 44866.00
1152.297, 44897.00
1153.388, 45089.00
1154.479, 45239.00
1155.569, 44921.00
1156.659, 45019.00
1157.750, 44990.00
1158.839, 45104.00
1159.929, 45189.00
1161.019, 44816.00
1162.108, 45066.00
1163.198, 45352.00
1164.287, 45110.00
1165.376, 45523.00
1166.465, 45402.00
1167.553, 45476.00
1168.642, 45328.00
1169.730, 45422.00
1170.818, 45254.00
1171.906, 45369.00
1172.994, 45470.00
1174.082, 45450.00
1175.170, 45528.00
1176.257, 45667.00
1177.344, 45492.00
1178.431, 45486.00
1179.518, 45293.00
1180.605, 45491.00
1181.691, 45454.00
1182.778, 45475.00
1183.864, 45200.00
1184.950, 45593.00
1186.036, 45446.00
1187.122, 45191.00
1188.207, 45707.00
1189.292, 45764.00
1190.378, 45396.00
1191.463, 45356.00
1192.548, 45847.00
1193.632, 45381.00
1194.717, 45353.00
1195.801, 45840.00
1196.886, 45949.00
1197.970, 45683.00
1199.054, 45749.00
1200.137, 45822.00
1201.221, 45702.00
1202.305, 45974.00
1203.388, 45638.00
1204.471, 45939.00
1205.554, 46124.00
1206.637, 46066.00
1207.719, 45925.00
1208.802, 45868.00
1209.884, 45739.00
1210.966, 45993.00
1212.048, 46193.00
1213.130, 45878.00
1214.212, 46161.00
1215.293, 46206.00
1216.374, 46194.00
1217.456, 46201.00
1218.536, 46227.00
1219.617, 46054.00
1220.698, 46296.00
1221.778, 46053.00
1222.859, 46269.00
1223.939, 46386.00
1225.019, 46142.00
1226.099, 46181.00
1227.178, 46344.00
1228.258, 46231.00
1229.337, 46393.00
1230.417, 46175.00
1231.496, 46640.00
1232.574, 46352.00
1233.653, 46560.00
1234.732, 46452.00
1235.810, 46655.00
1236.888, 46526.00
1237.966, 46708.00
1239.044, 46800.00
1240.122, 46693.00
1241.199, 46718.00
1242.277, 46872.00
1243.354, 46746.00
1244.431, 46844.00
1245.508, 46640.00
1246.585, 46942.00
1247.661, 47014.00
1248.738, 46934.00
1249.814, 46986.00
1250.890, 46981.23
1251.966, 47054.00
1253.042, 46973.00
1254.117, 46969.00
1255.193, 46934.00
1256.268, 47111.00
1257.343, 47243.00
1258.418, 47018.00
1259.493, 46915.00
1260.567, 46895.00
1261.642, 47218.00
1262.716, 47075.00
1263.790, 47603.00
1264.864, 47455.00
1265.938, 47280.00
1267.011, 47052.00
1268.085, 47528.00
1269.158, 47382.00
1270.231, 47674.00
1271.304, 47395.00
1272.377, 47647.00
1273.450, 47289.00
1274.522, 47667.00
1275.594, 47663.00
1276.666, 47848.00
1277.738, 47518.00
1278.810, 47663.00
1279.882, 47557.00
1280.953, 47767.00
1282.025, 47644.00
1283.096, 47677.23
1284.167, 47391.00
1285.238, 47635.00
1286.308, 47634.00
1287.379, 47553.00
1288.449, 47884.00
1289.519, 47531.00
1290.589, 47951.00
1291.659, 47980.00
1292.729, 47917.00
1293.798, 47966.00
1294.868, 47696.00
1295.937, 47891.00
1297.006, 47690.00
1298.075, 47667.00
1299.143, 47761.00
1300.212, 47993.00
1301.280, 47773.00
1302.348, 48070.00
1303.416, 48161.00
1304.484, 48026.00
1305.552, 48321.00
1306.620, 48216.00
1307.687, 48054.00
1308.754, 48188.00
1309.821, 48280.00
1310.888, 48161.00
1311.955, 48159.00
1313.021, 48657.00
1314.088, 48568.00
1315.154, 48706.00
1316.220, 48533.00
1317.286, 48587.00
1318.352, 49014.00
1319.417, 48705.00
1320.483, 48656.00
1321.548, 48746.00
1322.613, 48514.00
1323.678, 48649.00
1324.743, 48565.00
1325.807, 48834.00
1326.872, 49041.00
1327.936, 48954.00
1329.000, 49376.00
1330.064, 48894.00
1331.128, 48943.00
1332.191, 49063.00
1333.255, 49073.00
1334.318, 48708.00
1335.381, 49167.00
1336.444, 48862.00
1337.507, 48868.00
1338.569, 48999.00
1339.632, 48833.00
1340.694, 49174.00
1341.756, 49095.00
1342.818, 48828.00
1343.880, 49232.00
1344.941, 49028.00
1346.003, 49254.00
1347.064, 49226.00
1348.125, 49215.00
1349.186, 49171.00
1350.247, 49243.00
1351.308, 49178.00
1352.368, 49368.00
1353.428, 49393.00
1354.489, 49393.00
1355.549, 49444.00
1356.608, 49295.00
1357.668, 49361.00
1358.727, 49527.00
1359.787, 49315.00
1360.846, 49433.00
1361.905, 49375.73
1362.964, 49449.00
1364.022, 49335.00
1365.081, 49455.00
1366.139, 49539.00
1367.197, 49690.00
1368.255, 49697.65
1369.313, 49743.48
1370.371, 49730.00
1371.428, 49715.00
1372.486, 49752.00
1373.543, 49672.00
1374.600, 49725.61
1375.657, 49811.00
1376.713, 49794.00
1377.770, 49870.00
1378.826, 49927.00
1379.882, 50122.00
1380.938, 50206.00
1381.994, 50101.00
1383.050, 49850.00
1384.106, 50185.00
1385.161, 50420.00
1386.216, 50332.00
1387.271, 50060.00
1388.326, 49972.00
1389.381, 50184.00
1390.435, 50097.00
1391.490, 50147.47
1392.544, 50336.00
1393.598, 50208.00
1394.652, 50005.00
1395.705, 50063.00
1396.759, 50031.28
1397.812, 50403.00
1398.866, 50076.00
1399.919, 50357.00
1400.972, 50230.00
1402.024, 50089.00
1403.077, 50386.00
1404.129, 50862.00
1405.181, 50580.00
1406.233, 50312.00
1407.285, 50530.00
1408.337, 50312.00
1409.389, 50691.00
1410.440, 50493.00
1411.491, 50477.00
1412.542, 50731.00
1413.593, 50909.00
1414.644, 50795.00
1415.695, 50854.00
1416.745, 50786.00
1417.795, 50501.00
1418.845, 50805.00
1419.895, 50948.00
1420.945, 50895.00
1421.995, 50743.00
1423.044, 50769.00
1424.093, 50635.00
1425.142, 50769.00
1426.191, 50778.70
1427.240, 50754.00
1428.289, 50929.00
1429.337, 50918.86
1430.385, 51026.27
1431.433, 51087.00
1432.481, 51211.00
1433.529, 51429.00
1434.577, 51512.00
1435.624, 51583.52
1436.672, 51692.00
1437.719, 51582.00
1438.766, 51679.00
1439.812, 51533.00
1440.859, 51944.00
1441.905, 51881.00
1442.952, 51871.00
1443.998, 52238.00
1445.044, 52242.00
1446.090, 51900.00
1447.135, 52184.00
1448.181, 52151.00
1449.226, 52062.00
1450.271, 52452.00
1451.316, 52491.00
1452.361, 52315.00
1453.405, 52298.00
1454.450, 52079.00
1455.494, 52243.00
1456.538, 52491.00
1457.582, 52428.00
1458.626, 52480.00
1459.670, 52654.00
1460.713, 52407.00
1461.757, 52416.00
1462.800, 52496.00
1463.843, 52381.00
1464.886, 52302.00
1465.928, 52159.00
1466.971, 52305.00
1468.013, 52429.00
1469.055, 52257.00
1470.097, 52380.00
1471.139, 52144.00
1472.181, 52420.00
1473.222, 52273.00
1474.263, 52291.00
1475.305, 52274.00
1476.346, 52180.00
1477.386, 52437.00
1478.427, 52463.00
1479.468, 52510.00
1480.508, 52383.00
1481.548, 52448.00
1482.588, 52421.00
1483.628, 52595.00
1484.668, 52385.00
1485.707, 52656.00
1486.747, 52255.00
1487.786, 52604.00
1488.825, 52597.00
1489.864, 52652.00
1490.902, 52826.00
1491.941, 52454.00
1492.979, 52849.00
1494.017, 52463.00
1495.055, 52610.00
1496.093, 52424.00
1497.131, 52565.00
1498.168, 52746.00
1499.206, 52777.00
1500.243, 52807.00
1501.280, 52862.00
1502.317, 52859.50
1503.354, 52874.08
1504.390, 52899.00
1505.426, 52873.00
1506.463, 52965.00
1507.499, 52985.00
1508.535, 52936.00
1509.570, 52835.00
1510.606, 52899.00
1511.641, 53156.00
1512.676, 53078.00
1513.711, 52884.00
1514.746, 52962.00
1515.781, 52809.00
1516.816, 53001.00
1517.850, 53291.00
1518.884, 53031.00
1519.918, 53159.00
1520.952, 53077.00
1521.986, 53127.00
1523.019, 53163.00
1524.053, 53348.00
1525.086, 52999.00
1526.119, 53170.00
1527.152, 53288.00
1528.185, 53476.00
1529.217, 53114.00
1530.250, 53433.00
1531.282, 53247.00
1532.314, 53187.00
1533.346, 53740.00
1534.377, 53592.00
1535.409, 53556.00
1536.440, 53746.00
1537.472, 53830.00
1538.503, 53513.00
1539.534, 53434.00
1540.564, 53491.00
1541.595, 53690.00
1542.625, 53591.23
1543.656, 53743.00
1544.686, 53595.00
1545.716, 53490.00
1546.745, 53581.00
1547.775, 53516.00
1548.804, 53566.00
1549.834, 53696.00
1550.863, 53781.00
1551.892, 53628.00
1552.920, 53910.00
1553.949, 54148.00
1554.977, 53759.00
1556.006, 53734.00
1557.034, 53770.00
1558.062, 53808.00
1559.089, 53744.00
1560.117, 54009.00
1561.144, 53840.00
1562.172, 53935.00
1563.199, 53652.00
1564.226, 53655.00
1565.252, 53965.00
1566.279, 54193.00
1567.305, 54213.00
1568.332, 54471.00
1569.358, 53935.00
1570.384, 54424.00
##END=



