##NAMES=Enstatite
##RRUFFID=R060744
##IDEAL CHEMISTRY=MgSiO_3_
##LOCALITY=Orissa, India
##OWNER=RRUFF
##SOURCE=Herb Obodda
##DESCRIPTION=Brown transparent fragment
##STATUS=The identification of this mineral has been confirmed by X-ray diffraction and chemical analysis
##URL=rruff.info/R060744
##MEASURED CHEMISTRY=(Mg_0.85_Fe^2+^_0.13_Fe^3+^_0.01_Mn_0.01_)_Σ=1_(Si_0.99_Al_0.01_)_Σ=1_O_3_; trace amounts of Ca; Fe^2+^ and Fe^3+^ splitted by charge balance
##PIN_ID=L01935
##ORIENTATION=Laser parallel to -a* (-1 0 0). Fiducial mark perpendicular to laser is parallel to -b [0 -1 0]
113.2080, 5981.000
114.4400, 6582.000
115.6710, 6993.000
116.9030, 7717.000
118.1340, 8468.000
119.3650, 9529.000
120.5960, 10842.00
121.8270, 12702.00
123.0580, 15226.00
124.2880, 18515.00
125.5190, 22294.00
126.7490, 25923.00
127.9790, 28033.00
129.2090, 27747.00
130.4390, 25851.00
131.6680, 22967.00
132.8980, 19827.00
134.1270, 16970.00
135.3560, 14628.00
136.5850, 12971.00
137.8140, 11949.00
139.0430, 11281.00
140.2710, 10742.00
141.5000, 10314.00
142.7280, 10015.00
143.9560, 9801.000
145.1840, 9397.000
146.4120, 9270.000
147.6390, 8902.000
148.8670, 8564.000
150.0940, 8404.000
151.3210, 8325.000
152.5490, 8018.000
153.7750, 7914.000
155.0020, 7822.000
156.2290, 7641.000
157.4550, 7650.000
158.6810, 7756.000
159.9080, 7896.000
161.1340, 8167.000
162.3590, 8499.000
163.5850, 8796.000
164.8110, 8561.000
166.0360, 8181.000
167.2610, 7872.000
168.4860, 7735.000
169.7110, 7567.000
170.9360, 7356.000
172.1610, 7228.000
173.3850, 7264.000
174.6100, 7196.000
175.8340, 7294.000
177.0580, 7364.000
178.2820, 7456.021
179.5050, 7603.000
180.7290, 7767.000
181.9520, 8070.000
183.1760, 8322.000
184.3990, 8719.000
185.6220, 9010.000
186.8450, 9388.000
188.0670, 9536.000
189.2900, 9615.000
190.5120, 9495.000
191.7340, 9113.000
192.9560, 8841.000
194.1780, 8692.000
195.4000, 8479.000
196.6220, 8141.000
197.8430, 8127.000
199.0640, 7944.000
200.2860, 7983.000
201.5070, 7793.000
202.7270, 7608.000
203.9480, 7246.000
205.1690, 6890.000
206.3890, 6829.000
207.6090, 6707.000
208.8290, 6719.000
210.0490, 6755.000
211.2690, 6766.000
212.4890, 7024.000
213.7080, 7126.000
214.9280, 7389.000
216.1470, 7618.000
217.3660, 7885.000
218.5850, 8324.000
219.8030, 8795.000
221.0220, 9475.541
222.2400, 10198.00
223.4590, 11226.00
224.6770, 12281.00
225.8950, 13586.00
227.1120, 15304.00
228.3300, 17317.00
229.5480, 19508.00
230.7650, 21773.00
231.9820, 23725.00
233.1990, 24772.00
234.4160, 23886.00
235.6330, 22362.00
236.8490, 20081.00
238.0660, 17843.00
239.2820, 15471.00
240.4980, 13466.00
241.7140, 11833.00
242.9300, 10470.00
244.1460, 9417.000
245.3610, 8790.000
246.5770, 8208.000
247.7920, 7763.000
249.0070, 7493.000
250.2220, 7419.000
251.4370, 6977.000
252.6510, 7001.000
253.8660, 6964.000
255.0800, 6817.000
256.2940, 7037.000
257.5080, 6892.316
258.7220, 7185.000
259.9360, 6773.000
261.1490, 6673.000
262.3630, 6547.000
263.5760, 6628.000
264.7890, 6464.000
266.0020, 6548.000
267.2150, 6610.000
268.4270, 6651.000
269.6400, 6656.000
270.8520, 6662.000
272.0640, 6753.000
273.2760, 6684.000
274.4880, 6775.000
275.7000, 6852.000
276.9120, 6790.000
278.1230, 6953.000
279.3340, 7020.000
280.5450, 7182.000
281.7560, 7366.000
282.9670, 7384.000
284.1780, 7574.000
285.3880, 7838.000
286.5980, 8112.000
287.8090, 8397.000
289.0190, 8692.000
290.2290, 9018.000
291.4380, 9572.000
292.6480, 9880.000
293.8570, 10191.00
295.0670, 10351.00
296.2760, 10365.00
297.4850, 10287.00
298.6930, 10133.00
299.9020, 10138.51
301.1110, 9981.000
302.3190, 10063.00
303.5270, 10122.00
304.7350, 10114.00
305.9430, 10199.00
307.1510, 10200.00
308.3580, 10250.00
309.5660, 10474.28
310.7730, 10696.25
311.9800, 11082.00
313.1870, 11456.00
314.3940, 12033.00
315.6010, 12671.00
316.8070, 13213.00
318.0130, 13875.00
319.2200, 13885.00
320.4260, 14443.00
321.6310, 15169.00
322.8370, 16370.00
324.0430, 17778.00
325.2480, 19414.00
326.4540, 21727.00
327.6590, 24589.00
328.8640, 28013.00
330.0680, 32615.00
331.2730, 37558.00
332.4780, 43014.00
333.6820, 48993.00
334.8860, 55152.00
336.0900, 59989.00
337.2940, 62941.00
338.4980, 63447.00
339.7010, 61588.00
340.9050, 57140.00
342.1080, 51993.00
343.3110, 46202.00
344.5140, 40390.00
345.7170, 34685.00
346.9200, 30362.00
348.1220, 26847.00
349.3240, 24052.00
350.5270, 22067.00
351.7290, 20658.00
352.9310, 19401.00
354.1320, 18264.00
355.3340, 17280.00
356.5350, 16453.00
357.7370, 15517.00
358.9380, 14898.00
360.1390, 14204.00
361.3400, 13638.00
362.5400, 13402.00
363.7410, 13218.00
364.9410, 13085.00
366.1410, 13113.00
367.3410, 13293.61
368.5410, 13754.00
369.7410, 13983.00
370.9400, 14559.00
372.1400, 15132.00
373.3390, 15463.00
374.5380, 15932.00
375.7370, 15840.00
376.9360, 16014.00
378.1350, 15762.00
379.3330, 15657.00
380.5310, 15540.00
381.7300, 15498.00
382.9280, 15655.00
384.1260, 16201.00
385.3230, 16764.00
386.5210, 17643.00
387.7180, 18597.00
388.9160, 19830.00
390.1130, 21088.00
391.3100, 22727.00
392.5060, 24143.00
393.7030, 25236.00
394.9000, 26470.00
396.0960, 27009.00
397.2920, 27184.00
398.4880, 27110.00
399.6840, 26759.00
400.8800, 25925.00
402.0750, 25333.00
403.2710, 24407.00
404.4660, 23506.00
405.6610, 22643.00
406.8560, 21767.00
408.0510, 21382.00
409.2450, 20547.00
410.4400, 19940.00
411.6340, 19028.00
412.8280, 18586.00
414.0220, 17909.00
415.2160, 17287.00
416.4100, 16592.00
417.6030, 15907.00
418.7970, 15098.00
419.9900, 13995.00
421.1830, 13155.00
422.3760, 12249.00
423.5690, 11669.00
424.7610, 11208.00
425.9540, 10789.00
427.1460, 10630.00
428.3380, 10702.00
429.5300, 10776.00
430.7220, 11257.00
431.9140, 11387.00
433.1050, 11950.00
434.2970, 12571.00
435.4880, 12968.00
436.6790, 13293.00
437.8700, 13003.00
439.0610, 12824.00
440.2510, 12180.00
441.4420, 11600.00
442.6320, 10729.00
443.8220, 10037.00
445.0120, 9502.000
446.2020, 9203.000
447.3910, 8876.000
448.5810, 8674.000
449.7700, 8645.000
450.9600, 8594.000
452.1490, 8600.000
453.3370, 8613.918
454.5260, 8614.591
455.7150, 8665.000
456.9030, 8675.000
458.0910, 8654.000
459.2800, 8716.000
460.4670, 8825.000
461.6550, 8678.000
462.8430, 8622.000
464.0300, 8413.000
465.2180, 8240.000
466.4050, 8125.000
467.5920, 7986.614
468.7790, 7902.000
469.9650, 7832.000
471.1520, 7753.000
472.3380, 7777.000
473.5250, 7707.000
474.7110, 7636.000
475.8970, 7594.000
477.0820, 7550.929
478.2680, 7560.000
479.4540, 7561.000
480.6390, 7598.039
481.8240, 7571.411
483.0090, 7640.000
484.1940, 7500.000
485.3780, 7483.000
486.5630, 7378.000
487.7470, 7420.000
488.9320, 7399.000
490.1160, 7348.000
491.3000, 7447.000
492.4830, 7305.000
493.6670, 7292.000
494.8500, 7213.000
496.0340, 7385.000
497.2170, 7339.000
498.4000, 7368.000
499.5820, 7355.000
500.7650, 7487.000
501.9480, 7600.000
503.1300, 7700.000
504.3120, 7926.000
505.4940, 8210.000
506.6760, 8483.000
507.8580, 9011.000
509.0390, 9433.000
510.2210, 10096.00
511.4020, 10866.00
512.5830, 11641.00
513.7640, 12477.00
514.9450, 13143.00
516.1250, 13671.00
517.3060, 13903.00
518.4860, 14169.00
519.6660, 14015.00
520.8460, 13815.00
522.0260, 13636.00
523.2060, 13046.00
524.3850, 12680.00
525.5650, 12127.00
526.7440, 11745.00
527.9230, 11460.00
529.1020, 11500.00
530.2810, 11730.00
531.4590, 12060.00
532.6380, 12273.00
533.8160, 13098.00
534.9940, 13502.00
536.1720, 13611.00
537.3500, 13638.00
538.5270, 13425.00
539.7050, 13256.00
540.8820, 13386.00
542.0590, 13159.00
543.2360, 12990.00
544.4130, 12955.00
545.5900, 12727.00
546.7660, 12428.00
547.9430, 11983.00
549.1190, 11494.00
550.2950, 10903.00
551.4710, 10415.00
552.6470, 9994.000
553.8220, 9632.000
554.9980, 9187.000
556.1730, 8952.000
557.3480, 8787.000
558.5230, 8799.000
559.6980, 8659.000
560.8730, 8582.000
562.0470, 8592.344
563.2220, 8549.000
564.3960, 8651.000
565.5700, 8721.000
566.7440, 8873.000
567.9170, 8966.000
569.0910, 9145.000
570.2640, 9329.000
571.4380, 9468.000
572.6110, 9369.000
573.7840, 9307.000
574.9570, 9202.000
576.1290, 9105.000
577.3020, 8840.000
578.4740, 8672.000
579.6460, 8545.497
580.8180, 8411.205
581.9900, 8351.000
583.1620, 8245.000
584.3330, 8286.000
585.5040, 8210.000
586.6760, 8150.000
587.8470, 8207.000
589.0180, 8107.000
590.1880, 8129.000
591.3590, 7970.000
592.5290, 8051.000
593.7000, 7884.000
594.8700, 7776.000
596.0400, 7727.000
597.2090, 7644.000
598.3790, 7642.000
599.5490, 7608.000
600.7180, 7705.000
601.8870, 7662.799
603.0560, 7511.000
604.2250, 7609.000
605.3940, 7519.000
606.5620, 7393.000
607.7300, 7468.000
608.8990, 7426.000
610.0670, 7461.000
611.2350, 7496.000
612.4020, 7497.106
613.5700, 7592.000
614.7370, 7551.000
615.9050, 7644.000
617.0720, 7696.000
618.2390, 7753.000
619.4060, 7738.000
620.5720, 7820.000
621.7390, 7859.000
622.9050, 7891.000
624.0710, 7979.518
625.2370, 8046.000
626.4030, 8153.000
627.5690, 8293.000
628.7340, 8423.000
629.9000, 8506.452
631.0650, 8556.000
632.2300, 8654.000
633.3950, 8836.000
634.5600, 8876.000
635.7240, 9139.000
636.8890, 9352.000
638.0530, 9763.000
639.2170, 9914.000
640.3810, 10372.00
641.5450, 10731.00
642.7080, 11453.00
643.8720, 12053.00
645.0350, 12934.00
646.1980, 13941.00
647.3610, 14967.00
648.5240, 16625.00
649.6870, 18457.00
650.8490, 20875.00
652.0120, 23864.00
653.1740, 28088.00
654.3360, 30785.00
655.4980, 34804.00
656.6600, 38350.00
657.8210, 42524.00
658.9830, 44844.00
660.1440, 45030.00
661.3050, 42999.00
662.4660, 40334.00
663.6270, 37407.00
664.7870, 34338.00
665.9480, 31817.00
667.1080, 29927.00
668.2680, 28933.00
669.4280, 28689.00
670.5880, 29058.00
671.7480, 30720.00
672.9070, 33135.00
674.0670, 36058.00
675.2260, 39850.00
676.3850, 45708.00
677.5440, 47707.00
678.7030, 51098.00
679.8610, 53248.00
681.0200, 53829.00
682.1780, 52347.00
683.3360, 48987.00
684.4940, 44753.00
685.6520, 39309.00
686.8090, 34192.00
687.9670, 29591.00
689.1240, 26262.03
690.2810, 22722.86
691.4380, 21253.00
692.5950, 17757.00
693.7520, 16471.00
694.9080, 15308.00
696.0650, 13892.00
697.2210, 13061.00
698.3770, 12397.00
699.5330, 11940.00
700.6880, 11392.00
701.8440, 10890.00
702.9990, 10685.00
704.1550, 10344.00
705.3100, 10125.00
706.4650, 9908.000
707.6190, 9698.000
708.7740, 9453.000
709.9290, 9394.000
711.0830, 9310.000
712.2370, 9110.000
713.3910, 9055.000
714.5450, 8875.000
715.6980, 8916.000
716.8520, 8936.000
718.0050, 8881.000
719.1580, 8875.486
720.3110, 8856.920
721.4640, 8802.000
722.6170, 8804.000
723.7700, 8800.000
724.9220, 8750.000
726.0740, 8759.000
727.2260, 8796.000
728.3780, 8786.000
729.5300, 8893.000
730.6810, 8948.121
731.8330, 8982.000
732.9840, 9139.000
734.1350, 9260.000
735.2860, 9377.000
736.4370, 9385.000
737.5880, 9516.000
738.7380, 9535.000
739.8880, 9542.000
741.0390, 9584.000
742.1890, 9735.000
743.3380, 9798.000
744.4880, 10041.00
745.6380, 10297.00
746.7870, 10792.00
747.9360, 11105.00
749.0850, 11095.00
750.2340, 10976.00
751.3830, 10551.00
752.5310, 10091.00
753.6800, 9553.000
754.8280, 9264.000
755.9760, 8898.000
757.1240, 8662.000
758.2720, 8477.000
759.4190, 8382.000
760.5670, 8188.000
761.7140, 7995.000
762.8610, 8108.000
764.0080, 7937.000
765.1550, 7900.000
766.3020, 7953.000
767.4480, 7809.000
768.5950, 7787.000
769.7410, 7779.000
770.8870, 7872.000
772.0330, 7787.000
773.1780, 7835.000
774.3240, 7885.000
775.4690, 7811.000
776.6140, 7862.000
777.7590, 7755.000
778.9040, 7734.000
780.0490, 7643.000
781.1940, 7647.000
782.3380, 7674.000
783.4820, 7681.000
784.6260, 7825.000
785.7700, 7725.000
786.9140, 7717.000
788.0580, 7855.000
789.2010, 7800.000
790.3450, 7746.000
791.4880, 7873.000
792.6310, 7687.000
793.7730, 7759.000
794.9160, 7880.000
796.0590, 7863.000
797.2010, 7855.000
798.3430, 7960.000
799.4850, 7883.000
800.6270, 7930.000
801.7690, 8062.000
802.9100, 8003.000
804.0520, 7921.000
805.1930, 7934.000
806.3340, 8075.000
807.4750, 7976.000
808.6160, 8166.000
809.7560, 8076.000
810.8970, 8092.000
812.0370, 8015.000
813.1770, 8016.000
814.3170, 8043.000
815.4570, 8059.000
816.5960, 7999.000
817.7360, 7948.000
818.8750, 8042.000
820.0140, 8072.000
821.1530, 8093.000
822.2920, 8013.000
823.4310, 7978.000
824.5690, 8007.000
825.7070, 7988.502
826.8460, 8005.000
827.9840, 8051.000
829.1220, 8057.651
830.2590, 8126.000
831.3970, 8090.000
832.5340, 8049.000
833.6710, 8096.000
834.8080, 8118.144
835.9450, 8218.000
837.0820, 8240.000
838.2190, 8260.000
839.3550, 8317.000
840.4910, 8376.000
841.6270, 8527.000
842.7630, 8580.000
843.8990, 8562.000
845.0350, 8654.000
846.1700, 8909.000
847.3060, 9047.000
848.4410, 9309.000
849.5760, 9572.063
850.7100, 9743.000
851.8450, 10192.00
852.9800, 10495.00
854.1140, 10910.00
855.2480, 11154.00
856.3820, 11436.00
857.5160, 11618.00
858.6500, 11616.00
859.7830, 11627.00
860.9170, 11637.00
862.0500, 11268.00
863.1830, 11021.00
864.3160, 10902.00
865.4480, 10605.00
866.5810, 10440.00
867.7130, 10166.00
868.8460, 10030.00
869.9780, 9755.000
871.1100, 9606.000
872.2410, 9421.000
873.3730, 9423.000
874.5050, 9346.000
875.6360, 9220.000
876.7670, 9145.000
877.8980, 9137.000
879.0290, 9096.000
880.1590, 8983.000
881.2900, 9106.000
882.4200, 9065.000
883.5500, 9008.000
884.6800, 9207.000
885.8100, 9039.000
886.9400, 9129.000
888.0690, 9251.000
889.1990, 9411.000
890.3280, 9357.000
891.4570, 9404.000
892.5860, 9501.000
893.7140, 9637.000
894.8430, 9799.000
895.9710, 9781.000
897.1000, 9782.000
898.2280, 9859.000
899.3560, 9687.000
900.4830, 9731.000
901.6110, 9547.000
902.7380, 9478.000
903.8660, 9413.000
904.9930, 9312.000
906.1200, 9318.000
907.2460, 9271.000
908.3730, 9358.000
909.5000, 9305.000
910.6260, 9428.000
911.7520, 9333.000
912.8780, 9549.000
914.0040, 9642.000
915.1290, 9752.000
916.2550, 9910.000
917.3800, 10127.78
918.5050, 10345.00
919.6300, 10711.00
920.7550, 10989.00
921.8800, 11440.00
923.0040, 12003.00
924.1290, 12328.00
925.2530, 12658.00
926.3770, 13107.00
927.5010, 13261.00
928.6250, 13477.00
929.7480, 13695.00
930.8720, 13794.00
931.9950, 13952.00
933.1180, 14283.00
934.2410, 14455.00
935.3640, 14529.00
936.4860, 14551.61
937.6090, 14474.04
938.7310, 14320.00
939.8530, 14096.00
940.9750, 13839.00
942.0970, 13467.00
943.2180, 13182.00
944.3400, 12910.00
945.4610, 12463.00
946.5820, 12296.00
947.7030, 11961.00
948.8240, 11587.00
949.9450, 11450.00
951.0650, 11056.00
952.1860, 10936.00
953.3060, 10830.00
954.4260, 10638.00
955.5460, 10616.00
956.6650, 10503.00
957.7850, 10394.00
958.9040, 10383.00
960.0230, 10274.00
961.1420, 10166.00
962.2610, 10133.00
963.3800, 10125.00
964.4990, 10026.00
965.6170, 10110.00
966.7350, 10007.00
967.8530, 9949.000
968.9710, 9939.000
970.0890, 9771.000
971.2070, 9932.000
972.3240, 10076.00
973.4410, 10046.00
974.5580, 10036.00
975.6750, 10193.00
976.7920, 10248.00
977.9090, 10461.00
979.0250, 10598.00
980.1410, 10838.00
981.2580, 10949.00
982.3740, 11224.00
983.4890, 11331.00
984.6050, 11747.00
985.7200, 12077.00
986.8360, 12573.00
987.9510, 13122.00
989.0660, 13810.00
990.1810, 14590.00
991.2950, 15462.00
992.4100, 16542.00
993.5240, 17828.00
994.6390, 19402.00
995.7530, 21289.00
996.8660, 23255.00
997.9800, 25484.00
999.0940, 28321.00
1000.207, 31110.00
1001.320, 34419.00
1002.433, 38106.00
1003.546, 42148.00
1004.659, 45962.00
1005.772, 49255.00
1006.884, 51726.00
1007.996, 53121.00
1009.108, 53056.00
1010.220, 51850.00
1011.332, 50522.00
1012.444, 48994.00
1013.555, 48231.00
1014.666, 47377.00
1015.777, 46852.00
1016.888, 46444.00
1017.999, 46628.00
1019.110, 46331.00
1020.220, 45847.00
1021.331, 45088.00
1022.441, 44891.00
1023.551, 44309.00
1024.661, 43747.00
1025.770, 43123.00
1026.880, 42224.00
1027.989, 41137.00
1029.098, 39865.25
1030.207, 38306.00
1031.316, 36664.00
1032.425, 34670.00
1033.533, 32510.00
1034.642, 30681.00
1035.750, 28686.00
1036.858, 26696.00
1037.966, 25125.00
1039.073, 23577.00
1040.181, 22204.00
1041.288, 20890.00
1042.396, 19650.00
1043.503, 18510.00
1044.610, 17493.00
1045.716, 16812.00
1046.823, 16119.00
1047.929, 15475.00
1049.036, 14955.00
1050.142, 14308.00
1051.248, 13949.00
1052.353, 13534.00
1053.459, 13427.00
1054.564, 13084.00
1055.670, 12612.00
1056.775, 12469.00
1057.880, 12070.00
1058.985, 11901.00
1060.089, 11538.00
1061.194, 11247.00
1062.298, 11122.00
1063.402, 10876.00
1064.506, 10691.00
1065.610, 10646.00
1066.713, 10438.00
1067.817, 10334.00
1068.920, 10367.00
1070.023, 10138.00
1071.126, 10158.00
1072.229, 10028.00
1073.332, 9826.000
1074.435, 9837.000
1075.537, 9846.000
1076.639, 9733.000
1077.741, 9710.000
1078.843, 9598.000
1079.945, 9523.000
1081.046, 9517.000
1082.148, 9477.466
1083.249, 9436.958
1084.350, 9506.000
1085.451, 9399.000
1086.551, 9453.000
1087.652, 9507.000
1088.752, 9446.000
1089.853, 9422.000
1090.953, 9471.000
1092.053, 9321.000
1093.152, 9378.000
1094.252, 9386.000
1095.351, 9238.000
1096.451, 9342.000
1097.550, 9368.000
1098.649, 9413.000
1099.748, 9395.000
1100.846, 9428.000
1101.945, 9413.762
1103.043, 9264.000
1104.141, 9368.000
1105.239, 9291.000
1106.337, 9233.000
1107.434, 9394.000
1108.532, 9305.000
1109.629, 9314.000
1110.726, 9158.000
1111.823, 9151.000
1112.920, 9359.000
1114.017, 9254.000
1115.113, 9249.000
1116.210, 9259.000
1117.306, 9243.000
1118.402, 9212.000
1119.498, 9235.385
1120.593, 9241.000
1121.689, 9281.000
1122.784, 9285.000
1123.879, 9344.000
1124.974, 9361.117
1126.069, 9191.000
1127.164, 9352.000
1128.259, 9347.000
1129.353, 9204.000
1130.447, 9291.000
1131.541, 9214.000
1132.635, 9183.000
1133.729, 9230.000
1134.822, 9167.000
1135.916, 9182.000
1137.009, 9121.000
1138.102, 9031.000
1139.195, 9081.000
1140.288, 9144.000
1141.380, 9027.000
1142.473, 9152.000
1143.565, 9198.000
1144.657, 9027.000
1145.749, 8896.000
1146.841, 8949.000
1147.932, 8871.000
1149.024, 8994.000
1150.115, 8937.000
1151.206, 8971.000
1152.297, 9005.000
1153.388, 8916.000
1154.479, 8994.000
1155.569, 8870.000
1156.659, 8861.000
1157.750, 8941.000
1158.839, 9017.000
1159.929, 8815.000
1161.019, 8840.000
1162.108, 8825.980
1163.198, 8953.000
1164.287, 8854.000
1165.376, 8947.000
1166.465, 9024.000
1167.553, 8929.000
1168.642, 8931.000
1169.730, 8976.000
1170.818, 8970.000
1171.906, 9032.000
1172.994, 9009.123
1174.082, 9010.441
1175.170, 8966.000
1176.257, 8999.000
1177.344, 8961.448
1178.431, 8994.000
1179.518, 8896.000
1180.605, 8819.000
1181.691, 8832.000
1182.778, 8800.000
1183.864, 8920.000
1184.950, 8789.000
1186.036, 8834.000
1187.122, 8750.000
1188.207, 8777.000
1189.292, 8808.000
1190.378, 8752.000
1191.463, 8844.000
1192.548, 8735.000
1193.632, 8778.000
1194.717, 8773.000
1195.801, 8631.000
1196.886, 8755.000
1197.970, 8684.000
1199.054, 8578.000
1200.137, 8609.000
1201.221, 8619.000
1202.305, 8762.000
1203.388, 8701.000
1204.471, 8740.000
1205.554, 8890.000
1206.637, 8702.000
1207.719, 8750.000
1208.802, 8708.000
1209.884, 8761.000
1210.966, 8864.000
1212.048, 8714.000
1213.130, 8852.000
1214.212, 8742.000
1215.293, 8697.000
1216.374, 8699.000
1217.456, 8798.000
1218.536, 8722.000
1219.617, 8873.000
1220.698, 8750.000
1221.778, 8822.000
1222.859, 8723.000
1223.939, 8630.000
1225.019, 8736.000
1226.099, 8883.000
1227.178, 8729.000
1228.258, 8859.000
1229.337, 8831.000
1230.417, 8957.000
1231.496, 8774.000
1232.574, 8929.000
1233.653, 8816.000
1234.732, 8924.000
1235.810, 8952.000
1236.888, 8811.000
1237.966, 8917.000
1239.044, 8790.000
1240.122, 8959.000
1241.199, 8983.000
1242.277, 8967.000
1243.354, 8868.000
1244.431, 8954.000
1245.508, 9006.000
1246.585, 8998.000
1247.661, 8908.000
1248.738, 9017.000
1249.814, 8995.000
1250.890, 9066.000
1251.966, 8954.000
1253.042, 9112.000
1254.117, 9040.000
1255.193, 9077.000
1256.268, 9055.000
1257.343, 9041.000
1258.418, 9005.000
1259.493, 9020.000
1260.567, 9058.000
1261.642, 9018.000
1262.716, 9116.000
1263.790, 9219.000
1264.864, 9094.000
1265.938, 9078.000
1267.011, 9204.000
1268.085, 9277.000
1269.158, 9233.000
1270.231, 9222.132
1271.304, 9158.000
1272.377, 9170.000
1273.450, 9095.000
1274.522, 9140.480
1275.594, 9222.000
1276.666, 9220.000
1277.738, 9224.000
1278.810, 9247.000
1279.882, 9251.000
1280.953, 9261.188
1282.025, 9266.753
1283.096, 9275.000
1284.167, 9262.000
1285.238, 9263.000
1286.308, 9285.662
1287.379, 9355.000
1288.449, 9341.000
1289.519, 9384.000
1290.589, 9423.399
1291.659, 9452.000
1292.729, 9460.000
1293.798, 9491.000
1294.868, 9480.000
1295.937, 9467.000
1297.006, 9505.000
1298.075, 9428.000
1299.143, 9522.000
1300.212, 9395.000
1301.280, 9522.000
1302.348, 9485.000
1303.416, 9485.000
1304.484, 9341.000
1305.552, 9499.000
1306.620, 9458.000
1307.687, 9557.000
1308.754, 9534.000
1309.821, 9680.000
1310.888, 9560.000
1311.955, 9465.000
1313.021, 9628.000
1314.088, 9682.000
1315.154, 9660.000
1316.220, 9681.000
1317.286, 9665.000
1318.352, 9556.000
1319.417, 9618.000
1320.483, 9545.000
1321.548, 9554.000
1322.613, 9553.169
1323.678, 9526.000
1324.743, 9552.000
1325.807, 9580.000
1326.872, 9607.000
1327.936, 9585.000
1329.000, 9684.000
1330.064, 9682.000
1331.128, 9714.000
1332.191, 9641.000
1333.255, 9489.000
1334.318, 9590.000
1335.381, 9676.000
1336.444, 9813.000
1337.507, 9709.000
1338.569, 9768.000
1339.632, 9802.000
1340.694, 9772.000
1341.756, 9772.000
1342.818, 9794.104
1343.880, 9799.000
1344.941, 9835.000
1346.003, 9819.000
1347.064, 9845.000
1348.125, 9936.000
1349.186, 9853.000
1350.247, 9806.000
1351.308, 9849.000
1352.368, 9780.567
1353.428, 9881.000
1354.489, 9802.000
1355.549, 9856.000
1356.608, 10030.00
1357.668, 9851.000
1358.727, 9911.000
1359.787, 10026.00
1360.846, 9981.000
1361.905, 10035.00
1362.964, 10055.00
1364.022, 9911.000
1365.081, 9998.000
1366.139, 10018.39
1367.197, 10015.00
1368.255, 10053.91
1369.313, 10084.00
1370.371, 10063.00
1371.428, 10034.00
1372.486, 10010.73
1373.543, 10018.44
1374.600, 10002.00
1375.657, 10015.00
1376.713, 10071.00
1377.770, 10015.00
1378.826, 9983.000
1379.882, 10122.00
1380.938, 10073.61
1381.994, 10261.00
1383.050, 10122.00
1384.106, 10171.00
1385.161, 10212.00
1386.216, 10254.00
1387.271, 10174.00
1388.326, 10287.00
1389.381, 10198.00
1390.435, 10279.00
1391.490, 10282.00
1392.544, 10272.00
1393.598, 10336.00
1394.652, 10275.00
1395.705, 10349.00
1396.759, 10252.00
1397.812, 10305.00
1398.866, 10262.00
1399.919, 10317.00
1400.972, 10259.00
1402.024, 10312.00
1403.077, 10431.00
1404.129, 10258.00
1405.181, 10228.00
1406.233, 10391.00
1407.285, 10418.00
1408.337, 10420.00
1409.389, 10427.00
1410.440, 10341.00
1411.491, 10274.00
1412.542, 10424.00
1413.593, 10489.00
1414.644, 10548.00
1415.695, 10506.00
1416.745, 10540.00
1417.795, 10526.60
1418.845, 10536.00
1419.895, 10526.00
1420.945, 10463.00
1421.995, 10523.00
1423.044, 10592.00
1424.093, 10567.17
1425.142, 10542.00
1426.191, 10593.00
1427.240, 10686.00
1428.289, 10723.81
1429.337, 10636.00
1430.385, 10708.00
1431.433, 10639.00
1432.481, 10536.00
1433.529, 10640.00
1434.577, 10757.00
1435.624, 10691.00
1436.672, 10636.00
1437.719, 10791.00
1438.766, 10816.00
1439.812, 10838.00
1440.859, 10924.00
1441.905, 10966.00
1442.952, 10910.00
1443.998, 10881.00
1445.044, 10891.00
1446.090, 10933.00
1447.135, 10900.00
1448.181, 10925.00
1449.226, 10894.00
1450.271, 10953.76
1451.316, 11037.00
1452.361, 11045.00
1453.405, 11082.00
1454.450, 11052.00
1455.494, 11090.00
1456.538, 11072.00
1457.582, 11096.00
1458.626, 10945.00
1459.670, 11153.00
1460.713, 11186.00
1461.757, 11142.00
1462.800, 10990.00
1463.843, 11051.00
1464.886, 10972.00
1465.928, 11074.00
1466.971, 10969.00
1468.013, 11031.43
1469.055, 11029.00
1470.097, 11083.00
1471.139, 11101.00
1472.181, 11059.00
1473.222, 11067.00
1474.263, 11112.00
1475.305, 11133.00
1476.346, 11152.00
1477.386, 11171.29
1478.427, 11193.79
1479.468, 11177.00
1480.508, 11249.00
1481.548, 11225.00
1482.588, 11271.00
1483.628, 11249.00
1484.668, 11266.00
1485.707, 11303.00
1486.747, 11276.00
1487.786, 11264.92
1488.825, 11207.00
1489.864, 11202.00
1490.902, 11261.00
1491.941, 11249.00
1492.979, 11294.00
1494.017, 11225.00
1495.055, 11121.00
1496.093, 11243.00
1497.131, 11343.00
1498.168, 11341.00
1499.206, 11251.00
1500.243, 11376.00
1501.280, 11228.00
1502.317, 11204.00
1503.354, 11296.00
1504.390, 11303.00
1505.426, 11458.00
1506.463, 11305.00
1507.499, 11292.00
1508.535, 11395.00
1509.570, 11330.00
1510.606, 11315.00
1511.641, 11268.00
1512.676, 11373.00
1513.711, 11349.00
1514.746, 11400.00
1515.781, 11406.00
1516.816, 11338.00
1517.850, 11475.00
1518.884, 11364.00
1519.918, 11461.00
1520.952, 11401.00
1521.986, 11521.00
1523.019, 11376.00
1524.053, 11327.00
1525.086, 11386.00
1526.119, 11422.00
1527.152, 11466.00
1528.185, 11494.00
1529.217, 11591.00
1530.250, 11487.00
1531.282, 11593.00
1532.314, 11584.00
1533.346, 11527.00
1534.377, 11484.00
1535.409, 11450.01
1536.440, 11512.00
1537.472, 11439.00
1538.503, 11464.00
1539.534, 11620.00
1540.564, 11584.00
1541.595, 11594.00
1542.625, 11610.00
1543.656, 11499.00
1544.686, 11439.00
1545.716, 11518.00
1546.745, 11662.00
1547.775, 11635.00
1548.804, 11781.00
1549.834, 11714.00
1550.863, 11787.00
1551.892, 11799.00
1552.920, 11778.00
1553.949, 11911.00
1554.977, 11766.00
1556.006, 11636.00
1557.034, 11706.00
1558.062, 11774.00
1559.089, 11718.00
1560.117, 11795.00
1561.144, 11805.00
1562.172, 11778.00
1563.199, 11773.00
1564.226, 11770.00
1565.252, 11853.00
1566.279, 11773.00
1567.305, 11854.00
1568.332, 11762.00
1569.358, 11812.00
1570.384, 11896.00
##END=



