##NAMES=Enstatite
##RRUFFID=R060630
##IDEAL CHEMISTRY=MgSiO_3_
##LOCALITY=unknown
##OWNER=RRUFF
##SOURCE=Gemological Institute of America
##DESCRIPTION=Tan colored fragment
##STATUS=The identification of this mineral has been confirmed by X-ray diffraction and chemical analysis
##URL=rruff.info/R060630
##MEASURED CHEMISTRY=(Mg_0.89_Fe_0.07_Al_0.04_)_Σ=1_(Si_0.96_Al_0.04_)_Σ=1_O_3_
##PIN_ID=L01005
##ORIENTATION=Laser parallel to c* (0 0 1). Fiducial mark perpendicular to laser is parallel to a [1 0 0]
118.1340, 9545.000
119.3650, 9415.000
120.5960, 9385.000
121.8270, 9649.000
123.0580, 9729.000
124.2880, 9814.000
125.5190, 9503.000
126.7490, 9481.000
127.9790, 9722.000
129.2090, 9910.000
130.4390, 9998.000
131.6680, 9900.000
132.8980, 10027.00
134.1270, 10044.00
135.3560, 10198.00
136.5850, 10481.59
137.8140, 10716.00
139.0430, 11050.00
140.2710, 11142.00
141.5000, 11204.00
142.7280, 11440.00
143.9560, 11659.00
145.1840, 11957.00
146.4120, 12268.00
147.6390, 12442.00
148.8670, 12579.00
150.0940, 12850.00
151.3210, 12892.07
152.5490, 12953.00
153.7750, 12941.00
155.0020, 12938.00
156.2290, 12773.00
157.4550, 12585.00
158.6810, 12295.00
159.9080, 12123.00
161.1340, 12031.88
162.3590, 12016.00
163.5850, 11927.00
164.8110, 11883.00
166.0360, 11848.00
167.2610, 11845.00
168.4860, 11562.00
169.7110, 11729.00
170.9360, 11840.00
172.1610, 11570.00
173.3850, 11623.00
174.6100, 11668.00
175.8340, 11598.00
177.0580, 11548.00
178.2820, 11612.00
179.5050, 11773.00
180.7290, 11691.00
181.9520, 12025.00
183.1760, 12154.00
184.3990, 12624.00
185.6220, 12973.00
186.8450, 13167.00
188.0670, 13407.00
189.2900, 13560.00
190.5120, 13948.00
191.7340, 14330.00
192.9560, 14556.00
194.1780, 14856.00
195.4000, 15064.00
196.6220, 15231.00
197.8430, 15044.00
199.0640, 14894.00
200.2860, 14790.00
201.5070, 14436.00
202.7270, 14280.00
203.9480, 13595.00
205.1690, 13262.00
206.3890, 12884.00
207.6090, 12545.00
208.8290, 12499.00
210.0490, 12159.00
211.2690, 11977.00
212.4890, 12115.00
213.7080, 11986.00
214.9280, 11848.00
216.1470, 11840.00
217.3660, 11896.00
218.5850, 12037.00
219.8030, 12228.00
221.0220, 12459.00
222.2400, 12659.00
223.4590, 13053.00
224.6770, 13600.00
225.8950, 14152.00
227.1120, 15035.00
228.3300, 15827.00
229.5480, 16696.00
230.7650, 17483.00
231.9820, 18146.00
233.1990, 18906.00
234.4160, 19354.00
235.6330, 19906.00
236.8490, 20232.00
238.0660, 20388.00
239.2820, 20049.00
240.4980, 19445.00
241.7140, 18670.00
242.9300, 17277.00
244.1460, 16131.00
245.3610, 15138.00
246.5770, 14259.00
247.7920, 13535.00
249.0070, 13102.00
250.2220, 12635.00
251.4370, 12351.00
252.6510, 12088.00
253.8660, 11902.00
255.0800, 11872.00
256.2940, 11635.00
257.5080, 11966.00
258.7220, 11845.91
259.9360, 11809.83
261.1490, 11878.00
262.3630, 11689.00
263.5760, 11601.00
264.7890, 11537.00
266.0020, 11571.00
267.2150, 11509.00
268.4270, 11756.00
269.6400, 11657.00
270.8520, 11897.00
272.0640, 11954.00
273.2760, 12017.00
274.4880, 12203.00
275.7000, 12300.00
276.9120, 12549.00
278.1230, 12620.00
279.3340, 12841.00
280.5450, 12892.00
281.7560, 13318.00
282.9670, 13517.00
284.1780, 13778.00
285.3880, 14000.00
286.5980, 14288.68
287.8090, 14626.00
289.0190, 14849.00
290.2290, 15243.00
291.4380, 15453.00
292.6480, 15783.00
293.8570, 16007.00
295.0670, 16320.00
296.2760, 16448.00
297.4850, 16536.00
298.6930, 16630.00
299.9020, 16563.92
301.1110, 16301.00
302.3190, 16353.00
303.5270, 16209.00
304.7350, 16062.00
305.9430, 16128.00
307.1510, 16119.00
308.3580, 16353.00
309.5660, 16905.00
310.7730, 17207.00
311.9800, 17878.00
313.1870, 18568.00
314.3940, 19074.00
315.6010, 20140.00
316.8070, 20897.00
318.0130, 21666.00
319.2200, 22289.00
320.4260, 22870.00
321.6310, 23698.00
322.8370, 23967.00
324.0430, 24581.00
325.2480, 24823.00
326.4540, 25007.00
327.6590, 25070.00
328.8640, 25138.00
330.0680, 25587.00
331.2730, 25968.00
332.4780, 26965.00
333.6820, 27810.00
334.8860, 28946.00
336.0900, 30254.00
337.2940, 31873.00
338.4980, 33409.00
339.7010, 35105.00
340.9050, 36619.00
342.1080, 37729.00
343.3110, 39231.00
344.5140, 40005.00
345.7170, 41151.00
346.9200, 41794.00
348.1220, 41652.00
349.3240, 41796.00
350.5270, 40951.00
351.7290, 40891.00
352.9310, 38509.00
354.1320, 37351.00
355.3340, 35418.00
356.5350, 33809.00
357.7370, 32364.00
358.9380, 30628.00
360.1390, 29521.00
361.3400, 28094.00
362.5400, 26926.00
363.7410, 25844.00
364.9410, 25064.00
366.1410, 24279.00
367.3410, 23680.00
368.5410, 23145.00
369.7410, 22724.00
370.9400, 22608.00
372.1400, 22334.00
373.3390, 22594.00
374.5380, 23014.00
375.7370, 23427.00
376.9360, 23771.00
378.1350, 24360.00
379.3330, 24927.00
380.5310, 25997.00
381.7300, 26471.00
382.9280, 27226.00
384.1260, 28082.00
385.3230, 28719.00
386.5210, 29640.00
387.7180, 29844.00
388.9160, 30605.00
390.1130, 30951.00
391.3100, 31371.00
392.5060, 31285.00
393.7030, 31482.00
394.9000, 31927.00
396.0960, 32334.00
397.2920, 32568.00
398.4880, 32910.00
399.6840, 33015.00
400.8800, 33172.00
402.0750, 33500.00
403.2710, 33541.00
404.4660, 33155.00
405.6610, 33007.00
406.8560, 32601.00
408.0510, 32908.00
409.2450, 32734.00
410.4400, 32942.00
411.6340, 33257.00
412.8280, 33387.00
414.0220, 33331.00
415.2160, 33881.00
416.4100, 33747.00
417.6030, 33621.00
418.7970, 33335.00
419.9900, 32595.00
421.1830, 31442.00
422.3760, 30162.00
423.5690, 28830.00
424.7610, 26937.00
425.9540, 25123.00
427.1460, 23422.00
428.3380, 21581.00
429.5300, 20390.00
430.7220, 19059.00
431.9140, 18204.00
433.1050, 17494.00
434.2970, 16935.00
435.4880, 16451.09
436.6790, 16113.00
437.8700, 15815.00
439.0610, 15732.00
440.2510, 15578.00
441.4420, 15327.00
442.6320, 15351.00
443.8220, 15197.00
445.0120, 15152.00
446.2020, 15080.00
447.3910, 15063.00
448.5810, 14809.00
449.7700, 14740.00
450.9600, 14585.00
452.1490, 14589.00
453.3370, 14481.00
454.5260, 14687.00
455.7150, 14537.00
456.9030, 14611.00
458.0910, 14875.00
459.2800, 14655.00
460.4670, 14728.00
461.6550, 14592.00
462.8430, 14691.00
464.0300, 14764.00
465.2180, 14664.00
466.4050, 14706.01
467.5920, 14428.00
468.7790, 14583.00
469.9650, 14439.00
471.1520, 14253.00
472.3380, 14254.00
473.5250, 14237.00
474.7110, 14072.00
475.8970, 14075.00
477.0820, 13951.00
478.2680, 13864.00
479.4540, 14033.00
480.6390, 13687.00
481.8240, 13838.00
483.0090, 13840.00
484.1940, 13733.00
485.3780, 13794.00
486.5630, 13899.00
487.7470, 13709.00
488.9320, 13818.00
490.1160, 13811.00
491.3000, 13835.00
492.4830, 13837.00
493.6670, 13699.00
494.8500, 13951.00
496.0340, 13775.00
497.2170, 14109.00
498.4000, 14128.00
499.5820, 14002.00
500.7650, 14212.00
501.9480, 14137.00
503.1300, 14449.00
504.3120, 14428.00
505.4940, 14631.00
506.6760, 14830.00
507.8580, 15056.00
509.0390, 15420.00
510.2210, 15773.00
511.4020, 16056.00
512.5830, 16305.00
513.7640, 16872.00
514.9450, 17248.00
516.1250, 17477.00
517.3060, 17860.54
518.4860, 17914.00
519.6660, 18330.00
520.8460, 18502.00
522.0260, 18593.00
523.2060, 18507.00
524.3850, 18681.00
525.5650, 18729.00
526.7440, 18638.00
527.9230, 18720.00
529.1020, 18650.00
530.2810, 18515.00
531.4590, 18559.00
532.6380, 18587.00
533.8160, 18668.00
534.9940, 18669.00
536.1720, 18615.00
537.3500, 18447.00
538.5270, 18370.00
539.7050, 18227.00
540.8820, 17934.00
542.0590, 17700.00
543.2360, 17617.00
544.4130, 17331.00
545.5900, 17314.00
546.7660, 17313.00
547.9430, 17266.00
549.1190, 17385.00
550.2950, 17314.00
551.4710, 17432.00
552.6470, 17214.00
553.8220, 17091.00
554.9980, 16949.00
556.1730, 16684.00
557.3480, 16507.00
558.5230, 16076.00
559.6980, 15937.00
560.8730, 15669.00
562.0470, 15363.00
563.2220, 15251.00
564.3960, 15187.00
565.5700, 15029.51
566.7440, 14933.00
567.9170, 14890.00
569.0910, 14921.00
570.2640, 14908.00
571.4380, 14831.00
572.6110, 14877.42
573.7840, 14838.00
574.9570, 14919.00
576.1290, 14887.00
577.3020, 14926.00
578.4740, 14727.00
579.6460, 14684.00
580.8180, 14547.00
581.9900, 14377.00
583.1620, 14193.00
584.3330, 14411.00
585.5040, 13969.00
586.6760, 14152.00
587.8470, 13908.00
589.0180, 13864.00
590.1880, 14016.00
591.3590, 13725.00
592.5290, 13718.00
593.7000, 13937.00
594.8700, 13830.00
596.0400, 13980.00
597.2090, 13696.00
598.3790, 13658.00
599.5490, 13650.00
600.7180, 13569.00
601.8870, 13682.00
603.0560, 13625.00
604.2250, 13767.00
605.3940, 13586.00
606.5620, 13692.00
607.7300, 13617.00
608.8990, 13893.00
610.0670, 13692.00
611.2350, 13770.00
612.4020, 13881.00
613.5700, 13918.00
614.7370, 13786.00
615.9050, 13960.00
617.0720, 13740.00
618.2390, 13726.00
619.4060, 13927.00
620.5720, 14027.00
621.7390, 13872.00
622.9050, 14096.00
624.0710, 14044.00
625.2370, 14231.00
626.4030, 14351.00
627.5690, 14335.00
628.7340, 14504.00
629.9000, 14743.00
631.0650, 14815.00
632.2300, 15056.11
633.3950, 15241.00
634.5600, 15457.00
635.7240, 15650.00
636.8890, 15839.00
638.0530, 16017.00
639.2170, 16172.00
640.3810, 16523.00
641.5450, 16559.00
642.7080, 16645.00
643.8720, 17216.00
645.0350, 17382.00
646.1980, 17924.00
647.3610, 18498.00
648.5240, 19153.00
649.6870, 19718.00
650.8490, 20697.00
652.0120, 21340.00
653.1740, 22430.00
654.3360, 23347.00
655.4980, 24199.00
656.6600, 24837.00
657.8210, 25736.00
658.9830, 26035.00
660.1440, 26298.00
661.3050, 26474.00
662.4660, 26151.00
663.6270, 25976.00
664.7870, 25320.00
665.9480, 24780.00
667.1080, 24309.00
668.2680, 24005.00
669.4280, 23641.00
670.5880, 23687.00
671.7480, 23724.00
672.9070, 24376.00
674.0670, 24856.00
675.2260, 25975.00
676.3850, 26813.00
677.5440, 28254.00
678.7030, 29607.00
679.8610, 30935.00
681.0200, 32272.00
682.1780, 33690.00
683.3360, 34501.00
684.4940, 35116.00
685.6520, 35091.00
686.8090, 34551.00
687.9670, 33544.00
689.1240, 32353.00
690.2810, 30658.00
691.4380, 28932.00
692.5950, 27001.00
693.7520, 25398.00
694.9080, 23818.00
696.0650, 22567.00
697.2210, 21412.00
698.3770, 20552.00
699.5330, 19908.00
700.6880, 19045.00
701.8440, 18511.00
702.9990, 17866.00
704.1550, 17822.00
705.3100, 17359.00
706.4650, 16989.00
707.6190, 17145.00
708.7740, 16657.00
709.9290, 16428.00
711.0830, 16444.00
712.2370, 16246.00
713.3910, 16118.00
714.5450, 16044.00
715.6980, 15916.00
716.8520, 15906.00
718.0050, 15691.00
719.1580, 15634.00
720.3110, 15600.00
721.4640, 15476.93
722.6170, 15442.87
723.7700, 15359.00
724.9220, 15391.00
726.0740, 15389.00
727.2260, 15511.00
728.3780, 15353.00
729.5300, 15361.00
730.6810, 15249.00
731.8330, 15346.00
732.9840, 15223.00
734.1350, 15107.00
735.2860, 15290.00
736.4370, 15225.00
737.5880, 15374.00
738.7380, 14986.00
739.8880, 15081.00
741.0390, 15103.00
742.1890, 14905.00
743.3380, 14933.00
744.4880, 14969.00
745.6380, 15013.00
746.7870, 14924.00
747.9360, 14972.00
749.0850, 15120.00
750.2340, 15234.00
751.3830, 14944.00
752.5310, 15089.00
753.6800, 15042.00
754.8280, 14967.00
755.9760, 14919.00
757.1240, 14875.00
758.2720, 14740.00
759.4190, 14814.00
760.5670, 14623.00
761.7140, 14619.00
762.8610, 14662.00
764.0080, 14551.00
765.1550, 14553.00
766.3020, 14593.00
767.4480, 14591.00
768.5950, 14610.00
769.7410, 14734.00
770.8870, 14553.00
772.0330, 14474.00
773.1780, 14564.00
774.3240, 14423.00
775.4690, 14429.00
776.6140, 14490.00
777.7590, 14402.00
778.9040, 14579.00
780.0490, 14455.00
781.1940, 14506.00
782.3380, 14535.00
783.4820, 14424.00
784.6260, 14425.00
785.7700, 14591.00
786.9140, 14380.00
788.0580, 14485.00
789.2010, 14436.00
790.3450, 14527.00
791.4880, 14537.54
792.6310, 14570.00
793.7730, 14577.00
794.9160, 14610.00
796.0590, 14636.00
797.2010, 14642.87
798.3430, 14670.37
799.4850, 14668.00
800.6270, 14665.00
801.7690, 14689.00
802.9100, 14597.00
804.0520, 14647.00
805.1930, 14788.00
806.3340, 14655.00
807.4750, 14789.00
808.6160, 14804.00
809.7560, 14803.00
810.8970, 14890.95
812.0370, 14924.00
813.1770, 15044.00
814.3170, 14903.00
815.4570, 15070.00
816.5960, 15057.00
817.7360, 15186.00
818.8750, 15155.00
820.0140, 15125.00
821.1530, 15386.00
822.2920, 15501.00
823.4310, 15484.00
824.5690, 15543.00
825.7070, 15541.00
826.8460, 15836.00
827.9840, 15948.00
829.1220, 16148.00
830.2590, 16083.00
831.3970, 16443.00
832.5340, 16602.00
833.6710, 16652.00
834.8080, 17064.00
835.9450, 17149.00
837.0820, 17470.00
838.2190, 17567.00
839.3550, 18024.00
840.4910, 18158.00
841.6270, 18269.00
842.7630, 18339.00
843.8990, 18490.00
845.0350, 18681.00
846.1700, 18402.00
847.3060, 18564.00
848.4410, 18288.00
849.5760, 18146.00
850.7100, 18052.00
851.8450, 17741.00
852.9800, 17713.00
854.1140, 17295.00
855.2480, 16958.00
856.3820, 17088.00
857.5160, 16762.00
858.6500, 16719.00
859.7830, 16521.00
860.9170, 16445.00
862.0500, 16428.00
863.1830, 16218.00
864.3160, 16051.00
865.4480, 15988.00
866.5810, 16052.00
867.7130, 15852.00
868.8460, 15978.00
869.9780, 15959.00
871.1100, 15965.00
872.2410, 16089.00
873.3730, 16067.00
874.5050, 16035.00
875.6360, 16125.00
876.7670, 16094.33
877.8980, 15927.00
879.0290, 16119.00
880.1590, 16098.00
881.2900, 16112.00
882.4200, 16284.00
883.5500, 16329.00
884.6800, 16389.00
885.8100, 16388.00
886.9400, 16398.00
888.0690, 16502.63
889.1990, 16601.00
890.3280, 16716.00
891.4570, 16867.00
892.5860, 16999.00
893.7140, 17105.00
894.8430, 17094.00
895.9710, 17059.00
897.1000, 17094.00
898.2280, 17339.00
899.3560, 17283.00
900.4830, 17527.00
901.6110, 17389.00
902.7380, 17520.00
903.8660, 17621.00
904.9930, 17600.00
906.1200, 17751.42
907.2460, 17845.00
908.3730, 18020.00
909.5000, 18102.00
910.6260, 18370.00
911.7520, 18713.00
912.8780, 18841.00
914.0040, 18969.00
915.1290, 19072.00
916.2550, 19471.94
917.3800, 20011.00
918.5050, 20411.00
919.6300, 21076.00
920.7550, 21756.00
921.8800, 22239.00
923.0040, 23161.00
924.1290, 24011.00
925.2530, 24912.00
926.3770, 25631.00
927.5010, 26454.00
928.6250, 26983.00
929.7480, 27641.00
930.8720, 27978.00
931.9950, 28182.86
933.1180, 28252.43
934.2410, 28127.00
935.3640, 27793.00
936.4860, 27304.00
937.6090, 26574.00
938.7310, 26117.00
939.8530, 25678.00
940.9750, 25044.00
942.0970, 24698.00
943.2180, 24269.00
944.3400, 23857.00
945.4610, 23470.00
946.5820, 22942.00
947.7030, 22911.00
948.8240, 22515.00
949.9450, 22138.00
951.0650, 22193.00
952.1860, 21899.00
953.3060, 21704.00
954.4260, 21234.00
955.5460, 20883.00
956.6650, 20790.00
957.7850, 20354.00
958.9040, 20156.00
960.0230, 19958.00
961.1420, 19726.00
962.2610, 19475.80
963.3800, 18987.00
964.4990, 18931.00
965.6170, 18725.00
966.7350, 18445.00
967.8530, 18478.00
968.9710, 18320.00
970.0890, 18411.00
971.2070, 18170.00
972.3240, 18062.00
973.4410, 18314.00
974.5580, 18395.00
975.6750, 18502.00
976.7920, 18539.00
977.9090, 18599.00
979.0250, 18880.00
980.1410, 19072.00
981.2580, 19307.00
982.3740, 19602.00
983.4890, 19903.00
984.6050, 20311.00
985.7200, 20925.00
986.8360, 21188.00
987.9510, 21688.00
989.0660, 22380.00
990.1810, 23273.00
991.2950, 23952.00
992.4100, 25058.00
993.5240, 26018.00
994.6390, 27449.00
995.7530, 28627.00
996.8660, 30180.00
997.9800, 31946.00
999.0940, 33625.00
1000.207, 35572.00
1001.320, 37591.00
1002.433, 39755.00
1003.546, 41803.00
1004.659, 43758.00
1005.772, 45836.00
1006.884, 47572.00
1007.996, 49434.00
1009.108, 51052.00
1010.220, 51532.00
1011.332, 53537.00
1012.444, 53906.00
1013.555, 53577.00
1014.666, 53824.00
1015.777, 54032.00
1016.888, 54094.00
1017.999, 53943.00
1019.110, 54121.00
1020.220, 54454.00
1021.331, 54927.00
1022.441, 54954.00
1023.551, 55551.00
1024.661, 56011.00
1025.770, 56521.00
1026.880, 57437.00
1027.989, 57626.00
1029.098, 58237.00
1030.207, 58670.00
1031.316, 58552.00
1032.425, 58623.00
1033.533, 57517.00
1034.642, 56978.00
1035.750, 55238.00
1036.858, 53724.00
1037.966, 51545.00
1039.073, 48936.00
1040.181, 47015.00
1041.288, 44326.00
1042.396, 42448.00
1043.503, 40460.00
1044.610, 38569.00
1045.716, 36741.00
1046.823, 35258.00
1047.929, 33651.00
1049.036, 32324.00
1050.142, 31179.00
1051.248, 29997.00
1052.353, 29089.00
1053.459, 28281.00
1054.564, 27312.00
1055.670, 26543.00
1056.775, 25772.00
1057.880, 24878.00
1058.985, 24462.00
1060.089, 23549.00
1061.194, 22985.00
1062.298, 22471.00
1063.402, 21928.00
1064.506, 21447.00
1065.610, 21206.00
1066.713, 20908.00
1067.817, 20386.00
1068.920, 20341.00
1070.023, 19950.00
1071.126, 19830.00
1072.229, 19647.00
1073.332, 19686.00
1074.435, 19420.00
1075.537, 19359.00
1076.639, 19230.00
1077.741, 18942.00
1078.843, 18911.00
1079.945, 18899.00
1081.046, 18698.00
1082.148, 18712.00
1083.249, 18627.00
1084.350, 18484.00
1085.451, 18682.00
1086.551, 18648.00
1087.652, 18541.00
1088.752, 18512.00
1089.853, 18411.00
1090.953, 18284.00
1092.053, 18424.00
1093.152, 18417.00
1094.252, 18419.00
1095.351, 18226.00
1096.451, 18435.00
1097.550, 18163.00
1098.649, 18374.00
1099.748, 18248.00
1100.846, 18272.00
1101.945, 18309.00
1103.043, 18285.00
1104.141, 18327.00
1105.239, 18254.00
1106.337, 18168.00
1107.434, 18060.00
1108.532, 18068.46
1109.629, 18044.99
1110.726, 18084.00
1111.823, 18127.00
1112.920, 18137.00
1114.017, 18254.00
1115.113, 18425.00
1116.210, 18364.00
1117.306, 18407.00
1118.402, 18419.00
1119.498, 18210.00
1120.593, 18362.00
1121.689, 18631.00
1122.784, 18438.00
1123.879, 18280.00
1124.974, 18592.00
1126.069, 18339.00
1127.164, 18312.00
1128.259, 18433.00
1129.353, 18132.00
1130.447, 18025.00
1131.541, 18286.00
1132.635, 18155.00
1133.729, 18225.00
1134.822, 18154.00
1135.916, 18219.00
1137.009, 18100.00
1138.102, 18277.00
1139.195, 18020.00
1140.288, 18028.00
1141.380, 17889.00
1142.473, 18162.00
1143.565, 18205.00
1144.657, 18101.00
1145.749, 17913.00
1146.841, 18131.00
1147.932, 17950.00
1149.024, 17988.00
1150.115, 17926.00
1151.206, 17815.00
1152.297, 17997.00
1153.388, 18017.00
1154.479, 17929.00
1155.569, 17901.00
1156.659, 17856.00
1157.750, 17997.00
1158.839, 17908.00
1159.929, 17932.00
1161.019, 18088.00
1162.108, 17796.00
1163.198, 17821.00
1164.287, 17951.00
1165.376, 18022.00
1166.465, 18048.00
1167.553, 18083.00
1168.642, 18095.00
1169.730, 18168.27
1170.818, 18244.00
1171.906, 18247.00
1172.994, 18201.00
1174.082, 18088.00
1175.170, 17825.00
1176.257, 18067.00
1177.344, 18311.00
1178.431, 18072.00
1179.518, 18176.00
1180.605, 18080.00
1181.691, 17987.00
1182.778, 18137.00
1183.864, 18142.00
1184.950, 18133.00
1186.036, 18121.00
1187.122, 18296.00
1188.207, 18174.00
1189.292, 18064.00
1190.378, 18360.00
1191.463, 18131.00
1192.548, 18010.00
1193.632, 17967.00
1194.717, 18226.00
1195.801, 18247.00
1196.886, 18078.00
1197.970, 18076.00
1199.054, 18049.00
1200.137, 18088.00
1201.221, 18148.00
1202.305, 18081.00
1203.388, 18192.00
1204.471, 18176.74
1205.554, 18130.00
1206.637, 18241.00
1207.719, 18182.00
1208.802, 18282.00
1209.884, 18180.00
1210.966, 18177.00
1212.048, 18293.00
1213.130, 18203.00
1214.212, 18088.00
1215.293, 18192.00
1216.374, 18371.00
1217.456, 18116.00
1218.536, 18185.00
1219.617, 18260.00
1220.698, 18209.00
1221.778, 18212.00
1222.859, 18239.00
1223.939, 18199.09
1225.019, 18214.86
1226.099, 18158.00
1227.178, 18217.00
1228.258, 18194.00
1229.337, 18208.24
1230.417, 18247.00
1231.496, 18294.00
1232.574, 18413.00
1233.653, 18452.00
1234.732, 18451.00
1235.810, 18399.00
1236.888, 18387.00
1237.966, 18369.00
1239.044, 18358.05
1240.122, 18460.00
1241.199, 18339.00
1242.277, 18406.00
1243.354, 18360.00
1244.431, 18523.00
1245.508, 18606.00
1246.585, 18430.00
1247.661, 18559.00
1248.738, 18630.00
1249.814, 18630.00
1250.890, 18426.00
1251.966, 18671.00
1253.042, 18324.00
1254.117, 18467.00
1255.193, 18284.00
1256.268, 18533.00
1257.343, 18325.00
1258.418, 18512.00
1259.493, 18432.00
1260.567, 18516.00
1261.642, 18687.00
1262.716, 18525.00
1263.790, 18524.00
1264.864, 18569.00
1265.938, 18720.00
1267.011, 18618.00
1268.085, 18822.00
1269.158, 18836.00
1270.231, 18804.00
1271.304, 18772.00
1272.377, 18534.00
1273.450, 18820.00
1274.522, 19042.00
1275.594, 18605.00
1276.666, 18622.00
1277.738, 18819.00
1278.810, 18882.00
1279.882, 18731.00
1280.953, 18726.00
1282.025, 18746.41
1283.096, 18871.00
1284.167, 18833.00
1285.238, 18888.00
1286.308, 19013.00
1287.379, 18866.00
1288.449, 18866.00
1289.519, 18990.00
1290.589, 19010.00
1291.659, 18964.00
1292.729, 18883.00
1293.798, 19107.00
1294.868, 18945.00
1295.937, 18930.00
1297.006, 18986.34
1298.075, 19268.00
1299.143, 18989.00
1300.212, 19231.00
1301.280, 19216.00
1302.348, 19048.00
1303.416, 19200.00
1304.484, 19156.00
1305.552, 19160.00
1306.620, 19150.00
1307.687, 19274.00
1308.754, 19253.58
1309.821, 19239.00
1310.888, 19339.00
1311.955, 19323.00
1313.021, 19446.00
1314.088, 19267.00
1315.154, 19164.00
1316.220, 19285.00
1317.286, 19402.00
1318.352, 19274.00
1319.417, 19282.00
1320.483, 19302.00
1321.548, 19309.00
1322.613, 19435.00
1323.678, 19345.00
1324.743, 19328.00
1325.807, 19547.00
1326.872, 19379.00
1327.936, 19484.00
1329.000, 19524.00
1330.064, 19709.00
1331.128, 19523.00
1332.191, 19398.00
1333.255, 19481.00
1334.318, 19527.00
1335.381, 19465.00
1336.444, 19484.00
1337.507, 19464.90
1338.569, 19608.00
1339.632, 19492.00
1340.694, 19568.00
1341.756, 19732.00
1342.818, 19660.00
1343.880, 19772.00
1344.941, 19582.00
1346.003, 19698.00
1347.064, 19679.90
1348.125, 19693.77
1349.186, 19710.00
1350.247, 19786.00
1351.308, 19801.00
1352.368, 19813.00
1353.428, 19613.00
1354.489, 19930.00
1355.549, 19560.00
1356.608, 19828.00
1357.668, 19860.00
1358.727, 19892.00
1359.787, 19839.00
1360.846, 19866.00
1361.905, 19890.00
1362.964, 19896.00
1364.022, 19973.00
1365.081, 20076.00
1366.139, 20061.00
1367.197, 20063.74
1368.255, 20000.00
1369.313, 19958.00
1370.371, 19973.86
1371.428, 20004.00
1372.486, 19994.00
1373.543, 20047.00
1374.600, 20053.00
1375.657, 20131.00
1376.713, 20103.00
1377.770, 19944.00
1378.826, 19953.00
1379.882, 20026.00
1380.938, 20038.00
1381.994, 20205.00
1383.050, 20102.00
1384.106, 20038.00
1385.161, 20103.00
1386.216, 20211.00
1387.271, 20127.00
1388.326, 20283.00
1389.381, 20321.00
1390.435, 20124.00
1391.490, 20183.00
1392.544, 20203.00
1393.598, 20321.00
1394.652, 20140.00
1395.705, 20264.48
1396.759, 20319.00
1397.812, 20241.00
1398.866, 20309.00
1399.919, 20280.68
1400.972, 20332.00
1402.024, 20285.00
1403.077, 20267.00
1404.129, 20330.00
1405.181, 20448.00
1406.233, 20415.00
1407.285, 20404.00
1408.337, 20510.00
1409.389, 20452.00
1410.440, 20460.00
1411.491, 20470.24
1412.542, 20462.00
1413.593, 20442.00
1414.644, 20489.00
1415.695, 20468.00
1416.745, 20477.66
1417.795, 20375.00
1418.845, 20502.00
1419.895, 20513.00
1420.945, 20569.00
1421.995, 20660.00
1423.044, 20666.00
1424.093, 20550.00
1425.142, 20352.00
1426.191, 20465.00
1427.240, 20530.00
1428.289, 20678.00
1429.337, 20633.00
1430.385, 20678.00
1431.433, 20596.00
1432.481, 20713.00
1433.529, 20699.00
1434.577, 20570.00
1435.624, 20607.00
1436.672, 20554.00
1437.719, 20594.65
1438.766, 20815.00
1439.812, 20683.00
1440.859, 20759.00
1441.905, 20723.00
1442.952, 20703.00
1443.998, 20631.00
1445.044, 20902.00
1446.090, 20903.00
1447.135, 20852.00
1448.181, 20900.00
1449.226, 20751.00
1450.271, 20927.00
1451.316, 20770.00
1452.361, 20906.00
1453.405, 20970.00
1454.450, 20752.00
1455.494, 20929.00
1456.538, 20952.00
1457.582, 20798.00
1458.626, 21038.00
1459.670, 21034.00
1460.713, 20956.00
1461.757, 21140.00
1462.800, 20904.00
1463.843, 20977.00
1464.886, 20956.00
1465.928, 21018.00
1466.971, 21099.00
1468.013, 21192.00
1469.055, 21203.00
1470.097, 21168.00
1471.139, 21003.00
1472.181, 20974.00
1473.222, 21201.00
1474.263, 21269.00
1475.305, 21036.00
1476.346, 21190.00
1477.386, 21101.00
1478.427, 21042.00
1479.468, 21248.00
1480.508, 21208.00
1481.548, 21236.00
1482.588, 21341.00
1483.628, 21223.00
1484.668, 21038.00
1485.707, 21172.00
1486.747, 21245.00
1487.786, 21174.00
1488.825, 21318.00
1489.864, 21350.00
1490.902, 21482.00
1491.941, 21109.00
1492.979, 21413.00
1494.017, 21340.00
1495.055, 21116.00
1496.093, 21315.00
1497.131, 21154.00
1498.168, 21335.00
1499.206, 21333.00
1500.243, 21410.00
1501.280, 21374.00
1502.317, 21366.00
1503.354, 21532.00
1504.390, 21355.00
1505.426, 21435.00
1506.463, 21354.00
1507.499, 21402.00
1508.535, 21431.00
1509.570, 21462.00
1510.606, 21506.43
1511.641, 21537.94
1512.676, 21551.00
1513.711, 21616.00
1514.746, 21561.00
1515.781, 21600.00
1516.816, 21500.00
1517.850, 21651.00
1518.884, 21593.00
1519.918, 21436.00
1520.952, 21703.00
1521.986, 21634.00
1523.019, 21510.00
1524.053, 21764.00
1525.086, 21821.00
1526.119, 21706.00
1527.152, 21758.00
1528.185, 21661.00
1529.217, 21688.00
1530.250, 21632.00
1531.282, 21567.00
1532.314, 21596.56
1533.346, 21656.00
1534.377, 21673.00
1535.409, 21616.00
1536.440, 21772.00
1537.472, 21732.00
1538.503, 21869.00
1539.534, 21846.00
1540.564, 21987.00
1541.595, 21966.00
1542.625, 21888.00
1543.656, 22020.00
1544.686, 21908.00
1545.716, 21736.00
1546.745, 21837.00
1547.775, 21843.00
1548.804, 21937.00
1549.834, 21918.00
1550.863, 22361.00
1551.892, 22159.00
1552.920, 22264.00
1553.949, 22143.00
1554.977, 22131.65
1556.006, 22283.00
1557.034, 22073.00
1558.062, 22106.00
1559.089, 21986.00
1560.117, 22201.00
1561.144, 22217.00
1562.172, 22100.00
1563.199, 22192.00
1564.226, 22066.00
1565.252, 22022.00
1566.279, 22374.00
1567.305, 22267.00
1568.332, 22390.00
1569.358, 22336.00
1570.384, 22276.00
1571.409, 22277.00
1572.435, 22301.00
##END=



