##NAMES=Enstatite
##RRUFFID=R060744
##IDEAL CHEMISTRY=MgSiO_3_
##LOCALITY=Orissa, India
##OWNER=RRUFF
##SOURCE=Herb Obodda
##DESCRIPTION=Brown transparent fragment
##STATUS=The identification of this mineral has been confirmed by X-ray diffraction and chemical analysis
##URL=rruff.info/R060744
##MEASURED CHEMISTRY=(Mg_0.85_Fe^2+^_0.13_Fe^3+^_0.01_Mn_0.01_)_Σ=1_(Si_0.99_Al_0.01_)_Σ=1_O_3_; trace amounts of Ca; Fe^2+^ and Fe^3+^ splitted by charge balance
##PIN_ID=L01935
##ORIENTATION=Laser parallel to -a* (-1 0 0). Fiducial mark perpendicular to laser is parallel to -b [0 -1 0]
113.2080, 4348.000
114.4400, 4886.000
115.6710, 5512.000
116.9030, 6432.000
118.1340, 7519.000
119.3650, 8789.000
120.5960, 10360.00
121.8270, 12269.00
123.0580, 15081.00
124.2880, 18647.00
125.5190, 22832.00
126.7490, 26463.00
127.9790, 27622.00
129.2090, 25951.00
130.4390, 22813.00
131.6680, 19305.00
132.8980, 16442.00
134.1270, 13762.00
135.3560, 11864.00
136.5850, 10208.00
137.8140, 9254.000
139.0430, 8653.000
140.2710, 8134.000
141.5000, 7546.000
142.7280, 7369.000
143.9560, 7035.000
145.1840, 6641.000
146.4120, 6473.000
147.6390, 6201.000
148.8670, 5966.000
150.0940, 5941.000
151.3210, 5773.000
152.5490, 5597.000
153.7750, 5388.000
155.0020, 5311.000
156.2290, 5292.000
157.4550, 5213.000
158.6810, 5189.000
159.9080, 5249.000
161.1340, 5321.000
162.3590, 5487.000
163.5850, 5659.000
164.8110, 5550.000
166.0360, 5377.000
167.2610, 5278.000
168.4860, 5024.000
169.7110, 4952.000
170.9360, 4905.000
172.1610, 4880.000
173.3850, 4820.000
174.6100, 5013.000
175.8340, 4998.000
177.0580, 4957.000
178.2820, 5167.000
179.5050, 5259.000
180.7290, 5414.000
181.9520, 5578.000
183.1760, 5887.000
184.3990, 6147.000
185.6220, 6456.000
186.8450, 6816.000
188.0670, 6903.000
189.2900, 6972.000
190.5120, 6705.000
191.7340, 6393.000
192.9560, 6197.000
194.1780, 5980.000
195.4000, 5718.000
196.6220, 5632.000
197.8430, 5457.000
199.0640, 5447.000
200.2860, 5240.000
201.5070, 5116.000
202.7270, 4793.000
203.9480, 4559.000
205.1690, 4305.000
206.3890, 4225.000
207.6090, 4099.135
208.8290, 4122.000
210.0490, 4050.000
211.2690, 4157.000
212.4890, 4263.000
213.7080, 4195.000
214.9280, 4370.000
216.1470, 4475.000
217.3660, 4719.000
218.5850, 4946.000
219.8030, 5357.000
221.0220, 5688.000
222.2400, 6290.000
223.4590, 6866.000
224.6770, 7721.000
225.8950, 8540.000
227.1120, 9603.000
228.3300, 10973.00
229.5480, 12480.00
230.7650, 14143.00
231.9820, 15400.00
233.1990, 15773.00
234.4160, 15241.00
235.6330, 13764.00
236.8490, 12125.00
238.0660, 10436.00
239.2820, 8887.000
240.4980, 7552.000
241.7140, 6580.000
242.9300, 5830.000
244.1460, 5260.000
245.3610, 4865.000
246.5770, 4613.000
247.7920, 4434.000
249.0070, 4254.000
250.2220, 4167.000
251.4370, 4118.000
252.6510, 4029.000
253.8660, 3956.000
255.0800, 3959.000
256.2940, 3940.000
257.5080, 3930.273
258.7220, 3911.178
259.9360, 3898.297
261.1490, 3866.000
262.3630, 3888.000
263.5760, 3871.000
264.7890, 3902.000
266.0020, 3883.000
267.2150, 3872.000
268.4270, 3951.000
269.6400, 3956.000
270.8520, 4042.000
272.0640, 3904.000
273.2760, 3845.000
274.4880, 3958.000
275.7000, 3924.000
276.9120, 3948.000
278.1230, 4017.000
279.3340, 4144.000
280.5450, 4150.000
281.7560, 4258.000
282.9670, 4414.000
284.1780, 4479.000
285.3880, 4682.000
286.5980, 4905.000
287.8090, 5238.000
289.0190, 5432.000
290.2290, 5889.000
291.4380, 6157.000
292.6480, 6479.000
293.8570, 6705.000
295.0670, 6785.000
296.2760, 6732.000
297.4850, 6735.000
298.6930, 6504.000
299.9020, 6450.000
301.1110, 6188.000
302.3190, 6321.000
303.5270, 6306.000
304.7350, 6332.000
305.9430, 6399.000
307.1510, 6567.000
308.3580, 6832.000
309.5660, 7116.000
310.7730, 7491.979
311.9800, 7897.000
313.1870, 8414.000
314.3940, 8957.000
315.6010, 9563.000
316.8070, 9869.000
318.0130, 10333.00
319.2200, 11044.00
320.4260, 11699.00
321.6310, 12599.00
322.8370, 13889.00
324.0430, 15251.00
325.2480, 17242.00
326.4540, 19687.00
327.6590, 22715.00
328.8640, 26603.00
330.0680, 30853.00
331.2730, 35983.00
332.4780, 41680.00
333.6820, 47566.00
334.8860, 53334.00
336.0900, 57617.00
337.2940, 59641.00
338.4980, 58788.00
339.7010, 56055.00
340.9050, 51195.00
342.1080, 45685.00
343.3110, 39706.00
344.5140, 33910.00
345.7170, 29515.00
346.9200, 25287.00
348.1220, 22000.00
349.3240, 19433.00
350.5270, 17333.00
351.7290, 15739.00
352.9310, 14553.00
354.1320, 13467.00
355.3340, 12659.00
356.5350, 11891.00
357.7370, 11254.00
358.9380, 10592.00
360.1390, 10090.00
361.3400, 9746.000
362.5400, 9464.000
363.7410, 9239.000
364.9410, 9250.000
366.1410, 9214.000
367.3410, 9319.000
368.5410, 9404.000
369.7410, 9572.000
370.9400, 9819.000
372.1400, 10190.00
373.3390, 10476.00
374.5380, 10585.05
375.7370, 10746.00
376.9360, 10719.00
378.1350, 10918.00
379.3330, 10914.00
380.5310, 11066.00
381.7300, 11222.00
382.9280, 11574.00
384.1260, 12239.00
385.3230, 12920.00
386.5210, 13929.00
387.7180, 14952.00
388.9160, 16192.00
390.1130, 17574.00
391.3100, 18840.00
392.5060, 20108.00
393.7030, 21286.00
394.9000, 22215.00
396.0960, 22805.00
397.2920, 22949.00
398.4880, 22819.00
399.6840, 22307.00
400.8800, 21421.00
402.0750, 20791.00
403.2710, 19974.00
404.4660, 19129.00
405.6610, 18265.00
406.8560, 17494.00
408.0510, 16806.00
409.2450, 15963.00
410.4400, 15361.00
411.6340, 14588.00
412.8280, 13922.00
414.0220, 13287.00
415.2160, 12535.00
416.4100, 12036.00
417.6030, 11302.00
418.7970, 10500.00
419.9900, 10062.00
421.1830, 9269.000
422.3760, 8783.000
423.5690, 8313.000
424.7610, 7983.227
425.9540, 7728.000
427.1460, 7752.000
428.3380, 7808.000
429.5300, 8083.000
430.7220, 8452.000
431.9140, 8948.000
433.1050, 9254.000
434.2970, 9867.000
435.4880, 10301.00
436.6790, 10280.00
437.8700, 10132.00
439.0610, 9565.000
440.2510, 8818.000
441.4420, 7961.000
442.6320, 7267.000
443.8220, 6732.000
445.0120, 6250.000
446.2020, 5884.509
447.3910, 5650.000
448.5810, 5431.000
449.7700, 5331.000
450.9600, 5310.000
452.1490, 5180.000
453.3370, 5156.000
454.5260, 5133.000
455.7150, 5022.000
456.9030, 5070.000
458.0910, 5076.000
459.2800, 4974.000
460.4670, 4984.000
461.6550, 4923.000
462.8430, 4914.000
464.0300, 4794.000
465.2180, 4818.000
466.4050, 4659.000
467.5920, 4583.000
468.7790, 4589.000
469.9650, 4508.000
471.1520, 4415.000
472.3380, 4408.000
473.5250, 4361.000
474.7110, 4432.000
475.8970, 4344.000
477.0820, 4336.000
478.2680, 4442.000
479.4540, 4424.000
480.6390, 4334.000
481.8240, 4434.000
483.0090, 4278.000
484.1940, 4362.000
485.3780, 4284.000
486.5630, 4290.000
487.7470, 4268.000
488.9320, 4232.000
490.1160, 4207.000
491.3000, 4202.000
492.4830, 4229.000
493.6670, 4226.000
494.8500, 4243.000
496.0340, 4208.000
497.2170, 4190.000
498.4000, 4216.000
499.5820, 4173.000
500.7650, 4286.000
501.9480, 4441.000
503.1300, 4456.000
504.3120, 4502.000
505.4940, 4716.000
506.6760, 4984.000
507.8580, 5198.000
509.0390, 5497.000
510.2210, 5828.000
511.4020, 6299.000
512.5830, 7001.000
513.7640, 7419.000
514.9450, 7828.000
516.1250, 8284.000
517.3060, 8540.000
518.4860, 8782.000
519.6660, 8939.000
520.8460, 9027.000
522.0260, 9049.000
523.2060, 8589.000
524.3850, 8292.000
525.5650, 8111.000
526.7440, 7791.000
527.9230, 7671.000
529.1020, 7873.000
530.2810, 7875.000
531.4590, 8277.000
532.6380, 8759.000
533.8160, 9073.000
534.9940, 9154.841
536.1720, 9450.000
537.3500, 9023.000
538.5270, 8803.000
539.7050, 8455.000
540.8820, 8411.000
542.0590, 8376.000
543.2360, 8273.000
544.4130, 8229.000
545.5900, 8286.000
546.7660, 8122.000
547.9430, 7781.000
549.1190, 7375.000
550.2950, 7009.000
551.4710, 6580.000
552.6470, 6242.000
553.8220, 5925.000
554.9980, 5652.000
556.1730, 5541.000
557.3480, 5439.000
558.5230, 5262.000
559.6980, 5250.000
560.8730, 5233.000
562.0470, 5309.000
563.2220, 5303.000
564.3960, 5347.256
565.5700, 5419.000
566.7440, 5443.000
567.9170, 5558.000
569.0910, 5642.000
570.2640, 5759.000
571.4380, 5883.000
572.6110, 5905.000
573.7840, 5855.000
574.9570, 5735.000
576.1290, 5620.000
577.3020, 5501.916
578.4740, 5260.000
579.6460, 5213.000
580.8180, 5079.000
581.9900, 4913.000
583.1620, 4892.000
584.3330, 4837.000
585.5040, 4816.000
586.6760, 4851.000
587.8470, 4761.000
589.0180, 4775.000
590.1880, 4752.000
591.3590, 4647.000
592.5290, 4628.000
593.7000, 4610.000
594.8700, 4543.000
596.0400, 4469.000
597.2090, 4439.000
598.3790, 4435.000
599.5490, 4393.000
600.7180, 4288.000
601.8870, 4311.000
603.0560, 4283.000
604.2250, 4291.000
605.3940, 4277.000
606.5620, 4296.000
607.7300, 4336.000
608.8990, 4316.548
610.0670, 4330.959
611.2350, 4321.000
612.4020, 4345.000
613.5700, 4383.000
614.7370, 4440.000
615.9050, 4376.000
617.0720, 4499.000
618.2390, 4486.000
619.4060, 4489.000
620.5720, 4561.000
621.7390, 4676.000
622.9050, 4772.000
624.0710, 4802.000
625.2370, 4908.000
626.4030, 4946.000
627.5690, 5019.000
628.7340, 5125.000
629.9000, 5211.000
631.0650, 5319.337
632.2300, 5447.201
633.3950, 5575.000
634.5600, 5739.000
635.7240, 5938.000
636.8890, 6137.000
638.0530, 6535.000
639.2170, 6638.000
640.3810, 7181.000
641.5450, 7530.000
642.7080, 8035.000
643.8720, 8760.000
645.0350, 9515.000
646.1980, 10597.00
647.3610, 11780.00
648.5240, 13251.00
649.6870, 15260.00
650.8490, 17569.00
652.0120, 20229.00
653.1740, 23323.00
654.3360, 26893.00
655.4980, 30763.00
656.6600, 34433.00
657.8210, 37614.00
658.9830, 39252.00
660.1440, 38870.00
661.3050, 37157.00
662.4660, 34217.00
663.6270, 31460.00
664.7870, 28785.00
665.9480, 26575.00
667.1080, 24813.00
668.2680, 24312.00
669.4280, 24401.00
670.5880, 25318.00
671.7480, 27185.00
672.9070, 29549.00
674.0670, 32554.00
675.2260, 36163.00
676.3850, 39970.00
677.5440, 43585.00
678.7030, 46611.00
679.8610, 48164.00
681.0200, 48021.00
682.1780, 45804.00
683.3360, 41899.00
684.4940, 37091.00
685.6520, 32443.00
686.8090, 27630.00
687.9670, 23439.00
689.1240, 20080.00
690.2810, 17363.00
691.4380, 15121.00
692.5950, 13245.00
693.7520, 11814.00
694.9080, 10842.00
696.0650, 9761.000
697.2210, 9036.000
698.3770, 8545.000
699.5330, 8071.000
700.6880, 7534.000
701.8440, 7342.000
702.9990, 6867.000
704.1550, 6532.000
705.3100, 6387.000
706.4650, 6259.000
707.6190, 6092.000
708.7740, 5946.000
709.9290, 5771.000
711.0830, 5671.000
712.2370, 5528.000
713.3910, 5435.000
714.5450, 5299.000
715.6980, 5318.000
716.8520, 5206.000
718.0050, 5122.000
719.1580, 4992.000
720.3110, 5020.000
721.4640, 5039.000
722.6170, 4985.000
723.7700, 5041.000
724.9220, 4955.000
726.0740, 4952.000
727.2260, 5021.000
728.3780, 5054.000
729.5300, 4947.000
730.6810, 5076.000
731.8330, 4996.000
732.9840, 5079.000
734.1350, 5081.000
735.2860, 5118.000
736.4370, 5166.000
737.5880, 5012.000
738.7380, 5152.000
739.8880, 5112.000
741.0390, 5078.000
742.1890, 5262.000
743.3380, 5199.000
744.4880, 5266.000
745.6380, 5378.000
746.7870, 5491.000
747.9360, 5666.000
749.0850, 5640.000
750.2340, 5682.000
751.3830, 5480.000
752.5310, 5194.000
753.6800, 5006.000
754.8280, 4768.000
755.9760, 4745.000
757.1240, 4609.000
758.2720, 4508.000
759.4190, 4400.000
760.5670, 4390.000
761.7140, 4344.000
762.8610, 4374.000
764.0080, 4245.000
765.1550, 4254.000
766.3020, 4218.000
767.4480, 4186.000
768.5950, 4216.000
769.7410, 4178.000
770.8870, 4183.522
772.0330, 4207.000
773.1780, 4186.000
774.3240, 4179.000
775.4690, 4194.000
776.6140, 4214.000
777.7590, 4122.000
778.9040, 4101.000
780.0490, 4069.000
781.1940, 4107.000
782.3380, 4066.751
783.4820, 4093.000
784.6260, 4062.000
785.7700, 4066.000
786.9140, 4137.000
788.0580, 4093.000
789.2010, 4166.000
790.3450, 4135.000
791.4880, 4171.000
792.6310, 4056.000
793.7730, 4169.000
794.9160, 4161.000
796.0590, 4202.000
797.2010, 4096.000
798.3430, 4208.000
799.4850, 4159.000
800.6270, 4203.000
801.7690, 4216.000
802.9100, 4182.000
804.0520, 4282.000
805.1930, 4267.000
806.3340, 4223.000
807.4750, 4256.000
808.6160, 4237.000
809.7560, 4302.000
810.8970, 4208.000
812.0370, 4237.000
813.1770, 4329.000
814.3170, 4210.000
815.4570, 4259.000
816.5960, 4214.000
817.7360, 4251.000
818.8750, 4258.000
820.0140, 4315.000
821.1530, 4201.000
822.2920, 4268.000
823.4310, 4349.000
824.5690, 4297.000
825.7070, 4380.000
826.8460, 4234.000
827.9840, 4315.000
829.1220, 4273.000
830.2590, 4332.000
831.3970, 4307.000
832.5340, 4391.000
833.6710, 4350.000
834.8080, 4425.000
835.9450, 4396.000
837.0820, 4407.000
838.2190, 4417.000
839.3550, 4427.000
840.4910, 4605.000
841.6270, 4635.000
842.7630, 4608.000
843.8990, 4838.000
845.0350, 4917.000
846.1700, 4940.000
847.3060, 5098.000
848.4410, 5323.000
849.5760, 5554.000
850.7100, 5872.000
851.8450, 6194.000
852.9800, 6436.000
854.1140, 6640.000
855.2480, 6927.000
856.3820, 7275.000
857.5160, 7248.000
858.6500, 7324.000
859.7830, 7164.000
860.9170, 7168.000
862.0500, 6954.000
863.1830, 6918.000
864.3160, 6567.000
865.4480, 6362.000
866.5810, 6157.000
867.7130, 5976.000
868.8460, 5747.000
869.9780, 5683.000
871.1100, 5593.000
872.2410, 5399.000
873.3730, 5268.000
874.5050, 5231.000
875.6360, 5078.000
876.7670, 5054.000
877.8980, 5062.000
879.0290, 4981.000
880.1590, 4935.000
881.2900, 4955.000
882.4200, 4914.000
883.5500, 4942.000
884.6800, 4850.000
885.8100, 4923.000
886.9400, 4939.000
888.0690, 5039.000
889.1990, 5003.000
890.3280, 5048.000
891.4570, 5079.000
892.5860, 5083.000
893.7140, 5138.000
894.8430, 5114.000
895.9710, 5302.000
897.1000, 5192.000
898.2280, 5282.000
899.3560, 5236.000
900.4830, 5155.000
901.6110, 5147.000
902.7380, 5133.000
903.8660, 5063.000
904.9930, 5020.000
906.1200, 5013.000
907.2460, 5100.000
908.3730, 5044.000
909.5000, 5191.000
910.6260, 5178.000
911.7520, 5246.000
912.8780, 5305.000
914.0040, 5313.000
915.1290, 5459.000
916.2550, 5663.000
917.3800, 5729.000
918.5050, 6075.000
919.6300, 6319.000
920.7550, 6632.000
921.8800, 6973.000
923.0040, 7298.000
924.1290, 7642.000
925.2530, 7888.000
926.3770, 8199.000
927.5010, 8295.000
928.6250, 8463.000
929.7480, 8609.000
930.8720, 8737.000
931.9950, 8789.000
933.1180, 9087.000
934.2410, 9217.000
935.3640, 9178.000
936.4860, 9180.000
937.6090, 9211.000
938.7310, 9111.000
939.8530, 8848.000
940.9750, 8697.000
942.0970, 8427.000
943.2180, 8185.000
944.3400, 7908.000
945.4610, 7687.000
946.5820, 7391.000
947.7030, 7191.000
948.8240, 6918.000
949.9450, 6742.000
951.0650, 6638.000
952.1860, 6535.000
953.3060, 6297.000
954.4260, 6255.000
955.5460, 6132.000
956.6650, 6005.000
957.7850, 5913.000
958.9040, 5843.000
960.0230, 5772.000
961.1420, 5802.000
962.2610, 5764.000
963.3800, 5713.000
964.4990, 5715.000
965.6170, 5664.000
966.7350, 5676.000
967.8530, 5605.000
968.9710, 5657.000
970.0890, 5566.000
971.2070, 5576.000
972.3240, 5679.000
973.4410, 5754.000
974.5580, 5835.000
975.6750, 5806.000
976.7920, 5865.000
977.9090, 6116.000
979.0250, 6070.000
980.1410, 6294.000
981.2580, 6393.000
982.3740, 6586.000
983.4890, 6883.000
984.6050, 7117.000
985.7200, 7522.000
986.8360, 7799.000
987.9510, 8205.000
989.0660, 8744.000
990.1810, 9437.000
991.2950, 10355.00
992.4100, 11224.00
993.5240, 12328.00
994.6390, 13892.00
995.7530, 15270.00
996.8660, 17122.00
997.9800, 19127.00
999.0940, 21356.00
1000.207, 23890.00
1001.320, 26647.00
1002.433, 29723.00
1003.546, 32934.00
1004.659, 35697.00
1005.772, 38474.00
1006.884, 40462.00
1007.996, 41166.00
1009.108, 40777.00
1010.220, 40030.00
1011.332, 38650.00
1012.444, 37527.00
1013.555, 36594.00
1014.666, 36053.00
1015.777, 35804.00
1016.888, 35774.00
1017.999, 35384.00
1019.110, 35348.00
1020.220, 35190.00
1021.331, 34665.00
1022.441, 34038.00
1023.551, 33648.00
1024.661, 33038.00
1025.770, 32969.00
1026.880, 31995.00
1027.989, 30991.00
1029.098, 29793.00
1030.207, 28336.00
1031.316, 26810.00
1032.425, 25126.00
1033.533, 23700.00
1034.642, 22083.00
1035.750, 20244.00
1036.858, 18955.00
1037.966, 17429.00
1039.073, 16354.00
1040.181, 15016.00
1041.288, 14131.00
1042.396, 13184.00
1043.503, 12037.00
1044.610, 11407.00
1045.716, 10782.00
1046.823, 10248.00
1047.929, 9690.000
1049.036, 9366.000
1050.142, 8857.000
1051.248, 8580.000
1052.353, 8265.000
1053.459, 8038.000
1054.564, 7730.000
1055.670, 7480.000
1056.775, 7383.000
1057.880, 7002.000
1058.985, 6780.000
1060.089, 6684.000
1061.194, 6366.000
1062.298, 6244.000
1063.402, 6148.000
1064.506, 5958.000
1065.610, 5949.000
1066.713, 5765.000
1067.817, 5721.000
1068.920, 5618.000
1070.023, 5488.000
1071.126, 5461.000
1072.229, 5438.000
1073.332, 5418.000
1074.435, 5363.000
1075.537, 5319.000
1076.639, 5237.000
1077.741, 5294.000
1078.843, 5227.000
1079.945, 5155.000
1081.046, 5164.000
1082.148, 5020.000
1083.249, 5149.000
1084.350, 5016.000
1085.451, 5072.000
1086.551, 5022.000
1087.652, 5015.000
1088.752, 4993.000
1089.853, 4969.000
1090.953, 4937.000
1092.053, 5018.000
1093.152, 4999.000
1094.252, 4917.000
1095.351, 4974.000
1096.451, 4896.000
1097.550, 4820.000
1098.649, 4978.000
1099.748, 4984.000
1100.846, 4927.000
1101.945, 4953.000
1103.043, 4842.000
1104.141, 4994.000
1105.239, 4844.000
1106.337, 4965.000
1107.434, 4928.971
1108.532, 4951.000
1109.629, 4880.000
1110.726, 4884.000
1111.823, 4851.000
1112.920, 4905.000
1114.017, 4915.000
1115.113, 4816.000
1116.210, 4907.000
1117.306, 4877.000
1118.402, 4800.000
1119.498, 4848.000
1120.593, 4947.000
1121.689, 4809.000
1122.784, 4882.000
1123.879, 4861.000
1124.974, 4842.000
1126.069, 4813.000
1127.164, 4821.620
1128.259, 4812.000
1129.353, 4833.000
1130.447, 4781.000
1131.541, 4767.000
1132.635, 4879.000
1133.729, 4750.000
1134.822, 4693.000
1135.916, 4785.000
1137.009, 4685.000
1138.102, 4749.000
1139.195, 4608.000
1140.288, 4604.000
1141.380, 4590.000
1142.473, 4730.000
1143.565, 4631.000
1144.657, 4620.000
1145.749, 4637.000
1146.841, 4568.000
1147.932, 4536.000
1149.024, 4606.000
1150.115, 4593.000
1151.206, 4606.000
1152.297, 4514.000
1153.388, 4614.000
1154.479, 4576.000
1155.569, 4475.000
1156.659, 4534.000
1157.750, 4498.000
1158.839, 4548.000
1159.929, 4558.000
1161.019, 4519.000
1162.108, 4518.000
1163.198, 4526.000
1164.287, 4556.000
1165.376, 4502.000
1166.465, 4583.000
1167.553, 4609.000
1168.642, 4503.000
1169.730, 4529.000
1170.818, 4433.000
1171.906, 4488.000
1172.994, 4518.000
1174.082, 4500.000
1175.170, 4543.000
1176.257, 4526.698
1177.344, 4501.000
1178.431, 4499.000
1179.518, 4376.000
1180.605, 4334.000
1181.691, 4392.000
1182.778, 4363.000
1183.864, 4433.000
1184.950, 4396.000
1186.036, 4324.000
1187.122, 4360.000
1188.207, 4394.000
1189.292, 4295.000
1190.378, 4304.000
1191.463, 4350.000
1192.548, 4325.000
1193.632, 4221.000
1194.717, 4295.000
1195.801, 4221.000
1196.886, 4232.000
1197.970, 4293.000
1199.054, 4220.000
1200.137, 4288.000
1201.221, 4306.000
1202.305, 4400.000
1203.388, 4368.991
1204.471, 4259.000
1205.554, 4329.000
1206.637, 4248.000
1207.719, 4248.000
1208.802, 4270.000
1209.884, 4241.000
1210.966, 4271.776
1212.048, 4274.561
1213.130, 4294.000
1214.212, 4296.000
1215.293, 4266.000
1216.374, 4268.000
1217.456, 4285.000
1218.536, 4173.000
1219.617, 4146.000
1220.698, 4183.000
1221.778, 4263.000
1222.859, 4225.000
1223.939, 4237.000
1225.019, 4209.000
1226.099, 4254.000
1227.178, 4257.000
1228.258, 4231.000
1229.337, 4234.000
1230.417, 4324.000
1231.496, 4258.000
1232.574, 4304.000
1233.653, 4350.000
1234.732, 4224.000
1235.810, 4324.000
1236.888, 4331.000
1237.966, 4265.000
1239.044, 4238.000
1240.122, 4293.000
1241.199, 4356.000
1242.277, 4296.000
1243.354, 4285.000
1244.431, 4398.000
1245.508, 4328.000
1246.585, 4339.000
1247.661, 4286.000
1248.738, 4290.490
1249.814, 4340.000
1250.890, 4304.000
1251.966, 4290.000
1253.042, 4294.000
1254.117, 4368.000
1255.193, 4318.000
1256.268, 4380.000
1257.343, 4307.000
1258.418, 4395.000
1259.493, 4336.000
1260.567, 4399.000
1261.642, 4411.000
1262.716, 4442.000
1263.790, 4432.000
1264.864, 4398.000
1265.938, 4426.000
1267.011, 4451.000
1268.085, 4368.000
1269.158, 4441.000
1270.231, 4424.000
1271.304, 4510.000
1272.377, 4504.000
1273.450, 4495.000
1274.522, 4541.000
1275.594, 4495.000
1276.666, 4490.000
1277.738, 4525.000
1278.810, 4529.000
1279.882, 4452.000
1280.953, 4501.000
1282.025, 4481.000
1283.096, 4461.000
1284.167, 4529.000
1285.238, 4505.000
1286.308, 4501.000
1287.379, 4580.000
1288.449, 4496.000
1289.519, 4439.000
1290.589, 4608.000
1291.659, 4663.000
1292.729, 4573.000
1293.798, 4615.000
1294.868, 4627.000
1295.937, 4565.000
1297.006, 4579.000
1298.075, 4664.000
1299.143, 4638.000
1300.212, 4610.000
1301.280, 4569.000
1302.348, 4581.930
1303.416, 4608.000
1304.484, 4592.000
1305.552, 4599.555
1306.620, 4648.000
1307.687, 4592.000
1308.754, 4626.000
1309.821, 4635.000
1310.888, 4592.000
1311.955, 4647.000
1313.021, 4645.000
1314.088, 4605.000
1315.154, 4660.000
1316.220, 4639.000
1317.286, 4657.000
1318.352, 4643.000
1319.417, 4667.000
1320.483, 4581.000
1321.548, 4667.000
1322.613, 4590.000
1323.678, 4742.000
1324.743, 4654.000
1325.807, 4664.000
1326.872, 4663.000
1327.936, 4613.000
1329.000, 4571.000
1330.064, 4601.000
1331.128, 4573.188
1332.191, 4623.000
1333.255, 4610.000
1334.318, 4600.000
1335.381, 4682.000
1336.444, 4719.000
1337.507, 4614.000
1338.569, 4636.000
1339.632, 4607.000
1340.694, 4603.000
1341.756, 4689.000
1342.818, 4648.000
1343.880, 4713.000
1344.941, 4652.000
1346.003, 4725.000
1347.064, 4707.000
1348.125, 4709.000
1349.186, 4667.000
1350.247, 4687.000
1351.308, 4675.660
1352.368, 4734.000
1353.428, 4715.000
1354.489, 4711.000
1355.549, 4811.000
1356.608, 4875.000
1357.668, 4818.000
1358.727, 4829.000
1359.787, 4808.000
1360.846, 4847.000
1361.905, 4831.000
1362.964, 4798.000
1364.022, 4821.213
1365.081, 4844.000
1366.139, 4827.000
1367.197, 4818.000
1368.255, 4817.000
1369.313, 4813.000
1370.371, 4817.888
1371.428, 4821.573
1372.486, 4828.000
1373.543, 4860.000
1374.600, 4858.000
1375.657, 4929.000
1376.713, 4898.000
1377.770, 4830.000
1378.826, 4829.000
1379.882, 4870.000
1380.938, 4847.000
1381.994, 4917.000
1383.050, 4911.000
1384.106, 4853.000
1385.161, 4837.000
1386.216, 4917.000
1387.271, 4811.000
1388.326, 4916.000
1389.381, 4926.000
1390.435, 4916.000
1391.490, 4925.000
1392.544, 4891.000
1393.598, 4894.000
1394.652, 4873.000
1395.705, 4822.000
1396.759, 4919.000
1397.812, 4924.000
1398.866, 4846.000
1399.919, 4998.000
1400.972, 5001.000
1402.024, 4903.000
1403.077, 4942.000
1404.129, 4926.000
1405.181, 4974.000
1406.233, 4978.000
1407.285, 5006.245
1408.337, 5058.000
1409.389, 5036.000
1410.440, 5023.000
1411.491, 4966.000
1412.542, 4958.000
1413.593, 4955.000
1414.644, 4982.000
1415.695, 4933.000
1416.745, 4945.379
1417.795, 4934.000
1418.845, 4957.000
1419.895, 5018.000
1420.945, 5087.000
1421.995, 4998.000
1423.044, 5016.000
1424.093, 5094.000
1425.142, 5041.000
1426.191, 5050.000
1427.240, 5124.000
1428.289, 4995.000
1429.337, 5092.000
1430.385, 5054.000
1431.433, 5072.000
1432.481, 5105.000
1433.529, 5074.000
1434.577, 5205.000
1435.624, 5169.000
1436.672, 5066.000
1437.719, 5074.000
1438.766, 5190.000
1439.812, 5143.000
1440.859, 5183.000
1441.905, 5295.000
1442.952, 5269.000
1443.998, 5258.000
1445.044, 5152.000
1446.090, 5316.000
1447.135, 5287.000
1448.181, 5223.000
1449.226, 5365.000
1450.271, 5312.000
1451.316, 5255.000
1452.361, 5314.000
1453.405, 5397.000
1454.450, 5319.000
1455.494, 5401.000
1456.538, 5386.000
1457.582, 5371.000
1458.626, 5351.000
1459.670, 5361.000
1460.713, 5401.000
1461.757, 5345.000
1462.800, 5304.000
1463.843, 5376.000
1464.886, 5354.000
1465.928, 5418.000
1466.971, 5367.000
1468.013, 5302.000
1469.055, 5341.000
1470.097, 5352.000
1471.139, 5341.000
1472.181, 5323.000
1473.222, 5293.000
1474.263, 5350.000
1475.305, 5351.000
1476.346, 5357.000
1477.386, 5304.000
1478.427, 5270.000
1479.468, 5309.000
1480.508, 5310.000
1481.548, 5281.000
1482.588, 5373.000
1483.628, 5246.000
1484.668, 5267.000
1485.707, 5353.000
1486.747, 5379.000
1487.786, 5311.000
1488.825, 5319.000
1489.864, 5334.000
1490.902, 5318.000
1491.941, 5252.000
1492.979, 5360.000
1494.017, 5277.000
1495.055, 5309.000
1496.093, 5229.000
1497.131, 5344.000
1498.168, 5318.000
1499.206, 5373.000
1500.243, 5378.000
1501.280, 5298.000
1502.317, 5373.000
1503.354, 5317.000
1504.390, 5359.000
1505.426, 5328.000
1506.463, 5382.000
1507.499, 5304.000
1508.535, 5392.000
1509.570, 5274.000
1510.606, 5328.000
1511.641, 5267.000
1512.676, 5383.000
1513.711, 5257.000
1514.746, 5311.000
1515.781, 5345.000
1516.816, 5294.000
1517.850, 5328.000
1518.884, 5354.000
1519.918, 5342.000
1520.952, 5331.000
1521.986, 5460.000
1523.019, 5360.000
1524.053, 5418.000
1525.086, 5380.000
1526.119, 5478.000
1527.152, 5460.000
1528.185, 5433.000
1529.217, 5404.000
1530.250, 5436.000
1531.282, 5432.000
1532.314, 5427.732
1533.346, 5410.000
1534.377, 5422.000
1535.409, 5423.000
1536.440, 5416.000
1537.472, 5439.000
1538.503, 5474.000
1539.534, 5397.000
1540.564, 5429.000
1541.595, 5477.000
1542.625, 5439.000
1543.656, 5553.000
1544.686, 5439.000
1545.716, 5410.000
1546.745, 5545.000
1547.775, 5499.000
1548.804, 5516.000
1549.834, 5496.000
1550.863, 5528.000
1551.892, 5523.000
1552.920, 5535.000
1553.949, 5532.179
1554.977, 5485.000
1556.006, 5521.000
1557.034, 5474.000
1558.062, 5478.000
1559.089, 5517.000
1560.117, 5508.000
1561.144, 5504.000
1562.172, 5563.000
1563.199, 5403.000
1564.226, 5523.000
1565.252, 5545.000
1566.279, 5651.000
1567.305, 5498.000
1568.332, 5658.000
1569.358, 5590.000
1570.384, 5619.000
##END=



