##NAMES=Enstatite
##RRUFFID=R060630
##IDEAL CHEMISTRY=MgSiO_3_
##LOCALITY=unknown
##OWNER=RRUFF
##SOURCE=Gemological Institute of America
##DESCRIPTION=Tan colored fragment
##STATUS=The identification of this mineral has been confirmed by X-ray diffraction and chemical analysis
##URL=rruff.info/R060630
##MEASURED CHEMISTRY=(Mg_0.89_Fe_0.07_Al_0.04_)_Σ=1_(Si_0.96_Al_0.04_)_Σ=1_O_3_
##PIN_ID=L01844
##ORIENTATION=Laser parallel to -b* (0 -1 0). Fiducial mark perpendicular to laser is parallel to c [0 0 1]
118.1340, 7862.000
119.3650, 7919.000
120.5960, 8018.000
121.8270, 7912.000
123.0580, 8060.000
124.2880, 8074.000
125.5190, 8008.000
126.7490, 8091.000
127.9790, 8153.000
129.2090, 8380.287
130.4390, 8836.000
131.6680, 9101.000
132.8980, 9571.000
134.1270, 10259.00
135.3560, 10620.00
136.5850, 11385.00
137.8140, 11969.00
139.0430, 12571.00
140.2710, 13113.00
141.5000, 13152.00
142.7280, 13138.00
143.9560, 12511.00
145.1840, 12236.00
146.4120, 11824.00
147.6390, 11402.00
148.8670, 11081.00
150.0940, 10946.00
151.3210, 10953.00
152.5490, 10814.00
153.7750, 10591.00
155.0020, 10219.00
156.2290, 10071.00
157.4550, 9615.000
158.6810, 9173.000
159.9080, 8838.000
161.1340, 8660.000
162.3590, 8415.000
163.5850, 8354.000
164.8110, 8351.000
166.0360, 8157.000
167.2610, 8115.000
168.4860, 8001.000
169.7110, 7908.000
170.9360, 7768.000
172.1610, 7877.000
173.3850, 7747.000
174.6100, 7763.000
175.8340, 7719.000
177.0580, 7670.000
178.2820, 7589.000
179.5050, 7615.000
180.7290, 7706.000
181.9520, 7724.000
183.1760, 7792.000
184.3990, 7835.000
185.6220, 7741.000
186.8450, 7871.000
188.0670, 7897.000
189.2900, 8005.000
190.5120, 8091.000
191.7340, 8108.000
192.9560, 8231.000
194.1780, 8354.000
195.4000, 8472.000
196.6220, 8561.000
197.8430, 8668.000
199.0640, 8825.000
200.2860, 9019.000
201.5070, 9155.887
202.7270, 9302.429
203.9480, 9438.000
205.1690, 9546.000
206.3890, 9581.000
207.6090, 9652.000
208.8290, 9671.000
210.0490, 9630.000
211.2690, 9599.979
212.4890, 9386.000
213.7080, 9430.000
214.9280, 9325.000
216.1470, 9198.000
217.3660, 9441.000
218.5850, 9385.000
219.8030, 9366.000
221.0220, 9501.000
222.2400, 9741.000
223.4590, 9939.000
224.6770, 10148.00
225.8950, 10605.00
227.1120, 10966.00
228.3300, 11479.00
229.5480, 12073.00
230.7650, 12664.00
231.9820, 13469.00
233.1990, 14309.00
234.4160, 15182.00
235.6330, 15947.00
236.8490, 16263.00
238.0660, 16377.00
239.2820, 15944.00
240.4980, 15303.00
241.7140, 14203.00
242.9300, 13047.00
244.1460, 11939.00
245.3610, 11124.00
246.5770, 10381.00
247.7920, 10036.00
249.0070, 9544.529
250.2220, 9373.000
251.4370, 9090.000
252.6510, 8916.000
253.8660, 8960.000
255.0800, 8824.000
256.2940, 8793.000
257.5080, 8887.000
258.7220, 9146.000
259.9360, 8960.000
261.1490, 8872.000
262.3630, 8814.000
263.5760, 8680.000
264.7890, 8675.000
266.0020, 8806.000
267.2150, 8733.000
268.4270, 8786.000
269.6400, 8860.000
270.8520, 8926.000
272.0640, 8999.139
273.2760, 9035.000
274.4880, 9152.000
275.7000, 9221.000
276.9120, 9294.000
278.1230, 9307.000
279.3340, 9373.706
280.5450, 9400.066
281.7560, 9466.000
282.9670, 9458.000
284.1780, 9504.395
285.3880, 9539.365
286.5980, 9653.000
287.8090, 9678.000
289.0190, 9764.000
290.2290, 9825.000
291.4380, 9864.000
292.6480, 9879.000
293.8570, 10018.00
295.0670, 10117.00
296.2760, 10252.00
297.4850, 10249.00
298.6930, 10283.00
299.9020, 10165.00
301.1110, 10183.00
302.3190, 10264.00
303.5270, 10087.00
304.7350, 9982.000
305.9430, 10057.00
307.1510, 10062.00
308.3580, 10096.00
309.5660, 10274.56
310.7730, 10438.00
311.9800, 10657.00
313.1870, 10889.00
314.3940, 11098.00
315.6010, 11417.00
316.8070, 11605.00
318.0130, 11770.00
319.2200, 12239.00
320.4260, 12415.00
321.6310, 12757.00
322.8370, 13114.00
324.0430, 13384.00
325.2480, 13591.00
326.4540, 13981.00
327.6590, 14490.00
328.8640, 14783.00
330.0680, 15251.00
331.2730, 15525.00
332.4780, 15954.00
333.6820, 16657.00
334.8860, 17105.00
336.0900, 17796.00
337.2940, 18537.00
338.4980, 19259.00
339.7010, 20369.00
340.9050, 21473.00
342.1080, 22508.00
343.3110, 23283.00
344.5140, 24119.00
345.7170, 24910.00
346.9200, 25543.00
348.1220, 25759.00
349.3240, 25839.00
350.5270, 25473.00
351.7290, 25052.00
352.9310, 24095.00
354.1320, 23244.00
355.3340, 22156.00
356.5350, 21200.00
357.7370, 20166.00
358.9380, 19446.00
360.1390, 18663.00
361.3400, 17978.00
362.5400, 17368.00
363.7410, 16698.00
364.9410, 16099.00
366.1410, 15512.00
367.3410, 15010.00
368.5410, 14590.00
369.7410, 14274.00
370.9400, 14043.00
372.1400, 13814.00
373.3390, 13716.00
374.5380, 13589.00
375.7370, 13513.00
376.9360, 13473.00
378.1350, 13476.00
379.3330, 13432.00
380.5310, 13398.00
381.7300, 13350.00
382.9280, 13385.00
384.1260, 13337.00
385.3230, 13220.13
386.5210, 13002.00
387.7180, 12921.00
388.9160, 12832.00
390.1130, 12642.00
391.3100, 12687.00
392.5060, 12621.00
393.7030, 12844.00
394.9000, 12879.00
396.0960, 12997.00
397.2920, 13021.00
398.4880, 13172.00
399.6840, 13193.00
400.8800, 13356.00
402.0750, 13360.00
403.2710, 13451.00
404.4660, 13318.00
405.6610, 13345.00
406.8560, 13301.00
408.0510, 13320.57
409.2450, 13463.00
410.4400, 13413.00
411.6340, 13596.00
412.8280, 13656.00
414.0220, 13909.00
415.2160, 14047.00
416.4100, 13915.00
417.6030, 14013.00
418.7970, 13949.00
419.9900, 13859.00
421.1830, 13576.00
422.3760, 13262.00
423.5690, 12878.00
424.7610, 12780.00
425.9540, 12164.00
427.1460, 11916.00
428.3380, 11526.00
429.5300, 11366.00
430.7220, 11030.00
431.9140, 11225.00
433.1050, 10922.00
434.2970, 10947.00
435.4880, 11119.00
436.6790, 11124.00
437.8700, 11513.00
439.0610, 11577.00
440.2510, 11941.00
441.4420, 12067.00
442.6320, 12325.00
443.8220, 12613.00
445.0120, 12605.00
446.2020, 12674.00
447.3910, 12617.00
448.5810, 12416.00
449.7700, 12109.00
450.9600, 11877.00
452.1490, 11750.00
453.3370, 11433.00
454.5260, 11418.00
455.7150, 11313.00
456.9030, 11106.00
458.0910, 11059.00
459.2800, 10979.00
460.4670, 11015.00
461.6550, 10926.00
462.8430, 10871.00
464.0300, 10659.00
465.2180, 10668.00
466.4050, 10603.00
467.5920, 10507.00
468.7790, 10487.00
469.9650, 10471.00
471.1520, 10390.00
472.3380, 10417.26
473.5250, 10481.00
474.7110, 10403.00
475.8970, 10408.00
477.0820, 10327.00
478.2680, 10326.00
479.4540, 10384.00
480.6390, 10329.00
481.8240, 10313.00
483.0090, 10353.00
484.1940, 10319.13
485.3780, 10258.00
486.5630, 10372.00
487.7470, 10394.00
488.9320, 10546.00
490.1160, 10270.00
491.3000, 10378.00
492.4830, 10338.00
493.6670, 10322.00
494.8500, 10362.00
496.0340, 10281.00
497.2170, 10285.00
498.4000, 10313.00
499.5820, 10474.00
500.7650, 10232.00
501.9480, 10468.00
503.1300, 10461.00
504.3120, 10483.00
505.4940, 10636.00
506.6760, 10600.89
507.8580, 10459.00
509.0390, 10627.00
510.2210, 10687.00
511.4020, 10692.00
512.5830, 10813.00
513.7640, 10912.00
514.9450, 10888.00
516.1250, 10857.00
517.3060, 10935.33
518.4860, 11109.00
519.6660, 11075.00
520.8460, 11127.00
522.0260, 11292.00
523.2060, 11296.00
524.3850, 11199.00
525.5650, 11284.00
526.7440, 11223.00
527.9230, 11505.00
529.1020, 11556.00
530.2810, 11493.00
531.4590, 11832.00
532.6380, 11857.00
533.8160, 12105.00
534.9940, 12303.00
536.1720, 12514.00
537.3500, 12462.00
538.5270, 12388.00
539.7050, 12383.00
540.8820, 12228.00
542.0590, 11972.00
543.2360, 11933.00
544.4130, 11814.00
545.5900, 11687.00
546.7660, 11708.00
547.9430, 11677.00
549.1190, 11607.00
550.2950, 11773.00
551.4710, 11538.00
552.6470, 11546.00
553.8220, 11623.00
554.9980, 11451.00
556.1730, 11455.00
557.3480, 11339.00
558.5230, 11273.00
559.6980, 11144.00
560.8730, 11205.00
562.0470, 11212.00
563.2220, 11263.00
564.3960, 11309.09
565.5700, 11259.00
566.7440, 11401.00
567.9170, 11385.00
569.0910, 11411.00
570.2640, 11559.00
571.4380, 11355.00
572.6110, 11593.00
573.7840, 11590.00
574.9570, 11653.00
576.1290, 11827.00
577.3020, 11689.00
578.4740, 11688.00
579.6460, 11615.00
580.8180, 11495.00
581.9900, 11708.00
583.1620, 11537.00
584.3330, 11531.00
585.5040, 11437.00
586.6760, 11471.00
587.8470, 11416.00
589.0180, 11398.00
590.1880, 11424.39
591.3590, 11366.00
592.5290, 11467.00
593.7000, 11336.00
594.8700, 11347.00
596.0400, 11407.00
597.2090, 11441.00
598.3790, 11432.96
599.5490, 11435.00
600.7180, 11434.00
601.8870, 11326.00
603.0560, 11363.00
604.2250, 11356.95
605.3940, 11488.00
606.5620, 11388.00
607.7300, 11453.00
608.8990, 11432.00
610.0670, 11595.00
611.2350, 11638.00
612.4020, 11582.00
613.5700, 11599.00
614.7370, 11720.00
615.9050, 11810.00
617.0720, 11778.00
618.2390, 11815.00
619.4060, 11893.00
620.5720, 11943.00
621.7390, 12008.00
622.9050, 12241.00
624.0710, 12314.00
625.2370, 12469.00
626.4030, 12676.00
627.5690, 12848.05
628.7340, 13148.00
629.9000, 13305.00
631.0650, 13628.00
632.2300, 13898.00
633.3950, 14109.00
634.5600, 14419.33
635.7240, 14586.00
636.8890, 14961.00
638.0530, 15083.00
639.2170, 15319.00
640.3810, 15538.00
641.5450, 15733.00
642.7080, 15974.00
643.8720, 16133.00
645.0350, 16583.00
646.1980, 17103.00
647.3610, 17750.00
648.5240, 18635.00
649.6870, 19388.00
650.8490, 20639.00
652.0120, 21638.00
653.1740, 22739.00
654.3360, 24108.00
655.4980, 25369.00
656.6600, 26732.00
657.8210, 27797.00
658.9830, 28792.00
660.1440, 29507.00
661.3050, 30104.00
662.4660, 29474.00
663.6270, 29048.00
664.7870, 28586.00
665.9480, 27786.00
667.1080, 27021.00
668.2680, 26444.00
669.4280, 26112.00
670.5880, 26364.00
671.7480, 26715.00
672.9070, 27620.00
674.0670, 28906.00
675.2260, 30322.00
676.3850, 32560.00
677.5440, 35119.00
678.7030, 38179.00
679.8610, 41825.00
681.0200, 45023.00
682.1780, 48426.00
683.3360, 51164.00
684.4940, 53446.00
685.6520, 54329.00
686.8090, 54367.00
687.9670, 52553.00
689.1240, 49890.00
690.2810, 46313.00
691.4380, 42298.00
692.5950, 38440.00
693.7520, 34597.00
694.9080, 31424.00
696.0650, 28464.00
697.2210, 25939.00
698.3770, 23900.00
699.5330, 22402.00
700.6880, 20999.00
701.8440, 19822.00
702.9990, 19006.00
704.1550, 18043.00
705.3100, 17531.00
706.4650, 16836.00
707.6190, 16465.00
708.7740, 15928.00
709.9290, 15545.00
711.0830, 15428.00
712.2370, 14995.00
713.3910, 14837.00
714.5450, 14683.00
715.6980, 14430.00
716.8520, 14151.00
718.0050, 14054.00
719.1580, 13939.00
720.3110, 14008.00
721.4640, 13789.00
722.6170, 13654.00
723.7700, 13690.00
724.9220, 13573.00
726.0740, 13515.00
727.2260, 13388.00
728.3780, 13289.00
729.5300, 13261.00
730.6810, 13245.00
731.8330, 13232.00
732.9840, 13263.00
734.1350, 13169.00
735.2860, 13159.00
736.4370, 13165.00
737.5880, 13232.00
738.7380, 13069.00
739.8880, 12990.00
741.0390, 13037.00
742.1890, 13097.00
743.3380, 13011.00
744.4880, 12976.00
745.6380, 13042.00
746.7870, 13010.00
747.9360, 12852.00
749.0850, 13002.00
750.2340, 12785.00
751.3830, 12829.00
752.5310, 12911.00
753.6800, 12651.00
754.8280, 12871.00
755.9760, 12601.00
757.1240, 12741.00
758.2720, 12622.00
759.4190, 12571.00
760.5670, 12630.00
761.7140, 12567.00
762.8610, 12488.00
764.0080, 12464.00
765.1550, 12385.00
766.3020, 12428.00
767.4480, 12396.00
768.5950, 12400.00
769.7410, 12311.00
770.8870, 12309.00
772.0330, 12337.00
773.1780, 12302.00
774.3240, 12314.00
775.4690, 12288.00
776.6140, 12281.00
777.7590, 12324.00
778.9040, 12255.00
780.0490, 12259.00
781.1940, 12220.00
782.3380, 12145.00
783.4820, 12172.00
784.6260, 12162.00
785.7700, 12164.20
786.9140, 12183.00
788.0580, 12192.00
789.2010, 12277.00
790.3450, 12273.00
791.4880, 12172.00
792.6310, 12197.00
793.7730, 12287.00
794.9160, 12401.00
796.0590, 12245.00
797.2010, 12314.00
798.3430, 12277.00
799.4850, 12466.00
800.6270, 12266.00
801.7690, 12417.00
802.9100, 12357.00
804.0520, 12336.00
805.1930, 12428.00
806.3340, 12410.00
807.4750, 12409.00
808.6160, 12301.00
809.7560, 12512.00
810.8970, 12505.00
812.0370, 12402.00
813.1770, 12616.00
814.3170, 12558.00
815.4570, 12682.00
816.5960, 12559.00
817.7360, 12436.00
818.8750, 12591.00
820.0140, 12671.00
821.1530, 12546.00
822.2920, 12808.00
823.4310, 12720.00
824.5690, 12749.00
825.7070, 12825.00
826.8460, 12909.00
827.9840, 12848.00
829.1220, 13187.00
830.2590, 13096.00
831.3970, 13335.00
832.5340, 13192.00
833.6710, 13312.00
834.8080, 13411.00
835.9450, 13619.00
837.0820, 13770.54
838.2190, 14015.00
839.3550, 14162.00
840.4910, 14357.00
841.6270, 14571.00
842.7630, 14773.00
843.8990, 14882.00
845.0350, 15160.00
846.1700, 15114.00
847.3060, 15205.00
848.4410, 15364.00
849.5760, 15426.00
850.7100, 15205.00
851.8450, 15301.00
852.9800, 15366.00
854.1140, 15037.00
855.2480, 14955.00
856.3820, 14842.00
857.5160, 14970.00
858.6500, 14717.00
859.7830, 14718.00
860.9170, 14506.00
862.0500, 14520.00
863.1830, 14483.00
864.3160, 14380.00
865.4480, 14293.00
866.5810, 14234.00
867.7130, 14185.52
868.8460, 14246.00
869.9780, 14127.00
871.1100, 14183.00
872.2410, 14155.00
873.3730, 14081.83
874.5050, 14018.00
875.6360, 13972.00
876.7670, 13948.10
877.8980, 14059.00
879.0290, 13954.00
880.1590, 13937.00
881.2900, 13991.00
882.4200, 13864.00
883.5500, 14022.00
884.6800, 13650.00
885.8100, 13928.00
886.9400, 14062.00
888.0690, 13893.00
889.1990, 13997.00
890.3280, 14105.00
891.4570, 13902.00
892.5860, 14159.00
893.7140, 14241.00
894.8430, 14253.00
895.9710, 14250.00
897.1000, 14302.00
898.2280, 14226.00
899.3560, 14240.00
900.4830, 14218.00
901.6110, 14248.00
902.7380, 14248.00
903.8660, 14293.76
904.9930, 14396.00
906.1200, 14421.00
907.2460, 14429.00
908.3730, 14530.00
909.5000, 14485.00
910.6260, 14750.00
911.7520, 14766.00
912.8780, 14709.00
914.0040, 14861.00
915.1290, 14887.00
916.2550, 14979.00
917.3800, 14999.00
918.5050, 15154.00
919.6300, 15170.00
920.7550, 15524.00
921.8800, 15533.00
923.0040, 15545.00
924.1290, 15956.00
925.2530, 15992.00
926.3770, 16302.00
927.5010, 16445.00
928.6250, 16718.00
929.7480, 17046.00
930.8720, 17147.00
931.9950, 17185.00
933.1180, 17451.00
934.2410, 17792.00
935.3640, 17572.00
936.4860, 17781.00
937.6090, 17743.00
938.7310, 17811.00
939.8530, 17836.00
940.9750, 17878.00
942.0970, 17771.00
943.2180, 17789.43
944.3400, 17630.00
945.4610, 17713.00
946.5820, 17646.00
947.7030, 17587.00
948.8240, 17460.00
949.9450, 17509.00
951.0650, 17378.00
952.1860, 17401.00
953.3060, 17303.00
954.4260, 16919.00
955.5460, 16921.00
956.6650, 16777.00
957.7850, 16487.00
958.9040, 16358.00
960.0230, 16261.00
961.1420, 16113.00
962.2610, 15935.00
963.3800, 15728.00
964.4990, 15658.00
965.6170, 15703.00
966.7350, 15543.00
967.8530, 15514.00
968.9710, 15557.00
970.0890, 15490.00
971.2070, 15444.00
972.3240, 15695.00
973.4410, 15553.00
974.5580, 15989.00
975.6750, 15708.00
976.7920, 16049.00
977.9090, 16105.00
979.0250, 16359.00
980.1410, 16654.00
981.2580, 17040.00
982.3740, 17422.00
983.4890, 17770.00
984.6050, 18377.00
985.7200, 19018.00
986.8360, 19890.00
987.9510, 20907.00
989.0660, 21955.06
990.1810, 23197.12
991.2950, 24567.00
992.4100, 26106.00
993.5240, 27890.00
994.6390, 29914.00
995.7530, 32177.00
996.8660, 34472.00
997.9800, 37145.00
999.0940, 39853.00
1000.207, 42550.00
1001.320, 45686.00
1002.433, 47982.00
1003.546, 50860.00
1004.659, 53904.00
1005.772, 56257.00
1006.884, 58233.00
1007.996, 59477.00
1009.108, 60216.00
1010.220, 60007.00
1011.332, 58775.00
1012.444, 56636.00
1013.555, 54538.00
1014.666, 50949.00
1015.777, 47993.00
1016.888, 44564.00
1017.999, 42041.00
1019.110, 39478.00
1020.220, 36902.00
1021.331, 35273.00
1022.441, 33596.00
1023.551, 32139.00
1024.661, 31232.00
1025.770, 30343.00
1026.880, 29505.00
1027.989, 28707.00
1029.098, 28077.00
1030.207, 28006.00
1031.316, 27440.00
1032.425, 26922.00
1033.533, 26633.00
1034.642, 25715.00
1035.750, 25479.00
1036.858, 24561.00
1037.966, 23785.00
1039.073, 23125.00
1040.181, 22335.60
1041.288, 21793.00
1042.396, 21051.00
1043.503, 20488.00
1044.610, 20108.00
1045.716, 19429.00
1046.823, 19102.00
1047.929, 18587.00
1049.036, 18084.00
1050.142, 17829.00
1051.248, 17777.00
1052.353, 17304.00
1053.459, 17251.00
1054.564, 16987.00
1055.670, 16768.00
1056.775, 16595.00
1057.880, 16368.00
1058.985, 16228.49
1060.089, 16048.00
1061.194, 15962.00
1062.298, 15854.00
1063.402, 15752.00
1064.506, 15576.00
1065.610, 15524.07
1066.713, 15624.00
1067.817, 15380.00
1068.920, 15328.00
1070.023, 15253.00
1071.126, 15115.00
1072.229, 15178.00
1073.332, 15160.00
1074.435, 15057.00
1075.537, 15061.00
1076.639, 14921.00
1077.741, 14994.00
1078.843, 15014.00
1079.945, 14948.00
1081.046, 15009.00
1082.148, 14924.00
1083.249, 14832.00
1084.350, 14861.00
1085.451, 15004.00
1086.551, 14828.00
1087.652, 14818.00
1088.752, 15010.00
1089.853, 14779.00
1090.953, 15046.00
1092.053, 14929.00
1093.152, 14794.00
1094.252, 14875.00
1095.351, 14921.00
1096.451, 14979.00
1097.550, 14993.45
1098.649, 14989.51
1099.748, 14972.00
1100.846, 14958.00
1101.945, 14966.95
1103.043, 14901.00
1104.141, 14989.00
1105.239, 14982.00
1106.337, 15000.00
1107.434, 14884.00
1108.532, 15056.00
1109.629, 15142.00
1110.726, 14931.00
1111.823, 15010.00
1112.920, 15103.00
1114.017, 14972.00
1115.113, 15009.00
1116.210, 15116.00
1117.306, 15106.00
1118.402, 14992.00
1119.498, 15081.00
1120.593, 15145.00
1121.689, 15261.00
1122.784, 15054.00
1123.879, 15127.00
1124.974, 15110.00
1126.069, 15114.00
1127.164, 15032.00
1128.259, 15003.00
1129.353, 15019.00
1130.447, 15087.00
1131.541, 15046.00
1132.635, 15189.00
1133.729, 15163.00
1134.822, 15088.00
1135.916, 15047.00
1137.009, 15175.00
1138.102, 15110.00
1139.195, 15197.00
1140.288, 15156.00
1141.380, 15108.00
1142.473, 15173.00
1143.565, 15185.00
1144.657, 15062.00
1145.749, 15076.00
1146.841, 15138.00
1147.932, 15142.00
1149.024, 15083.00
1150.115, 15078.00
1151.206, 15086.92
1152.297, 15171.00
1153.388, 15108.00
1154.479, 15231.00
1155.569, 15225.00
1156.659, 15036.00
1157.750, 15090.00
1158.839, 15207.00
1159.929, 15281.00
1161.019, 15314.00
1162.108, 15250.00
1163.198, 15182.00
1164.287, 15324.00
1165.376, 15284.00
1166.465, 15445.00
1167.553, 15433.00
1168.642, 15346.00
1169.730, 15357.00
1170.818, 15369.02
1171.906, 15292.00
1172.994, 15406.00
1174.082, 15403.00
1175.170, 15344.00
1176.257, 15367.00
1177.344, 15341.00
1178.431, 15218.00
1179.518, 15278.00
1180.605, 15319.00
1181.691, 15397.00
1182.778, 15494.00
1183.864, 15364.00
1184.950, 15575.00
1186.036, 15342.00
1187.122, 15474.00
1188.207, 15491.00
1189.292, 15596.00
1190.378, 15576.00
1191.463, 15394.00
1192.548, 15445.00
1193.632, 15524.00
1194.717, 15304.00
1195.801, 15461.00
1196.886, 15417.00
1197.970, 15468.00
1199.054, 15485.00
1200.137, 15499.00
1201.221, 15508.57
1202.305, 15624.00
1203.388, 15553.00
1204.471, 15506.00
1205.554, 15636.00
1206.637, 15612.00
1207.719, 15586.00
1208.802, 15582.00
1209.884, 15576.00
1210.966, 15717.00
1212.048, 15845.00
1213.130, 15674.00
1214.212, 15778.00
1215.293, 15751.63
1216.374, 15688.00
1217.456, 15810.00
1218.536, 15772.00
1219.617, 15949.00
1220.698, 15708.00
1221.778, 15767.00
1222.859, 15930.00
1223.939, 15768.00
1225.019, 15699.00
1226.099, 15805.00
1227.178, 15892.00
1228.258, 16043.00
1229.337, 15880.00
1230.417, 15882.00
1231.496, 16056.00
1232.574, 15928.00
1233.653, 16183.00
1234.732, 15966.00
1235.810, 15744.00
1236.888, 16041.00
1237.966, 15954.25
1239.044, 16081.00
1240.122, 16048.00
1241.199, 16187.00
1242.277, 15919.00
1243.354, 16114.00
1244.431, 16032.00
1245.508, 16180.00
1246.585, 16405.00
1247.661, 16102.00
1248.738, 16257.00
1249.814, 16203.00
1250.890, 16020.00
1251.966, 16306.00
1253.042, 16297.00
1254.117, 16268.00
1255.193, 16110.00
1256.268, 16286.00
1257.343, 16223.00
1258.418, 16474.00
1259.493, 16254.00
1260.567, 16265.00
1261.642, 16322.00
1262.716, 16473.00
1263.790, 16405.00
1264.864, 16463.00
1265.938, 16526.00
1267.011, 16512.00
1268.085, 16492.00
1269.158, 16562.00
1270.231, 16525.00
1271.304, 16606.00
1272.377, 16462.00
1273.450, 16668.00
1274.522, 16487.00
1275.594, 16710.00
1276.666, 16637.00
1277.738, 16551.00
1278.810, 16529.00
1279.882, 16780.00
1280.953, 16702.00
1282.025, 16798.00
1283.096, 16625.00
1284.167, 16622.00
1285.238, 16808.00
1286.308, 16832.00
1287.379, 16799.00
1288.449, 16771.00
1289.519, 16799.00
1290.589, 16661.00
1291.659, 16760.00
1292.729, 16989.00
1293.798, 16852.00
1294.868, 16685.00
1295.937, 16886.00
1297.006, 16694.00
1298.075, 16813.00
1299.143, 16856.00
1300.212, 16745.00
1301.280, 16919.00
1302.348, 16901.00
1303.416, 17025.00
1304.484, 16953.00
1305.552, 16975.00
1306.620, 16985.00
1307.687, 17158.00
1308.754, 17068.00
1309.821, 17235.00
1310.888, 17054.00
1311.955, 17248.00
1313.021, 17184.00
1314.088, 17193.00
1315.154, 17037.00
1316.220, 17060.00
1317.286, 17210.00
1318.352, 17179.00
1319.417, 17276.00
1320.483, 17206.00
1321.548, 17207.00
1322.613, 17310.00
1323.678, 17213.00
1324.743, 17302.00
1325.807, 17415.00
1326.872, 17235.00
1327.936, 17258.00
1329.000, 17344.00
1330.064, 17364.00
1331.128, 17407.84
1332.191, 17417.12
1333.255, 17467.00
1334.318, 17407.00
1335.381, 17405.00
1336.444, 17401.00
1337.507, 17312.00
1338.569, 17315.68
1339.632, 17335.65
1340.694, 17266.00
1341.756, 17424.00
1342.818, 17426.00
1343.880, 17486.00
1344.941, 17452.00
1346.003, 17433.00
1347.064, 17433.00
1348.125, 17512.00
1349.186, 17676.00
1350.247, 17781.00
1351.308, 17773.00
1352.368, 17635.00
1353.428, 17618.00
1354.489, 17589.00
1355.549, 17703.00
1356.608, 17642.00
1357.668, 17640.00
1358.727, 17477.00
1359.787, 17815.00
1360.846, 17664.00
1361.905, 17746.00
1362.964, 17669.00
1364.022, 17863.00
1365.081, 17630.00
1366.139, 17953.00
1367.197, 17906.00
1368.255, 17896.00
1369.313, 17755.00
1370.371, 17583.00
1371.428, 17953.00
1372.486, 17901.00
1373.543, 17985.00
1374.600, 17784.00
1375.657, 17946.00
1376.713, 17687.00
1377.770, 17829.00
1378.826, 17952.00
1379.882, 18051.00
1380.938, 17917.00
1381.994, 18049.00
1383.050, 18103.00
1384.106, 17909.00
1385.161, 17965.00
1386.216, 18108.00
1387.271, 18043.00
1388.326, 18083.00
1389.381, 18117.00
1390.435, 17953.00
1391.490, 18272.00
1392.544, 18107.00
1393.598, 18255.00
1394.652, 18066.00
1395.705, 18149.00
1396.759, 18283.00
1397.812, 18087.00
1398.866, 18019.00
1399.919, 18309.00
1400.972, 18230.00
1402.024, 18136.00
1403.077, 18364.00
1404.129, 18201.00
1405.181, 18353.00
1406.233, 18391.00
1407.285, 18148.00
1408.337, 18238.00
1409.389, 18388.00
1410.440, 18401.00
1411.491, 18357.00
1412.542, 18294.00
1413.593, 18406.00
1414.644, 18367.00
1415.695, 18417.00
1416.745, 18464.00
1417.795, 18311.00
1418.845, 18422.00
1419.895, 18428.00
1420.945, 18357.00
1421.995, 18423.00
1423.044, 18611.00
1424.093, 18442.00
1425.142, 18522.00
1426.191, 18349.00
1427.240, 18484.00
1428.289, 18526.00
1429.337, 18466.00
1430.385, 18462.00
1431.433, 18518.00
1432.481, 18756.00
1433.529, 18621.00
1434.577, 18663.00
1435.624, 18687.00
1436.672, 18587.00
1437.719, 18777.00
1438.766, 18863.00
1439.812, 18722.00
1440.859, 18778.00
1441.905, 18940.00
1442.952, 18926.00
1443.998, 18823.00
1445.044, 18923.00
1446.090, 18911.00
1447.135, 18898.00
1448.181, 18851.00
1449.226, 19002.00
1450.271, 18780.00
1451.316, 19018.00
1452.361, 18962.00
1453.405, 19024.00
1454.450, 18981.00
1455.494, 19167.00
1456.538, 19026.00
1457.582, 19095.00
1458.626, 19049.00
1459.670, 18988.00
1460.713, 19031.00
1461.757, 19093.00
1462.800, 18965.00
1463.843, 19053.00
1464.886, 19138.00
1465.928, 19032.00
1466.971, 19189.00
1468.013, 19271.00
1469.055, 19087.00
1470.097, 19110.00
1471.139, 19206.00
1472.181, 19218.00
1473.222, 19280.00
1474.263, 19185.00
1475.305, 19187.00
1476.346, 19301.00
1477.386, 19352.00
1478.427, 19221.00
1479.468, 19321.00
1480.508, 19294.00
1481.548, 19192.00
1482.588, 19212.00
1483.628, 19186.00
1484.668, 19317.00
1485.707, 19330.00
1486.747, 19305.00
1487.786, 19280.00
1488.825, 19380.00
1489.864, 19574.00
1490.902, 19265.00
1491.941, 19432.00
1492.979, 19357.00
1494.017, 19267.00
1495.055, 19441.00
1496.093, 19569.00
1497.131, 19478.00
1498.168, 19607.00
1499.206, 19488.00
1500.243, 19560.00
1501.280, 19416.00
1502.317, 19379.00
1503.354, 19616.00
1504.390, 19520.00
1505.426, 19671.00
1506.463, 19731.00
1507.499, 19560.00
1508.535, 19815.00
1509.570, 19631.00
1510.606, 19439.00
1511.641, 19587.00
1512.676, 19452.00
1513.711, 19837.00
1514.746, 19501.00
1515.781, 19823.00
1516.816, 19726.00
1517.850, 19765.00
1518.884, 19755.00
1519.918, 19743.00
1520.952, 19854.00
1521.986, 20005.00
1523.019, 19718.00
1524.053, 19596.00
1525.086, 19719.00
1526.119, 19808.00
1527.152, 19910.00
1528.185, 19852.00
1529.217, 19826.00
1530.250, 19896.00
1531.282, 19949.00
1532.314, 19872.00
1533.346, 20018.00
1534.377, 19999.00
1535.409, 20022.00
1536.440, 19871.00
1537.472, 19816.00
1538.503, 19852.00
1539.534, 20028.00
1540.564, 19931.00
1541.595, 20059.00
1542.625, 19893.00
1543.656, 19992.00
1544.686, 20199.00
1545.716, 19994.00
1546.745, 20213.00
1547.775, 19926.00
1548.804, 20094.00
1549.834, 20096.00
1550.863, 20038.00
1551.892, 20264.00
1552.920, 20217.00
1553.949, 20186.00
1554.977, 20313.00
1556.006, 20109.00
1557.034, 20228.00
1558.062, 20185.00
1559.089, 20104.00
1560.117, 20196.00
1561.144, 20307.00
1562.172, 20273.00
1563.199, 20528.00
1564.226, 20429.00
1565.252, 20299.00
1566.279, 20163.00
1567.305, 20469.00
1568.332, 20362.00
1569.358, 20382.00
1570.384, 20452.00
1571.409, 20477.00
1572.435, 20557.00
##END=



