##NAMES=Enstatite
##RRUFFID=R050644
##IDEAL CHEMISTRY=MgSiO_3_
##LOCALITY=Morogoro, Tanzania
##OWNER=RRUFF
##SOURCE=Jibamitra Ganguly
##DESCRIPTION=Light brown crystal fragment
##STATUS=The identification of this mineral has been confirmed by X-ray diffraction and chemical analysis
##URL=rruff.info/R050644
##MEASURED CHEMISTRY=(Mg_0.90_Fe_0.10_)SiO_3_
##PIN_ID=L01052
##ORIENTATION=Laser parallel to b* (0 1 0). Fiducial mark perpendicular to laser is parallel to c [0 0 1]
113.2080, 4777.000
114.4400, 4817.000
115.6710, 4815.000
116.9030, 4814.000
118.1340, 4846.957
119.3650, 4818.000
120.5960, 4879.000
121.8270, 4892.000
123.0580, 4874.000
124.2880, 5005.000
125.5190, 4994.000
126.7490, 4985.000
127.9790, 5001.000
129.2090, 5038.000
130.4390, 5053.000
131.6680, 5025.000
132.8980, 5108.000
134.1270, 5234.000
135.3560, 5287.000
136.5850, 5279.000
137.8140, 5331.000
139.0430, 5297.000
140.2710, 5271.000
141.5000, 5213.000
142.7280, 5213.724
143.9560, 5181.000
145.1840, 5212.000
146.4120, 5300.000
147.6390, 5325.000
148.8670, 5341.573
150.0940, 5323.000
151.3210, 5337.000
152.5490, 5244.000
153.7750, 5210.000
155.0020, 5210.000
156.2290, 5183.000
157.4550, 5193.000
158.6810, 5108.000
159.9080, 5100.000
161.1340, 5075.000
162.3590, 5063.639
163.5850, 5129.000
164.8110, 5100.000
166.0360, 5125.000
167.2610, 5190.000
168.4860, 5130.000
169.7110, 5179.000
170.9360, 5112.000
172.1610, 5148.000
173.3850, 5157.000
174.6100, 5073.000
175.8340, 5053.000
177.0580, 5170.000
178.2820, 5141.000
179.5050, 5139.000
180.7290, 5235.000
181.9520, 5247.000
183.1760, 5272.000
184.3990, 5307.000
185.6220, 5337.000
186.8450, 5367.290
188.0670, 5414.505
189.2900, 5439.000
190.5120, 5519.000
191.7340, 5579.000
192.9560, 5651.150
194.1780, 5773.000
195.4000, 5789.000
196.6220, 5766.000
197.8430, 5841.000
199.0640, 5927.000
200.2860, 5997.000
201.5070, 6023.340
202.7270, 5929.000
203.9480, 6005.000
205.1690, 6001.000
206.3890, 5880.000
207.6090, 5968.000
208.8290, 5952.000
210.0490, 5963.000
211.2690, 5842.000
212.4890, 5904.000
213.7080, 5902.000
214.9280, 5897.000
216.1470, 5931.000
217.3660, 6000.000
218.5850, 6046.000
219.8030, 6296.000
221.0220, 6305.000
222.2400, 6531.000
223.4590, 6751.000
224.6770, 7199.000
225.8950, 7713.000
227.1120, 8091.000
228.3300, 8309.000
229.5480, 8748.000
230.7650, 9158.000
231.9820, 9328.000
233.1990, 9416.000
234.4160, 9383.000
235.6330, 9352.000
236.8490, 9685.000
238.0660, 9784.000
239.2820, 9415.000
240.4980, 8716.000
241.7140, 7856.000
242.9300, 7183.000
244.1460, 6778.000
245.3610, 6497.000
246.5770, 6298.000
247.7920, 6278.000
249.0070, 6218.000
250.2220, 6284.000
251.4370, 6180.000
252.6510, 6383.000
253.8660, 6321.000
255.0800, 6365.000
256.2940, 6492.000
257.5080, 6545.000
258.7220, 6553.000
259.9360, 6529.000
261.1490, 6518.000
262.3630, 6558.000
263.5760, 6626.000
264.7890, 6635.000
266.0020, 6737.000
267.2150, 6724.000
268.4270, 6867.000
269.6400, 6900.735
270.8520, 6964.000
272.0640, 7022.000
273.2760, 7005.000
274.4880, 7000.269
275.7000, 7065.000
276.9120, 6899.000
278.1230, 6784.000
279.3340, 6691.000
280.5450, 6406.000
281.7560, 6245.000
282.9670, 6125.000
284.1780, 6045.000
285.3880, 6057.000
286.5980, 6211.000
287.8090, 6262.000
289.0190, 6319.000
290.2290, 6383.000
291.4380, 6563.000
292.6480, 6505.000
293.8570, 6696.000
295.0670, 6678.000
296.2760, 6819.000
297.4850, 6765.000
298.6930, 6791.000
299.9020, 6907.000
301.1110, 6881.000
302.3190, 6774.000
303.5270, 6692.000
304.7350, 6654.000
305.9430, 6617.000
307.1510, 6683.000
308.3580, 6738.000
309.5660, 6952.000
310.7730, 7098.000
311.9800, 7252.000
313.1870, 7475.000
314.3940, 7861.000
315.6010, 7996.000
316.8070, 8329.000
318.0130, 8500.000
319.2200, 8726.000
320.4260, 8995.898
321.6310, 9245.000
322.8370, 9531.000
324.0430, 9709.000
325.2480, 10051.00
326.4540, 10228.00
327.6590, 10984.00
328.8640, 11507.00
330.0680, 12303.00
331.2730, 13319.00
332.4780, 13891.00
333.6820, 14602.00
334.8860, 15106.00
336.0900, 15715.00
337.2940, 16011.00
338.4980, 16214.00
339.7010, 16178.00
340.9050, 16298.00
342.1080, 15972.00
343.3110, 15301.00
344.5140, 14248.00
345.7170, 13072.00
346.9200, 11913.00
348.1220, 10796.00
349.3240, 9919.000
350.5270, 9190.000
351.7290, 8724.000
352.9310, 8282.000
354.1320, 7997.000
355.3340, 7693.522
356.5350, 7593.000
357.7370, 7324.000
358.9380, 7205.000
360.1390, 7179.000
361.3400, 7085.000
362.5400, 7005.000
363.7410, 6879.000
364.9410, 6822.000
366.1410, 6862.000
367.3410, 6904.000
368.5410, 6824.000
369.7410, 6844.000
370.9400, 6978.000
372.1400, 6984.000
373.3390, 6993.000
374.5380, 7131.000
375.7370, 7223.000
376.9360, 7243.000
378.1350, 7302.324
379.3330, 7228.000
380.5310, 7286.000
381.7300, 7201.000
382.9280, 7093.000
384.1260, 7088.000
385.3230, 6938.000
386.5210, 6902.623
387.7180, 6934.000
388.9160, 6810.000
390.1130, 6798.000
391.3100, 6808.000
392.5060, 6685.000
393.7030, 6667.000
394.9000, 6812.000
396.0960, 6741.000
397.2920, 6785.000
398.4880, 6707.000
399.6840, 6702.000
400.8800, 6660.000
402.0750, 6643.000
403.2710, 6701.000
404.4660, 6597.000
405.6610, 6685.000
406.8560, 6590.000
408.0510, 6588.000
409.2450, 6540.000
410.4400, 6565.000
411.6340, 6639.000
412.8280, 6570.000
414.0220, 6599.000
415.2160, 6578.000
416.4100, 6528.000
417.6030, 6553.000
418.7970, 6542.000
419.9900, 6478.000
421.1830, 6433.000
422.3760, 6486.000
423.5690, 6488.000
424.7610, 6420.000
425.9540, 6374.000
427.1460, 6336.000
428.3380, 6429.000
429.5300, 6312.000
430.7220, 6240.000
431.9140, 6324.000
433.1050, 6433.000
434.2970, 6482.000
435.4880, 6431.000
436.6790, 6353.000
437.8700, 6414.000
439.0610, 6538.000
440.2510, 6406.000
441.4420, 6504.000
442.6320, 6455.000
443.8220, 6507.000
445.0120, 6486.000
446.2020, 6568.000
447.3910, 6601.000
448.5810, 6556.000
449.7700, 6660.000
450.9600, 6629.000
452.1490, 6683.000
453.3370, 6709.000
454.5260, 6626.000
455.7150, 6771.000
456.9030, 6852.000
458.0910, 6714.000
459.2800, 6757.000
460.4670, 6814.000
461.6550, 6891.000
462.8430, 6779.000
464.0300, 6941.000
465.2180, 6830.000
466.4050, 6773.000
467.5920, 6971.000
468.7790, 6996.000
469.9650, 6911.000
471.1520, 6932.000
472.3380, 6828.000
473.5250, 6809.000
474.7110, 6755.000
475.8970, 6854.000
477.0820, 6712.000
478.2680, 6779.000
479.4540, 6685.000
480.6390, 6756.000
481.8240, 6727.000
483.0090, 6598.000
484.1940, 6646.000
485.3780, 6544.000
486.5630, 6735.000
487.7470, 6605.000
488.9320, 6694.000
490.1160, 6607.000
491.3000, 6696.000
492.4830, 6604.000
493.6670, 6575.000
494.8500, 6692.000
496.0340, 6635.000
497.2170, 6660.000
498.4000, 6673.000
499.5820, 6716.000
500.7650, 6732.000
501.9480, 6726.000
503.1300, 6748.652
504.3120, 6779.000
505.4940, 6756.000
506.6760, 6772.000
507.8580, 6765.000
509.0390, 6840.000
510.2210, 6893.000
511.4020, 6871.000
512.5830, 6998.000
513.7640, 6930.000
514.9450, 6962.000
516.1250, 6954.000
517.3060, 7054.000
518.4860, 7079.000
519.6660, 7136.000
520.8460, 7099.000
522.0260, 7139.171
523.2060, 7190.418
524.3850, 7210.000
525.5650, 7278.000
526.7440, 7339.352
527.9230, 7392.000
529.1020, 7504.000
530.2810, 7614.000
531.4590, 7735.000
532.6380, 7826.000
533.8160, 7904.000
534.9940, 7963.808
536.1720, 7934.000
537.3500, 8039.000
538.5270, 8047.000
539.7050, 8067.000
540.8820, 7925.000
542.0590, 8026.000
543.2360, 7802.000
544.4130, 7661.000
545.5900, 7609.000
546.7660, 7556.000
547.9430, 7482.000
549.1190, 7491.000
550.2950, 7472.000
551.4710, 7464.000
552.6470, 7403.000
553.8220, 7407.000
554.9980, 7296.000
556.1730, 7355.000
557.3480, 7384.000
558.5230, 7311.000
559.6980, 7253.000
560.8730, 7363.000
562.0470, 7361.000
563.2220, 7320.000
564.3960, 7379.766
565.5700, 7372.530
566.7440, 7426.000
567.9170, 7402.000
569.0910, 7453.000
570.2640, 7442.000
571.4380, 7577.000
572.6110, 7393.000
573.7840, 7512.000
574.9570, 7509.000
576.1290, 7414.000
577.3020, 7440.000
578.4740, 7449.000
579.6460, 7472.000
580.8180, 7495.148
581.9900, 7492.000
583.1620, 7557.000
584.3330, 7491.000
585.5040, 7542.000
586.6760, 7470.000
587.8470, 7453.000
589.0180, 7514.000
590.1880, 7431.000
591.3590, 7571.000
592.5290, 7502.000
593.7000, 7489.000
594.8700, 7515.000
596.0400, 7476.000
597.2090, 7588.000
598.3790, 7672.000
599.5490, 7551.000
600.7180, 7466.000
601.8870, 7561.000
603.0560, 7526.000
604.2250, 7544.000
605.3940, 7641.000
606.5620, 7568.000
607.7300, 7538.000
608.8990, 7538.000
610.0670, 7643.000
611.2350, 7601.000
612.4020, 7695.000
613.5700, 7786.000
614.7370, 7777.000
615.9050, 7826.000
617.0720, 7806.000
618.2390, 7989.000
619.4060, 7953.000
620.5720, 8094.000
621.7390, 8155.000
622.9050, 8245.000
624.0710, 8290.000
625.2370, 8315.000
626.4030, 8447.000
627.5690, 8474.000
628.7340, 8427.000
629.9000, 8455.000
631.0650, 8363.000
632.2300, 8364.000
633.3950, 8507.000
634.5600, 8612.000
635.7240, 8716.000
636.8890, 8775.000
638.0530, 8910.000
639.2170, 8902.000
640.3810, 9205.000
641.5450, 9481.000
642.7080, 9527.000
643.8720, 10004.00
645.0350, 10332.00
646.1980, 10794.00
647.3610, 11353.00
648.5240, 11969.00
649.6870, 12880.00
650.8490, 13700.00
652.0120, 14977.00
653.1740, 16213.00
654.3360, 17538.00
655.4980, 18760.00
656.6600, 19948.00
657.8210, 21028.00
658.9830, 21819.00
660.1440, 22606.00
661.3050, 22839.00
662.4660, 22670.00
663.6270, 22383.00
664.7870, 21641.00
665.9480, 20638.00
667.1080, 19795.00
668.2680, 18961.00
669.4280, 18603.00
670.5880, 18846.00
671.7480, 19309.00
672.9070, 20337.00
674.0670, 21533.00
675.2260, 23048.00
676.3850, 24919.00
677.5440, 26751.00
678.7030, 28216.00
679.8610, 29644.00
681.0200, 30130.00
682.1780, 30705.00
683.3360, 30539.00
684.4940, 29995.00
685.6520, 28233.00
686.8090, 26196.00
687.9670, 23743.00
689.1240, 21469.00
690.2810, 18884.00
691.4380, 16691.00
692.5950, 15051.00
693.7520, 13672.00
694.9080, 12653.00
696.0650, 11586.00
697.2210, 11132.00
698.3770, 10580.00
699.5330, 10192.00
700.6880, 9822.000
701.8440, 9544.000
702.9990, 9361.000
704.1550, 9319.000
705.3100, 9091.000
706.4650, 9069.000
707.6190, 8715.000
708.7740, 8658.000
709.9290, 8536.000
711.0830, 8526.000
712.2370, 8388.000
713.3910, 8456.000
714.5450, 8441.000
715.6980, 8266.000
716.8520, 8183.000
718.0050, 8357.000
719.1580, 8175.000
720.3110, 8203.000
721.4640, 8240.000
722.6170, 8141.000
723.7700, 8179.000
724.9220, 8091.000
726.0740, 8153.000
727.2260, 7982.000
728.3780, 8101.000
729.5300, 8218.000
730.6810, 7952.000
731.8330, 8036.000
732.9840, 8082.000
734.1350, 8103.000
735.2860, 8029.000
736.4370, 8193.000
737.5880, 8045.000
738.7380, 8074.000
739.8880, 7914.000
741.0390, 7988.000
742.1890, 7994.000
743.3380, 7995.000
744.4880, 8029.000
745.6380, 7903.000
746.7870, 8032.000
747.9360, 8122.000
749.0850, 7992.000
750.2340, 8049.000
751.3830, 8038.000
752.5310, 7943.000
753.6800, 8041.000
754.8280, 8015.000
755.9760, 7979.000
757.1240, 7969.000
758.2720, 7977.000
759.4190, 7945.479
760.5670, 8040.000
761.7140, 7930.000
762.8610, 7969.000
764.0080, 8014.000
765.1550, 8104.000
766.3020, 8021.000
767.4480, 8118.000
768.5950, 7995.000
769.7410, 7946.000
770.8870, 8074.000
772.0330, 8103.000
773.1780, 8008.000
774.3240, 8064.000
775.4690, 8067.000
776.6140, 8049.000
777.7590, 7938.000
778.9040, 8017.000
780.0490, 8013.000
781.1940, 7997.000
782.3380, 8075.000
783.4820, 8094.000
784.6260, 8087.000
785.7700, 8141.523
786.9140, 8081.000
788.0580, 8214.000
789.2010, 8136.000
790.3450, 8191.000
791.4880, 8145.000
792.6310, 8084.000
793.7730, 8148.000
794.9160, 8124.000
796.0590, 8130.000
797.2010, 8058.000
798.3430, 8137.000
799.4850, 8108.000
800.6270, 8120.000
801.7690, 8198.000
802.9100, 8218.000
804.0520, 8191.000
805.1930, 8154.000
806.3340, 8131.000
807.4750, 8188.000
808.6160, 8204.000
809.7560, 8193.522
810.8970, 8075.000
812.0370, 8203.000
813.1770, 8169.000
814.3170, 8224.000
815.4570, 8279.000
816.5960, 8298.000
817.7360, 8265.000
818.8750, 8256.000
820.0140, 8186.000
821.1530, 8336.000
822.2920, 8348.000
823.4310, 8328.000
824.5690, 8277.000
825.7070, 8298.000
826.8460, 8376.000
827.9840, 8419.000
829.1220, 8278.000
830.2590, 8397.000
831.3970, 8316.000
832.5340, 8363.000
833.6710, 8379.000
834.8080, 8417.000
835.9450, 8425.409
837.0820, 8441.000
838.2190, 8449.000
839.3550, 8445.000
840.4910, 8484.000
841.6270, 8492.000
842.7630, 8601.000
843.8990, 8604.000
845.0350, 8591.000
846.1700, 8694.000
847.3060, 8606.000
848.4410, 8747.000
849.5760, 8627.000
850.7100, 8636.000
851.8450, 8738.000
852.9800, 8881.000
854.1140, 8813.000
855.2480, 8906.000
856.3820, 8833.000
857.5160, 8888.000
858.6500, 8922.000
859.7830, 8987.000
860.9170, 9038.000
862.0500, 8971.000
863.1830, 8997.000
864.3160, 8958.000
865.4480, 8846.000
866.5810, 8741.000
867.7130, 8753.000
868.8460, 8729.000
869.9780, 8663.000
871.1100, 8777.000
872.2410, 8728.000
873.3730, 8715.000
874.5050, 8678.000
875.6360, 8664.000
876.7670, 8798.000
877.8980, 8771.000
879.0290, 8801.000
880.1590, 8792.000
881.2900, 8777.000
882.4200, 8718.000
883.5500, 8845.000
884.6800, 8745.000
885.8100, 8726.000
886.9400, 8622.000
888.0690, 8732.000
889.1990, 8723.112
890.3280, 8603.000
891.4570, 8806.000
892.5860, 8829.000
893.7140, 8814.000
894.8430, 8693.000
895.9710, 8956.000
897.1000, 8879.000
898.2280, 8980.000
899.3560, 8964.000
900.4830, 8825.000
901.6110, 8912.000
902.7380, 8918.000
903.8660, 9029.000
904.9930, 8905.000
906.1200, 8943.000
907.2460, 8925.000
908.3730, 8949.000
909.5000, 8936.747
910.6260, 9036.000
911.7520, 8908.000
912.8780, 9038.000
914.0040, 9037.000
915.1290, 9071.000
916.2550, 9097.000
917.3800, 9193.000
918.5050, 9218.381
919.6300, 9326.000
920.7550, 9329.000
921.8800, 9386.000
923.0040, 9471.000
924.1290, 9795.000
925.2530, 9855.000
926.3770, 10008.00
927.5010, 10321.00
928.6250, 10454.00
929.7480, 10689.00
930.8720, 10886.00
931.9950, 11034.00
933.1180, 11264.00
934.2410, 11456.00
935.3640, 11384.00
936.4860, 11647.00
937.6090, 11572.00
938.7310, 11381.00
939.8530, 11412.00
940.9750, 11095.00
942.0970, 10918.00
943.2180, 10707.00
944.3400, 10492.00
945.4610, 10382.00
946.5820, 10209.78
947.7030, 10048.00
948.8240, 9975.000
949.9450, 9875.000
951.0650, 9811.000
952.1860, 9743.000
953.3060, 9792.000
954.4260, 9741.000
955.5460, 9708.000
956.6650, 9692.000
957.7850, 9679.000
958.9040, 9683.000
960.0230, 9691.000
961.1420, 9620.000
962.2610, 9588.000
963.3800, 9583.000
964.4990, 9765.000
965.6170, 9711.000
966.7350, 9761.000
967.8530, 9681.000
968.9710, 9784.000
970.0890, 9759.000
971.2070, 9918.000
972.3240, 9927.000
973.4410, 9950.000
974.5580, 9880.000
975.6750, 10094.00
976.7920, 10079.00
977.9090, 10137.00
979.0250, 10227.00
980.1410, 10421.00
981.2580, 10520.00
982.3740, 10620.00
983.4890, 10901.00
984.6050, 11015.00
985.7200, 11248.00
986.8360, 11473.00
987.9510, 11943.00
989.0660, 12148.00
990.1810, 12645.00
991.2950, 13157.00
992.4100, 13941.00
993.5240, 14569.00
994.6390, 15770.00
995.7530, 17050.00
996.8660, 18463.00
997.9800, 20458.00
999.0940, 22763.00
1000.207, 25947.00
1001.320, 29744.00
1002.433, 34550.00
1003.546, 39856.00
1004.659, 44516.00
1005.772, 49340.00
1006.884, 53271.00
1007.996, 55315.00
1009.108, 56643.00
1010.220, 56039.00
1011.332, 53955.00
1012.444, 50265.00
1013.555, 45144.00
1014.666, 39519.00
1015.777, 34143.00
1016.888, 30513.00
1017.999, 27380.00
1019.110, 25170.00
1020.220, 23420.00
1021.331, 22246.00
1022.441, 21511.00
1023.551, 20882.00
1024.661, 20197.00
1025.770, 19759.00
1026.880, 19639.00
1027.989, 19074.00
1029.098, 18804.00
1030.207, 18259.00
1031.316, 17576.00
1032.425, 17298.00
1033.533, 16450.00
1034.642, 15737.00
1035.750, 15054.00
1036.858, 14307.00
1037.966, 14027.00
1039.073, 13404.00
1040.181, 12975.00
1041.288, 12502.00
1042.396, 11993.00
1043.503, 11779.00
1044.610, 11382.00
1045.716, 11189.00
1046.823, 11081.00
1047.929, 10877.00
1049.036, 10755.19
1050.142, 10608.00
1051.248, 10494.00
1052.353, 10410.00
1053.459, 10284.00
1054.564, 10167.00
1055.670, 10048.00
1056.775, 9990.000
1057.880, 9985.000
1058.985, 9964.000
1060.089, 9866.000
1061.194, 9736.000
1062.298, 9833.000
1063.402, 9679.000
1064.506, 9720.000
1065.610, 9688.000
1066.713, 9522.000
1067.817, 9513.000
1068.920, 9564.000
1070.023, 9570.000
1071.126, 9602.000
1072.229, 9584.000
1073.332, 9645.000
1074.435, 9583.000
1075.537, 9582.000
1076.639, 9483.000
1077.741, 9528.000
1078.843, 9512.000
1079.945, 9616.000
1081.046, 9637.000
1082.148, 9642.000
1083.249, 9629.000
1084.350, 9606.772
1085.451, 9543.000
1086.551, 9526.000
1087.652, 9477.000
1088.752, 9424.000
1089.853, 9390.000
1090.953, 9375.364
1092.053, 9528.000
1093.152, 9371.000
1094.252, 9498.000
1095.351, 9515.000
1096.451, 9495.000
1097.550, 9341.000
1098.649, 9434.000
1099.748, 9441.000
1100.846, 9498.000
1101.945, 9458.000
1103.043, 9376.000
1104.141, 9284.000
1105.239, 9385.000
1106.337, 9392.000
1107.434, 9440.000
1108.532, 9444.000
1109.629, 9452.000
1110.726, 9333.000
1111.823, 9507.000
1112.920, 9379.000
1114.017, 9396.000
1115.113, 9488.000
1116.210, 9522.000
1117.306, 9601.000
1118.402, 9401.000
1119.498, 9459.000
1120.593, 9625.000
1121.689, 9479.000
1122.784, 9569.000
1123.879, 9603.000
1124.974, 9519.000
1126.069, 9518.000
1127.164, 9409.000
1128.259, 9414.000
1129.353, 9326.000
1130.447, 9425.000
1131.541, 9483.000
1132.635, 9404.000
1133.729, 9427.000
1134.822, 9431.000
1135.916, 9446.000
1137.009, 9366.000
1138.102, 9379.000
1139.195, 9345.000
1140.288, 9365.000
1141.380, 9388.000
1142.473, 9321.000
1143.565, 9399.000
1144.657, 9341.000
1145.749, 9333.000
1146.841, 9351.000
1147.932, 9328.000
1149.024, 9385.000
1150.115, 9401.000
1151.206, 9411.983
1152.297, 9427.782
1153.388, 9445.000
1154.479, 9404.000
1155.569, 9415.000
1156.659, 9352.000
1157.750, 9320.000
1158.839, 9383.000
1159.929, 9363.000
1161.019, 9300.000
1162.108, 9359.000
1163.198, 9368.000
1164.287, 9388.000
1165.376, 9379.000
1166.465, 9278.000
1167.553, 9386.000
1168.642, 9260.000
1169.730, 9422.000
1170.818, 9415.000
1171.906, 9421.000
1172.994, 9453.000
1174.082, 9333.000
1175.170, 9454.000
1176.257, 9410.000
1177.344, 9342.000
1178.431, 9390.000
1179.518, 9298.000
1180.605, 9349.000
1181.691, 9317.000
1182.778, 9429.000
1183.864, 9441.000
1184.950, 9390.000
1186.036, 9378.000
1187.122, 9356.000
1188.207, 9379.000
1189.292, 9351.000
1190.378, 9453.000
1191.463, 9384.000
1192.548, 9369.000
1193.632, 9472.000
1194.717, 9447.000
1195.801, 9436.000
1196.886, 9462.000
1197.970, 9393.000
1199.054, 9560.000
1200.137, 9304.000
1201.221, 9434.000
1202.305, 9493.000
1203.388, 9408.000
1204.471, 9408.000
1205.554, 9408.000
1206.637, 9398.000
1207.719, 9333.000
1208.802, 9421.000
1209.884, 9410.000
1210.966, 9374.000
1212.048, 9518.000
1213.130, 9390.000
1214.212, 9357.000
1215.293, 9464.000
1216.374, 9481.000
1217.456, 9504.000
1218.536, 9436.000
1219.617, 9407.000
1220.698, 9514.000
1221.778, 9482.000
1222.859, 9482.000
1223.939, 9523.493
1225.019, 9426.000
1226.099, 9542.000
1227.178, 9463.000
1228.258, 9434.000
1229.337, 9477.000
1230.417, 9509.000
1231.496, 9518.493
1232.574, 9554.000
1233.653, 9540.000
1234.732, 9554.000
1235.810, 9502.000
1236.888, 9642.000
1237.966, 9640.000
1239.044, 9684.000
1240.122, 9609.000
1241.199, 9640.605
1242.277, 9586.000
1243.354, 9649.000
1244.431, 9574.000
1245.508, 9584.000
1246.585, 9656.000
1247.661, 9736.000
1248.738, 9462.000
1249.814, 9613.000
1250.890, 9581.000
1251.966, 9638.000
1253.042, 9640.000
1254.117, 9635.000
1255.193, 9685.000
1256.268, 9753.000
1257.343, 9585.000
1258.418, 9577.000
1259.493, 9623.000
1260.567, 9585.000
1261.642, 9684.000
1262.716, 9822.000
1263.790, 9842.000
1264.864, 9743.000
1265.938, 9718.000
1267.011, 9876.000
1268.085, 9899.000
1269.158, 9923.000
1270.231, 9873.000
1271.304, 9759.000
1272.377, 9861.000
1273.450, 9797.000
1274.522, 9833.000
1275.594, 9838.000
1276.666, 9781.000
1277.738, 9785.000
1278.810, 9885.000
1279.882, 9826.000
1280.953, 9867.000
1282.025, 9773.000
1283.096, 9881.000
1284.167, 9878.000
1285.238, 9786.000
1286.308, 9803.000
1287.379, 9981.000
1288.449, 9903.000
1289.519, 9783.000
1290.589, 9980.000
1291.659, 9857.000
1292.729, 9945.000
1293.798, 9886.000
1294.868, 9997.000
1295.937, 10003.00
1297.006, 9887.000
1298.075, 9903.000
1299.143, 9917.000
1300.212, 9948.000
1301.280, 10031.00
1302.348, 10036.00
1303.416, 10069.54
1304.484, 9932.000
1305.552, 10065.00
1306.620, 10027.00
1307.687, 9943.000
1308.754, 10079.00
1309.821, 10124.00
1310.888, 9985.000
1311.955, 9935.000
1313.021, 10070.00
1314.088, 9989.000
1315.154, 10032.00
1316.220, 10045.00
1317.286, 10060.00
1318.352, 10154.00
1319.417, 10126.00
1320.483, 10059.00
1321.548, 10131.00
1322.613, 10054.00
1323.678, 10035.00
1324.743, 10111.00
1325.807, 10132.00
1326.872, 10039.00
1327.936, 10082.00
1329.000, 10138.00
1330.064, 10089.00
1331.128, 10110.95
1332.191, 9998.000
1333.255, 10064.00
1334.318, 10008.00
1335.381, 9953.000
1336.444, 10077.00
1337.507, 9934.000
1338.569, 10069.00
1339.632, 10009.00
1340.694, 10022.00
1341.756, 10011.00
1342.818, 10039.00
1343.880, 10029.80
1344.941, 10037.94
1346.003, 10020.00
1347.064, 10006.00
1348.125, 9990.000
1349.186, 9883.000
1350.247, 10056.00
1351.308, 10149.00
1352.368, 10108.00
1353.428, 10064.00
1354.489, 9977.000
1355.549, 10127.00
1356.608, 10006.00
1357.668, 10065.00
1358.727, 10066.00
1359.787, 9992.000
1360.846, 10030.00
1361.905, 10029.12
1362.964, 10194.00
1364.022, 10086.00
1365.081, 10171.00
1366.139, 10220.00
1367.197, 10174.00
1368.255, 10274.00
1369.313, 10151.00
1370.371, 10283.00
1371.428, 10267.00
1372.486, 10201.00
1373.543, 10132.00
1374.600, 10240.00
1375.657, 10217.00
1376.713, 10199.00
1377.770, 10154.00
1378.826, 10159.00
1379.882, 10322.00
1380.938, 10265.00
1381.994, 10145.00
1383.050, 10245.00
1384.106, 10141.00
1385.161, 10322.00
1386.216, 10202.00
1387.271, 10293.00
1388.326, 10373.00
1389.381, 10266.00
1390.435, 10337.00
1391.490, 10210.00
1392.544, 10395.00
1393.598, 10297.00
1394.652, 10384.00
1395.705, 10340.00
1396.759, 10321.97
1397.812, 10200.00
1398.866, 10297.00
1399.919, 10271.00
1400.972, 10282.00
1402.024, 10129.00
1403.077, 10350.00
1404.129, 10367.00
1405.181, 10238.00
1406.233, 10336.00
1407.285, 10297.00
1408.337, 10225.00
1409.389, 10275.00
1410.440, 10329.00
1411.491, 10230.00
1412.542, 10390.00
1413.593, 10270.00
1414.644, 10283.00
1415.695, 10210.00
1416.745, 10273.00
1417.795, 10356.00
1418.845, 10290.00
1419.895, 10101.00
1420.945, 10368.00
1421.995, 10305.00
1423.044, 10504.00
1424.093, 10491.00
1425.142, 10348.00
1426.191, 10383.00
1427.240, 10360.00
1428.289, 10267.00
1429.337, 10362.00
1430.385, 10314.00
1431.433, 10404.00
1432.481, 10481.00
1433.529, 10591.00
1434.577, 10570.00
1435.624, 10611.00
1436.672, 10774.00
1437.719, 10706.00
1438.766, 10721.00
1439.812, 10826.00
1440.859, 10781.00
1441.905, 10764.00
1442.952, 10915.00
1443.998, 10800.00
1445.044, 10860.00
1446.090, 10881.00
1447.135, 10895.00
1448.181, 10913.00
1449.226, 10953.00
1450.271, 10939.00
1451.316, 10922.00
1452.361, 11005.00
1453.405, 10943.00
1454.450, 10986.13
1455.494, 10966.00
1456.538, 10994.00
1457.582, 11003.67
1458.626, 10979.44
1459.670, 11004.00
1460.713, 10951.00
1461.757, 10903.00
1462.800, 10918.00
1463.843, 10858.62
1464.886, 10841.00
1465.928, 10801.00
1466.971, 10845.00
1468.013, 10853.00
1469.055, 10837.85
1470.097, 10846.00
1471.139, 10833.00
1472.181, 10739.00
1473.222, 10753.00
1474.263, 10766.00
1475.305, 10815.00
1476.346, 10767.00
1477.386, 10732.00
1478.427, 10918.00
1479.468, 10862.00
1480.508, 10849.00
1481.548, 10818.00
1482.588, 10761.00
1483.628, 10790.00
1484.668, 10675.00
1485.707, 10634.00
1486.747, 10814.00
1487.786, 10873.00
1488.825, 10746.00
1489.864, 10764.00
1490.902, 10611.00
1491.941, 10711.00
1492.979, 10547.00
1494.017, 10701.00
1495.055, 10671.00
1496.093, 10707.00
1497.131, 10735.00
1498.168, 10661.00
1499.206, 10611.00
1500.243, 10744.00
1501.280, 10604.00
1502.317, 10612.00
1503.354, 10701.00
1504.390, 10651.00
1505.426, 10637.00
1506.463, 10707.00
1507.499, 10621.00
1508.535, 10714.00
1509.570, 10763.00
1510.606, 10688.00
1511.641, 10802.00
1512.676, 10712.00
1513.711, 10743.00
1514.746, 10868.00
1515.781, 10766.00
1516.816, 10711.00
1517.850, 10728.00
1518.884, 10733.00
1519.918, 10807.00
1520.952, 10798.65
1521.986, 10704.00
1523.019, 10816.00
1524.053, 10785.00
1525.086, 10778.00
1526.119, 10866.00
1527.152, 10882.00
1528.185, 10883.30
1529.217, 10866.00
1530.250, 10868.00
1531.282, 10834.00
1532.314, 10811.00
1533.346, 10817.00
1534.377, 10883.00
1535.409, 10870.00
1536.440, 10980.00
1537.472, 10758.00
1538.503, 10839.00
1539.534, 10810.00
1540.564, 10868.00
1541.595, 10960.00
1542.625, 10864.00
1543.656, 10906.00
1544.686, 11027.00
1545.716, 10847.00
1546.745, 10850.00
1547.775, 10917.00
1548.804, 10971.00
1549.834, 10934.00
1550.863, 11093.00
1551.892, 10986.00
1552.920, 10971.00
1553.949, 11027.00
1554.977, 10921.00
1556.006, 10937.00
1557.034, 10886.00
1558.062, 10874.00
1559.089, 10887.00
1560.117, 10843.00
1561.144, 10884.00
1562.172, 10905.00
1563.199, 10848.00
1564.226, 10936.00
1565.252, 10919.00
1566.279, 10963.00
1567.305, 10968.00
1568.332, 10983.00
1569.358, 11045.00
1570.384, 11077.00
##END=



