##NAMES=Enstatite
##RRUFFID=R060744
##IDEAL CHEMISTRY=MgSiO_3_
##LOCALITY=Orissa, India
##OWNER=RRUFF
##SOURCE=Herb Obodda
##DESCRIPTION=Brown transparent fragment
##STATUS=The identification of this mineral has been confirmed by X-ray diffraction and chemical analysis
##URL=rruff.info/R060744
##MEASURED CHEMISTRY=(Mg_0.85_Fe^2+^_0.13_Fe^3+^_0.01_Mn_0.01_)_Σ=1_(Si_0.99_Al_0.01_)_Σ=1_O_3_; trace amounts of Ca; Fe^2+^ and Fe^3+^ splitted by charge balance
##PIN_ID=L01127
##ORIENTATION=Laser parallel to -b* (0 -1 0). Fiducial mark perpendicular to laser is parallel to -c [0 0 -1]
113.2080, 11008.00
114.4400, 11423.00
115.6710, 11647.00
116.9030, 12110.00
118.1340, 12662.00
119.3650, 13454.00
120.5960, 14156.00
121.8270, 14952.00
123.0580, 16253.00
124.2880, 17599.00
125.5190, 19185.00
126.7490, 20334.00
127.9790, 20285.00
129.2090, 19731.00
130.4390, 18700.00
131.6680, 17701.00
132.8980, 16721.00
134.1270, 15958.00
135.3560, 15073.00
136.5850, 14845.00
137.8140, 14767.00
139.0430, 14826.00
140.2710, 14567.00
141.5000, 14638.00
142.7280, 14581.00
143.9560, 14291.00
145.1840, 14135.00
146.4120, 14027.00
147.6390, 13702.00
148.8670, 13320.00
150.0940, 13111.00
151.3210, 12836.00
152.5490, 12593.00
153.7750, 12337.00
155.0020, 12208.00
156.2290, 12144.00
157.4550, 11928.00
158.6810, 11992.00
159.9080, 11889.00
161.1340, 11828.00
162.3590, 11820.00
163.5850, 11798.00
164.8110, 11803.00
166.0360, 11840.00
167.2610, 11793.00
168.4860, 11786.00
169.7110, 11805.00
170.9360, 11696.00
172.1610, 11741.00
173.3850, 11889.00
174.6100, 11818.00
175.8340, 11808.00
177.0580, 11831.00
178.2820, 11794.09
179.5050, 11794.00
180.7290, 11827.00
181.9520, 11912.00
183.1760, 12040.00
184.3990, 12102.00
185.6220, 12145.00
186.8450, 12092.00
188.0670, 12149.00
189.2900, 12111.17
190.5120, 12088.00
191.7340, 12113.00
192.9560, 12070.00
194.1780, 12190.00
195.4000, 12255.00
196.6220, 12220.00
197.8430, 12325.00
199.0640, 12290.00
200.2860, 12326.00
201.5070, 12221.00
202.7270, 12386.00
203.9480, 12278.00
205.1690, 12282.00
206.3890, 12125.00
207.6090, 12155.00
208.8290, 12129.00
210.0490, 12132.00
211.2690, 12263.00
212.4890, 12293.00
213.7080, 12319.00
214.9280, 12435.00
216.1470, 12440.00
217.3660, 12550.85
218.5850, 12674.39
219.8030, 12792.00
221.0220, 12947.00
222.2400, 13164.13
223.4590, 13407.58
224.6770, 13649.00
225.8950, 14049.00
227.1120, 14413.00
228.3300, 14871.00
229.5480, 15432.00
230.7650, 15813.00
231.9820, 16174.00
233.1990, 16219.00
234.4160, 15861.00
235.6330, 15500.00
236.8490, 14877.00
238.0660, 14437.00
239.2820, 13956.00
240.4980, 13609.00
241.7140, 13245.00
242.9300, 13135.00
244.1460, 12898.00
245.3610, 12937.00
246.5770, 12788.00
247.7920, 12730.00
249.0070, 12794.00
250.2220, 12872.00
251.4370, 12914.00
252.6510, 12927.00
253.8660, 12959.00
255.0800, 12883.00
256.2940, 13019.00
257.5080, 13011.74
258.7220, 13168.00
259.9360, 13073.00
261.1490, 13072.00
262.3630, 13042.00
263.5760, 13032.00
264.7890, 13195.00
266.0020, 13347.00
267.2150, 13395.00
268.4270, 13369.00
269.6400, 13425.00
270.8520, 13386.79
272.0640, 13440.00
273.2760, 13340.00
274.4880, 13326.00
275.7000, 13350.00
276.9120, 13286.00
278.1230, 13293.52
279.3340, 13258.00
280.5450, 13286.00
281.7560, 13318.00
282.9670, 13364.00
284.1780, 13392.00
285.3880, 13542.00
286.5980, 13701.00
287.8090, 13735.00
289.0190, 13930.00
290.2290, 14075.00
291.4380, 14004.00
292.6480, 14072.00
293.8570, 14172.00
295.0670, 14297.00
296.2760, 14222.00
297.4850, 14272.00
298.6930, 14282.00
299.9020, 14256.00
301.1110, 14288.00
302.3190, 14324.00
303.5270, 14248.00
304.7350, 14466.00
305.9430, 14427.00
307.1510, 14420.00
308.3580, 14597.00
309.5660, 14755.00
310.7730, 14897.00
311.9800, 15077.00
313.1870, 15282.00
314.3940, 15648.00
315.6010, 15713.00
316.8070, 16048.00
318.0130, 16200.00
319.2200, 16493.00
320.4260, 16885.00
321.6310, 17281.00
322.8370, 17777.00
324.0430, 18432.00
325.2480, 19261.00
326.4540, 20264.00
327.6590, 21414.17
328.8640, 22814.00
330.0680, 24210.00
331.2730, 25978.00
332.4780, 27777.00
333.6820, 29496.00
334.8860, 31256.00
336.0900, 32391.00
337.2940, 32953.00
338.4980, 32570.00
339.7010, 31524.00
340.9050, 29846.00
342.1080, 28161.00
343.3110, 26318.00
344.5140, 24340.00
345.7170, 22599.00
346.9200, 21451.00
348.1220, 20326.00
349.3240, 19504.00
350.5270, 18835.00
351.7290, 18236.00
352.9310, 17670.00
354.1320, 17384.00
355.3340, 17390.00
356.5350, 16836.00
357.7370, 16712.00
358.9380, 16467.00
360.1390, 16310.00
361.3400, 16182.81
362.5400, 16016.00
363.7410, 15959.00
364.9410, 15899.00
366.1410, 15827.00
367.3410, 15985.00
368.5410, 16107.00
369.7410, 16171.00
370.9400, 16295.00
372.1400, 16248.00
373.3390, 16445.00
374.5380, 16797.00
375.7370, 16565.00
376.9360, 16651.00
378.1350, 16638.00
379.3330, 16445.00
380.5310, 16536.00
381.7300, 16312.00
382.9280, 16269.00
384.1260, 16344.00
385.3230, 16174.00
386.5210, 16354.00
387.7180, 16574.00
388.9160, 16769.00
390.1130, 17119.00
391.3100, 17300.12
392.5060, 17643.00
393.7030, 17741.00
394.9000, 18001.00
396.0960, 18190.00
397.2920, 18254.37
398.4880, 18238.00
399.6840, 18342.00
400.8800, 18255.00
402.0750, 18185.00
403.2710, 17984.00
404.4660, 18092.00
405.6610, 18207.00
406.8560, 18011.00
408.0510, 18062.00
409.2450, 17730.00
410.4400, 17858.00
411.6340, 17708.00
412.8280, 17613.00
414.0220, 17128.00
415.2160, 16926.00
416.4100, 16808.00
417.6030, 16786.00
418.7970, 16346.00
419.9900, 16308.00
421.1830, 16059.00
422.3760, 16125.00
423.5690, 15928.00
424.7610, 16016.00
425.9540, 16069.00
427.1460, 16094.00
428.3380, 16174.00
429.5300, 16452.00
430.7220, 16718.00
431.9140, 16853.00
433.1050, 17078.00
434.2970, 17168.00
435.4880, 17258.38
436.6790, 17266.02
437.8700, 17261.00
439.0610, 17098.00
440.2510, 16858.00
441.4420, 16602.00
442.6320, 16350.00
443.8220, 16155.00
445.0120, 16023.00
446.2020, 15936.00
447.3910, 15916.00
448.5810, 15808.00
449.7700, 16050.00
450.9600, 15891.00
452.1490, 15982.00
453.3370, 15915.00
454.5260, 15974.00
455.7150, 15847.00
456.9030, 15954.00
458.0910, 15884.00
459.2800, 16051.00
460.4670, 15952.00
461.6550, 15923.00
462.8430, 16021.00
464.0300, 16019.00
465.2180, 15938.00
466.4050, 15994.00
467.5920, 16067.00
468.7790, 15985.00
469.9650, 16139.00
471.1520, 16057.00
472.3380, 15875.00
473.5250, 15883.00
474.7110, 15833.00
475.8970, 15843.00
477.0820, 15957.00
478.2680, 15862.00
479.4540, 16002.00
480.6390, 15756.00
481.8240, 16004.00
483.0090, 15898.00
484.1940, 16029.00
485.3780, 15929.00
486.5630, 16076.00
487.7470, 15988.00
488.9320, 16103.00
490.1160, 16114.00
491.3000, 16122.00
492.4830, 16255.00
493.6670, 16108.00
494.8500, 16167.00
496.0340, 16176.00
497.2170, 16189.62
498.4000, 16236.58
499.5820, 16287.00
500.7650, 16326.00
501.9480, 16333.00
503.1300, 16409.00
504.3120, 16426.00
505.4940, 16492.15
506.6760, 16567.00
507.8580, 16594.00
509.0390, 16660.00
510.2210, 16646.00
511.4020, 16646.00
512.5830, 16759.68
513.7640, 16832.00
514.9450, 16992.00
516.1250, 17011.00
517.3060, 17153.00
518.4860, 17139.00
519.6660, 17243.00
520.8460, 17274.00
522.0260, 17383.00
523.2060, 17291.00
524.3850, 17411.00
525.5650, 17426.00
526.7440, 17462.00
527.9230, 17709.00
529.1020, 17776.00
530.2810, 17843.00
531.4590, 18294.00
532.6380, 18440.00
533.8160, 18417.00
534.9940, 18602.00
536.1720, 18458.00
537.3500, 18532.00
538.5270, 18493.00
539.7050, 18432.00
540.8820, 18308.00
542.0590, 18221.00
543.2360, 18301.00
544.4130, 18240.00
545.5900, 18089.00
546.7660, 18286.00
547.9430, 18186.00
549.1190, 18068.00
550.2950, 18048.00
551.4710, 18031.00
552.6470, 18156.00
553.8220, 17781.00
554.9980, 17917.00
556.1730, 17827.00
557.3480, 18045.00
558.5230, 17925.00
559.6980, 17826.00
560.8730, 18068.00
562.0470, 17896.00
563.2220, 18131.00
564.3960, 17986.00
565.5700, 18158.00
566.7440, 18087.00
567.9170, 17988.00
569.0910, 18207.00
570.2640, 18253.00
571.4380, 18470.00
572.6110, 18259.00
573.7840, 18304.00
574.9570, 18214.00
576.1290, 18359.00
577.3020, 18489.00
578.4740, 18426.00
579.6460, 18490.00
580.8180, 18370.00
581.9900, 18463.00
583.1620, 18472.00
584.3330, 18512.00
585.5040, 18569.00
586.6760, 18430.00
587.8470, 18637.00
589.0180, 18493.00
590.1880, 18720.00
591.3590, 18614.00
592.5290, 18530.00
593.7000, 18488.00
594.8700, 18702.00
596.0400, 18511.00
597.2090, 18682.00
598.3790, 18746.00
599.5490, 18726.00
600.7180, 18861.00
601.8870, 18914.00
603.0560, 18905.00
604.2250, 18886.00
605.3940, 18894.00
606.5620, 18983.00
607.7300, 19050.00
608.8990, 18975.00
610.0670, 19042.00
611.2350, 19037.00
612.4020, 19255.00
613.5700, 19095.00
614.7370, 18976.00
615.9050, 19254.00
617.0720, 19276.00
618.2390, 19378.00
619.4060, 19493.00
620.5720, 19699.00
621.7390, 19614.00
622.9050, 19851.00
624.0710, 19632.00
625.2370, 19860.00
626.4030, 20061.00
627.5690, 20047.00
628.7340, 20235.29
629.9000, 20312.00
631.0650, 20400.00
632.2300, 20429.00
633.3950, 20585.49
634.5600, 20630.00
635.7240, 20882.00
636.8890, 21146.00
638.0530, 21309.09
639.2170, 21530.00
640.3810, 21723.00
641.5450, 22085.00
642.7080, 22439.00
643.8720, 22701.00
645.0350, 23213.00
646.1980, 23771.00
647.3610, 24741.00
648.5240, 25876.00
649.6870, 26872.00
650.8490, 28353.00
652.0120, 29970.00
653.1740, 31452.00
654.3360, 33475.00
655.4980, 35599.00
656.6600, 37136.00
657.8210, 38734.00
658.9830, 39660.00
660.1440, 39392.00
661.3050, 38831.00
662.4660, 37522.00
663.6270, 36203.00
664.7870, 34710.00
665.9480, 33744.00
667.1080, 33117.00
668.2680, 32998.00
669.4280, 33099.00
670.5880, 33713.00
671.7480, 35245.00
672.9070, 37156.00
674.0670, 38815.00
675.2260, 41352.00
676.3850, 43832.00
677.5440, 45729.00
678.7030, 47410.00
679.8610, 48470.00
681.0200, 47683.00
682.1780, 47075.00
683.3360, 44423.00
684.4940, 41917.00
685.6520, 38963.00
686.8090, 36130.00
687.9670, 33427.00
689.1240, 31346.00
690.2810, 29419.00
691.4380, 27916.00
692.5950, 26896.00
693.7520, 25759.00
694.9080, 25207.00
696.0650, 24530.00
697.2210, 24125.00
698.3770, 23701.00
699.5330, 23538.00
700.6880, 23264.00
701.8440, 23010.00
702.9990, 22663.00
704.1550, 22509.00
705.3100, 22449.00
706.4650, 22445.00
707.6190, 22362.00
708.7740, 22348.00
709.9290, 22375.00
711.0830, 22127.00
712.2370, 22202.00
713.3910, 22042.00
714.5450, 22071.00
715.6980, 22106.00
716.8520, 22110.00
718.0050, 22173.00
719.1580, 22065.00
720.3110, 21866.00
721.4640, 21874.00
722.6170, 21932.00
723.7700, 22137.00
724.9220, 21971.00
726.0740, 22065.00
727.2260, 22068.00
728.3780, 22119.00
729.5300, 22042.00
730.6810, 22022.00
731.8330, 22117.00
732.9840, 22049.00
734.1350, 22114.00
735.2860, 22294.00
736.4370, 22005.00
737.5880, 22158.00
738.7380, 21980.00
739.8880, 22199.00
741.0390, 22118.00
742.1890, 22106.00
743.3380, 22121.00
744.4880, 22186.00
745.6380, 22211.61
746.7870, 22261.00
747.9360, 22321.00
749.0850, 22297.84
750.2340, 22347.00
751.3830, 22239.00
752.5310, 22196.00
753.6800, 22224.00
754.8280, 22402.00
755.9760, 22272.00
757.1240, 22310.00
758.2720, 22200.00
759.4190, 22305.00
760.5670, 22275.00
761.7140, 22372.00
762.8610, 22432.00
764.0080, 22333.00
765.1550, 22324.00
766.3020, 22460.00
767.4480, 22385.00
768.5950, 22591.00
769.7410, 22248.00
770.8870, 22422.00
772.0330, 22288.00
773.1780, 22454.00
774.3240, 22526.00
775.4690, 22559.00
776.6140, 22583.00
777.7590, 22461.00
778.9040, 22616.00
780.0490, 22658.00
781.1940, 22559.00
782.3380, 22647.00
783.4820, 22592.00
784.6260, 22589.00
785.7700, 22822.00
786.9140, 22674.00
788.0580, 22687.00
789.2010, 22595.00
790.3450, 22581.00
791.4880, 22643.39
792.6310, 22778.00
793.7730, 22784.00
794.9160, 22863.00
796.0590, 22910.00
797.2010, 22920.75
798.3430, 22866.00
799.4850, 22978.00
800.6270, 22997.00
801.7690, 23086.00
802.9100, 23190.00
804.0520, 23039.00
805.1930, 23034.00
806.3340, 23143.00
807.4750, 22857.00
808.6160, 23270.00
809.7560, 23198.00
810.8970, 23253.00
812.0370, 23233.00
813.1770, 23340.00
814.3170, 23309.71
815.4570, 23284.00
816.5960, 23308.00
817.7360, 23328.00
818.8750, 23367.00
820.0140, 23543.00
821.1530, 23252.00
822.2920, 23360.00
823.4310, 23482.00
824.5690, 23342.00
825.7070, 23430.00
826.8460, 23473.00
827.9840, 23553.00
829.1220, 23619.37
830.2590, 23461.00
831.3970, 23707.00
832.5340, 23703.00
833.6710, 23637.00
834.8080, 23766.00
835.9450, 23822.00
837.0820, 23554.00
838.2190, 23676.00
839.3550, 23640.00
840.4910, 23772.00
841.6270, 23919.00
842.7630, 23946.00
843.8990, 24021.00
845.0350, 24159.00
846.1700, 24006.00
847.3060, 24115.00
848.4410, 24316.00
849.5760, 24443.00
850.7100, 24699.00
851.8450, 25106.00
852.9800, 25361.00
854.1140, 25459.00
855.2480, 25529.00
856.3820, 25812.00
857.5160, 25790.00
858.6500, 25861.00
859.7830, 25817.00
860.9170, 25778.00
862.0500, 25742.98
863.1830, 25529.00
864.3160, 25513.00
865.4480, 25385.00
866.5810, 25074.00
867.7130, 25056.00
868.8460, 24959.00
869.9780, 24851.00
871.1100, 24862.00
872.2410, 24763.00
873.3730, 24469.00
874.5050, 24609.00
875.6360, 24443.00
876.7670, 24704.00
877.8980, 24562.00
879.0290, 24631.00
880.1590, 24614.00
881.2900, 24611.00
882.4200, 24334.00
883.5500, 24492.00
884.6800, 24591.00
885.8100, 24303.00
886.9400, 24606.00
888.0690, 24668.00
889.1990, 24749.00
890.3280, 24415.00
891.4570, 24655.00
892.5860, 24587.00
893.7140, 24348.00
894.8430, 24501.00
895.9710, 24649.00
897.1000, 24674.00
898.2280, 24673.00
899.3560, 24795.00
900.4830, 24623.00
901.6110, 24760.00
902.7380, 24588.00
903.8660, 24639.00
904.9930, 24829.00
906.1200, 24686.00
907.2460, 24546.00
908.3730, 24719.00
909.5000, 24778.00
910.6260, 24811.00
911.7520, 24952.00
912.8780, 25160.00
914.0040, 24870.00
915.1290, 25171.00
916.2550, 25116.00
917.3800, 25366.00
918.5050, 25196.00
919.6300, 25314.00
920.7550, 25397.00
921.8800, 25358.00
923.0040, 25605.00
924.1290, 25900.00
925.2530, 25796.00
926.3770, 26029.00
927.5010, 26420.00
928.6250, 26538.00
929.7480, 26737.00
930.8720, 26882.00
931.9950, 27029.00
933.1180, 27293.00
934.2410, 27236.00
935.3640, 27402.00
936.4860, 27512.00
937.6090, 27320.00
938.7310, 27485.00
939.8530, 27064.00
940.9750, 27171.00
942.0970, 26767.00
943.2180, 26877.00
944.3400, 26554.00
945.4610, 26759.00
946.5820, 26430.00
947.7030, 26244.00
948.8240, 26270.00
949.9450, 26278.00
951.0650, 26030.00
952.1860, 25892.00
953.3060, 25780.00
954.4260, 25988.00
955.5460, 26089.00
956.6650, 25933.00
957.7850, 25624.00
958.9040, 25880.00
960.0230, 25839.00
961.1420, 25943.00
962.2610, 25861.00
963.3800, 25723.00
964.4990, 26022.00
965.6170, 25761.00
966.7350, 25600.00
967.8530, 25688.00
968.9710, 25811.00
970.0890, 26049.00
971.2070, 25783.00
972.3240, 26386.00
973.4410, 26043.00
974.5580, 26150.00
975.6750, 26128.00
976.7920, 26306.00
977.9090, 26354.00
979.0250, 26613.00
980.1410, 26606.00
981.2580, 26991.00
982.3740, 26958.00
983.4890, 27128.00
984.6050, 27296.00
985.7200, 27496.00
986.8360, 27915.00
987.9510, 28431.00
989.0660, 28750.00
990.1810, 29365.00
991.2950, 29833.00
992.4100, 30766.00
993.5240, 31924.00
994.6390, 32810.00
995.7530, 34230.00
996.8660, 36263.00
997.9800, 38140.00
999.0940, 40550.00
1000.207, 43632.00
1001.320, 46676.00
1002.433, 50310.00
1003.546, 54669.00
1004.659, 58042.00
1005.772, 60970.00
1006.884, 62964.00
1007.996, 63139.00
1009.108, 61378.00
1010.220, 58918.00
1011.332, 55291.00
1012.444, 52081.00
1013.555, 48811.00
1014.666, 45786.00
1015.777, 43521.00
1016.888, 41924.00
1017.999, 40519.00
1019.110, 39280.00
1020.220, 38223.00
1021.331, 37325.00
1022.441, 36682.00
1023.551, 36022.00
1024.661, 35227.00
1025.770, 34654.00
1026.880, 34039.93
1027.989, 33837.00
1029.098, 33097.00
1030.207, 32661.00
1031.316, 32553.00
1032.425, 31521.00
1033.533, 30952.00
1034.642, 30487.00
1035.750, 30055.00
1036.858, 29621.00
1037.966, 29077.00
1039.073, 28916.00
1040.181, 28547.00
1041.288, 28355.00
1042.396, 27799.00
1043.503, 27767.00
1044.610, 27436.00
1045.716, 27220.00
1046.823, 27283.00
1047.929, 26934.00
1049.036, 26846.00
1050.142, 26858.00
1051.248, 26697.00
1052.353, 26759.00
1053.459, 26587.00
1054.564, 26555.00
1055.670, 26734.00
1056.775, 26530.00
1057.880, 26442.00
1058.985, 26266.00
1060.089, 26193.00
1061.194, 26342.00
1062.298, 26165.00
1063.402, 26072.00
1064.506, 26274.00
1065.610, 26129.00
1066.713, 26123.00
1067.817, 26304.00
1068.920, 26281.00
1070.023, 26064.00
1071.126, 26105.00
1072.229, 26035.00
1073.332, 26058.00
1074.435, 25894.00
1075.537, 25871.00
1076.639, 26095.00
1077.741, 25919.00
1078.843, 26002.00
1079.945, 26120.00
1081.046, 26146.00
1082.148, 25985.00
1083.249, 26758.00
1084.350, 27136.00
1085.451, 26385.00
1086.551, 26017.00
1087.652, 26128.00
1088.752, 26057.00
1089.853, 25759.00
1090.953, 25953.00
1092.053, 26034.00
1093.152, 25968.00
1094.252, 26028.00
1095.351, 25914.00
1096.451, 25893.00
1097.550, 26043.00
1098.649, 26004.00
1099.748, 25776.00
1100.846, 26008.00
1101.945, 26029.00
1103.043, 26121.00
1104.141, 26261.00
1105.239, 26098.00
1106.337, 26323.00
1107.434, 26014.00
1108.532, 26167.00
1109.629, 26020.00
1110.726, 26133.00
1111.823, 25995.00
1112.920, 25936.00
1114.017, 26170.00
1115.113, 26186.00
1116.210, 26226.00
1117.306, 26074.00
1118.402, 26209.00
1119.498, 26200.00
1120.593, 26113.00
1121.689, 26265.00
1122.784, 26236.00
1123.879, 26193.00
1124.974, 26263.00
1126.069, 26230.00
1127.164, 26198.00
1128.259, 26364.00
1129.353, 26293.00
1130.447, 26332.00
1131.541, 26406.71
1132.635, 26423.00
1133.729, 26437.00
1134.822, 26385.00
1135.916, 26221.00
1137.009, 26284.00
1138.102, 26416.00
1139.195, 26245.00
1140.288, 26407.00
1141.380, 26325.00
1142.473, 26248.00
1143.565, 26409.00
1144.657, 26185.00
1145.749, 26506.00
1146.841, 26398.00
1147.932, 26469.00
1149.024, 26202.00
1150.115, 26599.00
1151.206, 26584.00
1152.297, 26529.00
1153.388, 26542.00
1154.479, 26548.00
1155.569, 26533.29
1156.659, 26639.00
1157.750, 26554.00
1158.839, 26548.00
1159.929, 26594.00
1161.019, 26479.00
1162.108, 26457.00
1163.198, 26704.00
1164.287, 26494.00
1165.376, 26511.00
1166.465, 26677.00
1167.553, 26558.00
1168.642, 26673.00
1169.730, 26731.00
1170.818, 26537.00
1171.906, 26709.00
1172.994, 26377.00
1174.082, 26751.00
1175.170, 26661.00
1176.257, 26704.00
1177.344, 26825.00
1178.431, 26632.00
1179.518, 26668.00
1180.605, 26846.00
1181.691, 26725.00
1182.778, 26868.00
1183.864, 26634.00
1184.950, 26992.00
1186.036, 26875.00
1187.122, 26682.00
1188.207, 26892.00
1189.292, 26898.00
1190.378, 26982.00
1191.463, 26967.00
1192.548, 26969.00
1193.632, 27027.29
1194.717, 27111.00
1195.801, 27039.00
1196.886, 27034.00
1197.970, 27046.47
1199.054, 27050.74
1200.137, 27062.00
1201.221, 27116.00
1202.305, 27178.75
1203.388, 27206.84
1204.471, 27251.09
1205.554, 27344.00
1206.637, 27276.00
1207.719, 27264.00
1208.802, 27189.00
1209.884, 27233.00
1210.966, 27208.00
1212.048, 27179.00
1213.130, 27272.00
1214.212, 27218.00
1215.293, 27297.76
1216.374, 27270.00
1217.456, 27452.00
1218.536, 27531.00
1219.617, 27664.00
1220.698, 27473.00
1221.778, 27552.00
1222.859, 27521.00
1223.939, 27632.00
1225.019, 27593.00
1226.099, 27504.00
1227.178, 27699.00
1228.258, 27804.00
1229.337, 27825.00
1230.417, 27828.00
1231.496, 27854.00
1232.574, 27830.00
1233.653, 27846.27
1234.732, 27942.00
1235.810, 27899.00
1236.888, 28043.00
1237.966, 28176.00
1239.044, 28178.00
1240.122, 28267.41
1241.199, 28125.00
1242.277, 28231.00
1243.354, 28324.00
1244.431, 28097.00
1245.508, 28105.00
1246.585, 28221.00
1247.661, 28259.00
1248.738, 28305.00
1249.814, 28413.00
1250.890, 28496.00
1251.966, 28716.00
1253.042, 28339.00
1254.117, 28731.00
1255.193, 28577.00
1256.268, 28488.00
1257.343, 28636.00
1258.418, 28663.00
1259.493, 28734.00
1260.567, 28750.00
1261.642, 28754.00
1262.716, 28801.00
1263.790, 28558.00
1264.864, 28705.00
1265.938, 28778.00
1267.011, 29088.00
1268.085, 29076.00
1269.158, 28934.00
1270.231, 29143.00
1271.304, 29038.00
1272.377, 29202.00
1273.450, 29286.00
1274.522, 29218.00
1275.594, 29193.00
1276.666, 29311.00
1277.738, 29368.00
1278.810, 29198.00
1279.882, 29481.00
1280.953, 29397.00
1282.025, 29803.00
1283.096, 29695.00
1284.167, 29651.00
1285.238, 29731.00
1286.308, 29766.00
1287.379, 29604.00
1288.449, 29832.00
1289.519, 29694.00
1290.589, 29696.00
1291.659, 29905.00
1292.729, 29725.00
1293.798, 29888.00
1294.868, 29787.00
1295.937, 30003.00
1297.006, 29998.00
1298.075, 29876.00
1299.143, 29842.00
1300.212, 30010.00
1301.280, 29998.00
1302.348, 30024.00
1303.416, 29919.00
1304.484, 30047.00
1305.552, 29856.00
1306.620, 30191.00
1307.687, 30146.00
1308.754, 30334.00
1309.821, 29889.00
1310.888, 30059.00
1311.955, 30243.00
1313.021, 30450.00
1314.088, 30578.30
1315.154, 30594.00
1316.220, 30855.00
1317.286, 30799.00
1318.352, 30938.00
1319.417, 30941.00
1320.483, 31014.00
1321.548, 31079.88
1322.613, 31029.00
1323.678, 31115.00
1324.743, 31055.00
1325.807, 30905.00
1326.872, 31057.00
1327.936, 31021.00
1329.000, 31409.00
1330.064, 31492.00
1331.128, 31549.00
1332.191, 31612.00
1333.255, 31666.00
1334.318, 31589.00
1335.381, 31657.00
1336.444, 31603.00
1337.507, 31773.00
1338.569, 31558.00
1339.632, 31508.00
1340.694, 31559.00
1341.756, 31762.00
1342.818, 31912.00
1343.880, 32227.00
1344.941, 32218.62
1346.003, 31973.00
1347.064, 32258.00
1348.125, 32038.00
1349.186, 32058.00
1350.247, 32231.00
1351.308, 32212.00
1352.368, 32315.00
1353.428, 32286.00
1354.489, 32511.00
1355.549, 32343.00
1356.608, 32479.00
1357.668, 32712.00
1358.727, 32468.00
1359.787, 32460.00
1360.846, 32871.00
1361.905, 32808.00
1362.964, 32852.00
1364.022, 32801.00
1365.081, 32904.00
1366.139, 33025.00
1367.197, 33033.00
1368.255, 33082.00
1369.313, 33124.26
1370.371, 33086.00
1371.428, 33156.00
1372.486, 33292.00
1373.543, 33282.00
1374.600, 33641.00
1375.657, 33351.00
1376.713, 33564.00
1377.770, 33841.00
1378.826, 33505.00
1379.882, 33492.00
1380.938, 33669.00
1381.994, 33726.00
1383.050, 33903.00
1384.106, 33670.00
1385.161, 33580.00
1386.216, 33795.00
1387.271, 33966.00
1388.326, 33902.00
1389.381, 34032.00
1390.435, 34124.00
1391.490, 33991.00
1392.544, 34365.00
1393.598, 34046.00
1394.652, 34230.00
1395.705, 34099.00
1396.759, 34407.00
1397.812, 34181.00
1398.866, 34389.00
1399.919, 34487.00
1400.972, 34549.00
1402.024, 34542.00
1403.077, 34587.00
1404.129, 34709.00
1405.181, 34803.00
1406.233, 34765.00
1407.285, 34983.00
1408.337, 34911.00
1409.389, 35185.00
1410.440, 34896.00
1411.491, 35024.00
1412.542, 35136.00
1413.593, 35195.00
1414.644, 35374.00
1415.695, 35396.00
1416.745, 35457.13
1417.795, 35395.00
1418.845, 35491.00
1419.895, 35460.00
1420.945, 35424.00
1421.995, 35523.00
1423.044, 35645.00
1424.093, 35691.00
1425.142, 35705.00
1426.191, 35848.00
1427.240, 35927.00
1428.289, 35943.00
1429.337, 36118.00
1430.385, 36204.00
1431.433, 36214.00
1432.481, 35815.00
1433.529, 36381.00
1434.577, 36396.00
1435.624, 36081.00
1436.672, 36373.00
1437.719, 36330.00
1438.766, 36298.00
1439.812, 36627.00
1440.859, 36858.00
1441.905, 36375.00
1442.952, 36790.00
1443.998, 36781.00
1445.044, 36989.00
1446.090, 36679.00
1447.135, 37018.00
1448.181, 36982.00
1449.226, 37138.00
1450.271, 37239.00
1451.316, 37123.00
1452.361, 37116.00
1453.405, 37238.00
1454.450, 37156.00
1455.494, 37595.00
1456.538, 37439.00
1457.582, 37522.00
1458.626, 37584.00
1459.670, 37553.00
1460.713, 37584.00
1461.757, 37569.82
1462.800, 37779.00
1463.843, 37636.00
1464.886, 37689.00
1465.928, 37956.00
1466.971, 37879.00
1468.013, 38010.00
1469.055, 37920.00
1470.097, 38152.00
1471.139, 38044.00
1472.181, 38527.00
1473.222, 38278.00
1474.263, 38341.00
1475.305, 38298.00
1476.346, 38589.00
1477.386, 38611.00
1478.427, 38633.00
1479.468, 38728.00
1480.508, 38765.92
1481.548, 38785.00
1482.588, 38870.00
1483.628, 38983.00
1484.668, 38975.00
1485.707, 38686.00
1486.747, 39081.00
1487.786, 38904.00
1488.825, 39091.00
1489.864, 39362.00
1490.902, 39330.00
1491.941, 39105.00
1492.979, 39137.00
1494.017, 39224.00
1495.055, 39479.00
1496.093, 39351.00
1497.131, 39638.00
1498.168, 39731.00
1499.206, 39649.00
1500.243, 39643.00
1501.280, 39499.00
1502.317, 39612.00
1503.354, 39566.00
1504.390, 40000.00
1505.426, 39961.00
1506.463, 40103.00
1507.499, 40107.00
1508.535, 40096.00
1509.570, 39993.00
1510.606, 40056.00
1511.641, 40021.00
1512.676, 40150.00
1513.711, 40212.00
1514.746, 40196.00
1515.781, 40417.00
1516.816, 40281.00
1517.850, 40694.00
1518.884, 40383.00
1519.918, 40650.00
1520.952, 40396.00
1521.986, 40834.00
1523.019, 40743.00
1524.053, 40847.00
1525.086, 40526.00
1526.119, 40909.00
1527.152, 40871.00
1528.185, 41057.00
1529.217, 40823.00
1530.250, 40813.00
1531.282, 41159.00
1532.314, 40918.00
1533.346, 41158.00
1534.377, 41058.00
1535.409, 41370.00
1536.440, 41117.00
1537.472, 41528.00
1538.503, 41254.00
1539.534, 41391.00
1540.564, 41276.00
1541.595, 41629.00
1542.625, 41524.00
1543.656, 41411.00
1544.686, 41978.00
1545.716, 41506.00
1546.745, 41306.00
1547.775, 41835.00
1548.804, 41565.00
1549.834, 41645.00
1550.863, 41634.00
1551.892, 41602.00
1552.920, 41647.79
1553.949, 41885.00
1554.977, 41709.00
1556.006, 41974.00
1557.034, 42093.00
1558.062, 42000.00
1559.089, 42070.00
1560.117, 42123.97
1561.144, 42009.00
1562.172, 42215.00
1563.199, 42338.00
1564.226, 42317.00
1565.252, 42361.00
1566.279, 42391.00
1567.305, 42316.00
1568.332, 42461.00
1569.358, 42280.00
1570.384, 42853.00
##END=



