##NAMES=Enstatite
##RRUFFID=R070418
##IDEAL CHEMISTRY=MgSiO_3_
##LOCALITY=India
##OWNER=RRUFF
##SOURCE=Michael Scott
##DESCRIPTION=Brown translucent fragments
##STATUS=The identification of this mineral has been confirmed by X-ray diffraction and chemical analysis
##URL=rruff.info/R070418
##MEASURED CHEMISTRY=(Mg_0.86_Fe_0.14_)_Î£=1_Si_1.00_O_3_; trace amounts of Al, Ca, Mn
##PIN_ID=L00897
##ORIENTATION=Laser parallel to b* (0 1 0). Fiducial mark perpendicular to laser is parallel to c [0 0 1]
41.80000, 498.0000
43.05200, 512.0000
44.30500, 484.0000
45.55700, 490.0000
46.80900, 503.0000
48.06100, 501.0000
49.31300, 494.0000
50.56400, 494.0000
51.81600, 484.0000
53.06700, 482.8230
54.31800, 494.0000
55.56800, 479.0000
56.81900, 483.0000
58.06900, 485.0000
59.31900, 480.0000
60.56900, 489.0000
61.81900, 486.0000
63.06900, 484.0000
64.31800, 483.0000
65.56700, 488.0000
66.81600, 483.7343
68.06500, 477.0000
69.31300, 477.0000
70.56200, 483.0000
71.81000, 475.0000
73.05800, 494.0000
74.30500, 517.0000
75.55300, 555.0000
76.80000, 611.0000
78.04800, 669.0000
79.29500, 662.0000
80.54100, 609.0000
81.78800, 569.0000
83.03400, 532.0000
84.28100, 523.0000
85.52700, 503.0000
86.77200, 521.0000
88.01800, 521.0000
89.26300, 549.0000
90.50900, 595.0000
91.75400, 624.0000
92.99900, 660.0000
94.24300, 700.0000
95.48800, 778.0000
96.73200, 838.0000
97.97600, 984.0000
99.22000, 1077.000
100.4630, 1232.000
101.7070, 1436.000
102.9500, 1689.000
104.1930, 1927.000
105.4360, 2185.000
106.6790, 2472.000
107.9210, 2674.765
109.1640, 3082.000
110.4060, 3200.000
111.6480, 3468.000
112.8890, 3947.000
114.1310, 4711.000
115.3720, 5711.000
116.6130, 7049.000
117.8540, 9004.000
119.0950, 11666.00
120.3360, 14452.00
121.5760, 17182.00
122.8160, 20297.00
124.0560, 24387.00
125.2960, 29134.00
126.5350, 33786.00
127.7750, 36930.00
129.0140, 37120.00
130.2530, 33996.00
131.4920, 29362.00
132.7300, 24824.00
133.9690, 20680.00
135.2070, 17297.00
136.4450, 14807.00
137.6830, 12942.00
138.9210, 11621.00
140.1580, 10550.00
141.3950, 9663.000
142.6330, 9093.000
143.8690, 8545.000
145.1060, 8059.000
146.3430, 7673.305
147.5790, 7285.000
148.8150, 7066.000
150.0510, 6932.000
151.2870, 6779.000
152.5220, 6802.000
153.7580, 6683.000
154.9930, 6650.000
156.2280, 6571.000
157.4620, 6595.000
158.6970, 6520.000
159.9310, 6446.000
161.1660, 6558.000
162.4000, 6442.000
163.6330, 6559.000
164.8670, 6418.000
166.1000, 6405.000
167.3340, 6393.000
168.5670, 6435.000
169.8000, 6420.000
171.0320, 6428.609
172.2650, 6500.000
173.4970, 6440.000
174.7290, 6391.000
175.9610, 6411.308
177.1930, 6484.000
178.4240, 6519.000
179.6550, 6539.000
180.8870, 6667.000
182.1170, 6656.000
183.3480, 6731.000
184.5790, 6746.000
185.8090, 6731.000
187.0390, 6862.000
188.2690, 6868.000
189.4990, 6932.000
190.7290, 6835.000
191.9580, 6789.000
193.1870, 6832.000
194.4160, 6817.000
195.6450, 6808.000
196.8740, 6779.492
198.1020, 6684.000
199.3310, 6690.000
200.5590, 6639.000
201.7870, 6605.000
203.0140, 6447.000
204.2420, 6313.000
205.4690, 5995.000
206.6960, 5872.000
207.9230, 5734.000
209.1500, 5608.000
210.3760, 5586.000
211.6030, 5545.000
212.8290, 5485.000
214.0550, 5423.000
215.2810, 5481.000
216.5060, 5534.000
217.7320, 5570.000
218.9570, 5567.000
220.1820, 5837.000
221.4070, 5983.000
222.6320, 6300.000
223.8560, 6483.000
225.0800, 7001.000
226.3040, 7494.000
227.5280, 8000.000
228.7520, 8451.000
229.9760, 9021.000
231.1990, 9624.000
232.4220, 10256.00
233.6450, 10768.00
234.8680, 10754.00
236.0910, 10292.00
237.3130, 9537.000
238.5350, 8741.000
239.7570, 7909.000
240.9790, 7124.000
242.2010, 6641.000
243.4220, 6273.000
244.6430, 5948.000
245.8640, 5829.000
247.0850, 5651.000
248.3060, 5702.000
249.5270, 5598.000
250.7470, 5573.000
251.9670, 5513.000
253.1870, 5499.000
254.4070, 5530.000
255.6260, 5565.000
256.8460, 5590.000
258.0650, 5676.000
259.2840, 5833.000
260.5030, 5846.000
261.7220, 5786.000
262.9400, 5752.000
264.1580, 5907.000
265.3760, 5856.000
266.5940, 5903.000
267.8120, 5922.000
269.0290, 6008.000
270.2470, 6033.000
271.4640, 5994.000
272.6810, 5938.000
273.8980, 5811.000
275.1140, 5890.000
276.3310, 5768.000
277.5470, 5741.000
278.7630, 5697.000
279.9790, 5733.000
281.1940, 5781.000
282.4100, 5675.000
283.6250, 5805.000
284.8400, 5945.000
286.0550, 5965.000
287.2700, 6223.000
288.4850, 6327.000
289.6990, 6495.000
290.9130, 6613.000
292.1270, 6732.000
293.3410, 6927.000
294.5540, 7029.000
295.7680, 7067.000
296.9810, 7064.000
298.1940, 7196.000
299.4070, 7130.000
300.6200, 7035.000
301.8320, 7051.000
303.0450, 7044.000
304.2570, 7044.000
305.4690, 6990.000
306.6800, 7060.000
307.8920, 7169.000
309.1030, 7239.000
310.3150, 7443.000
311.5260, 7592.000
312.7360, 7897.000
313.9470, 8174.000
315.1580, 8464.000
316.3680, 8994.000
317.5780, 9415.000
318.7880, 10023.00
319.9980, 10811.00
321.2070, 11653.00
322.4170, 12900.00
323.6260, 14232.00
324.8350, 16050.00
326.0430, 18100.00
327.2520, 20543.00
328.4610, 23820.00
329.6690, 27627.00
330.8770, 31988.00
332.0850, 36950.00
333.2920, 42146.00
334.5000, 47588.00
335.7070, 52347.00
336.9140, 56915.00
338.1210, 59735.00
339.3280, 60671.00
340.5350, 59247.00
341.7410, 55996.00
342.9470, 51118.00
344.1540, 45574.00
345.3590, 39760.00
346.5650, 34560.00
347.7710, 30049.00
348.9760, 26266.00
350.1810, 23121.00
351.3860, 21130.00
352.5910, 19194.00
353.7950, 17513.00
355.0000, 16410.00
356.2040, 15027.00
357.4080, 14472.00
358.6120, 13225.00
359.8150, 12113.00
361.0190, 11783.00
362.2220, 11259.00
363.4250, 10810.00
364.6280, 10616.00
365.8310, 10253.00
367.0340, 9944.000
368.2360, 9871.000
369.4380, 9756.000
370.6400, 9660.000
371.8420, 9638.000
373.0440, 9559.000
374.2450, 9535.000
375.4470, 9365.000
376.6480, 9574.000
377.8490, 9315.000
379.0490, 9597.000
380.2500, 9500.000
381.4500, 9596.000
382.6510, 9736.000
383.8510, 9927.000
385.0500, 10382.00
386.2500, 10880.00
387.4500, 11309.00
388.6490, 11763.00
389.8480, 12538.00
391.0470, 13412.00
392.2460, 14162.00
393.4440, 15228.00
394.6430, 15854.00
395.8410, 16732.00
397.0390, 17199.00
398.2370, 17779.00
399.4340, 17801.00
400.6320, 17725.00
401.8290, 17886.00
403.0260, 17617.00
404.2230, 17311.00
405.4200, 16867.00
406.6170, 16397.00
407.8130, 16178.00
409.0090, 15723.00
410.2050, 15307.00
411.4010, 14938.00
412.5970, 14526.08
413.7920, 14181.00
414.9880, 13746.00
416.1830, 13445.00
417.3780, 13023.00
418.5730, 12816.00
419.7670, 12378.00
420.9620, 12090.00
422.1560, 11651.00
423.3500, 11363.00
424.5440, 11197.00
425.7380, 11159.00
426.9310, 11069.00
428.1240, 11214.00
429.3180, 11562.00
430.5110, 11939.00
431.7030, 12746.00
432.8960, 13411.00
434.0890, 14114.00
435.2810, 15141.00
436.4730, 15872.00
437.6650, 16445.00
438.8570, 16433.00
440.0480, 16038.00
441.2390, 14999.00
442.4310, 13830.00
443.6220, 12561.00
444.8120, 11567.00
446.0030, 10672.00
447.1940, 9984.000
448.3840, 9475.000
449.5740, 8948.000
450.7640, 8759.000
451.9540, 8545.000
453.1430, 8403.000
454.3330, 8247.000
455.5220, 8249.000
456.7110, 8191.000
457.9000, 8065.000
459.0890, 8057.000
460.2770, 7941.000
461.4650, 7899.309
462.6540, 7871.000
463.8420, 7852.000
465.0290, 7799.000
466.2170, 7873.000
467.4050, 7753.000
468.5920, 7728.000
469.7790, 7591.000
470.9660, 7585.000
472.1530, 7436.000
473.3390, 7541.000
474.5250, 7427.000
475.7120, 7379.000
476.8980, 7408.000
478.0840, 7307.000
479.2690, 7288.000
480.4550, 7309.000
481.6400, 7381.000
482.8250, 7233.000
484.0100, 7332.000
485.1950, 7293.000
486.3800, 7158.000
487.5640, 7292.000
488.7480, 7317.000
489.9320, 7175.000
491.1160, 7253.000
492.3000, 7373.000
493.4840, 7259.000
494.6670, 7154.000
495.8500, 7273.000
497.0330, 7285.000
498.2160, 7207.000
499.3990, 7240.000
500.5810, 7305.000
501.7630, 7244.000
502.9460, 7273.000
504.1280, 7216.000
505.3090, 7256.000
506.4910, 7315.000
507.6720, 7256.000
508.8540, 7331.000
510.0350, 7532.000
511.2160, 7471.000
512.3960, 7605.000
513.5770, 7573.000
514.7570, 7765.000
515.9380, 7891.000
517.1180, 8109.000
518.2970, 8025.000
519.4770, 8399.000
520.6570, 8259.000
521.8360, 8571.000
523.0150, 8458.000
524.1940, 8561.000
525.3730, 8573.000
526.5510, 8706.000
527.7300, 8778.000
528.9080, 8771.000
530.0860, 8880.000
531.2640, 9055.000
532.4420, 9243.000
533.6200, 9576.000
534.7970, 9777.000
535.9740, 9949.000
537.1510, 9971.000
538.3280, 10018.00
539.5050, 9659.000
540.6810, 9613.000
541.8580, 9399.000
543.0340, 9118.000
544.2100, 9065.000
545.3860, 9123.000
546.5610, 9037.000
547.7370, 8941.000
548.9120, 8901.000
550.0870, 8851.000
551.2620, 8800.000
552.4370, 8562.000
553.6120, 8556.000
554.7860, 8394.000
555.9600, 8359.000
557.1340, 8289.000
558.3080, 8299.000
559.4820, 8163.000
560.6560, 8059.000
561.8290, 8145.000
563.0020, 8120.000
564.1750, 8035.000
565.3480, 8136.000
566.5210, 8161.000
567.6930, 8018.000
568.8660, 8068.000
570.0380, 8182.000
571.2100, 8184.000
572.3820, 8150.000
573.5530, 8099.000
574.7250, 8173.000
575.8960, 8132.000
577.0670, 8223.000
578.2380, 8194.000
579.4090, 8246.000
580.5800, 8154.000
581.7500, 8193.000
582.9210, 8297.000
584.0910, 8179.000
585.2610, 8163.000
586.4300, 8189.000
587.6000, 8252.000
588.7690, 8233.000
589.9390, 8220.000
591.1080, 8294.000
592.2770, 8242.000
593.4450, 8343.000
594.6140, 8352.000
595.7820, 8353.000
596.9500, 8305.000
598.1190, 8428.000
599.2860, 8222.000
600.4540, 8265.000
601.6220, 8313.000
602.7890, 8419.000
603.9560, 8341.000
605.1230, 8245.000
606.2900, 8314.000
607.4570, 8346.000
608.6230, 8435.000
609.7890, 8525.000
610.9560, 8531.819
612.1220, 8426.000
613.2870, 8511.000
614.4530, 8629.000
615.6180, 8515.000
616.7840, 8621.000
617.9490, 8612.000
619.1140, 8661.000
620.2790, 8846.000
621.4430, 8794.000
622.6080, 8843.000
623.7720, 8935.000
624.9360, 9068.000
626.1000, 9050.000
627.2640, 9143.000
628.4270, 9257.000
629.5910, 9347.000
630.7540, 9449.000
631.9170, 9682.000
633.0800, 9805.000
634.2430, 9943.000
635.4050, 10174.00
636.5680, 10505.00
637.7300, 10631.00
638.8920, 10824.00
640.0540, 11258.00
641.2150, 11728.00
642.3770, 12088.00
643.5380, 12787.00
644.7000, 13546.00
645.8610, 14409.00
647.0210, 15416.00
648.1820, 16888.00
649.3430, 18433.00
650.5030, 20295.00
651.6630, 22860.00
652.8230, 25825.00
653.9830, 29273.00
655.1430, 33148.00
656.3020, 37353.00
657.4620, 41161.00
658.6210, 44683.00
659.7800, 47140.00
660.9390, 48565.00
662.0970, 47685.00
663.2560, 45295.00
664.4140, 42475.00
665.5720, 39326.00
666.7300, 36713.00
667.8880, 34405.00
669.0460, 33370.00
670.2030, 32981.00
671.3600, 33780.00
672.5180, 35132.00
673.6740, 37539.00
674.8310, 41080.00
675.9880, 44810.00
677.1440, 48929.00
678.3010, 52700.00
679.4570, 56445.00
680.6130, 59073.00
681.7690, 60112.00
682.9240, 58962.00
684.0800, 56096.00
685.2350, 51794.00
686.3900, 46412.00
687.5450, 41010.00
688.7000, 35813.00
689.8540, 30835.00
691.0090, 27323.00
692.1630, 23741.00
693.3170, 21223.00
694.4710, 19385.00
695.6250, 17640.00
696.7780, 16384.00
697.9320, 15305.00
699.0850, 14658.00
700.2380, 14026.00
701.3910, 13367.00
702.5440, 12912.00
703.6970, 12435.00
704.8490, 12211.00
706.0010, 11933.00
707.1530, 11522.00
708.3050, 11307.00
709.4570, 11005.00
710.6090, 10975.00
711.7600, 10698.00
712.9110, 10782.00
714.0620, 10541.00
715.2130, 10359.00
716.3640, 10444.00
717.5150, 10215.00
718.6650, 10157.00
719.8150, 10068.00
720.9650, 9999.000
722.1150, 10042.00
723.2650, 9921.000
724.4150, 9810.000
725.5640, 9772.000
726.7130, 9834.000
727.8630, 9707.000
729.0110, 9709.000
730.1600, 9686.000
731.3090, 9633.000
732.4570, 9633.000
733.6060, 9582.000
734.7540, 9624.000
735.9020, 9589.164
737.0490, 9636.000
738.1970, 9577.000
739.3440, 9577.000
740.4920, 9612.000
741.6390, 9440.000
742.7860, 9410.000
743.9320, 9473.000
745.0790, 9663.000
746.2250, 9563.000
747.3720, 9470.000
748.5180, 9457.000
749.6640, 9406.000
750.8100, 9480.000
751.9550, 9406.000
753.1010, 9411.000
754.2460, 9340.000
755.3910, 9263.000
756.5360, 9306.392
757.6810, 9260.000
758.8250, 9370.000
759.9700, 9280.000
761.1140, 9308.000
762.2580, 9218.000
763.4020, 9207.664
764.5460, 9221.567
765.6900, 9223.000
766.8330, 9238.000
767.9760, 9255.752
769.1200, 9344.000
770.2620, 9274.000
771.4050, 9335.000
772.5480, 9298.000
773.6900, 9396.000
774.8330, 9265.000
775.9750, 9317.000
777.1170, 9351.000
778.2590, 9397.000
779.4000, 9422.000
780.5420, 9288.000
781.6830, 9367.000
782.8240, 9428.000
783.9650, 9311.000
785.1060, 9397.000
786.2470, 9420.000
787.3870, 9422.000
788.5280, 9413.442
789.6680, 9340.000
790.8080, 9346.000
791.9480, 9295.000
793.0870, 9293.000
794.2270, 9360.000
795.3660, 9342.000
796.5060, 9453.000
797.6450, 9304.000
798.7830, 9482.000
799.9220, 9363.000
801.0610, 9422.000
802.1990, 9425.000
803.3370, 9415.000
804.4750, 9407.000
805.6130, 9572.000
806.7510, 9458.000
807.8890, 9516.000
809.0260, 9527.000
810.1630, 9464.000
811.3000, 9607.000
812.4370, 9662.000
813.5740, 9522.000
814.7110, 9479.000
815.8470, 9509.000
816.9830, 9484.000
818.1190, 9474.000
819.2550, 9435.000
820.3910, 9567.000
821.5270, 9670.000
822.6620, 9624.000
823.7970, 9765.000
824.9330, 9698.000
826.0670, 9743.000
827.2020, 9778.000
828.3370, 9676.000
829.4710, 9733.000
830.6060, 9631.000
831.7400, 9698.000
832.8740, 9862.000
834.0080, 9820.000
835.1410, 9874.000
836.2750, 9832.000
837.4080, 9771.000
838.5410, 9898.000
839.6740, 10027.00
840.8070, 9992.000
841.9400, 10144.00
843.0730, 10094.00
844.2050, 10279.00
845.3370, 10326.00
846.4690, 10495.00
847.6010, 10598.00
848.7330, 10858.00
849.8640, 11264.00
850.9960, 11464.00
852.1270, 11856.00
853.2580, 12268.00
854.3890, 12608.00
855.5200, 12849.00
856.6500, 13179.00
857.7810, 13378.00
858.9110, 13409.00
860.0410, 13374.00
861.1710, 13237.00
862.3010, 13084.00
863.4310, 12811.00
864.5600, 12609.00
865.6900, 12359.00
866.8190, 12099.00
867.9480, 11857.00
869.0770, 11606.00
870.2050, 11356.00
871.3340, 11222.00
872.4620, 11054.00
873.5900, 11006.00
874.7180, 10861.00
875.8460, 10760.16
876.9740, 10615.00
878.1010, 10598.00
879.2290, 10559.00
880.3560, 10579.00
881.4830, 10534.10
882.6100, 10447.00
883.7370, 10477.00
884.8630, 10392.00
885.9900, 10370.00
887.1160, 10281.00
888.2420, 10286.51
889.3680, 10307.00
890.4940, 10320.00
891.6200, 10359.00
892.7450, 10358.83
893.8700, 10353.00
894.9960, 10368.00
896.1210, 10331.00
897.2460, 10329.00
898.3700, 10380.00
899.4950, 10387.00
900.6190, 10364.00
901.7430, 10420.00
902.8670, 10300.00
903.9910, 10344.00
905.1150, 10323.00
906.2390, 10306.00
907.3620, 10360.00
908.4850, 10308.00
909.6080, 10372.00
910.7310, 10453.00
911.8540, 10390.00
912.9770, 10425.00
914.0990, 10423.00
915.2210, 10513.00
916.3440, 10460.00
917.4660, 10503.00
918.5870, 10631.00
919.7090, 10568.00
920.8310, 10662.00
921.9520, 10727.00
923.0730, 10873.00
924.1940, 10943.00
925.3150, 11103.00
926.4360, 11191.00
927.5560, 11193.00
928.6770, 11234.00
929.7970, 11333.00
930.9170, 11509.00
932.0370, 11641.00
933.1570, 11691.00
934.2760, 11625.00
935.3960, 11817.00
936.5150, 11743.00
937.6340, 11775.00
938.7530, 11804.00
939.8720, 11636.00
940.9910, 11790.00
942.1090, 11669.00
943.2280, 11620.00
944.3460, 11695.00
945.4640, 11665.00
946.5820, 11586.00
947.6990, 11472.00
948.8170, 11567.00
949.9340, 11371.00
951.0520, 11377.00
952.1690, 11340.00
953.2860, 11197.00
954.4030, 11216.00
955.5190, 11189.00
956.6360, 11183.00
957.7520, 11152.00
958.8680, 11241.00
959.9840, 11119.00
961.1000, 11158.00
962.2160, 11192.00
963.3310, 11102.00
964.4470, 11125.00
965.5620, 11057.00
966.6770, 11081.00
967.7920, 11058.08
968.9060, 10993.00
970.0210, 11048.00
971.1360, 11139.00
972.2500, 11179.00
973.3640, 11141.00
974.4780, 11236.00
975.5920, 11241.73
976.7050, 11259.00
977.8190, 11297.00
978.9320, 11387.00
980.0450, 11390.00
981.1580, 11523.00
982.2710, 11681.00
983.3840, 11843.00
984.4970, 11711.00
985.6090, 11957.00
986.7210, 12216.00
987.8330, 12364.00
988.9450, 12841.00
990.0570, 13011.00
991.1690, 13435.00
992.2800, 13955.00
993.3920, 14612.00
994.5030, 15229.45
995.6140, 15906.00
996.7250, 16723.00
997.8350, 17565.81
998.9460, 18373.00
1000.056, 19540.00
1001.167, 20631.00
1002.277, 21852.00
1003.387, 22762.00
1004.496, 24325.00
1005.606, 25346.00
1006.715, 26040.00
1007.825, 26663.00
1008.934, 27270.00
1010.043, 27278.00
1011.152, 27071.00
1012.260, 26857.00
1013.369, 26861.00
1014.477, 26787.00
1015.586, 26943.00
1016.694, 26668.00
1017.802, 26663.00
1018.909, 26455.25
1020.017, 26258.00
1021.124, 25885.00
1022.232, 25602.00
1023.339, 25133.00
1024.446, 24953.00
1025.553, 24263.00
1026.659, 23770.00
1027.766, 23158.00
1028.872, 22409.00
1029.979, 21830.00
1031.085, 21116.00
1032.191, 20035.00
1033.296, 19297.00
1034.402, 18329.00
1035.507, 17699.00
1036.613, 17015.00
1037.718, 16372.00
1038.823, 15759.00
1039.928, 15205.00
1041.032, 14575.00
1042.137, 14356.00
1043.241, 13924.00
1044.346, 13699.00
1045.450, 13305.00
1046.554, 13108.00
1047.657, 12883.00
1048.761, 12747.00
1049.864, 12743.00
1050.968, 12459.00
1052.071, 12376.00
1053.174, 12250.00
1054.277, 12061.00
1055.379, 12031.00
1056.482, 11909.00
1057.584, 11842.00
1058.687, 11918.00
1059.789, 11834.00
1060.891, 11839.24
1061.992, 11805.00
1063.094, 11816.00
1064.196, 11754.00
1065.297, 11754.00
1066.398, 11699.72
1067.499, 11659.62
1068.600, 11593.00
1069.701, 11582.00
1070.801, 11538.00
1071.902, 11524.00
1073.002, 11373.00
1074.102, 11446.00
1075.202, 11562.00
1076.302, 11421.00
1077.402, 11469.00
1078.501, 11359.00
1079.600, 11395.00
1080.700, 11362.00
1081.799, 11433.00
1082.898, 11367.18
1083.996, 11348.00
1085.095, 11293.00
1086.193, 11364.00
1087.292, 11412.00
1088.390, 11471.00
1089.488, 11487.90
1090.586, 11456.00
1091.683, 11482.00
1092.781, 11441.00
1093.878, 11381.00
1094.975, 11474.00
1096.073, 11421.00
1097.169, 11362.00
1098.266, 11476.00
1099.363, 11406.00
1100.459, 11480.00
1101.556, 11515.00
1102.652, 11450.00
1103.748, 11457.00
1104.844, 11519.00
1105.940, 11579.00
1107.035, 11543.00
1108.131, 11478.00
1109.226, 11429.00
1110.321, 11515.00
1111.416, 11445.00
1112.511, 11440.00
1113.605, 11558.00
1114.700, 11679.00
1115.794, 11489.00
1116.889, 11748.00
1117.983, 11625.00
1119.077, 11627.00
1120.170, 11813.00
1121.264, 11761.00
1122.357, 11679.00
1123.451, 11720.00
1124.544, 11714.00
1125.637, 11736.00
1126.730, 11729.51
1127.823, 11682.00
1128.915, 11689.00
1130.008, 11668.00
1131.100, 11611.00
1132.192, 11638.00
1133.284, 11514.00
1134.376, 11501.00
1135.467, 11536.00
1136.559, 11574.00
1137.650, 11637.00
1138.742, 11555.00
1139.833, 11467.00
1140.924, 11569.00
1142.014, 11706.00
1143.105, 11650.00
1144.195, 11655.00
1145.286, 11415.00
1146.376, 11622.00
1147.466, 11562.00
1148.556, 11487.00
1149.646, 11550.00
1150.735, 11423.00
1151.825, 11499.00
1152.914, 11459.00
1154.003, 11511.00
1155.092, 11585.00
1156.181, 11659.00
1157.270, 11626.00
1158.358, 11596.00
1159.447, 11627.00
1160.535, 11525.00
1161.623, 11591.00
1162.711, 11542.00
1163.799, 11523.00
1164.886, 11537.00
1165.974, 11530.00
1167.061, 11537.68
1168.148, 11562.83
1169.235, 11558.00
1170.322, 11576.00
1171.409, 11587.00
1172.496, 11589.27
1173.582, 11666.00
1174.669, 11594.00
1175.755, 11653.00
1176.841, 11647.30
1177.927, 11558.00
1179.012, 11571.00
1180.098, 11612.00
1181.183, 11534.00
1182.269, 11424.00
1183.354, 11600.00
1184.439, 11439.00
1185.524, 11571.00
1186.608, 11522.00
1187.693, 11540.00
1188.777, 11475.00
1189.862, 11517.00
1190.946, 11391.00
1192.030, 11521.00
1193.113, 11594.00
1194.197, 11495.00
1195.281, 11515.00
1196.364, 11406.00
1197.447, 11422.00
1198.530, 11481.00
1199.613, 11646.00
1200.696, 11497.00
1201.779, 11643.00
1202.861, 11502.00
1203.944, 11562.00
1205.026, 11551.00
1206.108, 11466.00
1207.190, 11558.00
1208.271, 11621.00
1209.353, 11540.00
1210.435, 11677.00
1211.516, 11582.00
1212.597, 11743.00
1213.678, 11372.00
1214.759, 11653.00
1215.840, 11521.00
1216.920, 11566.00
1218.001, 11535.00
1219.081, 11610.00
1220.161, 11643.00
1221.241, 11628.00
1222.321, 11646.00
1223.401, 11681.00
1224.480, 11646.00
1225.560, 11608.00
1226.639, 11573.00
1227.718, 11625.00
1228.797, 11673.00
1229.876, 11523.00
1230.955, 11611.00
1232.033, 11593.00
1233.112, 11707.00
1234.190, 11785.00
1235.268, 11710.00
1236.346, 11622.00
1237.424, 11687.00
1238.501, 11690.00
1239.579, 11745.00
1240.656, 11826.00
1241.733, 11706.00
1242.811, 11733.00
1243.888, 11660.00
1244.964, 11831.00
1246.041, 11817.00
1247.117, 11748.00
1248.194, 11885.00
1249.270, 11896.00
1250.346, 11880.00
1251.422, 11811.00
1252.498, 11855.00
1253.573, 11840.00
1254.649, 11887.00
1255.724, 11763.00
1256.800, 11756.00
1257.875, 11859.00
1258.950, 11791.63
1260.024, 11898.00
1261.099, 11846.00
1262.173, 11892.00
1263.248, 12019.00
1264.322, 11932.00
1265.396, 12033.00
1266.470, 11907.00
1267.544, 11853.00
1268.617, 12124.00
1269.691, 12031.00
1270.764, 11959.00
1271.837, 11931.00
1272.910, 12009.00
1273.983, 12148.00
1275.056, 12071.00
1276.129, 12161.00
1277.201, 12164.00
1278.273, 12102.00
1279.346, 12041.00
1280.418, 12371.00
1281.489, 12321.00
1282.561, 12146.00
1283.633, 12005.00
1284.704, 12381.00
1285.776, 12255.00
1286.847, 12360.00
1287.918, 12195.00
1288.989, 12352.00
1290.059, 12287.00
1291.130, 12287.00
1292.200, 12397.00
1293.271, 12316.00
1294.341, 12302.00
1295.411, 12299.00
1296.481, 12326.00
1297.551, 12241.00
1298.620, 12390.00
1299.690, 12497.00
1300.759, 12301.00
1301.828, 12244.00
1302.897, 12560.00
1303.966, 12484.00
1305.035, 12426.00
1306.103, 12450.00
1307.172, 12471.00
1308.240, 12438.87
1309.308, 12429.00
1310.376, 12412.00
1311.444, 12497.00
1312.512, 12490.00
1313.580, 12509.00
1314.647, 12570.00
1315.714, 12573.00
1316.781, 12686.00
1317.848, 12633.00
1318.915, 12654.00
1319.982, 12509.00
1321.049, 12631.00
1322.115, 12610.00
1323.181, 12469.00
1324.248, 12602.00
1325.314, 12625.00
1326.380, 12497.00
1327.445, 12679.00
1328.511, 12581.00
1329.576, 12600.00
1330.642, 12660.00
1331.707, 12671.00
1332.772, 12661.47
1333.837, 12659.00
1334.902, 12643.00
1335.966, 12648.78
1337.031, 12646.00
1338.095, 12654.00
1339.159, 12695.00
1340.223, 12694.00
1341.287, 12833.00
1342.351, 12818.00
1343.415, 12816.00
1344.478, 12748.00
1345.541, 12840.00
1346.605, 12903.00
1347.668, 12692.00
1348.731, 12894.00
1349.793, 12949.00
1350.856, 12892.00
1351.918, 12691.00
1352.981, 12907.00
1354.043, 12911.00
1355.105, 13110.00
1356.167, 13125.00
1357.229, 13052.00
1358.290, 12933.00
1359.352, 12992.00
1360.413, 12921.77
1361.475, 13080.00
1362.536, 12894.00
1363.597, 13076.00
1364.657, 13077.00
1365.718, 13055.00
1366.779, 13025.00
1367.839, 13120.00
1368.899, 13153.00
1369.959, 13163.00
1371.019, 13312.00
1372.079, 13174.00
1373.139, 13242.00
1374.198, 13184.00
1375.258, 13296.00
1376.317, 13250.00
1377.376, 13145.00
1378.435, 13343.00
1379.494, 13307.00
1380.553, 13266.00
1381.611, 13274.00
1382.670, 13313.00
1383.728, 13307.00
1384.786, 13450.00
1385.844, 13284.00
1386.902, 13421.00
1387.960, 13307.00
1389.017, 13335.00
1390.075, 13331.00
1391.132, 13390.00
1392.189, 13395.00
1393.246, 13367.00
1394.303, 13492.00
1395.360, 13302.00
1396.417, 13389.00
1397.473, 13322.00
1398.529, 13469.00
1399.585, 13484.00
1400.642, 13412.00
1401.697, 13416.00
1402.753, 13416.00
1403.809, 13413.00
1404.864, 13457.00
1405.920, 13544.00
1406.975, 13531.00
1408.030, 13629.00
1409.085, 13595.00
1410.140, 13627.00
1411.194, 13586.00
1412.249, 13620.00
1413.303, 13663.00
1414.358, 13975.00
1415.412, 13826.03
1416.466, 13916.00
1417.520, 13653.00
1418.573, 13821.00
1419.627, 13687.00
1420.680, 13815.00
1421.733, 13924.00
1422.787, 13943.00
1423.840, 13749.00
1424.892, 13809.00
1425.945, 13799.00
1426.998, 13981.00
1428.050, 13867.00
1429.103, 13626.00
1430.155, 13871.00
1431.207, 13745.00
1432.259, 13802.00
1433.310, 13888.00
1434.362, 13862.00
1435.414, 13961.00
1436.465, 13928.00
1437.516, 14012.00
1438.567, 13882.00
1439.618, 13986.00
1440.669, 13941.00
1441.720, 13938.00
1442.770, 14075.00
1443.820, 13996.00
1444.871, 14052.00
1445.921, 14003.00
1446.971, 14118.00
1448.021, 14144.00
1449.070, 14069.00
1450.120, 14169.00
1451.169, 14194.00
1452.219, 14131.00
1453.268, 14276.00
1454.317, 14228.00
1455.366, 14157.00
1456.414, 14225.00
1457.463, 14136.00
1458.511, 14208.00
1459.560, 14120.00
1460.608, 14285.00
1461.656, 14279.00
1462.704, 14291.00
1463.752, 14247.00
1464.799, 14286.00
1465.847, 14338.00
1466.894, 14356.00
1467.941, 14272.00
1468.988, 14314.00
1470.035, 14223.00
1471.082, 14344.00
1472.129, 14188.00
1473.175, 14370.00
1474.222, 14273.00
1475.268, 14357.00
1476.314, 14223.00
1477.360, 14449.00
1478.406, 14373.00
1479.452, 14495.00
1480.498, 14429.00
1481.543, 14639.00
1482.588, 14504.00
1483.633, 14475.00
1484.679, 14394.00
1485.723, 14549.00
1486.768, 14324.00
1487.813, 14509.00
1488.857, 14624.00
1489.902, 14600.00
1490.946, 14542.00
1491.990, 14560.00
1493.034, 14513.00
1494.078, 14608.00
1495.122, 14640.00
1496.165, 14647.00
1497.209, 14660.66
1498.252, 14642.00
1499.295, 14622.00
1500.338, 14652.00
1501.381, 14635.00
1502.424, 14656.80
1503.466, 14630.00
1504.509, 14686.00
1505.551, 14620.00
1506.593, 14604.00
1507.635, 14631.00
1508.677, 14718.00
1509.719, 14652.00
1510.761, 14560.00
1511.802, 14620.00
1512.844, 14720.00
1513.885, 14706.00
1514.926, 14765.00
1515.967, 14677.00
1517.008, 14889.00
1518.049, 14708.00
1519.089, 14784.00
1520.130, 14942.00
1521.170, 14693.00
1522.210, 14910.00
1523.250, 14913.00
1524.290, 14840.00
1525.330, 14897.00
1526.370, 14783.00
1527.409, 14943.00
1528.448, 14839.00
1529.488, 14963.00
1530.527, 14761.00
1531.566, 14980.00
1532.605, 14862.00
1533.643, 14908.00
1534.682, 15006.00
1535.720, 14896.00
1536.759, 14895.00
1537.797, 14928.00
1538.835, 15027.00
1539.873, 14966.00
1540.910, 14989.00
1541.948, 15087.00
1542.986, 14993.00
1544.023, 15017.00
1545.060, 14974.00
1546.097, 15024.00
1547.134, 15025.62
1548.171, 15315.00
1549.208, 15105.00
1550.244, 15103.00
1551.281, 15228.00
1552.317, 15019.00
1553.353, 15084.00
1554.389, 15154.00
1555.425, 15165.00
1556.461, 15190.00
1557.497, 15195.00
1558.532, 15110.00
1559.567, 15159.00
1560.603, 15357.00
1561.638, 15230.00
1562.673, 15168.00
1563.708, 15213.00
##END=



