##NAMES=Epidote
##RRUFFID=R050191
##IDEAL CHEMISTRY=Ca_2_Fe^3+^Al_2_(Si_2_O_7_)(SiO_4_)O(OH)
##LOCALITY=Pampa Blanca, Castrovirreyna Province, Huancavelica Department, Peru
##OWNER=RRUFF
##SOURCE=Dave Bunk Minerals
##DESCRIPTION=Cluster of green elongated prismatic crystals
##STATUS=The identification of this mineral has been confirmed by X-ray diffraction and chemical analysis
##URL=rruff.info/R050191
##MEASURED CHEMISTRY=Ca_2.00_Al_2.00_(Fe^3+^_0.84_Al_0.16_)(SiO_4_)(Si_2_O_7_)O(OH)
##PIN_ID=L01284
##ORIENTATION=Laser parallel to -a* (-1 0 0). Fiducial mark perpendicular to laser is parallel to b [0 1 0]
53.91000, 1488.000
55.14900, 1450.000
56.38700, 1420.000
57.62600, 1354.000
58.86400, 1420.000
60.10300, 1479.000
61.34100, 1444.000
62.57900, 1434.000
63.81700, 1436.000
65.05400, 1484.000
66.29200, 1518.000
67.52900, 1763.000
68.76700, 2121.000
70.00400, 2425.000
71.24100, 2394.000
72.47700, 2477.000
73.71400, 2758.000
74.95100, 3140.000
76.18700, 3520.000
77.42300, 3856.000
78.65900, 4215.000
79.89500, 4916.000
81.13100, 5747.000
82.36700, 6917.000
83.60200, 8573.000
84.83700, 10013.00
86.07200, 11414.00
87.30800, 13355.00
88.54200, 14924.00
89.77700, 16206.00
91.01200, 16607.00
92.24600, 16648.00
93.48000, 16048.00
94.71400, 15899.00
95.94800, 16206.00
97.18200, 15805.00
98.41600, 15404.00
99.64900, 14357.00
100.8830, 12934.00
102.1160, 11176.00
103.3490, 9966.000
104.5820, 9457.000
105.8150, 9482.000
107.0470, 10627.00
108.2800, 9636.742
109.5120, 10976.00
110.7440, 8766.000
111.9760, 8085.000
113.2080, 8026.000
114.4400, 8080.000
115.6710, 8400.000
116.9030, 8182.000
118.1340, 8131.000
119.3650, 7907.000
120.5960, 7938.000
121.8270, 8206.000
123.0580, 8407.000
124.2880, 8675.000
125.5190, 8723.000
126.7490, 8864.000
127.9790, 9287.000
129.2090, 9572.000
130.4390, 9852.000
131.6680, 9915.000
132.8980, 9831.000
134.1270, 9762.000
135.3560, 9704.000
136.5850, 9810.000
137.8140, 9754.000
139.0430, 10046.00
140.2710, 10409.00
141.5000, 10366.00
142.7280, 10847.00
143.9560, 11503.00
145.1840, 11902.00
146.4120, 12427.00
147.6390, 12513.00
148.8670, 12215.00
150.0940, 12259.00
151.3210, 12382.00
152.5490, 12537.00
153.7750, 12816.00
155.0020, 13534.00
156.2290, 14495.00
157.4550, 15607.00
158.6810, 16856.00
159.9080, 18794.00
161.1340, 20751.00
162.3590, 23199.00
163.5850, 25541.00
164.8110, 27466.00
166.0360, 28828.00
167.2610, 28869.00
168.4860, 28932.00
169.7110, 28146.00
170.9360, 27330.00
172.1610, 26103.00
173.3850, 24580.00
174.6100, 22604.00
175.8340, 20833.00
177.0580, 18963.00
178.2820, 17219.00
179.5050, 15969.00
180.7290, 14634.00
181.9520, 13825.00
183.1760, 13145.00
184.3990, 12731.00
185.6220, 12303.00
186.8450, 12086.00
188.0670, 12017.00
189.2900, 11666.00
190.5120, 11577.00
191.7340, 11597.00
192.9560, 11476.00
194.1780, 11515.00
195.4000, 11700.00
196.6220, 11860.00
197.8430, 12142.00
199.0640, 12444.00
200.2860, 12959.00
201.5070, 13027.00
202.7270, 13075.00
203.9480, 12754.00
205.1690, 12296.00
206.3890, 11730.00
207.6090, 11437.00
208.8290, 11150.00
210.0490, 10839.00
211.2690, 10659.00
212.4890, 10510.00
213.7080, 10530.83
214.9280, 10778.00
216.1470, 10803.00
217.3660, 11110.00
218.5850, 11412.00
219.8030, 11692.00
221.0220, 12347.00
222.2400, 12827.00
223.4590, 13506.00
224.6770, 14338.00
225.8950, 15433.00
227.1120, 16627.00
228.3300, 17707.00
229.5480, 18849.00
230.7650, 19977.00
231.9820, 20751.00
233.1990, 21628.00
234.4160, 22740.00
235.6330, 23784.00
236.8490, 25208.00
238.0660, 26861.00
239.2820, 28650.00
240.4980, 30669.00
241.7140, 32289.00
242.9300, 32987.00
244.1460, 32647.00
245.3610, 31105.00
246.5770, 28712.00
247.7920, 25969.00
249.0070, 23481.00
250.2220, 21011.00
251.4370, 18949.00
252.6510, 17594.00
253.8660, 16323.00
255.0800, 15567.00
256.2940, 15072.00
257.5080, 14785.00
258.7220, 14360.24
259.9360, 13986.03
261.1490, 14000.00
262.3630, 13484.00
263.5760, 13589.00
264.7890, 13874.00
266.0020, 14024.00
267.2150, 14536.00
268.4270, 15009.00
269.6400, 15484.00
270.8520, 16251.00
272.0640, 17208.00
273.2760, 17938.00
274.4880, 18490.00
275.7000, 18578.00
276.9120, 18371.00
278.1230, 17755.00
279.3340, 17073.00
280.5450, 16618.00
281.7560, 16361.00
282.9670, 16535.00
284.1780, 16854.00
285.3880, 17229.00
286.5980, 17942.00
287.8090, 18887.00
289.0190, 19797.00
290.2290, 20909.00
291.4380, 21752.00
292.6480, 22687.00
293.8570, 22977.00
295.0670, 22544.00
296.2760, 21905.00
297.4850, 20859.00
298.6930, 19810.00
299.9020, 18914.00
301.1110, 17988.00
302.3190, 17237.00
303.5270, 16566.20
304.7350, 15949.00
305.9430, 15561.00
307.1510, 15251.00
308.3580, 15119.00
309.5660, 15096.00
310.7730, 15084.00
311.9800, 15515.00
313.1870, 15767.00
314.3940, 15708.00
315.6010, 15960.00
316.8070, 16015.00
318.0130, 16002.00
319.2200, 16004.00
320.4260, 16019.00
321.6310, 16389.00
322.8370, 17035.00
324.0430, 17476.00
325.2480, 18161.00
326.4540, 18593.00
327.6590, 19128.00
328.8640, 19678.00
330.0680, 20080.00
331.2730, 20581.00
332.4780, 20833.00
333.6820, 21238.00
334.8860, 21422.00
336.0900, 22117.00
337.2940, 22960.00
338.4980, 24197.00
339.7010, 25884.00
340.9050, 28155.00
342.1080, 30952.00
343.3110, 33881.00
344.5140, 37118.00
345.7170, 40700.00
346.9200, 43286.00
348.1220, 45151.00
349.3240, 45361.00
350.5270, 43734.00
351.7290, 41033.00
352.9310, 37143.00
354.1320, 33402.00
355.3340, 29664.00
356.5350, 26247.00
357.7370, 23605.00
358.9380, 21525.00
360.1390, 19573.00
361.3400, 18531.00
362.5400, 17461.00
363.7410, 16950.00
364.9410, 16496.00
366.1410, 15957.00
367.3410, 15404.00
368.5410, 14812.00
369.7410, 14326.00
370.9400, 13885.00
372.1400, 13182.00
373.3390, 12462.00
374.5380, 12135.00
375.7370, 11664.24
376.9360, 11344.00
378.1350, 11146.00
379.3330, 10982.00
380.5310, 10907.00
381.7300, 10990.00
382.9280, 11227.00
384.1260, 11635.00
385.3230, 11784.52
386.5210, 12101.86
387.7180, 12239.00
388.9160, 12567.00
390.1130, 12690.00
391.3100, 12762.00
392.5060, 12408.00
393.7030, 12186.00
394.9000, 11844.00
396.0960, 11594.00
397.2920, 11219.00
398.4880, 11044.00
399.6840, 10866.00
400.8800, 10860.00
402.0750, 10754.00
403.2710, 10795.00
404.4660, 10873.00
405.6610, 10969.00
406.8560, 11046.00
408.0510, 11392.00
409.2450, 11657.00
410.4400, 11871.00
411.6340, 12600.00
412.8280, 13132.00
414.0220, 13751.00
415.2160, 14587.00
416.4100, 15444.00
417.6030, 16465.00
418.7970, 17841.00
419.9900, 22159.00
421.1830, 22434.87
422.3760, 24695.00
423.5690, 24984.00
424.7610, 26355.00
425.9540, 27336.00
427.1460, 28456.00
428.3380, 29226.00
429.5300, 30626.00
430.7220, 32133.00
431.9140, 33849.00
433.1050, 35666.00
434.2970, 37067.00
435.4880, 38254.00
436.6790, 38864.00
437.8700, 38953.00
439.0610, 39105.00
440.2510, 39810.00
441.4420, 40372.00
442.6320, 41867.00
443.8220, 44201.00
445.0120, 47505.00
446.2020, 51459.00
447.3910, 55629.00
448.5810, 59210.00
449.7700, 61595.00
450.9600, 62258.00
452.1490, 61662.00
453.3370, 60601.00
454.5260, 59487.00
455.7150, 57612.00
456.9030, 55013.00
458.0910, 52127.00
459.2800, 48860.00
460.4670, 44442.00
461.6550, 40531.00
462.8430, 36234.00
464.0300, 32416.00
465.2180, 28941.00
466.4050, 26198.00
467.5920, 24129.00
468.7790, 22125.00
469.9650, 20427.00
471.1520, 19003.00
472.3380, 18059.00
473.5250, 17187.00
474.7110, 16738.00
475.8970, 16250.00
477.0820, 15868.00
478.2680, 15636.00
479.4540, 15476.00
480.6390, 15420.00
481.8240, 15530.00
483.0090, 15564.00
484.1940, 15846.00
485.3780, 16151.00
486.5630, 16641.00
487.7470, 17115.00
488.9320, 17673.00
490.1160, 18382.00
491.3000, 19405.00
492.4830, 20330.00
493.6670, 21320.00
494.8500, 22328.00
496.0340, 23741.00
497.2170, 24989.00
498.4000, 25836.00
499.5820, 26511.00
500.7650, 26875.00
501.9480, 26777.00
503.1300, 26014.00
504.3120, 25686.00
505.4940, 25114.00
506.6760, 24448.00
507.8580, 23900.00
509.0390, 22963.00
510.2210, 22105.00
511.4020, 20565.00
512.5830, 19278.00
513.7640, 17476.00
514.9450, 16160.00
516.1250, 15348.00
517.3060, 14427.00
518.4860, 14044.00
519.6660, 13880.00
520.8460, 13499.11
522.0260, 13361.26
523.2060, 13179.00
524.3850, 12911.00
525.5650, 12568.00
526.7440, 11969.00
527.9230, 11472.00
529.1020, 11140.00
530.2810, 10700.00
531.4590, 10600.00
532.6380, 10268.00
533.8160, 10305.00
534.9940, 10116.00
536.1720, 10107.00
537.3500, 10024.00
538.5270, 10018.00
539.7050, 10000.00
540.8820, 9980.000
542.0590, 10028.00
543.2360, 10084.06
544.4130, 10185.00
545.5900, 10328.00
546.7660, 10500.00
547.9430, 10765.00
549.1190, 11156.00
550.2950, 11579.00
551.4710, 11980.00
552.6470, 12718.00
553.8220, 13606.00
554.9980, 14565.00
556.1730, 16234.00
557.3480, 17864.00
558.5230, 20298.00
559.6980, 22557.00
560.8730, 25587.00
562.0470, 29057.00
563.2220, 32721.00
564.3960, 34707.00
565.5700, 34590.00
566.7440, 32208.00
567.9170, 28433.00
569.0910, 24635.00
570.2640, 21531.00
571.4380, 19133.00
572.6110, 17461.00
573.7840, 16225.00
574.9570, 15536.00
576.1290, 15116.00
577.3020, 15477.00
578.4740, 15734.00
579.6460, 16106.00
580.8180, 16939.00
581.9900, 17828.00
583.1620, 18823.00
584.3330, 19809.00
585.5040, 21013.00
586.6760, 22154.00
587.8470, 23261.00
589.0180, 24540.00
590.1880, 25698.00
591.3590, 27246.00
592.5290, 29264.00
593.7000, 31267.00
594.8700, 33537.00
596.0400, 35617.00
597.2090, 37211.00
598.3790, 38108.00
599.5490, 37597.00
600.7180, 37050.00
601.8870, 35467.00
603.0560, 33661.00
604.2250, 31894.00
605.3940, 30256.00
606.5620, 28881.00
607.7300, 27762.00
608.8990, 27113.00
610.0670, 26860.00
611.2350, 26148.00
612.4020, 25418.00
613.5700, 24376.00
614.7370, 23073.00
615.9050, 21586.00
617.0720, 20095.00
618.2390, 18607.00
619.4060, 17327.00
620.5720, 15808.00
621.7390, 14811.00
622.9050, 13901.00
624.0710, 13177.00
625.2370, 12445.00
626.4030, 12044.00
627.5690, 11704.00
628.7340, 11308.00
629.9000, 10990.00
631.0650, 10695.00
632.2300, 10577.00
633.3950, 10351.00
634.5600, 10294.00
635.7240, 10025.00
636.8890, 9840.000
638.0530, 9749.000
639.2170, 9690.000
640.3810, 9553.000
641.5450, 9549.000
642.7080, 9476.000
643.8720, 9280.000
645.0350, 9378.000
646.1980, 9295.000
647.3610, 9209.000
648.5240, 9060.000
649.6870, 9087.000
650.8490, 9081.000
652.0120, 9134.000
653.1740, 9005.000
654.3360, 8903.000
655.4980, 8780.000
656.6600, 8880.000
657.8210, 8909.000
658.9830, 8970.000
660.1440, 8866.000
661.3050, 8930.000
662.4660, 9022.000
663.6270, 8781.000
664.7870, 8876.000
665.9480, 8875.000
667.1080, 8858.000
668.2680, 8921.000
669.4280, 8873.000
670.5880, 8893.000
671.7480, 8912.000
672.9070, 9015.000
674.0670, 9072.000
675.2260, 9114.000
676.3850, 9283.000
677.5440, 9439.000
678.7030, 9618.000
679.8610, 9734.000
681.0200, 9836.000
682.1780, 10007.00
683.3360, 10321.00
684.4940, 10493.00
685.6520, 10616.00
686.8090, 10647.00
687.9670, 10716.00
689.1240, 10659.51
690.2810, 10638.00
691.4380, 10426.00
692.5950, 10275.00
693.7520, 10013.00
694.9080, 9843.000
696.0650, 9572.000
697.2210, 9525.000
698.3770, 9510.000
699.5330, 9234.000
700.6880, 9156.000
701.8440, 8932.000
702.9990, 8977.000
704.1550, 8902.000
705.3100, 8664.000
706.4650, 8515.000
707.6190, 8548.000
708.7740, 8326.000
709.9290, 8335.000
711.0830, 8253.000
712.2370, 8154.000
713.3910, 8015.000
714.5450, 7961.000
715.6980, 8060.000
716.8520, 7973.000
718.0050, 7926.000
719.1580, 7837.000
720.3110, 7844.000
721.4640, 7766.000
722.6170, 7800.000
723.7700, 7800.000
724.9220, 7788.000
726.0740, 7795.573
727.2260, 7713.000
728.3780, 7729.000
729.5300, 7708.000
730.6810, 7562.000
731.8330, 7754.000
732.9840, 7671.000
734.1350, 7642.000
735.2860, 7777.000
736.4370, 7639.000
737.5880, 7812.000
738.7380, 7688.000
739.8880, 7579.000
741.0390, 7754.000
742.1890, 7779.000
743.3380, 7694.000
744.4880, 7816.000
745.6380, 7830.000
746.7870, 7886.000
747.9360, 7946.000
749.0850, 7927.000
750.2340, 7937.000
751.3830, 8073.000
752.5310, 8197.000
753.6800, 8143.000
754.8280, 8237.000
755.9760, 8273.000
757.1240, 8591.000
758.2720, 8762.000
759.4190, 8908.000
760.5670, 9036.000
761.7140, 9262.000
762.8610, 9377.000
764.0080, 9560.000
765.1550, 9690.000
766.3020, 9718.000
767.4480, 9906.000
768.5950, 9885.000
769.7410, 9772.000
770.8870, 9722.000
772.0330, 9507.000
773.1780, 9401.000
774.3240, 9123.000
775.4690, 8914.000
776.6140, 8816.000
777.7590, 8537.000
778.9040, 8533.000
780.0490, 8319.000
781.1940, 8214.000
782.3380, 8213.000
783.4820, 8259.000
784.6260, 8192.000
785.7700, 8085.000
786.9140, 8027.000
788.0580, 8099.000
789.2010, 8172.000
790.3450, 8191.000
791.4880, 8069.000
792.6310, 8216.000
793.7730, 8119.000
794.9160, 8207.000
796.0590, 8373.000
797.2010, 8301.000
798.3430, 8375.000
799.4850, 8331.000
800.6270, 8457.000
801.7690, 8452.000
802.9100, 8484.000
804.0520, 8582.000
805.1930, 8736.000
806.3340, 8610.000
807.4750, 8781.000
808.6160, 8775.000
809.7560, 8801.000
810.8970, 8959.000
812.0370, 8965.000
813.1770, 9114.000
814.3170, 9041.000
815.4570, 9032.000
816.5960, 9117.000
817.7360, 9182.000
818.8750, 9232.203
820.0140, 9321.000
821.1530, 9344.000
822.2920, 9418.000
823.4310, 9415.000
824.5690, 9717.000
825.7070, 9663.000
826.8460, 9890.000
827.9840, 9893.000
829.1220, 10017.00
830.2590, 10093.00
831.3970, 10199.00
832.5340, 10363.00
833.6710, 10314.00
834.8080, 10394.00
835.9450, 10393.00
837.0820, 10533.00
838.2190, 10627.00
839.3550, 10794.00
840.4910, 10909.00
841.6270, 10950.00
842.7630, 11199.00
843.8990, 11275.00
845.0350, 11464.00
846.1700, 11808.00
847.3060, 11823.00
848.4410, 12063.00
849.5760, 12396.00
850.7100, 12692.68
851.8450, 13282.00
852.9800, 13571.00
854.1140, 14304.00
855.2480, 14881.00
856.3820, 15771.00
857.5160, 16342.00
858.6500, 17273.00
859.7830, 18200.00
860.9170, 19185.00
862.0500, 20681.00
863.1830, 21750.00
864.3160, 22765.00
865.4480, 23510.00
866.5810, 24222.00
867.7130, 24823.00
868.8460, 25540.00
869.9780, 26382.00
871.1100, 26773.00
872.2410, 27916.00
873.3730, 28992.00
874.5050, 30189.00
875.6360, 31626.00
876.7670, 33041.00
877.8980, 34566.00
879.0290, 36170.00
880.1590, 37694.00
881.2900, 39292.00
882.4200, 40599.00
883.5500, 42016.00
884.6800, 43718.00
885.8100, 44720.00
886.9400, 45129.00
888.0690, 44825.00
889.1990, 43633.00
890.3280, 41207.00
891.4570, 38858.00
892.5860, 35655.00
893.7140, 33034.00
894.8430, 30692.00
895.9710, 28622.00
897.1000, 27215.00
898.2280, 25986.00
899.3560, 25056.00
900.4830, 24594.00
901.6110, 24631.00
902.7380, 24738.00
903.8660, 24966.00
904.9930, 25619.00
906.1200, 26375.00
907.2460, 27488.00
908.3730, 28895.00
909.5000, 30232.00
910.6260, 31741.00
911.7520, 33481.00
912.8780, 34822.00
914.0040, 36114.00
915.1290, 36816.00
916.2550, 36639.00
917.3800, 36124.00
918.5050, 35095.00
919.6300, 33221.00
920.7550, 30852.00
921.8800, 28684.00
923.0040, 26421.00
924.1290, 24163.00
925.2530, 22469.00
926.3770, 20695.00
927.5010, 19337.00
928.6250, 18046.00
929.7480, 17259.00
930.8720, 16357.00
931.9950, 15438.00
933.1180, 14764.00
934.2410, 14215.00
935.3640, 13705.00
936.4860, 13292.00
937.6090, 12889.30
938.7310, 12537.00
939.8530, 12255.00
940.9750, 12061.00
942.0970, 11855.00
943.2180, 11628.00
944.3400, 11461.00
945.4610, 11286.00
946.5820, 11187.00
947.7030, 11106.00
948.8240, 10930.00
949.9450, 10968.00
951.0650, 10902.00
952.1860, 10850.00
953.3060, 10781.00
954.4260, 10873.00
955.5460, 10799.00
956.6650, 10782.00
957.7850, 10772.00
958.9040, 10644.00
960.0230, 10713.00
961.1420, 10696.00
962.2610, 10754.00
963.3800, 10673.00
964.4990, 10755.00
965.6170, 10834.00
966.7350, 10886.00
967.8530, 11008.00
968.9710, 11226.00
970.0890, 11500.00
971.2070, 11764.00
972.3240, 12096.00
973.4410, 12572.00
974.5580, 13073.00
975.6750, 13419.00
976.7920, 14066.00
977.9090, 14740.00
979.0250, 15093.00
980.1410, 15218.00
981.2580, 15095.00
982.3740, 14998.00
983.4890, 14299.00
984.6050, 13825.00
985.7200, 12970.00
986.8360, 12517.00
987.9510, 12100.00
989.0660, 11494.00
990.1810, 11244.00
991.2950, 10828.00
992.4100, 10814.00
993.5240, 10646.00
994.6390, 10269.00
995.7530, 10158.00
996.8660, 10129.00
997.9800, 10020.00
999.0940, 9962.000
1000.207, 9987.000
1001.320, 10003.00
1002.433, 9902.000
1003.546, 9870.000
1004.659, 9932.000
1005.772, 9984.000
1006.884, 9881.000
1007.996, 10083.00
1009.108, 10266.00
1010.220, 10354.00
1011.332, 10816.00
1012.444, 10968.00
1013.555, 11342.00
1014.666, 11907.00
1015.777, 12425.00
1016.888, 12868.00
1017.999, 13317.00
1019.110, 13775.00
1020.220, 13753.71
1021.331, 13802.00
1022.441, 13475.00
1023.551, 13090.00
1024.661, 12651.00
1025.770, 12252.00
1026.880, 11902.72
1027.989, 11622.67
1029.098, 11295.00
1030.207, 11171.00
1031.316, 11045.00
1032.425, 10860.00
1033.533, 11042.00
1034.642, 11043.00
1035.750, 11080.57
1036.858, 11168.15
1037.966, 11180.00
1039.073, 11291.00
1040.181, 11237.00
1041.288, 11331.00
1042.396, 11253.16
1043.503, 11192.00
1044.610, 11110.00
1045.716, 11039.00
1046.823, 10950.68
1047.929, 10850.00
1049.036, 10754.00
1050.142, 10692.01
1051.248, 10569.00
1052.353, 10561.00
1053.459, 10466.00
1054.564, 10415.00
1055.670, 10508.00
1056.775, 10575.00
1057.880, 10637.00
1058.985, 10660.00
1060.089, 10654.38
1061.194, 10798.00
1062.298, 10598.00
1063.402, 10595.00
1064.506, 10578.00
1065.610, 10649.00
1066.713, 10526.00
1067.817, 10562.00
1068.920, 10650.00
1070.023, 10697.00
1071.126, 10887.00
1072.229, 11054.00
1073.332, 11347.00
1074.435, 11696.00
1075.537, 12123.00
1076.639, 12530.00
1077.741, 13098.00
1078.843, 13843.00
1079.945, 14507.00
1081.046, 15161.00
1082.148, 16371.00
1083.249, 17378.00
1084.350, 18265.00
1085.451, 19356.00
1086.551, 19577.00
1087.652, 19371.00
1088.752, 18849.00
1089.853, 17792.00
1090.953, 16350.00
1092.053, 15042.00
1093.152, 13902.00
1094.252, 12809.00
1095.351, 11936.00
1096.451, 11439.00
1097.550, 10823.00
1098.649, 10616.00
1099.748, 10400.00
1100.846, 10203.00
1101.945, 10025.36
1103.043, 9869.469
1104.141, 9716.000
1105.239, 9659.000
1106.337, 9574.000
1107.434, 9610.000
1108.532, 9599.000
1109.629, 9419.000
1110.726, 9382.000
1111.823, 9497.000
1112.920, 9397.000
1114.017, 9280.000
1115.113, 9352.000
1116.210, 9300.000
1117.306, 9316.000
1118.402, 9354.000
1119.498, 9297.000
1120.593, 9357.000
1121.689, 9273.000
1122.784, 9265.000
1123.879, 9151.000
1124.974, 9133.000
1126.069, 9236.000
1127.164, 9165.000
1128.259, 9183.000
1129.353, 8900.000
1130.447, 8933.000
1131.541, 8825.000
1132.635, 8830.000
1133.729, 8853.000
1134.822, 8932.000
1135.916, 8877.000
1137.009, 8840.000
1138.102, 8847.000
1139.195, 8741.000
1140.288, 8798.000
1141.380, 8728.744
1142.473, 8828.000
1143.565, 8663.000
1144.657, 8621.000
1145.749, 8627.000
1146.841, 8655.000
1147.932, 8613.000
1149.024, 8661.000
1150.115, 8510.000
1151.206, 8616.000
1152.297, 8629.000
1153.388, 8469.000
1154.479, 8554.000
1155.569, 8645.000
1156.659, 8563.000
1157.750, 8517.000
1158.839, 8531.000
1159.929, 8413.000
1161.019, 8484.000
1162.108, 8508.000
1163.198, 8549.000
1164.287, 8542.719
1165.376, 8529.000
1166.465, 8520.000
1167.553, 8436.000
1168.642, 8454.000
1169.730, 8430.557
1170.818, 8588.000
1171.906, 8464.000
1172.994, 8481.000
1174.082, 8584.000
1175.170, 8486.000
1176.257, 8562.000
1177.344, 8487.000
1178.431, 8472.000
1179.518, 8603.000
1180.605, 8488.000
1181.691, 8584.000
1182.778, 8492.000
1183.864, 8596.000
1184.950, 8490.000
1186.036, 8467.000
1187.122, 8540.000
1188.207, 8405.000
1189.292, 8465.000
1190.378, 8466.000
1191.463, 8422.000
1192.548, 8598.000
1193.632, 8449.000
1194.717, 8457.000
1195.801, 8409.000
1196.886, 8511.000
1197.970, 8406.000
1199.054, 8514.000
1200.137, 8429.000
1201.221, 8456.000
1202.305, 8489.000
1203.388, 8420.000
1204.471, 8436.000
1205.554, 8367.000
1206.637, 8377.957
1207.719, 8362.979
1208.802, 8396.000
1209.884, 8358.000
1210.966, 8371.000
1212.048, 8389.000
1213.130, 8320.000
1214.212, 8335.000
1215.293, 8408.000
1216.374, 8295.000
1217.456, 8371.000
1218.536, 8525.000
1219.617, 8415.000
1220.698, 8479.458
1221.778, 8427.000
1222.859, 8445.000
1223.939, 8314.000
1225.019, 8293.000
1226.099, 8289.000
1227.178, 8331.000
1228.258, 8325.000
1229.337, 8351.000
1230.417, 8364.996
1231.496, 8312.000
1232.574, 8383.000
1233.653, 8282.000
1234.732, 8267.000
1235.810, 8298.000
1236.888, 8305.000
1237.966, 8322.000
1239.044, 8264.000
1240.122, 8241.000
1241.199, 8244.000
1242.277, 8235.000
1243.354, 8262.000
1244.431, 8230.000
1245.508, 8281.000
1246.585, 8255.000
1247.661, 8277.000
1248.738, 8398.000
1249.814, 8273.000
1250.890, 8437.000
1251.966, 8358.878
1253.042, 8207.000
1254.117, 8287.000
1255.193, 8175.000
1256.268, 8182.000
1257.343, 8166.000
1258.418, 8131.000
1259.493, 8092.000
1260.567, 8385.000
1261.642, 8277.000
1262.716, 8311.000
1263.790, 8252.000
1264.864, 8247.000
1265.938, 8206.000
1267.011, 8209.610
1268.085, 8193.000
1269.158, 8246.000
1270.231, 8268.000
1271.304, 8325.000
1272.377, 8195.000
1273.450, 8200.000
1274.522, 8145.000
1275.594, 8250.000
1276.666, 8275.000
1277.738, 8167.000
1278.810, 8280.000
1279.882, 8221.000
1280.953, 8177.000
1282.025, 8249.000
1283.096, 8210.000
1284.167, 8204.000
1285.238, 8388.000
1286.308, 8226.000
1287.379, 8272.000
1288.449, 8118.000
1289.519, 8399.000
1290.589, 8221.000
1291.659, 8266.000
1292.729, 8354.000
1293.798, 8277.000
1294.868, 8191.000
1295.937, 8239.000
1297.006, 8283.000
1298.075, 8135.000
1299.143, 8313.000
1300.212, 8255.000
1301.280, 8171.000
1302.348, 8246.000
1303.416, 8233.000
1304.484, 8259.000
1305.552, 8219.000
1306.620, 8278.000
1307.687, 8373.000
1308.754, 8269.000
1309.821, 8300.000
1310.888, 8235.000
1311.955, 8326.000
1313.021, 8304.000
1314.088, 8275.000
1315.154, 8176.000
1316.220, 8264.000
1317.286, 8236.000
1318.352, 8237.000
1319.417, 8244.000
1320.483, 8240.000
1321.548, 8212.000
1322.613, 8293.000
1323.678, 8366.000
1324.743, 8314.000
1325.807, 8369.000
1326.872, 8247.000
1327.936, 8293.000
1329.000, 8246.000
1330.064, 8429.000
1331.128, 8234.000
1332.191, 8253.000
1333.255, 8269.000
1334.318, 8199.000
1335.381, 8326.000
1336.444, 8328.000
1337.507, 8290.000
1338.569, 8308.000
1339.632, 8241.000
1340.694, 8233.000
1341.756, 8259.000
1342.818, 8305.000
1343.880, 8375.000
1344.941, 8302.000
1346.003, 8389.000
1347.064, 8304.000
1348.125, 8340.000
1349.186, 8408.000
1350.247, 8358.000
1351.308, 8415.000
1352.368, 8370.000
1353.428, 8297.000
1354.489, 8420.000
1355.549, 8397.000
1356.608, 8457.000
1357.668, 8380.000
1358.727, 8439.000
1359.787, 8435.000
1360.846, 8399.000
1361.905, 8389.000
1362.964, 8374.135
1364.022, 8417.000
1365.081, 8341.000
1366.139, 8409.000
1367.197, 8385.000
1368.255, 8487.000
1369.313, 8461.000
1370.371, 8407.000
1371.428, 8380.000
1372.486, 8410.000
1373.543, 8467.000
1374.600, 8364.000
1375.657, 8470.000
1376.713, 8421.000
1377.770, 8404.000
1378.826, 8417.000
1379.882, 8352.000
1380.938, 8439.000
1381.994, 8373.000
1383.050, 8347.000
1384.106, 8455.000
1385.161, 8533.000
1386.216, 8492.000
1387.271, 8383.000
1388.326, 8359.000
1389.381, 8326.000
1390.435, 8360.000
1391.490, 8326.000
1392.544, 8345.009
1393.598, 8426.000
1394.652, 8356.000
1395.705, 8372.000
1396.759, 8340.000
1397.812, 8301.000
1398.866, 8441.000
1399.919, 8321.000
1400.972, 8406.000
1402.024, 8317.000
1403.077, 8498.000
1404.129, 8443.000
1405.181, 8434.000
1406.233, 8445.000
1407.285, 8377.000
1408.337, 8490.000
1409.389, 8325.000
1410.440, 8360.000
1411.491, 8428.000
1412.542, 8368.000
1413.593, 8377.000
1414.644, 8306.000
1415.695, 8453.000
1416.745, 8427.000
1417.795, 8432.000
1418.845, 8473.000
1419.895, 8420.000
1420.945, 8378.000
1421.995, 8318.000
1423.044, 8409.000
1424.093, 8347.000
1425.142, 8377.000
1426.191, 8332.000
1427.240, 8439.000
1428.289, 8421.000
1429.337, 8537.000
1430.385, 8463.000
1431.433, 8321.000
1432.481, 8447.000
1433.529, 8350.000
1434.577, 8295.000
1435.624, 8409.000
1436.672, 8473.000
1437.719, 8403.000
1438.766, 8518.000
1439.812, 8412.000
1440.859, 8481.000
1441.905, 8477.000
1442.952, 8397.000
1443.998, 8477.000
1445.044, 8472.000
1446.090, 8461.239
1447.135, 8560.000
1448.181, 8456.000
1449.226, 8447.000
1450.271, 8434.000
1451.316, 8542.000
1452.361, 8460.000
1453.405, 8571.000
1454.450, 8474.000
1455.494, 8436.000
1456.538, 8397.000
1457.582, 8575.000
1458.626, 8503.000
1459.670, 8452.000
1460.713, 8332.000
1461.757, 8364.281
1462.800, 8518.000
1463.843, 8418.000
1464.886, 8527.000
1465.928, 8572.000
1466.971, 8529.000
1468.013, 8456.000
1469.055, 8461.223
1470.097, 8542.000
1471.139, 8363.000
1472.181, 8604.000
1473.222, 8492.000
1474.263, 8463.000
1475.305, 8412.000
1476.346, 8515.000
1477.386, 8544.000
1478.427, 8478.000
1479.468, 8432.000
1480.508, 8462.000
1481.548, 8514.000
1482.588, 8543.000
1483.628, 8589.000
1484.668, 8646.000
1485.707, 8552.000
1486.747, 8516.000
1487.786, 8481.000
1488.825, 8539.000
1489.864, 8480.000
1490.902, 8482.000
1491.941, 8576.000
1492.979, 8541.000
1494.017, 8528.000
1495.055, 8521.000
1496.093, 8496.000
1497.131, 8476.000
1498.168, 8508.000
1499.206, 8503.132
1500.243, 8493.000
1501.280, 8532.000
1502.317, 8546.000
1503.354, 8545.000
1504.390, 8664.000
1505.426, 8603.000
1506.463, 8546.000
1507.499, 8628.000
1508.535, 8576.000
1509.570, 8537.000
1510.606, 8625.000
1511.641, 8711.000
1512.676, 8541.000
1513.711, 8544.000
1514.746, 8691.000
1515.781, 8641.000
1516.816, 8587.000
1517.850, 8583.000
1518.884, 8693.000
1519.918, 8600.000
1520.952, 8650.000
1521.986, 8530.000
1523.019, 8544.983
1524.053, 8604.000
1525.086, 8543.000
1526.119, 8564.000
1527.152, 8581.000
1528.185, 8598.000
1529.217, 8630.000
1530.250, 8634.304
1531.282, 8732.000
1532.314, 8653.000
1533.346, 8637.000
1534.377, 8649.000
1535.409, 8635.683
1536.440, 8688.000
1537.472, 8680.000
1538.503, 8712.000
1539.534, 8751.458
1540.564, 8701.000
1541.595, 8705.000
1542.625, 8680.000
1543.656, 8671.813
1544.686, 8610.000
1545.716, 8653.000
1546.745, 8696.000
1547.775, 8660.000
1548.804, 8562.000
1549.834, 8652.000
1550.863, 8770.000
1551.892, 8689.000
1552.920, 8896.000
1553.949, 8886.000
1554.977, 8844.000
1556.006, 8744.000
1557.034, 8722.000
1558.062, 8675.000
1559.089, 8688.000
1560.117, 8661.000
1561.144, 8670.000
1562.172, 8700.855
1563.199, 8775.000
1564.226, 8758.000
1565.252, 8767.000
1566.279, 8752.000
1567.305, 8753.000
1568.332, 8738.000
1569.358, 8706.000
1570.384, 8695.000
1571.409, 8800.000
1572.435, 8803.000
##END=



