##NAMES=Epidote
##RRUFFID=R050191
##IDEAL CHEMISTRY=Ca_2_Fe^3+^Al_2_(Si_2_O_7_)(SiO_4_)O(OH)
##LOCALITY=Pampa Blanca, Castrovirreyna Province, Huancavelica Department, Peru
##OWNER=RRUFF
##SOURCE=Dave Bunk Minerals
##DESCRIPTION=Cluster of green elongated prismatic crystals
##STATUS=The identification of this mineral has been confirmed by X-ray diffraction and chemical analysis
##URL=rruff.info/R050191
##MEASURED CHEMISTRY=Ca_2.00_Al_2.00_(Fe^3+^_0.84_Al_0.16_)(SiO_4_)(Si_2_O_7_)O(OH)
##PIN_ID=L01970
##ORIENTATION=Laser parallel to b* (0 1 0). Fiducial mark perpendicular to laser is parallel to c [0 0 1]
53.91000, 610.0000
55.14900, 624.0000
56.38700, 638.0000
57.62600, 653.0000
58.86400, 683.0000
60.10300, 744.0000
61.34100, 817.0000
62.57900, 862.0000
63.81700, 1002.000
65.05400, 1099.000
66.29200, 1290.000
67.52900, 1535.000
68.76700, 2006.000
70.00400, 2380.000
71.24100, 2654.000
72.47700, 2983.000
73.71400, 3497.000
74.95100, 4168.000
76.18700, 5100.000
77.42300, 6088.000
78.65900, 7248.000
79.89500, 8677.000
81.13100, 10493.00
82.36700, 12535.00
83.60200, 15328.00
84.83700, 17773.00
86.07200, 20577.00
87.30800, 23523.00
88.54200, 25683.00
89.77700, 26673.00
91.01200, 25676.00
92.24600, 23275.00
93.48000, 20374.00
94.71400, 17705.00
95.94800, 15949.00
97.18200, 14177.00
98.41600, 13031.00
99.64900, 12092.00
100.8830, 11383.00
102.1160, 10605.00
103.3490, 10072.51
104.5820, 10063.21
105.8150, 10001.48
107.0470, 9893.079
108.2800, 9438.606
109.5120, 9552.592
110.7440, 9513.107
111.9760, 9518.200
113.2080, 9863.852
114.4400, 9732.749
115.6710, 10112.00
116.9030, 10253.00
118.1340, 10437.00
119.3650, 10777.00
120.5960, 11518.00
121.8270, 12454.00
123.0580, 13766.00
124.2880, 15025.00
125.5190, 16331.00
126.7490, 18366.00
127.9790, 21241.00
129.2090, 24848.00
130.4390, 27690.00
131.6680, 27425.00
132.8980, 24900.00
134.1270, 21718.00
135.3560, 19253.00
136.5850, 17222.00
137.8140, 15880.00
139.0430, 15051.00
140.2710, 14415.00
141.5000, 14011.71
142.7280, 14123.89
143.9560, 14130.52
145.1840, 14037.25
146.4120, 13544.92
147.6390, 13568.01
148.8670, 13384.47
150.0940, 13192.58
151.3210, 13825.00
152.5490, 14147.00
153.7750, 14673.00
155.0020, 15811.00
156.2290, 16991.00
157.4550, 18522.00
158.6810, 20123.00
159.9080, 22231.00
161.1340, 24841.00
162.3590, 26931.00
163.5850, 29511.00
164.8110, 30973.00
166.0360, 30885.00
167.2610, 29401.00
168.4860, 27623.00
169.7110, 25833.00
170.9360, 23792.00
172.1610, 22041.00
173.3850, 20041.00
174.6100, 18120.00
175.8340, 16425.00
177.0580, 15096.00
178.2820, 14025.00
179.5050, 13018.00
180.7290, 12301.00
181.9520, 11865.00
183.1760, 11417.00
184.3990, 11200.00
185.6220, 11042.00
186.8450, 10924.00
188.0670, 10811.00
189.2900, 10730.00
190.5120, 10837.00
191.7340, 10880.00
192.9560, 11256.00
194.1780, 11477.00
195.4000, 11778.00
196.6220, 12196.00
197.8430, 12543.00
199.0640, 13154.00
200.2860, 13613.00
201.5070, 13741.00
202.7270, 13460.00
203.9480, 13105.00
205.1690, 12631.00
206.3890, 12342.00
207.6090, 11837.00
208.8290, 11763.00
210.0490, 11685.00
211.2690, 11750.00
212.4890, 12056.00
213.7080, 12224.00
214.9280, 12483.00
216.1470, 13003.00
217.3660, 13638.00
218.5850, 14097.00
219.8030, 15081.00
221.0220, 15664.00
222.2400, 16564.00
223.4590, 17507.00
224.6770, 18275.00
225.8950, 19016.00
227.1120, 19635.00
228.3300, 19834.00
229.5480, 19873.00
230.7650, 19893.00
231.9820, 20164.00
233.1990, 21033.00
234.4160, 22369.00
235.6330, 23886.00
236.8490, 26103.00
238.0660, 28426.00
239.2820, 30655.00
240.4980, 31968.00
241.7140, 31762.00
242.9300, 30514.00
244.1460, 28201.00
245.3610, 25921.00
246.5770, 23568.00
247.7920, 21208.00
249.0070, 19219.00
250.2220, 17348.00
251.4370, 15791.00
252.6510, 14597.67
253.8660, 13710.00
255.0800, 13018.00
256.2940, 12562.10
257.5080, 12435.28
258.7220, 12332.66
259.9360, 12259.91
261.1490, 11917.78
262.3630, 12220.69
263.5760, 12520.00
264.7890, 13033.00
266.0020, 13652.00
267.2150, 14253.00
268.4270, 15193.00
269.6400, 16147.00
270.8520, 17260.00
272.0640, 18607.00
273.2760, 19384.00
274.4880, 19409.00
275.7000, 18666.00
276.9120, 17681.00
278.1230, 16933.00
279.3340, 16299.00
280.5450, 16173.00
281.7560, 16231.00
282.9670, 16721.00
284.1780, 17671.00
285.3880, 18888.00
286.5980, 20577.00
287.8090, 22770.00
289.0190, 25365.00
290.2290, 27838.00
291.4380, 29169.00
292.6480, 28844.00
293.8570, 27572.00
295.0670, 25707.00
296.2760, 24154.00
297.4850, 22071.00
298.6930, 20267.00
299.9020, 18520.00
301.1110, 17195.00
302.3190, 15939.00
303.5270, 14996.00
304.7350, 14280.00
305.9430, 13628.00
307.1510, 13124.00
308.3580, 12457.00
309.5660, 12331.00
310.7730, 12008.00
311.9800, 12107.00
313.1870, 12210.00
314.3940, 12232.00
315.6010, 12699.00
316.8070, 12920.00
318.0130, 13528.00
319.2200, 14003.00
320.4260, 14795.00
321.6310, 15588.00
322.8370, 15981.00
324.0430, 16527.00
325.2480, 16551.00
326.4540, 16109.00
327.6590, 15918.00
328.8640, 15603.00
330.0680, 15747.00
331.2730, 15884.00
332.4780, 16251.00
333.6820, 16717.00
334.8860, 17439.00
336.0900, 18571.00
337.2940, 19881.00
338.4980, 21445.00
339.7010, 23655.00
340.9050, 26022.00
342.1080, 28817.00
343.3110, 31516.00
344.5140, 34701.00
345.7170, 36934.00
346.9200, 38472.00
348.1220, 39010.00
349.3240, 37820.00
350.5270, 35361.00
351.7290, 32242.00
352.9310, 29127.00
354.1320, 25907.00
355.3340, 23001.00
356.5350, 20510.00
357.7370, 18496.00
358.9380, 16897.00
360.1390, 15568.00
361.3400, 14398.00
362.5400, 13640.00
363.7410, 13015.00
364.9410, 12359.00
366.1410, 11902.00
367.3410, 11474.00
368.5410, 11046.00
369.7410, 10804.00
370.9400, 10621.00
372.1400, 10377.00
373.3390, 10317.00
374.5380, 10341.00
375.7370, 10045.00
376.9360, 10083.00
378.1350, 10110.00
379.3330, 10456.00
380.5310, 10461.00
381.7300, 10703.00
382.9280, 10972.00
384.1260, 11129.00
385.3230, 11646.00
386.5210, 11887.00
387.7180, 11838.00
388.9160, 11799.00
390.1130, 11589.00
391.3100, 11338.00
392.5060, 11117.00
393.7030, 11033.00
394.9000, 10801.00
396.0960, 10727.00
397.2920, 10640.00
398.4880, 10579.00
399.6840, 10474.00
400.8800, 10508.00
402.0750, 10702.00
403.2710, 10547.00
404.4660, 10670.00
405.6610, 10988.00
406.8560, 11237.00
408.0510, 11583.00
409.2450, 11858.00
410.4400, 12492.00
411.6340, 13224.00
412.8280, 14069.00
414.0220, 15157.00
415.2160, 16702.00
416.4100, 18428.00
417.6030, 20524.00
418.7970, 22953.00
419.9900, 25160.00
421.1830, 27278.00
422.3760, 28781.00
423.5690, 29755.00
424.7610, 29789.00
425.9540, 29313.00
427.1460, 29129.00
428.3380, 29176.00
429.5300, 29756.00
430.7220, 30823.00
431.9140, 31610.00
433.1050, 31903.00
434.2970, 32211.00
435.4880, 32007.00
436.6790, 31771.00
437.8700, 32034.00
439.0610, 33134.00
440.2510, 34902.00
441.4420, 36894.00
442.6320, 40425.00
443.8220, 44460.00
445.0120, 48814.00
446.2020, 53632.00
447.3910, 58030.00
448.5810, 60873.00
449.7700, 61608.00
450.9600, 61495.00
452.1490, 61151.00
453.3370, 59859.00
454.5260, 57355.00
455.7150, 54267.00
456.9030, 52056.00
458.0910, 45114.00
459.2800, 40020.00
460.4670, 35831.00
461.6550, 32060.00
462.8430, 28732.00
464.0300, 25771.00
465.2180, 23558.00
466.4050, 21307.00
467.5920, 19872.00
468.7790, 18435.00
469.9650, 17342.00
471.1520, 16251.00
472.3380, 15749.00
473.5250, 15270.00
474.7110, 14768.00
475.8970, 14641.00
477.0820, 14449.00
478.2680, 14385.00
479.4540, 14318.00
480.6390, 14603.00
481.8240, 14669.00
483.0090, 14904.00
484.1940, 15437.00
485.3780, 15867.00
486.5630, 16416.00
487.7470, 17216.00
488.9320, 18084.00
490.1160, 19301.00
491.3000, 20609.00
492.4830, 22099.00
493.6670, 23728.00
494.8500, 25136.00
496.0340, 26552.00
497.2170, 27260.00
498.4000, 27565.00
499.5820, 27285.00
500.7650, 26955.00
501.9480, 26163.00
503.1300, 25480.00
504.3120, 24868.00
505.4940, 24361.00
506.6760, 24311.00
507.8580, 23312.00
509.0390, 22408.00
510.2210, 21114.00
511.4020, 19970.00
512.5830, 19091.00
513.7640, 18409.00
514.9450, 18271.00
516.1250, 18162.00
517.3060, 18524.00
518.4860, 18825.00
519.6660, 19250.00
520.8460, 19257.00
522.0260, 18735.00
523.2060, 17753.00
524.3850, 16721.00
525.5650, 15372.00
526.7440, 14496.00
527.9230, 13521.00
529.1020, 12597.00
530.2810, 12055.00
531.4590, 11538.00
532.6380, 10980.00
533.8160, 10885.00
534.9940, 10590.00
536.1720, 10516.00
537.3500, 10605.00
538.5270, 10455.00
539.7050, 10385.00
540.8820, 10312.00
542.0590, 10480.00
543.2360, 10572.00
544.4130, 10692.00
545.5900, 10838.00
546.7660, 11200.00
547.9430, 11596.00
549.1190, 11924.00
550.2950, 12372.00
551.4710, 12967.00
552.6470, 14133.00
553.8220, 15306.00
554.9980, 17309.00
556.1730, 19324.00
557.3480, 22266.00
558.5230, 25548.00
559.6980, 29386.00
560.8730, 33304.00
562.0470, 36917.00
563.2220, 38372.00
564.3960, 37336.00
565.5700, 33583.00
566.7440, 29756.00
567.9170, 26907.00
569.0910, 23364.00
570.2640, 19936.00
571.4380, 18132.00
572.6110, 16392.00
573.7840, 15705.00
574.9570, 15231.00
576.1290, 15167.00
577.3020, 15291.00
578.4740, 15593.00
579.6460, 16157.00
580.8180, 16985.00
581.9900, 17596.00
583.1620, 18598.00
584.3330, 19455.00
585.5040, 20002.00
586.6760, 21424.00
587.8470, 22269.00
589.0180, 22259.00
590.1880, 23393.00
591.3590, 24945.00
592.5290, 26425.00
593.7000, 28143.00
594.8700, 29486.00
596.0400, 30520.00
597.2090, 30378.00
598.3790, 29704.00
599.5490, 28554.00
600.7180, 27187.00
601.8870, 25735.00
603.0560, 24528.00
604.2250, 22994.00
605.3940, 21882.00
606.5620, 20927.00
607.7300, 19926.00
608.8990, 19296.00
610.0670, 18717.00
611.2350, 17861.00
612.4020, 17349.00
613.5700, 16566.00
614.7370, 15820.00
615.9050, 14982.00
617.0720, 14522.00
618.2390, 13599.00
619.4060, 13008.00
620.5720, 12527.00
621.7390, 12144.00
622.9050, 11664.00
624.0710, 11618.00
625.2370, 11131.00
626.4030, 10960.00
627.5690, 10619.00
628.7340, 10408.00
629.9000, 10068.00
631.0650, 10025.00
632.2300, 9889.000
633.3950, 9775.000
634.5600, 9699.000
635.7240, 9649.000
636.8890, 9442.000
638.0530, 9450.000
639.2170, 9416.000
640.3810, 9431.000
641.5450, 9528.000
642.7080, 9363.000
643.8720, 9418.000
645.0350, 9306.000
646.1980, 9320.000
647.3610, 9232.000
648.5240, 9378.000
649.6870, 9283.000
650.8490, 9301.000
652.0120, 9180.000
653.1740, 9347.000
654.3360, 9254.000
655.4980, 9209.000
656.6600, 9135.000
657.8210, 9221.000
658.9830, 9063.000
660.1440, 9178.000
661.3050, 9133.000
662.4660, 9129.000
663.6270, 9121.000
664.7870, 9101.000
665.9480, 9104.000
667.1080, 9107.719
668.2680, 9186.000
669.4280, 9124.000
670.5880, 9184.000
671.7480, 9183.000
672.9070, 9301.000
674.0670, 9495.000
675.2260, 9518.000
676.3850, 9624.000
677.5440, 9731.000
678.7030, 10107.00
679.8610, 10036.00
681.0200, 10386.00
682.1780, 10369.00
683.3360, 10581.00
684.4940, 10646.00
685.6520, 10862.00
686.8090, 10914.00
687.9670, 10837.00
689.1240, 10644.00
690.2810, 10485.00
691.4380, 10284.00
692.5950, 10096.00
693.7520, 9846.000
694.9080, 9567.000
696.0650, 9444.000
697.2210, 9287.000
698.3770, 9350.000
699.5330, 9148.000
700.6880, 9118.000
701.8440, 8945.000
702.9990, 8724.000
704.1550, 8775.000
705.3100, 8665.000
706.4650, 8560.000
707.6190, 8583.000
708.7740, 8558.000
709.9290, 8468.000
711.0830, 8518.000
712.2370, 8400.000
713.3910, 8382.000
714.5450, 8274.000
715.6980, 8265.299
716.8520, 8445.000
718.0050, 8256.000
719.1580, 8266.000
720.3110, 8275.000
721.4640, 8148.000
722.6170, 8228.000
723.7700, 8261.000
724.9220, 8244.000
726.0740, 8246.000
727.2260, 8225.000
728.3780, 8285.000
729.5300, 8324.000
730.6810, 8205.000
731.8330, 8299.000
732.9840, 8387.000
734.1350, 8294.000
735.2860, 8142.000
736.4370, 8237.000
737.5880, 8330.000
738.7380, 8258.000
739.8880, 8355.000
741.0390, 8420.000
742.1890, 8398.000
743.3380, 8439.427
744.4880, 8322.000
745.6380, 8438.000
746.7870, 8432.000
747.9360, 8447.000
749.0850, 8548.000
750.2340, 8474.000
751.3830, 8528.000
752.5310, 8569.000
753.6800, 8607.000
754.8280, 8718.000
755.9760, 8784.000
757.1240, 8828.000
758.2720, 8892.000
759.4190, 9095.000
760.5670, 9191.000
761.7140, 9167.000
762.8610, 9344.000
764.0080, 9325.000
765.1550, 9486.000
766.3020, 9617.000
767.4480, 9408.000
768.5950, 9545.000
769.7410, 9527.000
770.8870, 9333.000
772.0330, 9403.000
773.1780, 9247.000
774.3240, 9161.000
775.4690, 9143.000
776.6140, 8985.000
777.7590, 8998.000
778.9040, 8865.000
780.0490, 8827.000
781.1940, 8808.000
782.3380, 8845.000
783.4820, 8789.000
784.6260, 8804.000
785.7700, 8703.000
786.9140, 8749.895
788.0580, 8723.000
789.2010, 8812.000
790.3450, 8851.000
791.4880, 8880.000
792.6310, 8921.000
793.7730, 8906.000
794.9160, 8924.000
796.0590, 8949.000
797.2010, 8967.000
798.3430, 9025.000
799.4850, 9096.000
800.6270, 9059.000
801.7690, 9059.000
802.9100, 9216.000
804.0520, 9305.000
805.1930, 9318.000
806.3340, 9262.000
807.4750, 9434.000
808.6160, 9561.000
809.7560, 9450.000
810.8970, 9543.000
812.0370, 9738.000
813.1770, 9678.000
814.3170, 9701.000
815.4570, 9979.000
816.5960, 9997.000
817.7360, 9987.000
818.8750, 10318.00
820.0140, 10340.00
821.1530, 10581.00
822.2920, 10690.00
823.4310, 11007.00
824.5690, 10972.00
825.7070, 11280.00
826.8460, 11356.00
827.9840, 11436.00
829.1220, 11585.00
830.2590, 11440.00
831.3970, 11500.00
832.5340, 11509.00
833.6710, 11465.00
834.8080, 11332.00
835.9450, 11243.00
837.0820, 11314.00
838.2190, 11234.00
839.3550, 11201.00
840.4910, 11169.00
841.6270, 11360.00
842.7630, 11415.00
843.8990, 11624.00
845.0350, 11562.00
846.1700, 11789.00
847.3060, 11809.00
848.4410, 12103.00
849.5760, 12144.00
850.7100, 12480.00
851.8450, 12771.00
852.9800, 12994.00
854.1140, 13312.00
855.2480, 13703.00
856.3820, 14052.97
857.5160, 14492.77
858.6500, 14893.00
859.7830, 15444.00
860.9170, 15907.00
862.0500, 16471.00
863.1830, 17274.00
864.3160, 18023.00
865.4480, 18600.00
866.5810, 19409.62
867.7130, 20012.00
868.8460, 20841.00
869.9780, 21646.00
871.1100, 22282.00
872.2410, 22976.00
873.3730, 23564.00
874.5050, 24447.00
875.6360, 24041.00
876.7670, 24052.00
877.8980, 23564.00
879.0290, 22957.69
880.1590, 22149.00
881.2900, 21486.00
882.4200, 20703.00
883.5500, 19938.00
884.6800, 19621.00
885.8100, 18992.00
886.9400, 18364.00
888.0690, 18112.00
889.1990, 17827.00
890.3280, 17532.00
891.4570, 17385.00
892.5860, 17306.00
893.7140, 17495.00
894.8430, 17417.00
895.9710, 17753.00
897.1000, 18026.00
898.2280, 18617.00
899.3560, 19139.00
900.4830, 19914.00
901.6110, 20793.75
902.7380, 21711.00
903.8660, 22926.00
904.9930, 24219.00
906.1200, 25612.00
907.2460, 27106.00
908.3730, 28764.00
909.5000, 30294.00
910.6260, 31815.00
911.7520, 32653.00
912.8780, 33606.00
914.0040, 34121.00
915.1290, 33757.00
916.2550, 32793.00
917.3800, 31265.00
918.5050, 29422.00
919.6300, 27376.00
920.7550, 25250.00
921.8800, 23199.00
923.0040, 21528.00
924.1290, 20028.00
925.2530, 18762.00
926.3770, 17605.06
927.5010, 16718.00
928.6250, 15824.00
929.7480, 15109.00
930.8720, 14580.00
931.9950, 13947.00
933.1180, 13591.00
934.2410, 13138.00
935.3640, 13061.00
936.4860, 12703.00
937.6090, 12483.00
938.7310, 12270.00
939.8530, 12050.00
940.9750, 11931.00
942.0970, 11837.00
943.2180, 11592.00
944.3400, 11613.00
945.4610, 11522.00
946.5820, 11583.00
947.7030, 11336.00
948.8240, 11490.00
949.9450, 11425.00
951.0650, 11592.00
952.1860, 11431.00
953.3060, 11546.00
954.4260, 11406.00
955.5460, 11600.00
956.6650, 11552.00
957.7850, 11577.00
958.9040, 11460.00
960.0230, 11648.00
961.1420, 11641.23
962.2610, 11750.07
963.3800, 11860.23
964.4990, 11972.71
965.6170, 12034.77
966.7350, 12207.27
967.8530, 12292.00
968.9710, 12555.00
970.0890, 12773.00
971.2070, 13326.00
972.3240, 13904.00
973.4410, 14426.00
974.5580, 15411.00
975.6750, 15946.00
976.7920, 16596.00
977.9090, 17357.00
979.0250, 17626.00
980.1410, 17345.00
981.2580, 16959.00
982.3740, 16566.00
983.4890, 15753.00
984.6050, 14935.00
985.7200, 14263.00
986.8360, 13653.59
987.9510, 12992.00
989.0660, 12649.00
990.1810, 12283.00
991.2950, 11916.00
992.4100, 11553.00
993.5240, 11528.00
994.6390, 11283.00
995.7530, 11259.00
996.8660, 11165.00
997.9800, 11084.66
999.0940, 11361.00
1000.207, 11003.00
1001.320, 11054.00
1002.433, 11016.00
1003.546, 10807.00
1004.659, 10877.00
1005.772, 10714.38
1006.884, 10563.00
1007.996, 10532.00
1009.108, 10546.00
1010.220, 10548.00
1011.332, 10726.00
1012.444, 10666.00
1013.555, 10731.00
1014.666, 10928.00
1015.777, 10838.00
1016.888, 10967.00
1017.999, 11190.00
1019.110, 11183.00
1020.220, 11318.00
1021.331, 11501.00
1022.441, 11579.00
1023.551, 11671.00
1024.661, 11939.00
1025.770, 11966.00
1026.880, 12245.00
1027.989, 12600.00
1029.098, 12977.00
1030.207, 13311.00
1031.316, 13687.00
1032.425, 14114.00
1033.533, 14638.00
1034.642, 15111.00
1035.750, 15663.00
1036.858, 16152.00
1037.966, 16529.00
1039.073, 17053.00
1040.181, 17088.00
1041.288, 17044.00
1042.396, 17059.00
1043.503, 16427.00
1044.610, 16139.00
1045.716, 15932.00
1046.823, 15216.00
1047.929, 14913.00
1049.036, 14511.00
1050.142, 14333.00
1051.248, 13956.00
1052.353, 13933.00
1053.459, 13843.00
1054.564, 13891.00
1055.670, 13881.00
1056.775, 14165.00
1057.880, 14197.00
1058.985, 14285.00
1060.089, 14388.00
1061.194, 14234.00
1062.298, 14208.00
1063.402, 14198.00
1064.506, 13847.00
1065.610, 13660.00
1066.713, 13719.00
1067.817, 13653.00
1068.920, 13785.00
1070.023, 13670.00
1071.126, 13903.00
1072.229, 14306.00
1073.332, 14967.00
1074.435, 15285.00
1075.537, 15878.00
1076.639, 16861.00
1077.741, 17775.00
1078.843, 18900.00
1079.945, 20228.00
1081.046, 21696.00
1082.148, 23238.00
1083.249, 24450.00
1084.350, 25285.00
1085.451, 25112.00
1086.551, 24337.00
1087.652, 22825.00
1088.752, 20932.00
1089.853, 19298.00
1090.953, 17670.00
1092.053, 16128.00
1093.152, 15091.00
1094.252, 13974.00
1095.351, 13376.00
1096.451, 12615.00
1097.550, 12370.00
1098.649, 11885.00
1099.748, 11914.00
1100.846, 11516.00
1101.945, 11372.00
1103.043, 11460.00
1104.141, 11222.00
1105.239, 11027.00
1106.337, 11052.00
1107.434, 11005.00
1108.532, 10953.00
1109.629, 10813.00
1110.726, 10843.00
1111.823, 10762.00
1112.920, 10821.00
1114.017, 10913.00
1115.113, 10877.00
1116.210, 10791.00
1117.306, 10716.00
1118.402, 10593.00
1119.498, 10712.00
1120.593, 10678.00
1121.689, 10656.00
1122.784, 10786.00
1123.879, 10873.00
1124.974, 10600.00
1126.069, 10703.00
1127.164, 10606.00
1128.259, 10727.00
1129.353, 10682.00
1130.447, 10565.00
1131.541, 10491.00
1132.635, 10488.00
1133.729, 10502.00
1134.822, 10381.00
1135.916, 10421.00
1137.009, 10356.00
1138.102, 10245.00
1139.195, 10434.00
1140.288, 10290.00
1141.380, 10252.00
1142.473, 10265.00
1143.565, 10133.00
1144.657, 10159.00
1145.749, 10155.00
1146.841, 10111.00
1147.932, 10216.00
1149.024, 10046.00
1150.115, 10239.00
1151.206, 10183.00
1152.297, 10100.00
1153.388, 10087.00
1154.479, 10191.00
1155.569, 10088.00
1156.659, 10134.00
1157.750, 10141.00
1158.839, 10042.00
1159.929, 10043.00
1161.019, 10079.00
1162.108, 10022.43
1163.198, 10091.00
1164.287, 10030.00
1165.376, 10128.00
1166.465, 10233.00
1167.553, 10181.00
1168.642, 10192.00
1169.730, 10111.00
1170.818, 10214.00
1171.906, 10130.00
1172.994, 10257.00
1174.082, 10090.00
1175.170, 10114.00
1176.257, 10069.00
1177.344, 10273.00
1178.431, 10217.00
1179.518, 10121.00
1180.605, 10257.00
1181.691, 10003.00
1182.778, 10023.00
1183.864, 10162.00
1184.950, 10200.00
1186.036, 10118.00
1187.122, 10090.00
1188.207, 10063.00
1189.292, 10065.00
1190.378, 10079.21
1191.463, 10082.39
1192.548, 10133.00
1193.632, 10110.00
1194.717, 10117.00
1195.801, 10114.00
1196.886, 10093.00
1197.970, 9935.000
1199.054, 10056.00
1200.137, 10046.00
1201.221, 10252.00
1202.305, 10027.00
1203.388, 10171.00
1204.471, 10167.00
1205.554, 10219.00
1206.637, 10183.00
1207.719, 10195.49
1208.802, 10202.82
1209.884, 10174.00
1210.966, 10183.00
1212.048, 10155.00
1213.130, 10094.00
1214.212, 10134.00
1215.293, 10032.00
1216.374, 10211.00
1217.456, 10111.00
1218.536, 10106.00
1219.617, 10362.00
1220.698, 10174.00
1221.778, 10100.00
1222.859, 10149.00
1223.939, 10209.00
1225.019, 10184.00
1226.099, 10342.00
1227.178, 10060.00
1228.258, 10252.00
1229.337, 10165.00
1230.417, 10129.00
1231.496, 10146.00
1232.574, 10191.00
1233.653, 10247.00
1234.732, 10181.00
1235.810, 10329.00
1236.888, 10383.00
1237.966, 10251.00
1239.044, 10176.00
1240.122, 10245.00
1241.199, 10233.00
1242.277, 10277.86
1243.354, 10326.35
1244.431, 10356.28
1245.508, 10368.65
1246.585, 10310.85
1247.661, 10343.65
1248.738, 10340.14
1249.814, 10335.14
1250.890, 10380.69
1251.966, 10333.09
1253.042, 10377.84
1254.117, 10385.72
1255.193, 10410.48
1256.268, 10398.69
1257.343, 10398.20
1258.418, 10434.24
1259.493, 10450.05
1260.567, 10434.06
1261.642, 10459.88
1262.716, 10411.00
1263.790, 10427.66
1264.864, 10472.62
1265.938, 10458.46
1267.011, 10484.94
1268.085, 10495.95
1269.158, 10436.60
1270.231, 10499.59
1271.304, 10509.68
1272.377, 10465.44
1273.450, 10524.25
1274.522, 10487.49
1275.594, 10484.84
1276.666, 10507.86
1277.738, 10504.12
1278.810, 10542.57
1279.882, 10540.37
1280.953, 10534.54
1282.025, 10544.57
1283.096, 10509.68
1284.167, 10558.09
1285.238, 10549.61
1286.308, 10498.00
1287.379, 10407.00
1288.449, 10434.80
1289.519, 10438.00
1290.589, 10472.00
1291.659, 10527.00
1292.729, 10591.00
1293.798, 10680.00
1294.868, 10454.00
1295.937, 10458.00
1297.006, 10468.00
1298.075, 10416.98
1299.143, 10674.00
1300.212, 10494.00
1301.280, 10611.00
1302.348, 10733.00
1303.416, 10564.00
1304.484, 10584.00
1305.552, 10674.00
1306.620, 10631.00
1307.687, 10692.00
1308.754, 10575.00
1309.821, 10722.00
1310.888, 10738.00
1311.955, 10662.00
1313.021, 10706.00
1314.088, 10639.00
1315.154, 10777.00
1316.220, 10695.00
1317.286, 10876.00
1318.352, 10722.00
1319.417, 10760.00
1320.483, 10715.00
1321.548, 10734.00
1322.613, 10756.00
1323.678, 10713.00
1324.743, 10543.00
1325.807, 10606.00
1326.872, 10709.00
1327.936, 10522.00
1329.000, 10555.00
1330.064, 10442.00
1331.128, 10414.00
1332.191, 10445.00
1333.255, 10406.00
1334.318, 10451.00
1335.381, 10453.00
1336.444, 10556.00
1337.507, 10469.00
1338.569, 10356.00
1339.632, 10493.00
1340.694, 10366.00
1341.756, 10358.00
1342.818, 10447.00
1343.880, 10448.00
1344.941, 10562.00
1346.003, 10629.00
1347.064, 10569.00
1348.125, 10416.00
1349.186, 10473.00
1350.247, 10462.00
1351.308, 10460.00
1352.368, 10451.00
1353.428, 10459.67
1354.489, 10528.00
1355.549, 10489.00
1356.608, 10519.34
1357.668, 10445.00
1358.727, 10533.00
1359.787, 10507.00
1360.846, 10516.00
1361.905, 10451.00
1362.964, 10497.00
1364.022, 10501.00
1365.081, 10561.00
1366.139, 10538.00
1367.197, 10507.00
1368.255, 10539.00
1369.313, 10614.00
1370.371, 10677.00
1371.428, 10500.00
1372.486, 10481.00
1373.543, 10720.00
1374.600, 10446.00
1375.657, 10651.00
1376.713, 10585.00
1377.770, 10715.00
1378.826, 10709.00
1379.882, 10694.00
1380.938, 10623.00
1381.994, 10644.00
1383.050, 10570.00
1384.106, 10722.00
1385.161, 10559.00
1386.216, 10692.00
1387.271, 10555.00
1388.326, 10675.00
1389.381, 10556.00
1390.435, 10477.00
1391.490, 10569.00
1392.544, 10455.00
1393.598, 10499.00
1394.652, 10601.00
1395.705, 10504.00
1396.759, 10639.00
1397.812, 10561.00
1398.866, 10670.00
1399.919, 10535.00
1400.972, 10530.00
1402.024, 10563.00
1403.077, 10635.00
1404.129, 10695.00
1405.181, 10687.00
1406.233, 10578.00
1407.285, 10579.34
1408.337, 10619.72
1409.389, 10641.54
1410.440, 10645.80
1411.491, 10579.89
1412.542, 10604.58
1413.593, 10592.97
1414.644, 10579.87
1415.695, 10617.32
1416.745, 10561.61
1417.795, 10598.26
1418.845, 10598.05
1419.895, 10590.31
1420.945, 10649.99
1421.995, 10692.02
1423.044, 10717.39
1424.093, 10673.50
1425.142, 10721.14
1426.191, 10733.38
1427.240, 10745.04
1428.289, 10808.17
1429.337, 10779.04
1430.385, 10843.17
1431.433, 10871.34
1432.481, 10917.30
1433.529, 10927.65
1434.577, 10950.18
1435.624, 11010.15
1436.672, 11050.82
1437.719, 11060.57
1438.766, 11050.00
1439.812, 11195.00
1440.859, 11188.00
1441.905, 11245.00
1442.952, 11210.00
1443.998, 11429.00
1445.044, 11424.00
1446.090, 11476.00
1447.135, 11403.00
1448.181, 11545.00
1449.226, 11479.00
1450.271, 11630.00
1451.316, 11531.00
1452.361, 11599.00
1453.405, 11713.00
1454.450, 11662.00
1455.494, 11596.00
1456.538, 11638.00
1457.582, 11596.00
1458.626, 11563.00
1459.670, 11410.00
1460.713, 11541.00
1461.757, 11414.00
1462.800, 11418.00
1463.843, 11370.00
1464.886, 11289.00
1465.928, 11269.00
1466.971, 11096.00
1468.013, 11095.00
1469.055, 11151.00
1470.097, 11172.00
1471.139, 11003.00
1472.181, 10982.00
1473.222, 11049.00
1474.263, 11013.00
1475.305, 11022.00
1476.346, 10965.00
1477.386, 10876.00
1478.427, 10973.00
1479.468, 10885.00
1480.508, 10986.00
1481.548, 11014.00
1482.588, 10886.00
1483.628, 10880.00
1484.668, 10805.00
1485.707, 10998.00
1486.747, 10900.00
1487.786, 11037.00
1488.825, 10784.00
1489.864, 10889.00
1490.902, 10865.00
1491.941, 10772.00
1492.979, 10770.00
1494.017, 10782.00
1495.055, 10770.14
1496.093, 10782.00
1497.131, 10788.00
1498.168, 10784.00
1499.206, 10733.00
1500.243, 10705.00
1501.280, 10732.00
1502.317, 10747.00
1503.354, 10916.00
1504.390, 10680.00
1505.426, 10858.00
1506.463, 10660.00
1507.499, 10870.00
1508.535, 10831.00
1509.570, 10879.00
1510.606, 10872.00
1511.641, 10905.00
1512.676, 10877.00
1513.711, 10904.90
1514.746, 10908.00
1515.781, 10910.00
1516.816, 10913.00
1517.850, 10848.00
1518.884, 10929.00
1519.918, 10779.00
1520.952, 10889.00
1521.986, 11095.00
1523.019, 10990.00
1524.053, 10855.00
1525.086, 11081.00
1526.119, 11030.00
1527.152, 10944.00
1528.185, 11152.00
1529.217, 11059.79
1530.250, 11148.00
1531.282, 11037.00
1532.314, 11111.00
1533.346, 11039.00
1534.377, 11028.00
1535.409, 11208.00
1536.440, 11213.00
1537.472, 11176.00
1538.503, 10930.00
1539.534, 11047.00
1540.564, 10961.00
1541.595, 11028.00
1542.625, 10957.00
1543.656, 11093.00
1544.686, 11098.00
1545.716, 11135.00
1546.745, 11144.00
1547.775, 10995.00
1548.804, 11051.00
1549.834, 11089.00
1550.863, 11203.00
1551.892, 11129.00
1552.920, 11304.00
1553.949, 11254.00
1554.977, 11295.00
1556.006, 11119.00
1557.034, 11132.00
1558.062, 11132.00
1559.089, 11199.00
1560.117, 11035.00
1561.144, 11074.00
1562.172, 11128.00
1563.199, 11124.00
1564.226, 11206.00
1565.252, 11146.00
1566.279, 11056.00
1567.305, 11059.00
1568.332, 11114.00
1569.358, 11187.00
1570.384, 11130.00
1571.409, 11053.00
1572.435, 11189.00
##END=



