##NAMES=Epidote
##RRUFFID=R050191
##IDEAL CHEMISTRY=Ca_2_Fe^3+^Al_2_(Si_2_O_7_)(SiO_4_)O(OH)
##LOCALITY=Pampa Blanca, Castrovirreyna Province, Huancavelica Department, Peru
##OWNER=RRUFF
##SOURCE=Dave Bunk Minerals
##DESCRIPTION=Cluster of green elongated prismatic crystals
##STATUS=The identification of this mineral has been confirmed by X-ray diffraction and chemical analysis
##URL=rruff.info/R050191
##MEASURED CHEMISTRY=Ca_2.00_Al_2.00_(Fe^3+^_0.84_Al_0.16_)(SiO_4_)(Si_2_O_7_)O(OH)
##PIN_ID=L01284
##ORIENTATION=Laser parallel to -a* (-1 0 0). Fiducial mark perpendicular to laser is parallel to b [0 1 0]
53.91000, 2701.000
55.14900, 2609.000
56.38700, 2391.000
57.62600, 2282.000
58.86400, 2261.000
60.10300, 2210.000
61.34100, 2078.000
62.57900, 2007.000
63.81700, 1836.000
65.05400, 1809.000
66.29200, 1830.000
67.52900, 1872.000
68.76700, 2199.000
70.00400, 2454.000
71.24100, 2430.000
72.47700, 2468.000
73.71400, 2725.000
74.95100, 3009.000
76.18700, 3354.000
77.42300, 3497.000
78.65900, 3741.000
79.89500, 4252.000
81.13100, 4983.000
82.36700, 6024.000
83.60200, 7368.000
84.83700, 8722.000
86.07200, 9917.000
87.30800, 11391.00
88.54200, 13126.00
89.77700, 14475.00
91.01200, 15235.00
92.24600, 15750.00
93.48000, 15834.00
94.71400, 16393.00
95.94800, 17183.00
97.18200, 17745.00
98.41600, 17652.00
99.64900, 16468.00
100.8830, 14575.00
102.1160, 12635.00
103.3490, 10944.00
104.5820, 9933.000
105.8150, 9381.000
107.0470, 10638.00
108.2800, 9190.834
109.5120, 10430.00
110.7440, 7996.000
111.9760, 7236.000
113.2080, 7239.000
114.4400, 7495.000
115.6710, 7656.000
116.9030, 7447.000
118.1340, 7366.000
119.3650, 7161.000
120.5960, 7052.000
121.8270, 7284.000
123.0580, 7745.000
124.2880, 7921.000
125.5190, 8008.000
126.7490, 8155.000
127.9790, 8604.000
129.2090, 8991.000
130.4390, 9239.000
131.6680, 9380.000
132.8980, 9223.000
134.1270, 8967.000
135.3560, 8837.000
136.5850, 8551.000
137.8140, 8628.000
139.0430, 8558.000
140.2710, 8771.000
141.5000, 8751.000
142.7280, 8902.000
143.9560, 9258.000
145.1840, 9565.000
146.4120, 9887.000
147.6390, 10013.00
148.8670, 9773.000
150.0940, 9736.000
151.3210, 9849.000
152.5490, 10132.00
153.7750, 10117.00
155.0020, 10674.00
156.2290, 11148.00
157.4550, 12012.00
158.6810, 12887.00
159.9080, 14185.00
161.1340, 15582.00
162.3590, 17035.00
163.5850, 18615.00
164.8110, 19755.28
166.0360, 20633.04
167.2610, 21285.55
168.4860, 21576.00
169.7110, 21537.00
170.9360, 21105.00
172.1610, 20217.00
173.3850, 19367.00
174.6100, 17780.00
175.8340, 16389.00
177.0580, 14917.00
178.2820, 13748.00
179.5050, 12707.00
180.7290, 11814.00
181.9520, 11217.17
183.1760, 10694.00
184.3990, 10431.00
185.6220, 10244.00
186.8450, 10087.00
188.0670, 9924.000
189.2900, 9792.000
190.5120, 9380.000
191.7340, 9230.000
192.9560, 9086.000
194.1780, 9136.000
195.4000, 9005.000
196.6220, 9112.000
197.8430, 9286.000
199.0640, 9465.000
200.2860, 9740.000
201.5070, 9954.000
202.7270, 9946.000
203.9480, 9628.000
205.1690, 9290.000
206.3890, 9076.000
207.6090, 8786.000
208.8290, 8567.000
210.0490, 8446.000
211.2690, 8134.000
212.4890, 8311.000
213.7080, 8204.000
214.9280, 8166.000
216.1470, 8337.000
217.3660, 8526.000
218.5850, 8795.000
219.8030, 9021.000
221.0220, 9434.000
222.2400, 9772.000
223.4590, 10421.00
224.6770, 11152.00
225.8950, 11827.00
227.1120, 12725.00
228.3300, 13651.00
229.5480, 14588.00
230.7650, 15272.00
231.9820, 15951.00
233.1990, 16681.00
234.4160, 17182.00
235.6330, 18067.00
236.8490, 18880.00
238.0660, 20281.00
239.2820, 21668.00
240.4980, 23335.00
241.7140, 24680.00
242.9300, 25530.00
244.1460, 25202.00
245.3610, 23594.00
246.5770, 22141.00
247.7920, 20307.00
249.0070, 18291.00
250.2220, 16957.00
251.4370, 15730.00
252.6510, 14987.00
253.8660, 14342.00
255.0800, 13865.00
256.2940, 13689.00
257.5080, 13786.00
258.7220, 13187.85
259.9360, 13395.00
261.1490, 12396.00
262.3630, 12081.00
263.5760, 11929.00
264.7890, 12006.00
266.0020, 12201.00
267.2150, 12399.00
268.4270, 12603.00
269.6400, 13052.00
270.8520, 13964.00
272.0640, 15434.00
273.2760, 14875.00
274.4880, 15340.00
275.7000, 15695.00
276.9120, 15488.00
278.1230, 15312.00
279.3340, 15120.00
280.5450, 14862.39
281.7560, 14773.00
282.9670, 14515.00
284.1780, 14702.00
285.3880, 14951.00
286.5980, 15193.00
287.8090, 15667.00
289.0190, 16169.18
290.2290, 17325.00
291.4380, 17179.00
292.6480, 17752.00
293.8570, 17766.00
295.0670, 17396.00
296.2760, 16756.00
297.4850, 15975.00
298.6930, 15291.00
299.9020, 14790.00
301.1110, 14238.00
302.3190, 13907.77
303.5270, 13635.43
304.7350, 13468.00
305.9430, 13407.00
307.1510, 13404.00
308.3580, 13551.00
309.5660, 13877.00
310.7730, 14448.00
311.9800, 15181.00
313.1870, 15624.00
314.3940, 15968.04
315.6010, 16420.00
316.8070, 16301.00
318.0130, 16256.00
319.2200, 16077.00
320.4260, 16031.00
321.6310, 16355.00
322.8370, 16855.00
324.0430, 17492.00
325.2480, 18102.00
326.4540, 18781.00
327.6590, 19458.00
328.8640, 19999.00
330.0680, 20505.00
331.2730, 20595.00
332.4780, 20548.00
333.6820, 20415.00
334.8860, 20059.00
336.0900, 19914.00
337.2940, 19731.00
338.4980, 20247.00
339.7010, 21238.00
340.9050, 22275.00
342.1080, 23910.00
343.3110, 25728.00
344.5140, 27999.00
345.7170, 30305.00
346.9200, 32183.00
348.1220, 33592.00
349.3240, 33656.00
350.5270, 32936.00
351.7290, 31079.00
352.9310, 28777.00
354.1320, 25901.00
355.3340, 23212.00
356.5350, 21071.00
357.7370, 18985.00
358.9380, 17729.00
360.1390, 16561.00
361.3400, 15791.00
362.5400, 15511.00
363.7410, 15168.00
364.9410, 14990.00
366.1410, 15123.00
367.3410, 14843.00
368.5410, 14832.00
369.7410, 13793.00
370.9400, 13076.00
372.1400, 12480.00
373.3390, 11671.00
374.5380, 11141.00
375.7370, 10535.00
376.9360, 10225.00
378.1350, 9726.000
379.3330, 9588.000
380.5310, 9357.000
381.7300, 9433.000
382.9280, 9600.000
384.1260, 9837.000
385.3230, 10165.00
386.5210, 10534.00
387.7180, 10815.00
388.9160, 11218.00
390.1130, 11186.00
391.3100, 11249.00
392.5060, 11052.00
393.7030, 10705.00
394.9000, 10234.00
396.0960, 9910.000
397.2920, 9638.000
398.4880, 9344.000
399.6840, 9081.000
400.8800, 8985.000
402.0750, 8852.000
403.2710, 8831.000
404.4660, 8816.000
405.6610, 8913.000
406.8560, 9125.000
408.0510, 9271.000
409.2450, 9569.000
410.4400, 9826.000
411.6340, 10348.00
412.8280, 10648.00
414.0220, 11235.00
415.2160, 11754.00
416.4100, 12051.00
417.6030, 12851.00
418.7970, 13367.00
419.9900, 14291.00
421.1830, 15456.00
422.3760, 16690.00
423.5690, 17866.00
424.7610, 19083.00
425.9540, 19841.00
427.1460, 20505.00
428.3380, 21338.00
429.5300, 22324.00
430.7220, 23270.00
431.9140, 24571.00
433.1050, 25942.00
434.2970, 26913.00
435.4880, 27813.00
436.6790, 28114.00
437.8700, 28253.00
439.0610, 27938.00
440.2510, 28031.00
441.4420, 28492.00
442.6320, 29008.00
443.8220, 30564.00
445.0120, 32281.00
446.2020, 34749.00
447.3910, 37790.00
448.5810, 39804.00
449.7700, 41296.00
450.9600, 41206.00
452.1490, 41640.00
453.3370, 40620.00
454.5260, 39981.00
455.7150, 38710.00
456.9030, 37326.00
458.0910, 35610.00
459.2800, 33472.00
460.4670, 30775.00
461.6550, 28354.00
462.8430, 25360.00
464.0300, 23227.86
465.2180, 20985.93
466.4050, 19157.00
467.5920, 17247.00
468.7790, 16009.00
469.9650, 14845.00
471.1520, 13693.00
472.3380, 13204.00
473.5250, 12662.00
474.7110, 12183.00
475.8970, 11772.00
477.0820, 11549.00
478.2680, 11421.00
479.4540, 11109.00
480.6390, 11359.00
481.8240, 11135.00
483.0090, 11421.00
484.1940, 11287.00
485.3780, 11778.00
486.5630, 12233.00
487.7470, 12445.00
488.9320, 12943.00
490.1160, 13549.00
491.3000, 14078.00
492.4830, 14720.00
493.6670, 15459.00
494.8500, 16355.00
496.0340, 17101.00
497.2170, 17970.00
498.4000, 18780.00
499.5820, 19429.00
500.7650, 19618.00
501.9480, 19702.00
503.1300, 19589.00
504.3120, 19045.00
505.4940, 18586.00
506.6760, 18437.00
507.8580, 18070.00
509.0390, 17424.00
510.2210, 16644.00
511.4020, 15609.00
512.5830, 14559.00
513.7640, 13517.00
514.9450, 12368.00
516.1250, 11590.00
517.3060, 10977.00
518.4860, 10460.00
519.6660, 10372.00
520.8460, 10224.00
522.0260, 10005.00
523.2060, 9883.000
524.3850, 9615.026
525.5650, 9385.000
526.7440, 9076.000
527.9230, 8766.000
529.1020, 8460.000
530.2810, 8285.000
531.4590, 7905.000
532.6380, 7843.000
533.8160, 7626.000
534.9940, 7573.000
536.1720, 7484.000
537.3500, 7555.000
538.5270, 7504.000
539.7050, 7472.000
540.8820, 7483.000
542.0590, 7472.000
543.2360, 7533.694
544.4130, 7654.000
545.5900, 7718.000
546.7660, 7892.000
547.9430, 8069.000
549.1190, 8274.000
550.2950, 8710.000
551.4710, 8879.000
552.6470, 9452.000
553.8220, 10011.00
554.9980, 10834.00
556.1730, 11687.00
557.3480, 12835.00
558.5230, 14431.00
559.6980, 16318.00
560.8730, 18409.00
562.0470, 20812.00
563.2220, 23508.00
564.3960, 25200.00
565.5700, 25296.00
566.7440, 23903.00
567.9170, 21266.00
569.0910, 18924.00
570.2640, 16439.00
571.4380, 14561.00
572.6110, 13140.00
573.7840, 12101.00
574.9570, 11688.00
576.1290, 11696.00
577.3020, 11613.00
578.4740, 11782.00
579.6460, 12108.00
580.8180, 12704.00
581.9900, 13317.00
583.1620, 14050.00
584.3330, 14754.00
585.5040, 15703.00
586.6760, 16630.00
587.8470, 17428.00
589.0180, 18301.00
590.1880, 19279.00
591.3590, 20506.00
592.5290, 21724.00
593.7000, 23385.00
594.8700, 25263.00
596.0400, 26677.00
597.2090, 28077.00
598.3790, 28943.00
599.5490, 29061.00
600.7180, 28472.00
601.8870, 27292.00
603.0560, 26172.00
604.2250, 25038.00
605.3940, 23867.00
606.5620, 23003.00
607.7300, 22591.00
608.8990, 22346.00
610.0670, 22038.00
611.2350, 21819.00
612.4020, 21289.00
613.5700, 20391.00
614.7370, 19122.00
615.9050, 17728.00
617.0720, 16422.00
618.2390, 14938.00
619.4060, 13715.00
620.5720, 12441.00
621.7390, 11632.00
622.9050, 10867.00
624.0710, 10184.00
625.2370, 9660.000
626.4030, 9031.000
627.5690, 8819.000
628.7340, 8585.000
629.9000, 8245.000
631.0650, 8000.000
632.2300, 7922.000
633.3950, 7863.000
634.5600, 7516.000
635.7240, 7455.000
636.8890, 7369.000
638.0530, 7345.000
639.2170, 7201.000
640.3810, 6999.000
641.5450, 7078.000
642.7080, 6925.000
643.8720, 6919.000
645.0350, 6823.000
646.1980, 6800.000
647.3610, 6794.000
648.5240, 6714.000
649.6870, 6701.000
650.8490, 6660.000
652.0120, 6678.000
653.1740, 6660.000
654.3360, 6632.199
655.4980, 6607.000
656.6600, 6574.000
657.8210, 6547.000
658.9830, 6510.000
660.1440, 6462.000
661.3050, 6471.000
662.4660, 6441.873
663.6270, 6404.000
664.7870, 6451.000
665.9480, 6442.000
667.1080, 6506.000
668.2680, 6588.000
669.4280, 6518.000
670.5880, 6384.000
671.7480, 6545.000
672.9070, 6560.000
674.0670, 6660.000
675.2260, 6733.039
676.3850, 6757.000
677.5440, 6862.000
678.7030, 7031.000
679.8610, 7110.000
681.0200, 7199.000
682.1780, 7268.000
683.3360, 7354.000
684.4940, 7620.000
685.6520, 7596.000
686.8090, 7731.000
687.9670, 7838.000
689.1240, 7767.000
690.2810, 7554.000
691.4380, 7522.000
692.5950, 7391.000
693.7520, 7338.000
694.9080, 7176.000
696.0650, 7013.000
697.2210, 6954.000
698.3770, 6879.000
699.5330, 6801.000
700.6880, 6676.000
701.8440, 6601.000
702.9990, 6489.000
704.1550, 6323.000
705.3100, 6324.000
706.4650, 6289.000
707.6190, 6130.000
708.7740, 6079.000
709.9290, 6058.000
711.0830, 5991.000
712.2370, 5897.000
713.3910, 5786.000
714.5450, 5796.000
715.6980, 5693.000
716.8520, 5736.000
718.0050, 5608.000
719.1580, 5532.000
720.3110, 5653.000
721.4640, 5521.000
722.6170, 5542.000
723.7700, 5509.000
724.9220, 5494.000
726.0740, 5515.000
727.2260, 5558.000
728.3780, 5446.000
729.5300, 5477.000
730.6810, 5398.000
731.8330, 5411.000
732.9840, 5564.000
734.1350, 5523.000
735.2860, 5531.000
736.4370, 5519.000
737.5880, 5539.000
738.7380, 5530.096
739.8880, 5596.000
741.0390, 5531.000
742.1890, 5579.000
743.3380, 5600.000
744.4880, 5576.000
745.6380, 5539.000
746.7870, 5559.000
747.9360, 5730.000
749.0850, 5740.000
750.2340, 5726.000
751.3830, 5845.000
752.5310, 5851.000
753.6800, 5863.000
754.8280, 5840.000
755.9760, 5916.000
757.1240, 6173.000
758.2720, 6292.000
759.4190, 6410.000
760.5670, 6417.000
761.7140, 6720.000
762.8610, 6845.000
764.0080, 6916.000
765.1550, 7120.000
766.3020, 7123.000
767.4480, 7205.000
768.5950, 7286.000
769.7410, 7162.000
770.8870, 7093.000
772.0330, 6958.000
773.1780, 6742.000
774.3240, 6728.000
775.4690, 6548.000
776.6140, 6331.000
777.7590, 6366.000
778.9040, 6283.000
780.0490, 6114.000
781.1940, 6128.000
782.3380, 6094.000
783.4820, 6078.000
784.6260, 5979.000
785.7700, 5992.000
786.9140, 5858.000
788.0580, 5939.000
789.2010, 5947.000
790.3450, 5908.000
791.4880, 6023.000
792.6310, 5958.000
793.7730, 5998.000
794.9160, 6072.000
796.0590, 6157.000
797.2010, 6089.000
798.3430, 6199.000
799.4850, 6162.000
800.6270, 6324.000
801.7690, 6265.000
802.9100, 6404.000
804.0520, 6466.000
805.1930, 6482.000
806.3340, 6458.000
807.4750, 6551.000
808.6160, 6584.000
809.7560, 6770.000
810.8970, 6733.000
812.0370, 6858.000
813.1770, 6897.000
814.3170, 6891.000
815.4570, 6987.000
816.5960, 7029.000
817.7360, 7110.000
818.8750, 7197.000
820.0140, 7187.000
821.1530, 7336.000
822.2920, 7311.000
823.4310, 7498.000
824.5690, 7474.000
825.7070, 7565.000
826.8460, 7614.000
827.9840, 7708.108
829.1220, 7833.000
830.2590, 7946.000
831.3970, 8075.000
832.5340, 8202.000
833.6710, 8235.000
834.8080, 8435.000
835.9450, 8346.000
837.0820, 8511.000
838.2190, 8651.000
839.3550, 8743.000
840.4910, 8785.000
841.6270, 8933.000
842.7630, 9127.000
843.8990, 9391.000
845.0350, 9586.000
846.1700, 9815.000
847.3060, 10099.00
848.4410, 10397.00
849.5760, 10788.00
850.7100, 11313.00
851.8450, 11713.00
852.9800, 12215.00
854.1140, 13006.00
855.2480, 13729.00
856.3820, 14599.00
857.5160, 15726.00
858.6500, 16731.00
859.7830, 18289.00
860.9170, 20266.00
862.0500, 20985.00
863.1830, 22339.00
864.3160, 23573.00
865.4480, 24543.00
866.5810, 25138.00
867.7130, 25614.00
868.8460, 26042.00
869.9780, 26168.00
871.1100, 26933.00
872.2410, 27831.00
873.3730, 28834.00
874.5050, 30320.00
875.6360, 32097.00
876.7670, 34401.00
877.8980, 36775.00
879.0290, 39272.00
880.1590, 42179.00
881.2900, 45052.00
882.4200, 47825.00
883.5500, 50768.00
884.6800, 53833.00
885.8100, 55712.00
886.9400, 56579.00
888.0690, 56255.00
889.1990, 54891.00
890.3280, 51901.00
891.4570, 48093.00
892.5860, 44109.00
893.7140, 39726.00
894.8430, 35765.00
895.9710, 32421.00
897.1000, 29734.00
898.2280, 27541.00
899.3560, 25846.00
900.4830, 24540.00
901.6110, 23993.00
902.7380, 23351.00
903.8660, 23151.00
904.9930, 23407.00
906.1200, 23872.00
907.2460, 24406.00
908.3730, 25276.00
909.5000, 26700.00
910.6260, 27497.00
911.7520, 28414.00
912.8780, 29845.00
914.0040, 30646.00
915.1290, 31126.00
916.2550, 31144.53
917.3800, 31064.00
918.5050, 29763.00
919.6300, 28385.00
920.7550, 26407.00
921.8800, 24540.00
923.0040, 22455.00
924.1290, 20556.00
925.2530, 18971.00
926.3770, 17407.00
927.5010, 16321.00
928.6250, 15211.00
929.7480, 14352.00
930.8720, 13446.00
931.9950, 12781.00
933.1180, 12072.00
934.2410, 11670.00
935.3640, 11148.00
936.4860, 10793.00
937.6090, 10468.00
938.7310, 10085.00
939.8530, 9866.000
940.9750, 9785.000
942.0970, 9403.000
943.2180, 9232.000
944.3400, 8891.000
945.4610, 9052.000
946.5820, 8764.000
947.7030, 8811.000
948.8240, 8635.000
949.9450, 8492.000
951.0650, 8505.000
952.1860, 8410.000
953.3060, 8455.000
954.4260, 8389.000
955.5460, 8376.000
956.6650, 8433.000
957.7850, 8362.000
958.9040, 8315.000
960.0230, 8356.000
961.1420, 8343.000
962.2610, 8348.000
963.3800, 8281.000
964.4990, 8352.000
965.6170, 8375.000
966.7350, 8281.000
967.8530, 8389.000
968.9710, 8486.000
970.0890, 8635.000
971.2070, 8883.000
972.3240, 9185.000
973.4410, 9486.170
974.5580, 9770.000
975.6750, 10199.00
976.7920, 10616.00
977.9090, 10958.00
979.0250, 11154.00
980.1410, 11503.00
981.2580, 11460.00
982.3740, 11307.00
983.4890, 11034.00
984.6050, 10515.00
985.7200, 10134.00
986.8360, 9728.000
987.9510, 9215.000
989.0660, 8824.000
990.1810, 8672.000
991.2950, 8499.000
992.4100, 8405.000
993.5240, 8284.000
994.6390, 8170.048
995.7530, 8040.000
996.8660, 7992.000
997.9800, 7921.000
999.0940, 7882.000
1000.207, 7924.000
1001.320, 7900.000
1002.433, 7930.319
1003.546, 7887.000
1004.659, 8024.000
1005.772, 8045.000
1006.884, 8157.000
1007.996, 8359.000
1009.108, 8581.000
1010.220, 8846.000
1011.332, 9144.000
1012.444, 9695.000
1013.555, 10279.00
1014.666, 11079.00
1015.777, 11620.00
1016.888, 12309.00
1017.999, 12983.00
1019.110, 13472.00
1020.220, 13766.00
1021.331, 13658.00
1022.441, 13103.00
1023.551, 12566.00
1024.661, 11926.00
1025.770, 11118.00
1026.880, 10502.00
1027.989, 10054.00
1029.098, 9899.000
1030.207, 9516.000
1031.316, 9223.000
1032.425, 9083.000
1033.533, 8975.000
1034.642, 8999.000
1035.750, 9042.000
1036.858, 9139.000
1037.966, 9133.000
1039.073, 9054.000
1040.181, 9012.000
1041.288, 8972.230
1042.396, 9061.000
1043.503, 8904.000
1044.610, 8925.000
1045.716, 8945.000
1046.823, 8681.000
1047.929, 8527.000
1049.036, 8513.000
1050.142, 8271.000
1051.248, 8286.000
1052.353, 8255.000
1053.459, 8118.000
1054.564, 8025.000
1055.670, 8024.000
1056.775, 8050.000
1057.880, 8092.000
1058.985, 8026.000
1060.089, 8091.000
1061.194, 8115.000
1062.298, 7986.000
1063.402, 7952.000
1064.506, 8025.000
1065.610, 7948.000
1066.713, 7999.000
1067.817, 7976.000
1068.920, 8033.000
1070.023, 8125.000
1071.126, 8087.000
1072.229, 8260.000
1073.332, 8426.000
1074.435, 8588.000
1075.537, 8882.000
1076.639, 9180.000
1077.741, 9622.163
1078.843, 10173.00
1079.945, 10729.00
1081.046, 11321.00
1082.148, 12083.00
1083.249, 12915.00
1084.350, 13854.00
1085.451, 14372.00
1086.551, 14869.00
1087.652, 14907.00
1088.752, 14401.00
1089.853, 13875.00
1090.953, 12847.00
1092.053, 11897.00
1093.152, 10681.00
1094.252, 9914.000
1095.351, 9333.000
1096.451, 8785.000
1097.550, 8325.000
1098.649, 8006.000
1099.748, 7839.000
1100.846, 7639.000
1101.945, 7562.000
1103.043, 7518.000
1104.141, 7419.000
1105.239, 7328.000
1106.337, 7180.000
1107.434, 7121.000
1108.532, 7052.000
1109.629, 7001.000
1110.726, 7000.000
1111.823, 6958.608
1112.920, 6925.000
1114.017, 6963.000
1115.113, 7010.000
1116.210, 7094.000
1117.306, 7092.000
1118.402, 7056.000
1119.498, 7071.000
1120.593, 7057.000
1121.689, 7111.000
1122.784, 6988.000
1123.879, 7152.000
1124.974, 6992.000
1126.069, 6872.000
1127.164, 6898.000
1128.259, 6699.000
1129.353, 6622.000
1130.447, 6589.000
1131.541, 6532.000
1132.635, 6513.000
1133.729, 6544.000
1134.822, 6421.000
1135.916, 6521.000
1137.009, 6644.000
1138.102, 6469.000
1139.195, 6305.000
1140.288, 6371.000
1141.380, 6352.000
1142.473, 6284.000
1143.565, 6303.000
1144.657, 6244.000
1145.749, 6223.000
1146.841, 6275.000
1147.932, 6232.000
1149.024, 6184.000
1150.115, 6334.000
1151.206, 6214.000
1152.297, 6269.000
1153.388, 6280.000
1154.479, 6247.000
1155.569, 6190.000
1156.659, 6318.000
1157.750, 6148.000
1158.839, 6240.000
1159.929, 6210.000
1161.019, 6197.000
1162.108, 6276.000
1163.198, 6243.000
1164.287, 6172.000
1165.376, 6290.000
1166.465, 6318.000
1167.553, 6161.000
1168.642, 6209.000
1169.730, 6120.000
1170.818, 6195.000
1171.906, 6156.000
1172.994, 6184.000
1174.082, 6201.000
1175.170, 6110.000
1176.257, 6136.000
1177.344, 6139.000
1178.431, 6171.000
1179.518, 6150.000
1180.605, 6155.000
1181.691, 6246.000
1182.778, 6121.000
1183.864, 6262.000
1184.950, 6163.000
1186.036, 6147.000
1187.122, 6172.000
1188.207, 6104.000
1189.292, 6066.000
1190.378, 6055.000
1191.463, 6059.306
1192.548, 6071.401
1193.632, 6110.000
1194.717, 6129.000
1195.801, 6135.000
1196.886, 6158.000
1197.970, 6117.000
1199.054, 6158.000
1200.137, 6151.000
1201.221, 6042.000
1202.305, 6154.000
1203.388, 6066.000
1204.471, 5993.000
1205.554, 6084.000
1206.637, 6225.000
1207.719, 6088.000
1208.802, 6210.000
1209.884, 6121.000
1210.966, 6145.000
1212.048, 6134.000
1213.130, 6052.000
1214.212, 6061.000
1215.293, 6012.000
1216.374, 6164.000
1217.456, 6141.000
1218.536, 6147.000
1219.617, 6128.000
1220.698, 6146.000
1221.778, 6070.000
1222.859, 6100.000
1223.939, 6024.000
1225.019, 6069.000
1226.099, 6120.000
1227.178, 6005.000
1228.258, 6124.000
1229.337, 6027.000
1230.417, 6084.000
1231.496, 6035.000
1232.574, 6090.000
1233.653, 6037.000
1234.732, 6019.000
1235.810, 6001.000
1236.888, 5988.000
1237.966, 6092.000
1239.044, 5945.000
1240.122, 5965.000
1241.199, 5913.000
1242.277, 6067.000
1243.354, 5941.000
1244.431, 5993.000
1245.508, 5863.000
1246.585, 5908.000
1247.661, 5954.000
1248.738, 6017.000
1249.814, 5934.000
1250.890, 5972.000
1251.966, 5991.000
1253.042, 5963.000
1254.117, 5963.000
1255.193, 6051.000
1256.268, 5980.000
1257.343, 5929.000
1258.418, 5999.000
1259.493, 5903.000
1260.567, 5948.000
1261.642, 5958.000
1262.716, 5866.000
1263.790, 5963.000
1264.864, 6007.000
1265.938, 5951.000
1267.011, 6006.000
1268.085, 6014.000
1269.158, 6004.000
1270.231, 5995.000
1271.304, 5987.000
1272.377, 5932.000
1273.450, 6009.000
1274.522, 5938.000
1275.594, 5960.000
1276.666, 5899.000
1277.738, 5994.000
1278.810, 6027.000
1279.882, 6012.000
1280.953, 6040.315
1282.025, 5990.000
1283.096, 6025.000
1284.167, 5986.000
1285.238, 5989.000
1286.308, 5954.000
1287.379, 5971.000
1288.449, 5976.000
1289.519, 5984.000
1290.589, 5926.000
1291.659, 5987.000
1292.729, 6044.000
1293.798, 6012.000
1294.868, 5914.000
1295.937, 5959.000
1297.006, 5928.000
1298.075, 6008.000
1299.143, 5943.000
1300.212, 5936.000
1301.280, 5990.000
1302.348, 6032.000
1303.416, 5962.000
1304.484, 5953.000
1305.552, 6016.000
1306.620, 5971.000
1307.687, 6044.000
1308.754, 5993.000
1309.821, 6114.000
1310.888, 5958.000
1311.955, 6017.000
1313.021, 6042.000
1314.088, 6127.000
1315.154, 5974.000
1316.220, 5996.000
1317.286, 5925.000
1318.352, 5980.000
1319.417, 6018.000
1320.483, 5921.000
1321.548, 5977.000
1322.613, 5949.000
1323.678, 5925.000
1324.743, 5969.000
1325.807, 6021.000
1326.872, 6014.000
1327.936, 5943.000
1329.000, 6080.000
1330.064, 6087.000
1331.128, 6108.000
1332.191, 5999.000
1333.255, 6064.000
1334.318, 6030.000
1335.381, 5971.000
1336.444, 5983.000
1337.507, 6058.000
1338.569, 6040.464
1339.632, 6076.000
1340.694, 6063.000
1341.756, 6060.000
1342.818, 6007.000
1343.880, 6066.000
1344.941, 6059.000
1346.003, 6114.000
1347.064, 6096.000
1348.125, 6142.000
1349.186, 6069.000
1350.247, 6100.000
1351.308, 6082.000
1352.368, 6053.000
1353.428, 6022.000
1354.489, 6078.000
1355.549, 6140.000
1356.608, 6148.000
1357.668, 6161.613
1358.727, 6157.000
1359.787, 6124.000
1360.846, 6154.000
1361.905, 6103.000
1362.964, 6139.000
1364.022, 6112.000
1365.081, 6123.131
1366.139, 6150.000
1367.197, 6157.000
1368.255, 6160.000
1369.313, 6190.000
1370.371, 6166.166
1371.428, 6205.000
1372.486, 6124.000
1373.543, 6151.000
1374.600, 6123.000
1375.657, 6151.000
1376.713, 6113.000
1377.770, 6136.000
1378.826, 6058.000
1379.882, 6099.000
1380.938, 6152.000
1381.994, 6099.000
1383.050, 6070.000
1384.106, 6136.000
1385.161, 6061.000
1386.216, 6140.000
1387.271, 6092.000
1388.326, 6043.000
1389.381, 6168.000
1390.435, 6115.000
1391.490, 6110.000
1392.544, 6072.000
1393.598, 6042.000
1394.652, 6137.000
1395.705, 6062.000
1396.759, 6206.000
1397.812, 6080.000
1398.866, 6144.000
1399.919, 6087.000
1400.972, 6084.000
1402.024, 6174.000
1403.077, 6091.000
1404.129, 6144.000
1405.181, 6133.000
1406.233, 6147.000
1407.285, 6145.340
1408.337, 6112.000
1409.389, 6138.000
1410.440, 6109.000
1411.491, 6142.000
1412.542, 6079.000
1413.593, 6138.000
1414.644, 6111.000
1415.695, 6159.000
1416.745, 6068.000
1417.795, 6058.000
1418.845, 6177.000
1419.895, 6269.000
1420.945, 6130.000
1421.995, 6153.000
1423.044, 6177.000
1424.093, 6132.000
1425.142, 6106.000
1426.191, 6113.000
1427.240, 6175.000
1428.289, 6197.000
1429.337, 6068.000
1430.385, 6102.000
1431.433, 6197.000
1432.481, 6079.000
1433.529, 6119.000
1434.577, 6187.000
1435.624, 6211.000
1436.672, 6235.000
1437.719, 6147.000
1438.766, 6219.000
1439.812, 6207.000
1440.859, 6101.000
1441.905, 6191.000
1442.952, 6150.000
1443.998, 6222.000
1445.044, 6203.000
1446.090, 6175.000
1447.135, 6139.000
1448.181, 6204.000
1449.226, 6226.000
1450.271, 6197.000
1451.316, 6133.000
1452.361, 6194.000
1453.405, 6215.000
1454.450, 6176.000
1455.494, 6187.000
1456.538, 6224.000
1457.582, 6182.734
1458.626, 6235.000
1459.670, 6155.000
1460.713, 6202.000
1461.757, 6227.000
1462.800, 6148.000
1463.843, 6222.000
1464.886, 6261.000
1465.928, 6184.000
1466.971, 6127.000
1468.013, 6245.000
1469.055, 6207.000
1470.097, 6281.000
1471.139, 6263.000
1472.181, 6314.000
1473.222, 6311.000
1474.263, 6357.000
1475.305, 6342.229
1476.346, 6188.000
1477.386, 6278.000
1478.427, 6257.000
1479.468, 6156.000
1480.508, 6304.000
1481.548, 6128.000
1482.588, 6288.000
1483.628, 6176.000
1484.668, 6176.000
1485.707, 6343.000
1486.747, 6214.000
1487.786, 6204.000
1488.825, 6207.000
1489.864, 6305.000
1490.902, 6306.000
1491.941, 6192.000
1492.979, 6363.000
1494.017, 6277.000
1495.055, 6230.000
1496.093, 6319.000
1497.131, 6308.000
1498.168, 6258.000
1499.206, 6262.000
1500.243, 6253.760
1501.280, 6245.000
1502.317, 6269.000
1503.354, 6285.000
1504.390, 6309.000
1505.426, 6306.000
1506.463, 6355.000
1507.499, 6305.000
1508.535, 6358.000
1509.570, 6287.000
1510.606, 6299.159
1511.641, 6346.000
1512.676, 6285.000
1513.711, 6350.000
1514.746, 6338.000
1515.781, 6339.000
1516.816, 6249.000
1517.850, 6283.000
1518.884, 6252.000
1519.918, 6367.000
1520.952, 6254.000
1521.986, 6344.000
1523.019, 6349.000
1524.053, 6288.000
1525.086, 6290.000
1526.119, 6247.000
1527.152, 6322.000
1528.185, 6317.000
1529.217, 6345.000
1530.250, 6325.000
1531.282, 6363.000
1532.314, 6377.000
1533.346, 6450.000
1534.377, 6356.000
1535.409, 6275.000
1536.440, 6272.000
1537.472, 6409.000
1538.503, 6324.000
1539.534, 6391.000
1540.564, 6383.000
1541.595, 6303.000
1542.625, 6319.000
1543.656, 6319.000
1544.686, 6349.000
1545.716, 6371.000
1546.745, 6365.000
1547.775, 6329.000
1548.804, 6298.000
1549.834, 6427.000
1550.863, 6481.000
1551.892, 6525.000
1552.920, 6445.000
1553.949, 6560.000
1554.977, 6590.000
1556.006, 6410.000
1557.034, 6438.000
1558.062, 6504.000
1559.089, 6399.000
1560.117, 6402.000
1561.144, 6421.000
1562.172, 6397.000
1563.199, 6428.000
1564.226, 6351.000
1565.252, 6437.000
1566.279, 6393.000
1567.305, 6368.000
1568.332, 6439.000
1569.358, 6401.000
1570.384, 6461.000
1571.409, 6446.000
1572.435, 6511.000
##END=



