##NAMES=Epididymite
##RRUFFID=R070580
##IDEAL CHEMISTRY=Na_2_Be_2_Si_6_O_15_&#183;H_2_O
##LOCALITY=Narsarsuk, Narsaq, Kitaa, Greenland
##OWNER=RRUFF
##SOURCE=James Shigley
##DESCRIPTION=A translucent to white elongated prism.
##STATUS=The identification of this mineral is confirmed by single-crystal X-ray diffraction and chemical analysis.
##URL=rruff.info/R070580
##MEASURED CHEMISTRY=(Na_1.97_K_0.03_)_Σ=2_Be_2_Si_6.00_O_15_·H_2_O; trace amounts of Al; Be and H_2_O assumed by stoichiometry
##PIN_ID=M01011
##ORIENTATION=Laser parallel to c* (0 0 1). Fiducial mark perpendicular to laser is parallel to a [1 0 0]
111.2060, 6735.000
112.4440, 6626.000
113.6810, 6867.000
114.9180, 7274.000
116.1550, 7672.000
117.3920, 7934.000
118.6290, 8303.000
119.8650, 8611.000
121.1010, 8824.000
122.3370, 9370.000
123.5730, 9627.000
124.8090, 9687.000
126.0450, 9570.000
127.2800, 9562.000
128.5150, 9965.000
129.7500, 10466.00
130.9850, 11125.00
132.2200, 11282.00
133.4540, 11400.00
134.6890, 11775.00
135.9230, 10318.00
137.1570, 9413.000
138.3900, 8562.000
139.6240, 8190.000
140.8580, 7767.000
142.0910, 7537.000
143.3240, 7279.000
144.5570, 7300.000
145.7900, 7235.000
147.0220, 7245.000
148.2550, 7400.000
149.4870, 7399.000
150.7190, 7421.000
151.9510, 7509.000
153.1830, 7417.000
154.4140, 7499.000
155.6460, 7378.000
156.8770, 7315.000
158.1080, 7281.000
159.3390, 7251.732
160.5690, 7245.000
161.8000, 7336.000
163.0300, 7473.000
164.2600, 7685.000
165.4900, 7823.000
166.7200, 7786.000
167.9500, 7995.000
169.1790, 8008.000
170.4080, 7944.000
171.6380, 7797.000
172.8670, 7687.000
174.0950, 7498.000
175.3240, 7519.000
176.5520, 7649.000
177.7810, 7382.000
179.0090, 7471.000
180.2370, 7410.000
181.4640, 7388.000
182.6920, 7526.000
183.9190, 7569.000
185.1460, 7685.000
186.3730, 7829.000
187.6000, 7917.000
188.8270, 8004.000
190.0530, 8215.000
191.2800, 8298.000
192.5060, 8369.000
193.7320, 8569.000
194.9580, 8660.000
196.1830, 8905.000
197.4090, 8905.000
198.6340, 8957.000
199.8590, 9014.000
201.0840, 8802.000
202.3090, 8738.000
203.5340, 8766.000
204.7580, 8495.000
205.9820, 8376.000
207.2060, 8198.000
208.4300, 8116.000
209.6540, 7971.000
210.8780, 7915.000
212.1010, 7925.000
213.3240, 7767.000
214.5470, 7862.000
215.7700, 7927.000
216.9930, 7968.000
218.2150, 7995.348
219.4380, 7957.000
220.6600, 8008.000
221.8820, 8100.000
223.1040, 8125.000
224.3260, 8280.379
225.5470, 8404.000
226.7680, 8584.000
227.9900, 8703.000
229.2110, 8850.000
230.4310, 9000.701
231.6520, 9190.000
232.8720, 9308.464
234.0930, 9548.000
235.3130, 9749.000
236.5330, 9914.000
237.7530, 10115.00
238.9720, 10414.00
240.1920, 10602.00
241.4110, 10768.00
242.6300, 10717.00
243.8490, 10564.00
245.0680, 10308.00
246.2860, 10196.00
247.5040, 9870.000
248.7230, 9515.000
249.9410, 9444.000
251.1590, 9080.000
252.3760, 9144.000
253.5940, 9062.000
254.8110, 9015.000
256.0280, 8897.000
257.2450, 9026.000
258.4620, 8887.000
259.6790, 9030.000
260.8950, 8927.348
262.1120, 9099.000
263.3280, 8819.000
264.5440, 8672.000
265.7600, 8736.000
266.9750, 8609.000
268.1910, 8460.000
269.4060, 8540.000
270.6210, 8432.000
271.8360, 8266.000
273.0510, 8231.000
274.2650, 8156.000
275.4800, 8053.000
276.6940, 8070.000
277.9080, 8073.000
279.1220, 8077.000
280.3360, 8093.000
281.5490, 8116.000
282.7630, 8002.000
283.9760, 8117.000
285.1890, 8056.000
286.4020, 7943.000
287.6150, 7981.000
288.8270, 7998.000
290.0400, 7965.000
291.2520, 8067.000
292.4640, 8078.000
293.6760, 8039.000
294.8870, 8009.000
296.0990, 8091.000
297.3100, 8133.000
298.5210, 7980.000
299.7320, 8140.000
300.9430, 8066.000
302.1540, 8132.000
303.3640, 8093.000
304.5750, 8234.000
305.7850, 8234.000
306.9950, 8222.000
308.2050, 8191.000
309.4140, 8194.000
310.6240, 8102.000
311.8330, 8430.000
313.0420, 8337.000
314.2510, 8418.000
315.4600, 8342.000
316.6680, 8409.000
317.8770, 8549.000
319.0850, 8596.000
320.2930, 8667.000
321.5010, 8827.000
322.7090, 9000.000
323.9160, 9074.000
325.1240, 9100.000
326.3310, 9178.000
327.5380, 9234.000
328.7450, 9301.000
329.9520, 9576.000
331.1580, 9579.000
332.3650, 9825.000
333.5710, 9899.000
334.7770, 9963.000
335.9830, 10027.00
337.1880, 10021.00
338.3940, 10140.00
339.5990, 10153.00
340.8040, 10224.36
342.0090, 10271.00
343.2140, 10376.00
344.4190, 10500.00
345.6230, 10615.00
346.8280, 10565.00
348.0320, 10320.00
349.2360, 10167.00
350.4400, 9790.000
351.6430, 9550.000
352.8470, 9349.000
354.0500, 9178.531
355.2530, 9098.000
356.4560, 9029.000
357.6590, 9034.000
358.8620, 9083.000
360.0640, 9169.000
361.2660, 9051.000
362.4680, 9128.000
363.6700, 9163.000
364.8720, 9168.000
366.0740, 9385.000
367.2750, 9397.895
368.4760, 9271.000
369.6770, 9493.000
370.8780, 9730.000
372.0790, 9641.566
373.2800, 10516.00
374.4800, 10518.00
375.6800, 10769.00
376.8800, 10950.00
378.0800, 11291.00
379.2800, 11763.00
380.4790, 11817.49
381.6790, 11948.00
382.8780, 11934.00
384.0770, 11750.00
385.2760, 11518.00
386.4750, 11282.00
387.6730, 10950.00
388.8720, 10702.00
390.0700, 10472.00
391.2680, 10284.00
392.4660, 9908.000
393.6630, 9760.000
394.8610, 9812.000
396.0580, 9864.000
397.2550, 10182.00
398.4520, 10286.00
399.6490, 10905.00
400.8460, 11404.00
402.0420, 11872.00
403.2390, 12473.00
404.4350, 13232.00
405.6310, 14009.00
406.8270, 14754.00
408.0220, 15353.00
409.2180, 15378.00
410.4130, 14569.00
411.6080, 13527.00
412.8030, 12418.00
413.9980, 11219.00
415.1920, 10289.00
416.3870, 9932.000
417.5810, 9550.000
418.7750, 9486.000
419.9690, 9313.000
421.1630, 9174.000
422.3570, 9295.000
423.5500, 9210.000
424.7430, 9188.000
425.9360, 9188.000
427.1290, 9137.000
428.3220, 9395.000
429.5150, 9467.000
430.7070, 9454.000
431.8990, 9384.000
433.0910, 9552.000
434.2830, 9700.000
435.4750, 9561.000
436.6670, 9644.000
437.8580, 9461.000
439.0490, 9686.000
440.2400, 9409.000
441.4310, 9269.000
442.6220, 9389.000
443.8130, 9263.000
445.0030, 9343.000
446.1930, 9274.000
447.3830, 9216.000
448.5730, 9386.000
449.7630, 9283.000
450.9520, 9450.000
452.1420, 9513.000
453.3310, 9407.000
454.5200, 9380.000
455.7090, 9552.000
456.8980, 9579.000
458.0860, 9704.000
459.2740, 9746.893
460.4630, 9700.000
461.6510, 9816.000
462.8380, 9779.000
464.0260, 9815.000
465.2140, 10120.00
466.4010, 10084.00
467.5880, 10380.00
468.7750, 10434.00
469.9620, 10733.00
471.1490, 11008.00
472.3350, 11301.00
473.5220, 11474.00
474.7080, 11962.00
475.8940, 12103.00
477.0800, 11946.00
478.2650, 11995.00
479.4510, 11746.00
480.6360, 11725.00
481.8210, 11734.00
483.0060, 11627.00
484.1910, 11724.00
485.3760, 11764.00
486.5600, 11774.00
487.7440, 11585.00
488.9290, 11389.00
490.1130, 11044.00
491.2960, 10862.00
492.4800, 10601.00
493.6630, 10492.00
494.8470, 10308.00
496.0300, 10397.00
497.2130, 10400.00
498.3960, 10336.00
499.5780, 10424.00
500.7610, 10562.00
501.9430, 10630.00
503.1250, 10882.00
504.3070, 11047.00
505.4890, 11267.00
506.6710, 11696.00
507.8520, 12309.00
509.0330, 13170.00
510.2140, 14149.00
511.3950, 15812.00
512.5760, 17490.00
513.7570, 19481.00
514.9370, 21400.00
516.1170, 23452.00
517.2980, 25841.00
518.4780, 27796.00
519.6570, 29414.00
520.8370, 29598.00
522.0160, 28200.00
523.1960, 25438.00
524.3750, 22538.00
525.5540, 19255.00
526.7320, 16985.00
527.9110, 15032.00
529.0890, 13702.00
530.2680, 13027.00
531.4460, 12241.00
532.6240, 11990.00
533.8010, 11583.00
534.9790, 11388.00
536.1560, 11089.00
537.3340, 11042.00
538.5110, 10908.00
539.6880, 10664.00
540.8650, 10588.00
542.0410, 10580.00
543.2180, 10567.00
544.3940, 10530.04
545.5700, 10567.00
546.7460, 10502.00
547.9220, 10438.00
549.0970, 10445.00
550.2730, 10349.00
551.4480, 10383.00
552.6230, 10440.00
553.7980, 10397.00
554.9730, 10395.00
556.1470, 10406.00
557.3210, 10462.00
558.4960, 10459.68
559.6700, 10475.00
560.8440, 10508.00
562.0170, 10408.00
563.1910, 10453.00
564.3640, 10495.00
565.5380, 10405.00
566.7110, 10408.00
567.8840, 10480.00
569.0560, 10513.00
570.2290, 10451.00
571.4010, 10762.00
572.5740, 10638.00
573.7460, 10880.00
574.9180, 10815.00
576.0890, 11075.00
577.2610, 11479.00
578.4320, 11727.00
579.6040, 11879.00
580.7750, 12001.00
581.9450, 12245.00
583.1160, 12733.00
584.2870, 13017.00
585.4570, 12963.00
586.6270, 12752.00
587.7980, 12324.00
588.9670, 12142.00
590.1370, 11704.00
591.3070, 11261.00
592.4760, 11260.00
593.6450, 11135.00
594.8140, 10934.00
595.9830, 10894.00
597.1520, 10830.00
598.3210, 10809.00
599.4890, 10766.00
600.6570, 10757.00
601.8250, 10710.00
602.9930, 10772.00
604.1610, 10827.00
605.3290, 10781.00
606.4960, 10780.00
607.6630, 10714.00
608.8300, 10861.00
609.9970, 10736.00
611.1640, 10771.00
612.3300, 10629.00
613.4970, 10761.00
614.6630, 10863.00
615.8290, 10803.00
616.9950, 10893.00
618.1610, 10920.00
619.3260, 11048.00
620.4920, 10823.00
621.6570, 10929.00
622.8220, 10977.00
623.9870, 11059.00
625.1520, 11139.00
626.3160, 11137.00
627.4810, 11235.00
628.6450, 11195.00
629.8090, 11269.00
630.9730, 11342.00
632.1370, 11534.00
633.3000, 11557.00
634.4640, 11548.00
635.6270, 11490.00
636.7900, 11327.00
637.9530, 11371.00
639.1160, 11296.00
640.2780, 11095.00
641.4410, 11106.00
642.6030, 11206.00
643.7650, 11172.00
644.9270, 11054.00
646.0890, 11070.00
647.2500, 10992.00
648.4120, 11001.34
649.5730, 11092.00
650.7340, 11019.00
651.8950, 11133.00
653.0560, 11109.00
654.2160, 11121.00
655.3770, 11067.00
656.5370, 11199.00
657.6970, 11127.00
658.8570, 11153.00
660.0170, 11097.00
661.1760, 11110.00
662.3360, 11219.00
663.4950, 11084.00
664.6540, 11265.00
665.8130, 11198.00
666.9720, 11209.00
668.1310, 11174.00
669.2890, 11245.00
670.4470, 11295.00
671.6050, 11180.00
672.7630, 11224.00
673.9210, 11315.00
675.0790, 11249.00
676.2360, 11364.00
677.3930, 11442.00
678.5510, 11349.00
679.7080, 11521.00
680.8640, 11579.00
682.0210, 11486.00
683.1770, 11438.00
684.3340, 11581.00
685.4900, 11478.00
686.6460, 11352.00
687.8020, 11470.00
688.9570, 11431.00
690.1130, 11362.00
691.2680, 11422.00
692.4230, 11366.00
693.5780, 11394.00
694.7330, 11331.00
695.8880, 11346.57
697.0420, 11379.00
698.1960, 11399.00
699.3510, 11445.00
700.5040, 11493.38
701.6580, 11585.00
702.8120, 11598.00
703.9650, 11664.00
705.1190, 11695.00
706.2720, 11613.00
707.4250, 11627.00
708.5780, 11645.59
709.7300, 11589.00
710.8830, 11681.00
712.0350, 11680.00
713.1870, 11646.00
714.3390, 11722.00
715.4910, 11650.00
716.6430, 11739.00
717.7940, 11702.00
718.9460, 11734.00
720.0970, 11713.00
721.2480, 11861.00
722.3990, 11877.00
723.5500, 11758.00
724.7000, 11810.00
725.8500, 11702.00
727.0010, 11783.00
728.1510, 11870.00
729.3010, 11793.00
730.4500, 11859.00
731.6000, 11928.00
732.7490, 11913.00
733.8980, 11833.00
735.0470, 11976.00
736.1960, 11904.00
737.3450, 11932.00
738.4940, 11971.00
739.6420, 11972.46
740.7900, 12015.95
741.9380, 12025.00
743.0860, 12064.00
744.2340, 12051.00
745.3810, 12029.00
746.5290, 11945.00
747.6760, 12148.00
748.8230, 12035.00
749.9700, 12145.00
751.1170, 12048.00
752.2630, 12094.00
753.4100, 12040.00
754.5560, 12215.00
755.7020, 12231.00
756.8480, 12316.00
757.9940, 12204.00
759.1390, 12329.00
760.2850, 12459.00
761.4300, 12333.00
762.5750, 12323.00
763.7200, 12238.00
764.8650, 12236.00
766.0100, 12372.00
767.1540, 12361.00
768.2980, 12432.00
769.4420, 12328.00
770.5860, 12414.00
771.7300, 12266.00
772.8740, 12384.00
774.0170, 12257.00
775.1610, 12364.00
776.3040, 12631.00
777.4470, 12463.86
778.5900, 12547.00
779.7320, 12375.00
780.8750, 12535.00
782.0170, 12596.00
783.1590, 12524.00
784.3010, 12477.00
785.4430, 12515.00
786.5850, 12485.00
787.7260, 12396.00
788.8680, 12662.00
790.0090, 12643.00
791.1500, 12637.00
792.2910, 12638.00
793.4310, 12648.00
794.5720, 12771.00
795.7120, 12588.00
796.8520, 12740.00
797.9920, 12695.00
799.1320, 12712.00
800.2720, 12810.00
801.4120, 12660.00
802.5510, 12664.00
803.6900, 12681.00
804.8290, 12758.00
805.9680, 12722.00
807.1070, 12800.00
808.2450, 12837.00
809.3840, 12872.00
810.5220, 12893.00
811.6600, 12909.40
812.7980, 13016.00
813.9360, 12938.00
815.0730, 13036.00
816.2110, 13084.00
817.3480, 13233.00
818.4850, 13254.00
819.6220, 13198.00
820.7590, 13080.00
821.8960, 13080.00
823.0320, 13020.00
824.1680, 13138.00
825.3040, 13121.00
826.4400, 12971.00
827.5760, 13027.00
828.7120, 12962.00
829.8470, 13208.00
830.9830, 12978.00
832.1180, 13111.00
833.2530, 13318.00
834.3880, 13177.48
835.5220, 13154.00
836.6570, 13159.00
837.7910, 13088.00
838.9250, 13150.00
840.0590, 13131.00
841.1930, 13081.00
842.3270, 13239.00
843.4600, 13242.00
844.5940, 13268.00
845.7270, 13171.00
846.8600, 13221.00
847.9930, 13507.00
849.1250, 13113.00
850.2580, 13368.00
851.3900, 13189.00
852.5230, 13339.00
853.6550, 13444.00
854.7870, 13308.00
855.9180, 13430.00
857.0500, 13405.00
858.1810, 13553.00
859.3130, 13621.00
860.4440, 13570.00
861.5750, 13434.00
862.7050, 13501.00
863.8360, 13486.09
864.9660, 13561.00
866.0970, 13591.00
867.2270, 13627.00
868.3570, 13701.00
869.4870, 13641.00
870.6160, 13783.00
871.7460, 13662.00
872.8750, 13864.00
874.0040, 13813.00
875.1330, 13842.00
876.2620, 13873.00
877.3910, 13785.00
878.5190, 13865.00
879.6470, 13736.00
880.7760, 13776.00
881.9040, 13823.00
883.0310, 13688.00
884.1590, 13880.00
885.2870, 13846.00
886.4140, 13850.00
887.5410, 13800.00
888.6680, 13862.00
889.7950, 13836.00
890.9220, 13829.00
892.0480, 13844.00
893.1750, 13971.00
894.3010, 13896.00
895.4270, 13755.00
896.5530, 13876.00
897.6790, 13786.00
898.8040, 13755.00
899.9300, 13942.00
901.0550, 13861.00
902.1800, 13828.00
903.3050, 14078.00
904.4300, 13912.00
905.5540, 14055.00
906.6790, 14091.00
907.8030, 13988.00
908.9270, 14018.00
910.0510, 13942.00
911.1750, 13825.00
912.2990, 13899.00
913.4220, 14181.00
914.5450, 13988.00
915.6690, 14247.00
916.7920, 14115.00
917.9140, 14014.00
919.0370, 14320.00
920.1600, 14148.00
921.2820, 14190.00
922.4040, 14200.00
923.5260, 14186.00
924.6480, 14271.00
925.7700, 14226.00
926.8910, 14172.00
928.0130, 14313.00
929.1340, 14224.00
930.2550, 14396.00
931.3760, 14173.00
932.4970, 14243.00
933.6170, 14437.00
934.7380, 14358.00
935.8580, 14363.00
936.9780, 14230.00
938.0980, 14298.89
939.2180, 14547.00
940.3370, 14378.00
941.4570, 14479.00
942.5760, 14461.00
943.6950, 14439.00
944.8140, 14601.00
945.9330, 14510.00
947.0520, 14616.00
948.1700, 14513.00
949.2890, 14575.00
950.4070, 14506.00
951.5250, 14456.00
952.6430, 14584.00
953.7600, 14621.00
954.8780, 14622.00
955.9950, 14574.00
957.1120, 14602.33
958.2290, 14600.20
959.3460, 14612.00
960.4630, 14644.00
961.5800, 14665.00
962.6960, 14714.39
963.8120, 14716.12
964.9280, 14761.00
966.0440, 14746.00
967.1600, 14768.00
968.2760, 14822.00
969.3910, 14639.00
970.5060, 14801.00
971.6210, 14861.00
972.7360, 14797.00
973.8510, 15007.00
974.9660, 14978.00
976.0800, 14894.00
977.1950, 15013.00
978.3090, 14952.00
979.4230, 14866.00
980.5370, 15050.00
981.6500, 14946.00
982.7640, 14944.00
983.8770, 14892.00
984.9900, 15010.00
986.1030, 15132.00
987.2160, 15078.00
988.3290, 15107.00
989.4420, 15222.00
990.5540, 15116.00
991.6660, 15307.00
992.7780, 15259.00
993.8900, 15292.00
995.0020, 15305.00
996.1140, 15257.00
997.2250, 15254.00
998.3360, 15316.00
999.4470, 15390.00
1000.558, 15690.00
1001.669, 15483.00
1002.780, 15344.00
1003.890, 15604.00
1005.001, 15503.00
1006.111, 15816.00
1007.221, 15534.00
1008.331, 15902.00
1009.440, 15740.00
1010.550, 15808.00
1011.659, 15606.00
1012.768, 15622.46
1013.877, 15812.00
1014.986, 15598.00
1016.095, 15663.00
1017.204, 15662.00
1018.312, 15865.00
1019.420, 15911.00
1020.528, 15762.00
1021.636, 15902.00
1022.744, 15801.00
1023.852, 16072.00
1024.959, 16250.00
1026.066, 16044.00
1027.173, 16150.00
1028.280, 16321.00
1029.387, 16384.00
1030.494, 16393.00
1031.600, 16544.00
1032.707, 16593.00
1033.813, 16690.00
1034.919, 16897.00
1036.025, 17162.00
1037.130, 17192.30
1038.236, 17233.00
1039.341, 17306.00
1040.446, 17344.00
1041.552, 17359.00
1042.656, 17333.00
1043.761, 17420.00
1044.866, 17411.00
1045.970, 17409.00
1047.074, 17336.00
1048.179, 17422.00
1049.282, 17210.00
1050.386, 17233.00
1051.490, 17140.00
1052.593, 17184.00
1053.697, 17186.00
1054.800, 17152.00
1055.903, 17049.00
1057.006, 17053.00
1058.108, 17007.86
1059.211, 17037.36
1060.313, 17014.00
1061.415, 17134.00
1062.517, 17253.00
1063.619, 17299.00
1064.721, 17263.00
1065.823, 16958.00
1066.924, 17195.00
1068.025, 17041.00
1069.126, 17114.00
1070.227, 17112.00
1071.328, 17278.00
1072.429, 17244.00
1073.529, 17000.00
1074.629, 16885.00
1075.729, 16985.00
1076.829, 16990.00
1077.929, 17012.00
1079.029, 16868.00
1080.128, 17013.00
1081.228, 16802.00
1082.327, 16947.00
1083.426, 16776.00
1084.525, 17070.00
1085.623, 16825.00
1086.722, 16774.00
1087.820, 16789.00
1088.919, 16772.11
1090.017, 16825.95
1091.115, 16895.00
1092.212, 16973.00
1093.310, 16970.00
1094.407, 17057.00
1095.505, 17041.00
1096.602, 17052.00
1097.699, 17158.00
1098.795, 17243.00
1099.892, 17303.00
1100.989, 17378.16
1102.085, 17474.00
1103.181, 17502.00
1104.277, 17582.15
1105.373, 17614.75
1106.469, 17684.00
1107.564, 17670.00
1108.660, 17676.00
1109.755, 17692.00
1110.850, 17840.00
1111.945, 18003.00
1113.040, 18093.00
1114.134, 18222.00
1115.229, 18139.00
1116.323, 18396.00
1117.417, 18225.00
1118.511, 18581.00
1119.605, 18676.00
1120.698, 18742.00
1121.792, 19180.00
1122.885, 19097.00
1123.978, 19363.00
1125.071, 19433.00
1126.164, 19839.00
1127.257, 20078.00
1128.349, 20342.00
1129.442, 20762.00
1130.534, 21037.00
1131.626, 21420.00
1132.718, 21770.00
1133.810, 22283.00
1134.901, 22219.00
1135.993, 22577.00
1137.084, 22995.00
1138.175, 22791.00
1139.266, 22700.00
1140.357, 22532.00
1141.448, 22270.00
1142.538, 22044.00
1143.628, 21633.00
1144.719, 21106.00
1145.809, 20826.00
1146.898, 20512.00
1147.988, 20018.00
1149.078, 19810.00
1150.167, 19479.00
1151.256, 19088.00
1152.345, 19080.00
1153.434, 18910.00
1154.523, 18831.00
1155.612, 18668.00
1156.700, 18479.00
1157.788, 18377.00
1158.877, 18285.21
1159.964, 18235.36
1161.052, 18241.00
1162.140, 18222.00
1163.227, 18348.00
1164.315, 18369.00
1165.402, 18127.00
1166.489, 18252.00
1167.576, 18349.00
1168.663, 18282.00
1169.749, 18390.00
1170.836, 18274.00
1171.922, 18418.00
1173.008, 18241.00
1174.094, 18396.00
1175.180, 18226.00
1176.265, 18403.00
1177.351, 18326.00
1178.436, 18365.00
1179.521, 18531.00
1180.606, 18349.00
1181.691, 18396.00
1182.776, 18398.00
1183.860, 18589.00
1184.944, 18574.00
1186.029, 18455.00
1187.113, 18609.00
1188.197, 18540.00
1189.280, 18494.00
1190.364, 18541.00
1191.447, 18565.00
1192.531, 18589.00
1193.614, 18640.00
1194.697, 18774.00
1195.779, 18526.00
1196.862, 18805.00
1197.945, 18732.00
1199.027, 18634.00
1200.109, 18902.00
1201.191, 18935.00
1202.273, 18802.00
1203.355, 18741.00
1204.436, 18916.00
1205.518, 18877.00
1206.599, 18846.00
1207.680, 18756.00
1208.761, 18690.00
1209.842, 18859.00
1210.922, 18969.00
1212.003, 18890.00
1213.083, 18958.00
1214.163, 18755.00
1215.243, 19074.00
1216.323, 18995.00
1217.402, 18969.00
1218.482, 19114.00
1219.561, 19186.00
1220.641, 19156.00
1221.720, 19204.00
1222.798, 19180.00
1223.877, 19258.00
1224.956, 19301.00
1226.034, 19266.00
1227.112, 19246.00
1228.191, 19189.00
1229.269, 19291.00
1230.346, 19372.00
1231.424, 19347.00
1232.501, 19472.00
1233.579, 19396.00
1234.656, 19508.00
1235.733, 19349.00
1236.810, 19465.00
1237.886, 19597.00
1238.963, 19449.00
1240.039, 19461.00
1241.116, 19393.00
1242.192, 19425.00
1243.268, 19454.00
1244.343, 19692.00
1245.419, 19726.00
1246.494, 19646.00
1247.570, 19598.00
1248.645, 19602.00
1249.720, 19591.12
1250.795, 19534.00
1251.869, 19657.00
1252.944, 19759.00
1254.018, 19838.00
1255.093, 19773.00
1256.167, 19991.00
1257.240, 19826.00
1258.314, 19874.00
1259.388, 19962.00
1260.461, 19882.00
1261.535, 20087.00
1262.608, 20044.00
1263.681, 20095.00
1264.753, 20067.00
1265.826, 19973.00
1266.899, 20086.00
1267.971, 20113.00
1269.043, 20115.00
1270.115, 20334.00
1271.187, 20290.00
1272.259, 20101.00
1273.330, 20229.00
1274.402, 20286.00
1275.473, 20411.00
1276.544, 20421.00
1277.615, 20469.41
1278.686, 20249.00
1279.756, 20502.00
1280.827, 20338.00
1281.897, 20328.00
1282.967, 20408.00
1284.037, 20399.00
1285.107, 20658.00
1286.177, 20617.00
1287.247, 20696.00
1288.316, 20636.00
1289.385, 20736.00
1290.454, 20571.00
1291.523, 21082.00
1292.592, 20903.00
1293.661, 20756.00
1294.729, 20966.00
1295.797, 20803.00
1296.866, 20891.00
1297.934, 20754.00
1299.001, 21003.00
1300.069, 21071.00
1301.137, 21129.00
1302.204, 21010.00
1303.271, 21057.00
1304.338, 21181.00
1305.405, 21109.00
1306.472, 21189.00
1307.539, 21164.00
1308.605, 21270.00
1309.671, 21209.00
1310.737, 21259.00
1311.803, 21227.58
1312.869, 21288.00
1313.935, 21243.00
1315.000, 21370.00
1316.066, 21334.66
1317.131, 21304.00
1318.196, 21379.00
1319.261, 21467.00
1320.326, 21616.00
1321.390, 21569.00
1322.455, 21523.00
1323.519, 21603.00
1324.583, 21563.35
1325.647, 21599.00
1326.711, 21592.00
1327.775, 21696.00
1328.838, 21745.00
1329.902, 21535.00
1330.965, 21697.00
1332.028, 21831.00
1333.091, 21573.00
1334.153, 21896.00
1335.216, 21784.00
1336.279, 21711.00
1337.341, 21853.00
1338.403, 21851.00
1339.465, 21957.00
1340.527, 21968.00
1341.588, 21862.00
1342.650, 21954.00
1343.711, 22003.00
1344.772, 22013.00
1345.834, 21884.00
1346.894, 22113.00
1347.955, 22134.00
1349.016, 22132.00
1350.076, 22289.00
1351.136, 22047.00
1352.197, 22233.00
1353.257, 22220.00
1354.316, 22156.00
1355.376, 22281.00
1356.436, 22235.00
1357.495, 22350.00
1358.554, 22377.00
1359.613, 22405.00
1360.672, 22327.00
1361.731, 22457.00
1362.789, 22268.00
1363.848, 22428.00
1364.906, 22574.00
1365.964, 22473.00
1367.022, 22590.00
1368.080, 22449.00
1369.138, 22511.00
1370.195, 22644.00
1371.253, 22711.00
1372.310, 22733.24
1373.367, 22469.00
1374.424, 22722.00
1375.480, 22738.00
1376.537, 22677.00
1377.593, 22964.00
1378.650, 22721.00
1379.706, 23023.00
1380.762, 22975.00
1381.818, 22774.00
1382.873, 23023.00
1383.929, 22959.00
1384.984, 22982.00
1386.039, 23101.00
1387.094, 23012.00
1388.149, 23091.48
1389.204, 22948.00
1390.259, 23135.00
1391.313, 23040.00
1392.367, 23018.00
1393.422, 23102.00
1394.476, 23035.00
1395.529, 23333.00
1396.583, 23040.00
1397.637, 23292.00
1398.690, 23380.00
1399.743, 23232.00
1400.796, 23205.00
1401.849, 23415.00
1402.902, 23409.00
1403.954, 23523.09
1405.007, 23268.00
1406.059, 23622.00
1407.111, 23610.00
1408.163, 23429.00
1409.215, 23726.00
1410.267, 23798.00
1411.318, 23730.00
1412.370, 23730.00
1413.421, 23509.00
1414.472, 23663.00
1415.523, 23677.00
1416.574, 23896.00
1417.624, 23807.00
1418.675, 23599.00
1419.725, 23996.00
1420.775, 23956.00
1421.825, 24154.00
1422.875, 23858.00
1423.925, 24217.00
1424.974, 24171.00
1426.024, 24120.00
1427.073, 24225.00
1428.122, 24216.00
1429.171, 24293.00
1430.220, 24409.00
1431.268, 24130.00
1432.317, 24413.00
1433.365, 24504.00
1434.413, 24719.00
1435.461, 24535.00
1436.509, 24817.00
1437.557, 24683.00
1438.605, 24725.00
1439.652, 24797.00
1440.699, 24693.00
1441.746, 24538.00
1442.793, 24794.00
1443.840, 24761.00
1444.887, 24956.00
1445.933, 24927.00
1446.980, 24882.00
1448.026, 25009.00
1449.072, 24801.00
1450.118, 24715.00
1451.163, 25057.00
1452.209, 25030.00
1453.254, 25045.00
1454.300, 24996.00
1455.345, 24994.00
1456.390, 25003.05
1457.435, 25061.00
1458.479, 25081.00
1459.524, 25040.00
1460.568, 25188.00
1461.612, 24869.00
1462.656, 25113.00
1463.700, 25020.00
1464.744, 25220.00
1465.788, 25046.00
1466.831, 25190.00
1467.874, 25332.00
1468.918, 25248.00
1469.961, 25266.00
1471.003, 25466.00
1472.046, 25176.00
1473.089, 25333.00
1474.131, 25405.00
1475.173, 25275.00
1476.215, 25487.00
1477.257, 25387.00
1478.299, 25671.00
1479.341, 25572.00
1480.382, 25623.00
1481.424, 25660.00
1482.465, 25494.00
1483.506, 25426.00
1484.547, 25452.00
1485.587, 25586.00
1486.628, 25540.00
1487.668, 25366.00
1488.709, 25773.00
1489.749, 25719.00
1490.789, 25589.00
1491.828, 25968.00
1492.868, 25809.00
1493.908, 25747.00
1494.947, 25747.00
1495.986, 25825.00
1497.025, 25740.00
1498.064, 25958.00
1499.103, 25838.00
1500.141, 25833.00
1501.180, 26059.00
1502.218, 25988.00
1503.256, 26139.00
1504.294, 26111.00
1505.332, 25940.00
1506.370, 26126.00
1507.407, 26259.00
1508.445, 26040.00
1509.482, 26034.00
1510.519, 26312.00
1511.556, 26267.00
1512.593, 26052.00
1513.629, 26193.00
1514.666, 26224.00
1515.702, 26236.00
1516.738, 26144.00
1517.774, 26330.00
1518.810, 26252.00
1519.846, 26348.00
1520.882, 26441.00
1521.917, 26497.00
1522.952, 26593.00
1523.987, 26475.00
1525.022, 26447.00
1526.057, 26519.00
1527.092, 26611.00
1528.126, 26523.00
1529.161, 26556.00
1530.195, 26516.00
1531.229, 26503.00
1532.263, 26590.00
1533.297, 26606.00
1534.330, 26567.00
1535.364, 26668.00
1536.397, 26775.00
1537.430, 26643.00
1538.463, 26822.00
1539.496, 26665.00
1540.529, 26846.00
1541.561, 26846.00
1542.594, 26872.00
1543.626, 26758.00
1544.658, 26925.00
1545.690, 26891.00
1546.722, 26698.00
1547.753, 26889.00
1548.785, 26887.00
1549.816, 27065.00
1550.847, 27036.00
1551.878, 27161.00
1552.909, 26920.00
1553.940, 27277.00
1554.971, 27341.00
1556.001, 27328.00
1557.031, 26993.00
1558.062, 27072.00
1559.092, 27276.00
1560.121, 27051.00
1561.151, 27282.00
1562.181, 27431.00
##END=



