##NAMES=Epidote
##RRUFFID=R050303
##IDEAL CHEMISTRY=Ca_2_Fe^3+^Al_2_(Si_2_O_7_)(SiO_4_)O(OH)
##LOCALITY=San Martin mine, Zacatecas, Mexico
##OWNER=RRUFF
##SOURCE=Eugene Schlepp
##DESCRIPTION=Green elongated prismatic crystals
##STATUS=The identification of this mineral has been confirmed by X-ray diffraction and chemical analysis
##URL=rruff.info/R050303
##MEASURED CHEMISTRY=Ca_2.00_Al_2.00_(Fe^3+^_0.97_Al_0.03_)(SiO_4_)(Si_2_O_7_)O(OH)
##PIN_ID=L01647
##ORIENTATION=Laser parallel to (1 0 1). Fiducial mark perpendicular to laser is parallel to b [0 1 0]
53.91000, 623.0000
55.14900, 633.0000
56.38700, 619.0000
57.62600, 623.0000
58.86400, 656.0000
60.10300, 656.0000
61.34100, 682.0000
62.57900, 723.0000
63.81700, 761.0000
65.05400, 806.0000
66.29200, 891.0000
67.52900, 1039.000
68.76700, 1366.000
70.00400, 1625.000
71.24100, 1733.000
72.47700, 1859.000
73.71400, 2144.000
74.95100, 2669.000
76.18700, 3268.000
77.42300, 3726.000
78.65900, 4567.000
79.89500, 5680.000
81.13100, 7009.000
82.36700, 8676.000
83.60200, 10515.00
84.83700, 12113.00
86.07200, 13886.00
87.30800, 15908.00
88.54200, 17400.00
89.77700, 18750.00
91.01200, 19530.00
92.24600, 19901.00
93.48000, 19414.00
94.71400, 18401.00
95.94800, 16841.00
97.18200, 15306.00
98.41600, 13872.00
99.64900, 12622.00
100.8830, 11619.00
102.1160, 10479.00
103.3490, 9829.000
104.5820, 9367.000
105.8150, 9127.000
107.0470, 10015.00
108.2800, 8992.467
109.5120, 9923.000
110.7440, 7928.000
111.9760, 7450.000
113.2080, 7350.000
114.4400, 7703.000
115.6710, 7913.000
116.9030, 7731.000
118.1340, 7851.000
119.3650, 7782.000
120.5960, 7687.000
121.8270, 7875.000
123.0580, 8061.000
124.2880, 8025.000
125.5190, 7716.000
126.7490, 7825.000
127.9790, 7915.000
129.2090, 8074.000
130.4390, 8047.000
131.6680, 8269.000
132.8980, 8271.000
134.1270, 8374.000
135.3560, 8487.000
136.5850, 8721.000
137.8140, 8672.000
139.0430, 9056.000
140.2710, 8867.000
141.5000, 8913.000
142.7280, 8817.000
143.9560, 8891.000
145.1840, 9067.000
146.4120, 9096.000
147.6390, 9528.000
148.8670, 9760.000
150.0940, 10346.00
151.3210, 10884.00
152.5490, 11424.00
153.7750, 12020.00
155.0020, 12962.00
156.2290, 13856.00
157.4550, 14945.00
158.6810, 15787.00
159.9080, 16921.00
161.1340, 18339.00
162.3590, 19449.00
163.5850, 20422.00
164.8110, 21224.00
166.0360, 21339.00
167.2610, 21220.00
168.4860, 21201.00
169.7110, 20288.00
170.9360, 19165.00
172.1610, 17798.00
173.3850, 16469.00
174.6100, 14946.00
175.8340, 13983.00
177.0580, 13161.00
178.2820, 12365.00
179.5050, 11408.00
180.7290, 10896.00
181.9520, 10507.00
183.1760, 9949.000
184.3990, 9797.000
185.6220, 9649.000
186.8450, 9660.000
188.0670, 9742.000
189.2900, 9894.000
190.5120, 10064.00
191.7340, 10295.00
192.9560, 10731.00
194.1780, 10861.00
195.4000, 11020.00
196.6220, 11071.00
197.8430, 11092.00
199.0640, 11198.00
200.2860, 11250.00
201.5070, 11324.00
202.7270, 10927.00
203.9480, 10771.00
205.1690, 10463.00
206.3890, 10305.00
207.6090, 10096.00
208.8290, 9975.000
210.0490, 10038.00
211.2690, 10198.00
212.4890, 10357.00
213.7080, 10429.00
214.9280, 10900.00
216.1470, 11319.00
217.3660, 12007.00
218.5850, 12611.00
219.8030, 13489.00
221.0220, 14069.00
222.2400, 14711.00
223.4590, 15560.00
224.6770, 16058.00
225.8950, 16752.00
227.1120, 17325.00
228.3300, 18098.00
229.5480, 19026.00
230.7650, 19947.00
231.9820, 20980.00
233.1990, 21826.00
234.4160, 22380.00
235.6330, 22752.00
236.8490, 22633.00
238.0660, 22320.00
239.2820, 21561.00
240.4980, 20713.00
241.7140, 19906.00
242.9300, 19121.00
244.1460, 18180.00
245.3610, 17472.00
246.5770, 16557.00
247.7920, 15454.00
249.0070, 14522.00
250.2220, 13457.00
251.4370, 12939.00
252.6510, 12370.00
253.8660, 11844.00
255.0800, 11537.00
256.2940, 11434.00
257.5080, 11942.00
258.7220, 11860.07
259.9360, 12677.00
261.1490, 12440.00
262.3630, 12789.00
263.5760, 13412.00
264.7890, 14426.00
266.0020, 15012.00
267.2150, 15836.00
268.4270, 16331.00
269.6400, 16743.00
270.8520, 16770.00
272.0640, 16709.00
273.2760, 16425.00
274.4880, 16650.00
275.7000, 16371.00
276.9120, 16378.00
278.1230, 16218.00
279.3340, 15795.00
280.5450, 15700.00
281.7560, 15753.00
282.9670, 15786.00
284.1780, 15950.00
285.3880, 16266.00
286.5980, 16784.00
287.8090, 17226.00
289.0190, 17559.00
290.2290, 17525.00
291.4380, 17749.00
292.6480, 17694.00
293.8570, 17823.00
295.0670, 17545.00
296.2760, 17101.00
297.4850, 16955.00
298.6930, 16501.00
299.9020, 16104.00
301.1110, 15943.00
302.3190, 15719.00
303.5270, 15674.00
304.7350, 15541.00
305.9430, 15500.00
307.1510, 15831.00
308.3580, 15706.00
309.5660, 15642.00
310.7730, 15359.00
311.9800, 15352.00
313.1870, 15489.00
314.3940, 15332.00
315.6010, 15533.00
316.8070, 15914.00
318.0130, 15883.00
319.2200, 16234.00
320.4260, 16390.00
321.6310, 16688.00
322.8370, 16607.00
324.0430, 16784.00
325.2480, 16513.00
326.4540, 16572.00
327.6590, 16648.00
328.8640, 16508.00
330.0680, 16506.00
331.2730, 16600.00
332.4780, 16954.00
333.6820, 17724.00
334.8860, 18472.00
336.0900, 20012.00
337.2940, 21397.00
338.4980, 23238.00
339.7010, 24972.00
340.9050, 26738.00
342.1080, 28234.00
343.3110, 29111.00
344.5140, 29918.00
345.7170, 29823.00
346.9200, 29424.00
348.1220, 28591.00
349.3240, 27841.00
350.5270, 26532.00
351.7290, 25166.00
352.9310, 23908.00
354.1320, 22320.00
355.3340, 20910.00
356.5350, 19472.00
357.7370, 18387.00
358.9380, 17424.00
360.1390, 16547.00
361.3400, 15888.00
362.5400, 15088.00
363.7410, 14336.00
364.9410, 13729.00
366.1410, 13055.00
367.3410, 12460.00
368.5410, 11823.00
369.7410, 11365.00
370.9400, 10988.00
372.1400, 10778.00
373.3390, 10462.00
374.5380, 10272.00
375.7370, 10168.00
376.9360, 10302.00
378.1350, 10447.00
379.3330, 10591.00
380.5310, 10650.00
381.7300, 10970.00
382.9280, 11009.00
384.1260, 11185.00
385.3230, 11214.00
386.5210, 11230.00
387.7180, 11105.00
388.9160, 11030.00
390.1130, 10861.00
391.3100, 10735.00
392.5060, 10629.00
393.7030, 10462.00
394.9000, 10247.00
396.0960, 10236.00
397.2920, 10288.00
398.4880, 10246.00
399.6840, 10348.00
400.8800, 10481.94
402.0750, 10702.00
403.2710, 10874.00
404.4660, 11271.00
405.6610, 11562.00
406.8560, 12046.00
408.0510, 12700.00
409.2450, 13322.00
410.4400, 14131.00
411.6340, 15015.00
412.8280, 16216.00
414.0220, 17509.00
415.2160, 19000.00
416.4100, 20233.00
417.6030, 21634.00
418.7970, 22824.00
419.9900, 24428.00
421.1830, 25719.00
422.3760, 27506.00
423.5690, 29686.00
424.7610, 31717.00
425.9540, 34049.00
427.1460, 35986.00
428.3380, 37206.00
429.5300, 38510.00
430.7220, 38803.00
431.9140, 38363.00
433.1050, 38228.00
434.2970, 38141.00
435.4880, 38253.00
436.6790, 39327.00
437.8700, 41040.00
439.0610, 42848.00
440.2510, 45352.00
441.4420, 47536.00
442.6320, 50027.00
443.8220, 52342.00
445.0120, 54299.00
446.2020, 56337.00
447.3910, 57630.00
448.5810, 58042.00
449.7700, 58287.00
450.9600, 57202.00
452.1490, 55528.00
453.3370, 53008.00
454.5260, 50201.00
455.7150, 47035.00
456.9030, 43856.00
458.0910, 40283.00
459.2800, 37081.00
460.4670, 33756.00
461.6550, 30014.00
462.8430, 27179.00
464.0300, 24358.00
465.2180, 22090.00
466.4050, 20333.00
467.5920, 18511.00
468.7790, 16956.00
469.9650, 15984.00
471.1520, 14991.00
472.3380, 14522.00
473.5250, 14043.00
474.7110, 13471.00
475.8970, 13317.00
477.0820, 13168.00
478.2680, 13150.00
479.4540, 12963.00
480.6390, 13049.00
481.8240, 13325.00
483.0090, 13603.00
484.1940, 14097.00
485.3780, 14678.00
486.5630, 15294.00
487.7470, 16202.00
488.9320, 17101.00
490.1160, 17983.00
491.3000, 18693.00
492.4830, 19232.00
493.6670, 19668.63
494.8500, 20010.00
496.0340, 20208.89
497.2170, 20283.83
498.4000, 20281.45
499.5820, 20241.00
500.7650, 19995.00
501.9480, 19710.00
503.1300, 19219.00
504.3120, 18730.00
505.4940, 17773.00
506.6760, 16823.00
507.8580, 15797.00
509.0390, 14909.00
510.2210, 14038.00
511.4020, 13574.00
512.5830, 12659.00
513.7640, 12269.00
514.9450, 11647.00
516.1250, 11253.00
517.3060, 10853.00
518.4860, 10585.00
519.6660, 10263.00
520.8460, 10182.00
522.0260, 9947.000
523.2060, 9871.000
524.3850, 9702.000
525.5650, 9478.000
526.7440, 9377.000
527.9230, 9131.000
529.1020, 9027.000
530.2810, 8843.000
531.4590, 8599.000
532.6380, 8656.000
533.8160, 8619.000
534.9940, 8493.000
536.1720, 8646.000
537.3500, 8576.000
538.5270, 8674.000
539.7050, 8792.000
540.8820, 8974.000
542.0590, 9103.000
543.2360, 9321.000
544.4130, 9567.000
545.5900, 9835.000
546.7660, 10277.00
547.9430, 10725.00
549.1190, 11278.00
550.2950, 12323.00
551.4710, 13345.00
552.6470, 14905.00
553.8220, 16702.00
554.9980, 19245.00
556.1730, 21315.00
557.3480, 23142.00
558.5230, 24571.00
559.6980, 25329.00
560.8730, 25509.00
562.0470, 24707.00
563.2220, 24281.00
564.3960, 23380.00
565.5700, 22690.00
566.7440, 21468.00
567.9170, 20076.00
569.0910, 18653.00
570.2640, 17182.00
571.4380, 16338.00
572.6110, 15604.00
573.7840, 15500.00
574.9570, 15729.00
576.1290, 16128.00
577.3020, 16852.00
578.4740, 17494.00
579.6460, 18311.37
580.8180, 19302.00
581.9900, 20263.00
583.1620, 21256.00
584.3330, 22533.00
585.5040, 23812.00
586.6760, 25328.00
587.8470, 27057.00
589.0180, 28617.00
590.1880, 29981.00
591.3590, 30941.00
592.5290, 31613.07
593.7000, 31958.30
594.8700, 32063.00
596.0400, 31719.00
597.2090, 31264.00
598.3790, 30479.00
599.5490, 30187.00
600.7180, 29282.00
601.8870, 28475.00
603.0560, 27849.00
604.2250, 27173.00
605.3940, 26558.00
606.5620, 26359.00
607.7300, 25151.00
608.8990, 24370.00
610.0670, 23862.00
611.2350, 21993.00
612.4020, 20802.00
613.5700, 19570.00
614.7370, 18260.00
615.9050, 16961.00
617.0720, 15856.00
618.2390, 14826.00
619.4060, 13840.00
620.5720, 12971.00
621.7390, 12218.00
622.9050, 11518.00
624.0710, 10957.00
625.2370, 10392.00
626.4030, 10195.00
627.5690, 9792.000
628.7340, 9535.000
629.9000, 9174.000
631.0650, 9088.000
632.2300, 8776.000
633.3950, 8709.000
634.5600, 8588.000
635.7240, 8451.000
636.8890, 8240.000
638.0530, 8119.000
639.2170, 8035.000
640.3810, 7929.000
641.5450, 7967.000
642.7080, 7870.000
643.8720, 7766.000
645.0350, 7666.000
646.1980, 7593.000
647.3610, 7540.000
648.5240, 7469.000
649.6870, 7464.000
650.8490, 7396.000
652.0120, 7402.000
653.1740, 7268.000
654.3360, 7268.000
655.4980, 7328.000
656.6600, 7228.000
657.8210, 7169.000
658.9830, 7181.000
660.1440, 7132.000
661.3050, 7050.000
662.4660, 7114.000
663.6270, 7083.000
664.7870, 7178.000
665.9480, 7186.000
667.1080, 7200.000
668.2680, 7234.000
669.4280, 7272.932
670.5880, 7275.000
671.7480, 7363.000
672.9070, 7410.000
674.0670, 7427.000
675.2260, 7582.000
676.3850, 7738.000
677.5440, 7914.000
678.7030, 7926.000
679.8610, 8089.000
681.0200, 8229.000
682.1780, 8392.000
683.3360, 8519.000
684.4940, 8530.000
685.6520, 8542.000
686.8090, 8570.000
687.9670, 8535.000
689.1240, 8482.000
690.2810, 8374.000
691.4380, 8232.000
692.5950, 7928.000
693.7520, 7811.000
694.9080, 7581.000
696.0650, 7437.000
697.2210, 7307.000
698.3770, 7246.000
699.5330, 7140.000
700.6880, 6953.000
701.8440, 6904.000
702.9990, 6818.000
704.1550, 6767.000
705.3100, 6704.428
706.4650, 6620.000
707.6190, 6613.000
708.7740, 6517.000
709.9290, 6525.000
711.0830, 6414.000
712.2370, 6480.000
713.3910, 6472.000
714.5450, 6357.000
715.6980, 6352.000
716.8520, 6405.000
718.0050, 6399.000
719.1580, 6398.000
720.3110, 6227.000
721.4640, 6350.000
722.6170, 6299.000
723.7700, 6369.000
724.9220, 6154.000
726.0740, 6306.000
727.2260, 6249.000
728.3780, 6077.000
729.5300, 6163.000
730.6810, 6149.000
731.8330, 6049.000
732.9840, 6213.000
734.1350, 6156.000
735.2860, 6232.000
736.4370, 6119.000
737.5880, 6193.000
738.7380, 6251.000
739.8880, 6262.000
741.0390, 6150.000
742.1890, 6220.000
743.3380, 6152.000
744.4880, 6220.000
745.6380, 6177.000
746.7870, 6181.000
747.9360, 6170.000
749.0850, 6160.000
750.2340, 6175.000
751.3830, 6156.000
752.5310, 6147.000
753.6800, 6178.000
754.8280, 6149.000
755.9760, 6191.000
757.1240, 6228.000
758.2720, 6275.000
759.4190, 6189.000
760.5670, 6252.000
761.7140, 6224.000
762.8610, 6198.000
764.0080, 6242.000
765.1550, 6161.000
766.3020, 6207.000
767.4480, 6240.000
768.5950, 6275.000
769.7410, 6352.000
770.8870, 6323.000
772.0330, 6276.000
773.1780, 6262.000
774.3240, 6170.000
775.4690, 6369.000
776.6140, 6329.762
777.7590, 6225.000
778.9040, 6382.000
780.0490, 6365.000
781.1940, 6287.000
782.3380, 6339.000
783.4820, 6347.000
784.6260, 6383.000
785.7700, 6446.000
786.9140, 6387.000
788.0580, 6410.000
789.2010, 6472.000
790.3450, 6505.000
791.4880, 6582.000
792.6310, 6533.000
793.7730, 6430.000
794.9160, 6527.000
796.0590, 6530.000
797.2010, 6670.000
798.3430, 6687.000
799.4850, 6608.000
800.6270, 6577.000
801.7690, 6753.000
802.9100, 6801.000
804.0520, 6753.000
805.1930, 6750.000
806.3340, 6801.000
807.4750, 6818.127
808.6160, 6996.000
809.7560, 6970.000
810.8970, 7107.000
812.0370, 7281.000
813.1770, 7334.000
814.3170, 7335.000
815.4570, 7436.000
816.5960, 7625.000
817.7360, 7644.000
818.8750, 7833.000
820.0140, 7942.000
821.1530, 8082.000
822.2920, 8202.000
823.4310, 8372.000
824.5690, 8584.000
825.7070, 8609.000
826.8460, 8850.000
827.9840, 8846.000
829.1220, 8973.000
830.2590, 8966.000
831.3970, 9241.000
832.5340, 9161.000
833.6710, 9294.000
834.8080, 9354.000
835.9450, 9315.000
837.0820, 9409.000
838.2190, 9592.000
839.3550, 9776.000
840.4910, 9965.832
841.6270, 10073.00
842.7630, 10405.00
843.8990, 10630.00
845.0350, 10845.00
846.1700, 10993.00
847.3060, 11501.00
848.4410, 11915.00
849.5760, 12280.00
850.7100, 12831.00
851.8450, 13353.00
852.9800, 14067.00
854.1140, 14932.00
855.2480, 15498.00
856.3820, 16441.00
857.5160, 17014.00
858.6500, 17756.00
859.7830, 18342.00
860.9170, 19099.00
862.0500, 19578.00
863.1830, 20210.00
864.3160, 20604.00
865.4480, 21438.00
866.5810, 22232.00
867.7130, 23291.00
868.8460, 24325.00
869.9780, 25528.00
871.1100, 26950.00
872.2410, 28456.00
873.3730, 30590.00
874.5050, 32436.00
875.6360, 34223.00
876.7670, 36193.00
877.8980, 37870.00
879.0290, 39219.00
880.1590, 40377.00
881.2900, 40500.00
882.4200, 40342.00
883.5500, 39832.00
884.6800, 38553.00
885.8100, 36798.00
886.9400, 35215.00
888.0690, 33211.00
889.1990, 31596.00
890.3280, 29835.00
891.4570, 28163.00
892.5860, 27015.00
893.7140, 26052.00
894.8430, 25409.00
895.9710, 24985.56
897.1000, 24743.00
898.2280, 24899.00
899.3560, 25209.00
900.4830, 25771.00
901.6110, 26585.00
902.7380, 27725.00
903.8660, 28917.00
904.9930, 30356.00
906.1200, 31809.00
907.2460, 33299.00
908.3730, 34745.00
909.5000, 35902.00
910.6260, 36709.00
911.7520, 36540.00
912.8780, 36303.00
914.0040, 35169.00
915.1290, 33678.00
916.2550, 32048.00
917.3800, 29520.00
918.5050, 27687.00
919.6300, 25449.00
920.7550, 23364.00
921.8800, 21517.00
923.0040, 19829.00
924.1290, 18245.00
925.2530, 17090.00
926.3770, 15987.00
927.5010, 14904.00
928.6250, 14063.00
929.7480, 13411.00
930.8720, 12717.00
931.9950, 12157.00
933.1180, 11795.00
934.2410, 11345.00
935.3640, 11005.00
936.4860, 10779.00
937.6090, 10273.00
938.7310, 10393.00
939.8530, 9778.000
940.9750, 9868.000
942.0970, 9749.000
943.2180, 9685.000
944.3400, 9407.000
945.4610, 9377.000
946.5820, 9316.000
947.7030, 9235.000
948.8240, 9237.000
949.9450, 9071.000
951.0650, 9062.000
952.1860, 9055.000
953.3060, 8928.000
954.4260, 9036.000
955.5460, 9057.000
956.6650, 8992.000
957.7850, 9132.000
958.9040, 9042.000
960.0230, 9048.000
961.1420, 9147.000
962.2610, 9262.000
963.3800, 9348.000
964.4990, 9414.000
965.6170, 9608.000
966.7350, 9845.000
967.8530, 10140.00
968.9710, 10434.00
970.0890, 10797.00
971.2070, 11263.00
972.3240, 11737.00
973.4410, 12005.00
974.5580, 12475.00
975.6750, 12712.00
976.7920, 12826.00
977.9090, 12617.00
979.0250, 12566.00
980.1410, 12320.00
981.2580, 12086.00
982.3740, 11624.00
983.4890, 11347.00
984.6050, 10634.00
985.7200, 10158.00
986.8360, 9847.000
987.9510, 9503.000
989.0660, 9234.000
990.1810, 9058.000
991.2950, 8885.000
992.4100, 8741.000
993.5240, 8619.000
994.6390, 8594.000
995.7530, 8554.000
996.8660, 8461.000
997.9800, 8472.000
999.0940, 8438.000
1000.207, 8413.000
1001.320, 8584.000
1002.433, 8710.000
1003.546, 8737.000
1004.659, 9012.000
1005.772, 9136.000
1006.884, 9484.000
1007.996, 9696.000
1009.108, 9971.000
1010.220, 10330.00
1011.332, 10624.00
1012.444, 10774.00
1013.555, 10964.00
1014.666, 11078.00
1015.777, 11074.00
1016.888, 10912.00
1017.999, 10829.00
1019.110, 10555.00
1020.220, 10316.00
1021.331, 10047.00
1022.441, 9846.000
1023.551, 9588.000
1024.661, 9513.000
1025.770, 9454.000
1026.880, 9256.000
1027.989, 9265.000
1029.098, 9145.000
1030.207, 9219.000
1031.316, 9266.000
1032.425, 9259.000
1033.533, 9478.000
1034.642, 9449.000
1035.750, 9489.000
1036.858, 9655.000
1037.966, 9541.000
1039.073, 9572.000
1040.181, 9610.000
1041.288, 9639.000
1042.396, 9400.000
1043.503, 9522.000
1044.610, 9343.000
1045.716, 9413.000
1046.823, 9184.000
1047.929, 9177.000
1049.036, 9006.000
1050.142, 9117.000
1051.248, 9245.000
1052.353, 9802.000
1053.459, 9975.000
1054.564, 10486.00
1055.670, 10077.00
1056.775, 9451.000
1057.880, 9494.000
1058.985, 9486.000
1060.089, 9602.000
1061.194, 9598.000
1062.298, 9585.000
1063.402, 9645.000
1064.506, 9683.000
1065.610, 9766.000
1066.713, 9894.187
1067.817, 9989.000
1068.920, 10242.00
1070.023, 10487.00
1071.126, 10776.00
1072.229, 11291.00
1073.332, 11846.00
1074.435, 12381.00
1075.537, 13358.00
1076.639, 14397.00
1077.741, 15418.00
1078.843, 16930.00
1079.945, 17834.00
1081.046, 18437.00
1082.148, 18683.00
1083.249, 18731.00
1084.350, 18089.00
1085.451, 17493.00
1086.551, 16523.00
1087.652, 15355.00
1088.752, 14460.00
1089.853, 13162.00
1090.953, 12248.00
1092.053, 11289.00
1093.152, 10579.00
1094.252, 9967.000
1095.351, 9528.000
1096.451, 9225.000
1097.550, 8904.000
1098.649, 8577.000
1099.748, 8515.000
1100.846, 8324.000
1101.945, 8233.000
1103.043, 8118.000
1104.141, 8139.000
1105.239, 7995.000
1106.337, 7793.000
1107.434, 7894.000
1108.532, 7791.000
1109.629, 7787.000
1110.726, 7691.000
1111.823, 7589.000
1112.920, 7707.000
1114.017, 7579.000
1115.113, 7674.000
1116.210, 7557.000
1117.306, 7591.000
1118.402, 7548.000
1119.498, 7526.000
1120.593, 7463.000
1121.689, 7604.000
1122.784, 7568.000
1123.879, 7493.000
1124.974, 7494.000
1126.069, 7398.000
1127.164, 7411.000
1128.259, 7299.000
1129.353, 7357.000
1130.447, 7254.000
1131.541, 7232.000
1132.635, 7266.000
1133.729, 7184.000
1134.822, 7274.000
1135.916, 7075.000
1137.009, 7178.000
1138.102, 7155.000
1139.195, 7248.000
1140.288, 7097.000
1141.380, 7133.000
1142.473, 7170.000
1143.565, 7093.000
1144.657, 7066.000
1145.749, 7084.000
1146.841, 7057.000
1147.932, 7060.376
1149.024, 7024.000
1150.115, 7050.000
1151.206, 7084.000
1152.297, 7060.000
1153.388, 7022.000
1154.479, 6988.000
1155.569, 7127.000
1156.659, 7073.000
1157.750, 6930.000
1158.839, 7055.000
1159.929, 6878.000
1161.019, 6925.000
1162.108, 7104.000
1163.198, 6979.000
1164.287, 6985.000
1165.376, 6941.000
1166.465, 6897.000
1167.553, 6938.000
1168.642, 7083.000
1169.730, 7035.000
1170.818, 7019.000
1171.906, 7059.000
1172.994, 7042.000
1174.082, 6927.000
1175.170, 6910.000
1176.257, 6900.000
1177.344, 6954.000
1178.431, 6984.000
1179.518, 6947.000
1180.605, 6994.000
1181.691, 6908.000
1182.778, 7032.000
1183.864, 7033.000
1184.950, 7049.000
1186.036, 6990.000
1187.122, 6950.000
1188.207, 6899.000
1189.292, 6906.000
1190.378, 6902.000
1191.463, 7019.000
1192.548, 6970.000
1193.632, 7012.000
1194.717, 6897.000
1195.801, 6811.000
1196.886, 6867.000
1197.970, 6823.000
1199.054, 6918.000
1200.137, 6876.000
1201.221, 6819.000
1202.305, 6855.000
1203.388, 6876.000
1204.471, 6885.000
1205.554, 6832.000
1206.637, 6830.704
1207.719, 6855.000
1208.802, 6780.000
1209.884, 6791.000
1210.966, 6787.000
1212.048, 6841.000
1213.130, 6867.059
1214.212, 6846.000
1215.293, 6909.000
1216.374, 6868.000
1217.456, 6773.000
1218.536, 6816.000
1219.617, 6837.000
1220.698, 6698.000
1221.778, 6697.000
1222.859, 6773.000
1223.939, 6699.000
1225.019, 6806.000
1226.099, 6692.000
1227.178, 6663.000
1228.258, 6652.000
1229.337, 6679.000
1230.417, 6705.000
1231.496, 6652.000
1232.574, 6753.000
1233.653, 6722.000
1234.732, 6637.000
1235.810, 6719.000
1236.888, 6586.000
1237.966, 6658.000
1239.044, 6646.000
1240.122, 6662.000
1241.199, 6702.000
1242.277, 6581.000
1243.354, 6612.000
1244.431, 6575.000
1245.508, 6616.000
1246.585, 6617.000
1247.661, 6612.000
1248.738, 6570.000
1249.814, 6505.000
1250.890, 6579.000
1251.966, 6635.000
1253.042, 6612.000
1254.117, 6560.000
1255.193, 6565.000
1256.268, 6569.000
1257.343, 6624.000
1258.418, 6503.000
1259.493, 6555.000
1260.567, 6499.000
1261.642, 6577.000
1262.716, 6488.000
1263.790, 6562.000
1264.864, 6542.000
1265.938, 6656.000
1267.011, 6606.000
1268.085, 6537.000
1269.158, 6654.000
1270.231, 6549.000
1271.304, 6530.000
1272.377, 6615.000
1273.450, 6628.000
1274.522, 6547.000
1275.594, 6579.000
1276.666, 6509.000
1277.738, 6595.000
1278.810, 6608.000
1279.882, 6585.000
1280.953, 6631.000
1282.025, 6518.000
1283.096, 6606.000
1284.167, 6635.000
1285.238, 6557.000
1286.308, 6540.000
1287.379, 6537.000
1288.449, 6609.000
1289.519, 6520.000
1290.589, 6601.000
1291.659, 6572.000
1292.729, 6510.000
1293.798, 6549.000
1294.868, 6444.000
1295.937, 6647.000
1297.006, 6565.399
1298.075, 6491.000
1299.143, 6571.000
1300.212, 6487.000
1301.280, 6550.000
1302.348, 6510.000
1303.416, 6496.000
1304.484, 6577.000
1305.552, 6584.000
1306.620, 6512.000
1307.687, 6487.000
1308.754, 6499.000
1309.821, 6549.000
1310.888, 6543.000
1311.955, 6566.000
1313.021, 6517.000
1314.088, 6615.000
1315.154, 6647.000
1316.220, 6549.000
1317.286, 6545.000
1318.352, 6527.000
1319.417, 6503.564
1320.483, 6516.659
1321.548, 6516.000
1322.613, 6555.000
1323.678, 6590.000
1324.743, 6649.000
1325.807, 6551.000
1326.872, 6580.000
1327.936, 6530.000
1329.000, 6479.000
1330.064, 6409.000
1331.128, 6502.000
1332.191, 6611.000
1333.255, 6526.000
1334.318, 6556.000
1335.381, 6656.000
1336.444, 6699.000
1337.507, 6511.000
1338.569, 6638.000
1339.632, 6544.000
1340.694, 6682.000
1341.756, 6620.000
1342.818, 6689.000
1343.880, 6649.000
1344.941, 6543.000
1346.003, 6658.000
1347.064, 6608.000
1348.125, 6651.000
1349.186, 6547.000
1350.247, 6670.000
1351.308, 6681.000
1352.368, 6759.000
1353.428, 6658.000
1354.489, 6784.000
1355.549, 6706.000
1356.608, 6781.000
1357.668, 6697.000
1358.727, 6631.000
1359.787, 6680.000
1360.846, 6639.000
1361.905, 6698.000
1362.964, 6692.000
1364.022, 6741.000
1365.081, 6712.000
1366.139, 6804.000
1367.197, 6735.000
1368.255, 6661.000
1369.313, 6718.000
1370.371, 6703.000
1371.428, 6772.000
1372.486, 6737.000
1373.543, 6666.000
1374.600, 6821.000
1375.657, 6688.000
1376.713, 6667.000
1377.770, 6780.000
1378.826, 6700.000
1379.882, 6796.000
1380.938, 6734.000
1381.994, 6649.000
1383.050, 6694.000
1384.106, 6767.000
1385.161, 6733.000
1386.216, 6681.000
1387.271, 6755.000
1388.326, 6678.000
1389.381, 6683.000
1390.435, 6745.000
1391.490, 6763.000
1392.544, 6706.000
1393.598, 6712.000
1394.652, 6686.000
1395.705, 6686.000
1396.759, 6683.083
1397.812, 6766.000
1398.866, 6665.000
1399.919, 6727.000
1400.972, 6689.000
1402.024, 6688.000
1403.077, 6717.832
1404.129, 6658.000
1405.181, 6752.000
1406.233, 6761.000
1407.285, 6770.000
1408.337, 6681.000
1409.389, 6765.000
1410.440, 6791.000
1411.491, 6709.000
1412.542, 6770.000
1413.593, 6643.000
1414.644, 6672.000
1415.695, 6648.000
1416.745, 6771.000
1417.795, 6702.000
1418.845, 6780.000
1419.895, 6745.000
1420.945, 6758.000
1421.995, 6856.000
1423.044, 6694.000
1424.093, 6802.000
1425.142, 6782.000
1426.191, 6739.000
1427.240, 6868.000
1428.289, 6756.000
1429.337, 6742.000
1430.385, 6828.000
1431.433, 6783.000
1432.481, 6815.000
1433.529, 6790.000
1434.577, 6809.059
1435.624, 6911.318
1436.672, 6969.244
1437.719, 6985.217
1438.766, 6833.588
1439.812, 6898.381
1440.859, 6876.443
1441.905, 6850.947
1442.952, 6946.202
1443.998, 6818.949
1445.044, 6912.288
1446.090, 6917.571
1447.135, 6963.154
1448.181, 6921.470
1449.226, 6906.739
1450.271, 6979.305
1451.316, 6815.000
1452.361, 6769.000
1453.405, 6821.000
1454.450, 6736.000
1455.494, 6767.000
1456.538, 6909.000
1457.582, 6904.000
1458.626, 6840.000
1459.670, 6853.000
1460.713, 6845.712
1461.757, 6858.936
1462.800, 6858.000
1463.843, 6915.000
1464.886, 6914.174
1465.928, 6925.000
1466.971, 6904.000
1468.013, 6851.000
1469.055, 6872.000
1470.097, 6786.000
1471.139, 6972.000
1472.181, 6905.592
1473.222, 6919.011
1474.263, 6881.000
1475.305, 6888.000
1476.346, 6819.000
1477.386, 6780.000
1478.427, 6862.000
1479.468, 6968.000
1480.508, 6893.000
1481.548, 6908.000
1482.588, 6909.000
1483.628, 6865.000
1484.668, 7008.000
1485.707, 6885.000
1486.747, 6978.000
1487.786, 6907.000
1488.825, 6888.000
1489.864, 6845.000
1490.902, 6808.000
1491.941, 6779.000
1492.979, 6806.000
1494.017, 7016.000
1495.055, 6859.000
1496.093, 6962.000
1497.131, 6996.000
1498.168, 6928.000
1499.206, 6930.000
1500.243, 6940.000
1501.280, 6999.000
1502.317, 6990.000
1503.354, 6980.000
1504.390, 6968.000
1505.426, 6961.435
1506.463, 6952.203
1507.499, 6949.000
1508.535, 6930.000
1509.570, 6927.000
1510.606, 6901.000
1511.641, 6882.225
1512.676, 6916.000
1513.711, 6855.000
1514.746, 6859.000
1515.781, 6892.000
1516.816, 6855.000
1517.850, 6886.000
1518.884, 6929.000
1519.918, 6936.000
1520.952, 6954.302
1521.986, 6925.000
1523.019, 6909.000
1524.053, 6900.000
1525.086, 6754.000
1526.119, 6862.000
1527.152, 6872.000
1528.185, 7013.000
1529.217, 6923.000
1530.250, 6926.000
1531.282, 6800.000
1532.314, 6863.000
1533.346, 6891.000
1534.377, 6956.000
1535.409, 6950.933
1536.440, 6978.000
1537.472, 6959.000
1538.503, 6912.417
1539.534, 6961.338
1540.564, 6909.000
1541.595, 6851.000
1542.625, 6976.000
1543.656, 6816.000
1544.686, 6907.000
1545.716, 6980.000
1546.745, 6915.000
1547.775, 6832.000
1548.804, 6948.000
1549.834, 6987.000
1550.863, 6960.000
1551.892, 7050.000
1552.920, 7091.000
1553.949, 7098.216
1554.977, 7143.000
1556.006, 7119.000
1557.034, 6965.000
1558.062, 6930.000
1559.089, 6816.000
1560.117, 6971.000
1561.144, 6885.000
1562.172, 6946.000
1563.199, 6920.000
1564.226, 6831.000
1565.252, 6893.000
1566.279, 6843.000
1567.305, 6926.000
1568.332, 6896.000
1569.358, 7008.000
1570.384, 6874.000
1571.409, 6959.000
1572.435, 6994.000
##END=



