##NAMES=Epididymite
##RRUFFID=R060773
##IDEAL CHEMISTRY=Na_2_Be_2_Si_6_O_15_&#183;H_2_O
##LOCALITY=unknown
##OWNER=RRUFF
##SOURCE=Michael Scott
##DESCRIPTION=Colorless platy crystals forming a pseudohexagonal aggregate
##STATUS=The identification of this mineral has been confirmed by single-crystal X-ray diffraction.
##URL=rruff.info/R060773
##PIN_ID=M00148
##ORIENTATION=Laser parallel to c* (0 0 1). Fiducial mark perpendicular to laser is parallel to a [1 0 0]
102.1160, 5493.000
103.3490, 5495.000
104.5820, 5624.000
105.8150, 5717.000
107.0470, 5873.000
108.2800, 6029.000
109.5120, 6035.816
110.7440, 6173.000
111.9760, 6102.000
113.2080, 6306.000
114.4400, 6459.000
115.6710, 6622.000
116.9030, 6842.000
118.1340, 7058.000
119.3650, 7487.000
120.5960, 8025.000
121.8270, 8718.000
123.0580, 9325.000
124.2880, 10228.00
125.5190, 10969.00
126.7490, 12831.00
127.9790, 15311.00
129.2090, 18457.00
130.4390, 21819.00
131.6680, 23771.00
132.8980, 23164.00
134.1270, 20180.00
135.3560, 16477.00
136.5850, 12960.00
137.8140, 10722.00
139.0430, 9067.000
140.2710, 7872.000
141.5000, 7282.000
142.7280, 6854.000
143.9560, 6620.000
145.1840, 6440.000
146.4120, 6264.000
147.6390, 6262.000
148.8670, 6193.000
150.0940, 6139.000
151.3210, 6216.000
152.5490, 6070.000
153.7750, 5978.000
155.0020, 6013.000
156.2290, 6034.000
157.4550, 5927.000
158.6810, 5912.000
159.9080, 5957.000
161.1340, 6011.000
162.3590, 6011.000
163.5850, 6267.000
164.8110, 6451.000
166.0360, 6532.000
167.2610, 6590.000
168.4860, 6582.000
169.7110, 6647.000
170.9360, 6562.000
172.1610, 6514.000
173.3850, 6498.000
174.6100, 6554.000
175.8340, 6502.000
177.0580, 6420.000
178.2820, 6494.000
179.5050, 6417.000
180.7290, 6424.000
181.9520, 6582.000
183.1760, 6731.000
184.3990, 6885.000
185.6220, 7070.162
186.8450, 7135.000
188.0670, 7506.000
189.2900, 7807.000
190.5120, 8160.000
191.7340, 8606.000
192.9560, 8850.000
194.1780, 9210.000
195.4000, 9588.000
196.6220, 9682.000
197.8430, 9786.000
199.0640, 9593.000
200.2860, 9224.000
201.5070, 8985.000
202.7270, 8474.000
203.9480, 8191.000
205.1690, 7689.000
206.3890, 7364.000
207.6090, 7208.000
208.8290, 6889.000
210.0490, 6815.000
211.2690, 6711.000
212.4890, 6590.000
213.7080, 6650.000
214.9280, 6489.000
216.1470, 6584.000
217.3660, 6522.000
218.5850, 6560.000
219.8030, 6605.000
221.0220, 6786.000
222.2400, 6818.000
223.4590, 7045.000
224.6770, 7133.000
225.8950, 7452.000
227.1120, 7683.000
228.3300, 7965.000
229.5480, 8568.000
230.7650, 8995.000
231.9820, 9734.000
233.1990, 10267.00
234.4160, 11162.00
235.6330, 12120.00
236.8490, 13138.00
238.0660, 13897.00
239.2820, 14637.00
240.4980, 14578.00
241.7140, 14255.00
242.9300, 13341.00
244.1460, 12393.00
245.3610, 11314.00
246.5770, 10445.00
247.7920, 9476.000
249.0070, 8794.000
250.2220, 8197.000
251.4370, 7845.000
252.6510, 7440.000
253.8660, 7187.000
255.0800, 7175.000
256.2940, 7027.000
257.5080, 7096.000
258.7220, 7044.000
259.9360, 7004.000
261.1490, 6812.000
262.3630, 6619.000
263.5760, 6428.000
264.7890, 6349.000
266.0020, 6169.000
267.2150, 6062.000
268.4270, 5918.000
269.6400, 5846.340
270.8520, 5765.000
272.0640, 5742.000
273.2760, 5667.000
274.4880, 5632.000
275.7000, 5677.000
276.9120, 5689.000
278.1230, 5638.000
279.3340, 5796.000
280.5450, 5780.000
281.7560, 5795.000
282.9670, 5924.000
284.1780, 5847.000
285.3880, 5867.000
286.5980, 5764.000
287.8090, 5783.000
289.0190, 5756.000
290.2290, 5590.000
291.4380, 5571.000
292.6480, 5469.000
293.8570, 5534.000
295.0670, 5584.000
296.2760, 5547.000
297.4850, 5458.000
298.6930, 5477.000
299.9020, 5513.000
301.1110, 5415.000
302.3190, 5491.000
303.5270, 5495.000
304.7350, 5516.000
305.9430, 5541.179
307.1510, 5503.000
308.3580, 5539.000
309.5660, 5522.482
310.7730, 5471.000
311.9800, 5560.000
313.1870, 5537.000
314.3940, 5619.000
315.6010, 5586.000
316.8070, 5631.000
318.0130, 5625.000
319.2200, 5684.000
320.4260, 5764.000
321.6310, 5738.000
322.8370, 5735.000
324.0430, 5721.000
325.2480, 5680.000
326.4540, 5941.000
327.6590, 5839.000
328.8640, 5960.000
330.0680, 5987.000
331.2730, 6032.000
332.4780, 6012.000
333.6820, 6127.000
334.8860, 6129.000
336.0900, 6191.000
337.2940, 6272.000
338.4980, 6352.000
339.7010, 6491.000
340.9050, 6684.000
342.1080, 6852.000
343.3110, 7008.000
344.5140, 7097.000
345.7170, 7059.000
346.9200, 6851.000
348.1220, 6686.000
349.3240, 6556.000
350.5270, 6466.000
351.7290, 6416.000
352.9310, 6440.000
354.1320, 6449.000
355.3340, 6423.000
356.5350, 6501.000
357.7370, 6484.000
358.9380, 6463.000
360.1390, 6451.000
361.3400, 6409.000
362.5400, 6485.000
363.7410, 6522.000
364.9410, 6501.000
366.1410, 6514.000
367.3410, 6654.000
368.5410, 6718.000
369.7410, 6784.000
370.9400, 7131.000
372.1400, 7282.000
373.3390, 7534.000
374.5380, 7924.000
375.7370, 8236.000
376.9360, 8848.000
378.1350, 9176.000
379.3330, 9678.000
380.5310, 9731.000
381.7300, 9763.000
382.9280, 9602.000
384.1260, 9431.000
385.3230, 9271.000
386.5210, 9074.582
387.7180, 8886.000
388.9160, 8662.000
390.1130, 8368.000
391.3100, 8122.000
392.5060, 8128.000
393.7030, 8278.000
394.9000, 8347.000
396.0960, 8833.000
397.2920, 9437.000
398.4880, 10376.00
399.6840, 11736.00
400.8800, 13252.00
402.0750, 15551.00
403.2710, 18628.00
404.4660, 22479.00
405.6610, 26226.00
406.8560, 27793.00
408.0510, 26154.00
409.2450, 22503.00
410.4400, 18308.00
411.6340, 14735.00
412.8280, 12025.00
414.0220, 10086.00
415.2160, 9020.000
416.4100, 8218.000
417.6030, 7696.000
418.7970, 7589.000
419.9900, 7223.000
421.1830, 7205.000
422.3760, 7127.000
423.5690, 7141.000
424.7610, 7166.000
425.9540, 7259.000
427.1460, 7381.000
428.3380, 7756.000
429.5300, 8101.000
430.7220, 8342.000
431.9140, 8771.000
433.1050, 8943.000
434.2970, 9035.000
435.4880, 8766.000
436.6790, 8446.000
437.8700, 7968.000
439.0610, 7472.000
440.2510, 7217.000
441.4420, 6873.000
442.6320, 6880.000
443.8220, 6757.000
445.0120, 6690.000
446.2020, 6663.000
447.3910, 6565.000
448.5810, 6594.000
449.7700, 6626.000
450.9600, 6683.000
452.1490, 6822.000
453.3370, 6942.000
454.5260, 7163.000
455.7150, 7377.000
456.9030, 7420.000
458.0910, 7589.000
459.2800, 7487.000
460.4670, 7494.000
461.6550, 7491.000
462.8430, 7415.000
464.0300, 7452.000
465.2180, 7677.000
466.4050, 7853.000
467.5920, 8256.000
468.7790, 8747.000
469.9650, 9396.000
471.1520, 10238.00
472.3380, 11221.00
473.5250, 12049.00
474.7110, 12725.00
475.8970, 12930.00
477.0820, 12781.00
478.2680, 12863.00
479.4540, 13027.00
480.6390, 13688.00
481.8240, 14976.00
483.0090, 16454.00
484.1940, 17098.00
485.3780, 16909.00
486.5630, 15677.00
487.7470, 14008.00
488.9320, 12479.00
490.1160, 11104.00
491.3000, 10299.00
492.4830, 9657.000
493.6670, 9190.000
494.8500, 9044.000
496.0340, 9043.000
497.2170, 9005.000
498.4000, 9146.534
499.5820, 9348.000
500.7650, 9615.000
501.9480, 9897.000
503.1300, 10310.00
504.3120, 10741.00
505.4940, 11522.00
506.6760, 12571.00
507.8580, 14021.00
509.0390, 16111.00
510.2210, 19030.00
511.4020, 22862.00
512.5830, 27774.00
513.7640, 34207.00
514.9450, 42506.00
516.1250, 51559.00
517.3060, 60173.00
518.4860, 64657.00
519.6660, 63522.00
520.8460, 57172.00
522.0260, 47830.00
523.2060, 38287.00
524.3850, 30334.00
525.5650, 24075.00
526.7440, 19810.00
527.9230, 16591.00
529.1020, 14338.00
530.2810, 12763.00
531.4590, 11639.00
532.6380, 10755.00
533.8160, 9967.000
534.9940, 9629.000
536.1720, 9246.000
537.3500, 8968.000
538.5270, 8533.000
539.7050, 8594.000
540.8820, 8151.000
542.0590, 8098.000
543.2360, 8039.000
544.4130, 7903.000
545.5900, 7835.000
546.7660, 7735.000
547.9430, 7549.000
549.1190, 7604.000
550.2950, 7542.000
551.4710, 7419.000
552.6470, 7519.000
553.8220, 7434.000
554.9980, 7425.000
556.1730, 7347.000
557.3480, 7368.000
558.5230, 7270.000
559.6980, 7341.000
560.8730, 7164.000
562.0470, 7367.000
563.2220, 7260.000
564.3960, 7241.000
565.5700, 7254.000
566.7440, 7180.000
567.9170, 7145.000
569.0910, 7348.000
570.2640, 7371.000
571.4380, 7409.000
572.6110, 7584.000
573.7840, 7794.000
574.9570, 8093.000
576.1290, 8385.000
577.3020, 8964.000
578.4740, 9508.000
579.6460, 10325.00
580.8180, 11424.00
581.9900, 12250.00
583.1620, 12693.00
584.3330, 12606.00
585.5040, 11954.00
586.6760, 10975.00
587.8470, 10178.00
589.0180, 9413.000
590.1880, 8770.000
591.3590, 8480.000
592.5290, 8225.000
593.7000, 8004.000
594.8700, 7884.000
596.0400, 7662.000
597.2090, 7714.000
598.3790, 7639.000
599.5490, 7582.000
600.7180, 7555.000
601.8870, 7538.462
603.0560, 7519.000
604.2250, 7506.290
605.3940, 7485.000
606.5620, 7485.376
607.7300, 7478.000
608.8990, 7465.000
610.0670, 7458.000
611.2350, 7459.925
612.4020, 7454.000
613.5700, 7478.000
614.7370, 7495.000
615.9050, 7526.000
617.0720, 7506.000
618.2390, 7523.000
619.4060, 7556.000
620.5720, 7608.000
621.7390, 7677.000
622.9050, 7746.000
624.0710, 7787.000
625.2370, 7968.000
626.4030, 8047.000
627.5690, 8251.000
628.7340, 8299.000
629.9000, 8542.000
631.0650, 8738.000
632.2300, 8704.000
633.3950, 8784.000
634.5600, 8482.000
635.7240, 8228.000
636.8890, 8086.000
638.0530, 7854.000
639.2170, 7776.000
640.3810, 7703.000
641.5450, 7484.000
642.7080, 7604.000
643.8720, 7522.000
645.0350, 7445.000
646.1980, 7466.000
647.3610, 7482.000
648.5240, 7389.000
649.6870, 7472.000
650.8490, 7395.000
652.0120, 7388.000
653.1740, 7369.000
654.3360, 7364.000
655.4980, 7344.000
656.6600, 7437.000
657.8210, 7288.000
658.9830, 7428.000
660.1440, 7318.000
661.3050, 7264.000
662.4660, 7173.000
663.6270, 7157.000
664.7870, 7292.000
665.9480, 7220.000
667.1080, 7261.000
668.2680, 7383.000
669.4280, 7167.000
670.5880, 7188.000
671.7480, 7294.000
672.9070, 7344.000
674.0670, 7212.000
675.2260, 7402.000
676.3850, 7222.000
677.5440, 7330.000
678.7030, 7183.000
679.8610, 7256.000
681.0200, 7290.000
682.1780, 7226.000
683.3360, 7259.000
684.4940, 7154.000
685.6520, 7297.000
686.8090, 7164.000
687.9670, 7287.000
689.1240, 7219.000
690.2810, 7269.000
691.4380, 7133.000
692.5950, 7134.000
693.7520, 7120.000
694.9080, 7140.000
696.0650, 7148.590
697.2210, 7149.187
698.3770, 7173.000
699.5330, 7157.000
700.6880, 7137.000
701.8440, 7133.000
702.9990, 7144.000
704.1550, 7163.000
705.3100, 7148.000
706.4650, 7123.000
707.6190, 7128.639
708.7740, 7217.000
709.9290, 7147.000
711.0830, 7205.000
712.2370, 7288.000
713.3910, 7207.000
714.5450, 7190.000
715.6980, 7283.000
716.8520, 7226.000
718.0050, 7313.000
719.1580, 7206.000
720.3110, 7292.000
721.4640, 7351.000
722.6170, 7340.000
723.7700, 7241.000
724.9220, 7184.000
726.0740, 7353.000
727.2260, 7400.000
728.3780, 7455.000
729.5300, 7357.000
730.6810, 7320.000
731.8330, 7488.000
732.9840, 7401.000
734.1350, 7448.000
735.2860, 7507.000
736.4370, 7449.000
737.5880, 7480.000
738.7380, 7383.000
739.8880, 7397.000
741.0390, 7408.000
742.1890, 7536.000
743.3380, 7415.000
744.4880, 7463.000
745.6380, 7314.000
746.7870, 7513.000
747.9360, 7552.000
749.0850, 7512.000
750.2340, 7489.000
751.3830, 7474.000
752.5310, 7471.000
753.6800, 7478.000
754.8280, 7545.000
755.9760, 7540.000
757.1240, 7621.000
758.2720, 7603.000
759.4190, 7557.000
760.5670, 7540.000
761.7140, 7583.000
762.8610, 7617.000
764.0080, 7692.000
765.1550, 7585.000
766.3020, 7590.000
767.4480, 7603.000
768.5950, 7658.000
769.7410, 7677.000
770.8870, 7612.000
772.0330, 7666.000
773.1780, 7650.000
774.3240, 7728.000
775.4690, 7810.000
776.6140, 7763.000
777.7590, 7680.000
778.9040, 7706.000
780.0490, 7763.000
781.1940, 7736.000
782.3380, 7754.000
783.4820, 7816.000
784.6260, 7760.000
785.7700, 7757.000
786.9140, 7802.000
788.0580, 7795.000
789.2010, 7729.000
790.3450, 7866.000
791.4880, 7853.000
792.6310, 7756.000
793.7730, 7887.000
794.9160, 7878.000
796.0590, 7869.000
797.2010, 7830.000
798.3430, 7989.000
799.4850, 7999.000
800.6270, 8002.000
801.7690, 7940.000
802.9100, 8008.000
804.0520, 8086.000
805.1930, 8137.000
806.3340, 8183.000
807.4750, 8252.170
808.6160, 8346.000
809.7560, 8428.000
810.8970, 8491.000
812.0370, 8696.000
813.1770, 8715.000
814.3170, 9160.000
815.4570, 9243.000
816.5960, 9398.000
817.7360, 9538.000
818.8750, 9408.000
820.0140, 9181.000
821.1530, 9025.000
822.2920, 8829.000
823.4310, 8607.000
824.5690, 8714.000
825.7070, 8532.000
826.8460, 8372.000
827.9840, 8510.000
829.1220, 8380.000
830.2590, 8338.000
831.3970, 8235.000
832.5340, 8177.000
833.6710, 8161.320
834.8080, 8340.000
835.9450, 8155.000
837.0820, 8243.000
838.2190, 8270.000
839.3550, 8191.000
840.4910, 8189.000
841.6270, 8277.000
842.7630, 8283.000
843.8990, 8258.000
845.0350, 8367.000
846.1700, 8417.000
847.3060, 8395.000
848.4410, 8615.000
849.5760, 8806.000
850.7100, 8788.000
851.8450, 8862.000
852.9800, 9102.000
854.1140, 9144.000
855.2480, 9161.000
856.3820, 9355.000
857.5160, 9417.000
858.6500, 9486.000
859.7830, 9521.000
860.9170, 9544.000
862.0500, 9436.000
863.1830, 9287.000
864.3160, 9186.000
865.4480, 9108.000
866.5810, 8905.000
867.7130, 8864.000
868.8460, 8738.000
869.9780, 8780.000
871.1100, 8771.000
872.2410, 8706.000
873.3730, 8815.000
874.5050, 8653.000
875.6360, 8668.000
876.7670, 8713.000
877.8980, 8728.000
879.0290, 8517.000
880.1590, 8553.000
881.2900, 8554.000
882.4200, 8622.000
883.5500, 8508.000
884.6800, 8631.000
885.8100, 8539.000
886.9400, 8418.000
888.0690, 8558.000
889.1990, 8510.000
890.3280, 8466.000
891.4570, 8303.000
892.5860, 8430.000
893.7140, 8404.000
894.8430, 8513.000
895.9710, 8391.000
897.1000, 8536.000
898.2280, 8424.000
899.3560, 8465.000
900.4830, 8501.000
901.6110, 8408.000
902.7380, 8346.000
903.8660, 8381.000
904.9930, 8378.000
906.1200, 8426.000
907.2460, 8457.000
908.3730, 8399.000
909.5000, 8341.000
910.6260, 8340.000
911.7520, 8400.000
912.8780, 8378.000
914.0040, 8483.000
915.1290, 8450.724
916.2550, 8346.000
917.3800, 8444.000
918.5050, 8373.000
919.6300, 8410.000
920.7550, 8393.000
921.8800, 8413.000
923.0040, 8406.000
924.1290, 8416.000
925.2530, 8402.000
926.3770, 8413.000
927.5010, 8371.000
928.6250, 8379.000
929.7480, 8373.187
930.8720, 8390.223
931.9950, 8363.000
933.1180, 8460.000
934.2410, 8443.000
935.3640, 8496.000
936.4860, 8506.000
937.6090, 8512.721
938.7310, 8409.000
939.8530, 8519.000
940.9750, 8467.000
942.0970, 8443.000
943.2180, 8512.000
944.3400, 8476.000
945.4610, 8410.000
946.5820, 8502.000
947.7030, 8488.000
948.8240, 8479.000
949.9450, 8489.000
951.0650, 8478.692
952.1860, 8447.000
953.3060, 8479.000
954.4260, 8508.000
955.5460, 8519.000
956.6650, 8592.000
957.7850, 8540.000
958.9040, 8401.000
960.0230, 8546.000
961.1420, 8453.000
962.2610, 8545.000
963.3800, 8544.000
964.4990, 8667.000
965.6170, 8557.000
966.7350, 8547.000
967.8530, 8619.000
968.9710, 8591.000
970.0890, 8686.000
971.2070, 8701.000
972.3240, 8759.000
973.4410, 8713.000
974.5580, 8668.000
975.6750, 8725.000
976.7920, 8757.000
977.9090, 8637.000
979.0250, 8680.000
980.1410, 8767.000
981.2580, 8858.000
982.3740, 8860.000
983.4890, 8915.000
984.6050, 8917.000
985.7200, 8946.406
986.8360, 8887.000
987.9510, 8949.000
989.0660, 8972.000
990.1810, 8875.000
991.2950, 8963.000
992.4100, 8982.000
993.5240, 8989.000
994.6390, 8997.000
995.7530, 9068.000
996.8660, 9079.000
997.9800, 9133.000
999.0940, 9384.000
1000.207, 9337.000
1001.320, 9641.000
1002.433, 9566.000
1003.546, 9564.000
1004.659, 9541.000
1005.772, 9455.905
1006.884, 9328.000
1007.996, 9318.000
1009.108, 9295.000
1010.220, 9274.000
1011.332, 9340.000
1012.444, 9460.000
1013.555, 9405.000
1014.666, 9462.000
1015.777, 9381.000
1016.888, 9464.000
1017.999, 9462.000
1019.110, 9436.000
1020.220, 9378.000
1021.331, 9513.000
1022.441, 9563.000
1023.551, 9596.000
1024.661, 9606.000
1025.770, 9710.000
1026.880, 9771.000
1027.989, 9946.000
1029.098, 9872.000
1030.207, 9941.000
1031.316, 10104.00
1032.425, 10006.00
1033.533, 10258.00
1034.642, 10326.00
1035.750, 10586.00
1036.858, 10647.00
1037.966, 10734.00
1039.073, 11145.00
1040.181, 11085.00
1041.288, 11374.00
1042.396, 11443.00
1043.503, 11617.00
1044.610, 11731.00
1045.716, 11761.70
1046.823, 11723.00
1047.929, 11770.00
1049.036, 11721.00
1050.142, 11628.00
1051.248, 11605.00
1052.353, 11494.85
1053.459, 11374.00
1054.564, 11276.00
1055.670, 11221.65
1056.775, 11147.71
1057.880, 11090.18
1058.985, 11050.00
1060.089, 11006.00
1061.194, 10950.00
1062.298, 10944.00
1063.402, 10947.00
1064.506, 10865.00
1065.610, 10775.00
1066.713, 10852.00
1067.817, 10860.00
1068.920, 10828.00
1070.023, 10754.32
1071.126, 10769.00
1072.229, 10529.00
1073.332, 10424.00
1074.435, 10352.00
1075.537, 10215.16
1076.639, 10185.00
1077.741, 10099.00
1078.843, 10069.00
1079.945, 10125.00
1081.046, 10014.00
1082.148, 9864.000
1083.249, 10057.00
1084.350, 9970.000
1085.451, 10034.00
1086.551, 9870.000
1087.652, 9953.000
1088.752, 9890.000
1089.853, 9790.000
1090.953, 9753.000
1092.053, 9816.000
1093.152, 9865.000
1094.252, 9970.000
1095.351, 9977.000
1096.451, 9937.000
1097.550, 10113.00
1098.649, 10020.00
1099.748, 10196.00
1100.846, 10285.00
1101.945, 10203.00
1103.043, 10248.00
1104.141, 10343.00
1105.239, 10441.00
1106.337, 10487.00
1107.434, 10583.63
1108.532, 10674.73
1109.629, 10787.00
1110.726, 10887.00
1111.823, 11091.00
1112.920, 11240.00
1114.017, 11456.00
1115.113, 11487.00
1116.210, 11682.00
1117.306, 11799.00
1118.402, 11800.00
1119.498, 12148.00
1120.593, 12132.00
1121.689, 12368.00
1122.784, 12651.00
1123.879, 12894.00
1124.974, 13205.00
1126.069, 13537.00
1127.164, 13921.00
1128.259, 14599.00
1129.353, 15074.00
1130.447, 15731.00
1131.541, 16328.00
1132.635, 17126.00
1133.729, 17713.00
1134.822, 18440.00
1135.916, 18987.00
1137.009, 19247.00
1138.102, 19381.00
1139.195, 19280.00
1140.288, 18833.00
1141.380, 18458.00
1142.473, 17580.00
1143.565, 16851.00
1144.657, 16047.00
1145.749, 15200.00
1146.841, 14486.00
1147.932, 13843.00
1149.024, 13174.00
1150.115, 12630.00
1151.206, 12335.00
1152.297, 11910.00
1153.388, 11585.00
1154.479, 11290.00
1155.569, 11207.00
1156.659, 10891.00
1157.750, 10862.00
1158.839, 10854.00
1159.929, 10535.00
1161.019, 10464.00
1162.108, 10370.00
1163.198, 10312.00
1164.287, 10261.00
1165.376, 10222.00
1166.465, 10133.00
1167.553, 10055.00
1168.642, 10045.00
1169.730, 9971.000
1170.818, 10038.00
1171.906, 9952.000
1172.994, 9901.000
1174.082, 9959.000
1175.170, 10023.00
1176.257, 9807.000
1177.344, 9837.000
1178.431, 9865.000
1179.518, 9848.000
1180.605, 9942.000
1181.691, 9864.916
1182.778, 9694.000
1183.864, 9757.000
1184.950, 9770.000
1186.036, 9742.000
1187.122, 9773.000
1188.207, 9681.000
1189.292, 9635.000
1190.378, 9677.000
1191.463, 9711.000
1192.548, 9734.000
1193.632, 9743.000
1194.717, 9749.728
1195.801, 9749.728
1196.886, 9738.000
1197.970, 9735.000
1199.054, 9722.000
1200.137, 9711.000
1201.221, 9681.000
1202.305, 9686.544
1203.388, 9708.000
1204.471, 9661.000
1205.554, 9709.000
1206.637, 9640.000
1207.719, 9593.000
1208.802, 9616.000
1209.884, 9655.000
1210.966, 9568.000
1212.048, 9716.000
1213.130, 9635.000
1214.212, 9718.000
1215.293, 9656.000
1216.374, 9648.000
1217.456, 9788.000
1218.536, 9764.000
1219.617, 9740.000
1220.698, 9794.000
1221.778, 9725.000
1222.859, 9600.000
1223.939, 9794.000
1225.019, 9604.000
1226.099, 9873.000
1227.178, 9714.000
1228.258, 9801.000
1229.337, 9816.000
1230.417, 9790.000
1231.496, 9848.000
1232.574, 9932.000
1233.653, 9747.000
1234.732, 9897.000
1235.810, 9945.000
1236.888, 9866.000
1237.966, 9962.000
1239.044, 9922.000
1240.122, 9925.000
1241.199, 9940.000
1242.277, 9955.000
1243.354, 9890.000
1244.431, 9927.000
1245.508, 10018.00
1246.585, 10071.00
1247.661, 9999.000
1248.738, 10078.00
1249.814, 10002.00
1250.890, 10053.00
1251.966, 10021.00
1253.042, 10066.00
1254.117, 9960.000
1255.193, 9882.000
1256.268, 10003.00
1257.343, 10057.00
1258.418, 10056.00
1259.493, 10190.00
1260.567, 10009.00
1261.642, 10189.00
1262.716, 10152.00
1263.790, 10215.00
1264.864, 10230.80
1265.938, 10207.00
1267.011, 10202.00
1268.085, 10190.00
1269.158, 10169.00
1270.231, 10097.00
1271.304, 10112.00
1272.377, 10221.00
1273.450, 10210.00
1274.522, 10132.00
1275.594, 10300.00
1276.666, 10272.00
1277.738, 10193.00
1278.810, 10162.00
1279.882, 10153.14
1280.953, 10141.00
1282.025, 10147.00
1283.096, 10178.00
1284.167, 10161.00
1285.238, 10187.61
1286.308, 10122.00
1287.379, 10203.00
1288.449, 10120.00
1289.519, 10081.00
1290.589, 10160.00
1291.659, 10198.00
1292.729, 10137.00
1293.798, 10145.00
1294.868, 10096.00
1295.937, 10229.00
1297.006, 10196.00
1298.075, 10200.00
1299.143, 10220.00
1300.212, 10209.00
1301.280, 10191.00
1302.348, 10231.00
1303.416, 10283.00
1304.484, 10285.00
1305.552, 10195.00
1306.620, 10251.00
1307.687, 10134.00
1308.754, 10217.00
1309.821, 10346.00
1310.888, 10354.00
1311.955, 10382.00
1313.021, 10324.00
1314.088, 10366.00
1315.154, 10364.75
1316.220, 10370.00
1317.286, 10387.00
1318.352, 10441.00
1319.417, 10442.00
1320.483, 10423.00
1321.548, 10332.00
1322.613, 10325.00
1323.678, 10420.00
1324.743, 10269.00
1325.807, 10398.00
1326.872, 10382.00
1327.936, 10425.00
1329.000, 10210.00
1330.064, 10380.00
1331.128, 10173.00
1332.191, 10224.00
1333.255, 10303.00
1334.318, 10311.00
1335.381, 10163.00
1336.444, 10315.00
1337.507, 10210.00
1338.569, 10267.00
1339.632, 10262.00
1340.694, 10213.00
1341.756, 10304.00
1342.818, 10209.00
1343.880, 10378.00
1344.941, 10262.00
1346.003, 10328.00
1347.064, 10154.00
1348.125, 10262.00
1349.186, 10151.00
1350.247, 10197.00
1351.308, 10314.00
1352.368, 10164.00
1353.428, 10258.00
1354.489, 10155.00
1355.549, 10267.00
1356.608, 10305.00
1357.668, 10264.00
1358.727, 10353.00
1359.787, 10352.00
1360.846, 10379.00
1361.905, 10319.00
1362.964, 10382.00
1364.022, 10262.00
1365.081, 10494.00
1366.139, 10278.00
1367.197, 10360.00
1368.255, 10412.00
1369.313, 10316.00
1370.371, 10434.00
1371.428, 10312.00
1372.486, 10424.00
1373.543, 10453.00
1374.600, 10297.00
1375.657, 10478.00
1376.713, 10335.00
1377.770, 10360.00
1378.826, 10427.00
1379.882, 10487.00
1380.938, 10370.00
1381.994, 10467.00
1383.050, 10469.00
1384.106, 10494.00
1385.161, 10225.00
1386.216, 10518.00
1387.271, 10409.00
1388.326, 10410.00
1389.381, 10601.00
1390.435, 10443.00
1391.490, 10419.00
1392.544, 10460.00
1393.598, 10401.00
1394.652, 10332.00
1395.705, 10606.00
1396.759, 10383.00
1397.812, 10557.00
1398.866, 10547.00
1399.919, 10519.00
1400.972, 10553.00
1402.024, 10543.00
1403.077, 10616.00
1404.129, 10493.00
1405.181, 10484.00
1406.233, 10513.00
1407.285, 10596.00
1408.337, 10663.00
1409.389, 10620.40
1410.440, 10552.00
1411.491, 10527.00
1412.542, 10492.00
1413.593, 10445.00
1414.644, 10428.00
1415.695, 10623.00
1416.745, 10447.00
1417.795, 10585.00
1418.845, 10569.00
1419.895, 10430.00
1420.945, 10527.00
1421.995, 10565.00
1423.044, 10491.00
1424.093, 10541.00
1425.142, 10556.00
1426.191, 10672.00
1427.240, 10576.00
1428.289, 10640.00
1429.337, 10737.00
1430.385, 10767.00
1431.433, 10845.00
1432.481, 10870.00
1433.529, 10933.30
1434.577, 10930.00
1435.624, 11033.00
1436.672, 11142.00
1437.719, 11162.00
1438.766, 11259.38
1439.812, 11338.00
1440.859, 11390.00
1441.905, 11423.00
1442.952, 11487.00
1443.998, 11514.21
1445.044, 11486.00
1446.090, 11581.00
1447.135, 11601.00
1448.181, 11641.00
1449.226, 11700.53
1450.271, 11616.00
1451.316, 11736.00
1452.361, 11787.00
1453.405, 11680.00
1454.450, 11812.00
1455.494, 11642.00
1456.538, 11747.00
1457.582, 11728.00
1458.626, 11595.00
1459.670, 11579.00
1460.713, 11540.00
1461.757, 11485.00
1462.800, 11416.00
1463.843, 11420.00
1464.886, 11344.19
1465.928, 11209.00
1466.971, 11225.00
1468.013, 11197.00
1469.055, 11117.00
1470.097, 11231.00
1471.139, 11099.00
1472.181, 11124.00
1473.222, 10936.00
1474.263, 11097.00
1475.305, 10923.00
1476.346, 11044.00
1477.386, 11046.00
1478.427, 10946.00
1479.468, 10875.00
1480.508, 11000.00
1481.548, 10943.00
1482.588, 10919.00
1483.628, 11062.00
1484.668, 10749.00
1485.707, 10871.00
1486.747, 10895.00
1487.786, 10832.00
1488.825, 10961.00
1489.864, 10780.00
1490.902, 10894.00
1491.941, 10860.00
1492.979, 10815.00
1494.017, 10816.00
1495.055, 10858.00
1496.093, 10793.00
1497.131, 10817.45
1498.168, 10722.00
1499.206, 10795.00
1500.243, 10785.00
1501.280, 10741.00
1502.317, 10860.00
1503.354, 10875.00
1504.390, 10810.00
1505.426, 10886.00
1506.463, 10834.00
1507.499, 10801.00
1508.535, 10765.00
1509.570, 10678.00
1510.606, 10712.00
1511.641, 10687.79
1512.676, 10796.00
1513.711, 10755.00
1514.746, 10788.00
1515.781, 10918.00
1516.816, 10852.00
1517.850, 10827.00
1518.884, 10906.00
1519.918, 10891.00
1520.952, 10899.00
1521.986, 10912.26
1523.019, 10988.00
1524.053, 10884.00
1525.086, 10961.00
1526.119, 10919.00
1527.152, 10904.00
1528.185, 10938.00
1529.217, 10921.00
1530.250, 10940.00
1531.282, 10920.00
1532.314, 10953.00
1533.346, 10987.00
1534.377, 11031.00
1535.409, 11071.00
1536.440, 11103.97
1537.472, 11018.00
1538.503, 11140.00
1539.534, 11008.00
1540.564, 10946.00
1541.595, 11135.00
1542.625, 11239.00
1543.656, 10949.00
1544.686, 11028.00
1545.716, 11052.00
1546.745, 11004.00
1547.775, 10955.00
1548.804, 11006.00
1549.834, 11002.00
1550.863, 11118.00
1551.892, 11076.00
1552.920, 11031.00
1553.949, 11055.00
1554.977, 11001.00
1556.006, 11068.00
1557.034, 11166.00
1558.062, 11009.00
1559.089, 11025.00
1560.117, 11137.00
1561.144, 11090.00
1562.172, 11043.00
1563.199, 11097.00
1564.226, 11142.00
1565.252, 11162.00
1566.279, 11127.00
1567.305, 11177.00
1568.332, 11210.00
1569.358, 11236.00
1570.384, 11111.00
1571.409, 11065.00
##END=



