##NAMES=Epididymite
##RRUFFID=R070580
##IDEAL CHEMISTRY=Na_2_Be_2_Si_6_O_15_&#183;H_2_O
##LOCALITY=Narsarsuk, Narsaq, Kitaa, Greenland
##OWNER=RRUFF
##SOURCE=James Shigley
##DESCRIPTION=A translucent to white elongated prism.
##STATUS=The identification of this mineral is confirmed by single-crystal X-ray diffraction and chemical analysis.
##URL=rruff.info/R070580
##MEASURED CHEMISTRY=(Na_1.97_K_0.03_)_Σ=2_Be_2_Si_6.00_O_15_·H_2_O; trace amounts of Al; Be and H_2_O assumed by stoichiometry
##PIN_ID=M01011
##ORIENTATION=Laser parallel to c* (0 0 1). Fiducial mark perpendicular to laser is parallel to a [1 0 0]
111.2060, 6353.000
112.4440, 6209.000
113.6810, 6422.000
114.9180, 6839.000
116.1550, 7073.000
117.3920, 7466.000
118.6290, 7880.000
119.8650, 8184.000
121.1010, 8702.000
122.3370, 9059.000
123.5730, 9467.000
124.8090, 9730.000
126.0450, 9501.000
127.2800, 9386.000
128.5150, 9837.000
129.7500, 10345.00
130.9850, 10908.00
132.2200, 11490.00
133.4540, 11626.00
134.6890, 11223.00
135.9230, 10444.00
137.1570, 9284.000
138.3900, 8316.000
139.6240, 7848.000
140.8580, 7312.000
142.0910, 6979.000
143.3240, 6832.000
144.5570, 6802.000
145.7900, 6703.000
147.0220, 6775.000
148.2550, 6845.000
149.4870, 6847.000
150.7190, 6888.000
151.9510, 7067.000
153.1830, 6894.000
154.4140, 6896.000
155.6460, 6900.000
156.8770, 6598.000
158.1080, 6592.000
159.3390, 6785.000
160.5690, 6647.000
161.8000, 6767.000
163.0300, 6775.000
164.2600, 6810.000
165.4900, 6920.000
166.7200, 7014.000
167.9500, 7045.000
169.1790, 7041.000
170.4080, 7038.783
171.6380, 7042.000
172.8670, 6983.000
174.0950, 6865.000
175.3240, 6884.000
176.5520, 6859.000
177.7810, 6757.000
179.0090, 6786.000
180.2370, 6764.000
181.4640, 6862.000
182.6920, 6833.000
183.9190, 6943.000
185.1460, 7012.000
186.3730, 7227.000
187.6000, 7326.000
188.8270, 7453.605
190.0530, 7632.402
191.2800, 7691.000
192.5060, 7928.000
193.7320, 8041.000
194.9580, 8129.000
196.1830, 8261.000
197.4090, 8414.000
198.6340, 8531.000
199.8590, 8470.000
201.0840, 8375.000
202.3090, 8255.000
203.5340, 8131.000
204.7580, 8076.000
205.9820, 7690.000
207.2060, 7562.000
208.4300, 7420.000
209.6540, 7314.000
210.8780, 7314.000
212.1010, 7202.000
213.3240, 7099.000
214.5470, 7204.000
215.7700, 7184.000
216.9930, 7230.000
218.2150, 7263.000
219.4380, 7164.000
220.6600, 7239.000
221.8820, 7261.000
223.1040, 7346.000
224.3260, 7469.000
225.5470, 7568.000
226.7680, 7676.000
227.9900, 7758.000
229.2110, 7950.510
230.4310, 8234.000
231.6520, 8360.000
232.8720, 8596.000
234.0930, 8839.000
235.3130, 9044.000
236.5330, 9224.000
237.7530, 9599.000
238.9720, 9960.000
240.1920, 10078.00
241.4110, 10429.00
242.6300, 10356.00
243.8490, 10287.00
245.0680, 9970.000
246.2860, 9614.000
247.5040, 9279.000
248.7230, 8987.000
249.9410, 8699.000
251.1590, 8505.000
252.3760, 8460.000
253.5940, 8287.000
254.8110, 8236.000
256.0280, 8223.000
257.2450, 8185.000
258.4620, 8245.000
259.6790, 8532.000
260.8950, 8588.000
262.1120, 8427.000
263.3280, 8168.000
264.5440, 8050.000
265.7600, 8014.000
266.9750, 7843.000
268.1910, 7802.000
269.4060, 7814.000
270.6210, 7657.000
271.8360, 7626.000
273.0510, 7518.000
274.2650, 7490.000
275.4800, 7351.000
276.6940, 7372.000
277.9080, 7287.000
279.1220, 7284.000
280.3360, 7239.000
281.5490, 7293.000
282.7630, 7248.000
283.9760, 7260.000
285.1890, 7252.000
286.4020, 7266.000
287.6150, 7222.000
288.8270, 7230.000
290.0400, 7253.000
291.2520, 7200.000
292.4640, 7271.000
293.6760, 7269.000
294.8870, 7221.000
296.0990, 7320.000
297.3100, 7265.000
298.5210, 7256.000
299.7320, 7293.000
300.9430, 7210.000
302.1540, 7325.000
303.3640, 7331.000
304.5750, 7356.000
305.7850, 7369.000
306.9950, 7342.000
308.2050, 7261.000
309.4140, 7300.000
310.6240, 7350.000
311.8330, 7471.000
313.0420, 7302.000
314.2510, 7481.000
315.4600, 7472.000
316.6680, 7710.000
317.8770, 7642.000
319.0850, 7624.000
320.2930, 7823.000
321.5010, 7960.000
322.7090, 7889.000
323.9160, 7955.000
325.1240, 8162.000
326.3310, 8045.000
327.5380, 8281.000
328.7450, 8289.000
329.9520, 8434.000
331.1580, 8544.000
332.3650, 8690.000
333.5710, 8683.000
334.7770, 8965.000
335.9830, 8954.000
337.1880, 9198.000
338.3940, 9148.000
339.5990, 9234.000
340.8040, 9332.000
342.0090, 9604.000
343.2140, 9917.000
344.4190, 10050.00
345.6230, 10261.00
346.8280, 10317.00
348.0320, 10128.00
349.2360, 9723.000
350.4400, 9267.000
351.6430, 8846.000
352.8470, 8710.000
354.0500, 8493.000
355.2530, 8469.000
356.4560, 8353.000
357.6590, 8290.000
358.8620, 8244.000
360.0640, 8221.074
361.2660, 8226.411
362.4680, 8278.000
363.6700, 8258.000
364.8720, 8380.000
366.0740, 8360.000
367.2750, 8690.000
368.4760, 8693.000
369.6770, 8842.000
370.8780, 9076.000
372.0790, 9254.000
373.2800, 9636.000
374.4800, 9843.000
375.6800, 10241.00
376.8800, 10628.00
378.0800, 10941.00
379.2800, 11472.00
380.4790, 11710.00
381.6790, 11864.00
382.8780, 11862.00
384.0770, 11476.00
385.2760, 11180.00
386.4750, 10801.00
387.6730, 10477.00
388.8720, 9894.000
390.0700, 9604.000
391.2680, 9297.000
392.4660, 9075.000
393.6630, 8961.000
394.8610, 8915.000
396.0580, 9088.000
397.2550, 9265.031
398.4520, 9684.000
399.6490, 9975.000
400.8460, 10556.00
402.0420, 11131.00
403.2390, 11793.00
404.4350, 12478.00
405.6310, 13472.00
406.8270, 14398.00
408.0220, 15193.00
409.2180, 15294.00
410.4130, 14422.00
411.6080, 13298.00
412.8030, 11863.00
413.9980, 10572.00
415.1920, 9671.000
416.3870, 9055.000
417.5810, 8771.000
418.7750, 8591.000
419.9690, 8418.000
421.1630, 8304.000
422.3570, 8267.000
423.5500, 8234.000
424.7430, 8255.000
425.9360, 8225.000
427.1290, 8385.000
428.3220, 8280.000
429.5150, 8385.000
430.7070, 8234.000
431.8990, 8373.000
433.0910, 8426.000
434.2830, 8456.000
435.4750, 8369.000
436.6670, 8582.000
437.8580, 8438.000
439.0490, 8579.000
440.2400, 8413.000
441.4310, 8260.000
442.6220, 8299.000
443.8130, 8247.000
445.0030, 8300.000
446.1930, 8231.000
447.3830, 8174.000
448.5730, 8212.000
449.7630, 8307.000
450.9520, 8327.000
452.1420, 8309.000
453.3310, 8486.000
454.5200, 8400.000
455.7090, 8514.000
456.8980, 8397.000
458.0860, 8659.000
459.2740, 8619.000
460.4630, 8699.000
461.6510, 8807.000
462.8380, 8762.000
464.0260, 8820.000
465.2140, 8978.000
466.4010, 8900.000
467.5880, 9213.000
468.7750, 9367.000
469.9620, 9631.000
471.1490, 9828.000
472.3350, 10142.00
473.5220, 10461.00
474.7080, 10658.00
475.8940, 10898.00
477.0800, 11015.00
478.2650, 11006.00
479.4510, 10949.00
480.6360, 10689.00
481.8210, 10615.00
483.0060, 10636.00
484.1910, 10740.00
485.3760, 10666.00
486.5600, 10656.00
487.7440, 10510.00
488.9290, 10417.00
490.1130, 10010.00
491.2960, 9759.000
492.4800, 9553.000
493.6630, 9417.000
494.8470, 9370.000
496.0300, 9264.000
497.2130, 9350.000
498.3960, 9295.000
499.5780, 9453.000
500.7610, 9493.000
501.9430, 9673.000
503.1250, 9850.000
504.3070, 9954.000
505.4890, 10182.00
506.6710, 10618.00
507.8520, 11341.00
509.0330, 12292.00
510.2140, 13421.00
511.3950, 15033.00
512.5760, 16677.59
513.7570, 18820.00
514.9370, 20905.00
516.1170, 23402.00
517.2980, 26272.00
518.4780, 28618.00
519.6570, 30455.00
520.8370, 30685.00
522.0160, 29480.00
523.1960, 26547.00
524.3750, 22885.00
525.5540, 19500.00
526.7320, 16715.00
527.9110, 14615.00
529.0890, 13273.00
530.2680, 12262.00
531.4460, 11552.00
532.6240, 10955.00
533.8010, 10670.00
534.9790, 10273.00
536.1560, 10215.00
537.3340, 10087.00
538.5110, 9930.000
539.6880, 9641.000
540.8650, 9863.000
542.0410, 9478.000
543.2180, 9490.000
544.3940, 9502.000
545.5700, 9366.000
546.7460, 9397.000
547.9220, 9269.000
549.0970, 9249.000
550.2730, 9309.000
551.4480, 9225.000
552.6230, 9254.000
553.7980, 9318.000
554.9730, 9297.000
556.1470, 9286.000
557.3210, 9209.000
558.4960, 9275.000
559.6700, 9331.000
560.8440, 9237.000
562.0170, 9239.000
563.1910, 9264.000
564.3640, 9314.000
565.5380, 9201.000
566.7110, 9227.000
567.8840, 9370.000
569.0560, 10071.00
570.2290, 9448.000
571.4010, 10819.00
572.5740, 10479.00
573.7460, 11316.00
574.9180, 10996.00
576.0890, 10964.00
577.2610, 10909.00
578.4320, 10898.28
579.6040, 11116.79
580.7750, 11190.00
581.9450, 11587.00
583.1160, 12044.00
584.2870, 12181.00
585.4570, 12213.00
586.6270, 12036.00
587.7980, 11695.00
588.9670, 11145.00
590.1370, 10741.00
591.3070, 10256.00
592.4760, 10118.00
593.6450, 9838.000
594.8140, 9658.000
595.9830, 9728.000
597.1520, 9672.000
598.3210, 9706.000
599.4890, 9583.000
600.6570, 9529.000
601.8250, 9637.000
602.9930, 9677.000
604.1610, 9508.000
605.3290, 9466.000
606.4960, 9642.000
607.6630, 9537.000
608.8300, 9607.000
609.9970, 9590.000
611.1640, 9555.000
612.3300, 9676.000
613.4970, 9599.000
614.6630, 9520.000
615.8290, 9551.000
616.9950, 9569.000
618.1610, 9462.000
619.3260, 9537.913
620.4920, 9512.000
621.6570, 9614.000
622.8220, 9598.000
623.9870, 9655.000
625.1520, 9849.000
626.3160, 9874.000
627.4810, 9927.000
628.6450, 10080.00
629.8090, 10139.00
630.9730, 10242.00
632.1370, 10253.00
633.3000, 10357.00
634.4640, 10431.00
635.6270, 10312.00
636.7900, 10191.00
637.9530, 10123.00
639.1160, 9908.000
640.2780, 9922.000
641.4410, 9816.000
642.6030, 9928.000
643.7650, 9804.000
644.9270, 9855.000
646.0890, 9775.000
647.2500, 9804.000
648.4120, 9798.000
649.5730, 9646.000
650.7340, 9716.000
651.8950, 9684.000
653.0560, 9787.000
654.2160, 9707.000
655.3770, 9751.000
656.5370, 9766.000
657.6970, 9817.000
658.8570, 9823.522
660.0170, 9802.000
661.1760, 9763.000
662.3360, 9818.000
663.4950, 9623.000
664.6540, 9793.000
665.8130, 9838.000
666.9720, 9699.000
668.1310, 9773.000
669.2890, 9910.000
670.4470, 9900.000
671.6050, 9866.000
672.7630, 9859.000
673.9210, 9910.000
675.0790, 9852.000
676.2360, 9938.000
677.3930, 9930.000
678.5510, 9875.000
679.7080, 9968.000
680.8640, 10020.00
682.0210, 10046.00
683.1770, 10058.00
684.3340, 10091.00
685.4900, 10062.00
686.6460, 10109.00
687.8020, 10102.11
688.9570, 10147.00
690.1130, 10080.00
691.2680, 10129.00
692.4230, 10060.00
693.5780, 10014.00
694.7330, 10141.00
695.8880, 10170.00
697.0420, 10160.00
698.1960, 9986.000
699.3510, 10088.00
700.5040, 10062.00
701.6580, 10164.00
702.8120, 10142.22
703.9650, 10180.00
705.1190, 10126.00
706.2720, 10086.00
707.4250, 10112.00
708.5780, 10152.00
709.7300, 10110.00
710.8830, 10320.00
712.0350, 10302.00
713.1870, 10220.00
714.3390, 10355.00
715.4910, 10273.00
716.6430, 10387.00
717.7940, 10196.00
718.9460, 10266.00
720.0970, 10466.00
721.2480, 10290.00
722.3990, 10426.00
723.5500, 10275.00
724.7000, 10357.00
725.8500, 10364.00
727.0010, 10354.00
728.1510, 10407.00
729.3010, 10466.00
730.4500, 10354.00
731.6000, 10487.00
732.7490, 10412.00
733.8980, 10386.00
735.0470, 10500.00
736.1960, 10491.00
737.3450, 10391.00
738.4940, 10499.00
739.6420, 10542.00
740.7900, 10519.00
741.9380, 10562.00
743.0860, 10588.74
744.2340, 10724.00
745.3810, 10621.00
746.5290, 10676.00
747.6760, 10611.00
748.8230, 10713.00
749.9700, 10762.00
751.1170, 10646.00
752.2630, 10713.00
753.4100, 10894.00
754.5560, 10852.00
755.7020, 10898.00
756.8480, 10768.00
757.9940, 10760.00
759.1390, 10856.00
760.2850, 10831.00
761.4300, 10892.00
762.5750, 10947.00
763.7200, 10824.00
764.8650, 10911.00
766.0100, 10820.00
767.1540, 10953.00
768.2980, 10816.00
769.4420, 10977.00
770.5860, 10844.00
771.7300, 10927.00
772.8740, 10711.00
774.0170, 10853.00
775.1610, 10875.00
776.3040, 10680.00
777.4470, 10858.00
778.5900, 10909.00
779.7320, 11022.00
780.8750, 10979.00
782.0170, 11037.00
783.1590, 11004.00
784.3010, 10896.00
785.4430, 10929.00
786.5850, 10923.00
787.7260, 11067.00
788.8680, 10939.00
790.0090, 11024.00
791.1500, 11195.00
792.2910, 11041.00
793.4310, 11117.00
794.5720, 11128.00
795.7120, 11104.00
796.8520, 11132.00
797.9920, 11187.00
799.1320, 11235.00
800.2720, 11332.00
801.4120, 11247.00
802.5510, 11205.00
803.6900, 11112.00
804.8290, 11161.00
805.9680, 11157.00
807.1070, 11123.00
808.2450, 11236.00
809.3840, 11203.00
810.5220, 11243.00
811.6600, 11319.00
812.7980, 11386.00
813.9360, 11498.00
815.0730, 11395.00
816.2110, 11574.00
817.3480, 11420.00
818.4850, 11573.00
819.6220, 11517.00
820.7590, 11466.00
821.8960, 11350.00
823.0320, 11433.00
824.1680, 11442.00
825.3040, 11500.00
826.4400, 11431.00
827.5760, 11429.00
828.7120, 11375.00
829.8470, 11412.00
830.9830, 11585.00
832.1180, 11418.00
833.2530, 11579.00
834.3880, 11554.00
835.5220, 11402.00
836.6570, 11622.00
837.7910, 11452.00
838.9250, 11543.00
840.0590, 11697.00
841.1930, 11614.00
842.3270, 11464.00
843.4600, 11565.00
844.5940, 11609.00
845.7270, 11558.00
846.8600, 11640.00
847.9930, 11686.00
849.1250, 11706.00
850.2580, 11624.00
851.3900, 11634.00
852.5230, 11636.00
853.6550, 11719.00
854.7870, 11729.00
855.9180, 11751.00
857.0500, 11776.00
858.1810, 11770.00
859.3130, 11793.00
860.4440, 11796.00
861.5750, 11829.80
862.7050, 11837.99
863.8360, 11902.00
864.9660, 11888.00
866.0970, 11914.00
867.2270, 11989.00
868.3570, 12042.00
869.4870, 12025.00
870.6160, 12106.00
871.7460, 11753.00
872.8750, 12042.00
874.0040, 12048.00
875.1330, 12017.00
876.2620, 12216.00
877.3910, 12141.00
878.5190, 12121.00
879.6470, 12289.00
880.7760, 12152.00
881.9040, 12100.00
883.0310, 12164.00
884.1590, 12080.00
885.2870, 12184.00
886.4140, 12002.00
887.5410, 12200.00
888.6680, 12157.00
889.7950, 12081.00
890.9220, 12078.00
892.0480, 12104.00
893.1750, 12051.00
894.3010, 12083.00
895.4270, 12178.00
896.5530, 12164.00
897.6790, 12092.00
898.8040, 12189.00
899.9300, 12218.00
901.0550, 12201.00
902.1800, 12277.00
903.3050, 12198.00
904.4300, 12230.00
905.5540, 12256.00
906.6790, 12215.00
907.8030, 12325.00
908.9270, 12325.00
910.0510, 12311.00
911.1750, 12371.00
912.2990, 12196.00
913.4220, 12251.00
914.5450, 12321.00
915.6690, 12452.00
916.7920, 12421.00
917.9140, 12320.00
919.0370, 12471.00
920.1600, 12344.00
921.2820, 12351.00
922.4040, 12404.00
923.5260, 12443.00
924.6480, 12523.00
925.7700, 12511.00
926.8910, 12533.50
928.0130, 12563.74
929.1340, 12522.00
930.2550, 12604.00
931.3760, 12603.00
932.4970, 12632.00
933.6170, 12500.00
934.7380, 12462.00
935.8580, 12522.78
936.9780, 12622.00
938.0980, 12611.00
939.2180, 12677.00
940.3370, 12626.00
941.4570, 12632.00
942.5760, 12709.00
943.6950, 12697.00
944.8140, 12682.00
945.9330, 12691.00
947.0520, 12750.00
948.1700, 12758.00
949.2890, 12780.27
950.4070, 12716.00
951.5250, 12833.00
952.6430, 12680.00
953.7600, 12739.00
954.8780, 12900.00
955.9950, 12803.00
957.1120, 12726.00
958.2290, 12807.00
959.3460, 12713.00
960.4630, 12865.00
961.5800, 12865.00
962.6960, 12843.00
963.8120, 12792.00
964.9280, 12820.00
966.0440, 12900.00
967.1600, 12898.00
968.2760, 12893.00
969.3910, 13047.00
970.5060, 12939.00
971.6210, 12867.00
972.7360, 13067.00
973.8510, 13060.00
974.9660, 13117.00
976.0800, 13046.00
977.1950, 13089.00
978.3090, 13064.00
979.4230, 13013.00
980.5370, 13163.00
981.6500, 13186.00
982.7640, 13095.00
983.8770, 13224.00
984.9900, 13275.00
986.1030, 13195.00
987.2160, 13234.00
988.3290, 13343.00
989.4420, 13376.00
990.5540, 13443.50
991.6660, 13461.44
992.7780, 13534.00
993.8900, 13450.00
995.0020, 13431.00
996.1140, 13384.00
997.2250, 13444.00
998.3360, 13574.00
999.4470, 13613.00
1000.558, 13668.10
1001.669, 13620.00
1002.780, 13683.00
1003.890, 13704.00
1005.001, 13591.00
1006.111, 13545.00
1007.221, 13659.00
1008.331, 13686.00
1009.440, 13964.00
1010.550, 13825.00
1011.659, 13905.00
1012.768, 13833.00
1013.877, 13994.00
1014.986, 13752.00
1016.095, 13799.00
1017.204, 13795.00
1018.312, 13708.00
1019.420, 13889.00
1020.528, 13894.00
1021.636, 13894.00
1022.744, 13947.00
1023.852, 13979.00
1024.959, 14013.00
1026.066, 14070.00
1027.173, 14078.00
1028.280, 14324.00
1029.387, 14374.00
1030.494, 14403.00
1031.600, 14338.00
1032.707, 14565.00
1033.813, 14594.00
1034.919, 14574.00
1036.025, 14811.00
1037.130, 14912.00
1038.236, 14998.00
1039.341, 15152.00
1040.446, 15121.00
1041.552, 15070.00
1042.656, 15341.00
1043.761, 15111.00
1044.866, 15197.00
1045.970, 15358.00
1047.074, 15331.00
1048.179, 15372.03
1049.282, 15180.00
1050.386, 15314.00
1051.490, 15214.00
1052.593, 15134.00
1053.697, 15259.00
1054.800, 14988.00
1055.903, 14969.00
1057.006, 15020.00
1058.108, 14937.00
1059.211, 15064.00
1060.313, 14938.00
1061.415, 15097.00
1062.517, 15067.00
1063.619, 15213.00
1064.721, 15199.00
1065.823, 15079.00
1066.924, 15219.00
1068.025, 15100.00
1069.126, 15147.00
1070.227, 15152.00
1071.328, 15115.00
1072.429, 15147.00
1073.529, 15133.00
1074.629, 15086.00
1075.729, 15058.00
1076.829, 15007.00
1077.929, 14953.00
1079.029, 15007.00
1080.128, 14839.00
1081.228, 14935.00
1082.327, 14894.00
1083.426, 14646.00
1084.525, 14888.00
1085.623, 14758.00
1086.722, 14800.00
1087.820, 14874.00
1088.919, 14866.00
1090.017, 14960.00
1091.115, 14922.00
1092.212, 14929.00
1093.310, 14936.00
1094.407, 14882.00
1095.505, 14923.00
1096.602, 15000.00
1097.699, 15042.00
1098.795, 15167.00
1099.892, 15119.00
1100.989, 15163.00
1102.085, 15137.00
1103.181, 15474.00
1104.277, 15388.00
1105.373, 15497.00
1106.469, 15573.00
1107.564, 15548.11
1108.660, 15411.00
1109.755, 15565.00
1110.850, 15627.00
1111.945, 15629.00
1113.040, 15891.00
1114.134, 16024.00
1115.229, 16120.00
1116.323, 16138.00
1117.417, 16452.00
1118.511, 16393.00
1119.605, 16705.00
1120.698, 16658.00
1121.792, 16878.00
1122.885, 17303.00
1123.978, 17275.00
1125.071, 17514.00
1126.164, 17797.00
1127.257, 18103.00
1128.349, 18414.82
1129.442, 18704.00
1130.534, 19145.00
1131.626, 19480.00
1132.718, 19958.00
1133.810, 20294.00
1134.901, 20618.00
1135.993, 20962.00
1137.084, 21202.00
1138.175, 21223.00
1139.266, 21207.00
1140.357, 21062.00
1141.448, 20707.00
1142.538, 20361.00
1143.628, 19941.00
1144.719, 19286.00
1145.809, 18985.00
1146.898, 18391.00
1147.988, 18050.00
1149.078, 17652.00
1150.167, 17502.00
1151.256, 17081.00
1152.345, 16947.00
1153.434, 16683.00
1154.523, 16609.00
1155.612, 16549.00
1156.700, 16323.00
1157.788, 16336.00
1158.877, 16264.00
1159.964, 16204.00
1161.052, 16312.00
1162.140, 16178.00
1163.227, 16110.00
1164.315, 16071.00
1165.402, 15959.00
1166.489, 16155.00
1167.576, 16026.00
1168.663, 16241.00
1169.749, 15907.00
1170.836, 16068.00
1171.922, 15935.00
1173.008, 16143.00
1174.094, 15904.00
1175.180, 16142.00
1176.265, 16119.00
1177.351, 16152.00
1178.436, 16106.00
1179.521, 16069.00
1180.606, 16025.00
1181.691, 16136.00
1182.776, 16254.00
1183.860, 16163.00
1184.944, 16057.00
1186.029, 16131.00
1187.113, 16129.00
1188.197, 15999.00
1189.280, 16059.00
1190.364, 16245.00
1191.447, 16348.00
1192.531, 16314.00
1193.614, 16233.00
1194.697, 16455.00
1195.779, 16150.00
1196.862, 16174.00
1197.945, 16296.00
1199.027, 16390.00
1200.109, 16445.00
1201.191, 16327.00
1202.273, 16292.00
1203.355, 16356.00
1204.436, 16460.00
1205.518, 16372.00
1206.599, 16512.00
1207.680, 16360.00
1208.761, 16578.00
1209.842, 16344.00
1210.922, 16641.00
1212.003, 16678.00
1213.083, 16504.00
1214.163, 16629.00
1215.243, 16567.00
1216.323, 16612.00
1217.402, 16587.00
1218.482, 16704.00
1219.561, 16614.00
1220.641, 16750.00
1221.720, 16750.00
1222.798, 16756.00
1223.877, 16951.00
1224.956, 16745.00
1226.034, 16780.00
1227.112, 16900.00
1228.191, 16984.00
1229.269, 16993.00
1230.346, 17035.00
1231.424, 17045.71
1232.501, 17028.00
1233.579, 17040.00
1234.656, 17052.00
1235.733, 17046.00
1236.810, 16963.00
1237.886, 16908.00
1238.963, 17013.00
1240.039, 17202.00
1241.116, 17190.00
1242.192, 17134.00
1243.268, 17234.00
1244.343, 17244.00
1245.419, 16985.00
1246.494, 17048.00
1247.570, 17098.00
1248.645, 17244.00
1249.720, 17231.00
1250.795, 17238.00
1251.869, 17287.00
1252.944, 17275.00
1254.018, 17326.26
1255.093, 17376.07
1256.167, 17385.00
1257.240, 17510.00
1258.314, 17488.00
1259.388, 17574.77
1260.461, 17539.00
1261.535, 17601.00
1262.608, 17649.00
1263.681, 17653.00
1264.753, 17485.00
1265.826, 17522.00
1266.899, 17544.00
1267.971, 17580.00
1269.043, 17566.00
1270.115, 17657.00
1271.187, 17636.00
1272.259, 17497.00
1273.330, 17865.00
1274.402, 17810.00
1275.473, 17652.00
1276.544, 17665.00
1277.615, 17535.00
1278.686, 17742.00
1279.756, 17788.00
1280.827, 17928.00
1281.897, 17862.00
1282.967, 17774.00
1284.037, 17941.00
1285.107, 17906.00
1286.177, 18018.00
1287.247, 18058.00
1288.316, 18083.00
1289.385, 18184.00
1290.454, 18275.00
1291.523, 18149.00
1292.592, 18161.00
1293.661, 18046.00
1294.729, 18332.00
1295.797, 18340.00
1296.866, 18293.00
1297.934, 18306.00
1299.001, 18346.00
1300.069, 18422.00
1301.137, 18432.00
1302.204, 18417.17
1303.271, 18430.00
1304.338, 18394.00
1305.405, 18382.00
1306.472, 18489.00
1307.539, 18562.00
1308.605, 18494.00
1309.671, 18641.00
1310.737, 18539.00
1311.803, 18546.00
1312.869, 18453.00
1313.935, 18813.00
1315.000, 18515.00
1316.066, 18567.00
1317.131, 18865.00
1318.196, 18783.00
1319.261, 18875.00
1320.326, 18615.00
1321.390, 18912.00
1322.455, 18764.00
1323.519, 18782.00
1324.583, 18950.00
1325.647, 18925.00
1326.711, 18916.00
1327.775, 18859.00
1328.838, 18993.00
1329.902, 18927.00
1330.965, 19047.00
1332.028, 19063.20
1333.091, 19011.00
1334.153, 19130.00
1335.216, 19182.00
1336.279, 19237.23
1337.341, 19192.00
1338.403, 19200.00
1339.465, 19194.00
1340.527, 19111.00
1341.588, 19291.00
1342.650, 19165.00
1343.711, 19219.00
1344.772, 19391.00
1345.834, 19227.00
1346.894, 19330.00
1347.955, 19308.00
1349.016, 19384.00
1350.076, 19236.00
1351.136, 19292.00
1352.197, 19302.00
1353.257, 19223.00
1354.316, 19505.00
1355.376, 19455.00
1356.436, 19493.00
1357.495, 19417.00
1358.554, 19420.00
1359.613, 19449.00
1360.672, 19427.04
1361.731, 19577.00
1362.789, 19433.00
1363.848, 19630.00
1364.906, 19615.00
1365.964, 19780.00
1367.022, 19661.00
1368.080, 19805.00
1369.138, 19750.00
1370.195, 19783.00
1371.253, 19757.00
1372.310, 19827.00
1373.367, 19939.00
1374.424, 19985.00
1375.480, 19720.00
1376.537, 19762.00
1377.593, 19886.00
1378.650, 19862.00
1379.706, 20049.00
1380.762, 19892.00
1381.818, 20104.00
1382.873, 20119.00
1383.929, 19973.00
1384.984, 20095.00
1386.039, 19997.00
1387.094, 19985.00
1388.149, 20178.00
1389.204, 20193.00
1390.259, 20142.00
1391.313, 20264.22
1392.367, 20190.00
1393.422, 20328.00
1394.476, 20243.00
1395.529, 20177.00
1396.583, 20164.00
1397.637, 20255.00
1398.690, 20298.00
1399.743, 20337.00
1400.796, 20353.00
1401.849, 20309.00
1402.902, 20564.00
1403.954, 20582.00
1405.007, 20507.00
1406.059, 20639.00
1407.111, 20493.00
1408.163, 20563.00
1409.215, 20622.00
1410.267, 20561.00
1411.318, 20702.00
1412.370, 20673.00
1413.421, 20622.00
1414.472, 20637.00
1415.523, 20705.00
1416.574, 20823.00
1417.624, 20791.00
1418.675, 20822.00
1419.725, 20905.00
1420.775, 20827.00
1421.825, 20992.00
1422.875, 20955.00
1423.925, 20995.00
1424.974, 21136.00
1426.024, 21092.00
1427.073, 21103.00
1428.122, 21082.00
1429.171, 21294.00
1430.220, 21336.00
1431.268, 21078.00
1432.317, 21305.00
1433.365, 21383.00
1434.413, 21439.00
1435.461, 21637.00
1436.509, 21478.00
1437.557, 21608.00
1438.605, 21482.00
1439.652, 21714.00
1440.699, 21638.00
1441.746, 21594.00
1442.793, 21858.00
1443.840, 21691.00
1444.887, 21646.00
1445.933, 21658.00
1446.980, 21780.00
1448.026, 21944.00
1449.072, 21958.00
1450.118, 21946.00
1451.163, 21817.00
1452.209, 21916.00
1453.254, 21920.00
1454.300, 21901.00
1455.345, 22041.00
1456.390, 21932.00
1457.435, 22083.00
1458.479, 21895.00
1459.524, 22004.00
1460.568, 22000.00
1461.612, 22046.00
1462.656, 22037.00
1463.700, 22008.03
1464.744, 22127.00
1465.788, 21970.00
1466.831, 21963.00
1467.874, 22046.00
1468.918, 22116.00
1469.961, 22109.85
1471.003, 22191.00
1472.046, 22132.00
1473.089, 22156.08
1474.131, 22059.00
1475.173, 22143.00
1476.215, 22141.00
1477.257, 22132.00
1478.299, 22236.00
1479.341, 22126.00
1480.382, 22184.22
1481.424, 22243.00
1482.465, 22207.00
1483.506, 22343.00
1484.547, 22367.00
1485.587, 22187.00
1486.628, 22343.00
1487.668, 22378.00
1488.709, 22523.00
1489.749, 22660.00
1490.789, 22477.00
1491.828, 22470.00
1492.868, 22715.00
1493.908, 22486.00
1494.947, 22563.00
1495.986, 22607.00
1497.025, 22579.00
1498.064, 22501.00
1499.103, 22738.00
1500.141, 22655.00
1501.180, 22699.00
1502.218, 22818.00
1503.256, 22774.00
1504.294, 22668.00
1505.332, 22711.00
1506.370, 22793.00
1507.407, 22877.00
1508.445, 22829.00
1509.482, 22796.00
1510.519, 22863.00
1511.556, 22827.67
1512.593, 22939.00
1513.629, 22807.00
1514.666, 22908.00
1515.702, 22834.00
1516.738, 22782.00
1517.774, 23011.00
1518.810, 23065.00
1519.846, 23112.00
1520.882, 23177.00
1521.917, 23241.00
1522.952, 23170.00
1523.987, 23162.00
1525.022, 22984.00
1526.057, 23283.00
1527.092, 23226.00
1528.126, 23099.00
1529.161, 23368.00
1530.195, 23091.00
1531.229, 23241.00
1532.263, 23276.00
1533.297, 23308.00
1534.330, 23234.00
1535.364, 23331.00
1536.397, 23346.00
1537.430, 23297.00
1538.463, 23425.26
1539.496, 23360.00
1540.529, 23546.00
1541.561, 23523.00
1542.594, 23440.00
1543.626, 23431.00
1544.658, 23431.65
1545.690, 23629.00
1546.722, 23463.00
1547.753, 23636.00
1548.785, 23652.00
1549.816, 23521.00
1550.847, 23728.00
1551.878, 23692.00
1552.909, 23889.00
1553.940, 23853.00
1554.971, 23751.00
1556.001, 23925.00
1557.031, 23822.00
1558.062, 23860.00
1559.092, 23719.00
1560.121, 23752.00
1561.151, 23830.00
1562.181, 23880.00
##END=



