##NAMES=Epidote
##RRUFFID=R050303
##IDEAL CHEMISTRY=Ca_2_Fe^3+^Al_2_(Si_2_O_7_)(SiO_4_)O(OH)
##LOCALITY=San Martin mine, Zacatecas, Mexico
##OWNER=RRUFF
##SOURCE=Eugene Schlepp
##DESCRIPTION=Green elongated prismatic crystals
##STATUS=The identification of this mineral has been confirmed by X-ray diffraction and chemical analysis
##URL=rruff.info/R050303
##MEASURED CHEMISTRY=Ca_2.00_Al_2.00_(Fe^3+^_0.97_Al_0.03_)(SiO_4_)(Si_2_O_7_)O(OH)
##PIN_ID=L01741
##ORIENTATION=Laser parallel to -a* (-1 0 0). Fiducial mark perpendicular to laser is parallel to -b [0 -1 0]
53.91000, 1270.000
55.14900, 1287.000
56.38700, 1264.000
57.62600, 1250.000
58.86400, 1301.000
60.10300, 1315.000
61.34100, 1372.000
62.57900, 1429.000
63.81700, 1471.000
65.05400, 1577.000
66.29200, 1703.000
67.52900, 1876.000
68.76700, 2334.000
70.00400, 2697.000
71.24100, 2998.000
72.47700, 3295.000
73.71400, 3716.000
74.95100, 4282.000
76.18700, 4916.000
77.42300, 5496.000
78.65900, 6243.000
79.89500, 7261.000
81.13100, 8538.000
82.36700, 10225.00
83.60200, 12296.00
84.83700, 14339.00
86.07200, 16678.00
87.30800, 19026.00
88.54200, 21257.00
89.77700, 22186.00
91.01200, 22289.00
92.24600, 20847.00
93.48000, 18741.00
94.71400, 16527.00
95.94800, 14716.00
97.18200, 13500.00
98.41600, 12431.00
99.64900, 10953.00
100.8830, 10233.00
102.1160, 9646.000
103.3490, 9132.000
104.5820, 9123.000
105.8150, 9316.000
107.0470, 10127.00
108.2800, 9588.677
109.5120, 10357.00
110.7440, 9037.000
111.9760, 8620.000
113.2080, 8590.000
114.4400, 8747.000
115.6710, 8703.000
116.9030, 8453.000
118.1340, 8313.000
119.3650, 8183.000
120.5960, 8106.000
121.8270, 8109.000
123.0580, 8062.897
124.2880, 8058.401
125.5190, 8101.000
126.7490, 8072.000
127.9790, 8148.000
129.2090, 8177.000
130.4390, 8232.000
131.6680, 8222.000
132.8980, 8232.000
134.1270, 8123.000
135.3560, 8150.000
136.5850, 8282.000
137.8140, 8294.000
139.0430, 8591.000
140.2710, 8639.000
141.5000, 8661.000
142.7280, 8656.000
143.9560, 8707.000
145.1840, 8830.000
146.4120, 8974.000
147.6390, 8954.000
148.8670, 9154.000
150.0940, 9285.000
151.3210, 9617.000
152.5490, 9823.000
153.7750, 9889.000
155.0020, 10278.00
156.2290, 10670.00
157.4550, 11100.00
158.6810, 11740.00
159.9080, 12679.00
161.1340, 13892.00
162.3590, 15339.41
163.5850, 17016.00
164.8110, 19078.00
166.0360, 21426.00
167.2610, 24019.00
168.4860, 26667.00
169.7110, 28982.00
170.9360, 30241.00
172.1610, 29982.00
173.3850, 27957.00
174.6100, 25483.00
175.8340, 22608.00
177.0580, 20097.00
178.2820, 18084.00
179.5050, 16464.00
180.7290, 15090.00
181.9520, 14040.00
183.1760, 13191.00
184.3990, 12719.00
185.6220, 12337.00
186.8450, 11932.00
188.0670, 11902.00
189.2900, 11634.00
190.5120, 11448.00
191.7340, 11254.00
192.9560, 11335.00
194.1780, 11397.00
195.4000, 11700.00
196.6220, 11857.00
197.8430, 12294.00
199.0640, 12333.00
200.2860, 12665.00
201.5070, 12702.00
202.7270, 12383.00
203.9480, 11930.00
205.1690, 11561.00
206.3890, 11276.00
207.6090, 11078.00
208.8290, 11086.00
210.0490, 11120.00
211.2690, 11211.00
212.4890, 11597.00
213.7080, 11830.00
214.9280, 12139.00
216.1470, 12790.00
217.3660, 13306.00
218.5850, 14119.00
219.8030, 14966.00
221.0220, 16173.00
222.2400, 17642.00
223.4590, 18996.00
224.6770, 20346.00
225.8950, 22005.00
227.1120, 22995.00
228.3300, 23342.00
229.5480, 23183.00
230.7650, 22632.00
231.9820, 21943.00
233.1990, 21444.00
234.4160, 21312.00
235.6330, 21204.00
236.8490, 21298.00
238.0660, 21873.00
239.2820, 21619.00
240.4980, 21156.00
241.7140, 19854.00
242.9300, 18221.00
244.1460, 16287.00
245.3610, 14873.00
246.5770, 13550.00
247.7920, 12830.00
249.0070, 12093.00
250.2220, 11590.00
251.4370, 11361.00
252.6510, 10995.00
253.8660, 10807.00
255.0800, 10879.00
256.2940, 10787.00
257.5080, 10956.00
258.7220, 10938.64
259.9360, 11299.00
261.1490, 11112.00
262.3630, 11190.00
263.5760, 11506.00
264.7890, 11960.00
266.0020, 12352.00
267.2150, 13197.00
268.4270, 14141.00
269.6400, 15426.00
270.8520, 16834.00
272.0640, 17811.00
273.2760, 18394.00
274.4880, 17765.00
275.7000, 16604.00
276.9120, 15005.00
278.1230, 13745.00
279.3340, 12842.00
280.5450, 12058.00
281.7560, 11741.00
282.9670, 11409.00
284.1780, 11484.00
285.3880, 11286.00
286.5980, 11275.00
287.8090, 11587.00
289.0190, 11834.00
290.2290, 12070.00
291.4380, 12301.00
292.6480, 12409.00
293.8570, 12395.00
295.0670, 12528.00
296.2760, 12296.00
297.4850, 12403.00
298.6930, 12182.00
299.9020, 12114.00
301.1110, 11951.00
302.3190, 11931.00
303.5270, 11817.00
304.7350, 11975.00
305.9430, 11903.00
307.1510, 11870.00
308.3580, 11718.00
309.5660, 11492.00
310.7730, 11522.00
311.9800, 11653.00
313.1870, 11565.00
314.3940, 11806.00
315.6010, 11773.83
316.8070, 11828.00
318.0130, 11814.00
319.2200, 11982.00
320.4260, 11999.00
321.6310, 12171.00
322.8370, 11988.00
324.0430, 12123.00
325.2480, 12173.00
326.4540, 12097.00
327.6590, 12349.00
328.8640, 12444.00
330.0680, 12662.00
331.2730, 12876.00
332.4780, 13064.00
333.6820, 13464.00
334.8860, 14045.00
336.0900, 14599.00
337.2940, 15588.00
338.4980, 16625.00
339.7010, 18215.00
340.9050, 19943.00
342.1080, 22080.00
343.3110, 24314.00
344.5140, 26303.00
345.7170, 28323.00
346.9200, 29284.00
348.1220, 29172.00
349.3240, 27992.00
350.5270, 25856.00
351.7290, 23628.00
352.9310, 21247.00
354.1320, 19190.00
355.3340, 17550.00
356.5350, 16109.00
357.7370, 15097.00
358.9380, 14188.00
360.1390, 13660.00
361.3400, 12963.00
362.5400, 12575.00
363.7410, 12097.00
364.9410, 11797.00
366.1410, 11621.00
367.3410, 11360.00
368.5410, 11020.00
369.7410, 10940.00
370.9400, 10756.00
372.1400, 10609.00
373.3390, 10641.00
374.5380, 10584.00
375.7370, 10685.00
376.9360, 10654.00
378.1350, 10982.00
379.3330, 11071.00
380.5310, 11603.00
381.7300, 11764.00
382.9280, 12421.00
384.1260, 12883.00
385.3230, 13338.00
386.5210, 13518.00
387.7180, 13463.00
388.9160, 13134.00
390.1130, 12782.00
391.3100, 12103.00
392.5060, 11645.00
393.7030, 11293.00
394.9000, 11206.00
396.0960, 11033.00
397.2920, 10899.00
398.4880, 10751.00
399.6840, 10707.00
400.8800, 10677.00
402.0750, 10681.00
403.2710, 10695.00
404.4660, 11029.00
405.6610, 10938.00
406.8560, 11206.00
408.0510, 11217.00
409.2450, 11603.00
410.4400, 11825.00
411.6340, 12386.00
412.8280, 12808.00
414.0220, 13388.00
415.2160, 13969.00
416.4100, 15189.00
417.6030, 16354.00
418.7970, 17720.00
419.9900, 19280.00
421.1830, 20795.00
422.3760, 22157.00
423.5690, 23243.00
424.7610, 25016.00
425.9540, 26572.00
427.1460, 29301.00
428.3380, 32798.00
429.5300, 36881.00
430.7220, 41203.00
431.9140, 44168.00
433.1050, 45082.00
434.2970, 43833.00
435.4880, 40641.00
436.6790, 36734.00
437.8700, 33364.00
439.0610, 31158.00
440.2510, 29320.00
441.4420, 28179.00
442.6320, 28194.00
443.8220, 28585.00
445.0120, 29181.00
446.2020, 30198.00
447.3910, 31043.00
448.5810, 31793.00
449.7700, 32004.00
450.9600, 32165.00
452.1490, 31954.00
453.3370, 31291.00
454.5260, 29790.00
455.7150, 27488.00
456.9030, 25187.00
458.0910, 23086.00
459.2800, 20741.00
460.4670, 18825.00
461.6550, 17483.00
462.8430, 16290.00
464.0300, 15168.00
465.2180, 14303.00
466.4050, 13648.00
467.5920, 13223.00
468.7790, 12668.00
469.9650, 12556.00
471.1520, 12226.00
472.3380, 11940.00
473.5250, 11806.00
474.7110, 11728.00
475.8970, 11635.00
477.0820, 11543.00
478.2680, 11442.00
479.4540, 11571.00
480.6390, 11626.00
481.8240, 11617.00
483.0090, 11733.00
484.1940, 12015.00
485.3780, 12309.00
486.5630, 12426.00
487.7470, 12860.00
488.9320, 13216.00
490.1160, 13763.00
491.3000, 14460.00
492.4830, 15185.00
493.6670, 16030.00
494.8500, 16901.00
496.0340, 17846.00
497.2170, 18456.00
498.4000, 18750.00
499.5820, 18876.00
500.7650, 19097.00
501.9480, 19024.00
503.1300, 19640.00
504.3120, 19992.00
505.4940, 20690.00
506.6760, 20623.00
507.8580, 19967.00
509.0390, 19014.00
510.2210, 17869.00
511.4020, 16454.00
512.5830, 15354.00
513.7640, 14421.00
514.9450, 13594.00
516.1250, 12929.00
517.3060, 12323.00
518.4860, 12094.00
519.6660, 11673.00
520.8460, 11340.00
522.0260, 11184.00
523.2060, 10973.00
524.3850, 10847.00
525.5650, 10769.00
526.7440, 10757.00
527.9230, 10691.00
529.1020, 10635.00
530.2810, 10707.00
531.4590, 10662.00
532.6380, 10777.00
533.8160, 10738.00
534.9940, 10781.00
536.1720, 10813.00
537.3500, 10825.00
538.5270, 10887.06
539.7050, 10991.00
540.8820, 11034.00
542.0590, 11143.00
543.2360, 11301.00
544.4130, 11410.00
545.5900, 11699.00
546.7660, 11669.00
547.9430, 12016.00
549.1190, 12122.00
550.2950, 12487.00
551.4710, 12799.00
552.6470, 13251.00
553.8220, 13926.00
554.9980, 14693.00
556.1730, 15651.00
557.3480, 16979.00
558.5230, 18611.00
559.6980, 20251.00
560.8730, 22077.00
562.0470, 23119.00
563.2220, 22877.00
564.3960, 21782.00
565.5700, 19947.00
566.7440, 18125.00
567.9170, 16928.00
569.0910, 16333.00
570.2640, 15785.00
571.4380, 15587.00
572.6110, 15775.00
573.7840, 16164.00
574.9570, 16501.00
576.1290, 17340.00
577.3020, 18187.00
578.4740, 19156.00
579.6460, 20587.00
580.8180, 21962.00
581.9900, 23583.00
583.1620, 25084.00
584.3330, 26430.00
585.5040, 27655.00
586.6760, 28894.00
587.8470, 30074.00
589.0180, 31649.00
590.1880, 33816.00
591.3590, 36186.00
592.5290, 38507.00
593.7000, 40386.00
594.8700, 41426.00
596.0400, 41455.00
597.2090, 40418.00
598.3790, 38450.00
599.5490, 36697.00
600.7180, 34761.00
601.8870, 32967.00
603.0560, 31654.00
604.2250, 31010.00
605.3940, 30670.00
606.5620, 30531.00
607.7300, 30585.00
608.8990, 30508.00
610.0670, 30712.00
611.2350, 30275.00
612.4020, 29311.00
613.5700, 27769.00
614.7370, 25933.00
615.9050, 24186.00
617.0720, 22362.00
618.2390, 20532.00
619.4060, 18992.00
620.5720, 17729.00
621.7390, 16563.00
622.9050, 15644.93
624.0710, 15216.00
625.2370, 14342.00
626.4030, 13819.00
627.5690, 13592.00
628.7340, 13150.00
629.9000, 12835.00
631.0650, 12696.00
632.2300, 12379.00
633.3950, 12099.00
634.5600, 11823.00
635.7240, 11798.00
636.8890, 11652.00
638.0530, 11479.00
639.2170, 11361.00
640.3810, 11348.00
641.5450, 11187.00
642.7080, 11084.35
643.8720, 11032.00
645.0350, 10837.00
646.1980, 10756.00
647.3610, 10680.00
648.5240, 10777.00
649.6870, 10456.00
650.8490, 10500.00
652.0120, 10430.00
653.1740, 10290.00
654.3360, 10327.00
655.4980, 10099.00
656.6600, 10113.00
657.8210, 10124.00
658.9830, 9985.000
660.1440, 10026.00
661.3050, 10082.00
662.4660, 10003.00
663.6270, 9950.000
664.7870, 9886.000
665.9480, 9877.000
667.1080, 9852.109
668.2680, 9879.000
669.4280, 9854.000
670.5880, 9863.979
671.7480, 9884.000
672.9070, 9853.000
674.0670, 9808.000
675.2260, 9785.000
676.3850, 9832.000
677.5440, 9769.000
678.7030, 9767.000
679.8610, 9681.000
681.0200, 9675.000
682.1780, 9669.000
683.3360, 9707.000
684.4940, 9674.000
685.6520, 9690.000
686.8090, 9640.000
687.9670, 9708.000
689.1240, 9789.000
690.2810, 9583.000
691.4380, 9701.000
692.5950, 9676.000
693.7520, 9752.000
694.9080, 9693.000
696.0650, 9639.000
697.2210, 9585.000
698.3770, 9547.405
699.5330, 9537.000
700.6880, 9541.000
701.8440, 9483.000
702.9990, 9609.000
704.1550, 9592.000
705.3100, 9567.000
706.4650, 9523.000
707.6190, 9543.000
708.7740, 9483.000
709.9290, 9537.000
711.0830, 9448.000
712.2370, 9509.000
713.3910, 9487.000
714.5450, 9519.000
715.6980, 9542.000
716.8520, 9509.000
718.0050, 9517.000
719.1580, 9493.000
720.3110, 9503.686
721.4640, 9576.000
722.6170, 9545.000
723.7700, 9557.000
724.9220, 9611.000
726.0740, 9485.000
727.2260, 9417.000
728.3780, 9438.000
729.5300, 9530.000
730.6810, 9379.000
731.8330, 9432.000
732.9840, 9400.000
734.1350, 9536.000
735.2860, 9453.000
736.4370, 9427.000
737.5880, 9412.000
738.7380, 9389.000
739.8880, 9514.000
741.0390, 9394.000
742.1890, 9569.000
743.3380, 9379.000
744.4880, 9320.000
745.6380, 9404.000
746.7870, 9451.000
747.9360, 9446.000
749.0850, 9425.000
750.2340, 9474.000
751.3830, 9457.194
752.5310, 9380.000
753.6800, 9456.000
754.8280, 9467.000
755.9760, 9446.000
757.1240, 9518.000
758.2720, 9473.000
759.4190, 9503.000
760.5670, 9524.000
761.7140, 9520.904
762.8610, 9507.000
764.0080, 9527.000
765.1550, 9595.000
766.3020, 9554.000
767.4480, 9570.188
768.5950, 9497.000
769.7410, 9556.000
770.8870, 9583.000
772.0330, 9612.000
773.1780, 9551.000
774.3240, 9626.000
775.4690, 9643.000
776.6140, 9712.000
777.7590, 9659.000
778.9040, 9666.000
780.0490, 9827.000
781.1940, 9572.000
782.3380, 9763.000
783.4820, 9726.000
784.6260, 9743.000
785.7700, 9891.000
786.9140, 9712.000
788.0580, 9808.000
789.2010, 9802.000
790.3450, 9812.000
791.4880, 9925.000
792.6310, 9901.000
793.7730, 9898.000
794.9160, 9828.000
796.0590, 9879.000
797.2010, 10057.00
798.3430, 9935.000
799.4850, 10062.00
800.6270, 10059.00
801.7690, 9978.000
802.9100, 10138.00
804.0520, 10103.00
805.1930, 10195.00
806.3340, 10078.00
807.4750, 10257.00
808.6160, 10270.00
809.7560, 10440.00
810.8970, 10389.00
812.0370, 10535.00
813.1770, 10695.00
814.3170, 10599.00
815.4570, 10811.00
816.5960, 10713.00
817.7360, 10903.00
818.8750, 11012.00
820.0140, 11171.00
821.1530, 11360.89
822.2920, 11586.00
823.4310, 11739.00
824.5690, 11990.00
825.7070, 12173.00
826.8460, 12395.00
827.9840, 12474.00
829.1220, 12499.00
830.2590, 12597.00
831.3970, 12624.52
832.5340, 12567.00
833.6710, 12697.00
834.8080, 12717.00
835.9450, 12749.19
837.0820, 12642.00
838.2190, 12778.00
839.3550, 12742.00
840.4910, 12736.00
841.6270, 12785.00
842.7630, 12816.50
843.8990, 12927.00
845.0350, 12978.00
846.1700, 13089.00
847.3060, 13234.05
848.4410, 13414.02
849.5760, 13658.00
850.7100, 13886.00
851.8450, 14180.00
852.9800, 14485.00
854.1140, 14785.00
855.2480, 15041.00
856.3820, 15360.00
857.5160, 15638.00
858.6500, 15909.00
859.7830, 16213.00
860.9170, 16481.00
862.0500, 16700.00
863.1830, 16856.00
864.3160, 16930.00
865.4480, 16901.00
866.5810, 17023.00
867.7130, 16975.00
868.8460, 17399.00
869.9780, 17648.00
871.1100, 17861.00
872.2410, 18409.00
873.3730, 18969.00
874.5050, 19706.00
875.6360, 20466.74
876.7670, 21500.00
877.8980, 22275.00
879.0290, 23252.00
880.1590, 24374.00
881.2900, 25205.00
882.4200, 25449.00
883.5500, 26044.00
884.6800, 26362.00
885.8100, 26162.00
886.9400, 25645.00
888.0690, 25170.00
889.1990, 24954.00
890.3280, 24861.00
891.4570, 24686.00
892.5860, 24538.00
893.7140, 24780.00
894.8430, 25306.00
895.9710, 26205.00
897.1000, 27055.00
898.2280, 28139.00
899.3560, 29363.00
900.4830, 30945.00
901.6110, 32471.00
902.7380, 34572.00
903.8660, 37184.00
904.9930, 39635.00
906.1200, 42733.00
907.2460, 45493.00
908.3730, 49237.00
909.5000, 52843.00
910.6260, 56142.00
911.7520, 58640.00
912.8780, 60999.00
914.0040, 61425.00
915.1290, 60790.00
916.2550, 58260.00
917.3800, 55030.00
918.5050, 50692.00
919.6300, 46308.00
920.7550, 41887.00
921.8800, 37933.00
923.0040, 34228.00
924.1290, 31192.00
925.2530, 28488.00
926.3770, 26256.00
927.5010, 24383.00
928.6250, 22532.00
929.7480, 21199.00
930.8720, 20063.00
931.9950, 19285.00
933.1180, 18381.00
934.2410, 17616.00
935.3640, 16892.00
936.4860, 16345.53
937.6090, 15967.00
938.7310, 15504.00
939.8530, 15133.00
940.9750, 14876.00
942.0970, 14461.00
943.2180, 14242.00
944.3400, 14102.00
945.4610, 13964.00
946.5820, 13666.00
947.7030, 13679.00
948.8240, 13472.00
949.9450, 13262.00
951.0650, 13236.00
952.1860, 13132.00
953.3060, 12997.00
954.4260, 13070.00
955.5460, 12904.00
956.6650, 12760.00
957.7850, 12828.00
958.9040, 12925.00
960.0230, 12638.00
961.1420, 12867.00
962.2610, 12703.00
963.3800, 12726.00
964.4990, 12588.00
965.6170, 12661.00
966.7350, 12702.00
967.8530, 12832.00
968.9710, 12918.00
970.0890, 12950.00
971.2070, 13176.00
972.3240, 13314.00
973.4410, 13376.00
974.5580, 13522.00
975.6750, 13646.00
976.7920, 13818.00
977.9090, 13739.00
979.0250, 13527.00
980.1410, 13326.00
981.2580, 13067.00
982.3740, 12751.00
983.4890, 12531.00
984.6050, 12417.00
985.7200, 12133.00
986.8360, 12131.00
987.9510, 12003.00
989.0660, 11987.00
990.1810, 11980.00
991.2950, 11854.00
992.4100, 11791.00
993.5240, 11865.00
994.6390, 11748.00
995.7530, 11686.00
996.8660, 11865.00
997.9800, 11738.00
999.0940, 11869.00
1000.207, 11772.00
1001.320, 11917.00
1002.433, 11741.00
1003.546, 11706.00
1004.659, 11880.00
1005.772, 11853.00
1006.884, 11881.00
1007.996, 12073.00
1009.108, 12288.00
1010.220, 12267.00
1011.332, 12539.00
1012.444, 12623.00
1013.555, 12964.00
1014.666, 13217.00
1015.777, 13397.00
1016.888, 13398.00
1017.999, 13274.00
1019.110, 13362.00
1020.220, 13131.00
1021.331, 12984.00
1022.441, 12796.00
1023.551, 12718.57
1024.661, 12722.00
1025.770, 12617.00
1026.880, 12755.00
1027.989, 12742.00
1029.098, 12786.00
1030.207, 12810.00
1031.316, 12993.00
1032.425, 13037.00
1033.533, 13057.00
1034.642, 13319.00
1035.750, 13358.00
1036.858, 13580.00
1037.966, 13493.00
1039.073, 13458.00
1040.181, 13563.00
1041.288, 13446.00
1042.396, 13441.00
1043.503, 13227.00
1044.610, 13117.00
1045.716, 13086.00
1046.823, 12965.00
1047.929, 12843.00
1049.036, 12687.00
1050.142, 12721.00
1051.248, 12536.00
1052.353, 12710.00
1053.459, 12572.00
1054.564, 12562.00
1055.670, 12514.00
1056.775, 12463.08
1057.880, 12487.00
1058.985, 12395.00
1060.089, 12369.00
1061.194, 12307.00
1062.298, 12256.00
1063.402, 12279.83
1064.506, 12391.00
1065.610, 12353.00
1066.713, 12479.00
1067.817, 12566.00
1068.920, 12580.00
1070.023, 12811.00
1071.126, 13040.00
1072.229, 13172.00
1073.332, 13617.00
1074.435, 13863.00
1075.537, 14515.00
1076.639, 15060.00
1077.741, 15947.00
1078.843, 16986.00
1079.945, 18143.00
1081.046, 19365.00
1082.148, 20554.00
1083.249, 21401.00
1084.350, 21434.00
1085.451, 20506.00
1086.551, 19625.00
1087.652, 18285.00
1088.752, 16971.00
1089.853, 15923.00
1090.953, 15007.00
1092.053, 14319.00
1093.152, 13701.00
1094.252, 13301.04
1095.351, 13053.29
1096.451, 12816.00
1097.550, 12789.00
1098.649, 12648.00
1099.748, 12361.00
1100.846, 12170.00
1101.945, 12210.00
1103.043, 12224.00
1104.141, 12108.00
1105.239, 12113.00
1106.337, 12084.00
1107.434, 11950.00
1108.532, 11946.00
1109.629, 11939.93
1110.726, 11831.00
1111.823, 11984.00
1112.920, 11914.00
1114.017, 11923.00
1115.113, 11899.00
1116.210, 12025.00
1117.306, 12023.00
1118.402, 12221.00
1119.498, 12104.00
1120.593, 12245.00
1121.689, 12213.00
1122.784, 12359.00
1123.879, 12104.00
1124.974, 12197.00
1126.069, 12065.00
1127.164, 11852.00
1128.259, 11662.00
1129.353, 11711.00
1130.447, 11712.00
1131.541, 11640.00
1132.635, 11603.00
1133.729, 11575.41
1134.822, 11511.60
1135.916, 11535.00
1137.009, 11465.00
1138.102, 11498.00
1139.195, 11605.00
1140.288, 11410.00
1141.380, 11488.00
1142.473, 11619.00
1143.565, 11470.00
1144.657, 11500.00
1145.749, 11558.00
1146.841, 11482.00
1147.932, 11457.00
1149.024, 11493.00
1150.115, 11586.00
1151.206, 11356.00
1152.297, 12062.00
1153.388, 12614.00
1154.479, 11929.00
1155.569, 11358.00
1156.659, 11431.00
1157.750, 11445.00
1158.839, 11463.00
1159.929, 11515.00
1161.019, 11469.00
1162.108, 11418.00
1163.198, 11474.00
1164.287, 11504.00
1165.376, 11491.95
1166.465, 11578.00
1167.553, 11512.87
1168.642, 11540.00
1169.730, 11574.00
1170.818, 11464.00
1171.906, 11516.00
1172.994, 11372.00
1174.082, 11479.00
1175.170, 11569.00
1176.257, 11395.00
1177.344, 11517.00
1178.431, 11600.00
1179.518, 11473.00
1180.605, 11550.00
1181.691, 11660.00
1182.778, 11399.00
1183.864, 11528.00
1184.950, 11541.00
1186.036, 11619.00
1187.122, 11524.00
1188.207, 11577.00
1189.292, 11548.00
1190.378, 11526.00
1191.463, 11587.00
1192.548, 11576.00
1193.632, 11559.53
1194.717, 11496.00
1195.801, 11526.00
1196.886, 11411.00
1197.970, 11423.00
1199.054, 11480.00
1200.137, 11468.00
1201.221, 11431.00
1202.305, 11484.12
1203.388, 11517.00
1204.471, 11523.00
1205.554, 11410.00
1206.637, 11376.00
1207.719, 11519.00
1208.802, 11430.00
1209.884, 11490.00
1210.966, 11466.00
1212.048, 11358.00
1213.130, 11544.00
1214.212, 11380.00
1215.293, 11372.00
1216.374, 11380.00
1217.456, 11445.00
1218.536, 11457.00
1219.617, 11383.00
1220.698, 11329.00
1221.778, 11488.00
1222.859, 11385.00
1223.939, 11508.00
1225.019, 11574.00
1226.099, 11338.00
1227.178, 11252.00
1228.258, 11362.00
1229.337, 11497.00
1230.417, 11358.00
1231.496, 11271.00
1232.574, 11414.00
1233.653, 11428.00
1234.732, 11300.00
1235.810, 11276.00
1236.888, 11348.00
1237.966, 11213.00
1239.044, 11347.00
1240.122, 11354.00
1241.199, 11343.00
1242.277, 11319.00
1243.354, 11403.00
1244.431, 11391.00
1245.508, 11320.00
1246.585, 11239.00
1247.661, 11251.35
1248.738, 11247.00
1249.814, 11272.00
1250.890, 11301.00
1251.966, 11289.11
1253.042, 11180.00
1254.117, 11260.00
1255.193, 11222.00
1256.268, 11165.00
1257.343, 11286.00
1258.418, 11241.00
1259.493, 11195.00
1260.567, 11261.00
1261.642, 11293.00
1262.716, 11285.00
1263.790, 11205.00
1264.864, 11293.00
1265.938, 11356.00
1267.011, 11292.89
1268.085, 11376.00
1269.158, 11266.00
1270.231, 11267.00
1271.304, 11351.00
1272.377, 11302.00
1273.450, 11294.00
1274.522, 11362.00
1275.594, 11276.00
1276.666, 11346.00
1277.738, 11419.00
1278.810, 11296.00
1279.882, 11400.00
1280.953, 11235.00
1282.025, 11504.00
1283.096, 11351.00
1284.167, 11408.00
1285.238, 11384.00
1286.308, 11254.00
1287.379, 11336.00
1288.449, 11389.00
1289.519, 11285.00
1290.589, 11257.00
1291.659, 11355.00
1292.729, 11411.00
1293.798, 11438.00
1294.868, 11414.00
1295.937, 11423.94
1297.006, 11360.00
1298.075, 11390.00
1299.143, 11343.00
1300.212, 11340.00
1301.280, 11410.00
1302.348, 11392.00
1303.416, 11205.00
1304.484, 11353.00
1305.552, 11277.00
1306.620, 11315.00
1307.687, 11322.00
1308.754, 11428.00
1309.821, 11353.00
1310.888, 11251.00
1311.955, 11418.00
1313.021, 11277.00
1314.088, 11385.00
1315.154, 11348.00
1316.220, 11335.00
1317.286, 11394.00
1318.352, 11453.00
1319.417, 11387.00
1320.483, 11295.00
1321.548, 11340.00
1322.613, 11254.00
1323.678, 11370.00
1324.743, 11219.00
1325.807, 11345.00
1326.872, 11350.00
1327.936, 11332.00
1329.000, 11533.00
1330.064, 11377.00
1331.128, 11426.00
1332.191, 11438.00
1333.255, 11373.00
1334.318, 11517.00
1335.381, 11340.00
1336.444, 11309.00
1337.507, 11458.00
1338.569, 11402.00
1339.632, 11427.00
1340.694, 11476.00
1341.756, 11412.00
1342.818, 11445.00
1343.880, 11435.23
1344.941, 11373.00
1346.003, 11463.00
1347.064, 11478.00
1348.125, 11573.00
1349.186, 11450.00
1350.247, 11561.00
1351.308, 11577.00
1352.368, 11557.00
1353.428, 11604.00
1354.489, 11431.00
1355.549, 11494.00
1356.608, 11474.00
1357.668, 11579.00
1358.727, 11498.00
1359.787, 11508.00
1360.846, 11527.00
1361.905, 11543.00
1362.964, 11579.00
1364.022, 11562.00
1365.081, 11611.00
1366.139, 11608.78
1367.197, 11536.00
1368.255, 11576.00
1369.313, 11556.15
1370.371, 11649.00
1371.428, 11577.00
1372.486, 11566.00
1373.543, 11598.00
1374.600, 11493.00
1375.657, 11536.00
1376.713, 11620.00
1377.770, 11594.00
1378.826, 11585.00
1379.882, 11677.00
1380.938, 11689.00
1381.994, 11682.00
1383.050, 11618.00
1384.106, 11581.00
1385.161, 11555.00
1386.216, 11644.00
1387.271, 11745.00
1388.326, 11610.00
1389.381, 11606.00
1390.435, 11532.00
1391.490, 11607.00
1392.544, 11571.00
1393.598, 11544.00
1394.652, 11662.00
1395.705, 11583.00
1396.759, 11614.00
1397.812, 11534.00
1398.866, 11669.00
1399.919, 11627.00
1400.972, 11693.00
1402.024, 11716.00
1403.077, 11612.00
1404.129, 11779.00
1405.181, 11661.00
1406.233, 11714.00
1407.285, 11666.00
1408.337, 11706.00
1409.389, 11627.00
1410.440, 11749.00
1411.491, 11637.00
1412.542, 11765.00
1413.593, 11671.00
1414.644, 11671.00
1415.695, 11521.00
1416.745, 11710.00
1417.795, 11731.00
1418.845, 11674.00
1419.895, 11809.00
1420.945, 11758.00
1421.995, 11759.00
1423.044, 11769.00
1424.093, 11753.00
1425.142, 11761.00
1426.191, 11763.16
1427.240, 11771.00
1428.289, 11787.00
1429.337, 11781.00
1430.385, 11823.00
1431.433, 11784.00
1432.481, 11822.00
1433.529, 11916.00
1434.577, 11837.00
1435.624, 11771.00
1436.672, 11882.00
1437.719, 11835.00
1438.766, 11949.00
1439.812, 11930.00
1440.859, 11984.00
1441.905, 11760.00
1442.952, 12034.00
1443.998, 12032.00
1445.044, 11838.00
1446.090, 12035.00
1447.135, 12017.00
1448.181, 11881.00
1449.226, 12010.00
1450.271, 11955.00
1451.316, 12191.00
1452.361, 12092.00
1453.405, 11958.00
1454.450, 11856.00
1455.494, 11952.00
1456.538, 12000.00
1457.582, 11907.00
1458.626, 12064.00
1459.670, 12043.00
1460.713, 12117.00
1461.757, 11928.00
1462.800, 11975.00
1463.843, 12026.00
1464.886, 11969.00
1465.928, 12011.00
1466.971, 12025.00
1468.013, 12079.00
1469.055, 12074.00
1470.097, 12046.00
1471.139, 11997.00
1472.181, 12027.00
1473.222, 12012.00
1474.263, 12046.00
1475.305, 12058.00
1476.346, 12080.00
1477.386, 12041.00
1478.427, 12038.00
1479.468, 11962.00
1480.508, 12084.00
1481.548, 11906.00
1482.588, 12048.00
1483.628, 12061.00
1484.668, 12055.00
1485.707, 12009.00
1486.747, 11967.00
1487.786, 11958.00
1488.825, 11989.00
1489.864, 12083.00
1490.902, 12143.00
1491.941, 12050.00
1492.979, 11877.00
1494.017, 12013.00
1495.055, 12068.00
1496.093, 12175.00
1497.131, 12159.00
1498.168, 12017.00
1499.206, 12052.00
1500.243, 12146.00
1501.280, 11989.00
1502.317, 12120.00
1503.354, 12027.00
1504.390, 12021.00
1505.426, 12074.00
1506.463, 11995.00
1507.499, 11985.00
1508.535, 12065.00
1509.570, 11957.00
1510.606, 12148.00
1511.641, 12156.00
1512.676, 12106.00
1513.711, 11993.00
1514.746, 12018.00
1515.781, 12141.00
1516.816, 11981.00
1517.850, 11938.00
1518.884, 12109.00
1519.918, 12036.00
1520.952, 12067.00
1521.986, 12069.00
1523.019, 12040.00
1524.053, 12082.00
1525.086, 12005.00
1526.119, 11979.00
1527.152, 12123.00
1528.185, 12020.00
1529.217, 12096.00
1530.250, 12052.00
1531.282, 12000.00
1532.314, 12163.00
1533.346, 12072.00
1534.377, 11903.00
1535.409, 11887.00
1536.440, 11954.00
1537.472, 12028.00
1538.503, 11975.00
1539.534, 12069.99
1540.564, 12031.00
1541.595, 12120.00
1542.625, 12053.00
1543.656, 11948.00
1544.686, 12035.00
1545.716, 12028.00
1546.745, 12072.00
1547.775, 12002.00
1548.804, 11939.00
1549.834, 12099.00
1550.863, 11994.00
1551.892, 12031.00
1552.920, 12270.00
1553.949, 12204.00
1554.977, 12128.00
1556.006, 12056.00
1557.034, 12123.00
1558.062, 11896.00
1559.089, 12108.00
1560.117, 11999.00
1561.144, 12096.00
1562.172, 12034.00
1563.199, 12133.00
1564.226, 12060.00
1565.252, 12138.00
1566.279, 12095.00
1567.305, 12118.00
1568.332, 12195.00
1569.358, 12058.00
1570.384, 12112.00
1571.409, 11977.00
1572.435, 12184.00
##END=



