##NAMES=Epididymite
##RRUFFID=R060773
##IDEAL CHEMISTRY=Na_2_Be_2_Si_6_O_15_&#183;H_2_O
##LOCALITY=unknown
##OWNER=RRUFF
##SOURCE=Michael Scott
##DESCRIPTION=Colorless platy crystals forming a pseudohexagonal aggregate
##STATUS=The identification of this mineral has been confirmed by single-crystal X-ray diffraction.
##URL=rruff.info/R060773
##PIN_ID=M00206
##ORIENTATION=Laser parallel to a* (1 0 0). Fiducial mark perpendicular to laser is parallel to b [0 1 0]
102.1160, 20102.00
103.3490, 20280.00
104.5820, 20695.00
105.8150, 20795.00
107.0470, 21299.00
108.2800, 21730.00
109.5120, 22056.00
110.7440, 21818.00
111.9760, 22345.00
113.2080, 22569.00
114.4400, 22989.00
115.6710, 23399.00
116.9030, 23840.00
118.1340, 24243.45
119.3650, 24534.00
120.5960, 25064.00
121.8270, 25544.00
123.0580, 25958.00
124.2880, 25858.00
125.5190, 25519.00
126.7490, 25382.00
127.9790, 25187.00
129.2090, 25044.00
130.4390, 24909.88
131.6680, 25091.00
132.8980, 24609.00
134.1270, 24506.00
135.3560, 24255.00
136.5850, 23340.00
137.8140, 22727.00
139.0430, 22036.00
140.2710, 21533.00
141.5000, 21053.00
142.7280, 21066.00
143.9560, 20812.00
145.1840, 20916.00
146.4120, 20908.00
147.6390, 20966.00
148.8670, 20886.52
150.0940, 20846.00
151.3210, 20691.00
152.5490, 20495.00
153.7750, 20405.00
155.0020, 20049.00
156.2290, 19700.00
157.4550, 19647.00
158.6810, 19508.00
159.9080, 19361.00
161.1340, 19350.00
162.3590, 19146.00
163.5850, 19350.00
164.8110, 19557.00
166.0360, 19312.00
167.2610, 19668.00
168.4860, 19347.00
169.7110, 19418.00
170.9360, 19260.00
172.1610, 19279.00
173.3850, 19181.00
174.6100, 19162.00
175.8340, 19342.00
177.0580, 19269.00
178.2820, 19194.00
179.5050, 19431.00
180.7290, 19472.00
181.9520, 19645.00
183.1760, 19631.00
184.3990, 19810.00
185.6220, 20055.00
186.8450, 20149.00
188.0670, 20233.00
189.2900, 20570.00
190.5120, 20540.00
191.7340, 20839.00
192.9560, 20768.00
194.1780, 20988.00
195.4000, 21138.00
196.6220, 21090.00
197.8430, 21048.00
199.0640, 21164.00
200.2860, 20967.00
201.5070, 21023.00
202.7270, 20830.00
203.9480, 20472.00
205.1690, 20387.00
206.3890, 19989.00
207.6090, 20050.00
208.8290, 19837.00
210.0490, 19867.00
211.2690, 19862.00
212.4890, 19905.00
213.7080, 19966.27
214.9280, 20127.00
216.1470, 20105.00
217.3660, 20323.00
218.5850, 20377.00
219.8030, 20512.00
221.0220, 20777.00
222.2400, 20832.00
223.4590, 21023.00
224.6770, 21395.00
225.8950, 21831.00
227.1120, 22209.00
228.3300, 22782.00
229.5480, 23285.00
230.7650, 24156.00
231.9820, 24799.00
233.1990, 25558.00
234.4160, 26238.00
235.6330, 26916.00
236.8490, 27268.00
238.0660, 27463.00
239.2820, 27753.00
240.4980, 27589.00
241.7140, 27462.00
242.9300, 27077.00
244.1460, 26514.00
245.3610, 25760.00
246.5770, 24982.00
247.7920, 24488.00
249.0070, 23721.00
250.2220, 23099.00
251.4370, 22824.00
252.6510, 22511.00
253.8660, 22014.00
255.0800, 21836.00
256.2940, 21626.00
257.5080, 21524.00
258.7220, 21586.00
259.9360, 21445.00
261.1490, 21246.00
262.3630, 20960.00
263.5760, 20908.00
264.7890, 20946.00
266.0020, 20701.00
267.2150, 20649.00
268.4270, 20736.00
269.6400, 20512.00
270.8520, 20377.00
272.0640, 20386.00
273.2760, 20468.00
274.4880, 20612.00
275.7000, 20568.00
276.9120, 20382.00
278.1230, 20453.00
279.3340, 20412.00
280.5450, 20385.00
281.7560, 20373.88
282.9670, 20530.00
284.1780, 20403.00
285.3880, 20364.00
286.5980, 20610.00
287.8090, 20302.00
289.0190, 20340.00
290.2290, 20276.00
291.4380, 19998.00
292.6480, 20215.00
293.8570, 20027.00
295.0670, 20057.00
296.2760, 20187.00
297.4850, 20151.00
298.6930, 20267.00
299.9020, 20039.00
301.1110, 20047.00
302.3190, 20125.00
303.5270, 20269.00
304.7350, 20149.00
305.9430, 20109.00
307.1510, 20182.00
308.3580, 20394.00
309.5660, 20256.00
310.7730, 20359.00
311.9800, 20352.00
313.1870, 20370.00
314.3940, 20420.00
315.6010, 20563.00
316.8070, 20691.00
318.0130, 20536.00
319.2200, 20703.00
320.4260, 20988.00
321.6310, 20871.00
322.8370, 21011.00
324.0430, 20998.00
325.2480, 21197.00
326.4540, 21286.00
327.6590, 21168.00
328.8640, 21269.00
330.0680, 21422.00
331.2730, 21263.00
332.4780, 21602.00
333.6820, 21380.00
334.8860, 21760.00
336.0900, 21485.00
337.2940, 21576.00
338.4980, 21345.00
339.7010, 21435.00
340.9050, 21367.00
342.1080, 21250.00
343.3110, 21489.00
344.5140, 21360.00
345.7170, 21370.00
346.9200, 21406.00
348.1220, 21434.00
349.3240, 21519.00
350.5270, 21393.00
351.7290, 21455.00
352.9310, 21390.00
354.1320, 21235.00
355.3340, 21546.00
356.5350, 21171.00
357.7370, 21274.00
358.9380, 21383.00
360.1390, 21500.00
361.3400, 21478.00
362.5400, 21470.00
363.7410, 21555.00
364.9410, 21478.92
366.1410, 21465.00
367.3410, 21406.00
368.5410, 21684.00
369.7410, 21714.00
370.9400, 22075.00
372.1400, 22092.00
373.3390, 22089.00
374.5380, 22471.00
375.7370, 22418.00
376.9360, 22707.00
378.1350, 22910.00
379.3330, 22993.00
380.5310, 23238.00
381.7300, 23324.00
382.9280, 23166.00
384.1260, 23335.00
385.3230, 23171.00
386.5210, 23343.00
387.7180, 23077.00
388.9160, 23300.00
390.1130, 23185.00
391.3100, 23392.00
392.5060, 23325.00
393.7030, 23738.00
394.9000, 23905.00
396.0960, 24610.00
397.2920, 25882.00
398.4880, 27164.00
399.6840, 28384.00
400.8800, 29372.00
402.0750, 30207.00
403.2710, 30890.00
404.4660, 31738.00
405.6610, 32105.00
406.8560, 31968.00
408.0510, 31545.00
409.2450, 30997.00
410.4400, 29804.00
411.6340, 28204.00
412.8280, 26477.00
414.0220, 24663.00
415.2160, 23830.00
416.4100, 23339.00
417.6030, 23043.00
418.7970, 22853.00
419.9900, 22560.00
421.1830, 22431.00
422.3760, 22559.00
423.5690, 22561.00
424.7610, 22424.00
425.9540, 22632.00
427.1460, 22735.00
428.3380, 22566.00
429.5300, 22700.00
430.7220, 23009.00
431.9140, 22985.00
433.1050, 22952.00
434.2970, 23080.00
435.4880, 23052.00
436.6790, 22858.00
437.8700, 22957.00
439.0610, 22807.00
440.2510, 22776.00
441.4420, 22371.00
442.6320, 22758.00
443.8220, 22768.00
445.0120, 22517.00
446.2020, 22702.00
447.3910, 22810.00
448.5810, 22918.00
449.7700, 22974.00
450.9600, 23040.00
452.1490, 23139.65
453.3370, 23183.00
454.5260, 23376.00
455.7150, 23442.00
456.9030, 23672.00
458.0910, 23651.00
459.2800, 23876.00
460.4670, 24114.00
461.6550, 24343.00
462.8430, 24879.00
464.0300, 25147.00
465.2180, 26284.00
466.4050, 27293.00
467.5920, 28132.00
468.7790, 29012.00
469.9650, 29833.00
471.1520, 30507.00
472.3380, 31287.00
473.5250, 31929.00
474.7110, 32158.00
475.8970, 32191.35
477.0820, 31790.00
478.2680, 31385.00
479.4540, 30743.00
480.6390, 29618.00
481.8240, 28956.00
483.0090, 28240.00
484.1940, 27865.00
485.3780, 27607.00
486.5630, 27147.00
487.7470, 26900.00
488.9320, 26452.00
490.1160, 26174.00
491.3000, 25639.00
492.4830, 25526.00
493.6670, 25303.00
494.8500, 25257.00
496.0340, 25347.00
497.2170, 25441.00
498.4000, 25827.00
499.5820, 25976.00
500.7650, 26251.00
501.9480, 26928.00
503.1300, 27621.00
504.3120, 28209.00
505.4940, 29790.00
506.6760, 31301.00
507.8580, 34149.00
509.0390, 37499.00
510.2210, 41978.00
511.4020, 46411.00
512.5830, 50421.00
513.7640, 54311.00
514.9450, 57241.00
516.1250, 60179.00
517.3060, 61532.00
518.4860, 61688.00
519.6660, 60799.00
520.8460, 58294.00
522.0260, 54300.00
523.2060, 49558.00
524.3850, 44125.00
525.5650, 39333.00
526.7440, 35413.00
527.9230, 32763.00
529.1020, 30826.00
530.2810, 29699.00
531.4590, 28655.00
532.6380, 27925.00
533.8160, 27370.00
534.9940, 27038.00
536.1720, 26529.00
537.3500, 26468.00
538.5270, 26018.00
539.7050, 26045.00
540.8820, 25913.00
542.0590, 25945.00
543.2360, 25714.00
544.4130, 25608.00
545.5900, 25305.00
546.7660, 25272.02
547.9430, 25317.00
549.1190, 25147.00
550.2950, 25232.00
551.4710, 25149.00
552.6470, 25249.00
553.8220, 25275.00
554.9980, 25391.00
556.1730, 25381.35
557.3480, 25407.05
558.5230, 25380.00
559.6980, 25374.00
560.8730, 25393.98
562.0470, 25318.00
563.2220, 25349.00
564.3960, 25433.00
565.5700, 25431.00
566.7440, 25756.00
567.9170, 25620.00
569.0910, 25823.00
570.2640, 25772.00
571.4380, 25934.00
572.6110, 26120.00
573.7840, 26163.00
574.9570, 26509.00
576.1290, 26777.00
577.3020, 27144.00
578.4740, 27531.00
579.6460, 27645.00
580.8180, 28154.00
581.9900, 28038.00
583.1620, 28317.00
584.3330, 28223.00
585.5040, 28129.00
586.6760, 28002.00
587.8470, 27727.00
589.0180, 27643.00
590.1880, 27217.00
591.3590, 26900.00
592.5290, 26903.00
593.7000, 26772.00
594.8700, 26692.00
596.0400, 26522.00
597.2090, 26506.00
598.3790, 26621.00
599.5490, 26374.00
600.7180, 26606.00
601.8870, 26360.00
603.0560, 26424.00
604.2250, 26398.00
605.3940, 26432.00
606.5620, 26502.00
607.7300, 26221.00
608.8990, 26502.00
610.0670, 26503.00
611.2350, 26350.00
612.4020, 26540.00
613.5700, 26422.00
614.7370, 26520.00
615.9050, 26671.00
617.0720, 26972.00
618.2390, 27291.00
619.4060, 27267.00
620.5720, 27665.00
621.7390, 27769.00
622.9050, 28191.00
624.0710, 28441.00
625.2370, 28514.00
626.4030, 28659.00
627.5690, 28805.00
628.7340, 28605.00
629.9000, 28685.00
631.0650, 28247.00
632.2300, 28045.00
633.3950, 27970.00
634.5600, 27720.00
635.7240, 27512.00
636.8890, 27580.00
638.0530, 27454.00
639.2170, 27181.00
640.3810, 27434.00
641.5450, 27517.00
642.7080, 27726.00
643.8720, 27711.00
645.0350, 27953.00
646.1980, 28217.00
647.3610, 28428.00
648.5240, 28134.00
649.6870, 28188.00
650.8490, 28139.00
652.0120, 28079.00
653.1740, 28151.00
654.3360, 27949.00
655.4980, 27736.00
656.6600, 27742.00
657.8210, 27565.00
658.9830, 27360.00
660.1440, 26998.00
661.3050, 27054.00
662.4660, 26959.00
663.6270, 26945.00
664.7870, 27103.00
665.9480, 26718.00
667.1080, 27077.00
668.2680, 26730.00
669.4280, 26808.00
670.5880, 26849.00
671.7480, 26927.00
672.9070, 26826.00
674.0670, 26966.00
675.2260, 26839.00
676.3850, 26806.00
677.5440, 26925.00
678.7030, 26716.00
679.8610, 26759.00
681.0200, 26776.00
682.1780, 26818.00
683.3360, 26931.00
684.4940, 26813.00
685.6520, 26732.00
686.8090, 26942.00
687.9670, 26815.00
689.1240, 26991.00
690.2810, 26907.00
691.4380, 26894.00
692.5950, 26971.00
693.7520, 26876.00
694.9080, 27058.00
696.0650, 26762.00
697.2210, 27011.00
698.3770, 26899.00
699.5330, 27065.00
700.6880, 27223.00
701.8440, 27227.00
702.9990, 27182.00
704.1550, 27189.00
705.3100, 27205.00
706.4650, 27104.00
707.6190, 27093.00
708.7740, 27139.00
709.9290, 27340.00
711.0830, 27237.00
712.2370, 27306.00
713.3910, 27495.00
714.5450, 27303.00
715.6980, 27578.00
716.8520, 27342.00
718.0050, 27574.00
719.1580, 27494.00
720.3110, 27785.00
721.4640, 27518.00
722.6170, 27875.00
723.7700, 27806.00
724.9220, 27857.00
726.0740, 28083.00
727.2260, 27858.00
728.3780, 28135.00
729.5300, 28230.00
730.6810, 28314.00
731.8330, 28213.00
732.9840, 28240.00
734.1350, 28393.00
735.2860, 28253.00
736.4370, 28263.00
737.5880, 28319.00
738.7380, 28329.00
739.8880, 28262.00
741.0390, 28316.00
742.1890, 28351.66
743.3380, 28388.00
744.4880, 28528.00
745.6380, 28542.00
746.7870, 28713.00
747.9360, 28826.00
749.0850, 28779.00
750.2340, 28702.00
751.3830, 28866.00
752.5310, 28885.00
753.6800, 29126.00
754.8280, 28935.00
755.9760, 28910.00
757.1240, 29032.00
758.2720, 29077.00
759.4190, 29249.00
760.5670, 29254.11
761.7140, 28937.00
762.8610, 29291.00
764.0080, 29114.00
765.1550, 29103.00
766.3020, 29289.00
767.4480, 29070.00
768.5950, 29054.00
769.7410, 29172.00
770.8870, 29270.00
772.0330, 29476.00
773.1780, 29446.00
774.3240, 29231.00
775.4690, 29476.00
776.6140, 29361.00
777.7590, 29278.00
778.9040, 29392.00
780.0490, 29550.00
781.1940, 29588.00
782.3380, 29254.00
783.4820, 29587.00
784.6260, 29587.00
785.7700, 29515.00
786.9140, 29768.00
788.0580, 29602.00
789.2010, 29756.00
790.3450, 29633.00
791.4880, 29534.00
792.6310, 30064.00
793.7730, 30099.00
794.9160, 30096.00
796.0590, 30135.00
797.2010, 30117.00
798.3430, 30164.96
799.4850, 30300.00
800.6270, 30228.00
801.7690, 30297.00
802.9100, 30285.86
804.0520, 30489.00
805.1930, 30381.00
806.3340, 30622.00
807.4750, 30672.00
808.6160, 30701.00
809.7560, 30771.00
810.8970, 30716.00
812.0370, 30805.44
813.1770, 30877.87
814.3170, 30962.00
815.4570, 31087.00
816.5960, 31252.00
817.7360, 31380.00
818.8750, 31340.92
820.0140, 31327.86
821.1530, 31245.00
822.2920, 31167.00
823.4310, 31192.00
824.5690, 31228.00
825.7070, 31449.00
826.8460, 31188.00
827.9840, 31325.00
829.1220, 31216.00
830.2590, 31441.00
831.3970, 31286.00
832.5340, 31261.00
833.6710, 31522.00
834.8080, 31323.00
835.9450, 31548.00
837.0820, 31491.00
838.2190, 31480.00
839.3550, 31635.00
840.4910, 31911.00
841.6270, 31881.00
842.7630, 32086.00
843.8990, 31950.00
845.0350, 32228.00
846.1700, 32326.00
847.3060, 32335.00
848.4410, 32546.00
849.5760, 32455.00
850.7100, 32607.00
851.8450, 32678.00
852.9800, 32855.00
854.1140, 33080.00
855.2480, 33412.00
856.3820, 33548.43
857.5160, 33505.00
858.6500, 33897.00
859.7830, 34063.00
860.9170, 34208.00
862.0500, 33975.00
863.1830, 33962.00
864.3160, 33761.00
865.4480, 33517.00
866.5810, 33498.00
867.7130, 33245.00
868.8460, 33228.76
869.9780, 33070.00
871.1100, 33114.00
872.2410, 33045.00
873.3730, 32856.00
874.5050, 32781.00
875.6360, 32861.00
876.7670, 32888.00
877.8980, 32968.00
879.0290, 33026.00
880.1590, 32923.00
881.2900, 32880.00
882.4200, 32945.00
883.5500, 32574.00
884.6800, 32762.00
885.8100, 32780.00
886.9400, 33165.00
888.0690, 33015.00
889.1990, 32783.00
890.3280, 32921.00
891.4570, 33022.00
892.5860, 32866.00
893.7140, 32786.00
894.8430, 32988.00
895.9710, 33033.00
897.1000, 33055.00
898.2280, 33070.00
899.3560, 33261.00
900.4830, 33123.00
901.6110, 33171.00
902.7380, 33344.00
903.8660, 33214.00
904.9930, 33365.00
906.1200, 33335.00
907.2460, 33484.00
908.3730, 33274.00
909.5000, 33326.00
910.6260, 33146.00
911.7520, 33489.00
912.8780, 33350.00
914.0040, 33369.00
915.1290, 33397.00
916.2550, 33326.00
917.3800, 33482.00
918.5050, 32946.00
919.6300, 33358.00
920.7550, 33042.00
921.8800, 33120.00
923.0040, 33151.00
924.1290, 33201.00
925.2530, 33143.00
926.3770, 33298.00
927.5010, 33239.00
928.6250, 33246.00
929.7480, 33557.00
930.8720, 33770.00
931.9950, 33501.00
933.1180, 33196.00
934.2410, 33337.00
935.3640, 33416.00
936.4860, 33691.00
937.6090, 33665.74
938.7310, 33890.00
939.8530, 33741.00
940.9750, 33739.00
942.0970, 33879.00
943.2180, 33581.00
944.3400, 33900.00
945.4610, 33823.00
946.5820, 33852.00
947.7030, 33704.00
948.8240, 33928.00
949.9450, 33955.00
951.0650, 34040.00
952.1860, 34138.86
953.3060, 33950.00
954.4260, 34253.00
955.5460, 34040.00
956.6650, 34045.00
957.7850, 34332.00
958.9040, 34196.00
960.0230, 34005.00
961.1420, 34253.00
962.2610, 34187.00
963.3800, 33986.00
964.4990, 34195.00
965.6170, 34203.00
966.7350, 34085.00
967.8530, 34150.00
968.9710, 34022.00
970.0890, 34264.00
971.2070, 34262.00
972.3240, 34334.00
973.4410, 34263.00
974.5580, 34198.00
975.6750, 34329.00
976.7920, 34182.00
977.9090, 34358.00
979.0250, 34008.00
980.1410, 34423.00
981.2580, 33864.00
982.3740, 34341.00
983.4890, 34710.00
984.6050, 34744.00
985.7200, 34817.00
986.8360, 34703.00
987.9510, 35067.00
989.0660, 34899.00
990.1810, 35142.00
991.2950, 34984.00
992.4100, 34918.00
993.5240, 35025.00
994.6390, 35157.00
995.7530, 35136.00
996.8660, 35420.00
997.9800, 35719.00
999.0940, 35917.00
1000.207, 36425.00
1001.320, 36827.00
1002.433, 37129.00
1003.546, 37415.00
1004.659, 37008.00
1005.772, 36773.00
1006.884, 36097.00
1007.996, 35894.00
1009.108, 35865.00
1010.220, 35714.00
1011.332, 35744.00
1012.444, 35699.00
1013.555, 35658.00
1014.666, 35647.00
1015.777, 35689.00
1016.888, 35732.00
1017.999, 35958.00
1019.110, 35937.00
1020.220, 36217.00
1021.331, 36381.00
1022.441, 36415.00
1023.551, 36645.00
1024.661, 36495.00
1025.770, 36499.00
1026.880, 36546.00
1027.989, 36424.00
1029.098, 36460.42
1030.207, 36538.00
1031.316, 36468.00
1032.425, 36525.31
1033.533, 36557.16
1034.642, 36583.00
1035.750, 36656.00
1036.858, 36754.00
1037.966, 36837.00
1039.073, 37107.00
1040.181, 37261.00
1041.288, 37334.02
1042.396, 37479.14
1043.503, 37419.00
1044.610, 37601.00
1045.716, 37546.00
1046.823, 37534.00
1047.929, 37597.46
1049.036, 37449.00
1050.142, 37639.00
1051.248, 37511.71
1052.353, 37543.54
1053.459, 37521.00
1054.564, 37356.00
1055.670, 37461.00
1056.775, 37357.00
1057.880, 37401.00
1058.985, 37414.00
1060.089, 37310.00
1061.194, 37445.00
1062.298, 37446.00
1063.402, 37524.00
1064.506, 37461.00
1065.610, 37585.00
1066.713, 37608.00
1067.817, 37253.00
1068.920, 37307.00
1070.023, 37338.00
1071.126, 37248.00
1072.229, 37422.00
1073.332, 37473.00
1074.435, 37517.00
1075.537, 37638.00
1076.639, 37704.96
1077.741, 37754.38
1078.843, 37904.00
1079.945, 37853.00
1081.046, 37955.00
1082.148, 38023.00
1083.249, 38284.00
1084.350, 37925.00
1085.451, 38084.00
1086.551, 38102.00
1087.652, 37799.00
1088.752, 37863.00
1089.853, 37834.00
1090.953, 37962.00
1092.053, 37952.00
1093.152, 37859.00
1094.252, 37583.00
1095.351, 37839.00
1096.451, 37776.00
1097.550, 38041.00
1098.649, 37870.00
1099.748, 37701.00
1100.846, 38028.00
1101.945, 38042.00
1103.043, 38321.00
1104.141, 38145.00
1105.239, 38194.00
1106.337, 38238.00
1107.434, 38556.00
1108.532, 38479.00
1109.629, 38674.00
1110.726, 38760.00
1111.823, 39083.00
1112.920, 38882.00
1114.017, 39042.00
1115.113, 39138.00
1116.210, 39075.00
1117.306, 39003.00
1118.402, 39270.00
1119.498, 39312.00
1120.593, 39298.00
1121.689, 39355.00
1122.784, 39501.61
1123.879, 40005.00
1124.974, 39970.00
1126.069, 40256.00
1127.164, 40755.00
1128.259, 40850.00
1129.353, 41290.00
1130.447, 41656.00
1131.541, 41924.00
1132.635, 42534.00
1133.729, 42731.00
1134.822, 42812.00
1135.916, 43146.00
1137.009, 43175.00
1138.102, 43279.00
1139.195, 43225.00
1140.288, 42948.00
1141.380, 42551.00
1142.473, 42624.00
1143.565, 41972.00
1144.657, 41387.00
1145.749, 41221.00
1146.841, 40928.00
1147.932, 40571.00
1149.024, 40400.00
1150.115, 39897.00
1151.206, 39934.00
1152.297, 39403.00
1153.388, 39519.00
1154.479, 39437.00
1155.569, 39272.00
1156.659, 39113.00
1157.750, 39183.00
1158.839, 39136.00
1159.929, 39231.00
1161.019, 39506.00
1162.108, 39057.00
1163.198, 39113.00
1164.287, 39354.00
1165.376, 39355.00
1166.465, 39133.00
1167.553, 39264.00
1168.642, 39239.00
1169.730, 39425.00
1170.818, 39381.00
1171.906, 39445.00
1172.994, 39368.00
1174.082, 39404.00
1175.170, 39533.00
1176.257, 39295.00
1177.344, 39352.00
1178.431, 39478.00
1179.518, 39120.00
1180.605, 39567.00
1181.691, 39318.00
1182.778, 39343.00
1183.864, 39442.00
1184.950, 39728.00
1186.036, 39092.00
1187.122, 39435.00
1188.207, 39367.00
1189.292, 39596.00
1190.378, 39428.00
1191.463, 39406.00
1192.548, 39454.00
1193.632, 39442.00
1194.717, 39510.00
1195.801, 39398.00
1196.886, 39285.00
1197.970, 39554.00
1199.054, 39529.00
1200.137, 39623.00
1201.221, 39491.00
1202.305, 39719.00
1203.388, 39882.00
1204.471, 39678.00
1205.554, 39540.00
1206.637, 39581.00
1207.719, 39807.00
1208.802, 39727.00
1209.884, 39873.00
1210.966, 39867.00
1212.048, 40193.00
1213.130, 39770.00
1214.212, 40284.00
1215.293, 39947.00
1216.374, 40232.00
1217.456, 40103.00
1218.536, 40179.00
1219.617, 40157.00
1220.698, 40353.00
1221.778, 40371.00
1222.859, 40034.00
1223.939, 40263.00
1225.019, 40059.00
1226.099, 40203.00
1227.178, 40272.00
1228.258, 40382.00
1229.337, 40664.00
1230.417, 40430.00
1231.496, 40697.00
1232.574, 40907.00
1233.653, 40662.00
1234.732, 40719.00
1235.810, 40801.00
1236.888, 40949.00
1237.966, 41057.17
1239.044, 41126.59
1240.122, 41305.00
1241.199, 41262.00
1242.277, 41283.00
1243.354, 41351.00
1244.431, 41126.00
1245.508, 41556.00
1246.585, 41212.00
1247.661, 41224.00
1248.738, 41667.00
1249.814, 41546.00
1250.890, 41512.00
1251.966, 41528.00
1253.042, 41480.39
1254.117, 41339.00
1255.193, 41452.00
1256.268, 41382.00
1257.343, 41309.00
1258.418, 41454.00
1259.493, 41409.00
1260.567, 41555.00
1261.642, 41932.00
1262.716, 42001.00
1263.790, 42211.00
1264.864, 42119.00
1265.938, 42176.00
1267.011, 42145.00
1268.085, 42112.00
1269.158, 42473.00
1270.231, 42337.00
1271.304, 42691.00
1272.377, 42524.00
1273.450, 42628.00
1274.522, 42572.00
1275.594, 42690.00
1276.666, 42545.00
1277.738, 42541.71
1278.810, 42309.00
1279.882, 42401.00
1280.953, 42337.00
1282.025, 42213.00
1283.096, 42058.00
1284.167, 42328.00
1285.238, 42127.00
1286.308, 42085.00
1287.379, 42307.00
1288.449, 42266.00
1289.519, 42269.00
1290.589, 42321.00
1291.659, 42581.00
1292.729, 42555.00
1293.798, 42618.00
1294.868, 42655.00
1295.937, 42427.00
1297.006, 42529.00
1298.075, 42443.00
1299.143, 42331.00
1300.212, 42642.00
1301.280, 42409.00
1302.348, 42618.00
1303.416, 42483.00
1304.484, 42418.00
1305.552, 42702.00
1306.620, 42545.00
1307.687, 43014.00
1308.754, 43019.00
1309.821, 43272.00
1310.888, 43266.00
1311.955, 43214.00
1313.021, 43449.00
1314.088, 43266.00
1315.154, 43571.00
1316.220, 43571.00
1317.286, 43773.00
1318.352, 43782.00
1319.417, 43792.71
1320.483, 43673.00
1321.548, 43728.00
1322.613, 43600.00
1323.678, 43495.00
1324.743, 43316.00
1325.807, 43290.90
1326.872, 43204.52
1327.936, 43222.00
1329.000, 43181.00
1330.064, 43147.00
1331.128, 43267.00
1332.191, 42683.00
1333.255, 43151.00
1334.318, 42750.00
1335.381, 42745.00
1336.444, 43091.00
1337.507, 42847.00
1338.569, 42802.00
1339.632, 42989.00
1340.694, 42929.00
1341.756, 43199.00
1342.818, 43091.00
1343.880, 42819.00
1344.941, 43268.00
1346.003, 43260.00
1347.064, 43106.00
1348.125, 43346.00
1349.186, 43095.00
1350.247, 43256.00
1351.308, 43157.00
1352.368, 43295.00
1353.428, 43259.21
1354.489, 43150.00
1355.549, 43183.00
1356.608, 43249.00
1357.668, 43170.00
1358.727, 43216.00
1359.787, 43226.00
1360.846, 43299.00
1361.905, 43437.00
1362.964, 43282.00
1364.022, 43227.00
1365.081, 43358.00
1366.139, 43437.00
1367.197, 43359.00
1368.255, 43365.00
1369.313, 43559.00
1370.371, 43623.00
1371.428, 43482.00
1372.486, 43775.00
1373.543, 43738.00
1374.600, 43741.00
1375.657, 44019.00
1376.713, 43746.00
1377.770, 43732.00
1378.826, 43825.00
1379.882, 43757.11
1380.938, 43928.00
1381.994, 43845.00
1383.050, 43911.00
1384.106, 43925.00
1385.161, 43858.00
1386.216, 43893.00
1387.271, 43958.00
1388.326, 43855.00
1389.381, 44059.00
1390.435, 43762.00
1391.490, 44047.00
1392.544, 44096.00
1393.598, 43838.00
1394.652, 43878.00
1395.705, 43862.00
1396.759, 44092.00
1397.812, 43712.00
1398.866, 43907.00
1399.919, 44161.00
1400.972, 43728.00
1402.024, 44073.00
1403.077, 43922.00
1404.129, 44159.00
1405.181, 43780.00
1406.233, 44020.00
1407.285, 43857.00
1408.337, 44130.00
1409.389, 43997.00
1410.440, 43783.00
1411.491, 44202.00
1412.542, 44018.00
1413.593, 44166.00
1414.644, 44425.00
1415.695, 44086.00
1416.745, 44192.00
1417.795, 44153.00
1418.845, 44090.51
1419.895, 44193.00
1420.945, 44129.00
1421.995, 44329.00
1423.044, 44400.00
1424.093, 44299.00
1425.142, 44837.00
1426.191, 44455.00
1427.240, 44779.00
1428.289, 44847.00
1429.337, 44976.00
1430.385, 45118.00
1431.433, 45247.00
1432.481, 45458.00
1433.529, 45672.21
1434.577, 45810.00
1435.624, 46169.00
1436.672, 46300.00
1437.719, 46527.00
1438.766, 46824.00
1439.812, 47136.00
1440.859, 47482.00
1441.905, 47762.00
1442.952, 48029.00
1443.998, 48042.00
1445.044, 48324.00
1446.090, 48574.00
1447.135, 48518.00
1448.181, 48683.00
1449.226, 48871.00
1450.271, 49222.00
1451.316, 49218.00
1452.361, 49485.00
1453.405, 49233.00
1454.450, 49135.00
1455.494, 49286.00
1456.538, 49340.00
1457.582, 49029.00
1458.626, 49274.00
1459.670, 49067.00
1460.713, 48610.00
1461.757, 48778.00
1462.800, 48742.00
1463.843, 48286.00
1464.886, 47998.00
1465.928, 47903.00
1466.971, 47610.00
1468.013, 47631.00
1469.055, 47410.00
1470.097, 46982.00
1471.139, 47270.00
1472.181, 46800.00
1473.222, 47209.00
1474.263, 47083.00
1475.305, 46742.00
1476.346, 46854.00
1477.386, 47033.00
1478.427, 47004.00
1479.468, 46785.00
1480.508, 46842.00
1481.548, 46647.00
1482.588, 47003.00
1483.628, 46518.00
1484.668, 46456.00
1485.707, 46568.00
1486.747, 46292.00
1487.786, 46276.00
1488.825, 45983.00
1489.864, 46305.00
1490.902, 46028.00
1491.941, 46176.00
1492.979, 46219.00
1494.017, 46163.00
1495.055, 46185.89
1496.093, 45936.00
1497.131, 46132.00
1498.168, 45794.00
1499.206, 45847.00
1500.243, 45882.00
1501.280, 46087.00
1502.317, 46078.08
1503.354, 46106.00
1504.390, 46128.00
1505.426, 46109.57
1506.463, 46080.67
1507.499, 46071.00
1508.535, 46012.00
1509.570, 45967.00
1510.606, 46010.00
1511.641, 45978.00
1512.676, 45922.00
1513.711, 46040.00
1514.746, 46014.76
1515.781, 46059.00
1516.816, 46029.00
1517.850, 46343.00
1518.884, 46254.00
1519.918, 46197.00
1520.952, 46517.00
1521.986, 46447.00
1523.019, 46589.00
1524.053, 46648.00
1525.086, 46673.00
1526.119, 46740.00
1527.152, 46598.00
1528.185, 46628.00
1529.217, 46865.00
1530.250, 46824.00
1531.282, 46994.00
1532.314, 46899.00
1533.346, 47108.00
1534.377, 47021.00
1535.409, 47114.00
1536.440, 47279.00
1537.472, 47166.00
1538.503, 47101.00
1539.534, 47175.00
1540.564, 46990.00
1541.595, 47634.00
1542.625, 47431.96
1543.656, 46891.00
1544.686, 47407.00
1545.716, 47324.00
1546.745, 47180.00
1547.775, 46989.00
1548.804, 47013.00
1549.834, 47301.00
1550.863, 47316.00
1551.892, 47356.00
1552.920, 47279.00
1553.949, 47267.00
1554.977, 47412.00
1556.006, 47641.00
1557.034, 47163.00
1558.062, 47346.00
1559.089, 47180.00
1560.117, 47452.00
1561.144, 47363.00
1562.172, 47293.00
1563.199, 47296.00
1564.226, 47564.00
1565.252, 47420.00
1566.279, 47614.00
1567.305, 47592.00
1568.332, 47722.00
1569.358, 47635.00
1570.384, 47656.00
1571.409, 48028.00
##END=



