##NAMES=Epididymite
##RRUFFID=R060773
##IDEAL CHEMISTRY=Na_2_Be_2_Si_6_O_15_&#183;H_2_O
##LOCALITY=unknown
##OWNER=RRUFF
##SOURCE=Michael Scott
##DESCRIPTION=Colorless platy crystals forming a pseudohexagonal aggregate
##STATUS=The identification of this mineral has been confirmed by single-crystal X-ray diffraction.
##URL=rruff.info/R060773
##PIN_ID=M00395
##ORIENTATION=Laser parallel to b* (0 1 0). Fiducial mark perpendicular to laser is parallel to -c [0 0 -1]
102.1160, 7918.000
103.3490, 7993.000
104.5820, 7954.000
105.8150, 8169.000
107.0470, 8276.000
108.2800, 8288.764
109.5120, 8581.000
110.7440, 8402.000
111.9760, 8332.000
113.2080, 8486.000
114.4400, 8732.000
115.6710, 8830.000
116.9030, 9343.000
118.1340, 9658.000
119.3650, 10237.00
120.5960, 11081.00
121.8270, 12133.00
123.0580, 13010.00
124.2880, 13598.00
125.5190, 13244.00
126.7490, 12581.00
127.9790, 12153.00
129.2090, 12561.00
130.4390, 13290.00
131.6680, 15438.00
132.8980, 17768.00
134.1270, 19968.00
135.3560, 20048.00
136.5850, 17560.00
137.8140, 14428.00
139.0430, 11727.00
140.2710, 9784.000
141.5000, 8838.000
142.7280, 8089.000
143.9560, 7916.000
145.1840, 7701.000
146.4120, 7589.000
147.6390, 7567.000
148.8670, 7632.000
150.0940, 7795.000
151.3210, 7997.000
152.5490, 8123.000
153.7750, 8053.000
155.0020, 7879.000
156.2290, 7578.000
157.4550, 7404.000
158.6810, 7355.000
159.9080, 7181.000
161.1340, 7109.000
162.3590, 7022.000
163.5850, 6942.000
164.8110, 7059.000
166.0360, 7076.000
167.2610, 7011.000
168.4860, 7165.000
169.7110, 7211.000
170.9360, 7236.000
172.1610, 7159.000
173.3850, 7121.000
174.6100, 7204.000
175.8340, 7129.000
177.0580, 7102.000
178.2820, 7211.000
179.5050, 7163.000
180.7290, 7180.000
181.9520, 7264.000
183.1760, 7254.000
184.3990, 7504.000
185.6220, 7603.000
186.8450, 7832.000
188.0670, 8182.000
189.2900, 8235.000
190.5120, 8502.000
191.7340, 8755.000
192.9560, 9125.000
194.1780, 9622.000
195.4000, 9947.000
196.6220, 10449.00
197.8430, 10865.00
199.0640, 11093.00
200.2860, 11119.00
201.5070, 11059.00
202.7270, 10694.00
203.9480, 10217.00
205.1690, 9745.000
206.3890, 9312.000
207.6090, 9021.000
208.8290, 8649.000
210.0490, 8434.000
211.2690, 8169.000
212.4890, 7969.000
213.7080, 7953.000
214.9280, 7796.000
216.1470, 7778.000
217.3660, 7704.000
218.5850, 7674.000
219.8030, 7594.000
221.0220, 7498.000
222.2400, 7615.000
223.4590, 7629.000
224.6770, 7653.000
225.8950, 7822.000
227.1120, 7916.000
228.3300, 8067.000
229.5480, 8353.000
230.7650, 8518.000
231.9820, 8737.000
233.1990, 9050.000
234.4160, 9391.000
235.6330, 9933.000
236.8490, 10424.00
238.0660, 11035.00
239.2820, 12087.00
240.4980, 12758.00
241.7140, 13507.00
242.9300, 13924.00
244.1460, 13772.00
245.3610, 13394.00
246.5770, 12710.00
247.7920, 12029.00
249.0070, 11283.00
250.2220, 10768.00
251.4370, 10357.00
252.6510, 10041.00
253.8660, 9789.000
255.0800, 9686.000
256.2940, 9602.000
257.5080, 9678.000
258.7220, 9693.000
259.9360, 9715.000
261.1490, 9482.000
262.3630, 9278.000
263.5760, 9031.000
264.7890, 8845.000
266.0020, 8598.737
267.2150, 8368.086
268.4270, 8159.000
269.6400, 7880.000
270.8520, 7734.000
272.0640, 7473.000
273.2760, 7396.396
274.4880, 7455.000
275.7000, 7305.000
276.9120, 7317.000
278.1230, 7365.000
279.3340, 7305.000
280.5450, 7244.000
281.7560, 7214.000
282.9670, 7324.000
284.1780, 7468.000
285.3880, 7294.000
286.5980, 7393.000
287.8090, 7368.000
289.0190, 7393.000
290.2290, 7267.000
291.4380, 7208.000
292.6480, 7181.000
293.8570, 7172.000
295.0670, 7056.000
296.2760, 7078.000
297.4850, 7076.000
298.6930, 7051.000
299.9020, 7089.469
301.1110, 7078.530
302.3190, 7135.000
303.5270, 7147.000
304.7350, 7150.000
305.9430, 7181.787
307.1510, 7214.678
308.3580, 7227.000
309.5660, 7287.000
310.7730, 7341.000
311.9800, 7343.000
313.1870, 7395.000
314.3940, 7411.000
315.6010, 7383.000
316.8070, 7501.000
318.0130, 7470.000
319.2200, 7514.000
320.4260, 7542.000
321.6310, 7571.000
322.8370, 7568.000
324.0430, 7690.000
325.2480, 7701.000
326.4540, 7822.000
327.6590, 7755.000
328.8640, 7872.000
330.0680, 7885.000
331.2730, 8019.000
332.4780, 8246.000
333.6820, 8482.000
334.8860, 8717.000
336.0900, 8909.000
337.2940, 9174.000
338.4980, 9600.000
339.7010, 9918.000
340.9050, 10676.00
342.1080, 11846.00
343.3110, 13246.00
344.5140, 14870.00
345.7170, 16161.00
346.9200, 16763.00
348.1220, 15843.00
349.3240, 14266.00
350.5270, 12760.00
351.7290, 11285.00
352.9310, 10388.00
354.1320, 9810.000
355.3340, 9581.000
356.5350, 9431.000
357.7370, 9202.000
358.9380, 9281.000
360.1390, 9241.000
361.3400, 9207.000
362.5400, 9196.000
363.7410, 9284.000
364.9410, 9468.000
366.1410, 9567.000
367.3410, 9911.000
368.5410, 10068.00
369.7410, 10473.00
370.9400, 10796.00
372.1400, 11494.00
373.3390, 11985.00
374.5380, 12586.00
375.7370, 13559.00
376.9360, 14793.00
378.1350, 16184.00
379.3330, 17916.00
380.5310, 19436.00
381.7300, 20311.00
382.9280, 20621.00
384.1260, 19613.00
385.3230, 17587.00
386.5210, 15913.00
387.7180, 14349.00
388.9160, 12958.00
390.1130, 11891.00
391.3100, 11020.00
392.5060, 10403.00
393.7030, 9950.000
394.9000, 9702.000
396.0960, 9722.000
397.2920, 9931.000
398.4880, 10065.00
399.6840, 10630.00
400.8800, 11120.00
402.0750, 11957.00
403.2710, 13095.00
404.4660, 14989.00
405.6610, 17567.00
406.8560, 21041.00
408.0510, 24185.00
409.2450, 25816.00
410.4400, 24562.00
411.6340, 21191.00
412.8280, 16759.00
414.0220, 13670.00
415.2160, 11366.00
416.4100, 10003.00
417.6030, 9198.000
418.7970, 8712.000
419.9900, 8430.000
421.1830, 8138.000
422.3760, 8059.000
423.5690, 7930.000
424.7610, 7900.000
425.9540, 7720.000
427.1460, 7597.000
428.3380, 7647.000
429.5300, 7615.000
430.7220, 7716.000
431.9140, 7631.000
433.1050, 7642.000
434.2970, 7740.000
435.4880, 7779.000
436.6790, 7836.000
437.8700, 7638.000
439.0610, 7613.000
440.2510, 7655.000
441.4420, 7598.000
442.6320, 7624.000
443.8220, 7542.000
445.0120, 7520.000
446.2020, 7619.000
447.3910, 7542.000
448.5810, 7567.000
449.7700, 7633.000
450.9600, 7504.000
452.1490, 7716.000
453.3370, 7796.000
454.5260, 7722.000
455.7150, 7893.000
456.9030, 7965.000
458.0910, 8169.000
459.2800, 8160.000
460.4670, 8283.000
461.6550, 8234.000
462.8430, 8195.000
464.0300, 8130.000
465.2180, 8268.000
466.4050, 8245.000
467.5920, 8345.000
468.7790, 8463.000
469.9650, 8645.121
471.1520, 8940.000
472.3380, 9147.000
473.5250, 9624.000
474.7110, 9941.000
475.8970, 10617.00
477.0820, 10940.00
478.2680, 10924.00
479.4540, 10632.00
480.6390, 10351.00
481.8240, 10233.00
483.0090, 10233.00
484.1940, 10539.00
485.3780, 10989.00
486.5630, 11171.00
487.7470, 11065.00
488.9320, 10777.00
490.1160, 10247.00
491.3000, 9596.000
492.4830, 9303.000
493.6670, 9062.000
494.8500, 9126.000
496.0340, 9069.000
497.2170, 9177.000
498.4000, 9302.000
499.5820, 9370.000
500.7650, 9613.000
501.9480, 9881.000
503.1300, 10109.00
504.3120, 10275.00
505.4940, 10904.00
506.6760, 11465.00
507.8580, 12343.00
509.0390, 13690.00
510.2210, 15035.00
511.4020, 17053.00
512.5830, 19461.00
513.7640, 22512.00
514.9450, 26513.00
516.1250, 32266.00
517.3060, 39694.00
518.4860, 47899.00
519.6660, 55361.00
520.8460, 58801.00
522.0260, 56679.00
523.2060, 49694.00
524.3850, 40561.00
525.5650, 32091.00
526.7440, 25322.00
527.9230, 20706.00
529.1020, 17506.00
530.2810, 15528.00
531.4590, 13867.00
532.6380, 12775.00
533.8160, 12026.00
534.9940, 11368.00
536.1720, 10907.00
537.3500, 10580.00
538.5270, 10236.00
539.7050, 10044.00
540.8820, 9796.110
542.0590, 9771.000
543.2360, 9493.000
544.4130, 9352.000
545.5900, 9348.000
546.7660, 9190.000
547.9430, 9120.000
549.1190, 9066.000
550.2950, 8959.000
551.4710, 8979.000
552.6470, 9035.000
553.8220, 8874.000
554.9980, 8770.000
556.1730, 8802.000
557.3480, 8836.000
558.5230, 8820.000
559.6980, 8898.000
560.8730, 8752.000
562.0470, 8849.000
563.2220, 8926.000
564.3960, 8760.000
565.5700, 8834.000
566.7440, 8890.000
567.9170, 9056.000
569.0910, 9118.554
570.2640, 8956.000
571.4380, 9315.000
572.6110, 9392.000
573.7840, 9489.000
574.9570, 9936.000
576.1290, 10154.00
577.3020, 10536.00
578.4740, 11116.00
579.6460, 11797.00
580.8180, 12809.00
581.9900, 14037.00
583.1620, 15513.00
584.3330, 16605.00
585.5040, 16830.00
586.6760, 16654.00
587.8470, 15264.00
589.0180, 13723.00
590.1880, 12449.00
591.3590, 11359.00
592.5290, 10863.00
593.7000, 10212.00
594.8700, 9917.000
596.0400, 9696.000
597.2090, 9582.000
598.3790, 9394.000
599.5490, 9377.000
600.7180, 9234.000
601.8870, 9252.000
603.0560, 9128.000
604.2250, 9133.000
605.3940, 9062.000
606.5620, 8923.000
607.7300, 9026.000
608.8990, 9003.000
610.0670, 8907.000
611.2350, 8912.000
612.4020, 8934.128
613.5700, 8957.850
614.7370, 9038.000
615.9050, 9151.000
617.0720, 9216.000
618.2390, 9443.000
619.4060, 9433.000
620.5720, 9541.000
621.7390, 9798.000
622.9050, 9973.000
624.0710, 10310.00
625.2370, 10611.00
626.4030, 10683.00
627.5690, 10684.00
628.7340, 10842.00
629.9000, 10945.00
631.0650, 11005.00
632.2300, 11018.00
633.3950, 11273.00
634.5600, 11248.00
635.7240, 11242.00
636.8890, 10875.00
638.0530, 10471.00
639.2170, 10330.00
640.3810, 10223.00
641.5450, 9948.000
642.7080, 9898.000
643.8720, 9957.000
645.0350, 10029.00
646.1980, 10123.00
647.3610, 10093.56
648.5240, 10043.00
649.6870, 10003.00
650.8490, 9933.000
652.0120, 9818.000
653.1740, 9833.000
654.3360, 9770.000
655.4980, 9563.000
656.6600, 9523.000
657.8210, 9248.000
658.9830, 9331.000
660.1440, 9222.000
661.3050, 8985.000
662.4660, 8933.000
663.6270, 8934.000
664.7870, 8860.000
665.9480, 8867.000
667.1080, 8778.000
668.2680, 8847.000
669.4280, 8680.000
670.5880, 8838.000
671.7480, 8808.000
672.9070, 8850.000
674.0670, 8778.000
675.2260, 8698.000
676.3850, 8692.000
677.5440, 8701.360
678.7030, 8782.000
679.8610, 8770.000
681.0200, 8781.000
682.1780, 8765.000
683.3360, 8782.764
684.4940, 8738.000
685.6520, 8788.000
686.8090, 8804.000
687.9670, 8748.000
689.1240, 8638.000
690.2810, 8896.000
691.4380, 8764.000
692.5950, 8754.000
693.7520, 8848.000
694.9080, 8857.000
696.0650, 8763.000
697.2210, 8745.000
698.3770, 8655.000
699.5330, 8657.000
700.6880, 8674.897
701.8440, 8790.000
702.9990, 8747.000
704.1550, 8809.000
705.3100, 8823.000
706.4650, 8765.000
707.6190, 8827.000
708.7740, 8740.000
709.9290, 8718.000
711.0830, 8856.000
712.2370, 8840.000
713.3910, 8806.000
714.5450, 8820.000
715.6980, 8823.838
716.8520, 8831.000
718.0050, 8858.000
719.1580, 8868.664
720.3110, 8934.000
721.4640, 8920.000
722.6170, 8989.000
723.7700, 9045.000
724.9220, 8988.000
726.0740, 9046.000
727.2260, 9058.000
728.3780, 9074.000
729.5300, 9055.000
730.6810, 9066.395
731.8330, 9054.000
732.9840, 9090.000
734.1350, 9151.000
735.2860, 9222.000
736.4370, 9183.000
737.5880, 9193.000
738.7380, 9196.000
739.8880, 9334.000
741.0390, 9381.000
742.1890, 9290.000
743.3380, 9189.000
744.4880, 9325.000
745.6380, 9288.000
746.7870, 9453.000
747.9360, 9451.000
749.0850, 9330.000
750.2340, 9537.000
751.3830, 9381.000
752.5310, 9512.000
753.6800, 9492.000
754.8280, 9589.000
755.9760, 9607.000
757.1240, 9584.000
758.2720, 9668.000
759.4190, 9642.000
760.5670, 9718.000
761.7140, 9652.000
762.8610, 9688.000
764.0080, 9527.000
765.1550, 9651.000
766.3020, 9552.000
767.4480, 9654.000
768.5950, 9652.000
769.7410, 9704.000
770.8870, 9625.000
772.0330, 9649.000
773.1780, 9582.000
774.3240, 9606.000
775.4690, 9496.000
776.6140, 9597.000
777.7590, 9576.000
778.9040, 9656.000
780.0490, 9621.000
781.1940, 9635.000
782.3380, 9654.000
783.4820, 9682.000
784.6260, 9607.000
785.7700, 9765.000
786.9140, 9671.000
788.0580, 9669.000
789.2010, 9784.000
790.3450, 9799.000
791.4880, 9738.000
792.6310, 9785.000
793.7730, 9834.000
794.9160, 9941.000
796.0590, 9876.000
797.2010, 9832.000
798.3430, 9995.000
799.4850, 9975.000
800.6270, 9995.000
801.7690, 9922.000
802.9100, 10050.00
804.0520, 9953.000
805.1930, 10011.00
806.3340, 9956.000
807.4750, 9953.000
808.6160, 10105.00
809.7560, 10048.00
810.8970, 10080.00
812.0370, 9939.000
813.1770, 9936.000
814.3170, 10036.00
815.4570, 10113.00
816.5960, 10158.00
817.7360, 10099.00
818.8750, 10132.00
820.0140, 10156.00
821.1530, 10144.00
822.2920, 10237.00
823.4310, 10198.00
824.5690, 10378.00
825.7070, 10353.00
826.8460, 10412.18
827.9840, 10435.00
829.1220, 10437.00
830.2590, 10362.00
831.3970, 10242.00
832.5340, 10277.00
833.6710, 10222.20
834.8080, 10395.00
835.9450, 10276.00
837.0820, 10354.00
838.2190, 10521.00
839.3550, 10539.00
840.4910, 10497.00
841.6270, 10627.00
842.7630, 10661.00
843.8990, 10674.00
845.0350, 10677.00
846.1700, 10700.00
847.3060, 10859.00
848.4410, 10677.00
849.5760, 10876.00
850.7100, 10941.00
851.8450, 10921.00
852.9800, 10882.00
854.1140, 11039.00
855.2480, 11112.00
856.3820, 11187.00
857.5160, 11347.00
858.6500, 11479.00
859.7830, 11495.00
860.9170, 11670.00
862.0500, 11679.00
863.1830, 11638.00
864.3160, 11610.00
865.4480, 11415.00
866.5810, 11227.00
867.7130, 11306.00
868.8460, 11218.00
869.9780, 11141.00
871.1100, 11138.00
872.2410, 11272.00
873.3730, 10960.00
874.5050, 10955.00
875.6360, 11118.00
876.7670, 11149.00
877.8980, 11084.00
879.0290, 11178.00
880.1590, 10993.00
881.2900, 11134.00
882.4200, 11026.00
883.5500, 10927.00
884.6800, 11065.00
885.8100, 10836.00
886.9400, 10972.00
888.0690, 10834.00
889.1990, 11084.00
890.3280, 10896.00
891.4570, 11044.00
892.5860, 11011.00
893.7140, 10935.00
894.8430, 11047.00
895.9710, 10925.00
897.1000, 10981.00
898.2280, 10987.00
899.3560, 11057.00
900.4830, 10952.00
901.6110, 11009.00
902.7380, 10973.00
903.8660, 11033.00
904.9930, 10994.00
906.1200, 11018.00
907.2460, 10976.00
908.3730, 10883.00
909.5000, 10973.00
910.6260, 11022.00
911.7520, 11121.00
912.8780, 10945.00
914.0040, 10940.00
915.1290, 10867.00
916.2550, 10839.00
917.3800, 10851.00
918.5050, 10753.00
919.6300, 10771.08
920.7550, 10761.00
921.8800, 10784.00
923.0040, 10768.00
924.1290, 10838.00
925.2530, 10754.00
926.3770, 10711.00
927.5010, 10800.00
928.6250, 10839.00
929.7480, 10908.00
930.8720, 10898.00
931.9950, 10839.00
933.1180, 10811.00
934.2410, 10862.00
935.3640, 10989.00
936.4860, 10913.00
937.6090, 10877.00
938.7310, 10916.15
939.8530, 10874.00
940.9750, 10894.00
942.0970, 10814.00
943.2180, 10745.00
944.3400, 10706.00
945.4610, 10875.00
946.5820, 10864.00
947.7030, 10878.00
948.8240, 10830.00
949.9450, 11004.00
951.0650, 10959.00
952.1860, 10980.00
953.3060, 10873.00
954.4260, 10874.00
955.5460, 11073.00
956.6650, 10923.00
957.7850, 11136.00
958.9040, 10984.00
960.0230, 10949.00
961.1420, 10877.00
962.2610, 10834.43
963.3800, 10844.00
964.4990, 10821.00
965.6170, 10915.00
966.7350, 10967.00
967.8530, 10863.00
968.9710, 10764.00
970.0890, 10983.00
971.2070, 10965.00
972.3240, 10916.00
973.4410, 10966.00
974.5580, 10947.00
975.6750, 10912.00
976.7920, 10859.00
977.9090, 10861.00
979.0250, 10841.00
980.1410, 10943.00
981.2580, 10952.00
982.3740, 10951.43
983.4890, 10936.00
984.6050, 10956.00
985.7200, 10992.00
986.8360, 11039.00
987.9510, 11046.16
989.0660, 11065.00
990.1810, 11086.00
991.2950, 11124.00
992.4100, 11176.00
993.5240, 11161.00
994.6390, 11181.00
995.7530, 11197.00
996.8660, 11359.00
997.9800, 11588.00
999.0940, 11706.00
1000.207, 12011.00
1001.320, 12476.00
1002.433, 12603.00
1003.546, 12854.00
1004.659, 12486.00
1005.772, 12127.00
1006.884, 12034.00
1007.996, 11740.00
1009.108, 11788.00
1010.220, 11714.00
1011.332, 11741.00
1012.444, 11791.00
1013.555, 11663.00
1014.666, 11681.00
1015.777, 11631.00
1016.888, 11589.00
1017.999, 11549.00
1019.110, 11563.00
1020.220, 11700.00
1021.331, 11757.00
1022.441, 11942.00
1023.551, 11898.00
1024.661, 11909.00
1025.770, 11940.02
1026.880, 11831.00
1027.989, 11890.00
1029.098, 11838.00
1030.207, 11769.00
1031.316, 11729.00
1032.425, 11745.00
1033.533, 11886.00
1034.642, 11819.00
1035.750, 11869.00
1036.858, 11786.00
1037.966, 11878.00
1039.073, 12018.00
1040.181, 12182.00
1041.288, 12212.00
1042.396, 12200.00
1043.503, 12370.00
1044.610, 12439.00
1045.716, 12491.00
1046.823, 12684.00
1047.929, 12799.00
1049.036, 12806.00
1050.142, 12789.00
1051.248, 12809.63
1052.353, 12883.00
1053.459, 12705.00
1054.564, 12646.00
1055.670, 12463.00
1056.775, 12443.00
1057.880, 12467.00
1058.985, 12394.00
1060.089, 12425.00
1061.194, 12491.00
1062.298, 12506.00
1063.402, 12522.00
1064.506, 12550.00
1065.610, 12513.00
1066.713, 12670.00
1067.817, 12579.00
1068.920, 12700.00
1070.023, 12644.00
1071.126, 12543.00
1072.229, 12632.00
1073.332, 12629.00
1074.435, 12442.00
1075.537, 12481.00
1076.639, 12426.00
1077.741, 12600.00
1078.843, 12581.00
1079.945, 12647.00
1081.046, 12651.00
1082.148, 12647.00
1083.249, 12561.00
1084.350, 12710.00
1085.451, 12431.00
1086.551, 12665.00
1087.652, 12543.00
1088.752, 12447.00
1089.853, 12456.00
1090.953, 12429.00
1092.053, 12431.00
1093.152, 12368.00
1094.252, 12402.00
1095.351, 12373.00
1096.451, 12304.00
1097.550, 12357.00
1098.649, 12381.00
1099.748, 12536.00
1100.846, 12417.00
1101.945, 12728.00
1103.043, 12701.00
1104.141, 12878.00
1105.239, 12939.00
1106.337, 12931.00
1107.434, 12988.00
1108.532, 13304.00
1109.629, 13407.00
1110.726, 13492.00
1111.823, 13771.00
1112.920, 13697.00
1114.017, 13950.00
1115.113, 14173.00
1116.210, 14591.00
1117.306, 14851.00
1118.402, 14926.00
1119.498, 15217.00
1120.593, 15428.00
1121.689, 15476.00
1122.784, 15987.00
1123.879, 16159.00
1124.974, 16662.00
1126.069, 16766.00
1127.164, 17562.00
1128.259, 17928.00
1129.353, 18866.00
1130.447, 19574.00
1131.541, 20682.00
1132.635, 21745.00
1133.729, 22571.00
1134.822, 23458.00
1135.916, 24391.00
1137.009, 24983.00
1138.102, 25216.00
1139.195, 25465.00
1140.288, 25189.00
1141.380, 24649.00
1142.473, 23711.00
1143.565, 22998.00
1144.657, 21774.00
1145.749, 20563.00
1146.841, 19453.00
1147.932, 18538.00
1149.024, 17642.00
1150.115, 16853.00
1151.206, 16266.00
1152.297, 15652.00
1153.388, 15215.00
1154.479, 14680.00
1155.569, 14302.00
1156.659, 14181.00
1157.750, 13942.00
1158.839, 13720.00
1159.929, 13608.00
1161.019, 13480.00
1162.108, 13328.00
1163.198, 13281.00
1164.287, 13183.00
1165.376, 13106.00
1166.465, 13025.00
1167.553, 12997.00
1168.642, 12766.00
1169.730, 12811.00
1170.818, 12952.00
1171.906, 12814.00
1172.994, 12972.00
1174.082, 12866.00
1175.170, 12871.00
1176.257, 12910.00
1177.344, 12862.00
1178.431, 12715.00
1179.518, 12570.00
1180.605, 12680.00
1181.691, 12615.00
1182.778, 12657.00
1183.864, 12638.00
1184.950, 12680.00
1186.036, 12676.11
1187.122, 12719.00
1188.207, 12671.00
1189.292, 12643.00
1190.378, 12626.00
1191.463, 12676.00
1192.548, 12513.00
1193.632, 12411.00
1194.717, 12477.00
1195.801, 12511.00
1196.886, 12489.00
1197.970, 12400.00
1199.054, 12469.00
1200.137, 12460.00
1201.221, 12565.00
1202.305, 12591.00
1203.388, 12453.00
1204.471, 12373.00
1205.554, 12326.00
1206.637, 12419.00
1207.719, 12490.00
1208.802, 12360.00
1209.884, 12559.00
1210.966, 12525.00
1212.048, 12482.00
1213.130, 12597.00
1214.212, 12571.00
1215.293, 12581.00
1216.374, 12664.00
1217.456, 12661.00
1218.536, 12624.00
1219.617, 12709.00
1220.698, 12702.00
1221.778, 12573.00
1222.859, 12589.00
1223.939, 12595.00
1225.019, 12682.00
1226.099, 12691.00
1227.178, 12617.00
1228.258, 12616.00
1229.337, 12636.00
1230.417, 12636.00
1231.496, 12684.91
1232.574, 12569.00
1233.653, 12756.00
1234.732, 12804.00
1235.810, 12768.00
1236.888, 12905.00
1237.966, 12831.00
1239.044, 12995.00
1240.122, 13024.00
1241.199, 12824.00
1242.277, 12896.00
1243.354, 12975.00
1244.431, 12997.00
1245.508, 12905.00
1246.585, 12989.00
1247.661, 12843.00
1248.738, 12951.00
1249.814, 12893.00
1250.890, 13140.00
1251.966, 13023.00
1253.042, 13120.00
1254.117, 12940.00
1255.193, 13009.00
1256.268, 12928.00
1257.343, 13046.00
1258.418, 12925.00
1259.493, 12916.00
1260.567, 12895.00
1261.642, 13047.00
1262.716, 13276.00
1263.790, 13369.00
1264.864, 13200.00
1265.938, 13410.00
1267.011, 13355.00
1268.085, 13472.00
1269.158, 13368.00
1270.231, 13418.00
1271.304, 13442.00
1272.377, 13564.00
1273.450, 13503.00
1274.522, 13464.00
1275.594, 13605.00
1276.666, 13467.00
1277.738, 13398.00
1278.810, 13363.00
1279.882, 13405.00
1280.953, 13386.00
1282.025, 13228.00
1283.096, 13421.00
1284.167, 13357.00
1285.238, 13330.00
1286.308, 13115.00
1287.379, 13210.00
1288.449, 13088.00
1289.519, 13167.00
1290.589, 13331.00
1291.659, 13327.00
1292.729, 13538.00
1293.798, 13442.00
1294.868, 13402.00
1295.937, 13572.00
1297.006, 13594.00
1298.075, 13447.00
1299.143, 13372.00
1300.212, 13331.00
1301.280, 13308.60
1302.348, 13362.00
1303.416, 13370.00
1304.484, 13487.00
1305.552, 13568.00
1306.620, 13525.00
1307.687, 13534.00
1308.754, 13514.00
1309.821, 13700.00
1310.888, 13782.00
1311.955, 13772.00
1313.021, 13637.00
1314.088, 13829.00
1315.154, 13878.00
1316.220, 13798.00
1317.286, 13926.00
1318.352, 14029.00
1319.417, 13832.00
1320.483, 13786.00
1321.548, 13697.00
1322.613, 13739.00
1323.678, 13694.00
1324.743, 13664.00
1325.807, 13514.00
1326.872, 13544.00
1327.936, 13363.00
1329.000, 13306.00
1330.064, 13461.00
1331.128, 13404.00
1332.191, 13259.00
1333.255, 13399.00
1334.318, 13246.00
1335.381, 13202.00
1336.444, 13104.00
1337.507, 13154.00
1338.569, 13245.00
1339.632, 13183.00
1340.694, 13174.00
1341.756, 13116.00
1342.818, 13200.00
1343.880, 13178.00
1344.941, 13110.00
1346.003, 13115.00
1347.064, 13342.00
1348.125, 13222.00
1349.186, 13258.00
1350.247, 13152.00
1351.308, 13219.00
1352.368, 13107.00
1353.428, 13137.00
1354.489, 13174.00
1355.549, 13296.00
1356.608, 13288.00
1357.668, 13151.00
1358.727, 13325.00
1359.787, 13231.00
1360.846, 13277.00
1361.905, 12996.00
1362.964, 13220.00
1364.022, 13017.00
1365.081, 13249.00
1366.139, 13197.00
1367.197, 13088.00
1368.255, 13393.00
1369.313, 13370.00
1370.371, 13349.00
1371.428, 13318.00
1372.486, 13396.00
1373.543, 13420.00
1374.600, 13450.00
1375.657, 13452.00
1376.713, 13470.00
1377.770, 13443.00
1378.826, 13354.00
1379.882, 13457.00
1380.938, 13499.00
1381.994, 13492.00
1383.050, 13374.00
1384.106, 13512.00
1385.161, 13372.00
1386.216, 13454.00
1387.271, 13326.00
1388.326, 13499.00
1389.381, 13431.00
1390.435, 13358.00
1391.490, 13339.00
1392.544, 13378.00
1393.598, 13387.00
1394.652, 13426.00
1395.705, 13398.00
1396.759, 13311.00
1397.812, 13251.00
1398.866, 13373.00
1399.919, 13302.00
1400.972, 13346.00
1402.024, 13289.00
1403.077, 13395.00
1404.129, 13279.00
1405.181, 13221.00
1406.233, 13397.00
1407.285, 13315.00
1408.337, 13153.00
1409.389, 13239.00
1410.440, 13282.00
1411.491, 13321.00
1412.542, 13395.00
1413.593, 13418.00
1414.644, 13281.00
1415.695, 13298.00
1416.745, 13307.00
1417.795, 13365.00
1418.845, 13385.00
1419.895, 13369.00
1420.945, 13350.00
1421.995, 13356.00
1423.044, 13348.00
1424.093, 13414.00
1425.142, 13408.00
1426.191, 13513.00
1427.240, 13529.00
1428.289, 13462.00
1429.337, 13666.00
1430.385, 13606.00
1431.433, 13767.00
1432.481, 13739.00
1433.529, 13830.00
1434.577, 13908.00
1435.624, 13991.00
1436.672, 14130.48
1437.719, 14330.00
1438.766, 14440.00
1439.812, 14662.00
1440.859, 14866.00
1441.905, 14915.00
1442.952, 15079.00
1443.998, 14963.00
1445.044, 15154.00
1446.090, 15121.00
1447.135, 15058.00
1448.181, 15086.00
1449.226, 15317.00
1450.271, 15523.00
1451.316, 15471.00
1452.361, 15538.00
1453.405, 15560.00
1454.450, 15599.00
1455.494, 15480.00
1456.538, 15606.00
1457.582, 15440.00
1458.626, 15465.00
1459.670, 15351.00
1460.713, 15186.00
1461.757, 15128.00
1462.800, 15073.00
1463.843, 15073.00
1464.886, 14932.00
1465.928, 14920.00
1466.971, 14713.00
1468.013, 14653.00
1469.055, 14584.00
1470.097, 14374.00
1471.139, 14468.00
1472.181, 14335.00
1473.222, 14336.00
1474.263, 14232.00
1475.305, 14246.00
1476.346, 14236.60
1477.386, 14294.00
1478.427, 14276.00
1479.468, 14324.00
1480.508, 14383.00
1481.548, 14303.13
1482.588, 14597.00
1483.628, 14223.00
1484.668, 13963.00
1485.707, 14035.00
1486.747, 14042.00
1487.786, 14005.00
1488.825, 14071.00
1489.864, 13858.00
1490.902, 13959.00
1491.941, 13720.00
1492.979, 13857.00
1494.017, 13876.00
1495.055, 13726.00
1496.093, 13895.00
1497.131, 13733.00
1498.168, 13750.00
1499.206, 13741.00
1500.243, 13651.00
1501.280, 13647.00
1502.317, 13605.31
1503.354, 13657.00
1504.390, 13584.00
1505.426, 13691.00
1506.463, 13778.00
1507.499, 13673.00
1508.535, 13802.00
1509.570, 13616.00
1510.606, 13758.00
1511.641, 13712.00
1512.676, 13624.00
1513.711, 13669.00
1514.746, 13599.00
1515.781, 13687.00
1516.816, 13691.00
1517.850, 13842.00
1518.884, 13783.00
1519.918, 13732.00
1520.952, 14012.00
1521.986, 13841.00
1523.019, 13773.00
1524.053, 13836.00
1525.086, 13861.00
1526.119, 13928.00
1527.152, 13842.00
1528.185, 13861.00
1529.217, 13856.05
1530.250, 13875.35
1531.282, 13872.00
1532.314, 13979.00
1533.346, 14060.00
1534.377, 14142.00
1535.409, 14118.00
1536.440, 14120.00
1537.472, 14097.00
1538.503, 14072.57
1539.534, 14057.00
1540.564, 13982.00
1541.595, 14082.00
1542.625, 13975.00
1543.656, 14170.00
1544.686, 14042.00
1545.716, 14179.00
1546.745, 14176.00
1547.775, 13973.00
1548.804, 14197.00
1549.834, 14002.00
1550.863, 14375.00
1551.892, 14719.00
1552.920, 14201.00
1553.949, 14170.00
1554.977, 14177.00
1556.006, 14225.00
1557.034, 13989.00
1558.062, 14094.00
1559.089, 14159.00
1560.117, 14075.00
1561.144, 14227.00
1562.172, 14044.00
1563.199, 14130.00
1564.226, 14073.00
1565.252, 14243.00
1566.279, 14072.00
1567.305, 14267.00
1568.332, 14014.00
1569.358, 14148.00
1570.384, 14217.00
1571.409, 14179.00
##END=



