##NAMES=Epididymite
##RRUFFID=R070580
##IDEAL CHEMISTRY=Na_2_Be_2_Si_6_O_15_&#183;H_2_O
##LOCALITY=Narsarsuk, Narsaq, Kitaa, Greenland
##OWNER=RRUFF
##SOURCE=James Shigley
##DESCRIPTION=A translucent to white elongated prism.
##STATUS=The identification of this mineral is confirmed by single-crystal X-ray diffraction and chemical analysis.
##URL=rruff.info/R070580
##MEASURED CHEMISTRY=(Na_1.97_K_0.03_)_Σ=2_Be_2_Si_6.00_O_15_·H_2_O; trace amounts of Al; Be and H_2_O assumed by stoichiometry
##PIN_ID=M01011
##ORIENTATION=Laser parallel to c* (0 0 1). Fiducial mark perpendicular to laser is parallel to a [1 0 0]
111.2060, 6612.000
112.4440, 6672.000
113.6810, 6843.000
114.9180, 7170.000
116.1550, 7580.000
117.3920, 7854.000
118.6290, 8223.000
119.8650, 8401.000
121.1010, 8800.000
122.3370, 9158.000
123.5730, 9521.000
124.8090, 9624.000
126.0450, 9466.000
127.2800, 9508.000
128.5150, 9617.000
129.7500, 10200.00
130.9850, 10861.00
132.2200, 10967.00
133.4540, 11161.00
134.6890, 10650.00
135.9230, 9908.000
137.1570, 9097.000
138.3900, 8299.000
139.6240, 7811.000
140.8580, 7503.000
142.0910, 7106.000
143.3240, 6940.000
144.5570, 6880.000
145.7900, 6848.000
147.0220, 6827.000
148.2550, 6867.918
149.4870, 6955.000
150.7190, 6983.000
151.9510, 6978.000
153.1830, 7004.000
154.4140, 6978.808
155.6460, 6934.000
156.8770, 6911.000
158.1080, 6911.000
159.3390, 6851.000
160.5690, 6868.000
161.8000, 6762.000
163.0300, 6914.000
164.2600, 6903.000
165.4900, 7083.000
166.7200, 7150.000
167.9500, 7107.000
169.1790, 7302.000
170.4080, 7224.000
171.6380, 7172.000
172.8670, 7080.000
174.0950, 7052.000
175.3240, 7102.000
176.5520, 7051.000
177.7810, 6988.000
179.0090, 7094.000
180.2370, 7084.000
181.4640, 7068.000
182.6920, 7122.000
183.9190, 7228.000
185.1460, 7193.000
186.3730, 7389.000
187.6000, 7483.000
188.8270, 7453.000
190.0530, 7695.000
191.2800, 7787.000
192.5060, 7846.000
193.7320, 8044.000
194.9580, 8140.000
196.1830, 8153.000
197.4090, 8347.000
198.6340, 8316.000
199.8590, 8315.000
201.0840, 8116.000
202.3090, 8129.000
203.5340, 8004.000
204.7580, 7898.000
205.9820, 7800.000
207.2060, 7623.000
208.4300, 7476.000
209.6540, 7347.000
210.8780, 7366.000
212.1010, 7455.000
213.3240, 7309.000
214.5470, 7347.000
215.7700, 7418.000
216.9930, 7390.000
218.2150, 7483.959
219.4380, 7494.000
220.6600, 7610.000
221.8820, 7612.000
223.1040, 7634.000
224.3260, 7767.000
225.5470, 7917.000
226.7680, 8045.000
227.9900, 8054.000
229.2110, 8325.000
230.4310, 8369.000
231.6520, 8706.000
232.8720, 8855.000
234.0930, 9103.000
235.3130, 9342.000
236.5330, 9578.000
237.7530, 9932.000
238.9720, 9940.000
240.1920, 10158.00
241.4110, 10309.00
242.6300, 10236.00
243.8490, 9968.000
245.0680, 9714.000
246.2860, 9330.000
247.5040, 9022.000
248.7230, 8927.000
249.9410, 8546.000
251.1590, 8309.000
252.3760, 8359.000
253.5940, 8174.000
254.8110, 8152.000
256.0280, 8092.000
257.2450, 8085.000
258.4620, 8018.000
259.6790, 8207.000
260.8950, 8101.888
262.1120, 8139.000
263.3280, 7985.000
264.5440, 7926.000
265.7600, 7766.000
266.9750, 7777.000
268.1910, 7725.000
269.4060, 7626.000
270.6210, 7615.000
271.8360, 7657.000
273.0510, 7522.000
274.2650, 7475.000
275.4800, 7555.000
276.6940, 7515.000
277.9080, 7486.000
279.1220, 7487.000
280.3360, 7445.583
281.5490, 7526.000
282.7630, 7393.000
283.9760, 7472.000
285.1890, 7463.000
286.4020, 7449.000
287.6150, 7522.000
288.8270, 7492.000
290.0400, 7459.000
291.2520, 7500.000
292.4640, 7517.000
293.6760, 7541.000
294.8870, 7534.402
296.0990, 7490.000
297.3100, 7481.000
298.5210, 7488.000
299.7320, 7413.000
300.9430, 7431.000
302.1540, 7551.000
303.3640, 7477.000
304.5750, 7608.000
305.7850, 7632.000
306.9950, 7539.000
308.2050, 7556.000
309.4140, 7623.000
310.6240, 7522.000
311.8330, 7708.000
313.0420, 7627.000
314.2510, 7697.000
315.4600, 7739.000
316.6680, 7796.000
317.8770, 7810.336
319.0850, 7958.000
320.2930, 7859.000
321.5010, 7886.000
322.7090, 7986.000
323.9160, 8198.000
325.1240, 8129.000
326.3310, 8221.000
327.5380, 8189.000
328.7450, 8408.000
329.9520, 8328.000
331.1580, 8397.000
332.3650, 8546.000
333.5710, 8468.000
334.7770, 8476.000
335.9830, 8535.000
337.1880, 8443.000
338.3940, 8472.000
339.5990, 8466.000
340.8040, 8439.000
342.0090, 8639.000
343.2140, 8569.000
344.4190, 8597.000
345.6230, 8628.000
346.8280, 8545.000
348.0320, 8554.000
349.2360, 8506.000
350.4400, 8276.000
351.6430, 8293.000
352.8470, 8234.000
354.0500, 8165.000
355.2530, 8166.000
356.4560, 8179.000
357.6590, 8014.000
358.8620, 8109.000
360.0640, 8043.000
361.2660, 8076.000
362.4680, 8259.000
363.6700, 8213.000
364.8720, 8251.000
366.0740, 8311.000
367.2750, 8277.000
368.4760, 8301.000
369.6770, 8259.000
370.8780, 8434.000
372.0790, 8727.000
373.2800, 8683.000
374.4800, 8822.000
375.6800, 8967.000
376.8800, 9084.000
378.0800, 9266.000
379.2800, 9366.000
380.4790, 9683.000
381.6790, 9703.000
382.8780, 9611.000
384.0770, 9751.000
385.2760, 9587.000
386.4750, 9527.000
387.6730, 9569.000
388.8720, 9290.000
390.0700, 9193.000
391.2680, 9128.000
392.4660, 8910.000
393.6630, 9068.000
394.8610, 9023.000
396.0580, 9232.000
397.2550, 9373.000
398.4520, 9878.000
399.6490, 10501.00
400.8460, 11241.00
402.0420, 11538.00
403.2390, 11897.00
404.4350, 12545.00
405.6310, 13227.00
406.8270, 13662.79
408.0220, 14170.00
409.2180, 14144.00
410.4130, 13640.00
411.6080, 12607.00
412.8030, 11262.00
413.9980, 10442.00
415.1920, 9719.000
416.3870, 9256.000
417.5810, 9011.000
418.7750, 8845.000
419.9690, 8823.000
421.1630, 8763.000
422.3570, 8673.000
423.5500, 8584.000
424.7430, 8639.299
425.9360, 8664.000
427.1290, 8758.000
428.3220, 8903.000
429.5150, 8949.000
430.7070, 8910.000
431.8990, 9037.000
433.0910, 8985.000
434.2830, 9136.000
435.4750, 9150.000
436.6670, 9219.000
437.8580, 8968.000
439.0490, 9076.000
440.2400, 9017.000
441.4310, 8800.000
442.6220, 8823.000
443.8130, 8730.000
445.0030, 8793.000
446.1930, 8673.000
447.3830, 8591.000
448.5730, 8784.000
449.7630, 8748.000
450.9520, 8705.000
452.1420, 8841.000
453.3310, 8875.000
454.5200, 8840.000
455.7090, 8903.545
456.8980, 9000.000
458.0860, 8952.000
459.2740, 8998.000
460.4630, 9096.000
461.6510, 9128.000
462.8380, 9090.000
464.0260, 9246.000
465.2140, 9311.000
466.4010, 9565.000
467.5880, 9654.000
468.7750, 9822.000
469.9620, 10247.00
471.1490, 10409.00
472.3350, 10751.00
473.5220, 11000.00
474.7080, 11311.00
475.8940, 11486.00
477.0800, 11740.00
478.2650, 11751.00
479.4510, 11489.00
480.6360, 11527.00
481.8210, 11510.00
483.0060, 11629.00
484.1910, 11584.00
485.3760, 11770.00
486.5600, 11690.00
487.7440, 11451.00
488.9290, 11178.00
490.1130, 10778.00
491.2960, 10428.00
492.4800, 10200.00
493.6630, 10000.00
494.8470, 9827.000
496.0300, 9776.000
497.2130, 9660.000
498.3960, 9810.000
499.5780, 9691.000
500.7610, 9904.000
501.9430, 10052.00
503.1250, 10133.00
504.3070, 10247.00
505.4890, 10748.00
506.6710, 11165.00
507.8520, 11692.00
509.0330, 12535.00
510.2140, 13671.00
511.3950, 15436.00
512.5760, 17310.00
513.7570, 19166.00
514.9370, 20700.00
516.1170, 22653.00
517.2980, 24384.00
518.4780, 26261.00
519.6570, 27058.00
520.8370, 27086.00
522.0160, 25837.00
523.1960, 23627.00
524.3750, 20768.00
525.5540, 17835.00
526.7320, 15670.00
527.9110, 14050.00
529.0890, 13028.00
530.2680, 12035.00
531.4460, 11541.00
532.6240, 11199.00
533.8010, 10640.00
534.9790, 10540.00
536.1560, 10391.00
537.3340, 10468.00
538.5110, 10224.00
539.6880, 10203.00
540.8650, 10013.00
542.0410, 9853.000
543.2180, 10037.00
544.3940, 9786.000
545.5700, 9771.000
546.7460, 9828.000
547.9220, 9713.000
549.0970, 9751.000
550.2730, 9790.000
551.4480, 9698.000
552.6230, 9591.000
553.7980, 9720.000
554.9730, 9598.000
556.1470, 9615.000
557.3210, 9632.000
558.4960, 9617.000
559.6700, 9739.000
560.8440, 9728.000
562.0170, 9734.000
563.1910, 9614.000
564.3640, 9678.000
565.5380, 9735.000
566.7110, 9834.000
567.8840, 9722.000
569.0560, 9878.000
570.2290, 9798.000
571.4010, 9846.000
572.5740, 9927.000
573.7460, 10117.00
574.9180, 10204.00
576.0890, 10291.00
577.2610, 10404.00
578.4320, 10679.00
579.6040, 10904.00
580.7750, 11069.00
581.9450, 11343.00
583.1160, 11376.00
584.2870, 11520.00
585.4570, 11690.00
586.6270, 11520.00
587.7980, 11324.00
588.9670, 10918.00
590.1370, 10640.00
591.3070, 10542.00
592.4760, 10430.00
593.6450, 10262.00
594.8140, 10128.00
595.9830, 10132.00
597.1520, 10119.00
598.3210, 10145.00
599.4890, 10187.00
600.6570, 10149.86
601.8250, 10158.00
602.9930, 10086.00
604.1610, 10018.00
605.3290, 9958.000
606.4960, 9927.000
607.6630, 9900.884
608.8300, 9927.850
609.9970, 9973.000
611.1640, 9946.000
612.3300, 10007.93
613.4970, 10038.00
614.6630, 10069.00
615.8290, 10096.00
616.9950, 10070.00
618.1610, 10092.00
619.3260, 10072.00
620.4920, 10141.00
621.6570, 10120.00
622.8220, 10103.00
623.9870, 10033.00
625.1520, 10244.00
626.3160, 10472.00
627.4810, 10393.00
628.6450, 10392.00
629.8090, 10495.00
630.9730, 10542.00
632.1370, 10534.00
633.3000, 10510.00
634.4640, 10557.00
635.6270, 10539.00
636.7900, 10388.00
637.9530, 10383.00
639.1160, 10233.00
640.2780, 10377.00
641.4410, 10250.00
642.6030, 10173.00
643.7650, 10230.00
644.9270, 10077.00
646.0890, 10148.00
647.2500, 10242.00
648.4120, 10203.00
649.5730, 10308.00
650.7340, 10363.00
651.8950, 10345.00
653.0560, 10377.91
654.2160, 10262.00
655.3770, 10346.00
656.5370, 10311.00
657.6970, 10283.00
658.8570, 10390.00
660.0170, 10278.00
661.1760, 10349.00
662.3360, 10237.00
663.4950, 10230.00
664.6540, 10440.00
665.8130, 10288.00
666.9720, 10461.00
668.1310, 10436.00
669.2890, 10416.00
670.4470, 10446.00
671.6050, 10483.00
672.7630, 10566.00
673.9210, 10362.00
675.0790, 10451.00
676.2360, 10424.00
677.3930, 10560.00
678.5510, 10422.00
679.7080, 10620.00
680.8640, 10569.00
682.0210, 10477.00
683.1770, 10482.00
684.3340, 10570.00
685.4900, 10504.00
686.6460, 10691.00
687.8020, 10532.00
688.9570, 10423.00
690.1130, 10406.00
691.2680, 10515.00
692.4230, 10527.00
693.5780, 10617.00
694.7330, 10578.00
695.8880, 10446.00
697.0420, 10605.00
698.1960, 10829.00
699.3510, 10447.00
700.5040, 10680.00
701.6580, 10622.00
702.8120, 10779.00
703.9650, 10740.00
705.1190, 10758.00
706.2720, 10707.00
707.4250, 10880.00
708.5780, 10730.00
709.7300, 10807.00
710.8830, 10825.00
712.0350, 10789.00
713.1870, 10861.00
714.3390, 10865.00
715.4910, 10894.00
716.6430, 10948.00
717.7940, 10971.00
718.9460, 11013.00
720.0970, 10867.00
721.2480, 10807.00
722.3990, 10850.00
723.5500, 10898.00
724.7000, 10893.62
725.8500, 10955.00
727.0010, 10946.00
728.1510, 10969.65
729.3010, 11092.00
730.4500, 10988.00
731.6000, 11047.00
732.7490, 11036.00
733.8980, 10913.00
735.0470, 11116.00
736.1960, 11138.00
737.3450, 11031.00
738.4940, 11116.00
739.6420, 11059.00
740.7900, 11093.00
741.9380, 11140.00
743.0860, 10996.00
744.2340, 11197.00
745.3810, 11204.00
746.5290, 11099.00
747.6760, 11279.00
748.8230, 11162.00
749.9700, 11152.00
751.1170, 11168.00
752.2630, 11265.00
753.4100, 11282.00
754.5560, 11297.00
755.7020, 11251.00
756.8480, 11286.00
757.9940, 11421.00
759.1390, 11301.00
760.2850, 11204.00
761.4300, 11414.00
762.5750, 11256.00
763.7200, 11418.00
764.8650, 11295.00
766.0100, 11469.00
767.1540, 11378.00
768.2980, 11463.00
769.4420, 11455.00
770.5860, 11415.00
771.7300, 11413.00
772.8740, 11393.00
774.0170, 11523.00
775.1610, 11384.00
776.3040, 11484.00
777.4470, 11449.00
778.5900, 11403.00
779.7320, 11576.00
780.8750, 11615.00
782.0170, 11603.00
783.1590, 11538.00
784.3010, 11669.00
785.4430, 11524.00
786.5850, 11454.00
787.7260, 11527.00
788.8680, 11454.00
790.0090, 11495.27
791.1500, 11527.21
792.2910, 11554.00
793.4310, 11599.00
794.5720, 11623.00
795.7120, 11645.00
796.8520, 11640.00
797.9920, 11853.00
799.1320, 11614.00
800.2720, 11865.00
801.4120, 11771.00
802.5510, 11705.00
803.6900, 11746.00
804.8290, 11840.00
805.9680, 11940.00
807.1070, 11828.00
808.2450, 11980.00
809.3840, 12040.00
810.5220, 12016.00
811.6600, 12127.00
812.7980, 12124.00
813.9360, 12194.00
815.0730, 12265.00
816.2110, 12397.00
817.3480, 12254.00
818.4850, 12270.00
819.6220, 12374.00
820.7590, 12186.00
821.8960, 12220.00
823.0320, 12031.00
824.1680, 12139.00
825.3040, 12051.00
826.4400, 12075.00
827.5760, 12082.00
828.7120, 12104.00
829.8470, 12099.94
830.9830, 12102.05
832.1180, 12105.00
833.2530, 12085.00
834.3880, 12121.00
835.5220, 12101.00
836.6570, 12223.00
837.7910, 12154.00
838.9250, 12188.00
840.0590, 12164.00
841.1930, 12261.00
842.3270, 12332.00
843.4600, 12325.24
844.5940, 12367.42
845.7270, 12318.00
846.8600, 12358.00
847.9930, 12295.00
849.1250, 12260.00
850.2580, 12373.00
851.3900, 12427.00
852.5230, 12308.00
853.6550, 12382.00
854.7870, 12495.00
855.9180, 12333.00
857.0500, 12448.00
858.1810, 12320.00
859.3130, 12499.00
860.4440, 12610.00
861.5750, 12333.00
862.7050, 12587.00
863.8360, 12583.00
864.9660, 12564.00
866.0970, 12765.00
867.2270, 12754.00
868.3570, 12645.00
869.4870, 12754.00
870.6160, 12808.00
871.7460, 12606.00
872.8750, 12653.00
874.0040, 12668.00
875.1330, 12794.00
876.2620, 12660.00
877.3910, 12717.00
878.5190, 12773.00
879.6470, 12760.00
880.7760, 12797.00
881.9040, 12810.57
883.0310, 12730.00
884.1590, 12845.00
885.2870, 12767.00
886.4140, 12797.00
887.5410, 12835.00
888.6680, 12757.00
889.7950, 12778.00
890.9220, 12763.42
892.0480, 12749.76
893.1750, 12753.00
894.3010, 12766.00
895.4270, 12777.06
896.5530, 12813.00
897.6790, 12836.00
898.8040, 12782.00
899.9300, 12766.00
901.0550, 12917.00
902.1800, 12839.00
903.3050, 12989.00
904.4300, 12758.00
905.5540, 12930.00
906.6790, 12969.00
907.8030, 13037.00
908.9270, 12967.00
910.0510, 12879.00
911.1750, 12922.00
912.2990, 12955.00
913.4220, 12986.00
914.5450, 12949.00
915.6690, 13047.00
916.7920, 12917.00
917.9140, 13118.00
919.0370, 13043.00
920.1600, 13090.00
921.2820, 13159.00
922.4040, 13011.00
923.5260, 13026.00
924.6480, 13052.00
925.7700, 13039.55
926.8910, 13129.00
928.0130, 13158.00
929.1340, 13213.00
930.2550, 13345.00
931.3760, 13148.00
932.4970, 13038.00
933.6170, 13112.00
934.7380, 13289.00
935.8580, 13322.00
936.9780, 13103.00
938.0980, 13329.00
939.2180, 13290.00
940.3370, 13248.00
941.4570, 13306.00
942.5760, 13295.56
943.6950, 13284.00
944.8140, 13355.00
945.9330, 13338.93
947.0520, 13500.00
948.1700, 13381.00
949.2890, 13440.00
950.4070, 13497.00
951.5250, 13403.00
952.6430, 13344.00
953.7600, 13404.00
954.8780, 13422.00
955.9950, 13443.00
957.1120, 13445.00
958.2290, 13442.17
959.3460, 13420.51
960.4630, 13417.00
961.5800, 13413.00
962.6960, 13398.00
963.8120, 13520.00
964.9280, 13529.00
966.0440, 13583.00
967.1600, 13586.00
968.2760, 13612.67
969.3910, 13692.00
970.5060, 13660.00
971.6210, 13713.00
972.7360, 13758.00
973.8510, 13833.00
974.9660, 13696.00
976.0800, 13757.00
977.1950, 13793.00
978.3090, 13778.00
979.4230, 13828.00
980.5370, 13896.00
981.6500, 13812.00
982.7640, 13859.00
983.8770, 13895.00
984.9900, 13839.00
986.1030, 13728.00
987.2160, 13921.00
988.3290, 13861.00
989.4420, 13918.00
990.5540, 13957.00
991.6660, 14031.00
992.7780, 14209.00
993.8900, 14217.00
995.0020, 14216.00
996.1140, 14072.00
997.2250, 14151.00
998.3360, 14165.00
999.4470, 14345.00
1000.558, 14288.00
1001.669, 14286.00
1002.780, 14308.00
1003.890, 14282.59
1005.001, 14310.36
1006.111, 14279.00
1007.221, 14367.00
1008.331, 14370.00
1009.440, 14437.00
1010.550, 14494.00
1011.659, 14454.00
1012.768, 14288.00
1013.877, 14392.00
1014.986, 14392.00
1016.095, 14464.00
1017.204, 14670.00
1018.312, 14595.00
1019.420, 14605.00
1020.528, 14518.00
1021.636, 14632.00
1022.744, 14528.00
1023.852, 14615.00
1024.959, 14742.00
1026.066, 14661.00
1027.173, 14660.00
1028.280, 14986.00
1029.387, 14750.00
1030.494, 14984.00
1031.600, 15051.00
1032.707, 15055.00
1033.813, 15240.00
1034.919, 15381.00
1036.025, 15260.00
1037.130, 15308.00
1038.236, 15509.00
1039.341, 15696.00
1040.446, 15427.00
1041.552, 15705.00
1042.656, 15659.00
1043.761, 15767.00
1044.866, 15852.00
1045.970, 15774.00
1047.074, 15935.00
1048.179, 15872.00
1049.282, 15777.00
1050.386, 15841.00
1051.490, 15820.00
1052.593, 15849.00
1053.697, 15823.84
1054.800, 15560.00
1055.903, 15743.00
1057.006, 15701.00
1058.108, 15639.00
1059.211, 15795.00
1060.313, 15653.00
1061.415, 15494.00
1062.517, 15820.00
1063.619, 15892.00
1064.721, 15790.00
1065.823, 15780.00
1066.924, 15810.00
1068.025, 15712.00
1069.126, 15851.00
1070.227, 15739.00
1071.328, 15701.00
1072.429, 15803.00
1073.529, 15714.35
1074.629, 15758.00
1075.729, 15637.00
1076.829, 15556.00
1077.929, 15426.00
1079.029, 15555.00
1080.128, 15490.00
1081.228, 15491.00
1082.327, 15598.00
1083.426, 15568.00
1084.525, 15485.00
1085.623, 15425.00
1086.722, 15404.28
1087.820, 15374.93
1088.919, 15395.00
1090.017, 15413.00
1091.115, 15486.00
1092.212, 15607.00
1093.310, 15591.00
1094.407, 15618.00
1095.505, 15545.00
1096.602, 15751.00
1097.699, 15677.00
1098.795, 15759.00
1099.892, 15835.00
1100.989, 15856.00
1102.085, 15732.00
1103.181, 15918.00
1104.277, 15849.00
1105.373, 16076.00
1106.469, 15874.00
1107.564, 15876.00
1108.660, 16121.00
1109.755, 15988.00
1110.850, 16243.00
1111.945, 16297.00
1113.040, 16333.00
1114.134, 16422.00
1115.229, 16468.00
1116.323, 16546.95
1117.417, 16657.00
1118.511, 16721.00
1119.605, 16771.00
1120.698, 16888.00
1121.792, 16986.94
1122.885, 17076.00
1123.978, 17307.00
1125.071, 17386.00
1126.164, 17691.00
1127.257, 17842.00
1128.349, 18088.00
1129.442, 18342.00
1130.534, 18698.00
1131.626, 18891.00
1132.718, 19234.00
1133.810, 19552.00
1134.901, 19546.00
1135.993, 19914.00
1137.084, 19907.00
1138.175, 19926.00
1139.266, 20038.00
1140.357, 19759.00
1141.448, 19735.00
1142.538, 19465.00
1143.628, 19076.00
1144.719, 18820.00
1145.809, 18480.00
1146.898, 18152.00
1147.988, 17814.00
1149.078, 17724.00
1150.167, 17611.00
1151.256, 17260.00
1152.345, 17201.00
1153.434, 17104.00
1154.523, 17084.00
1155.612, 16915.00
1156.700, 17070.00
1157.788, 16867.00
1158.877, 16807.00
1159.964, 16899.00
1161.052, 16867.00
1162.140, 16747.00
1163.227, 16700.00
1164.315, 16632.00
1165.402, 16594.00
1166.489, 16785.00
1167.576, 16742.00
1168.663, 16734.00
1169.749, 16633.00
1170.836, 16876.00
1171.922, 16751.00
1173.008, 16753.00
1174.094, 16771.00
1175.180, 16691.00
1176.265, 16739.00
1177.351, 16754.20
1178.436, 16694.00
1179.521, 16832.00
1180.606, 16841.00
1181.691, 16864.00
1182.776, 16854.00
1183.860, 16824.00
1184.944, 16883.00
1186.029, 16882.00
1187.113, 17011.00
1188.197, 17047.00
1189.280, 16931.00
1190.364, 17065.00
1191.447, 16892.00
1192.531, 16939.00
1193.614, 17084.00
1194.697, 16987.00
1195.779, 17016.00
1196.862, 17254.00
1197.945, 17081.00
1199.027, 17140.00
1200.109, 17226.00
1201.191, 16991.00
1202.273, 17166.00
1203.355, 17287.00
1204.436, 17350.00
1205.518, 17383.37
1206.599, 17238.00
1207.680, 17312.00
1208.761, 17377.00
1209.842, 17269.00
1210.922, 17359.84
1212.003, 17472.00
1213.083, 17389.00
1214.163, 17428.00
1215.243, 17390.00
1216.323, 17500.00
1217.402, 17424.00
1218.482, 17351.00
1219.561, 17660.00
1220.641, 17401.00
1221.720, 17536.00
1222.798, 17528.00
1223.877, 17657.00
1224.956, 17706.00
1226.034, 17772.00
1227.112, 17603.00
1228.191, 17574.00
1229.269, 17631.00
1230.346, 17714.00
1231.424, 17703.00
1232.501, 17822.00
1233.579, 17857.00
1234.656, 17860.00
1235.733, 17971.00
1236.810, 17855.00
1237.886, 17946.00
1238.963, 17967.00
1240.039, 17954.00
1241.116, 17853.00
1242.192, 17829.00
1243.268, 17869.00
1244.343, 17986.00
1245.419, 17968.50
1246.494, 17945.00
1247.570, 18043.00
1248.645, 17956.00
1249.720, 18036.00
1250.795, 18038.00
1251.869, 18052.00
1252.944, 17974.00
1254.018, 18080.00
1255.093, 18100.00
1256.167, 18311.00
1257.240, 18250.00
1258.314, 18158.00
1259.388, 18391.00
1260.461, 18451.00
1261.535, 18312.00
1262.608, 18394.00
1263.681, 18251.00
1264.753, 18286.00
1265.826, 18376.00
1266.899, 18457.00
1267.971, 18484.00
1269.043, 18429.00
1270.115, 18476.00
1271.187, 18602.00
1272.259, 18477.00
1273.330, 18552.00
1274.402, 18471.00
1275.473, 18632.00
1276.544, 18649.00
1277.615, 18665.00
1278.686, 18781.00
1279.756, 18759.00
1280.827, 18918.00
1281.897, 18995.00
1282.967, 18883.00
1284.037, 18778.00
1285.107, 18799.00
1286.177, 18963.00
1287.247, 18906.00
1288.316, 18951.00
1289.385, 19095.00
1290.454, 18996.00
1291.523, 18989.00
1292.592, 19187.00
1293.661, 19032.00
1294.729, 19007.00
1295.797, 19084.00
1296.866, 19302.00
1297.934, 19155.00
1299.001, 19195.00
1300.069, 19320.00
1301.137, 19306.00
1302.204, 19299.00
1303.271, 19258.00
1304.338, 19444.00
1305.405, 19455.00
1306.472, 19429.00
1307.539, 19536.00
1308.605, 19519.00
1309.671, 19506.00
1310.737, 19427.00
1311.803, 19429.00
1312.869, 19421.00
1313.935, 19380.84
1315.000, 19631.00
1316.066, 19382.00
1317.131, 19560.00
1318.196, 19675.00
1319.261, 19601.00
1320.326, 19826.00
1321.390, 19678.00
1322.455, 19709.00
1323.519, 19806.00
1324.583, 19748.00
1325.647, 19876.00
1326.711, 19871.00
1327.775, 19798.00
1328.838, 19898.00
1329.902, 19763.00
1330.965, 19948.00
1332.028, 19932.00
1333.091, 19923.00
1334.153, 20143.00
1335.216, 19853.00
1336.279, 19877.00
1337.341, 20164.00
1338.403, 19890.00
1339.465, 20152.00
1340.527, 19924.00
1341.588, 20128.00
1342.650, 20145.00
1343.711, 20159.00
1344.772, 20139.00
1345.834, 20152.00
1346.894, 20128.00
1347.955, 20337.00
1349.016, 20168.00
1350.076, 20378.00
1351.136, 20256.00
1352.197, 20334.00
1353.257, 20313.00
1354.316, 20438.00
1355.376, 20456.38
1356.436, 20325.00
1357.495, 20521.00
1358.554, 20452.00
1359.613, 20423.00
1360.672, 20761.00
1361.731, 20637.00
1362.789, 20443.00
1363.848, 20672.00
1364.906, 20342.00
1365.964, 20577.00
1367.022, 20722.00
1368.080, 20714.00
1369.138, 20775.00
1370.195, 20822.00
1371.253, 20865.04
1372.310, 20560.00
1373.367, 20938.00
1374.424, 20810.00
1375.480, 20736.00
1376.537, 20924.00
1377.593, 20859.00
1378.650, 20813.00
1379.706, 20978.00
1380.762, 20732.00
1381.818, 20894.00
1382.873, 20996.00
1383.929, 21009.00
1384.984, 20991.00
1386.039, 21198.00
1387.094, 21132.00
1388.149, 20951.00
1389.204, 21137.00
1390.259, 21247.00
1391.313, 20977.00
1392.367, 21098.00
1393.422, 21184.00
1394.476, 21197.00
1395.529, 21235.00
1396.583, 21291.00
1397.637, 21224.00
1398.690, 21433.00
1399.743, 21411.00
1400.796, 21326.00
1401.849, 21193.00
1402.902, 21244.00
1403.954, 21407.00
1405.007, 21327.00
1406.059, 21304.00
1407.111, 21502.00
1408.163, 21495.00
1409.215, 21572.00
1410.267, 21575.00
1411.318, 21549.00
1412.370, 21502.00
1413.421, 21664.00
1414.472, 21847.00
1415.523, 21615.00
1416.574, 21781.00
1417.624, 21785.00
1418.675, 21823.00
1419.725, 21711.00
1420.775, 21771.00
1421.825, 21864.00
1422.875, 22004.00
1423.925, 22049.00
1424.974, 22038.00
1426.024, 21942.00
1427.073, 22031.00
1428.122, 22234.00
1429.171, 22244.00
1430.220, 22452.00
1431.268, 22489.68
1432.317, 22531.00
1433.365, 22552.00
1434.413, 22508.00
1435.461, 22450.00
1436.509, 22534.00
1437.557, 22759.00
1438.605, 22583.00
1439.652, 22778.00
1440.699, 22565.00
1441.746, 22713.00
1442.793, 22770.00
1443.840, 22803.00
1444.887, 22898.65
1445.933, 22912.00
1446.980, 22973.00
1448.026, 22896.00
1449.072, 22818.00
1450.118, 22693.00
1451.163, 22873.00
1452.209, 22940.00
1453.254, 23008.00
1454.300, 23018.00
1455.345, 22860.00
1456.390, 23151.00
1457.435, 22974.00
1458.479, 22964.00
1459.524, 23100.00
1460.568, 23062.00
1461.612, 23247.00
1462.656, 23060.00
1463.700, 22928.00
1464.744, 23316.00
1465.788, 22928.00
1466.831, 23227.00
1467.874, 23308.00
1468.918, 23226.00
1469.961, 23127.00
1471.003, 23128.00
1472.046, 23163.00
1473.089, 23057.00
1474.131, 23249.00
1475.173, 23201.00
1476.215, 23126.00
1477.257, 23226.00
1478.299, 23102.00
1479.341, 23207.00
1480.382, 23137.00
1481.424, 23296.00
1482.465, 23291.00
1483.506, 23472.00
1484.547, 23398.00
1485.587, 23620.00
1486.628, 23612.00
1487.668, 23341.00
1488.709, 23580.00
1489.749, 23468.00
1490.789, 23347.00
1491.828, 23457.00
1492.868, 23519.00
1493.908, 23634.00
1494.947, 23630.00
1495.986, 23797.00
1497.025, 23575.00
1498.064, 23470.00
1499.103, 23481.00
1500.141, 23734.00
1501.180, 23720.00
1502.218, 23686.00
1503.256, 23579.00
1504.294, 23793.00
1505.332, 23579.00
1506.370, 23728.00
1507.407, 23769.00
1508.445, 23841.00
1509.482, 23877.32
1510.519, 23886.00
1511.556, 23931.00
1512.593, 23969.00
1513.629, 24065.00
1514.666, 23936.00
1515.702, 23845.00
1516.738, 24120.00
1517.774, 24127.00
1518.810, 23879.00
1519.846, 24122.00
1520.882, 24093.00
1521.917, 24087.00
1522.952, 24195.00
1523.987, 23916.00
1525.022, 24272.00
1526.057, 24187.00
1527.092, 24148.00
1528.126, 24358.00
1529.161, 24361.00
1530.195, 24398.00
1531.229, 24488.00
1532.263, 24342.00
1533.297, 24467.00
1534.330, 24370.00
1535.364, 24293.00
1536.397, 24320.00
1537.430, 24222.00
1538.463, 24242.71
1539.496, 24569.00
1540.529, 24348.00
1541.561, 24328.00
1542.594, 24568.00
1543.626, 24429.00
1544.658, 24615.00
1545.690, 24631.00
1546.722, 24493.00
1547.753, 24527.00
1548.785, 24696.00
1549.816, 24660.00
1550.847, 24776.00
1551.878, 24905.00
1552.909, 24812.00
1553.940, 24903.00
1554.971, 25087.00
1556.001, 24791.00
1557.031, 24726.00
1558.062, 24928.00
1559.092, 24951.00
1560.121, 24869.00
1561.151, 24919.00
1562.181, 24970.00
##END=



