##NAMES=Epididymite
##RRUFFID=R060773
##IDEAL CHEMISTRY=Na_2_Be_2_Si_6_O_15_&#183;H_2_O
##LOCALITY=unknown
##OWNER=RRUFF
##SOURCE=Michael Scott
##DESCRIPTION=Colorless platy crystals forming a pseudohexagonal aggregate
##STATUS=The identification of this mineral has been confirmed by single-crystal X-ray diffraction.
##URL=rruff.info/R060773
##PIN_ID=M00206
##ORIENTATION=Laser parallel to a* (1 0 0). Fiducial mark perpendicular to laser is parallel to b [0 1 0]
102.1160, 18940.00
103.3490, 19158.00
104.5820, 19461.00
105.8150, 19800.00
107.0470, 19947.00
108.2800, 20332.50
109.5120, 20665.03
110.7440, 21017.00
111.9760, 21424.00
113.2080, 21815.00
114.4400, 22192.00
115.6710, 22709.00
116.9030, 23309.00
118.1340, 23752.00
119.3650, 23571.00
120.5960, 23621.00
121.8270, 23207.00
123.0580, 22924.00
124.2880, 22126.00
125.5190, 21660.00
126.7490, 21223.00
127.9790, 20846.00
129.2090, 20567.00
130.4390, 20540.00
131.6680, 20179.00
132.8980, 20019.00
134.1270, 19985.00
135.3560, 19595.00
136.5850, 19445.00
137.8140, 19388.00
139.0430, 19366.00
140.2710, 19298.00
141.5000, 19208.00
142.7280, 19424.00
143.9560, 19256.00
145.1840, 19409.00
146.4120, 19418.00
147.6390, 19390.00
148.8670, 19507.00
150.0940, 19146.00
151.3210, 19218.00
152.5490, 18809.00
153.7750, 18651.00
155.0020, 18482.00
156.2290, 18337.00
157.4550, 18218.00
158.6810, 18075.00
159.9080, 17920.00
161.1340, 17960.00
162.3590, 18132.00
163.5850, 18036.00
164.8110, 17994.00
166.0360, 18063.00
167.2610, 17994.00
168.4860, 18007.00
169.7110, 18099.00
170.9360, 18006.00
172.1610, 18110.00
173.3850, 17944.00
174.6100, 18130.00
175.8340, 17963.00
177.0580, 18017.00
178.2820, 17948.00
179.5050, 18232.00
180.7290, 18126.00
181.9520, 18301.00
183.1760, 18455.00
184.3990, 18408.00
185.6220, 18649.00
186.8450, 18636.00
188.0670, 19085.00
189.2900, 19105.00
190.5120, 19197.00
191.7340, 19284.00
192.9560, 19487.00
194.1780, 19541.00
195.4000, 19779.00
196.6220, 19630.00
197.8430, 19687.00
199.0640, 19513.00
200.2860, 19472.00
201.5070, 19396.00
202.7270, 19195.00
203.9480, 19044.00
205.1690, 18882.79
206.3890, 18694.00
207.6090, 18579.00
208.8290, 18476.00
210.0490, 18448.00
211.2690, 18509.00
212.4890, 18573.00
213.7080, 18742.00
214.9280, 18783.03
216.1470, 18870.00
217.3660, 18946.00
218.5850, 19101.00
219.8030, 19204.00
221.0220, 19243.00
222.2400, 19432.00
223.4590, 19669.00
224.6770, 19913.00
225.8950, 20292.00
227.1120, 20537.00
228.3300, 21111.00
229.5480, 21736.00
230.7650, 22208.00
231.9820, 22780.00
233.1990, 23257.00
234.4160, 24120.00
235.6330, 24584.00
236.8490, 24992.00
238.0660, 25217.00
239.2820, 25216.00
240.4980, 25166.00
241.7140, 24857.00
242.9300, 24358.00
244.1460, 23744.00
245.3610, 23134.00
246.5770, 22575.00
247.7920, 21609.00
249.0070, 21379.00
250.2220, 20785.00
251.4370, 20636.00
252.6510, 20565.00
253.8660, 20235.00
255.0800, 19979.00
256.2940, 19969.00
257.5080, 19985.00
258.7220, 20003.00
259.9360, 19890.00
261.1490, 19547.00
262.3630, 19539.00
263.5760, 19485.00
264.7890, 19528.00
266.0020, 19349.00
267.2150, 19337.00
268.4270, 19128.00
269.6400, 19182.00
270.8520, 19279.00
272.0640, 19112.00
273.2760, 19090.00
274.4880, 19285.00
275.7000, 19087.00
276.9120, 19051.00
278.1230, 19136.00
279.3340, 19170.00
280.5450, 19113.00
281.7560, 19227.00
282.9670, 19018.00
284.1780, 19117.00
285.3880, 19055.00
286.5980, 19024.00
287.8090, 18943.00
289.0190, 18860.00
290.2290, 18840.00
291.4380, 18792.00
292.6480, 18700.00
293.8570, 18702.00
295.0670, 18658.00
296.2760, 18666.09
297.4850, 18686.92
298.6930, 18788.00
299.9020, 18767.00
301.1110, 18986.00
302.3190, 19072.00
303.5270, 18860.00
304.7350, 19047.00
305.9430, 18986.00
307.1510, 19055.00
308.3580, 19105.00
309.5660, 19175.00
310.7730, 19209.65
311.9800, 19213.00
313.1870, 19291.00
314.3940, 19323.00
315.6010, 19393.00
316.8070, 19460.00
318.0130, 19483.00
319.2200, 19559.00
320.4260, 19649.00
321.6310, 19728.73
322.8370, 19857.10
324.0430, 19970.00
325.2480, 20133.00
326.4540, 20334.00
327.6590, 20494.00
328.8640, 20660.00
330.0680, 20671.71
331.2730, 20530.00
332.4780, 20554.00
333.6820, 20508.00
334.8860, 20274.00
336.0900, 20324.00
337.2940, 20263.00
338.4980, 20145.00
339.7010, 20051.00
340.9050, 20134.00
342.1080, 20074.28
343.3110, 20077.28
344.5140, 20135.00
345.7170, 20085.00
346.9200, 20162.00
348.1220, 20193.00
349.3240, 20258.00
350.5270, 20249.00
351.7290, 20211.00
352.9310, 20120.00
354.1320, 20074.00
355.3340, 20183.00
356.5350, 20062.00
357.7370, 19988.00
358.9380, 20190.00
360.1390, 20005.00
361.3400, 20094.00
362.5400, 20000.00
363.7410, 20002.00
364.9410, 20089.00
366.1410, 19986.00
367.3410, 20104.00
368.5410, 20094.00
369.7410, 20045.00
370.9400, 20204.00
372.1400, 20185.00
373.3390, 20244.00
374.5380, 20360.00
375.7370, 20425.00
376.9360, 20512.33
378.1350, 20618.00
379.3330, 20690.00
380.5310, 20724.00
381.7300, 20830.00
382.9280, 20686.00
384.1260, 20747.00
385.3230, 20959.00
386.5210, 21008.00
387.7180, 21230.00
388.9160, 21028.00
390.1130, 21008.00
391.3100, 21259.00
392.5060, 21453.00
393.7030, 21762.00
394.9000, 22320.00
396.0960, 22737.00
397.2920, 23649.00
398.4880, 25083.00
399.6840, 26182.00
400.8800, 27071.00
402.0750, 28465.00
403.2710, 29261.00
404.4660, 30093.00
405.6610, 30270.00
406.8560, 29881.00
408.0510, 29120.00
409.2450, 28113.00
410.4400, 26578.00
411.6340, 24987.00
412.8280, 23786.00
414.0220, 22580.00
415.2160, 22067.00
416.4100, 21533.00
417.6030, 21226.00
418.7970, 21298.00
419.9900, 21186.00
421.1830, 20970.00
422.3760, 21076.00
423.5690, 21038.00
424.7610, 21275.00
425.9540, 21023.00
427.1460, 21289.00
428.3380, 21386.00
429.5300, 21442.00
430.7220, 21380.00
431.9140, 21545.00
433.1050, 21540.00
434.2970, 21599.00
435.4880, 21486.00
436.6790, 21506.00
437.8700, 21357.00
439.0610, 21417.00
440.2510, 21341.00
441.4420, 21202.00
442.6320, 21141.00
443.8220, 21195.00
445.0120, 21230.00
446.2020, 21219.00
447.3910, 21362.00
448.5810, 21507.00
449.7700, 21644.00
450.9600, 21752.00
452.1490, 21629.00
453.3370, 21941.00
454.5260, 21899.00
455.7150, 22156.00
456.9030, 21963.00
458.0910, 22072.00
459.2800, 22429.00
460.4670, 22494.00
461.6550, 22738.00
462.8430, 23170.00
464.0300, 23589.00
465.2180, 24220.00
466.4050, 24804.00
467.5920, 25714.00
468.7790, 26167.00
469.9650, 27156.00
471.1520, 27818.00
472.3380, 28440.00
473.5250, 28854.00
474.7110, 28688.00
475.8970, 28443.00
477.0820, 28290.00
478.2680, 27766.00
479.4540, 27097.00
480.6390, 26507.00
481.8240, 26421.00
483.0090, 26192.00
484.1940, 25585.00
485.3780, 25366.00
486.5630, 24944.00
487.7470, 24786.00
488.9320, 24433.00
490.1160, 24264.00
491.3000, 23778.00
492.4830, 23737.00
493.6670, 23770.00
494.8500, 23592.00
496.0340, 23761.00
497.2170, 23964.00
498.4000, 24136.00
499.5820, 24373.00
500.7650, 24615.00
501.9480, 25343.00
503.1300, 25708.00
504.3120, 26389.00
505.4940, 27595.00
506.6760, 29415.00
507.8580, 31401.00
509.0390, 34532.00
510.2210, 38277.00
511.4020, 42456.00
512.5830, 45957.00
513.7640, 50203.00
514.9450, 53482.00
516.1250, 55892.00
517.3060, 57579.00
518.4860, 56849.00
519.6660, 54698.00
520.8460, 51456.00
522.0260, 47025.00
523.2060, 42402.00
524.3850, 37747.00
525.5650, 34136.00
526.7440, 31558.00
527.9230, 29528.00
529.1020, 28001.00
530.2810, 27137.00
531.4590, 26297.00
532.6380, 25963.00
533.8160, 25502.00
534.9940, 24918.00
536.1720, 24890.00
537.3500, 24754.00
538.5270, 24511.00
539.7050, 24349.00
540.8820, 24313.00
542.0590, 24168.00
543.2360, 24197.00
544.4130, 24256.00
545.5900, 23917.00
546.7660, 24101.00
547.9430, 24004.00
549.1190, 23967.00
550.2950, 23946.00
551.4710, 24063.00
552.6470, 23880.00
553.8220, 23769.00
554.9980, 23956.00
556.1730, 23817.00
557.3480, 23869.00
558.5230, 24081.00
559.6980, 23879.00
560.8730, 24075.00
562.0470, 23958.00
563.2220, 23957.00
564.3960, 23995.00
565.5700, 24163.00
566.7440, 24149.00
567.9170, 24223.00
569.0910, 24461.00
570.2640, 24585.00
571.4380, 24578.00
572.6110, 24669.00
573.7840, 24778.00
574.9570, 25273.00
576.1290, 25505.00
577.3020, 26021.00
578.4740, 25999.00
579.6460, 26426.00
580.8180, 26610.00
581.9900, 26948.00
583.1620, 26954.00
584.3330, 27056.00
585.5040, 26874.00
586.6760, 26732.00
587.8470, 26166.00
589.0180, 26144.00
590.1880, 25793.00
591.3590, 25838.00
592.5290, 25524.00
593.7000, 25475.00
594.8700, 25386.00
596.0400, 25481.00
597.2090, 25349.00
598.3790, 25249.00
599.5490, 25344.00
600.7180, 25284.00
601.8870, 25238.27
603.0560, 25326.00
604.2250, 25130.00
605.3940, 25141.00
606.5620, 25100.03
607.7300, 24993.00
608.8990, 25172.00
610.0670, 25317.00
611.2350, 25361.00
612.4020, 25332.00
613.5700, 25052.00
614.7370, 25392.00
615.9050, 25464.00
617.0720, 25853.00
618.2390, 25881.00
619.4060, 26121.00
620.5720, 26042.00
621.7390, 26531.00
622.9050, 26778.00
624.0710, 27200.00
625.2370, 27476.00
626.4030, 27607.00
627.5690, 27692.00
628.7340, 27399.00
629.9000, 27333.00
631.0650, 27063.00
632.2300, 26786.00
633.3950, 26409.00
634.5600, 26400.00
635.7240, 26286.00
636.8890, 26037.00
638.0530, 26226.00
639.2170, 26217.00
640.3810, 26303.00
641.5450, 26155.00
642.7080, 26436.00
643.8720, 26712.00
645.0350, 26533.00
646.1980, 26692.00
647.3610, 26932.00
648.5240, 26946.00
649.6870, 26953.00
650.8490, 27060.00
652.0120, 26855.00
653.1740, 26668.00
654.3360, 26743.00
655.4980, 26555.00
656.6600, 26349.00
657.8210, 26331.00
658.9830, 26148.61
660.1440, 25867.00
661.3050, 25909.00
662.4660, 25815.00
663.6270, 25680.00
664.7870, 25776.00
665.9480, 25832.00
667.1080, 25685.00
668.2680, 25588.00
669.4280, 25766.00
670.5880, 25509.00
671.7480, 25771.00
672.9070, 25659.00
674.0670, 25795.00
675.2260, 25804.00
676.3850, 25567.00
677.5440, 25551.00
678.7030, 25597.00
679.8610, 25650.00
681.0200, 25582.00
682.1780, 25698.00
683.3360, 25507.00
684.4940, 25735.00
685.6520, 25641.00
686.8090, 25637.00
687.9670, 25527.00
689.1240, 25646.00
690.2810, 25594.00
691.4380, 25686.00
692.5950, 25687.00
693.7520, 25720.00
694.9080, 25677.00
696.0650, 25762.00
697.2210, 25798.00
698.3770, 25789.00
699.5330, 25680.00
700.6880, 25705.00
701.8440, 25834.00
702.9990, 25761.00
704.1550, 25974.00
705.3100, 26007.00
706.4650, 26054.00
707.6190, 26000.00
708.7740, 25979.00
709.9290, 26211.00
711.0830, 25921.00
712.2370, 26057.00
713.3910, 25974.00
714.5450, 26162.00
715.6980, 26285.00
716.8520, 26070.00
718.0050, 26212.00
719.1580, 26418.00
720.3110, 26340.00
721.4640, 26515.00
722.6170, 26496.00
723.7700, 26717.00
724.9220, 26590.00
726.0740, 26799.00
727.2260, 26823.00
728.3780, 26824.00
729.5300, 26917.46
730.6810, 26916.90
731.8330, 26980.00
732.9840, 26932.00
734.1350, 26953.00
735.2860, 26882.00
736.4370, 27020.00
737.5880, 26994.00
738.7380, 26914.00
739.8880, 26894.00
741.0390, 27065.00
742.1890, 27074.00
743.3380, 27101.00
744.4880, 27300.00
745.6380, 27336.17
746.7870, 27376.00
747.9360, 27490.00
749.0850, 27501.00
750.2340, 27441.00
751.3830, 27476.00
752.5310, 27581.00
753.6800, 27579.00
754.8280, 27441.00
755.9760, 27584.00
757.1240, 27643.00
758.2720, 27534.00
759.4190, 27804.00
760.5670, 27755.00
761.7140, 27804.00
762.8610, 27836.00
764.0080, 27914.00
765.1550, 27949.00
766.3020, 27992.41
767.4480, 27751.00
768.5950, 28071.00
769.7410, 27993.00
770.8870, 28026.00
772.0330, 28275.00
773.1780, 28191.00
774.3240, 27969.00
775.4690, 28389.00
776.6140, 28030.00
777.7590, 28081.00
778.9040, 28351.00
780.0490, 28206.00
781.1940, 28184.00
782.3380, 28249.00
783.4820, 28366.00
784.6260, 28462.00
785.7700, 28337.00
786.9140, 28474.00
788.0580, 28314.00
789.2010, 28804.00
790.3450, 28664.00
791.4880, 28575.00
792.6310, 28874.00
793.7730, 28883.00
794.9160, 28984.00
796.0590, 28883.00
797.2010, 29042.00
798.3430, 28872.00
799.4850, 29100.00
800.6270, 29071.00
801.7690, 28929.00
802.9100, 29100.00
804.0520, 29236.00
805.1930, 29196.00
806.3340, 29289.00
807.4750, 29407.00
808.6160, 29298.00
809.7560, 29364.00
810.8970, 29619.00
812.0370, 29307.00
813.1770, 29454.00
814.3170, 29678.00
815.4570, 29974.00
816.5960, 29925.00
817.7360, 29789.00
818.8750, 29754.00
820.0140, 29763.00
821.1530, 29566.00
822.2920, 29937.00
823.4310, 29985.00
824.5690, 30008.00
825.7070, 29945.00
826.8460, 29980.00
827.9840, 29974.00
829.1220, 30003.00
830.2590, 30200.00
831.3970, 30019.00
832.5340, 30240.00
833.6710, 30084.00
834.8080, 30303.00
835.9450, 30251.00
837.0820, 30229.00
838.2190, 30288.00
839.3550, 30286.00
840.4910, 30666.00
841.6270, 30511.00
842.7630, 30881.00
843.8990, 30894.00
845.0350, 31117.00
846.1700, 31109.00
847.3060, 31040.00
848.4410, 31388.00
849.5760, 31421.00
850.7100, 31474.00
851.8450, 31799.00
852.9800, 31733.00
854.1140, 32169.00
855.2480, 32298.00
856.3820, 32325.00
857.5160, 32683.00
858.6500, 32647.00
859.7830, 32944.00
860.9170, 33055.00
862.0500, 32803.00
863.1830, 32883.00
864.3160, 32719.00
865.4480, 32437.00
866.5810, 32398.00
867.7130, 32086.00
868.8460, 32086.00
869.9780, 31864.00
871.1100, 31911.00
872.2410, 31602.00
873.3730, 31831.00
874.5050, 31722.00
875.6360, 31776.00
876.7670, 31640.00
877.8980, 31675.00
879.0290, 31764.00
880.1590, 31514.00
881.2900, 31439.00
882.4200, 31749.00
883.5500, 31455.00
884.6800, 31564.00
885.8100, 31721.00
886.9400, 31561.00
888.0690, 31574.00
889.1990, 31486.00
890.3280, 31511.91
891.4570, 31649.00
892.5860, 31617.00
893.7140, 31740.00
894.8430, 31819.00
895.9710, 32018.00
897.1000, 32001.00
898.2280, 31888.00
899.3560, 32017.00
900.4830, 32036.00
901.6110, 31851.00
902.7380, 31956.00
903.8660, 32101.00
904.9930, 32278.00
906.1200, 32114.00
907.2460, 32087.00
908.3730, 32138.00
909.5000, 32119.00
910.6260, 32219.00
911.7520, 32103.00
912.8780, 32224.00
914.0040, 32054.00
915.1290, 32119.00
916.2550, 32055.00
917.3800, 31947.00
918.5050, 32032.00
919.6300, 31886.00
920.7550, 31869.00
921.8800, 31911.00
923.0040, 31879.00
924.1290, 31866.00
925.2530, 31958.00
926.3770, 31963.00
927.5010, 32072.00
928.6250, 32198.00
929.7480, 32229.05
930.8720, 32223.00
931.9950, 32340.00
933.1180, 32250.00
934.2410, 32264.00
935.3640, 32265.00
936.4860, 32268.00
937.6090, 32467.00
938.7310, 32429.00
939.8530, 32383.00
940.9750, 32274.00
942.0970, 32335.00
943.2180, 32537.00
944.3400, 32403.00
945.4610, 32550.00
946.5820, 32506.00
947.7030, 32425.00
948.8240, 32550.00
949.9450, 32625.00
951.0650, 32719.00
952.1860, 32866.00
953.3060, 32927.00
954.4260, 32997.54
955.5460, 32936.00
956.6650, 33066.00
957.7850, 32950.00
958.9040, 32917.00
960.0230, 33099.00
961.1420, 32755.00
962.2610, 32836.00
963.3800, 32897.00
964.4990, 33092.00
965.6170, 33094.82
966.7350, 33148.15
967.8530, 33183.00
968.9710, 33062.00
970.0890, 33117.00
971.2070, 32855.00
972.3240, 33110.00
973.4410, 32706.00
974.5580, 33196.00
975.6750, 33006.00
976.7920, 33117.00
977.9090, 33233.00
979.0250, 33485.00
980.1410, 33069.00
981.2580, 33362.00
982.3740, 33273.00
983.4890, 33505.00
984.6050, 33598.00
985.7200, 33660.00
986.8360, 33854.00
987.9510, 34042.00
989.0660, 33745.00
990.1810, 33863.00
991.2950, 33962.00
992.4100, 34068.00
993.5240, 34175.00
994.6390, 34126.00
995.7530, 34040.00
996.8660, 34495.00
997.9800, 34788.00
999.0940, 35665.00
1000.207, 35256.00
1001.320, 35843.00
1002.433, 36278.00
1003.546, 36336.00
1004.659, 36129.00
1005.772, 36034.00
1006.884, 35154.00
1007.996, 34966.00
1009.108, 34914.00
1010.220, 34563.00
1011.332, 34591.50
1012.444, 34554.97
1013.555, 34397.00
1014.666, 34806.00
1015.777, 34443.00
1016.888, 34883.00
1017.999, 34864.00
1019.110, 34897.00
1020.220, 35132.00
1021.331, 34910.00
1022.441, 35211.00
1023.551, 35300.00
1024.661, 35361.00
1025.770, 35507.00
1026.880, 35367.00
1027.989, 35309.00
1029.098, 35216.00
1030.207, 35515.00
1031.316, 35210.00
1032.425, 35408.00
1033.533, 35475.00
1034.642, 35325.00
1035.750, 35184.00
1036.858, 35825.00
1037.966, 35680.00
1039.073, 35951.00
1040.181, 35865.00
1041.288, 36019.00
1042.396, 35940.00
1043.503, 36169.00
1044.610, 36217.00
1045.716, 36233.00
1046.823, 36151.00
1047.929, 36225.42
1049.036, 36263.00
1050.142, 36282.00
1051.248, 36258.00
1052.353, 36253.00
1053.459, 36207.00
1054.564, 36324.00
1055.670, 36286.00
1056.775, 36135.00
1057.880, 36164.00
1058.985, 36291.00
1060.089, 36248.00
1061.194, 36312.00
1062.298, 36247.00
1063.402, 36299.00
1064.506, 36241.00
1065.610, 36191.00
1066.713, 36012.00
1067.817, 36244.00
1068.920, 36178.00
1070.023, 36462.00
1071.126, 36283.00
1072.229, 36209.00
1073.332, 36251.00
1074.435, 36201.00
1075.537, 36117.00
1076.639, 36336.00
1077.741, 36439.00
1078.843, 36437.00
1079.945, 36665.00
1081.046, 36792.00
1082.148, 36661.00
1083.249, 37096.00
1084.350, 36708.00
1085.451, 36948.00
1086.551, 37077.00
1087.652, 36731.00
1088.752, 37020.00
1089.853, 36834.00
1090.953, 36536.00
1092.053, 36679.00
1093.152, 36472.00
1094.252, 36463.00
1095.351, 36762.00
1096.451, 36697.00
1097.550, 36649.00
1098.649, 36600.00
1099.748, 36692.00
1100.846, 36996.00
1101.945, 36783.00
1103.043, 37199.00
1104.141, 36888.00
1105.239, 36835.00
1106.337, 37200.00
1107.434, 37288.00
1108.532, 37571.00
1109.629, 37365.00
1110.726, 37442.00
1111.823, 37881.00
1112.920, 37481.00
1114.017, 37655.00
1115.113, 37843.00
1116.210, 37836.00
1117.306, 37930.00
1118.402, 38039.00
1119.498, 38163.00
1120.593, 38285.00
1121.689, 38586.00
1122.784, 38852.00
1123.879, 38989.00
1124.974, 39134.00
1126.069, 39415.00
1127.164, 39285.00
1128.259, 39808.00
1129.353, 39851.00
1130.447, 40229.00
1131.541, 40683.00
1132.635, 40722.00
1133.729, 41108.00
1134.822, 41752.00
1135.916, 42331.00
1137.009, 42199.00
1138.102, 41571.00
1139.195, 42443.00
1140.288, 41692.00
1141.380, 40889.00
1142.473, 40978.00
1143.565, 40535.00
1144.657, 40029.00
1145.749, 39893.00
1146.841, 39136.00
1147.932, 39240.00
1149.024, 39100.00
1150.115, 38737.00
1151.206, 38409.00
1152.297, 38558.00
1153.388, 38240.00
1154.479, 38301.00
1155.569, 38165.00
1156.659, 38047.00
1157.750, 38238.00
1158.839, 38162.00
1159.929, 38184.00
1161.019, 37986.00
1162.108, 37948.00
1163.198, 38218.00
1164.287, 37966.00
1165.376, 38112.00
1166.465, 38024.00
1167.553, 38166.00
1168.642, 38386.00
1169.730, 38215.00
1170.818, 38597.00
1171.906, 38420.00
1172.994, 38435.00
1174.082, 38546.00
1175.170, 38183.00
1176.257, 38381.00
1177.344, 38372.00
1178.431, 38129.00
1179.518, 38138.00
1180.605, 38321.00
1181.691, 37966.00
1182.778, 38270.00
1183.864, 38230.00
1184.950, 38146.00
1186.036, 38020.00
1187.122, 38553.00
1188.207, 38508.00
1189.292, 38391.00
1190.378, 38402.00
1191.463, 38379.00
1192.548, 38110.00
1193.632, 38535.00
1194.717, 38125.00
1195.801, 38535.00
1196.886, 38509.00
1197.970, 38491.00
1199.054, 38478.00
1200.137, 38576.00
1201.221, 38558.00
1202.305, 38447.00
1203.388, 38802.00
1204.471, 38423.00
1205.554, 38625.00
1206.637, 38666.00
1207.719, 38481.00
1208.802, 38768.00
1209.884, 38497.00
1210.966, 38800.00
1212.048, 38931.00
1213.130, 38923.00
1214.212, 39002.00
1215.293, 39143.00
1216.374, 39174.00
1217.456, 39123.00
1218.536, 39150.00
1219.617, 39015.00
1220.698, 39118.00
1221.778, 39141.00
1222.859, 39106.00
1223.939, 39253.00
1225.019, 39071.00
1226.099, 39439.00
1227.178, 39174.00
1228.258, 39501.00
1229.337, 39368.00
1230.417, 39560.00
1231.496, 39416.00
1232.574, 39338.00
1233.653, 39915.00
1234.732, 39874.00
1235.810, 40078.00
1236.888, 39953.00
1237.966, 39978.00
1239.044, 40085.00
1240.122, 40194.00
1241.199, 40056.00
1242.277, 40037.00
1243.354, 40219.00
1244.431, 40313.00
1245.508, 40292.00
1246.585, 40217.00
1247.661, 40406.00
1248.738, 40304.00
1249.814, 40571.00
1250.890, 40380.00
1251.966, 40579.00
1253.042, 40305.00
1254.117, 40221.00
1255.193, 40330.00
1256.268, 40375.00
1257.343, 40406.00
1258.418, 40116.00
1259.493, 40450.00
1260.567, 40550.00
1261.642, 40579.00
1262.716, 41047.00
1263.790, 41017.00
1264.864, 41304.00
1265.938, 41253.00
1267.011, 41394.00
1268.085, 41325.00
1269.158, 41555.00
1270.231, 41178.00
1271.304, 41402.00
1272.377, 41616.00
1273.450, 41437.00
1274.522, 41681.00
1275.594, 41559.00
1276.666, 41655.00
1277.738, 41597.00
1278.810, 41302.00
1279.882, 41494.00
1280.953, 41373.00
1282.025, 41368.00
1283.096, 41394.00
1284.167, 41449.00
1285.238, 41567.00
1286.308, 41540.48
1287.379, 41545.21
1288.449, 41508.00
1289.519, 41473.00
1290.589, 41401.00
1291.659, 41388.00
1292.729, 41552.00
1293.798, 41936.00
1294.868, 41952.00
1295.937, 41967.00
1297.006, 41816.00
1298.075, 41749.00
1299.143, 41892.00
1300.212, 41847.00
1301.280, 42060.00
1302.348, 41589.00
1303.416, 41546.00
1304.484, 41983.00
1305.552, 41765.41
1306.620, 42516.00
1307.687, 42117.00
1308.754, 41802.00
1309.821, 42352.00
1310.888, 42472.00
1311.955, 42634.00
1313.021, 42557.00
1314.088, 42541.00
1315.154, 42690.00
1316.220, 42742.00
1317.286, 42697.57
1318.352, 42737.00
1319.417, 42646.00
1320.483, 42655.00
1321.548, 42737.00
1322.613, 42728.00
1323.678, 42664.00
1324.743, 42500.00
1325.807, 42171.00
1326.872, 42458.00
1327.936, 42264.00
1329.000, 42281.00
1330.064, 41926.00
1331.128, 41941.00
1332.191, 42048.00
1333.255, 41974.00
1334.318, 42067.00
1335.381, 41935.00
1336.444, 41968.00
1337.507, 42085.00
1338.569, 41982.00
1339.632, 42032.00
1340.694, 42054.00
1341.756, 41934.00
1342.818, 42160.00
1343.880, 42080.00
1344.941, 42224.00
1346.003, 42122.00
1347.064, 42080.00
1348.125, 42241.00
1349.186, 42232.00
1350.247, 42148.00
1351.308, 42372.00
1352.368, 42323.00
1353.428, 42391.78
1354.489, 42229.00
1355.549, 42452.00
1356.608, 42378.00
1357.668, 42309.00
1358.727, 42273.00
1359.787, 42435.00
1360.846, 42069.00
1361.905, 42336.00
1362.964, 42607.00
1364.022, 42457.00
1365.081, 42334.00
1366.139, 42537.00
1367.197, 42745.00
1368.255, 42832.00
1369.313, 42661.00
1370.371, 42553.00
1371.428, 42328.00
1372.486, 42891.00
1373.543, 42757.00
1374.600, 42743.00
1375.657, 42945.00
1376.713, 42722.00
1377.770, 42903.00
1378.826, 43019.00
1379.882, 42872.00
1380.938, 42876.00
1381.994, 43158.00
1383.050, 43150.00
1384.106, 43143.00
1385.161, 43137.00
1386.216, 43133.00
1387.271, 43086.00
1388.326, 43297.00
1389.381, 43158.00
1390.435, 42904.00
1391.490, 42969.00
1392.544, 43136.00
1393.598, 43049.00
1394.652, 43128.00
1395.705, 42958.00
1396.759, 42969.00
1397.812, 43046.00
1398.866, 43168.00
1399.919, 43194.00
1400.972, 43238.00
1402.024, 43258.67
1403.077, 43189.00
1404.129, 43215.00
1405.181, 43216.00
1406.233, 43124.00
1407.285, 43190.00
1408.337, 43336.00
1409.389, 43276.00
1410.440, 43011.00
1411.491, 43338.00
1412.542, 43099.00
1413.593, 43489.00
1414.644, 43380.00
1415.695, 43431.00
1416.745, 43283.00
1417.795, 43350.14
1418.845, 43306.00
1419.895, 43489.00
1420.945, 43700.00
1421.995, 43871.00
1423.044, 43532.00
1424.093, 43841.00
1425.142, 43704.00
1426.191, 43950.00
1427.240, 43998.00
1428.289, 44073.00
1429.337, 44254.00
1430.385, 44335.00
1431.433, 44493.00
1432.481, 44388.00
1433.529, 44835.00
1434.577, 44946.00
1435.624, 45398.00
1436.672, 45410.00
1437.719, 45867.00
1438.766, 45772.00
1439.812, 46210.00
1440.859, 46669.00
1441.905, 46518.00
1442.952, 47192.00
1443.998, 47547.00
1445.044, 47468.00
1446.090, 47461.00
1447.135, 47859.00
1448.181, 47742.00
1449.226, 47751.00
1450.271, 48077.00
1451.316, 48001.00
1452.361, 48128.00
1453.405, 48118.00
1454.450, 48242.00
1455.494, 48370.00
1456.538, 48168.00
1457.582, 47832.00
1458.626, 48059.00
1459.670, 47741.00
1460.713, 47833.00
1461.757, 47586.00
1462.800, 47415.00
1463.843, 47421.00
1464.886, 46950.00
1465.928, 46953.00
1466.971, 46755.00
1468.013, 46237.00
1469.055, 46335.00
1470.097, 46279.00
1471.139, 46027.00
1472.181, 46014.00
1473.222, 46157.00
1474.263, 45823.00
1475.305, 46206.00
1476.346, 46021.00
1477.386, 46160.00
1478.427, 46178.28
1479.468, 46094.00
1480.508, 46077.00
1481.548, 45977.00
1482.588, 45812.00
1483.628, 45807.00
1484.668, 45485.00
1485.707, 45704.00
1486.747, 45558.00
1487.786, 45364.00
1488.825, 45687.00
1489.864, 45437.00
1490.902, 45334.00
1491.941, 45175.00
1492.979, 45217.00
1494.017, 45081.00
1495.055, 44891.00
1496.093, 44972.25
1497.131, 44884.00
1498.168, 45041.00
1499.206, 45065.00
1500.243, 45120.00
1501.280, 45128.00
1502.317, 45147.00
1503.354, 45076.00
1504.390, 44853.00
1505.426, 45022.00
1506.463, 44951.00
1507.499, 45074.00
1508.535, 45091.00
1509.570, 45218.00
1510.606, 45251.00
1511.641, 45260.00
1512.676, 45302.00
1513.711, 45391.00
1514.746, 45367.00
1515.781, 45498.81
1516.816, 45431.00
1517.850, 45617.00
1518.884, 45617.00
1519.918, 45444.00
1520.952, 45482.00
1521.986, 45430.00
1523.019, 45597.00
1524.053, 45488.00
1525.086, 45754.00
1526.119, 45838.00
1527.152, 45763.00
1528.185, 45840.00
1529.217, 45889.00
1530.250, 46003.00
1531.282, 46176.00
1532.314, 45978.00
1533.346, 45749.00
1534.377, 46200.00
1535.409, 46049.00
1536.440, 46410.00
1537.472, 45950.00
1538.503, 46251.00
1539.534, 46131.00
1540.564, 46304.00
1541.595, 46101.00
1542.625, 46441.00
1543.656, 46293.00
1544.686, 46395.00
1545.716, 46195.00
1546.745, 46143.00
1547.775, 46269.00
1548.804, 46203.00
1549.834, 46350.55
1550.863, 46503.00
1551.892, 46625.00
1552.920, 46676.00
1553.949, 46800.00
1554.977, 46779.00
1556.006, 46762.33
1557.034, 46465.00
1558.062, 46584.00
1559.089, 46495.00
1560.117, 46295.00
1561.144, 46611.00
1562.172, 46749.00
1563.199, 46842.00
1564.226, 46722.00
1565.252, 46664.00
1566.279, 46800.00
1567.305, 46573.00
1568.332, 46850.00
1569.358, 46752.00
1570.384, 47138.00
1571.409, 46677.00
##END=



