##NAMES=Epidote
##RRUFFID=R050303
##IDEAL CHEMISTRY=Ca_2_Fe^3+^Al_2_(Si_2_O_7_)(SiO_4_)O(OH)
##LOCALITY=San Martin mine, Zacatecas, Mexico
##OWNER=RRUFF
##SOURCE=Eugene Schlepp
##DESCRIPTION=Green elongated prismatic crystals
##STATUS=The identification of this mineral has been confirmed by X-ray diffraction and chemical analysis
##URL=rruff.info/R050303
##MEASURED CHEMISTRY=Ca_2.00_Al_2.00_(Fe^3+^_0.97_Al_0.03_)(SiO_4_)(Si_2_O_7_)O(OH)
##PIN_ID=L01741
##ORIENTATION=Laser parallel to -a* (-1 0 0). Fiducial mark perpendicular to laser is parallel to -b [0 -1 0]
53.91000, 1790.000
55.14900, 1780.000
56.38700, 1737.000
57.62600, 1779.000
58.86400, 1732.000
60.10300, 1800.000
61.34100, 1788.000
62.57900, 1815.000
63.81700, 1939.000
65.05400, 1984.000
66.29200, 2190.000
67.52900, 2397.000
68.76700, 2891.000
70.00400, 3297.000
71.24100, 3519.000
72.47700, 3860.000
73.71400, 4204.000
74.95100, 4846.000
76.18700, 5562.000
77.42300, 6026.000
78.65900, 6832.000
79.89500, 7808.000
81.13100, 9068.000
82.36700, 10790.00
83.60200, 12594.00
84.83700, 14532.00
86.07200, 16347.00
87.30800, 18658.00
88.54200, 20584.00
89.77700, 22013.00
91.01200, 23130.00
92.24600, 23554.00
93.48000, 23502.00
94.71400, 23538.00
95.94800, 22878.00
97.18200, 21112.00
98.41600, 19207.00
99.64900, 17230.00
100.8830, 15392.00
102.1160, 13877.00
103.3490, 13105.00
104.5820, 12751.00
105.8150, 13091.00
107.0470, 13961.00
108.2800, 13159.05
109.5120, 14037.00
110.7440, 12350.00
111.9760, 11845.00
113.2080, 11932.00
114.4400, 12243.00
115.6710, 12171.00
116.9030, 11947.00
118.1340, 11835.00
119.3650, 11827.00
120.5960, 12090.00
121.8270, 12351.00
123.0580, 12815.00
124.2880, 13244.00
125.5190, 13545.00
126.7490, 13659.00
127.9790, 14150.00
129.2090, 14516.00
130.4390, 14629.00
131.6680, 14356.00
132.8980, 13926.00
134.1270, 13529.00
135.3560, 13121.00
136.5850, 13183.00
137.8140, 13224.00
139.0430, 13434.00
140.2710, 13695.00
141.5000, 13849.00
142.7280, 13953.00
143.9560, 14153.00
145.1840, 14350.00
146.4120, 14243.00
147.6390, 13985.00
148.8670, 13902.00
150.0940, 14092.00
151.3210, 14533.00
152.5490, 14798.00
153.7750, 15266.00
155.0020, 16339.00
156.2290, 17003.00
157.4550, 18405.00
158.6810, 19707.00
159.9080, 21459.00
161.1340, 23276.00
162.3590, 25037.00
163.5850, 26780.00
164.8110, 27474.00
166.0360, 27736.00
167.2610, 27647.00
168.4860, 27415.00
169.7110, 27439.00
170.9360, 26952.00
172.1610, 25700.00
173.3850, 24275.00
174.6100, 22359.00
175.8340, 20595.00
177.0580, 19148.00
178.2820, 18128.00
179.5050, 17226.00
180.7290, 16564.00
181.9520, 16156.00
183.1760, 16350.00
184.3990, 16210.00
185.6220, 16090.00
186.8450, 15945.00
188.0670, 15519.00
189.2900, 15073.00
190.5120, 14508.00
191.7340, 14598.00
192.9560, 14650.00
194.1780, 14565.00
195.4000, 14803.00
196.6220, 14953.00
197.8430, 15098.00
199.0640, 15572.00
200.2860, 15431.00
201.5070, 15517.00
202.7270, 15317.00
203.9480, 14607.00
205.1690, 14091.00
206.3890, 13841.00
207.6090, 13737.00
208.8290, 13657.00
210.0490, 13535.00
211.2690, 13652.72
212.4890, 13978.00
213.7080, 13997.00
214.9280, 14283.00
216.1470, 14626.00
217.3660, 14825.00
218.5850, 15308.00
219.8030, 15856.00
221.0220, 16504.00
222.2400, 17154.00
223.4590, 18043.00
224.6770, 19062.00
225.8950, 19792.00
227.1120, 20818.00
228.3300, 21202.00
229.5480, 21779.00
230.7650, 22530.00
231.9820, 23075.00
233.1990, 23964.00
234.4160, 25183.00
235.6330, 26817.00
236.8490, 28330.00
238.0660, 29920.00
239.2820, 30697.00
240.4980, 30493.00
241.7140, 29077.00
242.9300, 27273.00
244.1460, 25214.00
245.3610, 23136.00
246.5770, 21742.00
247.7920, 20934.00
249.0070, 20248.00
250.2220, 19817.00
251.4370, 19951.00
252.6510, 19905.00
253.8660, 19606.00
255.0800, 19364.00
256.2940, 18938.00
257.5080, 18871.00
258.7220, 18385.67
259.9360, 18311.00
261.1490, 17645.00
262.3630, 17425.00
263.5760, 17290.00
264.7890, 17427.00
266.0020, 17778.00
267.2150, 18075.00
268.4270, 18437.00
269.6400, 19212.00
270.8520, 19869.00
272.0640, 20491.00
273.2760, 20865.00
274.4880, 20902.00
275.7000, 20593.00
276.9120, 20454.00
278.1230, 19964.00
279.3340, 19849.00
280.5450, 19927.00
281.7560, 20169.00
282.9670, 20494.89
284.1780, 21038.00
285.3880, 21641.00
286.5980, 22399.00
287.8090, 23384.00
289.0190, 24257.00
290.2290, 24890.00
291.4380, 24917.00
292.6480, 24472.00
293.8570, 23396.00
295.0670, 22348.00
296.2760, 21386.00
297.4850, 20360.00
298.6930, 19792.00
299.9020, 19174.00
301.1110, 18758.00
302.3190, 18741.00
303.5270, 18613.00
304.7350, 18899.00
305.9430, 19036.00
307.1510, 19583.00
308.3580, 20307.00
309.5660, 20845.00
310.7730, 21624.00
311.9800, 21993.00
313.1870, 22230.00
314.3940, 22298.00
315.6010, 22111.00
316.8070, 22221.00
318.0130, 22766.00
319.2200, 23331.00
320.4260, 24416.00
321.6310, 25389.00
322.8370, 26143.00
324.0430, 27241.00
325.2480, 28034.00
326.4540, 28373.00
327.6590, 28511.00
328.8640, 28144.00
330.0680, 27660.00
331.2730, 26531.00
332.4780, 25992.00
333.6820, 25737.00
334.8860, 25728.00
336.0900, 26087.00
337.2940, 26870.00
338.4980, 28195.00
339.7010, 29871.00
340.9050, 31896.00
342.1080, 34339.00
343.3110, 36883.00
344.5140, 39162.00
345.7170, 40877.00
346.9200, 41601.00
348.1220, 40661.00
349.3240, 38675.00
350.5270, 35924.00
351.7290, 32836.00
352.9310, 30622.00
354.1320, 28274.00
355.3340, 26514.00
356.5350, 25307.00
357.7370, 24259.00
358.9380, 23655.00
360.1390, 23404.00
361.3400, 23025.00
362.5400, 22885.00
363.7410, 22535.00
364.9410, 22191.00
366.1410, 21509.00
367.3410, 20663.00
368.5410, 19595.00
369.7410, 18803.00
370.9400, 17944.00
372.1400, 17370.00
373.3390, 16762.00
374.5380, 16453.00
375.7370, 16379.00
376.9360, 16033.00
378.1350, 16148.00
379.3330, 16404.00
380.5310, 16526.00
381.7300, 17083.00
382.9280, 17702.00
384.1260, 18020.00
385.3230, 18623.00
386.5210, 19153.00
387.7180, 19379.00
388.9160, 19537.00
390.1130, 19170.00
391.3100, 18920.00
392.5060, 18476.00
393.7030, 18055.00
394.9000, 17581.00
396.0960, 16903.00
397.2920, 16882.00
398.4880, 16643.00
399.6840, 16489.00
400.8800, 16545.00
402.0750, 16663.48
403.2710, 16690.00
404.4660, 17203.00
405.6610, 17595.00
406.8560, 17922.00
408.0510, 18459.00
409.2450, 19079.00
410.4400, 19626.00
411.6340, 20077.00
412.8280, 20598.00
414.0220, 20890.00
415.2160, 21282.00
416.4100, 21536.00
417.6030, 21947.00
418.7970, 22844.00
419.9900, 23828.00
421.1830, 24774.00
422.3760, 25407.00
423.5690, 25761.00
424.7610, 26690.00
425.9540, 27676.00
427.1460, 29076.00
428.3380, 30990.00
429.5300, 33310.00
430.7220, 35656.00
431.9140, 37637.00
433.1050, 38217.00
434.2970, 37748.00
435.4880, 36289.00
436.6790, 34843.00
437.8700, 33815.00
439.0610, 33580.00
440.2510, 34142.00
441.4420, 35193.00
442.6320, 36911.00
443.8220, 39316.00
445.0120, 41680.00
446.2020, 43678.00
447.3910, 45049.00
448.5810, 44323.00
449.7700, 43248.00
450.9600, 41698.00
452.1490, 40026.00
453.3370, 37962.00
454.5260, 35856.00
455.7150, 33276.00
456.9030, 30504.00
458.0910, 28037.00
459.2800, 25935.00
460.4670, 24146.00
461.6550, 22551.00
462.8430, 21470.00
464.0300, 20305.00
465.2180, 19748.00
466.4050, 19199.00
467.5920, 18616.00
468.7790, 18211.00
469.9650, 17836.00
471.1520, 17502.00
472.3380, 17140.00
473.5250, 17100.00
474.7110, 16805.00
475.8970, 16798.00
477.0820, 16798.00
478.2680, 16924.00
479.4540, 16986.00
480.6390, 17093.00
481.8240, 17597.00
483.0090, 17814.00
484.1940, 18354.00
485.3780, 18896.00
486.5630, 19561.00
487.7470, 20431.00
488.9320, 21311.00
490.1160, 22213.00
491.3000, 23729.00
492.4830, 24820.00
493.6670, 26234.00
494.8500, 27096.00
496.0340, 27955.00
497.2170, 28297.00
498.4000, 27822.00
499.5820, 27067.00
500.7650, 26459.00
501.9480, 25913.96
503.1300, 25053.00
504.3120, 24778.00
505.4940, 24213.00
506.6760, 23599.00
507.8580, 22835.00
509.0390, 21794.00
510.2210, 20515.00
511.4020, 19449.00
512.5830, 18495.00
513.7640, 17970.00
514.9450, 17374.00
516.1250, 16988.00
517.3060, 16827.00
518.4860, 16637.00
519.6660, 16578.00
520.8460, 16233.00
522.0260, 16066.00
523.2060, 15855.00
524.3850, 15634.00
525.5650, 15438.00
526.7440, 15239.00
527.9230, 15054.00
529.1020, 14937.00
530.2810, 14818.35
531.4590, 14742.73
532.6380, 14682.00
533.8160, 14671.85
534.9940, 14662.00
536.1720, 14685.00
537.3500, 14618.00
538.5270, 14782.00
539.7050, 14768.00
540.8820, 14913.00
542.0590, 15014.00
543.2360, 15049.00
544.4130, 15214.00
545.5900, 15422.00
546.7660, 15707.00
547.9430, 16002.00
549.1190, 16409.00
550.2950, 16938.00
551.4710, 17421.00
552.6470, 18246.00
553.8220, 19463.00
554.9980, 20672.00
556.1730, 22123.00
557.3480, 23857.00
558.5230, 25848.00
559.6980, 27955.00
560.8730, 29781.00
562.0470, 30543.00
563.2220, 29794.00
564.3960, 27814.00
565.5700, 25266.00
566.7440, 23109.00
567.9170, 21463.00
569.0910, 20190.00
570.2640, 19542.00
571.4380, 18873.00
572.6110, 18704.00
573.7840, 18848.00
574.9570, 18828.00
576.1290, 19199.00
577.3020, 19807.00
578.4740, 20511.00
579.6460, 21309.00
580.8180, 22047.00
581.9900, 22834.00
583.1620, 23617.87
584.3330, 24627.00
585.5040, 25169.00
586.6760, 26122.00
587.8470, 26859.00
589.0180, 27957.00
590.1880, 29145.00
591.3590, 30579.00
592.5290, 32364.00
593.7000, 33373.00
594.8700, 33971.00
596.0400, 33671.00
597.2090, 33276.00
598.3790, 32107.00
599.5490, 31482.00
600.7180, 30137.00
601.8870, 28987.00
603.0560, 28772.00
604.2250, 28486.00
605.3940, 28421.00
606.5620, 28696.00
607.7300, 29117.00
608.8990, 29138.00
610.0670, 28614.00
611.2350, 27732.00
612.4020, 26717.00
613.5700, 25109.00
614.7370, 23809.00
615.9050, 22483.00
617.0720, 21034.00
618.2390, 20119.00
619.4060, 19028.00
620.5720, 18210.00
621.7390, 17466.00
622.9050, 17047.00
624.0710, 16612.00
625.2370, 16308.00
626.4030, 16139.00
627.5690, 15698.00
628.7340, 15566.00
629.9000, 15488.00
631.0650, 15173.00
632.2300, 15240.00
633.3950, 14898.00
634.5600, 14946.00
635.7240, 14682.00
636.8890, 14678.00
638.0530, 14458.00
639.2170, 14433.00
640.3810, 14439.00
641.5450, 14488.00
642.7080, 14388.81
643.8720, 14106.00
645.0350, 14227.00
646.1980, 14117.00
647.3610, 14057.00
648.5240, 14088.00
649.6870, 14177.00
650.8490, 14091.00
652.0120, 14102.00
653.1740, 13945.00
654.3360, 13977.00
655.4980, 13923.00
656.6600, 13711.00
657.8210, 13741.00
658.9830, 13755.00
660.1440, 13697.00
661.3050, 13772.00
662.4660, 13762.00
663.6270, 13777.00
664.7870, 13814.00
665.9480, 13813.37
667.1080, 13781.00
668.2680, 13873.00
669.4280, 13815.00
670.5880, 13907.00
671.7480, 13957.00
672.9070, 14020.00
674.0670, 14021.00
675.2260, 14037.00
676.3850, 14146.00
677.5440, 14270.00
678.7030, 14245.00
679.8610, 14219.00
681.0200, 14332.00
682.1780, 14408.00
683.3360, 14417.00
684.4940, 14503.32
685.6520, 14512.00
686.8090, 14518.00
687.9670, 14409.00
689.1240, 14218.00
690.2810, 14198.00
691.4380, 14016.00
692.5950, 13944.00
693.7520, 13727.00
694.9080, 13898.00
696.0650, 13606.00
697.2210, 13717.00
698.3770, 13618.00
699.5330, 13531.00
700.6880, 13484.00
701.8440, 13501.00
702.9990, 13393.00
704.1550, 13448.00
705.3100, 13313.00
706.4650, 13261.00
707.6190, 13243.00
708.7740, 13212.00
709.9290, 13341.00
711.0830, 13175.00
712.2370, 13205.00
713.3910, 13214.00
714.5450, 13122.00
715.6980, 13021.00
716.8520, 13202.00
718.0050, 13087.00
719.1580, 13093.00
720.3110, 13180.00
721.4640, 13102.00
722.6170, 13029.00
723.7700, 13071.00
724.9220, 13245.00
726.0740, 13218.00
727.2260, 13146.00
728.3780, 13184.00
729.5300, 13068.00
730.6810, 13053.00
731.8330, 13116.00
732.9840, 13152.00
734.1350, 13166.58
735.2860, 13175.42
736.4370, 13180.00
737.5880, 13161.00
738.7380, 13088.00
739.8880, 13094.00
741.0390, 13234.00
742.1890, 13085.00
743.3380, 13103.00
744.4880, 13228.00
745.6380, 13103.00
746.7870, 13365.00
747.9360, 13239.00
749.0850, 13257.00
750.2340, 13216.00
751.3830, 13131.00
752.5310, 13218.00
753.6800, 13289.00
754.8280, 13170.00
755.9760, 13344.00
757.1240, 13325.00
758.2720, 13340.00
759.4190, 13204.00
760.5670, 13123.00
761.7140, 13215.00
762.8610, 13255.00
764.0080, 13427.00
765.1550, 13253.00
766.3020, 13380.00
767.4480, 13392.00
768.5950, 13388.00
769.7410, 13402.00
770.8870, 13479.00
772.0330, 13496.00
773.1780, 13357.00
774.3240, 13433.00
775.4690, 13332.00
776.6140, 13576.00
777.7590, 13418.00
778.9040, 13472.00
780.0490, 13559.00
781.1940, 13507.00
782.3380, 13517.00
783.4820, 13504.00
784.6260, 13530.23
785.7700, 13624.00
786.9140, 13632.00
788.0580, 13654.00
789.2010, 13748.00
790.3450, 13656.00
791.4880, 13571.00
792.6310, 13763.00
793.7730, 13714.00
794.9160, 13765.00
796.0590, 13822.00
797.2010, 13821.00
798.3430, 13863.00
799.4850, 13725.00
800.6270, 13991.00
801.7690, 13914.00
802.9100, 13804.00
804.0520, 13973.00
805.1930, 14201.00
806.3340, 14099.00
807.4750, 14020.00
808.6160, 14361.00
809.7560, 14225.00
810.8970, 14270.00
812.0370, 14182.00
813.1770, 14356.00
814.3170, 14479.00
815.4570, 14787.00
816.5960, 14625.00
817.7360, 14955.00
818.8750, 14942.00
820.0140, 14976.00
821.1530, 15061.00
822.2920, 15377.00
823.4310, 15444.00
824.5690, 15502.00
825.7070, 15567.00
826.8460, 15694.00
827.9840, 15835.00
829.1220, 15886.00
830.2590, 16072.00
831.3970, 16152.00
832.5340, 16321.54
833.6710, 16461.70
834.8080, 16623.00
835.9450, 16733.00
837.0820, 16782.00
838.2190, 16867.00
839.3550, 17023.00
840.4910, 17202.00
841.6270, 17617.00
842.7630, 17695.00
843.8990, 17694.00
845.0350, 18139.00
846.1700, 18646.00
847.3060, 18885.00
848.4410, 19382.00
849.5760, 19761.00
850.7100, 20403.00
851.8450, 21197.00
852.9800, 22039.00
854.1140, 22853.00
855.2480, 23873.00
856.3820, 24977.00
857.5160, 26389.00
858.6500, 27341.00
859.7830, 28667.00
860.9170, 29347.00
862.0500, 30022.00
863.1830, 30715.00
864.3160, 30906.00
865.4480, 31416.00
866.5810, 32025.00
867.7130, 32275.00
868.8460, 33784.00
869.9780, 34945.00
871.1100, 36741.00
872.2410, 38604.00
873.3730, 41319.00
874.5050, 43775.00
875.6360, 46459.00
876.7670, 49266.00
877.8980, 51727.00
879.0290, 54709.00
880.1590, 57216.00
881.2900, 59350.00
882.4200, 60870.00
883.5500, 61611.00
884.6800, 60780.00
885.8100, 59145.00
886.9400, 56644.00
888.0690, 53675.00
889.1990, 49409.00
890.3280, 45806.00
891.4570, 42365.00
892.5860, 39842.00
893.7140, 37410.00
894.8430, 35525.00
895.9710, 33977.00
897.1000, 33251.00
898.2280, 32405.00
899.3560, 32219.00
900.4830, 31934.00
901.6110, 32141.00
902.7380, 32472.00
903.8660, 32995.00
904.9930, 33805.00
906.1200, 34769.00
907.2460, 36036.00
908.3730, 37240.00
909.5000, 38619.00
910.6260, 39805.00
911.7520, 40935.00
912.8780, 41654.00
914.0040, 41423.00
915.1290, 40756.00
916.2550, 39456.00
917.3800, 37614.00
918.5050, 35273.00
919.6300, 33198.00
920.7550, 31012.00
921.8800, 29160.00
923.0040, 27360.00
924.1290, 25767.00
925.2530, 24271.00
926.3770, 23413.00
927.5010, 22265.00
928.6250, 21585.00
929.7480, 20825.00
930.8720, 20164.00
931.9950, 19785.00
933.1180, 19425.00
934.2410, 18801.00
935.3640, 18542.00
936.4860, 18415.00
937.6090, 17987.75
938.7310, 17804.94
939.8530, 17573.00
940.9750, 17222.00
942.0970, 17311.00
943.2180, 16901.00
944.3400, 16801.00
945.4610, 16911.00
946.5820, 16744.00
947.7030, 16685.00
948.8240, 16484.00
949.9450, 16498.00
951.0650, 16532.00
952.1860, 16489.00
953.3060, 16415.00
954.4260, 16394.00
955.5460, 16366.85
956.6650, 16342.27
957.7850, 16328.00
958.9040, 16293.00
960.0230, 16306.00
961.1420, 16301.48
962.2610, 16303.00
963.3800, 16325.00
964.4990, 16338.00
965.6170, 16376.00
966.7350, 16359.00
967.8530, 16570.00
968.9710, 16678.00
970.0890, 16886.00
971.2070, 17110.00
972.3240, 17255.00
973.4410, 17768.00
974.5580, 17671.00
975.6750, 17983.00
976.7920, 18016.00
977.9090, 18003.00
979.0250, 18058.00
980.1410, 17819.00
981.2580, 17426.00
982.3740, 17126.00
983.4890, 17018.00
984.6050, 16852.00
985.7200, 16644.00
986.8360, 16529.00
987.9510, 16421.00
989.0660, 16352.65
990.1810, 16451.00
991.2950, 16300.00
992.4100, 16337.00
993.5240, 16327.00
994.6390, 16237.00
995.7530, 16362.00
996.8660, 16563.00
997.9800, 16444.00
999.0940, 16565.00
1000.207, 16630.00
1001.320, 16664.88
1002.433, 16602.00
1003.546, 16883.00
1004.659, 16960.00
1005.772, 17179.00
1006.884, 17344.00
1007.996, 17676.00
1009.108, 18173.00
1010.220, 18557.00
1011.332, 19114.00
1012.444, 19849.00
1013.555, 20372.00
1014.666, 21108.00
1015.777, 21372.00
1016.888, 21866.00
1017.999, 21792.00
1019.110, 21359.00
1020.220, 20865.00
1021.331, 20583.00
1022.441, 19861.00
1023.551, 19146.00
1024.661, 18953.00
1025.770, 18435.00
1026.880, 18105.00
1027.989, 18056.00
1029.098, 17859.00
1030.207, 17783.00
1031.316, 17836.00
1032.425, 17840.00
1033.533, 17628.00
1034.642, 17808.00
1035.750, 17785.00
1036.858, 17726.00
1037.966, 17861.00
1039.073, 17768.00
1040.181, 17742.00
1041.288, 17631.00
1042.396, 17512.00
1043.503, 17418.00
1044.610, 17233.00
1045.716, 17151.00
1046.823, 16951.00
1047.929, 16945.00
1049.036, 16783.00
1050.142, 16594.00
1051.248, 16581.00
1052.353, 16564.00
1053.459, 16523.00
1054.564, 16511.58
1055.670, 16495.00
1056.775, 16459.00
1057.880, 16524.00
1058.985, 16482.00
1060.089, 16316.00
1061.194, 16427.00
1062.298, 16340.00
1063.402, 16424.00
1064.506, 16322.00
1065.610, 16409.00
1066.713, 16461.00
1067.817, 16406.00
1068.920, 16559.00
1070.023, 16806.00
1071.126, 16934.00
1072.229, 17057.00
1073.332, 17282.00
1074.435, 17882.00
1075.537, 18077.00
1076.639, 18798.00
1077.741, 19081.00
1078.843, 19737.00
1079.945, 20700.00
1081.046, 21641.00
1082.148, 22201.00
1083.249, 22606.00
1084.350, 22471.00
1085.451, 21823.00
1086.551, 21152.00
1087.652, 20109.00
1088.752, 19411.00
1089.853, 18436.00
1090.953, 17948.00
1092.053, 17421.00
1093.152, 17117.00
1094.252, 16862.00
1095.351, 16643.00
1096.451, 16420.00
1097.550, 16174.00
1098.649, 16265.00
1099.748, 16147.00
1100.846, 16143.00
1101.945, 16009.00
1103.043, 16026.00
1104.141, 15903.00
1105.239, 15882.00
1106.337, 15846.00
1107.434, 15706.00
1108.532, 15794.00
1109.629, 15649.00
1110.726, 15675.00
1111.823, 15698.00
1112.920, 15707.00
1114.017, 15793.00
1115.113, 15920.00
1116.210, 15874.00
1117.306, 16011.00
1118.402, 16109.00
1119.498, 16299.00
1120.593, 16360.00
1121.689, 16297.00
1122.784, 16384.00
1123.879, 16164.00
1124.974, 16128.00
1126.069, 16050.00
1127.164, 15864.00
1128.259, 15640.00
1129.353, 15510.00
1130.447, 15497.00
1131.541, 15289.00
1132.635, 15357.00
1133.729, 15402.00
1134.822, 15342.00
1135.916, 15483.00
1137.009, 15440.00
1138.102, 15409.00
1139.195, 15174.00
1140.288, 15218.00
1141.380, 15279.00
1142.473, 15173.00
1143.565, 15289.00
1144.657, 15223.00
1145.749, 15280.00
1146.841, 15134.00
1147.932, 15256.00
1149.024, 15230.00
1150.115, 15116.00
1151.206, 15280.00
1152.297, 15168.00
1153.388, 15220.00
1154.479, 15037.00
1155.569, 15204.00
1156.659, 15054.00
1157.750, 15191.00
1158.839, 15322.00
1159.929, 15266.00
1161.019, 15146.00
1162.108, 15239.00
1163.198, 15297.00
1164.287, 15119.00
1165.376, 15196.00
1166.465, 15109.00
1167.553, 15306.00
1168.642, 15206.00
1169.730, 15201.00
1170.818, 15265.00
1171.906, 15135.00
1172.994, 15230.00
1174.082, 15206.00
1175.170, 15417.00
1176.257, 15232.00
1177.344, 15373.00
1178.431, 15297.00
1179.518, 15415.00
1180.605, 15323.00
1181.691, 15152.00
1182.778, 15439.00
1183.864, 15279.00
1184.950, 15261.00
1186.036, 15277.00
1187.122, 15261.00
1188.207, 15191.00
1189.292, 15291.00
1190.378, 15227.00
1191.463, 15134.00
1192.548, 15209.00
1193.632, 15293.00
1194.717, 15123.00
1195.801, 15154.00
1196.886, 15254.00
1197.970, 15333.00
1199.054, 15194.00
1200.137, 15194.00
1201.221, 15137.00
1202.305, 15157.00
1203.388, 15081.00
1204.471, 15143.00
1205.554, 15155.00
1206.637, 15277.00
1207.719, 15183.00
1208.802, 15131.00
1209.884, 15290.00
1210.966, 15143.00
1212.048, 15103.00
1213.130, 15048.00
1214.212, 15131.00
1215.293, 15228.00
1216.374, 15228.00
1217.456, 15259.57
1218.536, 15221.00
1219.617, 15187.00
1220.698, 15199.00
1221.778, 15043.00
1222.859, 15087.00
1223.939, 15141.00
1225.019, 15091.00
1226.099, 15294.00
1227.178, 15233.00
1228.258, 14975.00
1229.337, 15131.00
1230.417, 15053.00
1231.496, 15134.00
1232.574, 15064.00
1233.653, 14985.00
1234.732, 15337.00
1235.810, 15099.00
1236.888, 14970.00
1237.966, 15196.00
1239.044, 15129.00
1240.122, 15146.00
1241.199, 15073.00
1242.277, 15218.00
1243.354, 15148.00
1244.431, 15134.00
1245.508, 15160.00
1246.585, 15123.00
1247.661, 15135.00
1248.738, 15162.00
1249.814, 14976.00
1250.890, 15054.00
1251.966, 14876.00
1253.042, 15014.00
1254.117, 15240.00
1255.193, 15061.00
1256.268, 15063.00
1257.343, 15194.00
1258.418, 15144.00
1259.493, 15285.00
1260.567, 15182.00
1261.642, 15061.00
1262.716, 15224.00
1263.790, 15137.00
1264.864, 15061.00
1265.938, 15213.00
1267.011, 15150.00
1268.085, 15239.00
1269.158, 15115.00
1270.231, 15107.00
1271.304, 15255.00
1272.377, 15187.00
1273.450, 15154.00
1274.522, 15325.00
1275.594, 15180.00
1276.666, 15149.00
1277.738, 15268.00
1278.810, 15145.00
1279.882, 15254.00
1280.953, 15192.00
1282.025, 15013.00
1283.096, 15130.00
1284.167, 15187.00
1285.238, 15115.00
1286.308, 15216.00
1287.379, 15222.00
1288.449, 15178.00
1289.519, 15286.00
1290.589, 15126.00
1291.659, 14965.00
1292.729, 15154.00
1293.798, 15175.00
1294.868, 15206.00
1295.937, 15132.00
1297.006, 15200.00
1298.075, 15135.00
1299.143, 15181.00
1300.212, 15215.00
1301.280, 15212.00
1302.348, 15129.00
1303.416, 15196.00
1304.484, 15203.00
1305.552, 15209.00
1306.620, 15261.00
1307.687, 15301.00
1308.754, 15279.00
1309.821, 15224.00
1310.888, 15229.00
1311.955, 15235.00
1313.021, 15325.00
1314.088, 15316.00
1315.154, 15343.90
1316.220, 15242.00
1317.286, 15356.00
1318.352, 15343.00
1319.417, 15324.00
1320.483, 15440.00
1321.548, 15267.00
1322.613, 15416.00
1323.678, 15195.00
1324.743, 15216.00
1325.807, 15259.00
1326.872, 15379.00
1327.936, 15125.00
1329.000, 15285.00
1330.064, 15340.00
1331.128, 15170.00
1332.191, 15330.00
1333.255, 15253.00
1334.318, 15214.00
1335.381, 15136.00
1336.444, 15230.00
1337.507, 15231.00
1338.569, 15117.00
1339.632, 15250.00
1340.694, 15315.00
1341.756, 15391.00
1342.818, 15294.00
1343.880, 15337.00
1344.941, 15222.00
1346.003, 15241.00
1347.064, 15297.00
1348.125, 15302.00
1349.186, 15426.00
1350.247, 15442.00
1351.308, 15152.00
1352.368, 15420.00
1353.428, 15289.00
1354.489, 15487.00
1355.549, 15326.00
1356.608, 15373.00
1357.668, 15323.00
1358.727, 15370.00
1359.787, 15301.00
1360.846, 15344.00
1361.905, 15255.00
1362.964, 15315.00
1364.022, 15401.00
1365.081, 15422.00
1366.139, 15317.00
1367.197, 15415.00
1368.255, 15324.00
1369.313, 15423.00
1370.371, 15517.00
1371.428, 15387.00
1372.486, 15302.00
1373.543, 15335.00
1374.600, 15540.00
1375.657, 15385.00
1376.713, 15476.00
1377.770, 15497.00
1378.826, 15297.00
1379.882, 15329.00
1380.938, 15498.00
1381.994, 15392.00
1383.050, 15420.00
1384.106, 15412.00
1385.161, 15530.00
1386.216, 15366.00
1387.271, 15527.00
1388.326, 15533.00
1389.381, 15343.00
1390.435, 15479.00
1391.490, 15423.00
1392.544, 15407.00
1393.598, 15445.00
1394.652, 15336.00
1395.705, 15255.00
1396.759, 15284.00
1397.812, 15235.79
1398.866, 15380.00
1399.919, 15252.00
1400.972, 15386.00
1402.024, 15414.00
1403.077, 15439.00
1404.129, 15353.00
1405.181, 15512.00
1406.233, 15419.00
1407.285, 15363.00
1408.337, 15381.00
1409.389, 15382.14
1410.440, 15389.00
1411.491, 15461.00
1412.542, 15446.00
1413.593, 15443.00
1414.644, 15489.00
1415.695, 15378.00
1416.745, 15407.00
1417.795, 15419.00
1418.845, 15510.00
1419.895, 15638.00
1420.945, 15487.00
1421.995, 15397.00
1423.044, 15593.00
1424.093, 15588.00
1425.142, 15652.00
1426.191, 15569.00
1427.240, 15409.00
1428.289, 15572.00
1429.337, 15618.00
1430.385, 15534.00
1431.433, 15385.00
1432.481, 15684.00
1433.529, 15470.00
1434.577, 15594.00
1435.624, 15639.00
1436.672, 15640.00
1437.719, 15685.52
1438.766, 15763.00
1439.812, 15717.00
1440.859, 15822.00
1441.905, 15901.00
1442.952, 15874.00
1443.998, 15816.00
1445.044, 15921.00
1446.090, 15835.00
1447.135, 15662.00
1448.181, 15875.00
1449.226, 15801.00
1450.271, 15873.00
1451.316, 15810.00
1452.361, 15698.00
1453.405, 15902.00
1454.450, 15935.00
1455.494, 15996.00
1456.538, 15858.00
1457.582, 15994.00
1458.626, 15914.00
1459.670, 15913.00
1460.713, 15887.00
1461.757, 15756.00
1462.800, 15710.00
1463.843, 15691.67
1464.886, 15928.00
1465.928, 15724.00
1466.971, 15811.00
1468.013, 15937.00
1469.055, 15779.00
1470.097, 15772.00
1471.139, 15701.00
1472.181, 15842.00
1473.222, 15848.00
1474.263, 15815.00
1475.305, 15793.00
1476.346, 15835.00
1477.386, 15931.00
1478.427, 15621.00
1479.468, 15825.00
1480.508, 15593.00
1481.548, 15665.00
1482.588, 15726.00
1483.628, 15762.00
1484.668, 15843.00
1485.707, 15850.34
1486.747, 15787.00
1487.786, 15868.00
1488.825, 15772.00
1489.864, 15758.00
1490.902, 15859.00
1491.941, 15639.00
1492.979, 15720.00
1494.017, 15915.00
1495.055, 15548.00
1496.093, 15763.00
1497.131, 15842.00
1498.168, 15660.00
1499.206, 15554.00
1500.243, 15820.00
1501.280, 15614.00
1502.317, 15650.00
1503.354, 15811.00
1504.390, 15624.00
1505.426, 15716.00
1506.463, 15899.00
1507.499, 15762.00
1508.535, 15659.00
1509.570, 15782.00
1510.606, 15752.00
1511.641, 15715.00
1512.676, 15873.00
1513.711, 15848.00
1514.746, 15693.00
1515.781, 15727.00
1516.816, 15848.00
1517.850, 15707.00
1518.884, 15765.00
1519.918, 15773.00
1520.952, 15662.00
1521.986, 15779.00
1523.019, 15649.00
1524.053, 15765.00
1525.086, 15672.00
1526.119, 15805.00
1527.152, 15683.00
1528.185, 15777.00
1529.217, 15762.00
1530.250, 15693.00
1531.282, 15770.00
1532.314, 15800.00
1533.346, 15739.00
1534.377, 15684.00
1535.409, 15727.96
1536.440, 15779.00
1537.472, 15782.00
1538.503, 15812.00
1539.534, 15830.00
1540.564, 15633.00
1541.595, 15667.00
1542.625, 15682.00
1543.656, 15797.00
1544.686, 15796.56
1545.716, 15876.00
1546.745, 15847.00
1547.775, 15910.00
1548.804, 15925.00
1549.834, 15802.00
1550.863, 16023.00
1551.892, 15847.00
1552.920, 15898.00
1553.949, 16024.00
1554.977, 16012.00
1556.006, 15765.00
1557.034, 15848.00
1558.062, 15683.00
1559.089, 15763.00
1560.117, 15734.00
1561.144, 15689.00
1562.172, 15809.00
1563.199, 15577.00
1564.226, 15743.00
1565.252, 15660.00
1566.279, 15670.00
1567.305, 15835.00
1568.332, 15844.00
1569.358, 15902.00
1570.384, 15839.00
1571.409, 15755.00
1572.435, 15886.00
##END=



