##NAMES=Epidote
##RRUFFID=R050191
##IDEAL CHEMISTRY=Ca_2_Fe^3+^Al_2_(Si_2_O_7_)(SiO_4_)O(OH)
##LOCALITY=Pampa Blanca, Castrovirreyna Province, Huancavelica Department, Peru
##OWNER=RRUFF
##SOURCE=Dave Bunk Minerals
##DESCRIPTION=Cluster of green elongated prismatic crystals
##STATUS=The identification of this mineral has been confirmed by X-ray diffraction and chemical analysis
##URL=rruff.info/R050191
##MEASURED CHEMISTRY=Ca_2.00_Al_2.00_(Fe^3+^_0.84_Al_0.16_)(SiO_4_)(Si_2_O_7_)O(OH)
##PIN_ID=L01410
##ORIENTATION=Laser parallel to c* (0 0 1). Fiducial mark perpendicular to laser is parallel to -a [-1 0 0]
53.91000, 559.0000
55.14900, 576.0000
56.38700, 601.0000
57.62600, 642.0000
58.86400, 678.0000
60.10300, 669.0000
61.34100, 743.0000
62.57900, 806.0000
63.81700, 863.0000
65.05400, 994.0000
66.29200, 1135.000
67.52900, 1379.000
68.76700, 1759.000
70.00400, 2079.000
71.24100, 2289.000
72.47700, 2752.000
73.71400, 3500.000
74.95100, 4355.000
76.18700, 5359.000
77.42300, 6730.000
78.65900, 8572.000
79.89500, 10906.00
81.13100, 13791.00
82.36700, 17466.00
83.60200, 21459.00
84.83700, 25672.00
86.07200, 29883.00
87.30800, 33704.00
88.54200, 36640.00
89.77700, 39144.00
91.01200, 41954.00
92.24600, 45270.00
93.48000, 47889.00
94.71400, 47469.00
95.94800, 43698.00
97.18200, 38069.00
98.41600, 31865.00
99.64900, 26496.00
100.8830, 21935.00
102.1160, 18201.00
103.3490, 15642.00
104.5820, 13762.00
105.8150, 12871.00
107.0470, 13073.00
108.2800, 12498.00
109.5120, 10565.00
110.7440, 9396.000
111.9760, 9010.000
113.2080, 8794.000
114.4400, 8773.000
115.6710, 8572.000
116.9030, 8364.000
118.1340, 8385.000
119.3650, 8483.000
120.5960, 8822.000
121.8270, 9392.000
123.0580, 9872.708
124.2880, 10689.00
125.5190, 11300.00
126.7490, 12210.00
127.9790, 13155.00
129.2090, 13595.00
130.4390, 13687.00
131.6680, 13389.00
132.8980, 12749.00
134.1270, 12113.00
135.3560, 11591.00
136.5850, 10923.00
137.8140, 10354.00
139.0430, 9987.000
140.2710, 9540.252
141.5000, 9233.000
142.7280, 8940.000
143.9560, 8829.000
145.1840, 8647.000
146.4120, 8691.000
147.6390, 8634.000
148.8670, 8644.000
150.0940, 8858.000
151.3210, 9203.000
152.5490, 9323.000
153.7750, 9742.000
155.0020, 10304.00
156.2290, 10637.00
157.4550, 11294.00
158.6810, 11772.00
159.9080, 12305.00
161.1340, 13094.00
162.3590, 13938.00
163.5850, 14708.00
164.8110, 15466.00
166.0360, 15980.00
167.2610, 16282.00
168.4860, 16451.00
169.7110, 16406.00
170.9360, 15980.00
172.1610, 15066.00
173.3850, 14360.00
174.6100, 13457.00
175.8340, 12978.00
177.0580, 12268.00
178.2820, 12029.00
179.5050, 11960.00
180.7290, 12177.00
181.9520, 12630.00
183.1760, 13311.00
184.3990, 13633.00
185.6220, 13669.00
186.8450, 13304.00
188.0670, 12614.00
189.2900, 12171.00
190.5120, 11686.00
191.7340, 11398.00
192.9560, 11582.00
194.1780, 11454.00
195.4000, 11503.00
196.6220, 11871.00
197.8430, 12111.00
199.0640, 12552.00
200.2860, 12882.00
201.5070, 12908.00
202.7270, 12702.00
203.9480, 12546.00
205.1690, 12296.00
206.3890, 12217.00
207.6090, 12175.00
208.8290, 12366.45
210.0490, 12674.00
211.2690, 13085.00
212.4890, 13611.00
213.7080, 14259.00
214.9280, 14947.00
216.1470, 16193.00
217.3660, 17273.00
218.5850, 18789.00
219.8030, 20282.00
221.0220, 22038.00
222.2400, 23395.00
223.4590, 25124.00
224.6770, 25865.00
225.8950, 26666.00
227.1120, 26336.00
228.3300, 25262.00
229.5480, 23756.00
230.7650, 22025.00
231.9820, 20930.00
233.1990, 19658.00
234.4160, 18808.00
235.6330, 18016.00
236.8490, 17924.00
238.0660, 18065.00
239.2820, 18040.00
240.4980, 17972.00
241.7140, 17979.00
242.9300, 17756.00
244.1460, 17170.00
245.3610, 17107.00
246.5770, 17182.00
247.7920, 17202.00
249.0070, 17540.00
250.2220, 17906.00
251.4370, 18311.00
252.6510, 18505.00
253.8660, 17983.00
255.0800, 17427.00
256.2940, 16975.00
257.5080, 16673.00
258.7220, 16124.00
259.9360, 15270.00
261.1490, 14907.00
262.3630, 14874.00
263.5760, 15325.00
264.7890, 16346.00
266.0020, 17394.00
267.2150, 18831.00
268.4270, 20828.00
269.6400, 22574.00
270.8520, 24593.00
272.0640, 25572.00
273.2760, 25291.00
274.4880, 24227.00
275.7000, 22304.00
276.9120, 20448.00
278.1230, 18905.00
279.3340, 17378.00
280.5450, 16075.00
281.7560, 14962.00
282.9670, 14153.00
284.1780, 13606.00
285.3880, 13112.00
286.5980, 13040.00
287.8090, 12909.00
289.0190, 12894.00
290.2290, 12942.00
291.4380, 13135.00
292.6480, 13337.00
293.8570, 13319.00
295.0670, 13551.00
296.2760, 13674.00
297.4850, 13656.00
298.6930, 13331.00
299.9020, 13338.00
301.1110, 13419.00
302.3190, 13613.00
303.5270, 13810.00
304.7350, 14153.16
305.9430, 14522.00
307.1510, 14993.00
308.3580, 15421.00
309.5660, 15925.00
310.7730, 15990.00
311.9800, 15718.00
313.1870, 15241.00
314.3940, 14545.00
315.6010, 13979.00
316.8070, 13425.00
318.0130, 13186.00
319.2200, 13053.00
320.4260, 12762.00
321.6310, 12755.00
322.8370, 12497.00
324.0430, 12167.00
325.2480, 11473.00
326.4540, 11000.00
327.6590, 10567.00
328.8640, 9944.000
330.0680, 9577.000
331.2730, 9228.000
332.4780, 9003.673
333.6820, 8910.404
334.8860, 8902.000
336.0900, 9003.000
337.2940, 9242.000
338.4980, 9545.000
339.7010, 9962.000
340.9050, 10703.00
342.1080, 11339.00
343.3110, 12178.00
344.5140, 13026.00
345.7170, 14034.00
346.9200, 13577.00
348.1220, 13600.00
349.3240, 13137.00
350.5270, 12670.92
351.7290, 12144.00
352.9310, 11547.00
354.1320, 11088.00
355.3340, 10473.00
356.5350, 10206.00
357.7370, 9869.000
358.9380, 9622.000
360.1390, 9659.000
361.3400, 9535.000
362.5400, 9599.000
363.7410, 9538.000
364.9410, 9322.000
366.1410, 9296.000
367.3410, 9241.000
368.5410, 9069.000
369.7410, 8849.000
370.9400, 8708.000
372.1400, 8729.000
373.3390, 8799.000
374.5380, 8854.226
375.7370, 8992.000
376.9360, 9259.000
378.1350, 9626.000
379.3330, 10090.66
380.5310, 10585.00
381.7300, 11353.00
382.9280, 12146.00
384.1260, 13059.00
385.3230, 13547.00
386.5210, 13863.00
387.7180, 13793.00
388.9160, 13500.00
390.1130, 13015.00
391.3100, 12408.00
392.5060, 11942.00
393.7030, 11350.00
394.9000, 10690.00
396.0960, 10342.00
397.2920, 10000.00
398.4880, 9619.000
399.6840, 9755.000
400.8800, 9555.000
402.0750, 9555.000
403.2710, 9687.000
404.4660, 9847.000
405.6610, 10110.00
406.8560, 10548.00
408.0510, 11011.00
409.2450, 11675.00
410.4400, 12784.00
411.6340, 13924.00
412.8280, 15484.00
414.0220, 17543.00
415.2160, 20014.00
416.4100, 22774.00
417.6030, 25751.00
418.7970, 28912.00
419.9900, 32314.00
421.1830, 34501.00
422.3760, 35177.00
423.5690, 34956.00
424.7610, 34130.00
425.9540, 32968.00
427.1460, 31794.00
428.3380, 30955.00
429.5300, 30128.00
430.7220, 29659.00
431.9140, 29122.00
433.1050, 28268.00
434.2970, 27335.00
435.4880, 25753.00
436.6790, 24629.00
437.8700, 23923.00
439.0610, 23335.00
440.2510, 23163.00
441.4420, 23687.00
442.6320, 24756.00
443.8220, 26002.00
445.0120, 27856.00
446.2020, 29428.00
447.3910, 30562.00
448.5810, 31208.00
449.7700, 31459.00
450.9600, 31445.74
452.1490, 30901.00
453.3370, 30201.00
454.5260, 28931.00
455.7150, 27307.00
456.9030, 25358.00
458.0910, 23780.00
459.2800, 21799.00
460.4670, 20251.00
461.6550, 18876.00
462.8430, 17451.00
464.0300, 16546.00
465.2180, 15907.00
466.4050, 15297.00
467.5920, 14656.00
468.7790, 14074.00
469.9650, 13480.00
471.1520, 12744.00
472.3380, 12118.00
473.5250, 11627.00
474.7110, 11017.00
475.8970, 10736.00
477.0820, 10450.00
478.2680, 10507.00
479.4540, 10350.00
480.6390, 10546.00
481.8240, 10574.00
483.0090, 10752.00
484.1940, 11031.00
485.3780, 11266.00
486.5630, 11701.00
487.7470, 12047.00
488.9320, 12637.00
490.1160, 13366.00
491.3000, 14283.00
492.4830, 15114.00
493.6670, 16069.00
494.8500, 17193.00
496.0340, 18245.00
497.2170, 19307.00
498.4000, 20427.00
499.5820, 21146.00
500.7650, 21563.00
501.9480, 21732.00
503.1300, 21868.00
504.3120, 21961.00
505.4940, 21881.00
506.6760, 21746.00
507.8580, 21464.00
509.0390, 20919.00
510.2210, 20490.00
511.4020, 20318.00
512.5830, 20370.49
513.7640, 20669.10
514.9450, 21113.00
516.1250, 21852.00
517.3060, 22796.00
518.4860, 23699.00
519.6660, 24007.00
520.8460, 23300.00
522.0260, 21980.00
523.2060, 20103.00
524.3850, 18210.00
525.5650, 16322.00
526.7440, 14973.00
527.9230, 13535.00
529.1020, 12506.00
530.2810, 11566.00
531.4590, 10949.00
532.6380, 10432.00
533.8160, 10183.00
534.9940, 9855.000
536.1720, 9778.000
537.3500, 9649.592
538.5270, 9716.000
539.7050, 9635.000
540.8820, 9703.000
542.0590, 9830.000
543.2360, 10083.00
544.4130, 10042.00
545.5900, 10377.00
546.7660, 10832.00
547.9430, 11307.00
549.1190, 11904.00
550.2950, 12667.00
551.4710, 13632.00
552.6470, 14942.00
553.8220, 17089.00
554.9980, 19396.00
556.1730, 22758.00
557.3480, 26606.00
558.5230, 31699.00
559.6980, 35030.00
560.8730, 39303.00
562.0470, 41278.00
563.2220, 40451.00
564.3960, 37346.00
565.5700, 33140.00
566.7440, 29015.00
567.9170, 24892.00
569.0910, 21738.00
570.2640, 19484.00
571.4380, 17495.00
572.6110, 16568.00
573.7840, 16063.00
574.9570, 15990.00
576.1290, 16581.00
577.3020, 16889.00
578.4740, 17779.00
579.6460, 18560.00
580.8180, 19852.00
581.9900, 20972.00
583.1620, 22212.00
584.3330, 23673.00
585.5040, 25090.00
586.6760, 26289.00
587.8470, 27716.00
589.0180, 29559.00
590.1880, 31552.00
591.3590, 33971.00
592.5290, 36275.00
593.7000, 38506.00
594.8700, 40052.00
596.0400, 40764.00
597.2090, 40525.00
598.3790, 39036.00
599.5490, 37252.00
600.7180, 34960.00
601.8870, 32528.00
603.0560, 30379.00
604.2250, 28521.00
605.3940, 27004.00
606.5620, 25888.00
607.7300, 24725.00
608.8990, 23771.00
610.0670, 22958.00
611.2350, 21928.00
612.4020, 20719.00
613.5700, 19531.00
614.7370, 18158.00
615.9050, 16785.00
617.0720, 15751.00
618.2390, 14561.00
619.4060, 13687.00
620.5720, 12801.00
621.7390, 11888.00
622.9050, 11211.00
624.0710, 10698.00
625.2370, 10170.00
626.4030, 9753.000
627.5690, 9466.000
628.7340, 9280.000
629.9000, 9061.000
631.0650, 8880.000
632.2300, 8698.000
633.3950, 8536.000
634.5600, 8204.000
635.7240, 8240.000
636.8890, 8052.000
638.0530, 7858.000
639.2170, 7896.000
640.3810, 7725.000
641.5450, 7568.000
642.7080, 7645.000
643.8720, 7604.000
645.0350, 7522.000
646.1980, 7469.000
647.3610, 7347.000
648.5240, 7307.000
649.6870, 7367.000
650.8490, 7424.000
652.0120, 7389.000
653.1740, 7436.252
654.3360, 7384.000
655.4980, 7438.000
656.6600, 7347.000
657.8210, 7296.000
658.9830, 7413.000
660.1440, 7308.000
661.3050, 7458.000
662.4660, 7378.000
663.6270, 7341.000
664.7870, 7388.000
665.9480, 7359.000
667.1080, 7407.000
668.2680, 7336.000
669.4280, 7398.000
670.5880, 7361.000
671.7480, 7571.000
672.9070, 7491.000
674.0670, 7622.000
675.2260, 7647.000
676.3850, 7525.000
677.5440, 7719.000
678.7030, 7696.000
679.8610, 7596.000
681.0200, 7711.000
682.1780, 7675.000
683.3360, 7770.000
684.4940, 7677.000
685.6520, 7502.000
686.8090, 7485.000
687.9670, 7414.000
689.1240, 7276.000
690.2810, 7239.000
691.4380, 7012.000
692.5950, 6821.000
693.7520, 6691.000
694.9080, 6565.000
696.0650, 6476.626
697.2210, 6519.000
698.3770, 6369.000
699.5330, 6412.000
700.6880, 6399.000
701.8440, 6184.000
702.9990, 6245.000
704.1550, 6136.000
705.3100, 6154.000
706.4650, 6044.000
707.6190, 5935.000
708.7740, 5974.000
709.9290, 6028.000
711.0830, 5989.000
712.2370, 5922.000
713.3910, 5882.000
714.5450, 5846.000
715.6980, 5812.023
716.8520, 5855.000
718.0050, 5779.000
719.1580, 5814.000
720.3110, 5829.000
721.4640, 5694.000
722.6170, 5737.000
723.7700, 5778.000
724.9220, 5774.000
726.0740, 5803.294
727.2260, 5745.000
728.3780, 5800.000
729.5300, 5759.000
730.6810, 5701.000
731.8330, 5720.000
732.9840, 5767.000
734.1350, 5698.000
735.2860, 5744.000
736.4370, 5691.000
737.5880, 5735.000
738.7380, 5684.000
739.8880, 5713.000
741.0390, 5755.000
742.1890, 5796.000
743.3380, 5770.000
744.4880, 5766.000
745.6380, 5777.000
746.7870, 5776.000
747.9360, 5854.000
749.0850, 5886.000
750.2340, 5821.000
751.3830, 5796.000
752.5310, 5879.000
753.6800, 5846.000
754.8280, 5905.000
755.9760, 5956.000
757.1240, 5979.000
758.2720, 6041.437
759.4190, 6064.000
760.5670, 6111.000
761.7140, 6139.000
762.8610, 6103.000
764.0080, 6108.000
765.1550, 6192.000
766.3020, 6127.000
767.4480, 6101.000
768.5950, 6149.000
769.7410, 6109.000
770.8870, 6131.000
772.0330, 6150.000
773.1780, 6062.000
774.3240, 6101.000
775.4690, 5974.000
776.6140, 6059.000
777.7590, 5983.000
778.9040, 6125.000
780.0490, 6145.000
781.1940, 6036.000
782.3380, 5985.000
783.4820, 6165.000
784.6260, 6153.000
785.7700, 6141.000
786.9140, 6139.000
788.0580, 6146.000
789.2010, 6159.000
790.3450, 6228.000
791.4880, 6238.423
792.6310, 6261.000
793.7730, 6303.000
794.9160, 6324.000
796.0590, 6353.000
797.2010, 6416.000
798.3430, 6338.000
799.4850, 6441.168
800.6270, 6614.000
801.7690, 6630.000
802.9100, 6590.000
804.0520, 6791.000
805.1930, 6775.000
806.3340, 6885.000
807.4750, 6981.000
808.6160, 7092.000
809.7560, 7207.230
810.8970, 7350.000
812.0370, 7461.000
813.1770, 7632.000
814.3170, 7799.000
815.4570, 7944.000
816.5960, 8289.000
817.7360, 8436.000
818.8750, 8866.000
820.0140, 9217.000
821.1530, 9584.000
822.2920, 10029.00
823.4310, 10514.00
824.5690, 10838.00
825.7070, 11246.00
826.8460, 11525.00
827.9840, 11666.00
829.1220, 11646.00
830.2590, 11663.00
831.3970, 11308.00
832.5340, 11019.00
833.6710, 10750.00
834.8080, 10655.00
835.9450, 10223.00
837.0820, 10171.00
838.2190, 9788.000
839.3550, 9680.000
840.4910, 9607.000
841.6270, 9540.000
842.7630, 9527.000
843.8990, 9469.000
845.0350, 9503.000
846.1700, 9551.000
847.3060, 9765.000
848.4410, 9747.000
849.5760, 10080.00
850.7100, 10191.00
851.8450, 10370.00
852.9800, 10726.00
854.1140, 10949.00
855.2480, 11322.00
856.3820, 11471.00
857.5160, 11766.00
858.6500, 12165.00
859.7830, 12489.00
860.9170, 12729.00
862.0500, 13062.00
863.1830, 13445.00
864.3160, 13539.00
865.4480, 13973.00
866.5810, 14364.00
867.7130, 14443.00
868.8460, 14701.00
869.9780, 14974.00
871.1100, 14625.00
872.2410, 14591.00
873.3730, 14550.00
874.5050, 14416.00
875.6360, 14291.00
876.7670, 14320.00
877.8980, 14442.00
879.0290, 14277.00
880.1590, 14498.00
881.2900, 14385.00
882.4200, 14721.00
883.5500, 14907.00
884.6800, 15010.00
885.8100, 15239.00
886.9400, 15326.00
888.0690, 15605.00
889.1990, 15823.00
890.3280, 16372.00
891.4570, 16854.00
892.5860, 17277.00
893.7140, 18249.00
894.8430, 19076.00
895.9710, 20306.00
897.1000, 21506.00
898.2280, 22956.00
899.3560, 24718.00
900.4830, 26575.00
901.6110, 28954.00
902.7380, 31384.00
903.8660, 34360.00
904.9930, 37246.00
906.1200, 40918.00
907.2460, 44853.00
908.3730, 48644.00
909.5000, 52600.00
910.6260, 56276.00
911.7520, 59330.00
912.8780, 61711.00
914.0040, 62337.00
915.1290, 61404.00
916.2550, 59309.00
917.3800, 55759.00
918.5050, 51812.00
919.6300, 47178.00
920.7550, 42137.00
921.8800, 37838.00
923.0040, 33901.00
924.1290, 30254.00
925.2530, 27180.00
926.3770, 24775.00
927.5010, 22392.00
928.6250, 20384.00
929.7480, 19138.00
930.8720, 17444.00
931.9950, 16565.00
933.1180, 15569.00
934.2410, 14870.00
935.3640, 14139.00
936.4860, 13448.00
937.6090, 13097.00
938.7310, 12584.00
939.8530, 12439.00
940.9750, 11988.00
942.0970, 11648.00
943.2180, 11709.00
944.3400, 11463.00
945.4610, 11299.00
946.5820, 11257.00
947.7030, 11330.00
948.8240, 11354.00
949.9450, 11650.00
951.0650, 11794.00
952.1860, 11873.00
953.3060, 12057.00
954.4260, 12231.00
955.5460, 12476.00
956.6650, 12496.00
957.7850, 12362.00
958.9040, 12329.00
960.0230, 12154.00
961.1420, 11875.00
962.2610, 11621.00
963.3800, 11456.00
964.4990, 11368.00
965.6170, 11329.00
966.7350, 11413.08
967.8530, 11446.00
968.9710, 11828.00
970.0890, 12156.00
971.2070, 12626.00
972.3240, 13340.00
973.4410, 14005.00
974.5580, 14793.00
975.6750, 15619.00
976.7920, 16316.00
977.9090, 16786.00
979.0250, 16848.00
980.1410, 16263.00
981.2580, 15647.00
982.3740, 14921.00
983.4890, 14023.00
984.6050, 13136.00
985.7200, 12324.00
986.8360, 11757.00
987.9510, 11051.00
989.0660, 10561.00
990.1810, 10237.00
991.2950, 10049.00
992.4100, 9668.000
993.5240, 9335.000
994.6390, 9267.000
995.7530, 9023.000
996.8660, 9211.000
997.9800, 9345.000
999.0940, 8648.000
1000.207, 8536.000
1001.320, 8245.000
1002.433, 8291.000
1003.546, 8079.000
1004.659, 8007.000
1005.772, 8080.000
1006.884, 8078.000
1007.996, 8022.000
1009.108, 8010.000
1010.220, 8155.000
1011.332, 8116.000
1012.444, 8145.000
1013.555, 8136.000
1014.666, 8122.000
1015.777, 8135.000
1016.888, 8310.000
1017.999, 8362.000
1019.110, 8509.000
1020.220, 8476.000
1021.331, 8542.000
1022.441, 8696.000
1023.551, 8750.000
1024.661, 8928.000
1025.770, 9065.000
1026.880, 9272.719
1027.989, 9583.000
1029.098, 9837.000
1030.207, 10173.00
1031.316, 10654.00
1032.425, 11030.00
1033.533, 11415.00
1034.642, 11928.00
1035.750, 12166.00
1036.858, 12574.00
1037.966, 12950.00
1039.073, 13050.00
1040.181, 13171.00
1041.288, 13111.00
1042.396, 12923.00
1043.503, 12763.00
1044.610, 12314.00
1045.716, 12052.00
1046.823, 11962.00
1047.929, 11496.00
1049.036, 11452.00
1050.142, 11453.00
1051.248, 11280.00
1052.353, 11497.00
1053.459, 11566.00
1054.564, 11854.00
1055.670, 12152.00
1056.775, 12386.00
1057.880, 12849.00
1058.985, 12975.00
1060.089, 13020.00
1061.194, 12890.00
1062.298, 12706.00
1063.402, 12357.00
1064.506, 12149.00
1065.610, 12089.00
1066.713, 11795.00
1067.817, 11913.00
1068.920, 12059.00
1070.023, 12203.00
1071.126, 12688.00
1072.229, 13272.00
1073.332, 13932.19
1074.435, 14958.00
1075.537, 15788.00
1076.639, 17311.00
1077.741, 18705.00
1078.843, 20758.00
1079.945, 22683.00
1081.046, 25073.00
1082.148, 27434.00
1083.249, 29381.00
1084.350, 30494.00
1085.451, 30225.00
1086.551, 28757.00
1087.652, 26219.00
1088.752, 23499.00
1089.853, 20578.00
1090.953, 17832.00
1092.053, 15530.00
1093.152, 13838.00
1094.252, 12291.00
1095.351, 11341.00
1096.451, 10638.00
1097.550, 9757.000
1098.649, 9485.000
1099.748, 9116.000
1100.846, 8926.000
1101.945, 8574.000
1103.043, 8353.000
1104.141, 8404.000
1105.239, 8202.000
1106.337, 8074.000
1107.434, 7968.000
1108.532, 7819.000
1109.629, 7828.000
1110.726, 7949.000
1111.823, 7936.000
1112.920, 7930.000
1114.017, 7899.000
1115.113, 8063.000
1116.210, 8398.000
1117.306, 8828.000
1118.402, 8859.000
1119.498, 9085.000
1120.593, 9129.000
1121.689, 9141.000
1122.784, 9055.000
1123.879, 8936.000
1124.974, 8604.000
1126.069, 8164.000
1127.164, 7852.000
1128.259, 7695.000
1129.353, 7465.000
1130.447, 7335.000
1131.541, 7291.000
1132.635, 7293.000
1133.729, 7196.000
1134.822, 7111.000
1135.916, 7014.000
1137.009, 7082.000
1138.102, 7047.000
1139.195, 6958.000
1140.288, 7040.000
1141.380, 6874.000
1142.473, 6916.000
1143.565, 6918.000
1144.657, 7008.000
1145.749, 6953.000
1146.841, 6883.000
1147.932, 6663.000
1149.024, 6824.000
1150.115, 6710.000
1151.206, 6729.000
1152.297, 6669.000
1153.388, 6767.000
1154.479, 6778.000
1155.569, 6725.000
1156.659, 6787.000
1157.750, 6693.000
1158.839, 6710.000
1159.929, 6633.000
1161.019, 6595.000
1162.108, 6694.000
1163.198, 6606.000
1164.287, 6830.000
1165.376, 6713.000
1166.465, 6761.000
1167.553, 6669.000
1168.642, 6745.000
1169.730, 6703.000
1170.818, 6732.000
1171.906, 6663.000
1172.994, 6628.000
1174.082, 6721.000
1175.170, 6687.000
1176.257, 6689.000
1177.344, 6671.000
1178.431, 6668.067
1179.518, 6585.000
1180.605, 6649.000
1181.691, 6660.000
1182.778, 6606.000
1183.864, 6647.000
1184.950, 6712.000
1186.036, 6678.000
1187.122, 6697.000
1188.207, 6576.000
1189.292, 6632.000
1190.378, 6582.000
1191.463, 6541.000
1192.548, 6605.000
1193.632, 6747.000
1194.717, 6692.000
1195.801, 6666.000
1196.886, 6612.000
1197.970, 6602.000
1199.054, 6737.000
1200.137, 6717.000
1201.221, 6667.000
1202.305, 6624.000
1203.388, 6539.000
1204.471, 6708.000
1205.554, 6635.000
1206.637, 6711.000
1207.719, 6630.000
1208.802, 6561.000
1209.884, 6614.000
1210.966, 6669.000
1212.048, 6639.000
1213.130, 6594.000
1214.212, 6708.000
1215.293, 6611.000
1216.374, 6695.000
1217.456, 6697.000
1218.536, 6722.000
1219.617, 6613.000
1220.698, 6666.000
1221.778, 6601.000
1222.859, 6663.000
1223.939, 6717.000
1225.019, 6576.000
1226.099, 6667.000
1227.178, 6723.000
1228.258, 6687.000
1229.337, 6621.000
1230.417, 6709.000
1231.496, 6537.000
1232.574, 6665.000
1233.653, 6637.000
1234.732, 6563.000
1235.810, 6568.000
1236.888, 6622.000
1237.966, 6678.000
1239.044, 6519.000
1240.122, 6550.000
1241.199, 6514.000
1242.277, 6624.000
1243.354, 6641.000
1244.431, 6515.000
1245.508, 6505.000
1246.585, 6570.000
1247.661, 6519.000
1248.738, 6544.000
1249.814, 6509.000
1250.890, 6584.000
1251.966, 6512.000
1253.042, 6527.000
1254.117, 6583.000
1255.193, 6472.000
1256.268, 6497.000
1257.343, 6556.000
1258.418, 6534.000
1259.493, 6433.000
1260.567, 6595.000
1261.642, 6571.000
1262.716, 6492.000
1263.790, 6639.000
1264.864, 6476.000
1265.938, 6596.000
1267.011, 6516.000
1268.085, 6616.000
1269.158, 6515.000
1270.231, 6511.000
1271.304, 6441.000
1272.377, 6602.000
1273.450, 6596.000
1274.522, 6547.000
1275.594, 6437.000
1276.666, 6614.000
1277.738, 6568.000
1278.810, 6535.000
1279.882, 6429.000
1280.953, 6539.000
1282.025, 6469.000
1283.096, 6441.000
1284.167, 6565.000
1285.238, 6573.000
1286.308, 6547.000
1287.379, 6460.000
1288.449, 6541.000
1289.519, 6531.000
1290.589, 6655.000
1291.659, 6528.000
1292.729, 6608.000
1293.798, 6524.000
1294.868, 6619.000
1295.937, 6516.000
1297.006, 6479.000
1298.075, 6448.000
1299.143, 6513.000
1300.212, 6555.000
1301.280, 6498.000
1302.348, 6447.000
1303.416, 6529.000
1304.484, 6495.000
1305.552, 6523.000
1306.620, 6573.000
1307.687, 6525.000
1308.754, 6527.000
1309.821, 6517.000
1310.888, 6441.000
1311.955, 6571.000
1313.021, 6593.000
1314.088, 6481.000
1315.154, 6519.000
1316.220, 6573.000
1317.286, 6595.000
1318.352, 6502.000
1319.417, 6507.000
1320.483, 6521.000
1321.548, 6497.000
1322.613, 6529.000
1323.678, 6595.000
1324.743, 6465.000
1325.807, 6445.000
1326.872, 6473.000
1327.936, 6391.000
1329.000, 6432.000
1330.064, 6512.000
1331.128, 6516.000
1332.191, 6371.000
1333.255, 6573.000
1334.318, 6387.000
1335.381, 6458.000
1336.444, 6387.000
1337.507, 6389.000
1338.569, 6541.000
1339.632, 6483.000
1340.694, 6471.000
1341.756, 6467.000
1342.818, 6504.000
1343.880, 6492.000
1344.941, 6508.000
1346.003, 6514.218
1347.064, 6519.000
1348.125, 6521.000
1349.186, 6512.000
1350.247, 6518.000
1351.308, 6581.000
1352.368, 6475.000
1353.428, 6616.000
1354.489, 6608.000
1355.549, 6573.000
1356.608, 6605.000
1357.668, 6574.000
1358.727, 6504.000
1359.787, 6524.000
1360.846, 6527.000
1361.905, 6643.000
1362.964, 6659.000
1364.022, 6488.000
1365.081, 6651.000
1366.139, 6579.000
1367.197, 6631.000
1368.255, 6644.000
1369.313, 6616.000
1370.371, 6611.000
1371.428, 6632.000
1372.486, 6610.530
1373.543, 6611.191
1374.600, 6583.000
1375.657, 6611.000
1376.713, 6568.000
1377.770, 6603.000
1378.826, 6558.000
1379.882, 6506.000
1380.938, 6521.000
1381.994, 6520.000
1383.050, 6501.148
1384.106, 6520.000
1385.161, 6494.000
1386.216, 6524.000
1387.271, 6537.000
1388.326, 6551.000
1389.381, 6535.525
1390.435, 6431.000
1391.490, 6489.000
1392.544, 6447.000
1393.598, 6427.000
1394.652, 6479.000
1395.705, 6492.000
1396.759, 6483.000
1397.812, 6542.000
1398.866, 6520.000
1399.919, 6457.000
1400.972, 6449.000
1402.024, 6460.744
1403.077, 6442.000
1404.129, 6515.000
1405.181, 6521.000
1406.233, 6543.000
1407.285, 6374.000
1408.337, 6492.000
1409.389, 6471.000
1410.440, 6315.366
1411.491, 6448.635
1412.542, 6528.480
1413.593, 6557.773
1414.644, 6385.102
1415.695, 6473.224
1416.745, 6456.823
1417.795, 6436.136
1418.845, 6560.955
1419.895, 6417.649
1420.945, 6540.160
1421.995, 6556.563
1423.044, 6509.000
1424.093, 6522.000
1425.142, 6509.124
1426.191, 6487.000
1427.240, 6494.000
1428.289, 6490.211
1429.337, 6515.055
1430.385, 6498.000
1431.433, 6550.000
1432.481, 6559.594
1433.529, 6548.000
1434.577, 6609.000
1435.624, 6606.000
1436.672, 6629.000
1437.719, 6565.000
1438.766, 6580.000
1439.812, 6598.000
1440.859, 6572.000
1441.905, 6590.212
1442.952, 6543.000
1443.998, 6608.000
1445.044, 6631.000
1446.090, 6667.000
1447.135, 6637.000
1448.181, 6683.000
1449.226, 6743.000
1450.271, 6672.000
1451.316, 6594.000
1452.361, 6682.000
1453.405, 6687.000
1454.450, 6756.000
1455.494, 6715.000
1456.538, 6634.000
1457.582, 6707.000
1458.626, 6599.000
1459.670, 6698.000
1460.713, 6713.000
1461.757, 6673.000
1462.800, 6632.000
1463.843, 6702.000
1464.886, 6606.000
1465.928, 6697.000
1466.971, 6668.000
1468.013, 6701.000
1469.055, 6611.000
1470.097, 6682.000
1471.139, 6764.000
1472.181, 6721.000
1473.222, 6643.000
1474.263, 6744.000
1475.305, 6708.000
1476.346, 6681.000
1477.386, 6779.000
1478.427, 6611.000
1479.468, 6613.000
1480.508, 6654.000
1481.548, 6666.000
1482.588, 6671.000
1483.628, 6642.000
1484.668, 6586.000
1485.707, 6738.000
1486.747, 6616.000
1487.786, 6731.000
1488.825, 6608.000
1489.864, 6679.000
1490.902, 6713.000
1491.941, 6690.000
1492.979, 6624.000
1494.017, 6662.000
1495.055, 6666.000
1496.093, 6729.000
1497.131, 6734.000
1498.168, 6723.000
1499.206, 6809.000
1500.243, 6770.000
1501.280, 6620.000
1502.317, 6663.000
1503.354, 6718.000
1504.390, 6688.000
1505.426, 6743.000
1506.463, 6719.000
1507.499, 6777.000
1508.535, 6742.000
1509.570, 6689.000
1510.606, 6711.000
1511.641, 6782.000
1512.676, 6847.000
1513.711, 6721.000
1514.746, 6823.000
1515.781, 6712.000
1516.816, 6757.000
1517.850, 6723.000
1518.884, 6733.000
1519.918, 6809.000
1520.952, 6726.000
1521.986, 6795.000
1523.019, 6811.000
1524.053, 6721.000
1525.086, 6752.000
1526.119, 6684.000
1527.152, 6712.000
1528.185, 6759.000
1529.217, 6789.000
1530.250, 6756.000
1531.282, 6771.974
1532.314, 6802.000
1533.346, 6733.000
1534.377, 6726.000
1535.409, 6687.000
1536.440, 6698.000
1537.472, 6747.000
1538.503, 6700.000
1539.534, 6762.000
1540.564, 6707.000
1541.595, 6691.000
1542.625, 6774.000
1543.656, 6786.000
1544.686, 6792.000
1545.716, 6729.000
1546.745, 6799.000
1547.775, 6872.000
1548.804, 6772.000
1549.834, 6743.000
1550.863, 6738.000
1551.892, 6955.000
1552.920, 6923.000
1553.949, 7008.000
1554.977, 6851.000
1556.006, 6783.000
1557.034, 6787.000
1558.062, 6735.000
1559.089, 6819.000
1560.117, 6846.000
1561.144, 6784.000
1562.172, 6781.000
1563.199, 6707.000
1564.226, 6726.000
1565.252, 6654.000
1566.279, 6677.110
1567.305, 6809.000
1568.332, 6738.000
1569.358, 6770.000
1570.384, 6842.000
1571.409, 6736.000
1572.435, 6862.000
##END=



