##NAMES=Epididymite
##RRUFFID=R070580
##IDEAL CHEMISTRY=Na_2_Be_2_Si_6_O_15_&#183;H_2_O
##LOCALITY=Narsarsuk, Narsaq, Kitaa, Greenland
##OWNER=RRUFF
##SOURCE=James Shigley
##DESCRIPTION=A translucent to white elongated prism.
##STATUS=The identification of this mineral is confirmed by single-crystal X-ray diffraction and chemical analysis.
##URL=rruff.info/R070580
##MEASURED CHEMISTRY=(Na_1.97_K_0.03_)_Σ=2_Be_2_Si_6.00_O_15_·H_2_O; trace amounts of Al; Be and H_2_O assumed by stoichiometry
##PIN_ID=M01839
##ORIENTATION=Laser parallel to b* (0 1 0). Fiducial mark perpendicular to laser is parallel to -c [0 0 -1]
111.2060, 7139.000
112.4440, 7319.000
113.6810, 7543.000
114.9180, 7870.000
116.1550, 7892.000
117.3920, 8230.000
118.6290, 8738.000
119.8650, 9216.000
121.1010, 9717.000
122.3370, 10554.00
123.5730, 11018.00
124.8090, 11210.00
126.0450, 11119.00
127.2800, 11221.00
128.5150, 11301.00
129.7500, 11953.00
130.9850, 12532.00
132.2200, 13228.00
133.4540, 13443.00
134.6890, 13115.00
135.9230, 12233.00
137.1570, 10849.00
138.3900, 9885.000
139.6240, 9040.000
140.8580, 8621.000
142.0910, 8302.000
143.3240, 8237.000
144.5570, 8130.000
145.7900, 8099.000
147.0220, 8077.000
148.2550, 8209.000
149.4870, 8288.000
150.7190, 8390.000
151.9510, 8368.000
153.1830, 8197.000
154.4140, 8116.000
155.6460, 7871.000
156.8770, 7605.000
158.1080, 7432.000
159.3390, 7266.000
160.5690, 7228.000
161.8000, 7086.000
163.0300, 7177.000
164.2600, 7192.000
165.4900, 7126.000
166.7200, 7064.000
167.9500, 7204.000
169.1790, 7210.000
170.4080, 7222.000
171.6380, 7210.000
172.8670, 7209.000
174.0950, 7210.000
175.3240, 7333.000
176.5520, 7204.000
177.7810, 7297.000
179.0090, 7173.000
180.2370, 7375.000
181.4640, 7327.000
182.6920, 7395.000
183.9190, 7558.000
185.1460, 7605.000
186.3730, 7783.000
187.6000, 7749.000
188.8270, 7988.000
190.0530, 8051.000
191.2800, 8226.000
192.5060, 8396.000
193.7320, 8508.000
194.9580, 8585.000
196.1830, 8769.000
197.4090, 8948.000
198.6340, 9029.000
199.8590, 8902.000
201.0840, 8841.000
202.3090, 8601.000
203.5340, 8570.000
204.7580, 8432.000
205.9820, 8266.000
207.2060, 8039.000
208.4300, 8016.000
209.6540, 7889.000
210.8780, 7837.000
212.1010, 7807.000
213.3240, 7846.000
214.5470, 7753.000
215.7700, 7754.000
216.9930, 7802.000
218.2150, 7807.000
219.4380, 7806.000
220.6600, 7899.000
221.8820, 7886.000
223.1040, 8019.000
224.3260, 8027.000
225.5470, 8267.000
226.7680, 8317.000
227.9900, 8551.000
229.2110, 8815.000
230.4310, 9154.000
231.6520, 9654.000
232.8720, 9905.000
234.0930, 10345.00
235.3130, 10897.00
236.5330, 11044.00
237.7530, 11686.00
238.9720, 12050.00
240.1920, 12539.00
241.4110, 12770.00
242.6300, 12892.00
243.8490, 12866.00
245.0680, 12551.00
246.2860, 11943.00
247.5040, 11502.00
248.7230, 10887.00
249.9410, 10662.00
251.1590, 10467.00
252.3760, 10152.00
253.5940, 10281.00
254.8110, 10035.00
256.0280, 9984.000
257.2450, 10031.00
258.4620, 9896.000
259.6790, 9929.729
260.8950, 10212.00
262.1120, 9923.000
263.3280, 9891.000
264.5440, 9882.000
265.7600, 9584.000
266.9750, 9683.000
268.1910, 9405.000
269.4060, 9268.000
270.6210, 9124.000
271.8360, 8894.000
273.0510, 8897.000
274.2650, 8530.000
275.4800, 8335.000
276.6940, 8317.000
277.9080, 8120.000
279.1220, 8032.000
280.3360, 8076.000
281.5490, 7985.000
282.7630, 8110.000
283.9760, 8122.000
285.1890, 8208.000
286.4020, 8157.000
287.6150, 8032.000
288.8270, 7811.000
290.0400, 7818.000
291.2520, 7882.000
292.4640, 7850.000
293.6760, 7811.000
294.8870, 7727.000
296.0990, 7738.000
297.3100, 7701.000
298.5210, 7690.957
299.7320, 7795.000
300.9430, 7737.000
302.1540, 7780.000
303.3640, 7900.000
304.5750, 7899.000
305.7850, 7899.000
306.9950, 7912.000
308.2050, 7984.000
309.4140, 8000.000
310.6240, 7994.000
311.8330, 7986.000
313.0420, 7983.000
314.2510, 8028.000
315.4600, 8052.000
316.6680, 8155.000
317.8770, 8102.000
319.0850, 8176.641
320.2930, 8364.000
321.5010, 8243.000
322.7090, 8254.000
323.9160, 8257.000
325.1240, 8453.000
326.3310, 8432.000
327.5380, 8569.000
328.7450, 8609.000
329.9520, 8644.000
331.1580, 8777.000
332.3650, 8874.000
333.5710, 9037.000
334.7770, 9096.000
335.9830, 9407.000
337.1880, 9627.000
338.3940, 9816.000
339.5990, 9788.000
340.8040, 10034.00
342.0090, 10439.00
343.2140, 10654.00
344.4190, 11065.00
345.6230, 11141.00
346.8280, 11246.00
348.0320, 11029.00
349.2360, 10611.00
350.4400, 10264.00
351.6430, 9879.000
352.8470, 9531.000
354.0500, 9478.000
355.2530, 9241.000
356.4560, 9142.000
357.6590, 9139.000
358.8620, 9146.000
360.0640, 9178.000
361.2660, 9035.000
362.4680, 9221.000
363.6700, 9041.000
364.8720, 9165.000
366.0740, 9129.000
367.2750, 9309.000
368.4760, 9342.000
369.6770, 9564.000
370.8780, 9937.000
372.0790, 10172.00
373.2800, 10532.00
374.4800, 10862.43
375.6800, 11261.00
376.8800, 11558.00
378.0800, 11874.00
379.2800, 12241.00
380.4790, 12493.00
381.6790, 12877.00
382.8780, 12807.00
384.0770, 12501.00
385.2760, 11987.00
386.4750, 11452.00
387.6730, 10947.00
388.8720, 10678.00
390.0700, 10200.00
391.2680, 9695.000
392.4660, 9642.000
393.6630, 9366.000
394.8610, 9361.000
396.0580, 9459.000
397.2550, 9851.000
398.4520, 10259.00
399.6490, 10958.00
400.8460, 11387.00
402.0420, 11842.00
403.2390, 12440.00
404.4350, 12921.00
405.6310, 13923.00
406.8270, 14925.00
408.0220, 15661.00
409.2180, 15736.00
410.4130, 15166.00
411.6080, 13930.00
412.8030, 12313.00
413.9980, 10981.00
415.1920, 10095.00
416.3870, 9375.000
417.5810, 9172.000
418.7750, 8917.000
419.9690, 8773.000
421.1630, 8740.000
422.3570, 8537.000
423.5500, 8563.000
424.7430, 8492.000
425.9360, 8344.000
427.1290, 8512.000
428.3220, 8440.000
429.5150, 8571.000
430.7070, 8592.000
431.8990, 8463.000
433.0910, 8506.000
434.2830, 8476.000
435.4750, 8597.000
436.6670, 8633.000
437.8580, 8575.000
439.0490, 8497.000
440.2400, 8507.000
441.4310, 8606.000
442.6220, 8618.000
443.8130, 8579.000
445.0030, 8539.000
446.1930, 8643.000
447.3830, 8725.000
448.5730, 8703.000
449.7630, 8696.000
450.9520, 8586.000
452.1420, 8664.000
453.3310, 8711.000
454.5200, 8749.000
455.7090, 8875.000
456.8980, 8922.000
458.0860, 9059.000
459.2740, 9114.000
460.4630, 9199.000
461.6510, 9276.000
462.8380, 9385.000
464.0260, 9535.000
465.2140, 9790.000
466.4010, 10254.00
467.5880, 10577.00
468.7750, 11066.00
469.9620, 11413.00
471.1490, 11891.00
472.3350, 12390.00
473.5220, 12907.00
474.7080, 13750.00
475.8940, 14297.00
477.0800, 14592.00
478.2650, 14120.00
479.4510, 13403.00
480.6360, 12575.00
481.8210, 11627.00
483.0060, 11072.00
484.1910, 10740.00
485.3760, 10556.00
486.5600, 10292.00
487.7440, 10139.38
488.9290, 9984.569
490.1130, 9902.000
491.2960, 9736.000
492.4800, 9658.000
493.6630, 9547.000
494.8470, 9495.000
496.0300, 9633.000
497.2130, 9592.000
498.3960, 9532.000
499.5780, 9840.000
500.7610, 9924.000
501.9430, 10090.00
503.1250, 10326.00
504.3070, 10526.00
505.4890, 11020.00
506.6710, 11686.00
507.8520, 12517.00
509.0330, 13875.00
510.2140, 15461.00
511.3950, 17585.00
512.5760, 19914.00
513.7570, 22400.00
514.9370, 24421.00
516.1170, 26725.00
517.2980, 30143.00
518.4780, 33137.00
519.6570, 35532.00
520.8370, 36128.00
522.0160, 34329.00
523.1960, 30905.00
524.3750, 26075.00
525.5540, 21723.00
526.7320, 18467.00
527.9110, 15973.00
529.0890, 14236.00
530.2680, 12931.00
531.4460, 12256.00
532.6240, 11559.00
533.8010, 11123.00
534.9790, 10751.00
536.1560, 10637.00
537.3340, 10325.00
538.5110, 10072.00
539.6880, 10087.00
540.8650, 9839.000
542.0410, 9932.000
543.2180, 9880.000
544.3940, 9811.000
545.5700, 9670.000
546.7460, 9606.000
547.9220, 9704.000
549.0970, 9548.000
550.2730, 9545.000
551.4480, 9399.000
552.6230, 9498.000
553.7980, 9523.000
554.9730, 9508.000
556.1470, 9418.000
557.3210, 9506.000
558.4960, 9410.000
559.6700, 9395.000
560.8440, 9531.000
562.0170, 9536.000
563.1910, 9390.000
564.3640, 9428.000
565.5380, 9471.000
566.7110, 9415.000
567.8840, 9365.000
569.0560, 9475.000
570.2290, 9535.000
571.4010, 9663.000
572.5740, 9674.000
573.7460, 9828.789
574.9180, 9903.000
576.0890, 10127.00
577.2610, 10317.00
578.4320, 10520.00
579.6040, 10809.00
580.7750, 10968.00
581.9450, 11267.00
583.1160, 11615.00
584.2870, 11896.00
585.4570, 11808.00
586.6270, 11544.00
587.7980, 11278.00
588.9670, 10902.00
590.1370, 10518.00
591.3070, 10278.00
592.4760, 9924.000
593.6450, 9833.000
594.8140, 9772.000
595.9830, 9499.000
597.1520, 9631.000
598.3210, 9656.000
599.4890, 9650.000
600.6570, 9682.000
601.8250, 9547.000
602.9930, 9459.000
604.1610, 9559.000
605.3290, 9609.000
606.4960, 9605.000
607.6630, 9529.000
608.8300, 9565.000
609.9970, 9577.000
611.1640, 9504.000
612.3300, 9543.000
613.4970, 9618.000
614.6630, 9612.000
615.8290, 9681.000
616.9950, 9637.000
618.1610, 9730.000
619.3260, 9683.000
620.4920, 9695.000
621.6570, 9815.000
622.8220, 9959.000
623.9870, 9842.000
625.1520, 9991.000
626.3160, 10129.00
627.4810, 10030.00
628.6450, 10095.00
629.8090, 10232.00
630.9730, 10126.00
632.1370, 10249.00
633.3000, 10395.00
634.4640, 10159.00
635.6270, 10149.00
636.7900, 10186.00
637.9530, 10136.00
639.1160, 10014.00
640.2780, 9901.000
641.4410, 9901.000
642.6030, 9787.000
643.7650, 9880.000
644.9270, 9741.000
646.0890, 9827.000
647.2500, 9765.000
648.4120, 9798.000
649.5730, 9772.000
650.7340, 9764.000
651.8950, 9857.000
653.0560, 9789.000
654.2160, 9818.000
655.3770, 9762.000
656.5370, 9794.000
657.6970, 9743.900
658.8570, 9678.000
660.0170, 9659.000
661.1760, 9709.000
662.3360, 9686.000
663.4950, 9710.000
664.6540, 9680.000
665.8130, 9721.000
666.9720, 9744.000
668.1310, 9674.000
669.2890, 9794.000
670.4470, 9715.000
671.6050, 9653.000
672.7630, 9719.000
673.9210, 9733.000
675.0790, 9690.000
676.2360, 9715.000
677.3930, 9687.000
678.5510, 9739.000
679.7080, 9770.000
680.8640, 9826.000
682.0210, 9734.000
683.1770, 9747.000
684.3340, 9889.000
685.4900, 9757.000
686.6460, 9834.000
687.8020, 9881.000
688.9570, 9828.000
690.1130, 9975.000
691.2680, 9741.000
692.4230, 9743.000
693.5780, 9907.000
694.7330, 9853.000
695.8880, 9822.000
697.0420, 9846.000
698.1960, 9857.000
699.3510, 9848.000
700.5040, 9856.000
701.6580, 9854.000
702.8120, 9863.000
703.9650, 9888.000
705.1190, 9864.000
706.2720, 9920.000
707.4250, 9977.000
708.5780, 9950.000
709.7300, 10003.00
710.8830, 10044.00
712.0350, 9995.000
713.1870, 10059.15
714.3390, 10046.00
715.4910, 10076.00
716.6430, 10047.00
717.7940, 10072.55
718.9460, 10071.21
720.0970, 10113.00
721.2480, 10051.00
722.3990, 10076.00
723.5500, 10013.00
724.7000, 10053.00
725.8500, 10129.00
727.0010, 9973.000
728.1510, 9988.000
729.3010, 10178.00
730.4500, 10084.00
731.6000, 10181.00
732.7490, 10131.00
733.8980, 10163.00
735.0470, 10247.00
736.1960, 10162.00
737.3450, 10142.00
738.4940, 10135.00
739.6420, 10196.00
740.7900, 10198.00
741.9380, 10178.00
743.0860, 10324.00
744.2340, 10461.00
745.3810, 10397.00
746.5290, 10513.00
747.6760, 10422.00
748.8230, 10464.00
749.9700, 10412.00
751.1170, 10559.00
752.2630, 10626.00
753.4100, 10542.00
754.5560, 10771.00
755.7020, 10723.00
756.8480, 10737.00
757.9940, 10710.00
759.1390, 10683.00
760.2850, 10659.30
761.4300, 10635.61
762.5750, 10608.00
763.7200, 10598.00
764.8650, 10623.00
766.0100, 10622.00
767.1540, 10615.62
768.2980, 10627.23
769.4420, 10595.00
770.5860, 10621.00
771.7300, 10605.00
772.8740, 10576.00
774.0170, 10520.00
775.1610, 10597.00
776.3040, 10533.00
777.4470, 10656.00
778.5900, 10486.00
779.7320, 10655.00
780.8750, 10540.00
782.0170, 10646.00
783.1590, 10636.00
784.3010, 10651.00
785.4430, 10595.00
786.5850, 10587.00
787.7260, 10647.00
788.8680, 10735.00
790.0090, 10690.00
791.1500, 10750.00
792.2910, 10786.00
793.4310, 10835.00
794.5720, 10849.00
795.7120, 10811.00
796.8520, 10949.00
797.9920, 10915.00
799.1320, 10887.00
800.2720, 10947.00
801.4120, 10875.00
802.5510, 10789.00
803.6900, 10821.00
804.8290, 10941.00
805.9680, 10707.00
807.1070, 10873.00
808.2450, 10846.00
809.3840, 10836.00
810.5220, 10780.00
811.6600, 10862.00
812.7980, 10879.00
813.9360, 10976.00
815.0730, 11091.00
816.2110, 10977.00
817.3480, 11021.00
818.4850, 10975.00
819.6220, 11054.00
820.7590, 10957.00
821.8960, 10930.00
823.0320, 10968.00
824.1680, 10957.00
825.3040, 10969.08
826.4400, 10995.00
827.5760, 10990.00
828.7120, 10962.00
829.8470, 10961.00
830.9830, 10942.00
832.1180, 10961.46
833.2530, 10993.00
834.3880, 11036.00
835.5220, 11055.00
836.6570, 11062.03
837.7910, 11047.00
838.9250, 11054.00
840.0590, 11018.00
841.1930, 11005.00
842.3270, 11048.00
843.4600, 11124.00
844.5940, 11161.00
845.7270, 11068.00
846.8600, 11156.00
847.9930, 11055.00
849.1250, 11097.00
850.2580, 11192.00
851.3900, 11290.00
852.5230, 11235.02
853.6550, 11388.00
854.7870, 11168.00
855.9180, 11133.00
857.0500, 11194.00
858.1810, 11494.00
859.3130, 11409.00
860.4440, 11361.00
861.5750, 11324.00
862.7050, 11391.00
863.8360, 11431.00
864.9660, 11435.00
866.0970, 11540.00
867.2270, 11354.00
868.3570, 11438.00
869.4870, 11315.00
870.6160, 11348.00
871.7460, 11415.00
872.8750, 11499.00
874.0040, 11356.00
875.1330, 11551.00
876.2620, 11404.00
877.3910, 11508.00
878.5190, 11426.00
879.6470, 11403.00
880.7760, 11438.00
881.9040, 11427.00
883.0310, 11479.00
884.1590, 11503.71
885.2870, 11523.90
886.4140, 11570.00
887.5410, 11563.00
888.6680, 11575.00
889.7950, 11561.00
890.9220, 11589.00
892.0480, 11471.00
893.1750, 11390.00
894.3010, 11401.00
895.4270, 11513.00
896.5530, 11525.00
897.6790, 11522.00
898.8040, 11549.00
899.9300, 11558.00
901.0550, 11602.00
902.1800, 11613.00
903.3050, 11676.00
904.4300, 11514.00
905.5540, 11571.00
906.6790, 11689.00
907.8030, 11435.00
908.9270, 11708.00
910.0510, 11426.00
911.1750, 11598.00
912.2990, 11533.00
913.4220, 11627.00
914.5450, 11567.00
915.6690, 11691.00
916.7920, 11543.00
917.9140, 11579.00
919.0370, 11740.00
920.1600, 11604.00
921.2820, 11509.00
922.4040, 11647.00
923.5260, 11612.00
924.6480, 11505.00
925.7700, 11705.00
926.8910, 11650.00
928.0130, 11641.00
929.1340, 11641.00
930.2550, 11669.15
931.3760, 11671.00
932.4970, 11764.00
933.6170, 11811.00
934.7380, 11840.51
935.8580, 11734.00
936.9780, 11789.00
938.0980, 11777.00
939.2180, 11635.00
940.3370, 11705.00
941.4570, 11850.00
942.5760, 11857.00
943.6950, 11777.00
944.8140, 11916.00
945.9330, 11761.00
947.0520, 11776.00
948.1700, 11812.00
949.2890, 11751.00
950.4070, 11720.00
951.5250, 11705.00
952.6430, 11798.00
953.7600, 11849.00
954.8780, 11947.00
955.9950, 11821.00
957.1120, 11855.00
958.2290, 11875.00
959.3460, 11817.00
960.4630, 11780.00
961.5800, 11846.00
962.6960, 11902.00
963.8120, 11989.00
964.9280, 11980.00
966.0440, 11890.00
967.1600, 12090.00
968.2760, 12044.00
969.3910, 11881.00
970.5060, 11893.00
971.6210, 11958.00
972.7360, 12079.00
973.8510, 11903.00
974.9660, 12129.00
976.0800, 11981.00
977.1950, 11939.00
978.3090, 11918.00
979.4230, 11955.00
980.5370, 12069.00
981.6500, 11984.00
982.7640, 12139.00
983.8770, 12062.00
984.9900, 12185.00
986.1030, 12019.00
987.2160, 12109.00
988.3290, 12134.00
989.4420, 12033.00
990.5540, 12066.00
991.6660, 12211.00
992.7780, 12238.00
993.8900, 12220.00
995.0020, 12257.00
996.1140, 12255.00
997.2250, 12327.00
998.3360, 12304.00
999.4470, 12449.00
1000.558, 12551.00
1001.669, 12704.00
1002.780, 12691.00
1003.890, 12794.00
1005.001, 12762.00
1006.111, 12801.29
1007.221, 12834.23
1008.331, 12822.00
1009.440, 12815.00
1010.550, 12782.00
1011.659, 12630.00
1012.768, 12622.00
1013.877, 12595.00
1014.986, 12655.00
1016.095, 12537.00
1017.204, 12617.00
1018.312, 12639.00
1019.420, 12620.00
1020.528, 12523.00
1021.636, 12658.00
1022.744, 12466.00
1023.852, 12643.00
1024.959, 12564.00
1026.066, 12637.00
1027.173, 12642.00
1028.280, 12640.00
1029.387, 12637.00
1030.494, 12485.00
1031.600, 12624.00
1032.707, 12576.00
1033.813, 12495.00
1034.919, 12585.00
1036.025, 12576.00
1037.130, 12744.00
1038.236, 12741.00
1039.341, 12832.00
1040.446, 12928.00
1041.552, 12923.00
1042.656, 12965.00
1043.761, 13086.00
1044.866, 13130.00
1045.970, 13181.91
1047.074, 13210.30
1048.179, 13261.00
1049.282, 13228.00
1050.386, 13255.00
1051.490, 13288.00
1052.593, 13341.00
1053.697, 13355.00
1054.800, 13342.72
1055.903, 13283.00
1057.006, 13313.00
1058.108, 13312.00
1059.211, 13357.00
1060.313, 13347.21
1061.415, 13406.00
1062.517, 13370.00
1063.619, 13280.00
1064.721, 13351.00
1065.823, 13366.00
1066.924, 13198.00
1068.025, 13404.00
1069.126, 13312.00
1070.227, 13188.00
1071.328, 13280.00
1072.429, 13139.00
1073.529, 13250.00
1074.629, 13065.00
1075.729, 13112.00
1076.829, 13116.00
1077.929, 13074.00
1079.029, 13142.00
1080.128, 13135.00
1081.228, 13159.00
1082.327, 13059.00
1083.426, 13104.23
1084.525, 13094.32
1085.623, 13121.00
1086.722, 13118.00
1087.820, 13108.00
1088.919, 13109.00
1090.017, 13106.17
1091.115, 13120.30
1092.212, 13101.00
1093.310, 13147.00
1094.407, 13138.00
1095.505, 13129.00
1096.602, 13063.00
1097.699, 13245.00
1098.795, 13284.00
1099.892, 13174.00
1100.989, 13273.00
1102.085, 13270.00
1103.181, 13323.00
1104.277, 13285.00
1105.373, 13426.00
1106.469, 13344.00
1107.564, 13531.00
1108.660, 13462.00
1109.755, 13707.00
1110.850, 13827.00
1111.945, 13864.00
1113.040, 13980.00
1114.134, 14050.00
1115.229, 14089.00
1116.323, 14186.00
1117.417, 14130.00
1118.511, 14409.00
1119.605, 14499.00
1120.698, 14479.00
1121.792, 14797.00
1122.885, 14803.00
1123.978, 14951.00
1125.071, 14993.00
1126.164, 15287.00
1127.257, 15443.00
1128.349, 15709.00
1129.442, 15902.00
1130.534, 16298.00
1131.626, 16709.00
1132.718, 17110.00
1133.810, 17432.00
1134.901, 17772.00
1135.993, 18039.00
1137.084, 18166.00
1138.175, 18024.00
1139.266, 18112.00
1140.357, 17818.00
1141.448, 17579.00
1142.538, 17418.00
1143.628, 16858.00
1144.719, 16609.00
1145.809, 16076.00
1146.898, 15688.00
1147.988, 15344.00
1149.078, 15146.00
1150.167, 14864.00
1151.256, 14669.98
1152.345, 14543.00
1153.434, 14359.00
1154.523, 14183.00
1155.612, 14115.00
1156.700, 14045.00
1157.788, 14083.00
1158.877, 14027.13
1159.964, 13832.00
1161.052, 13975.00
1162.140, 13823.00
1163.227, 13737.00
1164.315, 13832.00
1165.402, 13614.00
1166.489, 13715.00
1167.576, 13631.00
1168.663, 13780.00
1169.749, 13689.00
1170.836, 13755.00
1171.922, 13654.00
1173.008, 13897.00
1174.094, 13734.00
1175.180, 13653.00
1176.265, 13581.00
1177.351, 13765.00
1178.436, 13679.00
1179.521, 13843.00
1180.606, 13692.00
1181.691, 13813.00
1182.776, 13620.00
1183.860, 13752.00
1184.944, 13684.00
1186.029, 13682.00
1187.113, 13711.00
1188.197, 13628.00
1189.280, 13665.97
1190.364, 13611.00
1191.447, 13669.00
1192.531, 13668.00
1193.614, 13641.00
1194.697, 13584.00
1195.779, 13617.44
1196.862, 13621.11
1197.945, 13662.00
1199.027, 13679.00
1200.109, 13705.00
1201.191, 13708.00
1202.273, 13710.93
1203.355, 13728.00
1204.436, 13699.00
1205.518, 13719.11
1206.599, 13713.31
1207.680, 13744.00
1208.761, 13684.00
1209.842, 13669.00
1210.922, 13669.00
1212.003, 13780.00
1213.083, 13790.00
1214.163, 13817.00
1215.243, 13590.00
1216.323, 13803.00
1217.402, 13715.00
1218.482, 13767.00
1219.561, 13883.00
1220.641, 13707.00
1221.720, 13798.00
1222.798, 13743.00
1223.877, 13834.00
1224.956, 13913.00
1226.034, 13815.00
1227.112, 13913.00
1228.191, 13823.00
1229.269, 13871.00
1230.346, 13868.00
1231.424, 13968.00
1232.501, 13881.00
1233.579, 13953.00
1234.656, 13955.00
1235.733, 13981.00
1236.810, 13956.00
1237.886, 13947.00
1238.963, 14065.00
1240.039, 13899.00
1241.116, 14072.00
1242.192, 13936.00
1243.268, 13925.00
1244.343, 13959.00
1245.419, 14061.00
1246.494, 13993.00
1247.570, 14046.00
1248.645, 14118.00
1249.720, 14085.00
1250.795, 14099.00
1251.869, 14025.00
1252.944, 14031.14
1254.018, 14035.46
1255.093, 14042.00
1256.167, 14066.00
1257.240, 14148.00
1258.314, 14172.00
1259.388, 14192.94
1260.461, 14231.00
1261.535, 14250.00
1262.608, 14255.94
1263.681, 14266.66
1264.753, 14232.42
1265.826, 14273.00
1266.899, 14212.00
1267.971, 14245.00
1269.043, 14179.00
1270.115, 14202.00
1271.187, 14164.00
1272.259, 14231.00
1273.330, 14182.00
1274.402, 14203.00
1275.473, 14270.00
1276.544, 14322.00
1277.615, 14250.00
1278.686, 14260.00
1279.756, 14297.00
1280.827, 14288.00
1281.897, 14196.00
1282.967, 14261.00
1284.037, 14390.00
1285.107, 14213.00
1286.177, 14292.00
1287.247, 14296.00
1288.316, 14212.00
1289.385, 14369.00
1290.454, 14205.00
1291.523, 14342.00
1292.592, 14362.00
1293.661, 14308.00
1294.729, 14261.00
1295.797, 14203.00
1296.866, 14240.85
1297.934, 14295.00
1299.001, 14381.00
1300.069, 14363.00
1301.137, 14411.31
1302.204, 14425.00
1303.271, 14440.00
1304.338, 14448.00
1305.405, 14456.00
1306.472, 14502.00
1307.539, 14576.00
1308.605, 14511.00
1309.671, 14602.00
1310.737, 14554.00
1311.803, 14573.00
1312.869, 14651.00
1313.935, 14514.00
1315.000, 14516.00
1316.066, 14606.00
1317.131, 14600.00
1318.196, 14686.00
1319.261, 14526.00
1320.326, 14569.00
1321.390, 14512.00
1322.455, 14626.00
1323.519, 14660.00
1324.583, 14593.00
1325.647, 14560.00
1326.711, 14574.47
1327.775, 14550.57
1328.838, 14594.00
1329.902, 14565.00
1330.965, 14598.00
1332.028, 14612.00
1333.091, 14372.00
1334.153, 14632.00
1335.216, 14471.00
1336.279, 14379.00
1337.341, 14626.00
1338.403, 14555.00
1339.465, 14551.00
1340.527, 14596.00
1341.588, 14502.00
1342.650, 14576.00
1343.711, 14642.00
1344.772, 14583.00
1345.834, 14551.00
1346.894, 14558.00
1347.955, 14734.00
1349.016, 14630.00
1350.076, 14619.00
1351.136, 14498.00
1352.197, 14713.00
1353.257, 14630.00
1354.316, 14630.00
1355.376, 14633.00
1356.436, 14584.00
1357.495, 14765.00
1358.554, 14536.00
1359.613, 14735.00
1360.672, 14690.00
1361.731, 14707.00
1362.789, 14783.00
1363.848, 14691.00
1364.906, 14705.00
1365.964, 14726.00
1367.022, 14643.00
1368.080, 14744.00
1369.138, 14749.00
1370.195, 14594.00
1371.253, 14755.00
1372.310, 14778.00
1373.367, 14768.00
1374.424, 14865.00
1375.480, 14820.00
1376.537, 14897.00
1377.593, 14770.00
1378.650, 14640.00
1379.706, 14986.00
1380.762, 14815.00
1381.818, 14945.00
1382.873, 14972.00
1383.929, 14845.00
1384.984, 14862.00
1386.039, 14844.00
1387.094, 14781.00
1388.149, 14771.00
1389.204, 14897.00
1390.259, 14846.00
1391.313, 14905.00
1392.367, 14927.00
1393.422, 14958.00
1394.476, 14954.39
1395.529, 14915.00
1396.583, 14923.00
1397.637, 14931.00
1398.690, 14918.00
1399.743, 14911.00
1400.796, 14910.00
1401.849, 14888.54
1402.902, 14891.00
1403.954, 14899.00
1405.007, 14924.00
1406.059, 15037.00
1407.111, 14950.00
1408.163, 14980.00
1409.215, 15055.00
1410.267, 14983.00
1411.318, 14984.00
1412.370, 14948.00
1413.421, 14988.00
1414.472, 14970.61
1415.523, 15052.00
1416.574, 15000.00
1417.624, 14973.00
1418.675, 15045.00
1419.725, 14935.00
1420.775, 15047.00
1421.825, 15115.00
1422.875, 15148.00
1423.925, 15153.00
1424.974, 15090.00
1426.024, 15085.00
1427.073, 15077.00
1428.122, 15302.00
1429.171, 15027.00
1430.220, 15263.00
1431.268, 15230.00
1432.317, 15281.00
1433.365, 15345.00
1434.413, 15278.00
1435.461, 15519.00
1436.509, 15323.00
1437.557, 15269.00
1438.605, 15456.00
1439.652, 15488.00
1440.699, 15595.00
1441.746, 15514.00
1442.793, 15805.00
1443.840, 15282.00
1444.887, 15649.00
1445.933, 15620.00
1446.980, 15875.00
1448.026, 15737.00
1449.072, 15869.00
1450.118, 15772.00
1451.163, 15773.00
1452.209, 15987.00
1453.254, 15753.00
1454.300, 15735.00
1455.345, 15866.00
1456.390, 15837.00
1457.435, 15690.00
1458.479, 15829.00
1459.524, 15972.00
1460.568, 15860.00
1461.612, 15810.00
1462.656, 15884.00
1463.700, 15729.00
1464.744, 15666.00
1465.788, 15700.00
1466.831, 15676.00
1467.874, 15645.70
1468.918, 15676.00
1469.961, 15629.00
1471.003, 15602.00
1472.046, 15676.00
1473.089, 15535.00
1474.131, 15554.00
1475.173, 15655.00
1476.215, 15589.00
1477.257, 15621.00
1478.299, 15602.00
1479.341, 15693.00
1480.382, 15770.00
1481.424, 15630.00
1482.465, 15539.00
1483.506, 15687.00
1484.547, 15557.00
1485.587, 15674.00
1486.628, 15682.00
1487.668, 15580.00
1488.709, 15587.00
1489.749, 15655.00
1490.789, 15525.00
1491.828, 15621.00
1492.868, 15661.00
1493.908, 15717.00
1494.947, 15717.05
1495.986, 15711.00
1497.025, 15692.00
1498.064, 15707.84
1499.103, 15701.68
1500.141, 15742.00
1501.180, 15674.00
1502.218, 15707.00
1503.256, 15619.00
1504.294, 15506.00
1505.332, 15646.00
1506.370, 15592.00
1507.407, 15619.00
1508.445, 15633.00
1509.482, 15672.00
1510.519, 15760.00
1511.556, 15640.00
1512.593, 15694.00
1513.629, 15742.00
1514.666, 15664.00
1515.702, 15565.00
1516.738, 15685.00
1517.774, 15815.00
1518.810, 15676.00
1519.846, 15715.00
1520.882, 15855.00
1521.917, 15720.00
1522.952, 15868.00
1523.987, 15873.00
1525.022, 15689.00
1526.057, 15855.00
1527.092, 15885.00
1528.126, 15855.00
1529.161, 15841.00
1530.195, 15821.00
1531.229, 15733.00
1532.263, 15893.00
1533.297, 15877.00
1534.330, 15927.00
1535.364, 15851.00
1536.397, 15848.00
1537.430, 15840.00
1538.463, 15952.00
1539.496, 16071.00
1540.529, 15957.00
1541.561, 15838.00
1542.594, 15709.00
1543.626, 15769.00
1544.658, 15705.00
1545.690, 15994.00
1546.722, 15997.00
1547.753, 16109.00
1548.785, 15966.00
1549.816, 15939.00
1550.847, 16092.00
1551.878, 15893.00
1552.909, 15990.00
1553.940, 15978.00
1554.971, 16117.00
1556.001, 15994.00
1557.031, 15973.00
1558.062, 16003.00
1559.092, 15921.00
1560.121, 16056.00
1561.151, 16009.00
1562.181, 15933.00
##END=



