##NAMES=Epididymite
##RRUFFID=R070580
##IDEAL CHEMISTRY=Na_2_Be_2_Si_6_O_15_&#183;H_2_O
##LOCALITY=Narsarsuk, Narsaq, Kitaa, Greenland
##OWNER=RRUFF
##SOURCE=James Shigley
##DESCRIPTION=A translucent to white elongated prism.
##STATUS=The identification of this mineral is confirmed by single-crystal X-ray diffraction and chemical analysis.
##URL=rruff.info/R070580
##MEASURED CHEMISTRY=(Na_1.97_K_0.03_)_Σ=2_Be_2_Si_6.00_O_15_·H_2_O; trace amounts of Al; Be and H_2_O assumed by stoichiometry
##PIN_ID=M01839
##ORIENTATION=Laser parallel to b* (0 1 0). Fiducial mark perpendicular to laser is parallel to -c [0 0 -1]
111.2060, 7715.000
112.4440, 7805.000
113.6810, 8001.000
114.9180, 8243.000
116.1550, 8322.000
117.3920, 8680.000
118.6290, 9023.000
119.8650, 9460.000
121.1010, 9766.000
122.3370, 10154.00
123.5730, 10415.64
124.8090, 10885.00
126.0450, 10917.00
127.2800, 10960.00
128.5150, 11228.00
129.7500, 11528.00
130.9850, 12113.00
132.2200, 12471.00
133.4540, 12663.00
134.6890, 12228.00
135.9230, 11604.00
137.1570, 10591.00
138.3900, 9966.000
139.6240, 9248.000
140.8580, 9097.000
142.0910, 8879.000
143.3240, 8882.000
144.5570, 8575.000
145.7900, 8629.000
147.0220, 8628.000
148.2550, 8916.000
149.4870, 8758.000
150.7190, 8843.000
151.9510, 8866.000
153.1830, 8789.000
154.4140, 8568.000
155.6460, 8440.000
156.8770, 8155.000
158.1080, 8072.000
159.3390, 8024.000
160.5690, 7977.000
161.8000, 7892.000
163.0300, 7937.000
164.2600, 7844.000
165.4900, 7978.000
166.7200, 8079.000
167.9500, 7861.000
169.1790, 7978.000
170.4080, 7900.000
171.6380, 7963.000
172.8670, 7981.000
174.0950, 8003.000
175.3240, 7997.000
176.5520, 8067.000
177.7810, 8029.000
179.0090, 8039.000
180.2370, 8059.000
181.4640, 8171.000
182.6920, 8219.000
183.9190, 8370.000
185.1460, 8384.000
186.3730, 8432.000
187.6000, 8611.000
188.8270, 8696.000
190.0530, 8881.000
191.2800, 8899.000
192.5060, 9013.000
193.7320, 9186.000
194.9580, 9214.073
196.1830, 9327.479
197.4090, 9322.000
198.6340, 9454.000
199.8590, 9440.000
201.0840, 9459.000
202.3090, 9406.000
203.5340, 9096.000
204.7580, 8954.000
205.9820, 8924.000
207.2060, 8758.000
208.4300, 8714.000
209.6540, 8625.000
210.8780, 8552.000
212.1010, 8552.580
213.3240, 8496.000
214.5470, 8560.000
215.7700, 8546.000
216.9930, 8552.000
218.2150, 8613.000
219.4380, 8505.000
220.6600, 8698.000
221.8820, 8690.000
223.1040, 8658.000
224.3260, 8861.000
225.5470, 8883.000
226.7680, 9118.000
227.9900, 9312.000
229.2110, 9501.000
230.4310, 9691.000
231.6520, 10000.00
232.8720, 10264.00
234.0930, 10538.00
235.3130, 10830.00
236.5330, 11262.00
237.7530, 11590.00
238.9720, 11890.00
240.1920, 12313.00
241.4110, 12365.00
242.6300, 12764.00
243.8490, 12514.00
245.0680, 12404.00
246.2860, 11968.00
247.5040, 11756.00
248.7230, 11495.00
249.9410, 11477.00
251.1590, 11437.00
252.3760, 11364.89
253.5940, 11410.00
254.8110, 11382.00
256.0280, 11432.00
257.2450, 11508.00
258.4620, 11573.00
259.6790, 11851.00
260.8950, 11899.00
262.1120, 12046.00
263.3280, 11875.00
264.5440, 11851.00
265.7600, 11706.00
266.9750, 11644.00
268.1910, 11685.00
269.4060, 11457.00
270.6210, 11109.00
271.8360, 10868.00
273.0510, 10402.00
274.2650, 10213.00
275.4800, 9941.000
276.6940, 9541.000
277.9080, 9499.000
279.1220, 9296.000
280.3360, 9223.000
281.5490, 9280.000
282.7630, 9047.000
283.9760, 9113.000
285.1890, 9203.000
286.4020, 9147.000
287.6150, 9052.000
288.8270, 8981.000
290.0400, 8970.000
291.2520, 8982.000
292.4640, 8912.000
293.6760, 8930.588
294.8870, 8831.000
296.0990, 8935.000
297.3100, 8913.000
298.5210, 8937.000
299.7320, 8863.000
300.9430, 8973.000
302.1540, 8946.467
303.3640, 9022.000
304.5750, 9036.000
305.7850, 9114.000
306.9950, 9133.558
308.2050, 9180.000
309.4140, 9158.000
310.6240, 9203.000
311.8330, 9169.000
313.0420, 9480.000
314.2510, 9660.000
315.4600, 9382.000
316.6680, 9511.000
317.8770, 9918.000
319.0850, 9624.000
320.2930, 9637.000
321.5010, 9780.000
322.7090, 9932.000
323.9160, 10055.00
325.1240, 9886.000
326.3310, 10088.00
327.5380, 9998.000
328.7450, 10126.00
329.9520, 10377.00
331.1580, 10621.00
332.3650, 10464.00
333.5710, 10548.00
334.7770, 10745.00
335.9830, 10968.00
337.1880, 11180.00
338.3940, 11334.00
339.5990, 11488.00
340.8040, 11629.00
342.0090, 11846.00
343.2140, 12066.00
344.4190, 12027.00
345.6230, 12196.00
346.8280, 12268.00
348.0320, 12144.00
349.2360, 11871.00
350.4400, 11584.00
351.6430, 11315.00
352.8470, 11127.49
354.0500, 10902.00
355.2530, 10812.00
356.4560, 10731.00
357.6590, 10646.00
358.8620, 10530.00
360.0640, 10475.20
361.2660, 10417.00
362.4680, 10356.00
363.6700, 10348.00
364.8720, 10311.00
366.0740, 10355.03
367.2750, 10384.00
368.4760, 10519.00
369.6770, 10522.00
370.8780, 10704.00
372.0790, 10871.00
373.2800, 11153.00
374.4800, 11327.00
375.6800, 11558.00
376.8800, 11801.00
378.0800, 12102.00
379.2800, 12136.00
380.4790, 12493.00
381.6790, 12619.00
382.8780, 12346.00
384.0770, 12181.00
385.2760, 12006.00
386.4750, 11648.00
387.6730, 11282.00
388.8720, 11049.00
390.0700, 10803.00
391.2680, 10529.00
392.4660, 10385.00
393.6630, 10299.00
394.8610, 10227.00
396.0580, 10442.00
397.2550, 10710.00
398.4520, 10926.00
399.6490, 11249.00
400.8460, 11810.00
402.0420, 12117.00
403.2390, 12289.00
404.4350, 12985.00
405.6310, 13560.00
406.8270, 14433.00
408.0220, 14724.00
409.2180, 14817.00
410.4130, 14303.00
411.6080, 13488.00
412.8030, 12406.00
413.9980, 11351.00
415.1920, 10666.00
416.3870, 10319.00
417.5810, 10156.00
418.7750, 9947.000
419.9690, 9948.000
421.1630, 9934.000
422.3570, 9838.000
423.5500, 9838.773
424.7430, 9753.000
425.9360, 9770.000
427.1290, 9804.000
428.3220, 9768.000
429.5150, 9739.000
430.7070, 9881.000
431.8990, 9798.000
433.0910, 9902.000
434.2830, 9883.000
435.4750, 9890.289
436.6670, 9939.000
437.8580, 9929.000
439.0490, 9936.000
440.2400, 9987.000
441.4310, 10136.00
442.6220, 9973.000
443.8130, 10159.00
445.0030, 9995.000
446.1930, 10157.00
447.3830, 10148.00
448.5730, 10068.00
449.7630, 9909.000
450.9520, 10007.00
452.1420, 10082.00
453.3310, 10021.00
454.5200, 10076.00
455.7090, 10166.00
456.8980, 10359.00
458.0860, 10327.00
459.2740, 10523.00
460.4630, 10374.00
461.6510, 10586.00
462.8380, 10766.00
464.0260, 10942.00
465.2140, 11164.00
466.4010, 11403.00
467.5880, 11671.83
468.7750, 12088.00
469.9620, 12284.00
471.1490, 12609.00
472.3350, 12959.00
473.5220, 13521.00
474.7080, 13827.00
475.8940, 14425.00
477.0800, 14411.00
478.2650, 14083.00
479.4510, 13562.00
480.6360, 12851.00
481.8210, 12177.00
483.0060, 11771.00
484.1910, 11688.00
485.3760, 11329.00
486.5600, 11258.00
487.7440, 11188.00
488.9290, 11054.00
490.1130, 11033.00
491.2960, 10944.00
492.4800, 10758.00
493.6630, 10637.00
494.8470, 10668.00
496.0300, 10648.33
497.2130, 10831.00
498.3960, 10787.00
499.5780, 10931.00
500.7610, 10999.00
501.9430, 11065.00
503.1250, 11288.00
504.3070, 11488.00
505.4890, 11734.00
506.6710, 12305.00
507.8520, 12982.00
509.0330, 13809.00
510.2140, 15050.00
511.3950, 16639.00
512.5760, 18347.00
513.7570, 19928.00
514.9370, 21735.00
516.1170, 23306.00
517.2980, 25799.00
518.4780, 27891.00
519.6570, 29585.00
520.8370, 29961.00
522.0160, 28754.00
523.1960, 26120.00
524.3750, 22553.00
525.5540, 19548.00
526.7320, 17150.00
527.9110, 15399.00
529.0890, 14187.00
530.2680, 13275.00
531.4460, 12913.00
532.6240, 12258.00
533.8010, 11992.00
534.9790, 11825.00
536.1560, 11659.00
537.3340, 11555.00
538.5110, 11365.00
539.6880, 11298.51
540.8650, 11178.00
542.0410, 11157.00
543.2180, 11079.00
544.3940, 11017.00
545.5700, 11013.00
546.7460, 11019.00
547.9220, 10842.00
549.0970, 11045.00
550.2730, 10785.00
551.4480, 10974.00
552.6230, 10923.00
553.7980, 10863.00
554.9730, 10829.00
556.1470, 10879.00
557.3210, 10925.00
558.4960, 10891.00
559.6700, 10924.00
560.8440, 10879.00
562.0170, 10733.00
563.1910, 10869.00
564.3640, 10985.00
565.5380, 10676.00
566.7110, 10833.00
567.8840, 11042.00
569.0560, 11025.00
570.2290, 11068.00
571.4010, 11066.00
572.5740, 11152.96
573.7460, 11123.00
574.9180, 11320.00
576.0890, 11444.00
577.2610, 11477.00
578.4320, 11779.00
579.6040, 11948.00
580.7750, 12039.00
581.9450, 12240.00
583.1160, 12462.00
584.2870, 12443.00
585.4570, 12476.00
586.6270, 12547.00
587.7980, 12235.00
588.9670, 11978.00
590.1370, 11629.00
591.3070, 11487.00
592.4760, 11519.00
593.6450, 11332.00
594.8140, 11202.00
595.9830, 11152.00
597.1520, 11081.00
598.3210, 11028.00
599.4890, 11111.00
600.6570, 11042.00
601.8250, 10993.00
602.9930, 11127.00
604.1610, 11055.00
605.3290, 11202.00
606.4960, 11136.00
607.6630, 11068.00
608.8300, 11150.00
609.9970, 11152.00
611.1640, 11197.00
612.3300, 11243.00
613.4970, 11302.00
614.6630, 11339.00
615.8290, 11356.41
616.9950, 11423.00
618.1610, 11392.00
619.3260, 11421.00
620.4920, 11481.00
621.6570, 11601.00
622.8220, 11605.00
623.9870, 11580.00
625.1520, 11663.00
626.3160, 11670.00
627.4810, 11591.00
628.6450, 11624.00
629.8090, 11753.00
630.9730, 11712.00
632.1370, 11711.00
633.3000, 11584.00
634.4640, 11735.00
635.6270, 11862.00
636.7900, 11569.00
637.9530, 11665.00
639.1160, 11546.00
640.2780, 11481.00
641.4410, 11479.00
642.6030, 11429.00
643.7650, 11434.00
644.9270, 11525.00
646.0890, 11377.00
647.2500, 11499.00
648.4120, 11450.00
649.5730, 11280.00
650.7340, 11521.00
651.8950, 11398.00
653.0560, 11402.00
654.2160, 11419.00
655.3770, 11435.00
656.5370, 11352.00
657.6970, 11370.00
658.8570, 11418.00
660.0170, 11508.00
661.1760, 11531.00
662.3360, 11582.45
663.4950, 11630.00
664.6540, 11588.00
665.8130, 11595.00
666.9720, 11454.00
668.1310, 11439.00
669.2890, 11481.18
670.4470, 11631.00
671.6050, 11562.00
672.7630, 11647.00
673.9210, 11594.00
675.0790, 11551.00
676.2360, 11652.00
677.3930, 11643.00
678.5510, 11637.00
679.7080, 11605.00
680.8640, 11597.50
682.0210, 11587.33
683.1770, 11564.00
684.3340, 11591.00
685.4900, 11576.00
686.6460, 11615.00
687.8020, 11640.00
688.9570, 11671.00
690.1130, 11795.00
691.2680, 11786.00
692.4230, 11657.00
693.5780, 11792.00
694.7330, 11666.00
695.8880, 11848.00
697.0420, 11671.00
698.1960, 11782.00
699.3510, 11833.00
700.5040, 11846.00
701.6580, 11819.00
702.8120, 11774.00
703.9650, 11893.00
705.1190, 11859.00
706.2720, 11928.00
707.4250, 11897.00
708.5780, 11989.00
709.7300, 11926.00
710.8830, 11937.00
712.0350, 11848.00
713.1870, 12075.00
714.3390, 12077.00
715.4910, 11976.00
716.6430, 11830.00
717.7940, 12052.00
718.9460, 12115.00
720.0970, 12125.00
721.2480, 12030.00
722.3990, 12094.00
723.5500, 12020.00
724.7000, 12150.00
725.8500, 12270.00
727.0010, 12107.00
728.1510, 12246.00
729.3010, 12129.00
730.4500, 12209.00
731.6000, 12045.00
732.7490, 12188.00
733.8980, 12216.00
735.0470, 12277.00
736.1960, 12316.00
737.3450, 12500.00
738.4940, 12294.00
739.6420, 12416.00
740.7900, 12417.00
741.9380, 12257.00
743.0860, 12326.00
744.2340, 12445.00
745.3810, 12499.00
746.5290, 12530.00
747.6760, 12539.00
748.8230, 12547.00
749.9700, 12539.00
751.1170, 12714.00
752.2630, 12739.00
753.4100, 12721.00
754.5560, 12803.00
755.7020, 12782.00
756.8480, 12708.00
757.9940, 12808.00
759.1390, 12891.00
760.2850, 12872.00
761.4300, 12834.00
762.5750, 12878.00
763.7200, 12752.00
764.8650, 12680.00
766.0100, 12924.00
767.1540, 12927.00
768.2980, 12877.00
769.4420, 12759.00
770.5860, 12852.00
771.7300, 12797.00
772.8740, 12840.00
774.0170, 12767.00
775.1610, 12725.00
776.3040, 12669.00
777.4470, 12853.00
778.5900, 12871.00
779.7320, 12820.00
780.8750, 12904.00
782.0170, 12878.00
783.1590, 12962.00
784.3010, 12937.00
785.4430, 12983.00
786.5850, 13053.00
787.7260, 12949.00
788.8680, 13202.00
790.0090, 13032.00
791.1500, 13346.00
792.2910, 13198.00
793.4310, 13192.00
794.5720, 13206.00
795.7120, 13311.00
796.8520, 13210.00
797.9920, 13284.64
799.1320, 13353.00
800.2720, 13318.00
801.4120, 13326.00
802.5510, 13306.00
803.6900, 13138.00
804.8290, 13083.00
805.9680, 13114.00
807.1070, 13302.00
808.2450, 13022.00
809.3840, 13170.00
810.5220, 13146.00
811.6600, 13155.00
812.7980, 13294.00
813.9360, 13224.00
815.0730, 13211.00
816.2110, 13317.00
817.3480, 13437.00
818.4850, 13341.00
819.6220, 13414.00
820.7590, 13404.00
821.8960, 13241.00
823.0320, 13348.00
824.1680, 13323.00
825.3040, 13201.00
826.4400, 13334.00
827.5760, 13389.00
828.7120, 13295.00
829.8470, 13261.00
830.9830, 13264.00
832.1180, 13241.00
833.2530, 13391.00
834.3880, 13285.00
835.5220, 13220.00
836.6570, 13415.00
837.7910, 13329.00
838.9250, 13408.00
840.0590, 13157.00
841.1930, 13337.00
842.3270, 13413.00
843.4600, 13617.00
844.5940, 13336.00
845.7270, 13507.00
846.8600, 13453.00
847.9930, 13613.00
849.1250, 13571.00
850.2580, 13580.00
851.3900, 13464.00
852.5230, 13551.00
853.6550, 13468.00
854.7870, 13554.00
855.9180, 13611.00
857.0500, 13543.00
858.1810, 13754.00
859.3130, 13588.00
860.4440, 13840.00
861.5750, 13621.00
862.7050, 13759.00
863.8360, 13640.00
864.9660, 13792.00
866.0970, 13867.00
867.2270, 13813.00
868.3570, 13596.00
869.4870, 13714.00
870.6160, 13730.00
871.7460, 13776.00
872.8750, 13784.00
874.0040, 13812.00
875.1330, 13899.00
876.2620, 13905.16
877.3910, 13755.00
878.5190, 13925.00
879.6470, 13912.00
880.7760, 13824.00
881.9040, 14023.00
883.0310, 13940.00
884.1590, 13876.00
885.2870, 13824.00
886.4140, 13850.00
887.5410, 13859.00
888.6680, 13930.00
889.7950, 13936.00
890.9220, 14033.00
892.0480, 14004.00
893.1750, 14053.00
894.3010, 13958.00
895.4270, 14086.00
896.5530, 13938.00
897.6790, 14085.00
898.8040, 14088.00
899.9300, 14107.00
901.0550, 13940.00
902.1800, 13925.00
903.3050, 14110.00
904.4300, 14055.00
905.5540, 14160.00
906.6790, 14147.00
907.8030, 14173.00
908.9270, 14013.00
910.0510, 14071.00
911.1750, 14158.00
912.2990, 14274.00
913.4220, 14097.00
914.5450, 14102.00
915.6690, 14153.00
916.7920, 14167.00
917.9140, 14273.00
919.0370, 14295.00
920.1600, 14336.00
921.2820, 14184.00
922.4040, 14325.00
923.5260, 14208.00
924.6480, 14297.00
925.7700, 14378.00
926.8910, 14331.00
928.0130, 14285.00
929.1340, 14277.00
930.2550, 14374.00
931.3760, 14328.00
932.4970, 14298.00
933.6170, 14342.00
934.7380, 14299.00
935.8580, 14397.00
936.9780, 14448.00
938.0980, 14534.00
939.2180, 14478.00
940.3370, 14436.00
941.4570, 14451.00
942.5760, 14530.00
943.6950, 14557.00
944.8140, 14516.00
945.9330, 14572.00
947.0520, 14579.00
948.1700, 14685.00
949.2890, 14491.00
950.4070, 14530.00
951.5250, 14477.00
952.6430, 14617.00
953.7600, 14635.00
954.8780, 14673.00
955.9950, 14607.00
957.1120, 14580.00
958.2290, 14474.00
959.3460, 14387.00
960.4630, 14493.00
961.5800, 14637.00
962.6960, 14584.00
963.8120, 14629.00
964.9280, 14727.00
966.0440, 14688.42
967.1600, 14757.00
968.2760, 14720.00
969.3910, 14723.00
970.5060, 14793.00
971.6210, 14773.01
972.7360, 14745.00
973.8510, 14794.00
974.9660, 14783.00
976.0800, 14771.00
977.1950, 14938.00
978.3090, 14867.00
979.4230, 14880.00
980.5370, 14843.00
981.6500, 14998.00
982.7640, 14873.00
983.8770, 15013.00
984.9900, 14844.00
986.1030, 14974.00
987.2160, 14901.00
988.3290, 15130.00
989.4420, 15182.00
990.5540, 15007.00
991.6660, 15085.00
992.7780, 15245.00
993.8900, 15092.00
995.0020, 15179.00
996.1140, 15258.00
997.2250, 15438.00
998.3360, 15310.00
999.4470, 15302.00
1000.558, 15408.00
1001.669, 15601.00
1002.780, 15432.00
1003.890, 15556.00
1005.001, 15712.00
1006.111, 15750.00
1007.221, 15815.00
1008.331, 15850.00
1009.440, 15911.00
1010.550, 15906.00
1011.659, 15882.00
1012.768, 15782.00
1013.877, 15674.00
1014.986, 15666.00
1016.095, 15538.00
1017.204, 15617.00
1018.312, 15396.00
1019.420, 15495.00
1020.528, 15513.00
1021.636, 15582.00
1022.744, 15599.00
1023.852, 15515.00
1024.959, 15429.00
1026.066, 15459.00
1027.173, 15485.00
1028.280, 15478.00
1029.387, 15512.00
1030.494, 15529.00
1031.600, 15647.00
1032.707, 15533.00
1033.813, 15571.00
1034.919, 15696.00
1036.025, 15800.00
1037.130, 15730.00
1038.236, 15741.00
1039.341, 15792.00
1040.446, 15736.00
1041.552, 15844.00
1042.656, 15848.07
1043.761, 16074.00
1044.866, 15990.00
1045.970, 16078.00
1047.074, 16300.00
1048.179, 16357.00
1049.282, 16389.00
1050.386, 16261.00
1051.490, 16386.00
1052.593, 16174.00
1053.697, 16274.00
1054.800, 16280.00
1055.903, 16112.00
1057.006, 16235.00
1058.108, 16244.00
1059.211, 16274.00
1060.313, 16213.00
1061.415, 16255.00
1062.517, 16331.00
1063.619, 16181.00
1064.721, 16308.00
1065.823, 16391.00
1066.924, 16414.00
1068.025, 16312.00
1069.126, 16359.00
1070.227, 16258.00
1071.328, 16401.00
1072.429, 16328.00
1073.529, 16367.00
1074.629, 16260.00
1075.729, 16077.00
1076.829, 16331.00
1077.929, 16205.00
1079.029, 16421.00
1080.128, 16371.00
1081.228, 16297.00
1082.327, 16267.00
1083.426, 16479.00
1084.525, 16170.00
1085.623, 16315.00
1086.722, 16338.00
1087.820, 16231.00
1088.919, 16498.00
1090.017, 16426.00
1091.115, 16404.00
1092.212, 16269.00
1093.310, 16272.00
1094.407, 16322.00
1095.505, 16252.00
1096.602, 16483.00
1097.699, 16577.00
1098.795, 16442.00
1099.892, 16360.00
1100.989, 16672.00
1102.085, 16639.00
1103.181, 16455.00
1104.277, 16510.00
1105.373, 16472.00
1106.469, 16831.00
1107.564, 16673.00
1108.660, 16750.00
1109.755, 16921.00
1110.850, 16738.00
1111.945, 17057.00
1113.040, 17049.00
1114.134, 17259.00
1115.229, 17329.00
1116.323, 17456.00
1117.417, 17562.15
1118.511, 17511.00
1119.605, 17691.00
1120.698, 17698.00
1121.792, 17667.00
1122.885, 17554.00
1123.978, 18046.00
1125.071, 18149.00
1126.164, 18261.00
1127.257, 18215.00
1128.349, 18668.00
1129.442, 18881.00
1130.534, 19104.00
1131.626, 19374.00
1132.718, 19669.00
1133.810, 20028.00
1134.901, 20296.00
1135.993, 20424.00
1137.084, 20529.00
1138.175, 20639.00
1139.266, 20391.00
1140.357, 20365.00
1141.448, 20017.00
1142.538, 19851.00
1143.628, 19497.00
1144.719, 19338.00
1145.809, 18975.00
1146.898, 18757.00
1147.988, 18512.00
1149.078, 18284.00
1150.167, 18080.00
1151.256, 17922.00
1152.345, 17780.18
1153.434, 17706.00
1154.523, 17603.00
1155.612, 17548.00
1156.700, 17551.00
1157.788, 17268.00
1158.877, 17198.00
1159.964, 17124.00
1161.052, 17236.00
1162.140, 17406.00
1163.227, 17330.00
1164.315, 17322.00
1165.402, 17107.00
1166.489, 17013.00
1167.576, 16966.00
1168.663, 17200.00
1169.749, 17244.00
1170.836, 17126.00
1171.922, 17227.00
1173.008, 17108.00
1174.094, 17264.00
1175.180, 17182.00
1176.265, 17316.00
1177.351, 17352.00
1178.436, 17461.00
1179.521, 17383.00
1180.606, 17447.79
1181.691, 17365.00
1182.776, 17422.00
1183.860, 17454.00
1184.944, 17326.00
1186.029, 17275.00
1187.113, 17278.00
1188.197, 17417.00
1189.280, 17331.00
1190.364, 17351.00
1191.447, 17258.00
1192.531, 17313.00
1193.614, 17410.00
1194.697, 17432.00
1195.779, 17447.54
1196.862, 17507.03
1197.945, 17416.00
1199.027, 17512.00
1200.109, 17474.00
1201.191, 17323.00
1202.273, 17387.00
1203.355, 17466.00
1204.436, 17550.00
1205.518, 17559.00
1206.599, 17503.00
1207.680, 17512.00
1208.761, 17522.00
1209.842, 17499.91
1210.922, 17450.00
1212.003, 17508.00
1213.083, 17582.00
1214.163, 17627.00
1215.243, 17572.00
1216.323, 17554.00
1217.402, 17487.00
1218.482, 17551.00
1219.561, 17588.00
1220.641, 17472.00
1221.720, 17541.00
1222.798, 17697.00
1223.877, 17696.00
1224.956, 17550.00
1226.034, 17579.00
1227.112, 17715.00
1228.191, 17516.00
1229.269, 17494.00
1230.346, 17859.00
1231.424, 17708.00
1232.501, 17685.00
1233.579, 17522.00
1234.656, 17666.00
1235.733, 17711.00
1236.810, 17657.00
1237.886, 17815.00
1238.963, 17742.00
1240.039, 17966.00
1241.116, 17880.00
1242.192, 17840.00
1243.268, 17780.00
1244.343, 17780.96
1245.419, 17910.00
1246.494, 17818.00
1247.570, 17933.00
1248.645, 17979.00
1249.720, 17908.00
1250.795, 17848.00
1251.869, 17970.00
1252.944, 17933.00
1254.018, 17931.00
1255.093, 17882.00
1256.167, 17993.00
1257.240, 17815.00
1258.314, 17949.00
1259.388, 17859.00
1260.461, 18161.00
1261.535, 18025.00
1262.608, 17936.00
1263.681, 18254.00
1264.753, 17947.00
1265.826, 17868.00
1266.899, 18117.00
1267.971, 17984.00
1269.043, 18021.00
1270.115, 18009.00
1271.187, 18291.00
1272.259, 18247.00
1273.330, 18243.00
1274.402, 18024.00
1275.473, 18154.00
1276.544, 18135.00
1277.615, 18137.00
1278.686, 18095.00
1279.756, 18084.00
1280.827, 18218.00
1281.897, 18232.00
1282.967, 18349.00
1284.037, 18305.00
1285.107, 18111.00
1286.177, 18221.00
1287.247, 18195.00
1288.316, 18402.00
1289.385, 18332.00
1290.454, 18171.00
1291.523, 18236.00
1292.592, 18279.00
1293.661, 18356.00
1294.729, 18310.00
1295.797, 18301.00
1296.866, 18432.00
1297.934, 18297.00
1299.001, 18429.00
1300.069, 18499.00
1301.137, 18346.00
1302.204, 18366.00
1303.271, 18418.00
1304.338, 18583.00
1305.405, 18371.00
1306.472, 18613.00
1307.539, 18324.00
1308.605, 18585.00
1309.671, 18582.00
1310.737, 18353.00
1311.803, 18682.00
1312.869, 18609.00
1313.935, 18446.00
1315.000, 18591.00
1316.066, 18651.00
1317.131, 18427.00
1318.196, 18554.00
1319.261, 18552.00
1320.326, 18653.00
1321.390, 18673.33
1322.455, 18655.00
1323.519, 18683.00
1324.583, 18615.00
1325.647, 18555.00
1326.711, 18531.00
1327.775, 18573.00
1328.838, 18592.58
1329.902, 18693.00
1330.965, 18689.00
1332.028, 18756.30
1333.091, 18748.00
1334.153, 18722.00
1335.216, 18811.00
1336.279, 18641.00
1337.341, 18777.00
1338.403, 18666.00
1339.465, 18542.00
1340.527, 18739.00
1341.588, 18784.00
1342.650, 18642.00
1343.711, 18563.00
1344.772, 18788.00
1345.834, 18778.00
1346.894, 18777.00
1347.955, 18738.00
1349.016, 18877.00
1350.076, 18809.90
1351.136, 18937.00
1352.197, 18816.00
1353.257, 18836.00
1354.316, 18930.00
1355.376, 18872.00
1356.436, 18873.00
1357.495, 18705.00
1358.554, 19009.00
1359.613, 18789.00
1360.672, 18908.00
1361.731, 18975.00
1362.789, 18940.00
1363.848, 18943.00
1364.906, 18953.00
1365.964, 18906.00
1367.022, 19018.00
1368.080, 18764.00
1369.138, 18860.00
1370.195, 18867.00
1371.253, 19005.00
1372.310, 18879.00
1373.367, 19114.00
1374.424, 18896.00
1375.480, 18955.00
1376.537, 19056.00
1377.593, 19064.00
1378.650, 19009.00
1379.706, 19086.00
1380.762, 19016.00
1381.818, 19072.00
1382.873, 19085.00
1383.929, 19154.00
1384.984, 19046.00
1386.039, 19210.00
1387.094, 19294.00
1388.149, 19138.00
1389.204, 19160.00
1390.259, 19023.00
1391.313, 19238.00
1392.367, 19123.00
1393.422, 19298.00
1394.476, 19241.00
1395.529, 19095.00
1396.583, 19099.00
1397.637, 19103.00
1398.690, 19217.00
1399.743, 19136.00
1400.796, 19221.00
1401.849, 19310.00
1402.902, 19325.00
1403.954, 19267.00
1405.007, 19258.00
1406.059, 19229.00
1407.111, 19320.00
1408.163, 19172.00
1409.215, 19256.00
1410.267, 19340.00
1411.318, 19312.00
1412.370, 19338.00
1413.421, 19247.00
1414.472, 19253.99
1415.523, 19212.91
1416.574, 19238.00
1417.624, 19224.00
1418.675, 19271.00
1419.725, 19468.00
1420.775, 19427.00
1421.825, 19402.00
1422.875, 19335.00
1423.925, 19310.00
1424.974, 19226.00
1426.024, 19507.00
1427.073, 19547.00
1428.122, 19555.00
1429.171, 19440.00
1430.220, 19656.00
1431.268, 19403.00
1432.317, 19508.00
1433.365, 19587.00
1434.413, 19795.00
1435.461, 19675.00
1436.509, 19535.00
1437.557, 19615.00
1438.605, 19694.00
1439.652, 19916.00
1440.699, 19973.00
1441.746, 20108.00
1442.793, 20131.00
1443.840, 20033.00
1444.887, 20002.00
1445.933, 19940.00
1446.980, 20029.00
1448.026, 20158.00
1449.072, 19887.00
1450.118, 19957.00
1451.163, 20266.00
1452.209, 20130.00
1453.254, 19975.00
1454.300, 20202.00
1455.345, 20089.00
1456.390, 20235.00
1457.435, 20128.00
1458.479, 20163.00
1459.524, 20037.00
1460.568, 20096.00
1461.612, 20138.00
1462.656, 19986.00
1463.700, 20039.00
1464.744, 20073.00
1465.788, 20090.00
1466.831, 19997.00
1467.874, 20103.00
1468.918, 19902.00
1469.961, 20021.00
1471.003, 19870.00
1472.046, 19991.00
1473.089, 20012.00
1474.131, 20152.00
1475.173, 20161.37
1476.215, 20050.00
1477.257, 20137.00
1478.299, 20121.00
1479.341, 19974.00
1480.382, 20152.00
1481.424, 20067.00
1482.465, 20085.00
1483.506, 20127.00
1484.547, 19988.00
1485.587, 20024.00
1486.628, 20145.00
1487.668, 20076.00
1488.709, 20145.95
1489.749, 20077.00
1490.789, 20166.00
1491.828, 20036.00
1492.868, 19984.00
1493.908, 20031.00
1494.947, 19958.28
1495.986, 20214.00
1497.025, 19933.00
1498.064, 20174.00
1499.103, 20183.00
1500.141, 20167.00
1501.180, 20223.00
1502.218, 20166.78
1503.256, 20172.53
1504.294, 20095.00
1505.332, 20164.00
1506.370, 20168.00
1507.407, 20225.00
1508.445, 20343.00
1509.482, 20137.00
1510.519, 20316.00
1511.556, 20135.00
1512.593, 20039.00
1513.629, 20184.00
1514.666, 20185.00
1515.702, 20315.00
1516.738, 20382.00
1517.774, 20226.00
1518.810, 20453.00
1519.846, 20263.00
1520.882, 20360.00
1521.917, 20315.00
1522.952, 20280.00
1523.987, 20422.00
1525.022, 20358.00
1526.057, 20319.00
1527.092, 20302.00
1528.126, 20518.00
1529.161, 20287.00
1530.195, 20312.00
1531.229, 20366.00
1532.263, 20230.00
1533.297, 20270.00
1534.330, 20517.00
1535.364, 20331.00
1536.397, 20478.00
1537.430, 20515.00
1538.463, 20258.00
1539.496, 20535.00
1540.529, 20289.00
1541.561, 20511.00
1542.594, 20477.00
1543.626, 20483.00
1544.658, 20568.00
1545.690, 20555.00
1546.722, 20598.00
1547.753, 20594.09
1548.785, 20557.00
1549.816, 20551.00
1550.847, 20606.00
1551.878, 20561.00
1552.909, 20418.00
1553.940, 20561.00
1554.971, 20512.00
1556.001, 20642.00
1557.031, 20631.14
1558.062, 20764.00
1559.092, 20613.00
1560.121, 20665.00
1561.151, 20638.00
1562.181, 20810.00
##END=



