##NAMES=Epidote
##RRUFFID=R050191
##IDEAL CHEMISTRY=Ca_2_Fe^3+^Al_2_(Si_2_O_7_)(SiO_4_)O(OH)
##LOCALITY=Pampa Blanca, Castrovirreyna Province, Huancavelica Department, Peru
##OWNER=RRUFF
##SOURCE=Dave Bunk Minerals
##DESCRIPTION=Cluster of green elongated prismatic crystals
##STATUS=The identification of this mineral has been confirmed by X-ray diffraction and chemical analysis
##URL=rruff.info/R050191
##MEASURED CHEMISTRY=Ca_2.00_Al_2.00_(Fe^3+^_0.84_Al_0.16_)(SiO_4_)(Si_2_O_7_)O(OH)
##PIN_ID=L01284
##ORIENTATION=Laser parallel to -a* (-1 0 0). Fiducial mark perpendicular to laser is parallel to b [0 1 0]
53.91000, 1838.000
55.14900, 1785.000
56.38700, 1749.000
57.62600, 1664.000
58.86400, 1776.000
60.10300, 1884.000
61.34100, 2023.000
62.57900, 1966.000
63.81700, 1854.000
65.05400, 2169.000
66.29200, 2161.000
67.52900, 2061.000
68.76700, 2489.000
70.00400, 2744.000
71.24100, 2712.000
72.47700, 2845.000
73.71400, 3149.000
74.95100, 3476.000
76.18700, 3902.000
77.42300, 4209.000
78.65900, 4657.000
79.89500, 5366.000
81.13100, 6555.000
82.36700, 8199.000
83.60200, 10340.00
84.83700, 12374.00
86.07200, 14397.00
87.30800, 16802.00
88.54200, 18774.00
89.77700, 19534.00
91.01200, 19544.00
92.24600, 18535.00
93.48000, 16502.00
94.71400, 14735.00
95.94800, 13356.00
97.18200, 11740.00
98.41600, 10772.00
99.64900, 10137.00
100.8830, 9242.000
102.1160, 8494.000
103.3490, 8082.000
104.5820, 7989.000
105.8150, 8497.000
107.0470, 10430.00
108.2800, 12340.00
109.5120, 10415.00
110.7440, 8097.000
111.9760, 7464.000
113.2080, 7322.000
114.4400, 7338.000
115.6710, 7421.000
116.9030, 7104.000
118.1340, 6970.000
119.3650, 6762.000
120.5960, 6698.000
121.8270, 6655.000
123.0580, 6557.103
124.2880, 6560.229
125.5190, 6531.000
126.7490, 6534.000
127.9790, 6668.000
129.2090, 6629.000
130.4390, 6695.000
131.6680, 6610.000
132.8980, 6509.000
134.1270, 6473.000
135.3560, 6516.000
136.5850, 6675.000
137.8140, 6723.000
139.0430, 6879.000
140.2710, 7025.000
141.5000, 6931.000
142.7280, 7025.000
143.9560, 6974.000
145.1840, 7191.000
146.4120, 7321.000
147.6390, 7408.000
148.8670, 7656.000
150.0940, 7971.000
151.3210, 8259.000
152.5490, 8364.000
153.7750, 8464.000
155.0020, 8758.000
156.2290, 9211.000
157.4550, 9528.000
158.6810, 10134.00
159.9080, 10940.00
161.1340, 11804.00
162.3590, 13088.00
163.5850, 14798.00
164.8110, 16623.00
166.0360, 18814.00
167.2610, 21006.00
168.4860, 23882.00
169.7110, 26352.00
170.9360, 28519.00
172.1610, 29341.00
173.3850, 28890.00
174.6100, 27306.00
175.8340, 25001.00
177.0580, 22736.00
178.2820, 20042.00
179.5050, 18056.00
180.7290, 16084.00
181.9520, 14577.00
183.1760, 13429.00
184.3990, 12621.00
185.6220, 12047.00
186.8450, 11568.00
188.0670, 11024.00
189.2900, 10626.00
190.5120, 10488.00
191.7340, 10204.00
192.9560, 10264.00
194.1780, 10125.00
195.4000, 10277.00
196.6220, 10463.00
197.8430, 10583.00
199.0640, 10760.00
200.2860, 11221.00
201.5070, 11492.00
202.7270, 11579.00
203.9480, 11411.00
205.1690, 11220.00
206.3890, 10921.00
207.6090, 10493.00
208.8290, 10465.00
210.0490, 10269.00
211.2690, 10323.00
212.4890, 10389.00
213.7080, 10414.00
214.9280, 10627.00
216.1470, 10840.00
217.3660, 11340.00
218.5850, 12051.00
219.8030, 12717.00
221.0220, 13888.00
222.2400, 14851.00
223.4590, 16174.00
224.6770, 18141.00
225.8950, 19834.00
227.1120, 21687.00
228.3300, 23351.00
229.5480, 24095.00
230.7650, 24386.00
231.9820, 23926.00
233.1990, 23201.00
234.4160, 22156.00
235.6330, 21188.00
236.8490, 20531.00
238.0660, 20047.00
239.2820, 19885.00
240.4980, 19837.00
241.7140, 19581.00
242.9300, 18959.00
244.1460, 18143.00
245.3610, 17045.00
246.5770, 15680.00
247.7920, 14239.00
249.0070, 13003.00
250.2220, 11902.00
251.4370, 11031.00
252.6510, 10407.00
253.8660, 9956.000
255.0800, 9502.000
256.2940, 9402.000
257.5080, 9688.000
258.7220, 9313.029
259.9360, 9965.000
261.1490, 9123.000
262.3630, 9082.000
263.5760, 9227.000
264.7890, 9531.000
266.0020, 10068.00
267.2150, 10545.00
268.4270, 11231.00
269.6400, 12220.00
270.8520, 13393.00
272.0640, 14773.00
273.2760, 16595.00
274.4880, 16576.00
275.7000, 16220.00
276.9120, 15190.00
278.1230, 14068.00
279.3340, 12717.00
280.5450, 11619.00
281.7560, 10973.00
282.9670, 10505.00
284.1780, 10104.00
285.3880, 9957.000
286.5980, 9863.000
287.8090, 9670.000
289.0190, 9804.000
290.2290, 9802.000
291.4380, 9882.000
292.6480, 9835.000
293.8570, 9973.000
295.0670, 9943.000
296.2760, 9946.000
297.4850, 9842.000
298.6930, 9776.000
299.9020, 9673.000
301.1110, 9677.000
302.3190, 9669.000
303.5270, 9721.000
304.7350, 9758.000
305.9430, 9707.000
307.1510, 9732.208
308.3580, 9695.000
309.5660, 9701.000
310.7730, 9594.000
311.9800, 9563.000
313.1870, 9447.000
314.3940, 9520.000
315.6010, 9500.000
316.8070, 9584.000
318.0130, 9589.000
319.2200, 9812.000
320.4260, 9761.000
321.6310, 10007.00
322.8370, 10017.00
324.0430, 10095.00
325.2480, 10275.00
326.4540, 10304.00
327.6590, 10603.00
328.8640, 10667.00
330.0680, 11039.00
331.2730, 11240.00
332.4780, 11738.00
333.6820, 12156.00
334.8860, 12675.00
336.0900, 13369.00
337.2940, 13929.01
338.4980, 14640.00
339.7010, 15696.00
340.9050, 17271.00
342.1080, 19173.00
343.3110, 21372.00
344.5140, 23524.00
345.7170, 26106.00
346.9200, 28056.00
348.1220, 29592.00
349.3240, 29290.00
350.5270, 29206.00
351.7290, 26945.00
352.9310, 24509.00
354.1320, 21989.00
355.3340, 19509.00
356.5350, 17475.00
357.7370, 15684.00
358.9380, 14152.00
360.1390, 12961.00
361.3400, 12088.00
362.5400, 11347.00
363.7410, 10704.00
364.9410, 10326.00
366.1410, 9988.000
367.3410, 9535.000
368.5410, 9220.000
369.7410, 8943.000
370.9400, 8655.000
372.1400, 8337.000
373.3390, 8216.000
374.5380, 8108.000
375.7370, 8051.000
376.9360, 8031.000
378.1350, 8261.000
379.3330, 8307.000
380.5310, 8488.000
381.7300, 8822.000
382.9280, 9072.000
384.1260, 9522.000
385.3230, 10211.00
386.5210, 10677.00
387.7180, 11091.00
388.9160, 11340.00
390.1130, 11280.00
391.3100, 10931.00
392.5060, 10342.00
393.7030, 9858.000
394.9000, 9231.000
396.0960, 8766.000
397.2920, 8440.000
398.4880, 8318.000
399.6840, 7946.000
400.8800, 7753.000
402.0750, 7832.000
403.2710, 7773.000
404.4660, 7744.000
405.6610, 7689.000
406.8560, 7794.000
408.0510, 7973.000
409.2450, 8206.000
410.4400, 8451.000
411.6340, 8595.000
412.8280, 9084.000
414.0220, 9530.000
415.2160, 10249.00
416.4100, 10983.00
417.6030, 12013.00
418.7970, 13393.00
419.9900, 15061.00
421.1830, 16771.00
422.3760, 18775.00
423.5690, 20805.00
424.7610, 22518.00
425.9540, 24021.00
427.1460, 25706.00
428.3380, 27905.00
429.5300, 30187.00
430.7220, 32666.00
431.9140, 35776.00
433.1050, 38671.00
434.2970, 40157.00
435.4880, 40516.00
436.6790, 40087.00
437.8700, 38525.00
439.0610, 36369.00
440.2510, 34004.00
441.4420, 31760.00
442.6320, 30116.00
443.8220, 29160.00
445.0120, 28824.00
446.2020, 28801.00
447.3910, 29331.00
448.5810, 30470.00
449.7700, 30919.00
450.9600, 31307.00
452.1490, 31533.00
453.3370, 31378.00
454.5260, 31077.00
455.7150, 30529.00
456.9030, 29655.00
458.0910, 27866.00
459.2800, 25947.00
460.4670, 24079.00
461.6550, 21929.00
462.8430, 19969.00
464.0300, 18119.00
465.2180, 16404.00
466.4050, 14903.00
467.5920, 13889.00
468.7790, 12959.00
469.9650, 12033.00
471.1520, 11444.00
472.3380, 10807.00
473.5250, 10491.00
474.7110, 10085.00
475.8970, 9804.000
477.0820, 9634.000
478.2680, 9340.000
479.4540, 9342.000
480.6390, 9381.000
481.8240, 9324.000
483.0090, 9308.000
484.1940, 9449.000
485.3780, 9533.000
486.5630, 9768.000
487.7470, 10002.00
488.9320, 10212.00
490.1160, 10498.00
491.3000, 10936.00
492.4830, 11539.00
493.6670, 11939.00
494.8500, 13000.00
496.0340, 13646.00
497.2170, 14545.00
498.4000, 15138.00
499.5820, 15910.00
500.7650, 16540.00
501.9480, 17070.00
503.1300, 17747.00
504.3120, 18287.00
505.4940, 18740.00
506.6760, 19276.00
507.8580, 19840.00
509.0390, 19485.00
510.2210, 19166.00
511.4020, 17740.00
512.5830, 16516.00
513.7640, 14942.00
514.9450, 13667.00
516.1250, 12344.00
517.3060, 11276.00
518.4860, 10499.00
519.6660, 9661.000
520.8460, 9177.000
522.0260, 8587.000
523.2060, 8413.000
524.3850, 8051.000
525.5650, 7906.000
526.7440, 7639.000
527.9230, 7487.000
529.1020, 7339.000
530.2810, 7370.000
531.4590, 7326.000
532.6380, 7353.000
533.8160, 7269.000
534.9940, 7303.000
536.1720, 7397.000
537.3500, 7261.000
538.5270, 7334.000
539.7050, 7410.000
540.8820, 7416.000
542.0590, 7501.420
543.2360, 7546.097
544.4130, 7650.000
545.5900, 7698.000
546.7660, 7825.000
547.9430, 7994.000
549.1190, 8254.000
550.2950, 8541.000
551.4710, 8830.000
552.6470, 9064.000
553.8220, 9615.000
554.9980, 10257.00
556.1730, 11009.00
557.3480, 12309.00
558.5230, 13700.00
559.6980, 15285.00
560.8730, 17682.00
562.0470, 20496.00
563.2220, 23058.00
564.3960, 24540.00
565.5700, 24390.00
566.7440, 22761.00
567.9170, 20404.00
569.0910, 18355.00
570.2640, 16358.00
571.4380, 14959.00
572.6110, 13964.00
573.7840, 13512.00
574.9570, 13336.00
576.1290, 13559.00
577.3020, 14001.00
578.4740, 14773.00
579.6460, 15701.00
580.8180, 16915.00
581.9900, 17972.00
583.1620, 19668.00
584.3330, 21599.00
585.5040, 23315.00
586.6760, 24929.00
587.8470, 26887.00
589.0180, 28554.00
590.1880, 30443.00
591.3590, 32622.00
592.5290, 35366.00
593.7000, 38601.00
594.8700, 41465.00
596.0400, 44773.00
597.2090, 46432.00
598.3790, 47546.00
599.5490, 47189.00
600.7180, 46011.00
601.8870, 43527.00
603.0560, 41348.00
604.2250, 38875.00
605.3940, 36849.00
606.5620, 34859.00
607.7300, 33657.00
608.8990, 32540.00
610.0670, 31780.00
611.2350, 31214.00
612.4020, 30479.00
613.5700, 29012.00
614.7370, 27590.00
615.9050, 25557.00
617.0720, 23451.00
618.2390, 21433.00
619.4060, 19462.00
620.5720, 17356.00
621.7390, 15985.00
622.9050, 14573.00
624.0710, 13367.00
625.2370, 12441.00
626.4030, 11704.00
627.5690, 11070.00
628.7340, 10557.00
629.9000, 10073.00
631.0650, 9672.000
632.2300, 9308.000
633.3950, 9005.539
634.5600, 8789.000
635.7240, 8525.000
636.8890, 8365.000
638.0530, 8168.000
639.2170, 8120.000
640.3810, 7822.000
641.5450, 7735.000
642.7080, 7565.000
643.8720, 7376.000
645.0350, 7200.000
646.1980, 7077.319
647.3610, 7054.000
648.5240, 6879.000
649.6870, 6809.000
650.8490, 6785.000
652.0120, 6610.000
653.1740, 6608.000
654.3360, 6590.000
655.4980, 6518.000
656.6600, 6377.000
657.8210, 6389.000
658.9830, 6331.000
660.1440, 6258.000
661.3050, 6363.000
662.4660, 6265.000
663.6270, 6256.000
664.7870, 6078.000
665.9480, 6076.000
667.1080, 6030.000
668.2680, 6040.000
669.4280, 6037.608
670.5880, 6062.000
671.7480, 6056.000
672.9070, 6036.987
674.0670, 5930.000
675.2260, 5983.000
676.3850, 5941.000
677.5440, 5912.000
678.7030, 6030.000
679.8610, 5958.000
681.0200, 5956.000
682.1780, 5967.000
683.3360, 5910.000
684.4940, 5970.000
685.6520, 5924.000
686.8090, 5900.000
687.9670, 5955.000
689.1240, 5893.000
690.2810, 5933.000
691.4380, 5838.000
692.5950, 5864.000
693.7520, 5994.000
694.9080, 5906.700
696.0650, 5963.000
697.2210, 5895.000
698.3770, 5815.000
699.5330, 5877.000
700.6880, 5945.000
701.8440, 5781.000
702.9990, 5788.000
704.1550, 5731.000
705.3100, 5663.000
706.4650, 5618.630
707.6190, 5534.000
708.7740, 5497.000
709.9290, 5441.000
711.0830, 5412.733
712.2370, 5300.000
713.3910, 5290.000
714.5450, 5207.000
715.6980, 5095.000
716.8520, 5086.000
718.0050, 5066.000
719.1580, 4930.000
720.3110, 4998.000
721.4640, 4908.000
722.6170, 4920.000
723.7700, 4888.000
724.9220, 4903.000
726.0740, 4906.000
727.2260, 4872.000
728.3780, 4836.000
729.5300, 4845.445
730.6810, 4775.000
731.8330, 4838.000
732.9840, 4848.000
734.1350, 4821.000
735.2860, 4748.000
736.4370, 4811.000
737.5880, 4800.000
738.7380, 4776.000
739.8880, 4873.000
741.0390, 4760.000
742.1890, 4806.000
743.3380, 4770.000
744.4880, 4739.000
745.6380, 4828.000
746.7870, 4850.000
747.9360, 4785.000
749.0850, 4844.000
750.2340, 4854.340
751.3830, 4885.976
752.5310, 4928.000
753.6800, 4999.000
754.8280, 5039.000
755.9760, 5116.000
757.1240, 5199.715
758.2720, 5318.000
759.4190, 5398.000
760.5670, 5501.000
761.7140, 5629.000
762.8610, 5700.000
764.0080, 5785.000
765.1550, 5888.000
766.3020, 6007.000
767.4480, 5968.000
768.5950, 5916.000
769.7410, 6004.000
770.8870, 5902.000
772.0330, 5839.000
773.1780, 5750.000
774.3240, 5628.000
775.4690, 5451.000
776.6140, 5428.000
777.7590, 5306.701
778.9040, 5194.000
780.0490, 5199.000
781.1940, 5061.000
782.3380, 5095.000
783.4820, 5041.000
784.6260, 4984.000
785.7700, 4998.000
786.9140, 5030.000
788.0580, 5078.000
789.2010, 5175.000
790.3450, 5121.000
791.4880, 5007.000
792.6310, 5082.000
793.7730, 5123.000
794.9160, 5174.000
796.0590, 5175.000
797.2010, 5189.000
798.3430, 5254.000
799.4850, 5233.000
800.6270, 5269.000
801.7690, 5370.000
802.9100, 5394.000
804.0520, 5471.622
805.1930, 5500.000
806.3340, 5606.000
807.4750, 5669.000
808.6160, 5733.000
809.7560, 5693.000
810.8970, 5787.000
812.0370, 5879.000
813.1770, 5879.000
814.3170, 5988.000
815.4570, 6077.000
816.5960, 6028.000
817.7360, 6208.000
818.8750, 6181.000
820.0140, 6195.000
821.1530, 6410.000
822.2920, 6539.000
823.4310, 6662.000
824.5690, 6901.000
825.7070, 6999.000
826.8460, 7234.000
827.9840, 7363.000
829.1220, 7623.000
830.2590, 7692.000
831.3970, 7740.000
832.5340, 7823.000
833.6710, 7849.000
834.8080, 7934.000
835.9450, 7952.000
837.0820, 7949.000
838.2190, 7851.000
839.3550, 7970.000
840.4910, 7819.000
841.6270, 7991.000
842.7630, 7922.000
843.8990, 7886.000
845.0350, 7977.000
846.1700, 8037.000
847.3060, 8194.000
848.4410, 8328.000
849.5760, 8537.000
850.7100, 8659.000
851.8450, 8861.000
852.9800, 9092.000
854.1140, 9401.000
855.2480, 9642.000
856.3820, 9980.000
857.5160, 10340.00
858.6500, 10818.00
859.7830, 11181.00
860.9170, 11643.00
862.0500, 11890.00
863.1830, 12406.00
864.3160, 12693.00
865.4480, 12883.00
866.5810, 13136.00
867.7130, 13165.00
868.8460, 13264.00
869.9780, 13295.00
871.1100, 13458.00
872.2410, 13907.00
873.3730, 14182.00
874.5050, 14699.00
875.6360, 15569.00
876.7670, 16525.00
877.8980, 17301.00
879.0290, 18641.00
880.1590, 19906.00
881.2900, 21217.00
882.4200, 22673.00
883.5500, 23866.00
884.6800, 25101.00
885.8100, 26210.00
886.9400, 26786.00
888.0690, 27072.00
889.1990, 26898.00
890.3280, 26540.00
891.4570, 25704.00
892.5860, 24984.00
893.7140, 24511.00
894.8430, 23956.00
895.9710, 23765.00
897.1000, 24144.00
898.2280, 24530.00
899.3560, 25372.00
900.4830, 26501.00
901.6110, 27820.00
902.7380, 29826.00
903.8660, 31797.00
904.9930, 34491.00
906.1200, 37371.00
907.2460, 40769.00
908.3730, 44494.00
909.5000, 48252.00
910.6260, 52465.00
911.7520, 56267.00
912.8780, 59644.00
914.0040, 62256.00
915.1290, 64254.00
916.2550, 64691.00
917.3800, 63803.00
918.5050, 61082.00
919.6300, 57519.00
920.7550, 53168.00
921.8800, 47855.00
923.0040, 43202.00
924.1290, 38713.00
925.2530, 34716.00
926.3770, 31009.00
927.5010, 28170.00
928.6250, 25138.00
929.7480, 22842.00
930.8720, 20773.00
931.9950, 18853.00
933.1180, 17635.00
934.2410, 16191.00
935.3640, 15173.00
936.4860, 14362.00
937.6090, 13591.00
938.7310, 12778.00
939.8530, 12207.00
940.9750, 11544.00
942.0970, 11159.00
943.2180, 10819.00
944.3400, 10382.00
945.4610, 10023.00
946.5820, 9798.000
947.7030, 9670.000
948.8240, 9500.000
949.9450, 9324.040
951.0650, 9156.000
952.1860, 9015.000
953.3060, 8881.000
954.4260, 8775.000
955.5460, 8765.000
956.6650, 8668.000
957.7850, 8676.000
958.9040, 8378.000
960.0230, 8277.000
961.1420, 8362.000
962.2610, 8149.000
963.3800, 8181.000
964.4990, 8086.000
965.6170, 7985.000
966.7350, 8050.000
967.8530, 8076.000
968.9710, 8049.000
970.0890, 8118.000
971.2070, 8165.000
972.3240, 8376.000
973.4410, 8639.000
974.5580, 8820.000
975.6750, 9155.000
976.7920, 9356.000
977.9090, 9601.000
979.0250, 9699.000
980.1410, 9848.000
981.2580, 9526.000
982.3740, 9446.000
983.4890, 8951.000
984.6050, 8615.000
985.7200, 8137.000
986.8360, 7784.000
987.9510, 7499.000
989.0660, 7193.000
990.1810, 7073.000
991.2950, 6952.000
992.4100, 6774.000
993.5240, 6734.000
994.6390, 6563.000
995.7530, 6621.000
996.8660, 6445.000
997.9800, 6372.000
999.0940, 6318.000
1000.207, 6276.000
1001.320, 6291.000
1002.433, 6317.000
1003.546, 6301.000
1004.659, 6157.000
1005.772, 6311.000
1006.884, 6341.000
1007.996, 6354.000
1009.108, 6642.000
1010.220, 6610.000
1011.332, 6764.000
1012.444, 7019.000
1013.555, 7266.000
1014.666, 7451.000
1015.777, 7811.000
1016.888, 8149.000
1017.999, 8316.000
1019.110, 8628.000
1020.220, 8713.000
1021.331, 8682.000
1022.441, 8514.000
1023.551, 8279.000
1024.661, 7995.000
1025.770, 7953.000
1026.880, 7703.000
1027.989, 7617.000
1029.098, 7490.000
1030.207, 7646.000
1031.316, 7574.000
1032.425, 7626.000
1033.533, 7730.000
1034.642, 7825.000
1035.750, 8150.000
1036.858, 8066.000
1037.966, 8299.000
1039.073, 8367.000
1040.181, 8307.000
1041.288, 8467.000
1042.396, 8488.000
1043.503, 8359.000
1044.610, 8237.000
1045.716, 8195.000
1046.823, 8151.000
1047.929, 8008.000
1049.036, 7820.000
1050.142, 7612.000
1051.248, 7558.000
1052.353, 7563.000
1053.459, 7503.000
1054.564, 7311.000
1055.670, 7288.000
1056.775, 7222.000
1057.880, 7123.000
1058.985, 7096.000
1060.089, 7126.000
1061.194, 6937.000
1062.298, 6867.000
1063.402, 6920.000
1064.506, 6761.000
1065.610, 6722.000
1066.713, 6628.000
1067.817, 6697.000
1068.920, 6678.000
1070.023, 6775.000
1071.126, 6838.000
1072.229, 6949.000
1073.332, 7081.000
1074.435, 7360.000
1075.537, 7637.000
1076.639, 8018.000
1077.741, 8644.000
1078.843, 9333.000
1079.945, 10121.00
1081.046, 11155.00
1082.148, 12213.00
1083.249, 13518.00
1084.350, 14679.00
1085.451, 15684.00
1086.551, 16191.00
1087.652, 16390.00
1088.752, 15612.00
1089.853, 14580.00
1090.953, 13332.00
1092.053, 11733.00
1093.152, 10465.00
1094.252, 9437.000
1095.351, 8749.000
1096.451, 8064.000
1097.550, 7641.000
1098.649, 7223.000
1099.748, 6733.000
1100.846, 6575.000
1101.945, 6587.000
1103.043, 6313.968
1104.141, 6250.504
1105.239, 6094.000
1106.337, 6036.000
1107.434, 5948.000
1108.532, 5906.000
1109.629, 5845.000
1110.726, 5805.000
1111.823, 5801.000
1112.920, 5775.000
1114.017, 5673.000
1115.113, 5750.000
1116.210, 5637.000
1117.306, 5711.000
1118.402, 5677.000
1119.498, 5663.000
1120.593, 5687.000
1121.689, 5727.000
1122.784, 5789.000
1123.879, 5779.000
1124.974, 5752.000
1126.069, 5661.000
1127.164, 5490.000
1128.259, 5451.000
1129.353, 5324.000
1130.447, 5278.000
1131.541, 5274.000
1132.635, 5248.000
1133.729, 5225.495
1134.822, 5197.406
1135.916, 5203.000
1137.009, 5126.000
1138.102, 5143.000
1139.195, 5106.000
1140.288, 5154.000
1141.380, 5125.176
1142.473, 5104.268
1143.565, 5070.000
1144.657, 5048.000
1145.749, 4963.000
1146.841, 4937.000
1147.932, 4939.000
1149.024, 4957.000
1150.115, 4944.000
1151.206, 4889.000
1152.297, 4909.000
1153.388, 4809.000
1154.479, 4881.000
1155.569, 4849.000
1156.659, 4860.000
1157.750, 4881.779
1158.839, 4812.000
1159.929, 4878.000
1161.019, 4806.000
1162.108, 4747.000
1163.198, 4788.000
1164.287, 4765.000
1165.376, 4764.000
1166.465, 4772.164
1167.553, 4764.192
1168.642, 4776.000
1169.730, 4754.000
1170.818, 4767.000
1171.906, 4733.000
1172.994, 4765.000
1174.082, 4769.000
1175.170, 4807.000
1176.257, 4782.000
1177.344, 4773.000
1178.431, 4766.000
1179.518, 4739.000
1180.605, 4683.000
1181.691, 4795.000
1182.778, 4780.000
1183.864, 4744.000
1184.950, 4661.000
1186.036, 4636.000
1187.122, 4644.000
1188.207, 4713.000
1189.292, 4633.000
1190.378, 4743.000
1191.463, 4707.000
1192.548, 4758.000
1193.632, 4654.000
1194.717, 4655.000
1195.801, 4673.000
1196.886, 4717.000
1197.970, 4607.000
1199.054, 4577.000
1200.137, 4589.000
1201.221, 4548.000
1202.305, 4610.000
1203.388, 4616.000
1204.471, 4635.000
1205.554, 4662.000
1206.637, 4579.000
1207.719, 4543.000
1208.802, 4601.000
1209.884, 4568.000
1210.966, 4575.000
1212.048, 4611.000
1213.130, 4586.000
1214.212, 4606.000
1215.293, 4542.000
1216.374, 4587.000
1217.456, 4578.000
1218.536, 4533.000
1219.617, 4561.000
1220.698, 4558.000
1221.778, 4523.000
1222.859, 4446.000
1223.939, 4545.000
1225.019, 4424.000
1226.099, 4517.000
1227.178, 4478.000
1228.258, 4502.000
1229.337, 4402.000
1230.417, 4512.000
1231.496, 4463.000
1232.574, 4441.000
1233.653, 4462.000
1234.732, 4389.000
1235.810, 4441.000
1236.888, 4432.000
1237.966, 4424.000
1239.044, 4424.000
1240.122, 4413.000
1241.199, 4373.000
1242.277, 4320.000
1243.354, 4340.000
1244.431, 4299.000
1245.508, 4344.000
1246.585, 4350.000
1247.661, 4285.000
1248.738, 4383.000
1249.814, 4322.000
1250.890, 4282.000
1251.966, 4315.000
1253.042, 4290.000
1254.117, 4271.000
1255.193, 4279.000
1256.268, 4300.000
1257.343, 4257.000
1258.418, 4236.000
1259.493, 4298.000
1260.567, 4259.000
1261.642, 4315.000
1262.716, 4315.000
1263.790, 4245.000
1264.864, 4292.000
1265.938, 4268.000
1267.011, 4280.000
1268.085, 4252.000
1269.158, 4307.000
1270.231, 4305.000
1271.304, 4381.000
1272.377, 4351.000
1273.450, 4361.000
1274.522, 4299.000
1275.594, 4347.000
1276.666, 4282.000
1277.738, 4313.000
1278.810, 4310.000
1279.882, 4329.000
1280.953, 4315.000
1282.025, 4327.978
1283.096, 4331.000
1284.167, 4334.000
1285.238, 4312.000
1286.308, 4294.000
1287.379, 4342.000
1288.449, 4371.000
1289.519, 4284.000
1290.589, 4329.000
1291.659, 4311.000
1292.729, 4311.000
1293.798, 4286.000
1294.868, 4225.000
1295.937, 4239.000
1297.006, 4285.000
1298.075, 4253.000
1299.143, 4179.000
1300.212, 4272.000
1301.280, 4224.000
1302.348, 4236.000
1303.416, 4318.000
1304.484, 4203.000
1305.552, 4240.000
1306.620, 4180.000
1307.687, 4221.000
1308.754, 4231.000
1309.821, 4248.000
1310.888, 4205.000
1311.955, 4171.000
1313.021, 4246.000
1314.088, 4163.000
1315.154, 4244.000
1316.220, 4208.000
1317.286, 4259.000
1318.352, 4171.000
1319.417, 4164.000
1320.483, 4216.000
1321.548, 4239.000
1322.613, 4175.000
1323.678, 4271.000
1324.743, 4161.000
1325.807, 4111.000
1326.872, 4148.000
1327.936, 4220.000
1329.000, 4235.000
1330.064, 4131.000
1331.128, 4223.000
1332.191, 4147.000
1333.255, 4199.000
1334.318, 4118.000
1335.381, 4179.000
1336.444, 4172.000
1337.507, 4194.000
1338.569, 4195.000
1339.632, 4137.000
1340.694, 4220.000
1341.756, 4174.000
1342.818, 4120.000
1343.880, 4260.000
1344.941, 4172.000
1346.003, 4165.000
1347.064, 4163.000
1348.125, 4270.000
1349.186, 4172.000
1350.247, 4286.000
1351.308, 4184.000
1352.368, 4253.000
1353.428, 4202.000
1354.489, 4154.000
1355.549, 4083.000
1356.608, 4182.000
1357.668, 4307.000
1358.727, 4226.000
1359.787, 4236.000
1360.846, 4263.000
1361.905, 4218.000
1362.964, 4208.000
1364.022, 4237.000
1365.081, 4194.343
1366.139, 4111.000
1367.197, 4171.000
1368.255, 4139.000
1369.313, 4165.000
1370.371, 4141.000
1371.428, 4219.000
1372.486, 4119.000
1373.543, 4210.000
1374.600, 4224.000
1375.657, 4219.000
1376.713, 4239.973
1377.770, 4166.000
1378.826, 4215.000
1379.882, 4175.000
1380.938, 4153.000
1381.994, 4157.000
1383.050, 4185.000
1384.106, 4143.000
1385.161, 4121.000
1386.216, 4122.000
1387.271, 4179.000
1388.326, 4192.000
1389.381, 4213.000
1390.435, 4162.000
1391.490, 4141.000
1392.544, 4173.000
1393.598, 4156.000
1394.652, 4141.000
1395.705, 4205.000
1396.759, 4082.000
1397.812, 4145.000
1398.866, 4228.000
1399.919, 4156.000
1400.972, 4181.000
1402.024, 4196.000
1403.077, 4184.000
1404.129, 4149.000
1405.181, 4154.000
1406.233, 4096.000
1407.285, 4143.000
1408.337, 4203.000
1409.389, 4142.000
1410.440, 4223.000
1411.491, 4149.000
1412.542, 4183.000
1413.593, 4132.000
1414.644, 4171.000
1415.695, 4212.000
1416.745, 4262.000
1417.795, 4148.000
1418.845, 4123.000
1419.895, 4184.000
1420.945, 4056.000
1421.995, 4170.000
1423.044, 4213.000
1424.093, 4142.000
1425.142, 4123.000
1426.191, 4153.000
1427.240, 4214.000
1428.289, 4169.000
1429.337, 4189.000
1430.385, 4176.000
1431.433, 4247.000
1432.481, 4131.000
1433.529, 4184.000
1434.577, 4274.000
1435.624, 4088.000
1436.672, 4188.000
1437.719, 4168.000
1438.766, 4162.000
1439.812, 4213.000
1440.859, 4208.000
1441.905, 4256.000
1442.952, 4218.000
1443.998, 4263.000
1445.044, 4542.000
1446.090, 4715.000
1447.135, 4381.000
1448.181, 4185.000
1449.226, 4192.000
1450.271, 4157.000
1451.316, 4167.000
1452.361, 4198.000
1453.405, 4184.000
1454.450, 4132.000
1455.494, 4271.000
1456.538, 4221.000
1457.582, 4267.000
1458.626, 4174.000
1459.670, 4230.000
1460.713, 4234.000
1461.757, 4209.000
1462.800, 4186.000
1463.843, 4193.105
1464.886, 4172.370
1465.928, 4192.000
1466.971, 4165.000
1468.013, 4150.000
1469.055, 4167.000
1470.097, 4274.000
1471.139, 4229.000
1472.181, 4258.000
1473.222, 4132.000
1474.263, 4227.000
1475.305, 4221.000
1476.346, 4197.000
1477.386, 4247.000
1478.427, 4216.000
1479.468, 4163.000
1480.508, 4223.000
1481.548, 4279.000
1482.588, 4248.000
1483.628, 4252.000
1484.668, 4198.000
1485.707, 4189.000
1486.747, 4253.000
1487.786, 4196.000
1488.825, 4234.000
1489.864, 4261.000
1490.902, 4235.000
1491.941, 4277.000
1492.979, 4212.000
1494.017, 4204.000
1495.055, 4166.000
1496.093, 4288.000
1497.131, 4145.000
1498.168, 4250.000
1499.206, 4220.000
1500.243, 4235.000
1501.280, 4217.000
1502.317, 4227.000
1503.354, 4224.000
1504.390, 4241.000
1505.426, 4227.417
1506.463, 4220.000
1507.499, 4201.000
1508.535, 4213.000
1509.570, 4196.000
1510.606, 4172.000
1511.641, 4210.000
1512.676, 4206.000
1513.711, 4272.000
1514.746, 4255.000
1515.781, 4110.000
1516.816, 4181.000
1517.850, 4171.000
1518.884, 4236.000
1519.918, 4185.000
1520.952, 4200.000
1521.986, 4141.000
1523.019, 4136.000
1524.053, 4161.000
1525.086, 4223.000
1526.119, 4187.000
1527.152, 4143.000
1528.185, 4190.000
1529.217, 4135.000
1530.250, 4156.000
1531.282, 4169.000
1532.314, 4167.000
1533.346, 4146.000
1534.377, 4197.000
1535.409, 4194.000
1536.440, 4116.000
1537.472, 4200.000
1538.503, 4244.000
1539.534, 4144.000
1540.564, 4113.000
1541.595, 4178.000
1542.625, 4143.000
1543.656, 4134.000
1544.686, 4135.000
1545.716, 4127.132
1546.745, 4137.159
1547.775, 4133.000
1548.804, 4166.000
1549.834, 4164.000
1550.863, 4191.000
1551.892, 4206.000
1552.920, 4283.000
1553.949, 4313.000
1554.977, 4303.000
1556.006, 4171.000
1557.034, 4165.000
1558.062, 4131.000
1559.089, 4072.000
1560.117, 4103.000
1561.144, 4134.000
1562.172, 4098.000
1563.199, 4155.000
1564.226, 4130.000
1565.252, 4143.000
1566.279, 4094.000
1567.305, 4074.000
1568.332, 4117.000
1569.358, 4140.000
1570.384, 4116.000
1571.409, 4099.000
1572.435, 4071.000
##END=



