##NAMES=Epididymite
##RRUFFID=R070580
##IDEAL CHEMISTRY=Na_2_Be_2_Si_6_O_15_&#183;H_2_O
##LOCALITY=Narsarsuk, Narsaq, Kitaa, Greenland
##OWNER=RRUFF
##SOURCE=James Shigley
##DESCRIPTION=A translucent to white elongated prism.
##STATUS=The identification of this mineral is confirmed by single-crystal X-ray diffraction and chemical analysis.
##URL=rruff.info/R070580
##MEASURED CHEMISTRY=(Na_1.97_K_0.03_)_Σ=2_Be_2_Si_6.00_O_15_·H_2_O; trace amounts of Al; Be and H_2_O assumed by stoichiometry
##PIN_ID=M01839
##ORIENTATION=Laser parallel to b* (0 1 0). Fiducial mark perpendicular to laser is parallel to -c [0 0 -1]
111.2060, 7787.367
112.4440, 7990.000
113.6810, 8265.000
114.9180, 8551.000
116.1550, 8806.000
117.3920, 9335.000
118.6290, 9819.000
119.8650, 10412.00
121.1010, 11093.00
122.3370, 12004.00
123.5730, 12720.00
124.8090, 13067.00
126.0450, 12852.00
127.2800, 13138.00
128.5150, 13634.00
129.7500, 14396.00
130.9850, 15049.00
132.2200, 15775.00
133.4540, 15992.00
134.6890, 15450.00
135.9230, 14418.00
137.1570, 13038.00
138.3900, 11669.00
139.6240, 10815.00
140.8580, 10427.00
142.0910, 10255.00
143.3240, 9919.000
144.5570, 9904.000
145.7900, 9866.000
147.0220, 10110.00
148.2550, 10294.00
149.4870, 10531.00
150.7190, 10700.00
151.9510, 10757.00
153.1830, 10438.00
154.4140, 9867.000
155.6460, 9414.000
156.8770, 9014.000
158.1080, 8561.000
159.3390, 8426.000
160.5690, 8218.000
161.8000, 7990.000
163.0300, 7937.000
164.2600, 7938.000
165.4900, 8016.000
166.7200, 7910.000
167.9500, 7846.000
169.1790, 7849.000
170.4080, 7977.000
171.6380, 7970.000
172.8670, 7877.000
174.0950, 7791.000
175.3240, 8010.000
176.5520, 7942.000
177.7810, 8000.000
179.0090, 7904.000
180.2370, 8049.000
181.4640, 7876.000
182.6920, 8023.000
183.9190, 8183.000
185.1460, 8038.000
186.3730, 8252.000
187.6000, 8350.000
188.8270, 8426.000
190.0530, 8605.000
191.2800, 8580.000
192.5060, 8827.000
193.7320, 8767.000
194.9580, 9076.000
196.1830, 9122.000
197.4090, 9212.000
198.6340, 9199.000
199.8590, 9125.000
201.0840, 9177.000
202.3090, 9115.000
203.5340, 8934.000
204.7580, 8835.000
205.9820, 8775.000
207.2060, 8642.000
208.4300, 8641.000
209.6540, 8622.000
210.8780, 8588.000
212.1010, 8603.393
213.3240, 8604.000
214.5470, 8645.000
215.7700, 8632.000
216.9930, 8705.000
218.2150, 8772.000
219.4380, 8877.000
220.6600, 9017.000
221.8820, 9087.000
223.1040, 9164.000
224.3260, 9507.000
225.5470, 9735.000
226.7680, 10284.00
227.9900, 10437.00
229.2110, 10962.00
230.4310, 11577.00
231.6520, 12185.00
232.8720, 12951.00
234.0930, 13762.00
235.3130, 14382.00
236.5330, 15212.00
237.7530, 15923.00
238.9720, 16790.00
240.1920, 17314.00
241.4110, 17814.00
242.6300, 17917.00
243.8490, 17307.00
245.0680, 16516.00
246.2860, 15542.00
247.5040, 14618.00
248.7230, 13618.00
249.9410, 12912.00
251.1590, 12424.00
252.3760, 11603.00
253.5940, 11525.00
254.8110, 11085.00
256.0280, 11079.00
257.2450, 10738.00
258.4620, 10493.00
259.6790, 10465.00
260.8950, 10415.00
262.1120, 10109.00
263.3280, 9856.000
264.5440, 9690.000
265.7600, 9485.000
266.9750, 9313.000
268.1910, 9295.000
269.4060, 9151.000
270.6210, 9096.000
271.8360, 8956.000
273.0510, 9015.000
274.2650, 8949.000
275.4800, 8966.000
276.6940, 9081.000
277.9080, 9238.000
279.1220, 9131.000
280.3360, 9144.000
281.5490, 9110.000
282.7630, 9331.000
283.9760, 9567.000
285.1890, 9526.000
286.4020, 9517.000
287.6150, 9337.000
288.8270, 9096.000
290.0400, 9055.000
291.2520, 8865.000
292.4640, 8833.000
293.6760, 8822.000
294.8870, 8709.000
296.0990, 8656.000
297.3100, 8563.000
298.5210, 8734.000
299.7320, 8671.000
300.9430, 8592.000
302.1540, 8748.000
303.3640, 8616.000
304.5750, 8743.000
305.7850, 8689.000
306.9950, 8632.000
308.2050, 8699.000
309.4140, 8687.000
310.6240, 8841.000
311.8330, 8731.000
313.0420, 8801.000
314.2510, 8707.000
315.4600, 8755.000
316.6680, 8877.000
317.8770, 8830.000
319.0850, 8883.000
320.2930, 8851.000
321.5010, 8760.000
322.7090, 8801.000
323.9160, 8767.000
325.1240, 8936.000
326.3310, 8857.000
327.5380, 8976.000
328.7450, 9068.000
329.9520, 8864.000
331.1580, 8971.000
332.3650, 8886.000
333.5710, 8928.000
334.7770, 8944.000
335.9830, 9058.000
337.1880, 8991.000
338.3940, 9136.000
339.5990, 9144.000
340.8040, 9050.000
342.0090, 9241.000
343.2140, 9252.000
344.4190, 9169.000
345.6230, 9259.000
346.8280, 9211.000
348.0320, 9236.000
349.2360, 9235.000
350.4400, 9262.000
351.6430, 9195.000
352.8470, 9357.000
354.0500, 9236.000
355.2530, 9389.000
356.4560, 9337.000
357.6590, 9312.000
358.8620, 9297.000
360.0640, 9326.373
361.2660, 9479.000
362.4680, 9429.000
363.6700, 9497.000
364.8720, 9560.000
366.0740, 9579.000
367.2750, 9769.000
368.4760, 9693.000
369.6770, 10004.00
370.8780, 10036.00
372.0790, 10345.00
373.2800, 10567.00
374.4800, 10823.00
375.6800, 11031.00
376.8800, 11280.00
378.0800, 11498.00
379.2800, 12056.00
380.4790, 12153.00
381.6790, 12244.00
382.8780, 12183.00
384.0770, 12249.00
385.2760, 12130.00
386.4750, 11926.00
387.6730, 11942.00
388.8720, 11657.00
390.0700, 11177.00
391.2680, 10925.00
392.4660, 10734.00
393.6630, 10749.00
394.8610, 10647.00
396.0580, 10771.00
397.2550, 11190.00
398.4520, 11748.00
399.6490, 12655.00
400.8460, 13258.00
402.0420, 13798.00
403.2390, 14376.00
404.4350, 15051.00
405.6310, 16118.00
406.8270, 17541.00
408.0220, 18093.00
409.2180, 18299.00
410.4130, 17268.00
411.6080, 15638.00
412.8030, 13868.00
413.9980, 12581.00
415.1920, 11477.00
416.3870, 10685.00
417.5810, 10450.00
418.7750, 10141.00
419.9690, 10105.00
421.1630, 9863.000
422.3570, 9878.000
423.5500, 9820.000
424.7430, 9645.000
425.9360, 9693.000
427.1290, 9698.000
428.3220, 9689.000
429.5150, 9829.000
430.7070, 9662.000
431.8990, 9794.000
433.0910, 9712.000
434.2830, 9941.000
435.4750, 9791.000
436.6670, 9838.000
437.8580, 9896.000
439.0490, 9802.000
440.2400, 9799.000
441.4310, 9911.000
442.6220, 9860.000
443.8130, 9712.000
445.0030, 9893.000
446.1930, 9886.000
447.3830, 9927.000
448.5730, 10083.00
449.7630, 9933.000
450.9520, 9978.000
452.1420, 10019.00
453.3310, 10045.00
454.5200, 10090.70
455.7090, 10139.00
456.8980, 10269.00
458.0860, 10366.00
459.2740, 10673.00
460.4630, 10796.00
461.6510, 10994.00
462.8380, 11322.00
464.0260, 11889.00
465.2140, 12463.00
466.4010, 13293.00
467.5880, 14419.00
468.7750, 15772.00
469.9620, 16703.00
471.1490, 17771.00
472.3350, 18798.00
473.5220, 20462.00
474.7080, 21927.00
475.8940, 22962.00
477.0800, 23466.00
478.2650, 22230.00
479.4510, 20440.00
480.6360, 17980.00
481.8210, 15810.00
483.0060, 14227.00
484.1910, 13328.00
485.3760, 12839.00
486.5600, 12365.00
487.7440, 12111.00
488.9290, 11921.00
490.1130, 11638.00
491.2960, 11538.98
492.4800, 11419.00
493.6630, 11374.00
494.8470, 11333.00
496.0300, 11333.00
497.2130, 11441.00
498.3960, 11409.00
499.5780, 11653.00
500.7610, 11622.00
501.9430, 12003.00
503.1250, 12259.00
504.3070, 12796.00
505.4890, 13444.00
506.6710, 14410.00
507.8520, 15605.00
509.0330, 17362.00
510.2140, 19954.00
511.3950, 23209.00
512.5760, 26775.00
513.7570, 29859.00
514.9370, 33145.00
516.1170, 36247.00
517.2980, 40786.00
518.4780, 44677.00
519.6570, 47982.00
520.8370, 48648.00
522.0160, 45807.00
523.1960, 40565.00
524.3750, 33994.00
525.5540, 28062.00
526.7320, 23501.00
527.9110, 19896.00
529.0890, 17654.00
530.2680, 15980.00
531.4460, 14874.00
532.6240, 14135.00
533.8010, 13502.00
534.9790, 12944.00
536.1560, 12646.00
537.3340, 12413.00
538.5110, 12129.00
539.6880, 11907.00
540.8650, 11839.00
542.0410, 11683.00
543.2180, 11635.00
544.3940, 11413.00
545.5700, 11342.00
546.7460, 11304.00
547.9220, 11212.00
549.0970, 11136.00
550.2730, 11189.00
551.4480, 11135.00
552.6230, 11038.00
553.7980, 11132.00
554.9730, 10918.00
556.1470, 10929.00
557.3210, 11154.00
558.4960, 10949.00
559.6700, 11013.00
560.8440, 10944.00
562.0170, 10939.00
563.1910, 10886.00
564.3640, 10906.71
565.5380, 10974.00
566.7110, 10972.00
567.8840, 10994.00
569.0560, 11048.00
570.2290, 10982.00
571.4010, 11075.00
572.5740, 10961.00
573.7460, 11127.00
574.9180, 11133.00
576.0890, 11231.00
577.2610, 11335.00
578.4320, 11374.00
579.6040, 11414.00
580.7750, 11595.00
581.9450, 11683.00
583.1160, 11639.00
584.2870, 11731.52
585.4570, 11720.09
586.6270, 11707.00
587.7980, 11643.00
588.9670, 11515.00
590.1370, 11433.82
591.3070, 11102.00
592.4760, 11175.00
593.6450, 11105.00
594.8140, 10957.00
595.9830, 11055.00
597.1520, 10933.00
598.3210, 10801.00
599.4890, 10996.00
600.6570, 10938.00
601.8250, 10847.00
602.9930, 11012.00
604.1610, 11011.00
605.3290, 10859.00
606.4960, 10888.00
607.6630, 10963.00
608.8300, 10951.00
609.9970, 10958.00
611.1640, 10931.00
612.3300, 10951.00
613.4970, 10954.00
614.6630, 11063.00
615.8290, 10937.00
616.9950, 11155.00
618.1610, 11072.00
619.3260, 11100.00
620.4920, 11163.00
621.6570, 11165.00
622.8220, 11248.00
623.9870, 11286.00
625.1520, 11253.00
626.3160, 11391.00
627.4810, 11312.00
628.6450, 11447.00
629.8090, 11207.00
630.9730, 11355.00
632.1370, 11358.00
633.3000, 11194.00
634.4640, 11280.00
635.6270, 11285.00
636.7900, 11201.00
637.9530, 11236.00
639.1160, 11225.00
640.2780, 11293.00
641.4410, 11190.00
642.6030, 11240.00
643.7650, 11182.00
644.9270, 11191.00
646.0890, 11423.00
647.2500, 11292.00
648.4120, 11238.00
649.5730, 11424.00
650.7340, 11279.00
651.8950, 11383.00
653.0560, 11373.00
654.2160, 11386.00
655.3770, 11354.00
656.5370, 11359.03
657.6970, 11300.00
658.8570, 11341.00
660.0170, 11258.00
661.1760, 11225.00
662.3360, 11292.00
663.4950, 11158.00
664.6540, 11270.00
665.8130, 11217.00
666.9720, 11172.00
668.1310, 11285.00
669.2890, 11263.00
670.4470, 11305.00
671.6050, 11258.00
672.7630, 11319.00
673.9210, 11256.00
675.0790, 11165.00
676.2360, 11363.00
677.3930, 11154.00
678.5510, 11321.00
679.7080, 11289.00
680.8640, 11328.00
682.0210, 11321.00
683.1770, 11362.00
684.3340, 11344.00
685.4900, 11299.00
686.6460, 11324.00
687.8020, 11295.00
688.9570, 11366.00
690.1130, 11376.00
691.2680, 11458.00
692.4230, 11406.00
693.5780, 11358.00
694.7330, 11319.00
695.8880, 11421.00
697.0420, 11499.00
698.1960, 11321.00
699.3510, 11431.00
700.5040, 11404.00
701.6580, 11520.00
702.8120, 11594.00
703.9650, 11522.00
705.1190, 11544.00
706.2720, 11426.00
707.4250, 11538.00
708.5780, 11436.00
709.7300, 11481.00
710.8830, 11401.00
712.0350, 11535.00
713.1870, 11478.00
714.3390, 11492.00
715.4910, 11439.00
716.6430, 11529.00
717.7940, 11543.00
718.9460, 11553.00
720.0970, 11582.00
721.2480, 11525.00
722.3990, 11497.00
723.5500, 11668.00
724.7000, 11661.00
725.8500, 11606.00
727.0010, 11783.00
728.1510, 11670.00
729.3010, 11795.00
730.4500, 11637.00
731.6000, 11913.00
732.7490, 11862.00
733.8980, 11723.00
735.0470, 11955.00
736.1960, 11917.00
737.3450, 11885.00
738.4940, 11906.00
739.6420, 11972.00
740.7900, 11958.00
741.9380, 11781.00
743.0860, 11921.00
744.2340, 11934.00
745.3810, 11992.00
746.5290, 12228.00
747.6760, 12186.00
748.8230, 12307.00
749.9700, 12470.00
751.1170, 12432.00
752.2630, 12506.00
753.4100, 12681.00
754.5560, 12599.00
755.7020, 12741.00
756.8480, 12746.00
757.9940, 12645.00
759.1390, 12494.00
760.2850, 12452.00
761.4300, 12356.72
762.5750, 12284.00
763.7200, 12278.00
764.8650, 12302.00
766.0100, 12378.00
767.1540, 12212.00
768.2980, 12333.00
769.4420, 12269.00
770.5860, 12258.00
771.7300, 12220.00
772.8740, 12235.00
774.0170, 12133.00
775.1610, 12207.00
776.3040, 12175.00
777.4470, 12241.00
778.5900, 12230.00
779.7320, 12227.00
780.8750, 12263.00
782.0170, 12240.26
783.1590, 12259.88
784.3010, 12235.00
785.4430, 12251.00
786.5850, 12274.00
787.7260, 12214.00
788.8680, 12382.00
790.0090, 12368.00
791.1500, 12386.00
792.2910, 12311.00
793.4310, 12290.00
794.5720, 12308.00
795.7120, 12212.00
796.8520, 12337.00
797.9920, 12480.00
799.1320, 12434.00
800.2720, 12388.00
801.4120, 12543.00
802.5510, 12491.00
803.6900, 12463.00
804.8290, 12500.00
805.9680, 12565.00
807.1070, 12575.00
808.2450, 12602.00
809.3840, 12665.00
810.5220, 12726.00
811.6600, 12707.00
812.7980, 12819.00
813.9360, 12956.00
815.0730, 12946.00
816.2110, 13051.00
817.3480, 12951.00
818.4850, 13022.00
819.6220, 13126.00
820.7590, 13161.00
821.8960, 12969.00
823.0320, 12811.00
824.1680, 12769.00
825.3040, 12636.00
826.4400, 12780.00
827.5760, 12813.00
828.7120, 12723.00
829.8470, 12757.00
830.9830, 12619.00
832.1180, 12548.00
833.2530, 12813.00
834.3880, 12627.00
835.5220, 12796.00
836.6570, 12664.00
837.7910, 12711.00
838.9250, 12875.00
840.0590, 12786.00
841.1930, 12700.00
842.3270, 12790.00
843.4600, 12846.00
844.5940, 12858.00
845.7270, 12752.00
846.8600, 12931.00
847.9930, 12840.00
849.1250, 12967.00
850.2580, 12852.00
851.3900, 12953.00
852.5230, 12984.00
853.6550, 12933.00
854.7870, 13017.00
855.9180, 13031.00
857.0500, 13119.00
858.1810, 13098.30
859.3130, 13061.00
860.4440, 13059.00
861.5750, 13094.00
862.7050, 13085.00
863.8360, 13112.00
864.9660, 13202.00
866.0970, 13082.00
867.2270, 13223.00
868.3570, 13088.00
869.4870, 13015.00
870.6160, 13022.00
871.7460, 13079.00
872.8750, 13122.00
874.0040, 13101.00
875.1330, 13103.00
876.2620, 13167.00
877.3910, 13131.00
878.5190, 13138.00
879.6470, 12962.00
880.7760, 13066.00
881.9040, 12988.00
883.0310, 13120.00
884.1590, 13209.00
885.2870, 12996.00
886.4140, 13183.00
887.5410, 13278.00
888.6680, 13055.00
889.7950, 13062.00
890.9220, 13079.00
892.0480, 13181.00
893.1750, 13022.00
894.3010, 13270.00
895.4270, 13151.00
896.5530, 13232.00
897.6790, 13287.00
898.8040, 13199.00
899.9300, 13181.00
901.0550, 13281.00
902.1800, 13337.00
903.3050, 13244.00
904.4300, 13251.00
905.5540, 13330.00
906.6790, 13218.00
907.8030, 13238.00
908.9270, 13377.00
910.0510, 13277.00
911.1750, 13332.00
912.2990, 13236.00
913.4220, 13384.00
914.5450, 13356.00
915.6690, 13378.00
916.7920, 13395.00
917.9140, 13358.32
919.0370, 13364.00
920.1600, 13311.00
921.2820, 13276.00
922.4040, 13275.95
923.5260, 13316.00
924.6480, 13359.00
925.7700, 13416.00
926.8910, 13499.00
928.0130, 13422.00
929.1340, 13378.00
930.2550, 13522.00
931.3760, 13338.00
932.4970, 13437.00
933.6170, 13465.00
934.7380, 13531.00
935.8580, 13427.00
936.9780, 13409.00
938.0980, 13458.00
939.2180, 13544.00
940.3370, 13569.00
941.4570, 13508.00
942.5760, 13622.00
943.6950, 13559.00
944.8140, 13583.00
945.9330, 13513.00
947.0520, 13592.00
948.1700, 13545.00
949.2890, 13453.00
950.4070, 13525.00
951.5250, 13602.00
952.6430, 13600.00
953.7600, 13605.00
954.8780, 13627.00
955.9950, 13719.00
957.1120, 13578.00
958.2290, 13542.00
959.3460, 13464.00
960.4630, 13659.00
961.5800, 13549.00
962.6960, 13686.00
963.8120, 13512.00
964.9280, 13741.00
966.0440, 13776.00
967.1600, 13732.00
968.2760, 13825.00
969.3910, 13635.00
970.5060, 13716.00
971.6210, 13751.00
972.7360, 13781.00
973.8510, 13864.00
974.9660, 13678.00
976.0800, 13788.00
977.1950, 13832.00
978.3090, 13777.00
979.4230, 13866.00
980.5370, 13863.26
981.6500, 13825.00
982.7640, 13887.00
983.8770, 13909.00
984.9900, 13868.00
986.1030, 13895.00
987.2160, 13980.00
988.3290, 14087.00
989.4420, 14014.00
990.5540, 14124.00
991.6660, 13990.00
992.7780, 14045.00
993.8900, 14052.00
995.0020, 14099.00
996.1140, 14197.00
997.2250, 14143.00
998.3360, 14068.00
999.4470, 14174.00
1000.558, 14283.00
1001.669, 14380.00
1002.780, 14560.00
1003.890, 14374.00
1005.001, 14338.00
1006.111, 14448.00
1007.221, 14391.00
1008.331, 14380.00
1009.440, 14309.00
1010.550, 14309.75
1011.659, 14403.00
1012.768, 14333.00
1013.877, 14385.00
1014.986, 14471.00
1016.095, 14434.00
1017.204, 14337.00
1018.312, 14296.00
1019.420, 14423.00
1020.528, 14365.00
1021.636, 14376.00
1022.744, 14424.00
1023.852, 14308.00
1024.959, 14458.00
1026.066, 14184.00
1027.173, 14108.00
1028.280, 14248.00
1029.387, 14427.00
1030.494, 14324.00
1031.600, 14473.00
1032.707, 14279.00
1033.813, 14524.00
1034.919, 14450.00
1036.025, 14519.00
1037.130, 14511.00
1038.236, 14570.00
1039.341, 14669.00
1040.446, 14577.00
1041.552, 14848.00
1042.656, 15065.00
1043.761, 14965.00
1044.866, 15018.00
1045.970, 15234.00
1047.074, 15418.00
1048.179, 15430.00
1049.282, 15509.00
1050.386, 15526.13
1051.490, 15298.00
1052.593, 15480.00
1053.697, 15260.00
1054.800, 15184.00
1055.903, 15308.00
1057.006, 15142.00
1058.108, 15277.00
1059.211, 15356.00
1060.313, 15163.00
1061.415, 15189.00
1062.517, 15405.00
1063.619, 15137.00
1064.721, 15475.00
1065.823, 15131.00
1066.924, 15196.00
1068.025, 15312.00
1069.126, 15227.00
1070.227, 15198.00
1071.328, 15149.00
1072.429, 15084.27
1073.529, 15044.00
1074.629, 14983.00
1075.729, 15010.00
1076.829, 14998.00
1077.929, 15077.00
1079.029, 15059.00
1080.128, 15048.00
1081.228, 15096.00
1082.327, 14981.00
1083.426, 14874.00
1084.525, 14974.00
1085.623, 14930.00
1086.722, 14924.00
1087.820, 14794.00
1088.919, 14948.00
1090.017, 14935.00
1091.115, 14748.00
1092.212, 14815.00
1093.310, 14885.00
1094.407, 14835.00
1095.505, 14902.00
1096.602, 14884.00
1097.699, 14952.00
1098.795, 14740.00
1099.892, 14829.00
1100.989, 14858.00
1102.085, 15004.00
1103.181, 14915.00
1104.277, 14959.00
1105.373, 14972.00
1106.469, 15156.00
1107.564, 15150.00
1108.660, 15025.00
1109.755, 15164.00
1110.850, 15021.00
1111.945, 15193.00
1113.040, 15345.00
1114.134, 15492.00
1115.229, 15323.00
1116.323, 15381.00
1117.417, 15326.00
1118.511, 15305.00
1119.605, 15393.00
1120.698, 15461.00
1121.792, 15434.00
1122.885, 15439.00
1123.978, 15428.00
1125.071, 15401.00
1126.164, 15521.00
1127.257, 15608.00
1128.349, 15616.00
1129.442, 15779.00
1130.534, 15882.00
1131.626, 16039.00
1132.718, 16158.00
1133.810, 16273.00
1134.901, 16433.00
1135.993, 16576.00
1137.084, 16801.00
1138.175, 16856.00
1139.266, 16972.00
1140.357, 17039.00
1141.448, 16959.91
1142.538, 16878.00
1143.628, 16682.00
1144.719, 16676.00
1145.809, 16385.00
1146.898, 16131.00
1147.988, 16115.00
1149.078, 16051.00
1150.167, 15704.00
1151.256, 15792.00
1152.345, 15729.00
1153.434, 15702.00
1154.523, 15452.00
1155.612, 15518.00
1156.700, 15382.00
1157.788, 15547.00
1158.877, 15380.00
1159.964, 15193.00
1161.052, 15311.00
1162.140, 15392.00
1163.227, 15410.00
1164.315, 15341.00
1165.402, 15255.00
1166.489, 15255.00
1167.576, 15242.53
1168.663, 15315.00
1169.749, 15301.00
1170.836, 15360.00
1171.922, 15419.00
1173.008, 15255.00
1174.094, 15398.00
1175.180, 15275.00
1176.265, 15177.00
1177.351, 15510.00
1178.436, 15287.00
1179.521, 15211.00
1180.606, 15454.00
1181.691, 15533.00
1182.776, 15229.00
1183.860, 15306.00
1184.944, 15312.00
1186.029, 15455.00
1187.113, 15344.00
1188.197, 15436.00
1189.280, 15253.00
1190.364, 15365.00
1191.447, 15415.00
1192.531, 15339.00
1193.614, 15438.00
1194.697, 15340.00
1195.779, 15456.00
1196.862, 15357.00
1197.945, 15456.00
1199.027, 15335.00
1200.109, 15422.00
1201.191, 15505.00
1202.273, 15492.00
1203.355, 15550.00
1204.436, 15514.00
1205.518, 15526.57
1206.599, 15522.58
1207.680, 15528.00
1208.761, 15486.00
1209.842, 15505.00
1210.922, 15468.00
1212.003, 15500.00
1213.083, 15591.00
1214.163, 15462.00
1215.243, 15637.00
1216.323, 15669.00
1217.402, 15603.00
1218.482, 15653.00
1219.561, 15669.00
1220.641, 15646.00
1221.720, 15663.31
1222.798, 15626.39
1223.877, 15640.00
1224.956, 15550.00
1226.034, 15517.00
1227.112, 15473.00
1228.191, 15592.00
1229.269, 15674.00
1230.346, 15775.00
1231.424, 15781.13
1232.501, 15779.99
1233.579, 15759.00
1234.656, 15702.00
1235.733, 15677.00
1236.810, 15656.00
1237.886, 15621.00
1238.963, 15667.00
1240.039, 15714.00
1241.116, 15654.00
1242.192, 15763.00
1243.268, 15596.00
1244.343, 15768.00
1245.419, 15863.00
1246.494, 15823.00
1247.570, 15779.00
1248.645, 15744.00
1249.720, 15817.00
1250.795, 15772.00
1251.869, 15739.00
1252.944, 15801.00
1254.018, 15766.00
1255.093, 15758.00
1256.167, 15898.00
1257.240, 15808.00
1258.314, 15835.00
1259.388, 15987.00
1260.461, 15862.00
1261.535, 15666.00
1262.608, 15816.00
1263.681, 15859.00
1264.753, 15860.00
1265.826, 15911.00
1266.899, 15896.00
1267.971, 16009.00
1269.043, 15808.00
1270.115, 16032.00
1271.187, 15921.00
1272.259, 16163.00
1273.330, 16037.00
1274.402, 15890.00
1275.473, 16083.00
1276.544, 15993.00
1277.615, 16028.00
1278.686, 16138.00
1279.756, 16012.00
1280.827, 15962.00
1281.897, 15991.00
1282.967, 16011.00
1284.037, 16039.00
1285.107, 16032.89
1286.177, 16011.00
1287.247, 16025.00
1288.316, 15988.00
1289.385, 16005.29
1290.454, 16001.22
1291.523, 15974.00
1292.592, 16024.00
1293.661, 16022.00
1294.729, 16068.00
1295.797, 16190.00
1296.866, 16021.00
1297.934, 16114.00
1299.001, 16202.00
1300.069, 15977.00
1301.137, 16126.00
1302.204, 15966.00
1303.271, 15980.00
1304.338, 16210.00
1305.405, 16117.00
1306.472, 16156.00
1307.539, 16038.00
1308.605, 16054.00
1309.671, 16163.00
1310.737, 16286.00
1311.803, 16182.00
1312.869, 16295.00
1313.935, 16319.00
1315.000, 16246.00
1316.066, 16430.00
1317.131, 16379.00
1318.196, 16278.00
1319.261, 16200.00
1320.326, 16252.00
1321.390, 16308.00
1322.455, 16140.00
1323.519, 16429.00
1324.583, 16291.00
1325.647, 16253.00
1326.711, 16297.00
1327.775, 16226.00
1328.838, 16284.00
1329.902, 16174.00
1330.965, 16235.00
1332.028, 16204.00
1333.091, 16353.00
1334.153, 16254.00
1335.216, 16236.00
1336.279, 16133.00
1337.341, 16347.00
1338.403, 16173.00
1339.465, 16179.00
1340.527, 16261.00
1341.588, 16124.00
1342.650, 16183.00
1343.711, 16224.00
1344.772, 16283.00
1345.834, 16223.00
1346.894, 16322.00
1347.955, 16424.00
1349.016, 16403.00
1350.076, 16342.00
1351.136, 16306.00
1352.197, 16361.00
1353.257, 16349.00
1354.316, 16448.00
1355.376, 16320.00
1356.436, 16386.00
1357.495, 16400.00
1358.554, 16319.00
1359.613, 16456.00
1360.672, 16432.00
1361.731, 16314.00
1362.789, 16249.00
1363.848, 16347.00
1364.906, 16240.00
1365.964, 16448.00
1367.022, 16460.00
1368.080, 16403.00
1369.138, 16353.00
1370.195, 16409.00
1371.253, 16264.00
1372.310, 16465.00
1373.367, 16409.00
1374.424, 16529.00
1375.480, 16356.00
1376.537, 16427.00
1377.593, 16391.00
1378.650, 16386.00
1379.706, 16415.00
1380.762, 16423.00
1381.818, 16513.00
1382.873, 16444.00
1383.929, 16609.00
1384.984, 16432.00
1386.039, 16595.00
1387.094, 16432.00
1388.149, 16702.00
1389.204, 16338.00
1390.259, 16423.00
1391.313, 16422.00
1392.367, 16562.00
1393.422, 16509.00
1394.476, 16452.00
1395.529, 16684.00
1396.583, 16556.00
1397.637, 16602.00
1398.690, 16606.00
1399.743, 16445.00
1400.796, 16573.00
1401.849, 16388.00
1402.902, 16527.00
1403.954, 16706.00
1405.007, 16611.00
1406.059, 16646.00
1407.111, 16434.00
1408.163, 16656.00
1409.215, 16389.00
1410.267, 16726.00
1411.318, 16626.00
1412.370, 16632.00
1413.421, 16486.00
1414.472, 16498.00
1415.523, 16661.00
1416.574, 16628.00
1417.624, 16633.00
1418.675, 16560.00
1419.725, 16623.00
1420.775, 16574.00
1421.825, 16734.00
1422.875, 16660.00
1423.925, 16687.00
1424.974, 16817.00
1426.024, 16858.00
1427.073, 16774.00
1428.122, 16854.99
1429.171, 16841.56
1430.220, 16861.00
1431.268, 16889.00
1432.317, 16863.00
1433.365, 16921.00
1434.413, 16947.00
1435.461, 16956.66
1436.509, 16996.46
1437.557, 16999.00
1438.605, 17037.00
1439.652, 17066.00
1440.699, 17067.00
1441.746, 17129.00
1442.793, 17081.00
1443.840, 17059.00
1444.887, 17095.73
1445.933, 17077.17
1446.980, 17168.00
1448.026, 17088.00
1449.072, 17183.00
1450.118, 17166.00
1451.163, 17125.00
1452.209, 17217.00
1453.254, 17167.10
1454.300, 17132.00
1455.345, 17164.00
1456.390, 17180.00
1457.435, 17216.00
1458.479, 17265.83
1459.524, 17262.00
1460.568, 17279.00
1461.612, 17286.00
1462.656, 17076.00
1463.700, 17148.00
1464.744, 17094.00
1465.788, 17298.00
1466.831, 17056.00
1467.874, 16962.00
1468.918, 17105.00
1469.961, 17089.00
1471.003, 17027.00
1472.046, 17218.00
1473.089, 17074.00
1474.131, 17092.00
1475.173, 16959.00
1476.215, 17031.00
1477.257, 17103.00
1478.299, 17137.00
1479.341, 16834.00
1480.382, 17050.00
1481.424, 17074.00
1482.465, 17056.00
1483.506, 17211.00
1484.547, 17143.00
1485.587, 16988.00
1486.628, 16923.00
1487.668, 16895.00
1488.709, 17077.00
1489.749, 17174.00
1490.789, 17121.00
1491.828, 17155.47
1492.868, 17135.00
1493.908, 17068.00
1494.947, 16996.00
1495.986, 17009.00
1497.025, 17022.00
1498.064, 17100.00
1499.103, 17095.85
1500.141, 17146.00
1501.180, 17093.00
1502.218, 17081.00
1503.256, 16995.00
1504.294, 17096.00
1505.332, 17152.00
1506.370, 17154.00
1507.407, 16938.00
1508.445, 17133.00
1509.482, 17013.00
1510.519, 17222.00
1511.556, 17268.00
1512.593, 17052.00
1513.629, 17054.00
1514.666, 17138.00
1515.702, 17041.45
1516.738, 17203.00
1517.774, 17071.00
1518.810, 17091.00
1519.846, 17197.00
1520.882, 17031.00
1521.917, 17382.00
1522.952, 17245.00
1523.987, 17125.00
1525.022, 17295.00
1526.057, 17193.00
1527.092, 17179.00
1528.126, 17433.00
1529.161, 17339.00
1530.195, 17236.00
1531.229, 17270.00
1532.263, 17283.00
1533.297, 17292.00
1534.330, 17177.00
1535.364, 17266.00
1536.397, 17395.00
1537.430, 17284.00
1538.463, 17268.00
1539.496, 17203.00
1540.529, 17242.00
1541.561, 17231.00
1542.594, 17428.00
1543.626, 17258.00
1544.658, 17480.00
1545.690, 17282.00
1546.722, 17335.00
1547.753, 17270.00
1548.785, 17364.00
1549.816, 17331.23
1550.847, 17289.00
1551.878, 17386.00
1552.909, 17389.00
1553.940, 17574.00
1554.971, 17421.00
1556.001, 17294.00
1557.031, 17342.00
1558.062, 17504.00
1559.092, 17373.00
1560.121, 17344.00
1561.151, 17643.00
1562.181, 18679.00
##END=



