##NAMES=Erionite-Ca
##RRUFFID=R060836
##IDEAL CHEMISTRY=Ca_5_(Si_26_Al_10_O_72_)&#183;30H_2_O
##LOCALITY=Moeraki, Otago, South Island, New Zealand
##OWNER=RRUFF
##SOURCE=Michael Scott
##DESCRIPTION=Radiating group of colorless acicular hexagonal prisms
##STATUS=The identification of this mineral is confirmed by single-crystal X-ray diffraction and chemical analysis.
##URL=rruff.info/R060836
##MEASURED CHEMISTRY=(Ca_2.08_K_1.21_Na_0.94_Mg_0.77_Fe^3+^_0.41_Cr_0.10_)_Σ=5.51_(Si_26.62_Al_9.38_)O_72_·23.41H_2_O; H_2_O estimated by difference
##PIN_ID=M00444
##ORIENTATION=Laser parallel to c* (0 0 1). Fiducial mark perpendicular to laser is parallel to a [1 0 0]
227.1120, 27108.00
228.3300, 27132.00
229.5480, 27111.00
230.7650, 27075.00
231.9820, 27058.00
233.1990, 27137.00
234.4160, 26935.00
235.6330, 26847.00
236.8490, 27034.00
238.0660, 26894.00
239.2820, 26804.00
240.4980, 26972.00
241.7140, 26939.00
242.9300, 26863.00
244.1460, 26894.00
245.3610, 26921.00
246.5770, 26849.00
247.7920, 26946.00
249.0070, 27018.00
250.2220, 27099.00
251.4370, 27177.71
252.6510, 27176.00
253.8660, 27345.00
255.0800, 27283.00
256.2940, 27394.00
257.5080, 27572.00
258.7220, 28098.00
259.9360, 27925.30
261.1490, 28533.00
262.3630, 27816.00
263.5760, 27752.00
264.7890, 27746.00
266.0020, 27747.00
267.2150, 27860.00
268.4270, 27952.00
269.6400, 27889.00
270.8520, 27742.00
272.0640, 27863.00
273.2760, 27795.00
274.4880, 27852.00
275.7000, 27672.00
276.9120, 27697.00
278.1230, 27638.00
279.3340, 27575.00
280.5450, 27461.00
281.7560, 27514.00
282.9670, 27482.00
284.1780, 27401.00
285.3880, 27428.00
286.5980, 27459.00
287.8090, 27371.00
289.0190, 27454.00
290.2290, 27333.00
291.4380, 27419.00
292.6480, 27501.00
293.8570, 27511.00
295.0670, 27740.00
296.2760, 27822.00
297.4850, 27990.00
298.6930, 28024.00
299.9020, 28317.00
301.1110, 28390.00
302.3190, 28590.00
303.5270, 28986.00
304.7350, 29066.00
305.9430, 29444.00
307.1510, 29605.00
308.3580, 30063.00
309.5660, 30234.00
310.7730, 30557.00
311.9800, 30861.00
313.1870, 30943.00
314.3940, 31182.00
315.6010, 31559.00
316.8070, 31551.00
318.0130, 31698.00
319.2200, 31701.00
320.4260, 31943.00
321.6310, 31888.00
322.8370, 31722.00
324.0430, 31655.00
325.2480, 31419.00
326.4540, 31309.00
327.6590, 31359.00
328.8640, 31109.00
330.0680, 31002.75
331.2730, 30875.00
332.4780, 30619.00
333.6820, 30541.00
334.8860, 30323.00
336.0900, 30191.00
337.2940, 30052.00
338.4980, 29981.00
339.7010, 29850.00
340.9050, 29780.00
342.1080, 29754.00
343.3110, 29734.00
344.5140, 29631.00
345.7170, 29671.00
346.9200, 29666.00
348.1220, 29488.00
349.3240, 29655.00
350.5270, 29657.00
351.7290, 29603.00
352.9310, 29544.00
354.1320, 29559.00
355.3340, 29342.00
356.5350, 29287.00
357.7370, 29208.00
358.9380, 28931.00
360.1390, 28962.00
361.3400, 28746.00
362.5400, 28542.00
363.7410, 28447.00
364.9410, 28322.00
366.1410, 28242.00
367.3410, 28099.00
368.5410, 28048.00
369.7410, 27911.98
370.9400, 27810.66
372.1400, 27664.00
373.3390, 27556.00
374.5380, 27425.00
375.7370, 27215.00
376.9360, 27297.00
378.1350, 27223.00
379.3330, 27073.00
380.5310, 27076.00
381.7300, 26957.00
382.9280, 26916.00
384.1260, 26854.00
385.3230, 26817.00
386.5210, 26838.00
387.7180, 26942.00
388.9160, 26739.00
390.1130, 26668.00
391.3100, 26928.00
392.5060, 26819.00
393.7030, 26816.00
394.9000, 26730.00
396.0960, 26811.00
397.2920, 26794.00
398.4880, 26835.00
399.6840, 26856.00
400.8800, 26855.00
402.0750, 26942.00
403.2710, 26980.00
404.4660, 27081.00
405.6610, 27154.00
406.8560, 27334.00
408.0510, 27478.00
409.2450, 27548.00
410.4400, 27678.00
411.6340, 28042.00
412.8280, 28190.00
414.0220, 28498.00
415.2160, 28730.00
416.4100, 29073.68
417.6030, 29452.00
418.7970, 29842.00
419.9900, 30249.00
421.1830, 30682.00
422.3760, 31183.00
423.5690, 31449.00
424.7610, 31942.00
425.9540, 32357.00
427.1460, 32616.00
428.3380, 32895.00
429.5300, 33056.00
430.7220, 33127.00
431.9140, 33149.00
433.1050, 32996.00
434.2970, 32907.00
435.4880, 32722.00
436.6790, 32656.00
437.8700, 32620.00
439.0610, 32512.00
440.2510, 32549.00
441.4420, 32626.00
442.6320, 32870.00
443.8220, 33157.00
445.0120, 33421.00
446.2020, 33723.00
447.3910, 34242.00
448.5810, 34579.00
449.7700, 35100.00
450.9600, 35762.00
452.1490, 36440.00
453.3370, 37217.00
454.5260, 37828.00
455.7150, 38727.00
456.9030, 39502.00
458.0910, 40329.00
459.2800, 41019.00
460.4670, 41787.00
461.6550, 42678.00
462.8430, 43177.00
464.0300, 43889.00
465.2180, 44476.00
466.4050, 44967.00
467.5920, 45356.00
468.7790, 45909.00
469.9650, 46380.00
471.1520, 46865.00
472.3380, 47386.00
473.5250, 48287.00
474.7110, 48916.00
475.8970, 49526.00
477.0820, 50507.00
478.2680, 51156.00
479.4540, 52322.00
480.6390, 53145.00
481.8240, 54198.00
483.0090, 54663.00
484.1940, 55096.00
485.3780, 55447.00
486.5630, 55322.00
487.7470, 54965.00
488.9320, 54194.00
490.1160, 53451.00
491.3000, 52462.00
492.4830, 51069.00
493.6670, 49618.00
494.8500, 48215.00
496.0340, 46422.00
497.2170, 44817.00
498.4000, 43239.00
499.5820, 41769.00
500.7650, 40279.00
501.9480, 39053.00
503.1300, 37758.00
504.3120, 36668.00
505.4940, 35590.00
506.6760, 34616.00
507.8580, 33788.00
509.0390, 33059.00
510.2210, 32358.67
511.4020, 31766.00
512.5830, 31257.00
513.7640, 30814.00
514.9450, 30388.67
516.1250, 29949.00
517.3060, 29699.00
518.4860, 29450.00
519.6660, 29190.00
520.8460, 28931.00
522.0260, 28811.54
523.2060, 28670.00
524.3850, 28570.00
525.5650, 28483.00
526.7440, 28399.47
527.9230, 28332.00
529.1020, 28260.00
530.2810, 28204.00
531.4590, 28105.00
532.6380, 27993.00
533.8160, 28042.00
534.9940, 27958.00
536.1720, 28134.00
537.3500, 28180.00
538.5270, 28183.00
539.7050, 28137.00
540.8820, 28246.00
542.0590, 28260.00
543.2360, 28268.00
544.4130, 28355.00
545.5900, 28412.00
546.7660, 28457.00
547.9430, 28633.00
549.1190, 28777.00
550.2950, 29045.00
551.4710, 29135.00
552.6470, 29430.00
553.8220, 29632.00
554.9980, 29971.00
556.1730, 30226.00
557.3480, 30480.10
558.5230, 30757.99
559.6980, 31014.00
560.8730, 31266.00
562.0470, 31571.00
563.2220, 31836.00
564.3960, 32064.00
565.5700, 32035.00
566.7440, 31870.00
567.9170, 31766.00
569.0910, 31585.00
570.2640, 31415.00
571.4380, 31117.00
572.6110, 30749.00
573.7840, 30530.00
574.9570, 30292.00
576.1290, 30011.00
577.3020, 29726.00
578.4740, 29572.00
579.6460, 29419.00
580.8180, 29352.00
581.9900, 29139.00
583.1620, 29172.00
584.3330, 29049.00
585.5040, 29089.00
586.6760, 29073.00
587.8470, 29024.00
589.0180, 28940.00
590.1880, 29011.00
591.3590, 29058.22
592.5290, 29215.00
593.7000, 29189.00
594.8700, 29200.00
596.0400, 29068.00
597.2090, 29086.00
598.3790, 29126.00
599.5490, 29095.00
600.7180, 29236.00
601.8870, 29085.00
603.0560, 29047.00
604.2250, 29146.00
605.3940, 29068.00
606.5620, 29046.00
607.7300, 29135.00
608.8990, 29000.00
610.0670, 28874.00
611.2350, 28956.00
612.4020, 28805.00
613.5700, 28793.00
614.7370, 28815.00
615.9050, 28729.00
617.0720, 28725.00
618.2390, 28865.00
619.4060, 28930.00
620.5720, 29381.00
621.7390, 28963.00
622.9050, 28907.00
624.0710, 29137.00
625.2370, 28777.00
626.4030, 28756.00
627.5690, 28867.00
628.7340, 28740.00
629.9000, 28686.00
631.0650, 28639.00
632.2300, 28581.00
633.3950, 28623.00
634.5600, 28586.00
635.7240, 28580.00
636.8890, 28605.00
638.0530, 28579.00
639.2170, 28607.00
640.3810, 28634.75
641.5450, 28650.00
642.7080, 28681.00
643.8720, 28762.00
645.0350, 28727.00
646.1980, 28815.00
647.3610, 28844.47
648.5240, 28938.00
649.6870, 28894.00
650.8490, 28864.00
652.0120, 28798.00
653.1740, 28709.00
654.3360, 28763.00
655.4980, 28612.00
656.6600, 28731.00
657.8210, 28517.00
658.9830, 28647.00
660.1440, 28580.00
661.3050, 28500.00
662.4660, 28453.00
663.6270, 28368.00
664.7870, 28311.00
665.9480, 28380.00
667.1080, 28392.00
668.2680, 28267.00
669.4280, 28369.00
670.5880, 28110.00
671.7480, 28272.00
672.9070, 28257.00
674.0670, 28142.00
675.2260, 28385.00
676.3850, 28394.00
677.5440, 28186.00
678.7030, 28142.00
679.8610, 28028.00
681.0200, 28090.00
682.1780, 28172.00
683.3360, 28139.00
684.4940, 28158.00
685.6520, 28183.00
686.8090, 28115.00
687.9670, 28104.00
689.1240, 28086.00
690.2810, 28171.00
691.4380, 28039.00
692.5950, 28187.00
693.7520, 28207.00
694.9080, 28137.00
696.0650, 28148.00
697.2210, 28143.00
698.3770, 28155.70
699.5330, 28365.00
700.6880, 28182.00
701.8440, 28360.00
702.9990, 28296.00
704.1550, 28349.00
705.3100, 28439.00
706.4650, 28132.00
707.6190, 28328.00
708.7740, 28281.00
709.9290, 28266.00
711.0830, 28399.00
712.2370, 28318.00
713.3910, 28402.00
714.5450, 28389.00
715.6980, 28265.00
716.8520, 28399.00
718.0050, 28358.00
719.1580, 28340.00
720.3110, 28435.00
721.4640, 28501.00
722.6170, 28493.00
723.7700, 28549.00
724.9220, 28607.00
726.0740, 28581.00
727.2260, 28603.00
728.3780, 28725.00
729.5300, 28746.00
730.6810, 28794.00
731.8330, 28706.00
732.9840, 28804.00
734.1350, 28619.00
735.2860, 28655.00
736.4370, 28887.00
737.5880, 28791.00
738.7380, 28694.00
739.8880, 28658.00
741.0390, 28733.00
742.1890, 28768.00
743.3380, 28812.00
744.4880, 28859.00
745.6380, 28918.00
746.7870, 28951.61
747.9360, 28912.00
749.0850, 29037.00
750.2340, 28997.00
751.3830, 29056.00
752.5310, 29168.00
753.6800, 29077.00
754.8280, 29184.00
755.9760, 29167.00
757.1240, 29249.00
758.2720, 29254.00
759.4190, 29385.00
760.5670, 29401.00
761.7140, 29458.00
762.8610, 29446.00
764.0080, 29583.00
765.1550, 29623.00
766.3020, 29710.00
767.4480, 29751.00
768.5950, 29749.00
769.7410, 29872.00
770.8870, 29817.00
772.0330, 29986.00
773.1780, 30038.00
774.3240, 30152.00
775.4690, 30167.00
776.6140, 30160.00
777.7590, 30254.00
778.9040, 30301.00
780.0490, 30418.00
781.1940, 30389.00
782.3380, 30507.00
783.4820, 30441.00
784.6260, 30436.00
785.7700, 30439.00
786.9140, 30515.00
788.0580, 30502.00
789.2010, 30504.00
790.3450, 30420.00
791.4880, 30528.00
792.6310, 30505.00
793.7730, 30415.00
794.9160, 30363.30
796.0590, 30582.55
797.2010, 30736.02
798.3430, 30827.29
799.4850, 30670.09
800.6270, 30833.74
801.7690, 30868.81
802.9100, 30898.54
804.0520, 30948.00
805.1930, 30996.00
806.3340, 31083.00
807.4750, 31127.00
808.6160, 31287.00
809.7560, 31057.00
810.8970, 31245.00
812.0370, 31030.00
813.1770, 31065.00
814.3170, 30855.00
815.4570, 30903.00
816.5960, 30593.00
817.7360, 30560.00
818.8750, 30526.00
820.0140, 30500.00
821.1530, 30433.00
822.2920, 30366.00
823.4310, 30330.00
824.5690, 30296.00
825.7070, 30287.00
826.8460, 30357.00
827.9840, 30258.00
829.1220, 30306.00
830.2590, 30294.00
831.3970, 30235.00
832.5340, 30287.00
833.6710, 30412.00
834.8080, 30421.00
835.9450, 30433.00
837.0820, 30470.00
838.2190, 30547.00
839.3550, 30741.00
840.4910, 30662.00
841.6270, 31150.00
842.7630, 31192.16
843.8990, 31241.00
845.0350, 31626.00
846.1700, 31888.00
847.3060, 32286.00
848.4410, 32545.00
849.5760, 32906.00
850.7100, 33251.00
851.8450, 33538.00
852.9800, 33717.00
854.1140, 34052.00
855.2480, 34231.00
856.3820, 34221.00
857.5160, 34201.00
858.6500, 34067.00
859.7830, 33868.00
860.9170, 33665.69
862.0500, 33433.59
863.1830, 33125.00
864.3160, 32911.00
865.4480, 32657.00
866.5810, 32387.00
867.7130, 32186.00
868.8460, 32121.00
869.9780, 31791.00
871.1100, 31690.00
872.2410, 31800.00
873.3730, 31504.00
874.5050, 31512.00
875.6360, 31422.00
876.7670, 31343.00
877.8980, 31363.00
879.0290, 31237.00
880.1590, 31170.00
881.2900, 31077.00
882.4200, 31087.00
883.5500, 31023.49
884.6800, 30985.66
885.8100, 30963.00
886.9400, 30944.00
888.0690, 30915.00
889.1990, 30963.00
890.3280, 30988.00
891.4570, 30885.00
892.5860, 30968.00
893.7140, 30938.23
894.8430, 30991.00
895.9710, 30977.00
897.1000, 30993.00
898.2280, 31072.00
899.3560, 31146.00
900.4830, 31156.76
901.6110, 31149.00
902.7380, 31177.00
903.8660, 31171.03
904.9930, 31195.00
906.1200, 31177.00
907.2460, 31225.00
908.3730, 31239.00
909.5000, 31385.00
910.6260, 31192.00
911.7520, 31368.00
912.8780, 31346.00
914.0040, 31264.00
915.1290, 31311.00
916.2550, 31317.00
917.3800, 31228.00
918.5050, 31345.00
919.6300, 31281.00
920.7550, 31317.00
921.8800, 31353.00
923.0040, 31375.00
924.1290, 31468.00
925.2530, 31312.00
926.3770, 31504.00
927.5010, 31463.00
928.6250, 31481.00
929.7480, 31704.00
930.8720, 31593.00
931.9950, 31673.00
933.1180, 31516.00
934.2410, 31710.00
935.3640, 31635.00
936.4860, 31651.00
937.6090, 31920.00
938.7310, 31677.00
939.8530, 32081.00
940.9750, 31722.00
942.0970, 31852.00
943.2180, 32027.00
944.3400, 32468.00
945.4610, 32051.00
946.5820, 31949.00
947.7030, 32045.00
948.8240, 32010.00
949.9450, 32159.00
951.0650, 32193.73
952.1860, 32269.00
953.3060, 32397.00
954.4260, 32338.00
955.5460, 32573.00
956.6650, 32642.00
957.7850, 32609.00
958.9040, 32783.00
960.0230, 32676.00
961.1420, 32691.00
962.2610, 32860.00
963.3800, 32852.00
964.4990, 33008.00
965.6170, 33052.00
966.7350, 33009.00
967.8530, 33054.00
968.9710, 33116.91
970.0890, 33095.00
971.2070, 33241.00
972.3240, 33243.00
973.4410, 33222.00
974.5580, 33296.00
975.6750, 33353.68
976.7920, 33427.03
977.9090, 33583.00
979.0250, 33569.00
980.1410, 33758.00
981.2580, 33717.00
982.3740, 33818.00
983.4890, 33841.00
984.6050, 34034.00
985.7200, 34092.00
986.8360, 34075.00
987.9510, 34161.00
989.0660, 34199.93
990.1810, 34298.00
991.2950, 34347.00
992.4100, 34499.00
993.5240, 34642.00
994.6390, 34673.00
995.7530, 34801.00
996.8660, 35003.00
997.9800, 34941.00
999.0940, 35214.00
1000.207, 35378.00
1001.320, 35331.00
1002.433, 35624.00
1003.546, 35584.00
1004.659, 35646.00
1005.772, 35702.00
1006.884, 35555.00
1007.996, 35681.00
1009.108, 35519.00
1010.220, 35493.00
1011.332, 35671.00
1012.444, 35766.93
1013.555, 35951.00
1014.666, 36069.35
1015.777, 36125.50
1016.888, 35933.18
1017.999, 36061.71
1019.110, 36061.66
1020.220, 36056.31
1021.331, 36230.00
1022.441, 35928.00
1023.551, 36016.00
1024.661, 36165.00
1025.770, 36057.00
1026.880, 36123.00
1027.989, 36208.00
1029.098, 36064.00
1030.207, 36215.00
1031.316, 36224.00
1032.425, 36340.00
1033.533, 36238.00
1034.642, 36326.00
1035.750, 36380.00
1036.858, 36292.00
1037.966, 36331.00
1039.073, 36229.00
1040.181, 36239.00
1041.288, 36197.00
1042.396, 36319.00
1043.503, 36283.00
1044.610, 36358.00
1045.716, 36115.00
1046.823, 36149.00
1047.929, 36236.00
1049.036, 36236.00
1050.142, 36351.00
1051.248, 36215.00
1052.353, 36192.00
1053.459, 36274.00
1054.564, 36042.00
1055.670, 35996.00
1056.775, 36040.00
1057.880, 36142.00
1058.985, 36032.00
1060.089, 36092.00
1061.194, 36195.00
1062.298, 36230.00
1063.402, 36236.00
1064.506, 36268.00
1065.610, 36287.00
1066.713, 36315.00
1067.817, 36357.00
1068.920, 36285.00
1070.023, 36517.00
1071.126, 36551.00
1072.229, 36482.00
1073.332, 36615.00
1074.435, 36657.00
1075.537, 36679.00
1076.639, 36886.00
1077.741, 36938.00
1078.843, 36924.00
1079.945, 37106.00
1081.046, 37117.00
1082.148, 37388.00
1083.249, 37450.00
1084.350, 37676.00
1085.451, 37591.00
1086.551, 37723.00
1087.652, 37845.00
1088.752, 37950.00
1089.853, 38060.00
1090.953, 38119.00
1092.053, 38391.00
1093.152, 38533.00
1094.252, 38734.00
1095.351, 38844.99
1096.451, 38837.00
1097.550, 39015.00
1098.649, 39106.00
1099.748, 39189.00
1100.846, 39374.00
1101.945, 39399.00
1103.043, 39665.00
1104.141, 39535.00
1105.239, 39774.00
1106.337, 39866.00
1107.434, 39989.00
1108.532, 40088.00
1109.629, 40281.00
1110.726, 40454.00
1111.823, 40436.00
1112.920, 40417.00
1114.017, 40379.00
1115.113, 40223.00
1116.210, 40376.00
1117.306, 40188.00
1118.402, 40260.00
1119.498, 40138.00
1120.593, 40063.00
1121.689, 40030.00
1122.784, 39987.00
1123.879, 39902.00
1124.974, 39700.00
1126.069, 39524.00
1127.164, 39443.00
1128.259, 39265.00
1129.353, 39298.00
1130.447, 39146.00
1131.541, 39139.00
1132.635, 39119.00
1133.729, 39164.00
1134.822, 39126.00
1135.916, 38947.00
1137.009, 39011.00
1138.102, 39065.00
1139.195, 39180.00
1140.288, 39262.00
1141.380, 39172.00
1142.473, 39294.00
1143.565, 39145.00
1144.657, 39137.00
1145.749, 39333.00
1146.841, 39000.00
1147.932, 39317.00
1149.024, 39307.00
1150.115, 39242.00
1151.206, 39249.00
1152.297, 39494.00
1153.388, 39341.00
1154.479, 39460.00
1155.569, 39269.00
1156.659, 39373.00
1157.750, 39253.00
1158.839, 39341.00
1159.929, 39268.00
1161.019, 39328.00
1162.108, 39284.00
1163.198, 39210.00
1164.287, 39161.00
1165.376, 39118.30
1166.465, 39081.00
1167.553, 39034.00
1168.642, 38990.00
1169.730, 38936.00
1170.818, 38863.00
1171.906, 38820.00
1172.994, 38789.00
1174.082, 38758.00
1175.170, 38744.00
1176.257, 38586.00
1177.344, 38479.00
1178.431, 38548.00
1179.518, 38482.00
1180.605, 38627.00
1181.691, 38505.18
1182.778, 38236.00
1183.864, 38299.00
1184.950, 38255.00
1186.036, 38125.00
1187.122, 38066.00
1188.207, 38059.00
1189.292, 37967.00
1190.378, 38036.00
1191.463, 37807.00
1192.548, 38063.00
1193.632, 37726.00
1194.717, 37838.00
1195.801, 37677.00
1196.886, 37728.00
1197.970, 37730.00
1199.054, 37536.00
1200.137, 37689.00
1201.221, 37544.00
1202.305, 37487.00
1203.388, 37583.00
1204.471, 37608.00
1205.554, 37665.00
1206.637, 37622.00
1207.719, 37548.00
1208.802, 37686.00
1209.884, 37455.00
1210.966, 37595.00
1212.048, 37459.00
1213.130, 37592.00
1214.212, 37454.00
1215.293, 37575.00
1216.374, 37511.00
1217.456, 37505.00
1218.536, 37557.00
1219.617, 37544.00
1220.698, 37623.00
1221.778, 37610.93
1222.859, 37559.00
1223.939, 37636.00
1225.019, 37680.00
1226.099, 37748.00
1227.178, 37758.00
1228.258, 37780.00
1229.337, 37822.20
1230.417, 37898.00
1231.496, 37836.00
1232.574, 37927.00
1233.653, 37834.00
1234.732, 37836.00
1235.810, 37888.00
1236.888, 38113.00
1237.966, 38170.00
1239.044, 38091.00
1240.122, 38233.00
1241.199, 38182.00
1242.277, 38338.00
1243.354, 38200.00
1244.431, 38186.00
1245.508, 38406.00
1246.585, 38213.00
1247.661, 38396.00
1248.738, 38395.00
1249.814, 38453.00
1250.890, 38361.00
1251.966, 38428.00
1253.042, 38355.00
1254.117, 38326.00
1255.193, 38273.00
1256.268, 38627.00
1257.343, 38644.00
1258.418, 38453.00
1259.493, 38918.00
1260.567, 38560.00
1261.642, 38825.00
1262.716, 38810.00
1263.790, 38898.00
1264.864, 38915.00
1265.938, 38898.83
1267.011, 38866.00
1268.085, 38859.00
1269.158, 38957.00
1270.231, 38953.00
1271.304, 39046.00
1272.377, 39178.00
1273.450, 39147.00
1274.522, 39150.00
1275.594, 39291.00
1276.666, 39050.00
1277.738, 39015.00
1278.810, 39191.00
1279.882, 39107.00
1280.953, 39023.00
1282.025, 38960.00
1283.096, 38850.00
1284.167, 39041.00
1285.238, 39114.00
1286.308, 39020.00
1287.379, 39017.00
1288.449, 39148.00
1289.519, 39037.00
1290.589, 38975.00
1291.659, 39014.00
1292.729, 39130.00
1293.798, 38983.00
1294.868, 39185.00
1295.937, 39171.00
1297.006, 39073.00
1298.075, 39139.00
1299.143, 39158.00
1300.212, 39179.54
1301.280, 39081.00
1302.348, 39267.00
1303.416, 39354.00
1304.484, 39360.00
1305.552, 39171.00
1306.620, 39300.00
1307.687, 39390.00
1308.754, 39550.00
1309.821, 39374.00
1310.888, 39513.00
1311.955, 39615.00
1313.021, 39418.00
1314.088, 39588.00
1315.154, 39617.00
1316.220, 39615.00
1317.286, 39834.00
1318.352, 39782.00
1319.417, 39731.00
1320.483, 39699.00
1321.548, 39738.00
1322.613, 39730.00
1323.678, 39777.00
1324.743, 39609.00
1325.807, 39488.00
1326.872, 39692.00
1327.936, 39958.00
1329.000, 39767.00
1330.064, 39692.00
1331.128, 39727.00
1332.191, 39626.00
1333.255, 39699.00
1334.318, 39703.00
1335.381, 39626.00
1336.444, 39668.39
1337.507, 39660.48
1338.569, 39668.00
1339.632, 39705.00
1340.694, 39732.00
1341.756, 39773.00
1342.818, 39797.00
1343.880, 39823.00
1344.941, 39939.00
1346.003, 39930.00
1347.064, 39898.00
1348.125, 39795.00
1349.186, 40063.00
1350.247, 39853.00
1351.308, 40087.00
1352.368, 39909.00
1353.428, 39994.00
1354.489, 39956.00
1355.549, 40150.00
1356.608, 40169.00
1357.668, 40203.00
1358.727, 40196.00
1359.787, 40228.00
1360.846, 40231.00
1361.905, 40139.00
1362.964, 40225.00
1364.022, 40317.00
1365.081, 40207.00
1366.139, 40217.00
1367.197, 40374.00
1368.255, 40268.00
1369.313, 40450.00
1370.371, 40380.00
1371.428, 40463.00
1372.486, 40376.00
1373.543, 40326.00
1374.600, 40520.00
1375.657, 40333.00
1376.713, 40514.00
1377.770, 40604.00
1378.826, 40565.00
1379.882, 40706.00
1380.938, 40559.00
1381.994, 40616.00
1383.050, 40649.00
1384.106, 40602.00
1385.161, 40670.00
1386.216, 40762.00
1387.271, 40706.00
1388.326, 40665.00
1389.381, 40927.00
1390.435, 40857.00
1391.490, 41036.00
1392.544, 40858.00
1393.598, 41029.00
1394.652, 40949.00
1395.705, 41213.00
1396.759, 40997.00
1397.812, 41044.00
1398.866, 41050.00
1399.919, 41020.00
1400.972, 41147.00
1402.024, 41236.00
1403.077, 41096.00
1404.129, 41003.00
1405.181, 40954.00
1406.233, 40970.92
1407.285, 41054.00
1408.337, 41092.00
1409.389, 41133.00
1410.440, 41182.00
1411.491, 41226.00
1412.542, 41255.00
1413.593, 41186.00
1414.644, 41334.00
1415.695, 41416.00
1416.745, 41154.00
1417.795, 41408.00
1418.845, 41424.00
1419.895, 41480.00
1420.945, 41563.00
1421.995, 41640.00
1423.044, 41746.42
1424.093, 41876.00
1425.142, 41989.00
1426.191, 42125.12
1427.240, 42270.00
1428.289, 42383.00
1429.337, 42403.00
1430.385, 42505.00
1431.433, 42702.00
1432.481, 42860.00
1433.529, 43055.00
1434.577, 43239.00
1435.624, 43458.00
1436.672, 43703.46
1437.719, 43954.00
1438.766, 44227.00
1439.812, 44401.00
1440.859, 44652.00
1441.905, 44763.00
1442.952, 44976.00
1443.998, 45111.00
1445.044, 45266.00
1446.090, 45284.00
1447.135, 45426.00
1448.181, 45451.02
1449.226, 45508.00
1450.271, 45524.00
1451.316, 45494.00
1452.361, 45490.56
1453.405, 45447.00
1454.450, 45394.00
1455.494, 45318.00
1456.538, 45216.20
1457.582, 45159.00
1458.626, 45027.00
1459.670, 44932.00
1460.713, 44831.00
1461.757, 44478.00
1462.800, 44373.00
1463.843, 44084.00
1464.886, 43913.00
1465.928, 44094.00
1466.971, 43717.00
1468.013, 43692.00
1469.055, 43667.00
1470.097, 43541.23
1471.139, 43520.58
1472.181, 43459.00
1473.222, 43409.00
1474.263, 43280.00
1475.305, 43225.00
1476.346, 43100.00
1477.386, 43075.43
1478.427, 43165.00
1479.468, 42972.00
1480.508, 43072.00
1481.548, 42903.00
1482.588, 42877.00
1483.628, 42965.00
1484.668, 42904.00
1485.707, 42793.00
1486.747, 42919.00
1487.786, 42861.00
1488.825, 42754.00
1489.864, 42884.00
1490.902, 42789.00
1491.941, 42642.00
1492.979, 42782.00
1494.017, 42565.00
1495.055, 42651.00
1496.093, 42579.00
1497.131, 42685.00
1498.168, 42662.00
1499.206, 42799.00
1500.243, 42879.00
1501.280, 42851.00
1502.317, 42794.00
1503.354, 42707.00
1504.390, 42721.00
1505.426, 42680.00
1506.463, 42822.00
1507.499, 42728.00
1508.535, 42814.00
1509.570, 42774.00
1510.606, 42801.00
1511.641, 42860.00
1512.676, 42963.00
1513.711, 43013.00
1514.746, 42893.00
1515.781, 42981.00
1516.816, 42993.00
1517.850, 43032.00
1518.884, 43057.71
1519.918, 43012.00
1520.952, 43078.00
1521.986, 43082.00
1523.019, 43083.00
1524.053, 43174.00
1525.086, 43162.06
1526.119, 43192.64
1527.152, 43207.00
1528.185, 43233.00
1529.217, 43272.00
1530.250, 43317.00
1531.282, 43493.00
1532.314, 43519.00
1533.346, 43266.00
1534.377, 43275.00
1535.409, 43480.00
1536.440, 43448.00
1537.472, 43557.00
1538.503, 43506.00
1539.534, 43567.00
1540.564, 43611.02
1541.595, 43666.00
1542.625, 43640.00
1543.656, 43633.00
1544.686, 43516.00
1545.716, 43630.00
1546.745, 43682.00
1547.775, 43470.00
1548.804, 43701.00
1549.834, 43640.00
1550.863, 43717.00
1551.892, 43904.00
1552.920, 43718.00
1553.949, 44131.00
1554.977, 44448.00
1556.006, 44169.00
1557.034, 43906.00
1558.062, 43802.00
1559.089, 43878.00
1560.117, 43890.00
1561.144, 43971.00
1562.172, 43965.00
1563.199, 43870.00
1564.226, 44188.00
1565.252, 43873.00
1566.279, 43896.00
1567.305, 44189.00
1568.332, 44042.00
1569.358, 44056.00
1570.384, 44117.00
1571.409, 44402.00
##END=



