##NAMES=Erionite-Ca
##RRUFFID=R060836
##IDEAL CHEMISTRY=Ca_5_(Si_26_Al_10_O_72_)&#183;30H_2_O
##LOCALITY=Moeraki, Otago, South Island, New Zealand
##OWNER=RRUFF
##SOURCE=Michael Scott
##DESCRIPTION=Radiating group of colorless acicular hexagonal prisms
##STATUS=The identification of this mineral is confirmed by single-crystal X-ray diffraction and chemical analysis.
##URL=rruff.info/R060836
##MEASURED CHEMISTRY=(Ca_2.08_K_1.21_Na_0.94_Mg_0.77_Fe^3+^_0.41_Cr_0.10_)_Σ=5.51_(Si_26.62_Al_9.38_)O_72_·23.41H_2_O; H_2_O estimated by difference
##PIN_ID=M00444
##ORIENTATION=Laser parallel to c* (0 0 1). Fiducial mark perpendicular to laser is parallel to a [1 0 0]
230.7650, 28180.00
231.9820, 28285.00
233.1990, 28108.00
234.4160, 28133.00
235.6330, 28007.00
236.8490, 28096.00
238.0660, 28158.00
239.2820, 28172.95
240.4980, 28102.00
241.7140, 28313.00
242.9300, 28098.00
244.1460, 28156.00
245.3610, 28272.00
246.5770, 27893.00
247.7920, 28117.00
249.0070, 28260.00
250.2220, 28283.00
251.4370, 28456.91
252.6510, 28363.00
253.8660, 28593.00
255.0800, 28585.00
256.2940, 28479.00
257.5080, 28842.00
258.7220, 29468.00
259.9360, 29295.53
261.1490, 29354.19
262.3630, 29325.00
263.5760, 28979.00
264.7890, 28969.00
266.0020, 28942.00
267.2150, 29068.00
268.4270, 29113.00
269.6400, 29218.00
270.8520, 28887.00
272.0640, 29005.00
273.2760, 29093.00
274.4880, 29268.00
275.7000, 28929.00
276.9120, 29158.00
278.1230, 28958.00
279.3340, 29063.00
280.5450, 28752.00
281.7560, 28834.00
282.9670, 28923.00
284.1780, 28713.00
285.3880, 28747.00
286.5980, 28910.00
287.8090, 28742.00
289.0190, 28630.00
290.2290, 28535.00
291.4380, 28563.00
292.6480, 28902.00
293.8570, 28849.00
295.0670, 29112.00
296.2760, 29059.00
297.4850, 29316.00
298.6930, 29217.00
299.9020, 29588.00
301.1110, 29698.00
302.3190, 29897.00
303.5270, 30060.00
304.7350, 30101.00
305.9430, 30716.00
307.1510, 30658.00
308.3580, 31243.00
309.5660, 31296.00
310.7730, 31641.00
311.9800, 31744.00
313.1870, 31683.00
314.3940, 32157.00
315.6010, 32432.00
316.8070, 32457.00
318.0130, 32352.00
319.2200, 32388.00
320.4260, 32532.00
321.6310, 32743.00
322.8370, 32516.00
324.0430, 32312.00
325.2480, 32234.00
326.4540, 32017.00
327.6590, 32196.00
328.8640, 31731.00
330.0680, 31381.00
331.2730, 31556.00
332.4780, 31319.00
333.6820, 31209.00
334.8860, 30976.00
336.0900, 30845.73
337.2940, 30670.96
338.4980, 30565.00
339.7010, 30382.00
340.9050, 30219.00
342.1080, 30186.00
343.3110, 30124.00
344.5140, 29747.00
345.7170, 29710.00
346.9200, 29530.00
348.1220, 29447.00
349.3240, 29578.00
350.5270, 29412.00
351.7290, 29316.00
352.9310, 29206.00
354.1320, 29034.00
355.3340, 29088.00
356.5350, 28893.00
357.7370, 28914.00
358.9380, 28712.00
360.1390, 28875.00
361.3400, 28719.00
362.5400, 28316.00
363.7410, 28402.00
364.9410, 28398.00
366.1410, 28204.00
367.3410, 28241.00
368.5410, 28336.00
369.7410, 28291.00
370.9400, 28228.00
372.1400, 28227.00
373.3390, 28251.00
374.5380, 28122.00
375.7370, 28174.00
376.9360, 28144.00
378.1350, 28242.00
379.3330, 28169.20
380.5310, 27980.00
381.7300, 28069.00
382.9280, 28076.00
384.1260, 28066.00
385.3230, 28084.00
386.5210, 28068.59
387.7180, 28086.92
388.9160, 28129.00
390.1130, 28114.00
391.3100, 28196.00
392.5060, 28344.00
393.7030, 28324.00
394.9000, 28436.04
396.0960, 28461.00
397.2920, 28470.00
398.4880, 28456.00
399.6840, 28344.00
400.8800, 28475.00
402.0750, 28579.00
403.2710, 28543.00
404.4660, 28727.00
405.6610, 28620.00
406.8560, 28918.00
408.0510, 28952.00
409.2450, 29179.00
410.4400, 29359.71
411.6340, 29583.00
412.8280, 29715.00
414.0220, 29792.00
415.2160, 29939.00
416.4100, 30221.00
417.6030, 30484.00
418.7970, 30928.00
419.9900, 31190.00
421.1830, 31729.00
422.3760, 32329.00
423.5690, 32364.00
424.7610, 32850.00
425.9540, 33309.00
427.1460, 33561.00
428.3380, 33808.00
429.5300, 33942.00
430.7220, 34009.00
431.9140, 33959.00
433.1050, 33772.00
434.2970, 33656.00
435.4880, 33594.00
436.6790, 33412.00
437.8700, 33553.00
439.0610, 33255.00
440.2510, 33340.00
441.4420, 33470.00
442.6320, 33674.00
443.8220, 33778.00
445.0120, 34127.00
446.2020, 34305.00
447.3910, 34744.00
448.5810, 35153.00
449.7700, 35408.00
450.9600, 36114.00
452.1490, 36464.00
453.3370, 37365.00
454.5260, 37595.00
455.7150, 38513.00
456.9030, 38855.00
458.0910, 39915.00
459.2800, 40509.00
460.4670, 41042.00
461.6550, 41606.00
462.8430, 42088.00
464.0300, 42645.00
465.2180, 43211.00
466.4050, 43837.00
467.5920, 44055.00
468.7790, 44334.00
469.9650, 44733.00
471.1520, 45157.00
472.3380, 45624.00
473.5250, 46195.26
474.7110, 46804.00
475.8970, 47402.00
477.0820, 48133.00
478.2680, 48700.00
479.4540, 49688.00
480.6390, 50458.00
481.8240, 51268.00
483.0090, 51661.00
484.1940, 51933.00
485.3780, 52202.00
486.5630, 52082.00
487.7470, 51798.00
488.9320, 51526.00
490.1160, 50825.00
491.3000, 49918.00
492.4830, 48641.00
493.6670, 47678.00
494.8500, 46415.00
496.0340, 44932.00
497.2170, 43436.00
498.4000, 42068.00
499.5820, 40594.00
500.7650, 39687.00
501.9480, 38439.00
503.1300, 37456.00
504.3120, 36702.00
505.4940, 35519.00
506.6760, 34862.00
507.8580, 34216.00
509.0390, 33532.00
510.2210, 33124.00
511.4020, 32626.00
512.5830, 32418.00
513.7640, 32007.00
514.9450, 31799.00
516.1250, 31484.00
517.3060, 31293.00
518.4860, 31173.00
519.6660, 30837.00
520.8460, 30779.00
522.0260, 30615.00
523.2060, 30620.00
524.3850, 30421.00
525.5650, 30414.00
526.7440, 30197.00
527.9230, 30356.00
529.1020, 30220.00
530.2810, 30095.00
531.4590, 30253.00
532.6380, 29943.00
533.8160, 30130.00
534.9940, 29882.00
536.1720, 30126.00
537.3500, 30136.00
538.5270, 30178.00
539.7050, 30033.00
540.8820, 30242.00
542.0590, 30225.00
543.2360, 30457.00
544.4130, 30144.00
545.5900, 30172.00
546.7660, 30413.00
547.9430, 30517.00
549.1190, 30669.00
550.2950, 30748.00
551.4710, 30956.00
552.6470, 31434.00
553.8220, 31423.00
554.9980, 31891.00
556.1730, 31843.00
557.3480, 32294.00
558.5230, 32677.00
559.6980, 32396.00
560.8730, 33007.00
562.0470, 33215.00
563.2220, 33431.00
564.3960, 33718.00
565.5700, 33861.00
566.7440, 33449.00
567.9170, 33461.00
569.0910, 33189.00
570.2640, 32897.00
571.4380, 32743.00
572.6110, 32280.00
573.7840, 32116.00
574.9570, 32082.00
576.1290, 31624.00
577.3020, 31572.00
578.4740, 31212.00
579.6460, 30921.00
580.8180, 31061.00
581.9900, 30960.00
583.1620, 31002.00
584.3330, 31039.79
585.5040, 30779.00
586.6760, 30936.00
587.8470, 30820.00
589.0180, 30414.00
590.1880, 30528.00
591.3590, 30484.71
592.5290, 30710.00
593.7000, 30651.00
594.8700, 30645.00
596.0400, 30654.00
597.2090, 30606.87
598.3790, 30442.00
599.5490, 30490.00
600.7180, 30485.00
601.8870, 30303.00
603.0560, 30335.00
604.2250, 30272.00
605.3940, 30354.00
606.5620, 30301.00
607.7300, 30414.00
608.8990, 30309.00
610.0670, 30240.00
611.2350, 30176.00
612.4020, 30342.00
613.5700, 30432.00
614.7370, 30316.00
615.9050, 30265.00
617.0720, 30393.00
618.2390, 30607.00
619.4060, 30681.00
620.5720, 30978.91
621.7390, 31222.00
622.9050, 31172.00
624.0710, 31207.43
625.2370, 31134.00
626.4030, 30984.00
627.5690, 31123.00
628.7340, 31058.00
629.9000, 30804.00
631.0650, 30886.00
632.2300, 30784.00
633.3950, 30790.00
634.5600, 30859.00
635.7240, 30533.00
636.8890, 30875.00
638.0530, 30793.00
639.2170, 30703.00
640.3810, 30980.00
641.5450, 30715.00
642.7080, 30853.00
643.8720, 31117.00
645.0350, 30950.00
646.1980, 31133.00
647.3610, 31168.61
648.5240, 31091.10
649.6870, 31252.00
650.8490, 30997.00
652.0120, 30990.00
653.1740, 30952.00
654.3360, 30756.00
655.4980, 30555.00
656.6600, 30686.00
657.8210, 30577.00
658.9830, 30716.00
660.1440, 30626.00
661.3050, 30385.00
662.4660, 30510.00
663.6270, 30323.00
664.7870, 30322.00
665.9480, 30351.00
667.1080, 30154.00
668.2680, 30260.00
669.4280, 30198.00
670.5880, 30194.00
671.7480, 30294.00
672.9070, 30329.00
674.0670, 30127.00
675.2260, 30451.00
676.3850, 30443.00
677.5440, 30117.00
678.7030, 30201.00
679.8610, 30184.00
681.0200, 30020.00
682.1780, 30383.00
683.3360, 30114.00
684.4940, 30109.00
685.6520, 30321.00
686.8090, 29923.00
687.9670, 30203.00
689.1240, 30134.00
690.2810, 30251.00
691.4380, 30080.00
692.5950, 30366.00
693.7520, 30203.00
694.9080, 30321.00
696.0650, 30212.00
697.2210, 30116.00
698.3770, 30451.00
699.5330, 30456.00
700.6880, 30293.00
701.8440, 30502.00
702.9990, 30296.00
704.1550, 30460.00
705.3100, 30649.00
706.4650, 30332.00
707.6190, 30615.00
708.7740, 30398.00
709.9290, 30388.60
711.0830, 30800.00
712.2370, 30405.00
713.3910, 30541.00
714.5450, 30733.00
715.6980, 30555.00
716.8520, 30753.00
718.0050, 30623.00
719.1580, 30704.00
720.3110, 30961.00
721.4640, 30685.00
722.6170, 30746.00
723.7700, 30732.00
724.9220, 30822.00
726.0740, 30798.00
727.2260, 30875.91
728.3780, 30968.00
729.5300, 30926.00
730.6810, 31015.00
731.8330, 30854.00
732.9840, 31104.00
734.1350, 30957.00
735.2860, 30908.00
736.4370, 31393.00
737.5880, 31114.00
738.7380, 30978.00
739.8880, 30743.00
741.0390, 31073.00
742.1890, 31000.00
743.3380, 31126.00
744.4880, 31040.00
745.6380, 31274.00
746.7870, 30941.00
747.9360, 31056.00
749.0850, 31362.00
750.2340, 31115.00
751.3830, 31355.00
752.5310, 31423.00
753.6800, 31264.00
754.8280, 31277.00
755.9760, 31391.00
757.1240, 31397.00
758.2720, 31471.00
759.4190, 31703.00
760.5670, 31831.00
761.7140, 31739.00
762.8610, 31729.00
764.0080, 31731.00
765.1550, 31816.00
766.3020, 31849.00
767.4480, 31928.00
768.5950, 31947.00
769.7410, 31960.00
770.8870, 31930.00
772.0330, 31999.00
773.1780, 31981.00
774.3240, 32048.52
775.4690, 32272.00
776.6140, 32179.00
777.7590, 32321.00
778.9040, 32380.00
780.0490, 32317.00
781.1940, 32399.00
782.3380, 32521.00
783.4820, 32384.00
784.6260, 32460.00
785.7700, 32281.00
786.9140, 32522.00
788.0580, 32574.00
789.2010, 32314.00
790.3450, 32357.00
791.4880, 32465.39
792.6310, 32678.19
793.7730, 32795.05
794.9160, 32821.13
796.0590, 32484.51
797.2010, 32616.25
798.3430, 32560.29
799.4850, 32496.63
800.6270, 32694.28
801.7690, 32410.43
802.9100, 32603.94
804.0520, 32606.89
805.1930, 32697.06
806.3340, 32598.38
807.4750, 32558.03
808.6160, 32706.58
809.7560, 32418.00
810.8970, 32489.00
812.0370, 32213.00
813.1770, 32442.00
814.3170, 32324.00
815.4570, 32696.00
816.5960, 32345.00
817.7360, 32392.00
818.8750, 32454.00
820.0140, 32397.00
821.1530, 32487.00
822.2920, 32474.00
823.4310, 32320.00
824.5690, 32487.00
825.7070, 32336.00
826.8460, 32611.00
827.9840, 32390.00
829.1220, 32577.00
830.2590, 32548.00
831.3970, 32463.00
832.5340, 32311.00
833.6710, 32557.00
834.8080, 32768.00
835.9450, 32696.00
837.0820, 32592.00
838.2190, 32628.00
839.3550, 32819.00
840.4910, 32748.00
841.6270, 33230.00
842.7630, 33083.46
843.8990, 32753.00
845.0350, 33016.00
846.1700, 33239.00
847.3060, 33249.00
848.4410, 33225.00
849.5760, 33317.00
850.7100, 33323.00
851.8450, 33385.00
852.9800, 33344.00
854.1140, 33464.00
855.2480, 33813.00
856.3820, 33535.00
857.5160, 33776.00
858.6500, 33748.00
859.7830, 33691.00
860.9170, 33843.87
862.0500, 33799.64
863.1830, 33933.00
864.3160, 33883.00
865.4480, 33785.00
866.5810, 33886.00
867.7130, 34078.00
868.8460, 33879.00
869.9780, 33516.00
871.1100, 33656.00
872.2410, 33876.00
873.3730, 33602.00
874.5050, 33753.00
875.6360, 33824.00
876.7670, 33591.00
877.8980, 33689.00
879.0290, 33600.00
880.1590, 33578.00
881.2900, 33554.00
882.4200, 33751.00
883.5500, 33695.00
884.6800, 33684.00
885.8100, 33684.00
886.9400, 33673.17
888.0690, 33670.48
889.1990, 33698.00
890.3280, 33667.00
891.4570, 33693.82
892.5860, 33701.59
893.7140, 33621.00
894.8430, 33669.00
895.9710, 33623.00
897.1000, 33569.00
898.2280, 33834.00
899.3560, 33961.00
900.4830, 33932.00
901.6110, 34029.91
902.7380, 33980.36
903.8660, 33984.00
904.9930, 33923.00
906.1200, 33838.00
907.2460, 33929.00
908.3730, 34045.00
909.5000, 34020.00
910.6260, 34046.92
911.7520, 34254.00
912.8780, 33993.00
914.0040, 34104.00
915.1290, 34094.00
916.2550, 33955.00
917.3800, 34001.00
918.5050, 33988.00
919.6300, 34005.00
920.7550, 34051.00
921.8800, 34097.00
923.0040, 33936.00
924.1290, 34173.00
925.2530, 33939.00
926.3770, 34194.00
927.5010, 34183.00
928.6250, 34162.00
929.7480, 34353.00
930.8720, 34212.00
931.9950, 34342.00
933.1180, 34226.00
934.2410, 34400.00
935.3640, 34323.00
936.4860, 34284.00
937.6090, 34445.34
938.7310, 34428.00
939.8530, 34689.00
940.9750, 34403.00
942.0970, 34490.00
943.2180, 34757.00
944.3400, 34501.00
945.4610, 34596.00
946.5820, 34226.00
947.7030, 34608.00
948.8240, 34646.00
949.9450, 34778.00
951.0650, 34872.91
952.1860, 34715.00
953.3060, 35035.00
954.4260, 34822.00
955.5460, 35135.00
956.6650, 35081.00
957.7850, 34868.00
958.9040, 35073.00
960.0230, 35101.00
961.1420, 35017.00
962.2610, 35124.00
963.3800, 34913.00
964.4990, 35233.00
965.6170, 35181.00
966.7350, 35089.00
967.8530, 35100.00
968.9710, 34956.00
970.0890, 35041.91
971.2070, 35436.00
972.3240, 35217.00
973.4410, 35307.00
974.5580, 35461.00
975.6750, 35390.78
976.7920, 35524.50
977.9090, 35425.00
979.0250, 35635.00
980.1410, 35585.00
981.2580, 35569.00
982.3740, 35629.00
983.4890, 35698.00
984.6050, 35946.00
985.7200, 35890.00
986.8360, 35832.00
987.9510, 35900.00
989.0660, 36221.00
990.1810, 36050.00
991.2950, 36061.00
992.4100, 36343.00
993.5240, 36282.00
994.6390, 36064.00
995.7530, 36393.00
996.8660, 36732.00
997.9800, 36569.00
999.0940, 36890.00
1000.207, 37233.00
1001.320, 37173.00
1002.433, 37230.00
1003.546, 37185.00
1004.659, 37201.00
1005.772, 37413.00
1006.884, 36972.00
1007.996, 36823.00
1009.108, 36876.67
1010.220, 37134.61
1011.332, 37296.61
1012.444, 37367.82
1013.555, 37076.31
1014.666, 37253.14
1015.777, 37242.28
1016.888, 37223.72
1017.999, 37466.47
1019.110, 37227.71
1020.220, 37466.27
1021.331, 37514.32
1022.441, 37649.55
1023.551, 37595.93
1024.661, 37600.63
1025.770, 37794.21
1026.880, 37675.00
1027.989, 37620.00
1029.098, 37491.00
1030.207, 37640.00
1031.316, 37408.00
1032.425, 37660.00
1033.533, 37532.00
1034.642, 37587.00
1035.750, 37754.00
1036.858, 37668.00
1037.966, 37460.00
1039.073, 37610.00
1040.181, 37474.00
1041.288, 37637.00
1042.396, 37706.00
1043.503, 37801.00
1044.610, 37966.00
1045.716, 37992.28
1046.823, 37814.00
1047.929, 38026.00
1049.036, 37869.00
1050.142, 37717.00
1051.248, 37906.00
1052.353, 38026.00
1053.459, 38061.00
1054.564, 37927.00
1055.670, 37921.00
1056.775, 37915.00
1057.880, 37997.00
1058.985, 38032.89
1060.089, 38090.70
1061.194, 38200.00
1062.298, 38197.00
1063.402, 38316.00
1064.506, 38314.00
1065.610, 38315.00
1066.713, 38246.00
1067.817, 38377.00
1068.920, 38293.00
1070.023, 38392.71
1071.126, 38448.59
1072.229, 38540.00
1073.332, 38598.00
1074.435, 38630.00
1075.537, 38722.00
1076.639, 39037.00
1077.741, 39093.00
1078.843, 38988.00
1079.945, 39289.00
1081.046, 39304.00
1082.148, 39422.00
1083.249, 39507.00
1084.350, 39566.97
1085.451, 39587.92
1086.551, 39690.00
1087.652, 39661.00
1088.752, 39657.00
1089.853, 39882.00
1090.953, 39669.00
1092.053, 39617.00
1093.152, 40037.00
1094.252, 40052.00
1095.351, 39762.00
1096.451, 39766.00
1097.550, 40113.00
1098.649, 40106.00
1099.748, 40130.00
1100.846, 40162.00
1101.945, 40089.00
1103.043, 40190.96
1104.141, 40184.00
1105.239, 40372.00
1106.337, 40204.00
1107.434, 40342.00
1108.532, 40401.00
1109.629, 40561.00
1110.726, 40769.00
1111.823, 40355.00
1112.920, 40488.00
1114.017, 40656.00
1115.113, 40755.00
1116.210, 41004.00
1117.306, 40847.00
1118.402, 41024.00
1119.498, 40943.00
1120.593, 41006.00
1121.689, 41161.00
1122.784, 41043.00
1123.879, 41156.00
1124.974, 40917.00
1126.069, 40839.00
1127.164, 40822.00
1128.259, 40683.00
1129.353, 40653.00
1130.447, 40544.00
1131.541, 40627.00
1132.635, 40616.00
1133.729, 40632.00
1134.822, 40652.00
1135.916, 40513.00
1137.009, 40613.00
1138.102, 40423.00
1139.195, 40612.00
1140.288, 40786.00
1141.380, 40633.00
1142.473, 40601.00
1143.565, 40554.00
1144.657, 40543.00
1145.749, 40730.00
1146.841, 40311.00
1147.932, 40547.00
1149.024, 40599.00
1150.115, 40455.00
1151.206, 40492.00
1152.297, 40672.00
1153.388, 40494.00
1154.479, 40706.00
1155.569, 40512.00
1156.659, 40733.00
1157.750, 40346.00
1158.839, 40562.00
1159.929, 40727.00
1161.019, 40787.00
1162.108, 40601.00
1163.198, 40514.00
1164.287, 40303.00
1165.376, 40379.16
1166.465, 40597.00
1167.553, 40593.00
1168.642, 40543.00
1169.730, 40737.00
1170.818, 40465.00
1171.906, 40513.00
1172.994, 40705.00
1174.082, 40523.00
1175.170, 40589.00
1176.257, 40380.00
1177.344, 40335.00
1178.431, 40402.00
1179.518, 40302.00
1180.605, 40309.00
1181.691, 40295.00
1182.778, 40195.00
1183.864, 40322.00
1184.950, 40391.00
1186.036, 40283.00
1187.122, 40203.00
1188.207, 40532.00
1189.292, 40123.00
1190.378, 40054.00
1191.463, 39968.00
1192.548, 40312.00
1193.632, 39983.00
1194.717, 40128.00
1195.801, 39902.00
1196.886, 40029.00
1197.970, 40168.00
1199.054, 39845.00
1200.137, 39998.00
1201.221, 40065.00
1202.305, 39688.00
1203.388, 39844.00
1204.471, 39856.00
1205.554, 40008.00
1206.637, 39884.00
1207.719, 39723.00
1208.802, 40180.00
1209.884, 39824.00
1210.966, 39850.00
1212.048, 39819.00
1213.130, 40072.00
1214.212, 39776.00
1215.293, 39942.00
1216.374, 39799.00
1217.456, 39622.00
1218.536, 39778.00
1219.617, 39829.00
1220.698, 40011.00
1221.778, 40205.00
1222.859, 39721.00
1223.939, 39976.00
1225.019, 40018.00
1226.099, 40026.00
1227.178, 40081.00
1228.258, 40029.00
1229.337, 40091.79
1230.417, 39963.00
1231.496, 40016.58
1232.574, 39995.00
1233.653, 40069.00
1234.732, 40093.00
1235.810, 40147.00
1236.888, 40358.00
1237.966, 40321.00
1239.044, 40306.00
1240.122, 40562.00
1241.199, 40521.00
1242.277, 40360.00
1243.354, 40131.00
1244.431, 40175.00
1245.508, 40111.71
1246.585, 40361.01
1247.661, 40514.35
1248.738, 40576.93
1249.814, 40276.79
1250.890, 40445.00
1251.966, 40425.51
1253.042, 40398.33
1254.117, 40632.42
1255.193, 40385.04
1256.268, 40614.99
1257.343, 40654.38
1258.418, 40780.99
1259.493, 40718.75
1260.567, 40714.81
1261.642, 40899.80
1262.716, 40980.17
1263.790, 40896.16
1264.864, 41028.29
1265.938, 40774.25
1267.011, 40859.04
1268.085, 41090.07
1269.158, 41015.52
1270.231, 41151.07
1271.304, 41206.61
1272.377, 40898.51
1273.450, 41222.80
1274.522, 41273.58
1275.594, 41043.54
1276.666, 41163.00
1277.738, 41140.00
1278.810, 41225.00
1279.882, 41121.00
1280.953, 41084.00
1282.025, 41142.26
1283.096, 41219.00
1284.167, 41231.00
1285.238, 41344.00
1286.308, 41410.57
1287.379, 41201.00
1288.449, 41367.00
1289.519, 41236.00
1290.589, 41157.00
1291.659, 41065.00
1292.729, 41200.00
1293.798, 41179.00
1294.868, 41222.00
1295.937, 41251.00
1297.006, 41280.00
1298.075, 41345.00
1299.143, 41208.00
1300.212, 41498.00
1301.280, 41267.00
1302.348, 41487.00
1303.416, 41704.00
1304.484, 41675.00
1305.552, 41930.68
1306.620, 41648.00
1307.687, 42094.00
1308.754, 42186.00
1309.821, 41889.00
1310.888, 42061.00
1311.955, 42210.00
1313.021, 42101.00
1314.088, 42168.00
1315.154, 42087.00
1316.220, 42274.00
1317.286, 42420.00
1318.352, 42374.00
1319.417, 42444.51
1320.483, 42193.00
1321.548, 42306.00
1322.613, 42178.00
1323.678, 41905.00
1324.743, 41901.00
1325.807, 41805.00
1326.872, 41991.00
1327.936, 41884.55
1329.000, 42064.00
1330.064, 41761.00
1331.128, 42029.00
1332.191, 41874.00
1333.255, 42156.00
1334.318, 41960.00
1335.381, 41864.00
1336.444, 42074.00
1337.507, 42302.00
1338.569, 41800.00
1339.632, 42259.00
1340.694, 42122.00
1341.756, 42358.00
1342.818, 42053.00
1343.880, 42077.00
1344.941, 42294.00
1346.003, 42200.00
1347.064, 42132.00
1348.125, 41983.00
1349.186, 42488.00
1350.247, 42251.00
1351.308, 42335.00
1352.368, 42404.00
1353.428, 42342.00
1354.489, 42335.00
1355.549, 42524.00
1356.608, 42489.00
1357.668, 42440.00
1358.727, 42399.00
1359.787, 42441.00
1360.846, 42475.00
1361.905, 42578.00
1362.964, 42431.00
1364.022, 42443.00
1365.081, 42337.00
1366.139, 42219.00
1367.197, 42411.00
1368.255, 42398.00
1369.313, 42730.00
1370.371, 42701.00
1371.428, 42802.00
1372.486, 42432.00
1373.543, 42472.00
1374.600, 42720.00
1375.657, 42676.00
1376.713, 42833.00
1377.770, 42867.00
1378.826, 42843.00
1379.882, 43058.00
1380.938, 42655.00
1381.994, 42731.00
1383.050, 43076.00
1384.106, 42788.00
1385.161, 43027.00
1386.216, 42867.00
1387.271, 42706.00
1388.326, 43037.00
1389.381, 42927.00
1390.435, 42884.00
1391.490, 42840.00
1392.544, 42675.00
1393.598, 42999.00
1394.652, 42827.00
1395.705, 43058.00
1396.759, 42906.00
1397.812, 42906.00
1398.866, 42923.00
1399.919, 42883.00
1400.972, 42931.45
1402.024, 42868.80
1403.077, 43023.00
1404.129, 42844.00
1405.181, 42909.00
1406.233, 43075.00
1407.285, 43001.00
1408.337, 43055.00
1409.389, 43123.00
1410.440, 43311.00
1411.491, 43290.00
1412.542, 43289.00
1413.593, 43341.23
1414.644, 43223.00
1415.695, 43367.00
1416.745, 43150.00
1417.795, 43203.00
1418.845, 43231.00
1419.895, 43322.00
1420.945, 43336.00
1421.995, 43239.00
1423.044, 43264.00
1424.093, 43468.00
1425.142, 43482.00
1426.191, 43315.00
1427.240, 43841.00
1428.289, 43965.00
1429.337, 43744.00
1430.385, 43749.00
1431.433, 43802.00
1432.481, 43796.00
1433.529, 43950.00
1434.577, 44119.00
1435.624, 44215.00
1436.672, 44182.00
1437.719, 44584.00
1438.766, 44515.00
1439.812, 44695.53
1440.859, 45038.00
1441.905, 44921.00
1442.952, 44916.00
1443.998, 44973.00
1445.044, 45077.00
1446.090, 45403.00
1447.135, 45282.00
1448.181, 45086.00
1449.226, 45735.00
1450.271, 45366.00
1451.316, 45471.00
1452.361, 45544.00
1453.405, 45487.00
1454.450, 45406.00
1455.494, 45388.00
1456.538, 45404.86
1457.582, 45471.00
1458.626, 45475.00
1459.670, 45527.00
1460.713, 45522.00
1461.757, 45647.00
1462.800, 45420.00
1463.843, 45195.00
1464.886, 45037.00
1465.928, 45176.00
1466.971, 44911.00
1468.013, 45142.00
1469.055, 44887.00
1470.097, 44799.00
1471.139, 44950.00
1472.181, 44845.00
1473.222, 44859.00
1474.263, 44711.00
1475.305, 44773.00
1476.346, 44738.00
1477.386, 44689.11
1478.427, 44709.95
1479.468, 44641.00
1480.508, 44728.00
1481.548, 44734.00
1482.588, 44824.00
1483.628, 44646.00
1484.668, 44735.00
1485.707, 44650.00
1486.747, 44784.00
1487.786, 44766.00
1488.825, 44683.00
1489.864, 44731.00
1490.902, 44477.00
1491.941, 44760.00
1492.979, 44790.00
1494.017, 44489.00
1495.055, 44791.00
1496.093, 44374.00
1497.131, 44658.00
1498.168, 44621.00
1499.206, 44709.00
1500.243, 44849.00
1501.280, 44834.00
1502.317, 44738.00
1503.354, 44443.00
1504.390, 44697.00
1505.426, 44536.00
1506.463, 44674.00
1507.499, 44770.00
1508.535, 44835.00
1509.570, 44552.00
1510.606, 44676.00
1511.641, 44792.00
1512.676, 45015.00
1513.711, 45029.00
1514.746, 44863.00
1515.781, 44992.00
1516.816, 45080.00
1517.850, 44850.00
1518.884, 45233.00
1519.918, 45159.00
1520.952, 45114.00
1521.986, 45178.00
1523.019, 45235.00
1524.053, 45090.00
1525.086, 44982.00
1526.119, 45270.00
1527.152, 45136.00
1528.185, 45472.00
1529.217, 45352.00
1530.250, 45253.00
1531.282, 45584.00
1532.314, 45505.00
1533.346, 45279.00
1534.377, 45107.00
1535.409, 45703.00
1536.440, 45347.00
1537.472, 45487.00
1538.503, 45444.00
1539.534, 45386.00
1540.564, 45341.00
1541.595, 45611.00
1542.625, 45447.00
1543.656, 45643.00
1544.686, 45215.00
1545.716, 45597.00
1546.745, 45461.00
1547.775, 45352.00
1548.804, 45617.00
1549.834, 45681.00
1550.863, 45579.00
1551.892, 45851.00
1552.920, 45624.00
1553.949, 46247.00
1554.977, 46601.00
1556.006, 46401.00
1557.034, 45901.00
1558.062, 45708.00
1559.089, 45851.00
1560.117, 45716.00
1561.144, 45932.00
1562.172, 45890.00
1563.199, 45924.00
1564.226, 45844.00
1565.252, 45586.00
1566.279, 45678.00
1567.305, 46077.00
1568.332, 45693.00
1569.358, 45753.00
1570.384, 46017.00
1571.409, 46462.00
##END=



