##NAMES=Erythrite
##RRUFFID=R050073
##IDEAL CHEMISTRY=Co^2+^_3_(As^5+^O_4_)_2_&#183;8H_2_O
##LOCALITY=Bou Azzer, Morocco
##OWNER=RRUFF
##SOURCE=Rock Currier
##DESCRIPTION=Crimson flattened crystals
##STATUS=The identification of this mineral has been confirmed by X-ray diffraction and chemical analysis
##URL=rruff.info/R050073
##MEASURED CHEMISTRY=(Co_0.65_Mg_0.35_)_3_(As_1.00_O_4_)_2_Â·8H_2_O
##PIN_ID=M00408
##ORIENTATION=Laser parallel to a* (1 0 0). Fiducial mark perpendicular to laser is parallel to b [0 1 0]
93.48000, 9611.000
94.71400, 9406.000
95.94800, 9289.000
97.18200, 9130.000
98.41600, 9096.000
99.64900, 9326.000
100.8830, 8997.000
102.1160, 8819.000
103.3490, 9246.000
104.5820, 9638.000
105.8150, 10385.00
107.0470, 11009.00
108.2800, 11698.00
109.5120, 12501.00
110.7440, 11191.00
111.9760, 10209.00
113.2080, 10306.00
114.4400, 10924.00
115.6710, 11298.00
116.9030, 11044.00
118.1340, 10800.00
119.3650, 10016.00
120.5960, 9681.000
121.8270, 9451.000
123.0580, 9091.077
124.2880, 9032.230
125.5190, 8899.000
126.7490, 8959.000
127.9790, 9219.000
129.2090, 9267.000
130.4390, 9447.000
131.6680, 9305.000
132.8980, 9026.000
134.1270, 8968.000
135.3560, 9220.000
136.5850, 9299.000
137.8140, 9542.000
139.0430, 9780.000
140.2710, 9713.000
141.5000, 9329.000
142.7280, 9390.000
143.9560, 9565.000
145.1840, 9753.000
146.4120, 9983.000
147.6390, 10144.00
148.8670, 10004.00
150.0940, 10151.00
151.3210, 10475.00
152.5490, 11030.00
153.7750, 11238.00
155.0020, 11340.00
156.2290, 11435.00
157.4550, 11091.00
158.6810, 10872.00
159.9080, 10485.00
161.1340, 10284.00
162.3590, 10166.00
163.5850, 10059.00
164.8110, 10017.01
166.0360, 10321.00
167.2610, 10077.00
168.4860, 10134.00
169.7110, 10300.00
170.9360, 10023.00
172.1610, 9905.000
173.3850, 9805.000
174.6100, 9748.000
175.8340, 9733.897
177.0580, 9755.634
178.2820, 9796.000
179.5050, 9862.000
180.7290, 9950.000
181.9520, 9968.000
183.1760, 10169.00
184.3990, 10150.00
185.6220, 10430.00
186.8450, 10593.00
188.0670, 10935.00
189.2900, 11153.00
190.5120, 11505.00
191.7340, 11818.00
192.9560, 12061.00
194.1780, 12320.00
195.4000, 12292.00
196.6220, 12477.00
197.8430, 12518.00
199.0640, 12641.00
200.2860, 12805.00
201.5070, 13348.00
202.7270, 13355.00
203.9480, 12630.00
205.1690, 11501.00
206.3890, 10785.00
207.6090, 10541.00
208.8290, 10554.00
210.0490, 10679.00
211.2690, 10710.00
212.4890, 10838.00
213.7080, 10838.00
214.9280, 10904.00
216.1470, 10782.00
217.3660, 10814.00
218.5850, 10875.00
219.8030, 10895.07
221.0220, 10971.72
222.2400, 11142.00
223.4590, 11324.15
224.6770, 11518.00
225.8950, 11859.00
227.1120, 12247.00
228.3300, 12605.00
229.5480, 13007.00
230.7650, 13545.00
231.9820, 14078.00
233.1990, 14890.00
234.4160, 15403.00
235.6330, 15978.00
236.8490, 16511.36
238.0660, 17004.00
239.2820, 17384.00
240.4980, 17674.00
241.7140, 17998.00
242.9300, 18242.00
244.1460, 18033.00
245.3610, 17636.00
246.5770, 16946.00
247.7920, 16206.00
249.0070, 15331.00
250.2220, 14505.00
251.4370, 14044.00
252.6510, 13688.00
253.8660, 13456.00
255.0800, 13133.00
256.2940, 13285.00
257.5080, 13168.00
258.7220, 13620.00
259.9360, 13233.11
261.1490, 13627.00
262.3630, 12690.00
263.5760, 12284.00
264.7890, 12126.00
266.0020, 11889.00
267.2150, 11717.00
268.4270, 11581.00
269.6400, 11526.00
270.8520, 11447.00
272.0640, 11030.00
273.2760, 10788.00
274.4880, 10778.00
275.7000, 10746.00
276.9120, 10862.00
278.1230, 10545.00
279.3340, 10468.00
280.5450, 10310.00
281.7560, 10321.00
282.9670, 10153.00
284.1780, 10310.00
285.3880, 10106.00
286.5980, 10148.00
287.8090, 10130.00
289.0190, 10035.00
290.2290, 10025.00
291.4380, 10034.00
292.6480, 10039.00
293.8570, 10059.00
295.0670, 9995.000
296.2760, 9991.000
297.4850, 10042.00
298.6930, 9888.000
299.9020, 9930.000
301.1110, 10014.00
302.3190, 9804.000
303.5270, 9974.000
304.7350, 9896.000
305.9430, 9951.000
307.1510, 9848.000
308.3580, 9897.000
309.5660, 9855.000
310.7730, 9979.000
311.9800, 9918.000
313.1870, 9889.000
314.3940, 9910.000
315.6010, 9893.000
316.8070, 9900.000
318.0130, 9978.000
319.2200, 9872.000
320.4260, 9950.000
321.6310, 10072.00
322.8370, 10225.00
324.0430, 10147.20
325.2480, 10017.00
326.4540, 10084.00
327.6590, 10047.00
328.8640, 10213.00
330.0680, 10067.00
331.2730, 10175.00
332.4780, 10206.00
333.6820, 10077.00
334.8860, 10192.00
336.0900, 10230.00
337.2940, 10332.00
338.4980, 10157.00
339.7010, 10112.00
340.9050, 10266.00
342.1080, 10222.00
343.3110, 10405.00
344.5140, 10267.00
345.7170, 10178.00
346.9200, 10194.00
348.1220, 10189.20
349.3240, 10373.00
350.5270, 10357.00
351.7290, 10421.00
352.9310, 10603.00
354.1320, 10619.00
355.3340, 10762.00
356.5350, 10707.00
357.7370, 10914.00
358.9380, 10989.00
360.1390, 11219.00
361.3400, 11235.00
362.5400, 11388.00
363.7410, 11554.00
364.9410, 11748.00
366.1410, 11926.28
367.3410, 12126.96
368.5410, 12312.00
369.7410, 12510.00
370.9400, 12696.00
372.1400, 12828.00
373.3390, 12903.00
374.5380, 13163.00
375.7370, 13327.00
376.9360, 13690.00
378.1350, 13852.00
379.3330, 13987.00
380.5310, 14256.00
381.7300, 14430.53
382.9280, 14570.00
384.1260, 14877.00
385.3230, 15174.00
386.5210, 15417.00
387.7180, 15864.00
388.9160, 15799.00
390.1130, 16192.00
391.3100, 16514.00
392.5060, 16613.00
393.7030, 16792.00
394.9000, 16925.00
396.0960, 17100.00
397.2920, 17261.00
398.4880, 17166.00
399.6840, 17565.00
400.8800, 17456.00
402.0750, 17304.00
403.2710, 16982.00
404.4660, 16921.00
405.6610, 16757.00
406.8560, 16418.00
408.0510, 16160.00
409.2450, 16053.00
410.4400, 15906.00
411.6340, 15818.00
412.8280, 15663.00
414.0220, 15766.00
415.2160, 15690.00
416.4100, 15899.00
417.6030, 15959.00
418.7970, 15955.00
419.9900, 16417.00
421.1830, 16678.00
422.3760, 16991.00
423.5690, 17386.00
424.7610, 17861.00
425.9540, 18356.25
427.1460, 18986.00
428.3380, 19544.00
429.5300, 20215.00
430.7220, 20942.00
431.9140, 21574.00
433.1050, 22146.34
434.2970, 22672.00
435.4880, 23223.00
436.6790, 23581.00
437.8700, 24113.00
439.0610, 24047.00
440.2510, 23987.00
441.4420, 23542.00
442.6320, 23222.00
443.8220, 22804.00
445.0120, 22265.00
446.2020, 21660.00
447.3910, 20879.00
448.5810, 20352.00
449.7700, 19727.00
450.9600, 19146.00
452.1490, 18634.00
453.3370, 18014.00
454.5260, 17500.00
455.7150, 17086.00
456.9030, 16463.00
458.0910, 16208.00
459.2800, 15538.00
460.4670, 15334.00
461.6550, 14925.00
462.8430, 14584.00
464.0300, 14113.00
465.2180, 13622.00
466.4050, 13554.00
467.5920, 13102.00
468.7790, 12882.00
469.9650, 12703.00
471.1520, 12440.00
472.3380, 12283.00
473.5250, 12174.38
474.7110, 12012.05
475.8970, 12000.00
477.0820, 11853.00
478.2680, 11720.00
479.4540, 11768.00
480.6390, 11626.00
481.8240, 11535.00
483.0090, 11400.00
484.1940, 11392.43
485.3780, 11384.68
486.5630, 11358.00
487.7470, 11368.10
488.9320, 11356.00
490.1160, 11355.00
491.3000, 11340.00
492.4830, 11281.00
493.6670, 11204.00
494.8500, 11168.00
496.0340, 11156.94
497.2170, 11143.34
498.4000, 11156.00
499.5820, 11164.00
500.7650, 11134.00
501.9480, 11133.00
503.1300, 11175.00
504.3120, 11187.00
505.4940, 11109.00
506.6760, 11117.00
507.8580, 11093.05
509.0390, 11040.90
510.2210, 11073.00
511.4020, 11084.00
512.5830, 11098.73
513.7640, 10998.00
514.9450, 11106.00
516.1250, 11062.00
517.3060, 11058.00
518.4860, 11095.00
519.6660, 11074.42
520.8460, 11264.00
522.0260, 11014.00
523.2060, 11216.00
524.3850, 11048.00
525.5650, 11077.00
526.7440, 11027.00
527.9230, 11053.00
529.1020, 11128.00
530.2810, 11239.00
531.4590, 11173.00
532.6380, 11065.00
533.8160, 11120.00
534.9940, 11033.00
536.1720, 11111.00
537.3500, 11246.00
538.5270, 11187.00
539.7050, 11160.00
540.8820, 11148.00
542.0590, 11227.00
543.2360, 11187.00
544.4130, 11125.00
545.5900, 11264.00
546.7660, 11271.00
547.9430, 11282.00
549.1190, 11350.00
550.2950, 11232.00
551.4710, 11311.00
552.6470, 11303.00
553.8220, 11486.00
554.9980, 11364.00
556.1730, 11297.00
557.3480, 11419.00
558.5230, 11416.00
559.6980, 11512.00
560.8730, 11408.00
562.0470, 11309.00
563.2220, 11450.00
564.3960, 11451.00
565.5700, 11492.00
566.7440, 11495.00
567.9170, 11372.00
569.0910, 11537.00
570.2640, 11367.00
571.4380, 11513.00
572.6110, 11454.00
573.7840, 11360.00
574.9570, 11407.00
576.1290, 11486.00
577.3020, 11418.00
578.4740, 11368.00
579.6460, 11328.00
580.8180, 11292.00
581.9900, 11269.23
583.1620, 11236.00
584.3330, 11243.50
585.5040, 11241.23
586.6760, 11242.00
587.8470, 11277.00
589.0180, 11184.00
590.1880, 11200.00
591.3590, 11184.00
592.5290, 11073.00
593.7000, 11227.00
594.8700, 11252.00
596.0400, 11223.00
597.2090, 11292.00
598.3790, 11355.00
599.5490, 11342.00
600.7180, 11336.00
601.8870, 11354.96
603.0560, 11345.79
604.2250, 11371.00
605.3940, 11369.00
606.5620, 11410.00
607.7300, 11466.00
608.8990, 11419.00
610.0670, 11369.00
611.2350, 11457.00
612.4020, 11426.00
613.5700, 11370.00
614.7370, 11510.00
615.9050, 11454.00
617.0720, 11496.00
618.2390, 11558.70
619.4060, 11553.05
620.5720, 11624.00
621.7390, 11601.00
622.9050, 11559.00
624.0710, 11557.00
625.2370, 11495.00
626.4030, 11632.00
627.5690, 11642.00
628.7340, 11661.00
629.9000, 11661.00
631.0650, 11629.00
632.2300, 11737.00
633.3950, 11642.00
634.5600, 11816.00
635.7240, 11821.00
636.8890, 11807.00
638.0530, 11799.00
639.2170, 11794.00
640.3810, 11888.00
641.5450, 11895.00
642.7080, 11876.00
643.8720, 11933.00
645.0350, 12077.00
646.1980, 12021.00
647.3610, 12061.00
648.5240, 11898.00
649.6870, 12121.00
650.8490, 12015.00
652.0120, 12128.00
653.1740, 12102.00
654.3360, 11989.00
655.4980, 12144.00
656.6600, 12024.00
657.8210, 12080.00
658.9830, 12132.00
660.1440, 12118.00
661.3050, 12097.00
662.4660, 11952.00
663.6270, 12054.00
664.7870, 12036.00
665.9480, 12170.00
667.1080, 12021.00
668.2680, 12108.00
669.4280, 12032.00
670.5880, 12057.00
671.7480, 12023.00
672.9070, 11955.00
674.0670, 11933.00
675.2260, 11946.00
676.3850, 11985.00
677.5440, 11939.00
678.7030, 11982.00
679.8610, 11949.00
681.0200, 11902.00
682.1780, 11893.00
683.3360, 11964.00
684.4940, 11928.00
685.6520, 11881.00
686.8090, 11966.00
687.9670, 11947.00
689.1240, 11930.00
690.2810, 12013.00
691.4380, 11921.00
692.5950, 11893.00
693.7520, 11924.00
694.9080, 12050.00
696.0650, 12024.00
697.2210, 11978.00
698.3770, 11997.00
699.5330, 11997.00
700.6880, 11998.42
701.8440, 11977.00
702.9990, 12050.00
704.1550, 12135.00
705.3100, 12218.00
706.4650, 12074.00
707.6190, 12094.00
708.7740, 12244.00
709.9290, 12212.00
711.0830, 12313.00
712.2370, 12464.00
713.3910, 12231.00
714.5450, 12424.00
715.6980, 12436.00
716.8520, 12455.00
718.0050, 12375.00
719.1580, 12427.00
720.3110, 12526.00
721.4640, 12527.00
722.6170, 12609.00
723.7700, 12735.00
724.9220, 12686.00
726.0740, 12584.00
727.2260, 12520.00
728.3780, 12581.00
729.5300, 12709.00
730.6810, 12753.00
731.8330, 12643.00
732.9840, 12851.00
734.1350, 12952.00
735.2860, 12972.00
736.4370, 13155.00
737.5880, 13053.00
738.7380, 13237.00
739.8880, 13193.00
741.0390, 13315.00
742.1890, 13330.00
743.3380, 13398.00
744.4880, 13513.81
745.6380, 13526.05
746.7870, 13729.00
747.9360, 13682.00
749.0850, 13755.00
750.2340, 13996.00
751.3830, 14133.00
752.5310, 14141.00
753.6800, 14334.00
754.8280, 14300.00
755.9760, 14762.00
757.1240, 14777.00
758.2720, 14833.00
759.4190, 15145.00
760.5670, 15288.00
761.7140, 15490.00
762.8610, 15825.00
764.0080, 16158.00
765.1550, 16303.00
766.3020, 16828.00
767.4480, 17099.00
768.5950, 17505.00
769.7410, 17896.00
770.8870, 18590.00
772.0330, 19442.00
773.1780, 20009.00
774.3240, 20703.00
775.4690, 21717.00
776.6140, 22540.00
777.7590, 23829.00
778.9040, 25449.00
780.0490, 26947.00
781.1940, 28389.00
782.3380, 30621.00
783.4820, 32891.00
784.6260, 34995.00
785.7700, 37682.00
786.9140, 40494.00
788.0580, 43522.00
789.2010, 46498.00
790.3450, 50201.00
791.4880, 53050.00
792.6310, 55838.00
793.7730, 58433.00
794.9160, 60363.00
796.0590, 61951.00
797.2010, 62713.00
798.3430, 63161.00
799.4850, 62715.00
800.6270, 62113.00
801.7690, 60575.00
802.9100, 58906.00
804.0520, 56675.00
805.1930, 54206.00
806.3340, 51695.00
807.4750, 49251.00
808.6160, 46654.00
809.7560, 44223.00
810.8970, 41957.00
812.0370, 39853.00
813.1770, 37528.00
814.3170, 35333.00
815.4570, 33692.00
816.5960, 31886.00
817.7360, 30229.00
818.8750, 28824.00
820.0140, 27858.00
821.1530, 26738.00
822.2920, 25824.00
823.4310, 24914.00
824.5690, 24219.00
825.7070, 23844.00
826.8460, 23305.00
827.9840, 23071.00
829.1220, 22679.00
830.2590, 22661.00
831.3970, 22745.00
832.5340, 22754.00
833.6710, 22701.00
834.8080, 22775.00
835.9450, 22873.00
837.0820, 23360.00
838.2190, 23745.00
839.3550, 24130.00
840.4910, 24985.00
841.6270, 25655.00
842.7630, 26503.00
843.8990, 27684.00
845.0350, 29067.00
846.1700, 30646.00
847.3060, 32306.00
848.4410, 34613.00
849.5760, 37019.00
850.7100, 39389.00
851.8450, 42389.00
852.9800, 45736.00
854.1140, 48748.00
855.2480, 51820.00
856.3820, 55052.00
857.5160, 58187.00
858.6500, 60508.00
859.7830, 62828.00
860.9170, 64187.00
862.0500, 65115.00
863.1830, 65184.00
864.3160, 64585.00
865.4480, 63100.00
866.5810, 61260.00
867.7130, 58957.00
868.8460, 56186.00
869.9780, 52587.00
871.1100, 49157.00
872.2410, 45600.00
873.3730, 42374.00
874.5050, 39149.00
875.6360, 36758.00
876.7670, 34132.00
877.8980, 32020.00
879.0290, 30349.00
880.1590, 28754.00
881.2900, 27445.00
882.4200, 26400.00
883.5500, 25203.00
884.6800, 24693.00
885.8100, 23931.00
886.9400, 23302.00
888.0690, 22790.00
889.1990, 22156.00
890.3280, 21869.00
891.4570, 21297.00
892.5860, 20971.00
893.7140, 20757.00
894.8430, 20481.00
895.9710, 20290.00
897.1000, 20019.00
898.2280, 19803.00
899.3560, 19441.00
900.4830, 19282.00
901.6110, 19039.00
902.7380, 18792.00
903.8660, 18591.00
904.9930, 18371.96
906.1200, 18125.00
907.2460, 17992.00
908.3730, 17874.00
909.5000, 17733.00
910.6260, 17375.00
911.7520, 17257.00
912.8780, 17004.00
914.0040, 16937.00
915.1290, 16538.00
916.2550, 16630.00
917.3800, 16356.00
918.5050, 16126.00
919.6300, 16067.00
920.7550, 15916.00
921.8800, 15800.00
923.0040, 15547.00
924.1290, 15483.00
925.2530, 15299.00
926.3770, 15278.00
927.5010, 15191.00
928.6250, 15008.00
929.7480, 14918.23
930.8720, 15050.00
931.9950, 14689.00
933.1180, 14662.00
934.2410, 14699.00
935.3640, 14451.00
936.4860, 14391.00
937.6090, 14559.00
938.7310, 14492.00
939.8530, 14433.00
940.9750, 14233.00
942.0970, 14342.00
943.2180, 14294.00
944.3400, 14245.00
945.4610, 14201.00
946.5820, 14111.00
947.7030, 14008.00
948.8240, 14010.00
949.9450, 14130.00
951.0650, 14172.00
952.1860, 14107.00
953.3060, 13959.00
954.4260, 13904.00
955.5460, 14028.00
956.6650, 13912.00
957.7850, 14006.00
958.9040, 13945.00
960.0230, 13871.00
961.1420, 13879.00
962.2610, 13682.00
963.3800, 13798.00
964.4990, 13857.00
965.6170, 13660.00
966.7350, 13766.00
967.8530, 13661.00
968.9710, 13609.00
970.0890, 13676.00
971.2070, 13824.00
972.3240, 13584.00
973.4410, 13599.00
974.5580, 13662.00
975.6750, 13569.00
976.7920, 13611.00
977.9090, 13468.00
979.0250, 13400.00
980.1410, 13562.00
981.2580, 13568.00
982.3740, 13435.00
983.4890, 13558.00
984.6050, 13467.00
985.7200, 13438.00
986.8360, 13401.00
987.9510, 13347.23
989.0660, 13470.00
990.1810, 13339.00
991.2950, 13263.00
992.4100, 13406.00
993.5240, 13439.00
994.6390, 13313.00
995.7530, 13346.00
996.8660, 13248.00
997.9800, 13307.00
999.0940, 13255.00
1000.207, 13347.00
1001.320, 13379.00
1002.433, 13322.00
1003.546, 13191.00
1004.659, 13391.00
1005.772, 13190.00
1006.884, 13189.00
1007.996, 13178.00
1009.108, 13313.00
1010.220, 13220.00
1011.332, 13091.00
1012.444, 13176.00
1013.555, 13085.00
1014.666, 13066.00
1015.777, 13112.00
1016.888, 13143.00
1017.999, 13222.00
1019.110, 13180.00
1020.220, 13207.00
1021.331, 13183.00
1022.441, 12931.00
1023.551, 13067.00
1024.661, 12926.00
1025.770, 13089.00
1026.880, 13115.00
1027.989, 13020.00
1029.098, 13042.00
1030.207, 13113.00
1031.316, 12997.00
1032.425, 13042.13
1033.533, 12972.00
1034.642, 13037.00
1035.750, 13114.00
1036.858, 13155.00
1037.966, 13185.89
1039.073, 13153.83
1040.181, 13227.00
1041.288, 13052.00
1042.396, 13077.06
1043.503, 13059.29
1044.610, 13252.00
1045.716, 13130.00
1046.823, 13304.00
1047.929, 13052.00
1049.036, 13442.00
1050.142, 13319.00
1051.248, 13059.00
1052.353, 13199.00
1053.459, 13139.00
1054.564, 13129.00
1055.670, 13265.00
1056.775, 13198.64
1057.880, 13141.00
1058.985, 13238.00
1060.089, 13082.00
1061.194, 13185.00
1062.298, 13226.00
1063.402, 13170.00
1064.506, 13333.00
1065.610, 13100.00
1066.713, 13246.00
1067.817, 13238.09
1068.920, 13220.37
1070.023, 13200.00
1071.126, 13325.00
1072.229, 13109.00
1073.332, 13232.00
1074.435, 13115.00
1075.537, 13235.00
1076.639, 13124.00
1077.741, 13115.82
1078.843, 13117.34
1079.945, 13050.00
1081.046, 13074.00
1082.148, 13037.00
1083.249, 13020.67
1084.350, 13092.79
1085.451, 13109.00
1086.551, 13202.00
1087.652, 13219.00
1088.752, 13189.00
1089.853, 13173.00
1090.953, 13182.00
1092.053, 13042.00
1093.152, 13169.00
1094.252, 13142.00
1095.351, 13224.00
1096.451, 13331.00
1097.550, 13219.00
1098.649, 13296.53
1099.748, 13244.00
1100.846, 13265.00
1101.945, 13266.00
1103.043, 13273.39
1104.141, 13292.00
1105.239, 13310.00
1106.337, 13296.00
1107.434, 13292.00
1108.532, 13230.00
1109.629, 13202.00
1110.726, 13123.00
1111.823, 13291.00
1112.920, 13305.00
1114.017, 13389.00
1115.113, 13355.00
1116.210, 13435.00
1117.306, 13625.00
1118.402, 13463.00
1119.498, 13887.00
1120.593, 13816.00
1121.689, 13818.00
1122.784, 13870.00
1123.879, 13977.00
1124.974, 13913.00
1126.069, 13874.00
1127.164, 13876.00
1128.259, 13801.00
1129.353, 13556.00
1130.447, 13562.00
1131.541, 13242.00
1132.635, 13243.00
1133.729, 13176.00
1134.822, 13227.00
1135.916, 13219.07
1137.009, 13221.00
1138.102, 13265.00
1139.195, 13263.31
1140.288, 13294.73
1141.380, 13395.00
1142.473, 13182.00
1143.565, 13343.00
1144.657, 13129.00
1145.749, 13213.00
1146.841, 13190.00
1147.932, 13225.00
1149.024, 13317.00
1150.115, 13180.00
1151.206, 13249.00
1152.297, 13150.00
1153.388, 13222.00
1154.479, 13232.00
1155.569, 13160.00
1156.659, 13217.00
1157.750, 13194.00
1158.839, 13179.69
1159.929, 13198.00
1161.019, 13198.00
1162.108, 13142.00
1163.198, 13229.00
1164.287, 13218.00
1165.376, 13229.00
1166.465, 13173.00
1167.553, 13161.00
1168.642, 13281.00
1169.730, 13221.00
1170.818, 13107.00
1171.906, 13257.00
1172.994, 13296.00
1174.082, 13168.00
1175.170, 13075.00
1176.257, 13244.00
1177.344, 13108.00
1178.431, 13344.00
1179.518, 13262.00
1180.605, 13237.00
1181.691, 13344.00
1182.778, 13289.00
1183.864, 13287.00
1184.950, 13347.00
1186.036, 13226.00
1187.122, 13285.00
1188.207, 13332.00
1189.292, 13201.00
1190.378, 13233.92
1191.463, 13207.76
1192.548, 13156.00
1193.632, 13212.00
1194.717, 13180.00
1195.801, 13239.00
1196.886, 13216.42
1197.970, 13229.00
1199.054, 13210.00
1200.137, 13252.00
1201.221, 13313.00
1202.305, 13349.00
1203.388, 13215.00
1204.471, 13293.00
1205.554, 13524.00
1206.637, 13295.00
1207.719, 13344.00
1208.802, 13517.00
1209.884, 13393.00
1210.966, 13320.00
1212.048, 13420.00
1213.130, 13355.00
1214.212, 13394.00
1215.293, 13275.00
1216.374, 13297.00
1217.456, 13388.00
1218.536, 13413.00
1219.617, 13599.00
1220.698, 13541.70
1221.778, 13357.00
1222.859, 13521.00
1223.939, 13475.00
1225.019, 13548.00
1226.099, 13495.00
1227.178, 13480.00
1228.258, 13392.00
1229.337, 13418.00
1230.417, 13497.00
1231.496, 13540.00
1232.574, 13408.00
1233.653, 13489.00
1234.732, 13510.00
1235.810, 13474.00
1236.888, 13510.00
1237.966, 13554.00
1239.044, 13545.00
1240.122, 13511.00
1241.199, 13369.00
1242.277, 13542.00
1243.354, 13451.00
1244.431, 13408.00
1245.508, 13590.00
1246.585, 13606.00
1247.661, 13696.00
1248.738, 13518.00
1249.814, 13437.00
1250.890, 13545.00
1251.966, 13511.00
1253.042, 13541.00
1254.117, 13534.00
1255.193, 13556.05
1256.268, 13662.00
1257.343, 13591.00
1258.418, 13662.00
1259.493, 13635.00
1260.567, 13532.00
1261.642, 13482.00
1262.716, 13437.00
1263.790, 13654.00
1264.864, 13775.00
1265.938, 13955.00
1267.011, 13896.12
1268.085, 13641.00
1269.158, 13702.00
1270.231, 13581.00
1271.304, 13459.00
1272.377, 13600.00
1273.450, 13579.00
1274.522, 13584.00
1275.594, 13768.00
1276.666, 13690.00
1277.738, 13727.00
1278.810, 13813.00
1279.882, 13764.00
1280.953, 13649.00
1282.025, 13632.00
1283.096, 13783.00
1284.167, 13661.00
1285.238, 13725.00
1286.308, 13939.00
1287.379, 13707.00
1288.449, 13784.00
1289.519, 13756.00
1290.589, 13684.00
1291.659, 13777.00
1292.729, 13681.00
1293.798, 13703.17
1294.868, 13864.00
1295.937, 13672.00
1297.006, 13859.00
1298.075, 13800.00
1299.143, 13941.00
1300.212, 13832.00
1301.280, 13627.00
1302.348, 13839.00
1303.416, 13777.00
1304.484, 13813.00
1305.552, 13858.00
1306.620, 13986.00
1307.687, 13758.00
1308.754, 14047.00
1309.821, 13744.00
1310.888, 13894.00
1311.955, 13791.00
1313.021, 13863.00
1314.088, 13844.00
1315.154, 13938.00
1316.220, 13857.00
1317.286, 13970.00
1318.352, 13867.00
1319.417, 13871.00
1320.483, 13876.00
1321.548, 13846.00
1322.613, 14028.00
1323.678, 13836.00
1324.743, 14117.00
1325.807, 13902.00
1326.872, 14012.00
1327.936, 13918.00
1329.000, 14024.00
1330.064, 13994.00
1331.128, 14028.00
1332.191, 14004.00
1333.255, 14090.00
1334.318, 14036.00
1335.381, 13916.00
1336.444, 14019.00
1337.507, 13971.45
1338.569, 14016.00
1339.632, 14044.00
1340.694, 13891.00
1341.756, 13973.00
1342.818, 13993.00
1343.880, 13993.00
1344.941, 14115.00
1346.003, 14000.00
1347.064, 13908.00
1348.125, 14059.00
1349.186, 14180.00
1350.247, 14150.00
1351.308, 14141.00
1352.368, 14107.00
1353.428, 14265.00
1354.489, 14058.00
1355.549, 14190.00
1356.608, 14112.00
1357.668, 14183.00
1358.727, 14138.00
1359.787, 14235.00
1360.846, 14250.88
1361.905, 14088.00
1362.964, 14306.00
1364.022, 14176.00
1365.081, 14147.00
1366.139, 14162.00
1367.197, 14089.00
1368.255, 14037.00
1369.313, 14226.00
1370.371, 14154.00
1371.428, 14374.00
1372.486, 14024.00
1373.543, 14197.00
1374.600, 14255.00
1375.657, 14146.00
1376.713, 14384.00
1377.770, 14166.00
1378.826, 14258.00
1379.882, 14317.00
1380.938, 14342.00
1381.994, 14362.92
1383.050, 14388.42
1384.106, 14342.00
1385.161, 14373.00
1386.216, 14353.00
1387.271, 14255.00
1388.326, 14392.00
1389.381, 14271.00
1390.435, 14289.00
1391.490, 14194.00
1392.544, 14168.00
1393.598, 14231.00
1394.652, 14339.00
1395.705, 14479.00
1396.759, 14403.00
1397.812, 14417.00
1398.866, 14452.00
1399.919, 14467.00
1400.972, 14364.00
1402.024, 14321.00
1403.077, 14353.00
1404.129, 14318.44
1405.181, 14412.00
1406.233, 14395.00
1407.285, 14384.00
1408.337, 14523.00
1409.389, 14455.00
1410.440, 14474.00
1411.491, 14520.45
1412.542, 14434.00
1413.593, 14543.00
1414.644, 14553.00
1415.695, 14508.00
1416.745, 14484.00
1417.795, 14615.00
1418.845, 14401.00
1419.895, 14633.12
1420.945, 14578.68
1421.995, 14857.00
1423.044, 14648.00
1424.093, 14484.00
1425.142, 14584.00
1426.191, 14674.00
1427.240, 14622.00
1428.289, 14757.00
1429.337, 14499.00
1430.385, 14459.00
1431.433, 14513.00
1432.481, 14578.00
1433.529, 14672.00
1434.577, 14730.00
1435.624, 14687.00
1436.672, 14534.00
1437.719, 14632.00
1438.766, 14737.00
1439.812, 14868.00
1440.859, 14646.00
1441.905, 14709.00
1442.952, 14754.00
1443.998, 14651.00
1445.044, 14696.00
1446.090, 14726.00
1447.135, 14706.00
1448.181, 14786.00
1449.226, 14882.00
1450.271, 14868.58
1451.316, 15031.00
1452.361, 14833.00
1453.405, 14930.00
1454.450, 14783.00
1455.494, 14828.00
1456.538, 14874.00
1457.582, 14839.00
1458.626, 14695.00
1459.670, 14726.00
1460.713, 14788.00
1461.757, 14935.00
1462.800, 14815.00
1463.843, 14983.00
1464.886, 14985.00
1465.928, 14909.00
1466.971, 14717.00
1468.013, 14924.00
1469.055, 14880.00
1470.097, 15011.00
1471.139, 14953.00
1472.181, 15142.00
1473.222, 15000.00
1474.263, 15054.00
1475.305, 15154.00
1476.346, 15005.00
1477.386, 14950.00
1478.427, 15013.00
1479.468, 15026.00
1480.508, 15003.00
1481.548, 15129.00
1482.588, 15104.00
1483.628, 15057.00
1484.668, 15087.00
1485.707, 15161.00
1486.747, 15090.00
1487.786, 15076.00
1488.825, 15141.00
1489.864, 15107.08
1490.902, 15093.79
1491.941, 15120.00
1492.979, 15077.00
1494.017, 15056.00
1495.055, 15156.00
1496.093, 15252.00
1497.131, 15278.00
1498.168, 15232.00
1499.206, 15184.00
1500.243, 15217.00
1501.280, 15264.00
1502.317, 15273.00
1503.354, 15335.00
1504.390, 15396.00
1505.426, 15291.00
1506.463, 15290.00
1507.499, 15355.00
1508.535, 15337.00
1509.570, 15198.00
1510.606, 15448.00
1511.641, 15220.00
1512.676, 15458.00
1513.711, 15355.00
1514.746, 15443.00
1515.781, 15510.00
1516.816, 15411.00
1517.850, 15609.00
1518.884, 15667.00
1519.918, 15389.00
1520.952, 15521.00
1521.986, 15624.00
1523.019, 15362.00
1524.053, 15590.00
1525.086, 15563.00
1526.119, 15491.00
1527.152, 15464.00
1528.185, 15627.00
1529.217, 15669.00
1530.250, 15616.00
1531.282, 15543.00
1532.314, 15623.00
1533.346, 15523.00
1534.377, 15569.00
1535.409, 15523.00
1536.440, 15664.00
1537.472, 15659.00
1538.503, 15641.00
1539.534, 15649.00
1540.564, 15793.00
1541.595, 15811.00
1542.625, 15609.00
1543.656, 15787.00
1544.686, 15736.00
1545.716, 15859.00
1546.745, 15832.00
1547.775, 15850.00
##END=



