##NAMES=Erythrite
##RRUFFID=R050073
##IDEAL CHEMISTRY=Co^2+^_3_(As^5+^O_4_)_2_&#183;8H_2_O
##LOCALITY=Bou Azzer, Morocco
##OWNER=RRUFF
##SOURCE=Rock Currier
##DESCRIPTION=Crimson flattened crystals
##STATUS=The identification of this mineral has been confirmed by X-ray diffraction and chemical analysis
##URL=rruff.info/R050073
##MEASURED CHEMISTRY=(Co_0.65_Mg_0.35_)_3_(As_1.00_O_4_)_2_Â·8H_2_O
##PIN_ID=M00408
##ORIENTATION=Laser parallel to a* (1 0 0). Fiducial mark perpendicular to laser is parallel to b [0 1 0]
93.48000, 6849.000
94.71400, 6826.000
95.94800, 6775.000
97.18200, 6774.222
98.41600, 6762.730
99.64900, 6821.000
100.8830, 6802.000
102.1160, 6806.000
103.3490, 6898.000
104.5820, 7319.000
105.8150, 8003.000
107.0470, 8814.000
108.2800, 9723.000
109.5120, 10304.00
110.7440, 9602.000
111.9760, 8885.000
113.2080, 8845.000
114.4400, 9489.000
115.6710, 10046.00
116.9030, 10415.00
118.1340, 10435.00
119.3650, 9673.000
120.5960, 9027.000
121.8270, 8628.000
123.0580, 8080.000
124.2880, 7734.000
125.5190, 7380.000
126.7490, 7151.000
127.9790, 7266.000
129.2090, 7180.467
130.4390, 7400.000
131.6680, 7386.000
132.8980, 7336.000
134.1270, 7431.000
135.3560, 7521.000
136.5850, 7702.000
137.8140, 7834.000
139.0430, 8070.000
140.2710, 8238.660
141.5000, 8456.000
142.7280, 8673.000
143.9560, 8985.000
145.1840, 9305.000
146.4120, 9786.000
147.6390, 9856.000
148.8670, 9924.000
150.0940, 9941.000
151.3210, 10579.00
152.5490, 10973.00
153.7750, 11370.00
155.0020, 11466.00
156.2290, 11360.00
157.4550, 10858.00
158.6810, 10117.00
159.9080, 9213.000
161.1340, 8658.000
162.3590, 8230.000
163.5850, 8046.000
164.8110, 7946.000
166.0360, 7900.000
167.2610, 7837.000
168.4860, 7881.000
169.7110, 7877.000
170.9360, 7889.274
172.1610, 8009.000
173.3850, 7954.000
174.6100, 8088.000
175.8340, 8156.000
177.0580, 8179.000
178.2820, 8265.000
179.5050, 8429.000
180.7290, 8539.000
181.9520, 8490.000
183.1760, 8768.000
184.3990, 9038.000
185.6220, 9100.000
186.8450, 9536.000
188.0670, 9893.000
189.2900, 10283.00
190.5120, 10640.00
191.7340, 11038.00
192.9560, 11534.00
194.1780, 11987.00
195.4000, 12299.00
196.6220, 12704.00
197.8430, 13063.00
199.0640, 13582.00
200.2860, 13961.00
201.5070, 14458.00
202.7270, 14784.00
203.9480, 14710.00
205.1690, 14363.00
206.3890, 14094.00
207.6090, 14162.00
208.8290, 14496.00
210.0490, 14896.00
211.2690, 15005.00
212.4890, 14898.00
213.7080, 14861.00
214.9280, 14402.00
216.1470, 13928.00
217.3660, 13962.00
218.5850, 13063.00
219.8030, 12606.00
221.0220, 12338.00
222.2400, 12085.00
223.4590, 12343.00
224.6770, 12128.00
225.8950, 12506.00
227.1120, 12596.00
228.3300, 12883.00
229.5480, 13257.00
230.7650, 13760.00
231.9820, 14322.00
233.1990, 14614.00
234.4160, 15184.00
235.6330, 15384.00
236.8490, 15737.00
238.0660, 16087.00
239.2820, 16373.00
240.4980, 16568.00
241.7140, 16808.58
242.9300, 16951.54
244.1460, 17119.00
245.3610, 17183.00
246.5770, 17223.00
247.7920, 17301.00
249.0070, 17691.00
250.2220, 18199.00
251.4370, 19044.00
252.6510, 19917.00
253.8660, 20922.00
255.0800, 22166.00
256.2940, 23764.00
257.5080, 25101.00
258.7220, 26617.00
259.9360, 28103.00
261.1490, 28627.00
262.3630, 29194.00
263.5760, 29462.00
264.7890, 29507.00
266.0020, 29266.00
267.2150, 28784.00
268.4270, 27878.00
269.6400, 26624.00
270.8520, 25419.00
272.0640, 23909.00
273.2760, 22436.00
274.4880, 21119.00
275.7000, 19466.00
276.9120, 18323.00
278.1230, 16921.00
279.3340, 15901.00
280.5450, 14906.00
281.7560, 14047.00
282.9670, 13288.00
284.1780, 12521.00
285.3880, 12096.00
286.5980, 11470.00
287.8090, 10962.00
289.0190, 10654.00
290.2290, 10240.00
291.4380, 9927.000
292.6480, 9666.000
293.8570, 9483.000
295.0670, 9135.000
296.2760, 9005.000
297.4850, 8849.000
298.6930, 8698.000
299.9020, 8588.000
301.1110, 8521.000
302.3190, 8428.000
303.5270, 8357.000
304.7350, 8167.000
305.9430, 8224.000
307.1510, 8127.000
308.3580, 7984.000
309.5660, 8017.000
310.7730, 8138.000
311.9800, 8076.000
313.1870, 8086.000
314.3940, 8095.000
315.6010, 8073.972
316.8070, 8045.000
318.0130, 8088.000
319.2200, 8019.000
320.4260, 8056.000
321.6310, 8044.000
322.8370, 8111.000
324.0430, 8213.000
325.2480, 8308.000
326.4540, 8382.000
327.6590, 8344.000
328.8640, 8457.000
330.0680, 8496.000
331.2730, 8606.000
332.4780, 8664.000
333.6820, 8773.000
334.8860, 8905.000
336.0900, 8991.000
337.2940, 9073.000
338.4980, 9329.000
339.7010, 9424.000
340.9050, 9557.000
342.1080, 9791.000
343.3110, 10007.00
344.5140, 10178.00
345.7170, 10377.00
346.9200, 10679.00
348.1220, 11025.07
349.3240, 11542.00
350.5270, 11907.00
351.7290, 12480.00
352.9310, 13058.00
354.1320, 13877.00
355.3340, 14496.00
356.5350, 15228.00
357.7370, 16064.00
358.9380, 16877.00
360.1390, 17725.00
361.3400, 18399.00
362.5400, 19049.00
363.7410, 19793.00
364.9410, 20119.00
366.1410, 20525.00
367.3410, 20486.00
368.5410, 20502.00
369.7410, 20212.00
370.9400, 19739.00
372.1400, 19285.00
373.3390, 18693.00
374.5380, 18091.00
375.7370, 17316.00
376.9360, 16764.00
378.1350, 16057.00
379.3330, 15517.00
380.5310, 15061.00
381.7300, 14393.00
382.9280, 13981.00
384.1260, 13581.00
385.3230, 13173.00
386.5210, 12775.00
387.7180, 12487.00
388.9160, 12279.00
390.1130, 11850.00
391.3100, 11597.00
392.5060, 11283.00
393.7030, 11177.00
394.9000, 10988.00
396.0960, 10823.00
397.2920, 10694.00
398.4880, 10431.00
399.6840, 10419.00
400.8800, 10223.00
402.0750, 10022.00
403.2710, 10128.00
404.4660, 10018.00
405.6610, 9866.000
406.8560, 9720.000
408.0510, 9602.000
409.2450, 9559.751
410.4400, 9503.000
411.6340, 9565.000
412.8280, 9470.000
414.0220, 9549.000
415.2160, 9512.000
416.4100, 9527.000
417.6030, 9718.000
418.7970, 9795.000
419.9900, 9956.000
421.1830, 10092.99
422.3760, 10296.00
423.5690, 10520.96
424.7610, 10771.00
425.9540, 11035.00
427.1460, 11367.00
428.3380, 11650.00
429.5300, 11953.00
430.7220, 12364.00
431.9140, 12722.00
433.1050, 13186.00
434.2970, 13468.00
435.4880, 13798.00
436.6790, 13933.00
437.8700, 14057.00
439.0610, 14233.00
440.2510, 14168.00
441.4420, 14185.00
442.6320, 13962.00
443.8220, 13798.00
445.0120, 13695.00
446.2020, 13218.00
447.3910, 12955.00
448.5810, 12596.00
449.7700, 12255.00
450.9600, 11811.00
452.1490, 11566.00
453.3370, 11184.00
454.5260, 10894.00
455.7150, 10759.00
456.9030, 10459.00
458.0910, 10176.00
459.2800, 10039.00
460.4670, 9905.000
461.6550, 9703.000
462.8430, 9634.000
464.0300, 9387.000
465.2180, 9311.000
466.4050, 9140.000
467.5920, 8955.000
468.7790, 8816.000
469.9650, 8729.000
471.1520, 8718.000
472.3380, 8593.000
473.5250, 8632.000
474.7110, 8520.000
475.8970, 8503.000
477.0820, 8464.000
478.2680, 8423.000
479.4540, 8333.000
480.6390, 8341.000
481.8240, 8375.000
483.0090, 8300.000
484.1940, 8252.000
485.3780, 8206.000
486.5630, 8155.000
487.7470, 8261.000
488.9320, 8223.000
490.1160, 8114.000
491.3000, 8301.000
492.4830, 8294.000
493.6670, 8191.000
494.8500, 8061.000
496.0340, 8115.000
497.2170, 8158.000
498.4000, 8284.000
499.5820, 8207.000
500.7650, 8247.000
501.9480, 8240.000
503.1300, 8291.000
504.3120, 8290.000
505.4940, 8246.000
506.6760, 8210.000
507.8580, 8256.000
509.0390, 8216.000
510.2210, 8305.000
511.4020, 8315.000
512.5830, 8229.000
513.7640, 8359.000
514.9450, 8266.000
516.1250, 8331.000
517.3060, 8332.000
518.4860, 8328.000
519.6660, 8388.000
520.8460, 8272.000
522.0260, 8474.000
523.2060, 8326.000
524.3850, 8327.000
525.5650, 8400.000
526.7440, 8432.000
527.9230, 8465.000
529.1020, 8472.174
530.2810, 8475.000
531.4590, 8455.000
532.6380, 8454.000
533.8160, 8449.000
534.9940, 8486.000
536.1720, 8487.000
537.3500, 8484.000
538.5270, 8387.000
539.7050, 8464.000
540.8820, 8462.000
542.0590, 8642.000
543.2360, 8501.000
544.4130, 8569.000
545.5900, 8509.000
546.7660, 8642.000
547.9430, 8600.000
549.1190, 8640.000
550.2950, 8731.000
551.4710, 8741.000
552.6470, 8778.000
553.8220, 8742.000
554.9980, 8750.000
556.1730, 8730.000
557.3480, 8714.000
558.5230, 8819.000
559.6980, 8715.000
560.8730, 8794.000
562.0470, 8895.000
563.2220, 8897.000
564.3960, 8896.000
565.5700, 8888.000
566.7440, 8860.000
567.9170, 8897.000
569.0910, 8863.000
570.2640, 8936.000
571.4380, 8984.000
572.6110, 8877.000
573.7840, 8922.000
574.9570, 8942.000
576.1290, 8947.000
577.3020, 8912.000
578.4740, 8773.000
579.6460, 8707.000
580.8180, 8716.000
581.9900, 8743.000
583.1620, 8718.000
584.3330, 8807.000
585.5040, 8625.000
586.6760, 8665.000
587.8470, 8628.000
589.0180, 8713.000
590.1880, 8645.000
591.3590, 8757.000
592.5290, 8705.000
593.7000, 8741.000
594.8700, 8847.000
596.0400, 8694.000
597.2090, 8889.000
598.3790, 8830.000
599.5490, 8915.000
600.7180, 8927.000
601.8870, 8881.000
603.0560, 8791.000
604.2250, 8829.000
605.3940, 8924.000
606.5620, 8893.000
607.7300, 8992.000
608.8990, 8999.000
610.0670, 8934.000
611.2350, 8932.000
612.4020, 8980.000
613.5700, 8998.000
614.7370, 8970.000
615.9050, 9044.000
617.0720, 9071.000
618.2390, 9034.000
619.4060, 9062.000
620.5720, 9126.000
621.7390, 9157.000
622.9050, 9094.000
624.0710, 9256.000
625.2370, 9113.000
626.4030, 9209.000
627.5690, 9284.000
628.7340, 9181.000
629.9000, 9262.000
631.0650, 9272.000
632.2300, 9275.000
633.3950, 9348.050
634.5600, 9284.000
635.7240, 9387.000
636.8890, 9391.000
638.0530, 9255.000
639.2170, 9302.000
640.3810, 9316.000
641.5450, 9356.000
642.7080, 9362.000
643.8720, 9403.000
645.0350, 9428.565
646.1980, 9434.000
647.3610, 9458.000
648.5240, 9503.000
649.6870, 9455.000
650.8490, 9509.000
652.0120, 9638.000
653.1740, 9568.000
654.3360, 9617.000
655.4980, 9704.000
656.6600, 9546.000
657.8210, 9543.000
658.9830, 9653.000
660.1440, 9774.000
661.3050, 9771.194
662.4660, 9547.000
663.6270, 9781.000
664.7870, 9731.000
665.9480, 9645.000
667.1080, 9727.407
668.2680, 9733.561
669.4280, 9711.000
670.5880, 9863.000
671.7480, 9871.000
672.9070, 9916.000
674.0670, 9871.000
675.2260, 9993.000
676.3850, 10027.00
677.5440, 10050.00
678.7030, 10021.00
679.8610, 10152.00
681.0200, 10183.00
682.1780, 10178.00
683.3360, 10280.00
684.4940, 10241.00
685.6520, 10209.00
686.8090, 10235.00
687.9670, 10307.00
689.1240, 10338.00
690.2810, 10249.00
691.4380, 10454.00
692.5950, 10545.00
693.7520, 10487.00
694.9080, 10454.00
696.0650, 10684.00
697.2210, 10724.00
698.3770, 10737.00
699.5330, 10873.00
700.6880, 10803.00
701.8440, 10853.34
702.9990, 10982.00
704.1550, 10908.00
705.3100, 10947.00
706.4650, 11076.00
707.6190, 11173.00
708.7740, 11163.00
709.9290, 11199.00
711.0830, 11396.00
712.2370, 11337.00
713.3910, 11278.00
714.5450, 11705.00
715.6980, 11512.00
716.8520, 11696.00
718.0050, 11614.00
719.1580, 11808.00
720.3110, 11854.00
721.4640, 11959.00
722.6170, 11899.00
723.7700, 11959.00
724.9220, 12118.00
726.0740, 12201.00
727.2260, 12319.00
728.3780, 12434.00
729.5300, 12486.71
730.6810, 12353.00
731.8330, 12551.00
732.9840, 12615.00
734.1350, 12550.00
735.2860, 12776.00
736.4370, 12718.00
737.5880, 12828.00
738.7380, 12824.00
739.8880, 13112.00
741.0390, 13113.00
742.1890, 13145.00
743.3380, 13396.00
744.4880, 13314.00
745.6380, 13555.00
746.7870, 13709.00
747.9360, 13678.00
749.0850, 13877.00
750.2340, 13902.00
751.3830, 14083.00
752.5310, 14188.00
753.6800, 14356.00
754.8280, 14486.88
755.9760, 14577.00
757.1240, 14737.00
758.2720, 14920.00
759.4190, 15019.00
760.5670, 15450.00
761.7140, 15570.00
762.8610, 15821.00
764.0080, 16179.00
765.1550, 16326.00
766.3020, 16854.00
767.4480, 17110.00
768.5950, 17646.00
769.7410, 17980.00
770.8870, 18727.00
772.0330, 19420.00
773.1780, 19980.00
774.3240, 20887.89
775.4690, 21538.00
776.6140, 22806.00
777.7590, 23857.00
778.9040, 25222.00
780.0490, 26712.00
781.1940, 28575.00
782.3380, 30127.00
783.4820, 32259.00
784.6260, 34947.00
785.7700, 37017.00
786.9140, 39687.00
788.0580, 42679.00
789.2010, 45573.00
790.3450, 48314.00
791.4880, 50866.00
792.6310, 53361.00
793.7730, 55047.00
794.9160, 56641.00
796.0590, 58122.00
797.2010, 58413.00
798.3430, 58327.00
799.4850, 57574.00
800.6270, 56523.00
801.7690, 55015.00
802.9100, 53128.00
804.0520, 50767.00
805.1930, 48797.00
806.3340, 46863.00
807.4750, 44617.00
808.6160, 42377.00
809.7560, 40482.00
810.8970, 38587.00
812.0370, 36428.00
813.1770, 34586.00
814.3170, 32766.00
815.4570, 30961.00
816.5960, 29079.00
817.7360, 27536.00
818.8750, 26011.00
820.0140, 24734.00
821.1530, 23661.00
822.2920, 22416.00
823.4310, 21551.00
824.5690, 20878.00
825.7070, 20163.00
826.8460, 19515.50
827.9840, 18933.96
829.1220, 18389.00
830.2590, 17874.00
831.3970, 17457.00
832.5340, 17040.00
833.6710, 16559.00
834.8080, 16223.00
835.9450, 16172.00
837.0820, 15858.00
838.2190, 15569.00
839.3550, 15170.00
840.4910, 15122.00
841.6270, 14842.00
842.7630, 14661.00
843.8990, 14620.00
845.0350, 14602.00
846.1700, 14259.00
847.3060, 14398.00
848.4410, 14178.00
849.5760, 14099.00
850.7100, 14067.00
851.8450, 14045.48
852.9800, 14085.07
854.1140, 14151.00
855.2480, 14226.00
856.3820, 14292.00
857.5160, 14372.00
858.6500, 14464.00
859.7830, 14548.00
860.9170, 14438.00
862.0500, 14619.00
863.1830, 14498.00
864.3160, 14275.00
865.4480, 14261.00
866.5810, 13996.00
867.7130, 13973.00
868.8460, 13699.00
869.9780, 13429.00
871.1100, 13368.00
872.2410, 13183.00
873.3730, 13029.00
874.5050, 12852.00
875.6360, 12638.00
876.7670, 12693.00
877.8980, 12587.00
879.0290, 12634.00
880.1590, 12417.00
881.2900, 12507.00
882.4200, 12348.00
883.5500, 12363.00
884.6800, 12360.00
885.8100, 12322.00
886.9400, 12287.00
888.0690, 12402.00
889.1990, 12255.00
890.3280, 12285.00
891.4570, 12423.00
892.5860, 12352.00
893.7140, 12382.00
894.8430, 12438.00
895.9710, 12319.00
897.1000, 12393.00
898.2280, 12475.00
899.3560, 12458.00
900.4830, 12421.00
901.6110, 12453.00
902.7380, 12472.00
903.8660, 12424.00
904.9930, 12456.00
906.1200, 12399.00
907.2460, 12430.00
908.3730, 12563.00
909.5000, 12511.00
910.6260, 12512.00
911.7520, 12502.00
912.8780, 12463.00
914.0040, 12427.00
915.1290, 12465.00
916.2550, 12581.00
917.3800, 12757.00
918.5050, 12682.00
919.6300, 12692.00
920.7550, 12574.00
921.8800, 12660.00
923.0040, 12811.00
924.1290, 12755.00
925.2530, 12676.00
926.3770, 12820.00
927.5010, 12707.00
928.6250, 12760.00
929.7480, 12794.00
930.8720, 12772.09
931.9950, 12958.00
933.1180, 12811.00
934.2410, 12966.00
935.3640, 13008.00
936.4860, 12903.00
937.6090, 13053.00
938.7310, 13117.00
939.8530, 13194.00
940.9750, 13142.00
942.0970, 13221.00
943.2180, 13221.00
944.3400, 13262.00
945.4610, 13277.39
946.5820, 13319.00
947.7030, 13280.00
948.8240, 13281.00
949.9450, 13261.00
951.0650, 13293.81
952.1860, 13403.00
953.3060, 13362.00
954.4260, 13446.00
955.5460, 13448.00
956.6650, 13598.00
957.7850, 13680.00
958.9040, 13544.00
960.0230, 13625.00
961.1420, 13528.00
962.2610, 13511.00
963.3800, 13689.00
964.4990, 13675.00
965.6170, 13658.00
966.7350, 13588.00
967.8530, 13509.00
968.9710, 13660.00
970.0890, 13812.00
971.2070, 13682.00
972.3240, 13735.00
973.4410, 13720.00
974.5580, 13625.00
975.6750, 13634.00
976.7920, 13625.17
977.9090, 13567.00
979.0250, 13633.00
980.1410, 13693.00
981.2580, 13658.00
982.3740, 13704.00
983.4890, 13520.00
984.6050, 13632.00
985.7200, 13610.00
986.8360, 13691.00
987.9510, 13690.00
989.0660, 13643.00
990.1810, 13695.00
991.2950, 13677.00
992.4100, 13696.00
993.5240, 13601.00
994.6390, 13609.00
995.7530, 13615.00
996.8660, 13594.00
997.9800, 13787.00
999.0940, 13668.00
1000.207, 13689.00
1001.320, 13645.00
1002.433, 13869.00
1003.546, 13801.00
1004.659, 13842.00
1005.772, 13706.00
1006.884, 13612.00
1007.996, 13661.00
1009.108, 13526.00
1010.220, 13641.00
1011.332, 13535.00
1012.444, 13669.00
1013.555, 13554.00
1014.666, 13758.00
1015.777, 13701.00
1016.888, 13659.00
1017.999, 13781.00
1019.110, 13549.00
1020.220, 13526.00
1021.331, 13619.00
1022.441, 13589.00
1023.551, 13727.00
1024.661, 13764.00
1025.770, 13726.00
1026.880, 13645.00
1027.989, 13805.00
1029.098, 13775.00
1030.207, 13793.00
1031.316, 13744.00
1032.425, 13671.00
1033.533, 13724.77
1034.642, 13889.12
1035.750, 13981.18
1036.858, 14004.83
1037.966, 13755.18
1039.073, 13858.44
1040.181, 13820.27
1041.288, 13776.31
1042.396, 13816.00
1043.503, 13968.00
1044.610, 13772.00
1045.716, 13809.00
1046.823, 13665.00
1047.929, 13735.00
1049.036, 14005.00
1050.142, 13798.00
1051.248, 13932.00
1052.353, 13917.00
1053.459, 13988.00
1054.564, 14036.00
1055.670, 14042.62
1056.775, 13916.00
1057.880, 14041.00
1058.985, 13907.00
1060.089, 13810.00
1061.194, 13893.00
1062.298, 14059.00
1063.402, 13937.00
1064.506, 14134.00
1065.610, 14190.00
1066.713, 14222.00
1067.817, 14068.00
1068.920, 13956.00
1070.023, 14054.00
1071.126, 14112.00
1072.229, 14082.00
1073.332, 13973.00
1074.435, 14023.00
1075.537, 14121.00
1076.639, 14248.00
1077.741, 14113.00
1078.843, 14248.00
1079.945, 14244.00
1081.046, 14111.00
1082.148, 14225.00
1083.249, 14265.00
1084.350, 14276.00
1085.451, 14258.00
1086.551, 14284.00
1087.652, 14324.00
1088.752, 14246.00
1089.853, 14316.00
1090.953, 14314.00
1092.053, 14336.00
1093.152, 14240.00
1094.252, 14354.00
1095.351, 14307.46
1096.451, 14285.00
1097.550, 14309.00
1098.649, 14352.00
1099.748, 14368.00
1100.846, 14327.00
1101.945, 14232.00
1103.043, 14408.00
1104.141, 14432.00
1105.239, 14484.00
1106.337, 14408.00
1107.434, 14527.00
1108.532, 14351.00
1109.629, 14421.00
1110.726, 14731.00
1111.823, 14535.00
1112.920, 14576.00
1114.017, 14660.00
1115.113, 14542.00
1116.210, 14673.00
1117.306, 14723.00
1118.402, 14669.00
1119.498, 14795.00
1120.593, 14798.00
1121.689, 14556.00
1122.784, 14792.00
1123.879, 14678.00
1124.974, 14806.00
1126.069, 14751.00
1127.164, 14593.00
1128.259, 14826.00
1129.353, 14664.00
1130.447, 14916.00
1131.541, 14809.00
1132.635, 14790.00
1133.729, 14663.00
1134.822, 14763.00
1135.916, 14875.00
1137.009, 14874.00
1138.102, 14932.01
1139.195, 14911.00
1140.288, 14972.00
1141.380, 14969.00
1142.473, 15016.00
1143.565, 14950.00
1144.657, 14856.00
1145.749, 14905.00
1146.841, 14996.00
1147.932, 14853.00
1149.024, 14849.00
1150.115, 15046.00
1151.206, 14902.00
1152.297, 15039.00
1153.388, 14957.00
1154.479, 15063.00
1155.569, 15112.00
1156.659, 15115.00
1157.750, 15023.00
1158.839, 15065.00
1159.929, 15051.00
1161.019, 14998.00
1162.108, 15070.00
1163.198, 15240.00
1164.287, 15179.00
1165.376, 15218.00
1166.465, 15133.00
1167.553, 15352.00
1168.642, 15171.00
1169.730, 15303.00
1170.818, 15122.00
1171.906, 15240.00
1172.994, 15298.00
1174.082, 15343.00
1175.170, 15435.00
1176.257, 15448.27
1177.344, 15425.00
1178.431, 15494.00
1179.518, 15476.00
1180.605, 15497.77
1181.691, 15369.00
1182.778, 15447.00
1183.864, 15380.00
1184.950, 15437.00
1186.036, 15407.00
1187.122, 15564.00
1188.207, 15549.58
1189.292, 15603.00
1190.378, 15574.00
1191.463, 15618.00
1192.548, 15565.00
1193.632, 15555.00
1194.717, 15518.00
1195.801, 15402.00
1196.886, 15542.00
1197.970, 15662.00
1199.054, 15673.00
1200.137, 15609.00
1201.221, 15552.00
1202.305, 15530.00
1203.388, 15613.00
1204.471, 15680.00
1205.554, 15679.00
1206.637, 15826.00
1207.719, 15699.00
1208.802, 15811.00
1209.884, 15740.00
1210.966, 15861.00
1212.048, 15614.00
1213.130, 15853.00
1214.212, 15894.00
1215.293, 15756.00
1216.374, 15943.00
1217.456, 15868.32
1218.536, 16235.00
1219.617, 15878.00
1220.698, 16079.00
1221.778, 16148.00
1222.859, 15982.00
1223.939, 16020.00
1225.019, 15998.00
1226.099, 15873.00
1227.178, 16048.00
1228.258, 16073.00
1229.337, 16193.00
1230.417, 16263.00
1231.496, 16062.00
1232.574, 16132.00
1233.653, 16118.00
1234.732, 16180.00
1235.810, 16367.00
1236.888, 16140.00
1237.966, 16441.91
1239.044, 16620.48
1240.122, 16726.76
1241.199, 16764.63
1242.277, 16529.21
1243.354, 16646.68
1244.431, 16622.72
1245.508, 16592.96
1246.585, 16760.10
1247.661, 16448.00
1248.738, 16440.00
1249.814, 16451.00
1250.890, 16641.00
1251.966, 16492.00
1253.042, 16578.00
1254.117, 16507.00
1255.193, 16669.00
1256.268, 16700.00
1257.343, 16661.00
1258.418, 16763.00
1259.493, 16681.00
1260.567, 16710.00
1261.642, 16632.00
1262.716, 16694.00
1263.790, 16629.00
1264.864, 16813.00
1265.938, 16870.00
1267.011, 16728.00
1268.085, 16765.00
1269.158, 16708.00
1270.231, 16839.00
1271.304, 16989.00
1272.377, 16991.00
1273.450, 16990.00
1274.522, 16941.00
1275.594, 16994.00
1276.666, 17210.00
1277.738, 17228.00
1278.810, 17012.00
1279.882, 17203.00
1280.953, 17062.00
1282.025, 17005.00
1283.096, 17039.00
1284.167, 17197.00
1285.238, 17196.00
1286.308, 17127.00
1287.379, 17243.00
1288.449, 17213.00
1289.519, 17292.00
1290.589, 17324.00
1291.659, 17256.00
1292.729, 17357.00
1293.798, 17311.00
1294.868, 17396.00
1295.937, 17353.00
1297.006, 17553.00
1298.075, 17424.00
1299.143, 17496.00
1300.212, 17451.00
1301.280, 17456.00
1302.348, 17385.00
1303.416, 17506.00
1304.484, 17549.00
1305.552, 17512.24
1306.620, 17555.00
1307.687, 17487.00
1308.754, 17539.00
1309.821, 17571.00
1310.888, 17562.00
1311.955, 17713.00
1313.021, 17678.00
1314.088, 17783.00
1315.154, 17635.00
1316.220, 17822.00
1317.286, 17725.00
1318.352, 17813.00
1319.417, 17767.00
1320.483, 17834.00
1321.548, 17856.00
1322.613, 17849.00
1323.678, 17726.00
1324.743, 17952.00
1325.807, 17775.00
1326.872, 17988.00
1327.936, 17956.00
1329.000, 18027.00
1330.064, 17955.00
1331.128, 18003.00
1332.191, 17998.00
1333.255, 17974.00
1334.318, 17944.00
1335.381, 17944.84
1336.444, 17934.36
1337.507, 17947.00
1338.569, 17944.00
1339.632, 17969.36
1340.694, 17990.81
1341.756, 18110.00
1342.818, 18086.00
1343.880, 18210.00
1344.941, 18281.00
1346.003, 18218.00
1347.064, 18427.00
1348.125, 18387.00
1349.186, 18426.00
1350.247, 18092.00
1351.308, 18358.00
1352.368, 18210.00
1353.428, 18265.00
1354.489, 18443.00
1355.549, 18290.00
1356.608, 18441.00
1357.668, 18284.00
1358.727, 18474.00
1359.787, 18515.00
1360.846, 18587.00
1361.905, 18505.00
1362.964, 18473.00
1364.022, 18544.00
1365.081, 18704.00
1366.139, 18628.00
1367.197, 18736.00
1368.255, 18557.00
1369.313, 18632.00
1370.371, 18536.00
1371.428, 18505.94
1372.486, 18780.00
1373.543, 18543.00
1374.600, 18723.00
1375.657, 18932.00
1376.713, 18869.00
1377.770, 18679.00
1378.826, 18801.00
1379.882, 18775.00
1380.938, 18829.00
1381.994, 18709.00
1383.050, 18990.00
1384.106, 19146.00
1385.161, 19076.00
1386.216, 19079.00
1387.271, 19099.00
1388.326, 19068.00
1389.381, 19143.00
1390.435, 19000.00
1391.490, 19166.00
1392.544, 19269.00
1393.598, 19185.00
1394.652, 19142.00
1395.705, 19099.00
1396.759, 19099.97
1397.812, 19235.00
1398.866, 19150.00
1399.919, 19234.00
1400.972, 19285.00
1402.024, 19295.00
1403.077, 19358.56
1404.129, 19459.00
1405.181, 19406.00
1406.233, 19417.00
1407.285, 19373.00
1408.337, 19647.00
1409.389, 19554.00
1410.440, 19673.00
1411.491, 19693.00
1412.542, 19589.00
1413.593, 19660.00
1414.644, 19669.00
1415.695, 19681.00
1416.745, 19640.00
1417.795, 19744.00
1418.845, 19720.14
1419.895, 19786.00
1420.945, 19732.00
1421.995, 19722.00
1423.044, 19690.00
1424.093, 19755.00
1425.142, 19735.00
1426.191, 20005.00
1427.240, 19906.00
1428.289, 19976.00
1429.337, 20098.00
1430.385, 20013.00
1431.433, 19967.00
1432.481, 20050.00
1433.529, 20192.00
1434.577, 19977.00
1435.624, 20204.00
1436.672, 20186.00
1437.719, 20122.00
1438.766, 20196.00
1439.812, 20124.00
1440.859, 20378.00
1441.905, 20422.00
1442.952, 20481.00
1443.998, 20500.00
1445.044, 20444.00
1446.090, 20765.00
1447.135, 20566.57
1448.181, 20684.00
1449.226, 20443.00
1450.271, 20659.00
1451.316, 20796.00
1452.361, 20743.00
1453.405, 20596.00
1454.450, 20707.00
1455.494, 20539.00
1456.538, 20870.00
1457.582, 20854.00
1458.626, 20903.00
1459.670, 20865.00
1460.713, 20681.00
1461.757, 21031.00
1462.800, 21061.00
1463.843, 20890.00
1464.886, 21115.00
1465.928, 20880.00
1466.971, 20907.00
1468.013, 21019.00
1469.055, 21160.00
1470.097, 20951.00
1471.139, 21032.00
1472.181, 21060.00
1473.222, 21049.00
1474.263, 21117.00
1475.305, 21061.00
1476.346, 21205.00
1477.386, 21246.00
1478.427, 21212.00
1479.468, 21282.00
1480.508, 21321.00
1481.548, 21404.00
1482.588, 21383.00
1483.628, 21409.56
1484.668, 21350.00
1485.707, 21446.00
1486.747, 21429.00
1487.786, 21543.00
1488.825, 21552.00
1489.864, 21554.00
1490.902, 21551.00
1491.941, 21633.00
1492.979, 21617.00
1494.017, 21702.00
1495.055, 21523.00
1496.093, 21695.00
1497.131, 21941.00
1498.168, 22033.00
1499.206, 21875.00
1500.243, 21787.00
1501.280, 21631.00
1502.317, 21875.00
1503.354, 22012.00
1504.390, 21824.00
1505.426, 21940.00
1506.463, 21936.00
1507.499, 21959.00
1508.535, 21994.00
1509.570, 21990.97
1510.606, 22073.00
1511.641, 22027.00
1512.676, 22062.00
1513.711, 22129.00
1514.746, 22287.00
1515.781, 22216.00
1516.816, 22079.00
1517.850, 22284.00
1518.884, 22108.00
1519.918, 22104.00
1520.952, 22396.00
1521.986, 22351.00
1523.019, 22370.00
1524.053, 22422.00
1525.086, 22448.00
1526.119, 22488.00
1527.152, 22651.00
1528.185, 22586.00
1529.217, 22616.00
1530.250, 22732.00
1531.282, 22568.00
1532.314, 22687.00
1533.346, 22568.00
1534.377, 22566.49
1535.409, 22930.00
1536.440, 22667.00
1537.472, 22723.00
1538.503, 23039.00
1539.534, 22926.00
1540.564, 22698.00
1541.595, 22957.00
1542.625, 23060.00
1543.656, 22955.00
1544.686, 23098.00
1545.716, 23061.00
1546.745, 23276.00
1547.775, 23383.00
1548.804, 23268.00
1549.834, 23283.00
1550.863, 23556.00
1551.892, 23593.00
1552.920, 23601.00
1553.949, 23771.00
1554.977, 23735.00
1556.006, 23532.00
1557.034, 23607.00
1558.062, 23354.00
1559.089, 23492.00
1560.117, 23435.00
1561.144, 23571.00
1562.172, 23664.00
1563.199, 23715.00
1564.226, 23634.00
1565.252, 23693.00
1566.279, 23816.00
1567.305, 23991.00
1568.332, 23709.00
1569.358, 23948.00
1570.384, 23967.00
##END=



