##NAMES=Erythrite
##RRUFFID=R050073
##IDEAL CHEMISTRY=Co^2+^_3_(As^5+^O_4_)_2_&#183;8H_2_O
##LOCALITY=Bou Azzer, Morocco
##OWNER=RRUFF
##SOURCE=Rock Currier
##DESCRIPTION=Crimson flattened crystals
##STATUS=The identification of this mineral has been confirmed by X-ray diffraction and chemical analysis
##URL=rruff.info/R050073
##MEASURED CHEMISTRY=(Co_0.65_Mg_0.35_)_3_(As_1.00_O_4_)_2_Â·8H_2_O
##PIN_ID=M00408
##ORIENTATION=Laser parallel to a* (1 0 0). Fiducial mark perpendicular to laser is parallel to b [0 1 0]
93.48000, 9998.000
94.71400, 10018.00
95.94800, 9997.000
97.18200, 10023.07
98.41600, 9758.000
99.64900, 9993.000
100.8830, 9717.000
102.1160, 9625.000
103.3490, 9951.000
104.5820, 10469.00
105.8150, 11237.00
107.0470, 12357.00
108.2800, 13254.00
109.5120, 14188.00
110.7440, 13001.00
111.9760, 11736.00
113.2080, 11795.00
114.4400, 12375.00
115.6710, 13207.00
116.9030, 13204.00
118.1340, 13719.00
119.3650, 12336.00
120.5960, 11558.00
121.8270, 11235.00
123.0580, 11198.00
124.2880, 11137.00
125.5190, 10752.00
126.7490, 10726.00
127.9790, 10952.00
129.2090, 11306.00
130.4390, 11529.00
131.6680, 11642.00
132.8980, 11670.00
134.1270, 11821.00
135.3560, 11886.00
136.5850, 12340.00
137.8140, 12503.00
139.0430, 12764.00
140.2710, 12847.00
141.5000, 12635.00
142.7280, 12495.00
143.9560, 12867.00
145.1840, 13063.00
146.4120, 13399.00
147.6390, 13405.00
148.8670, 13568.00
150.0940, 13899.00
151.3210, 14666.00
152.5490, 15315.00
153.7750, 15613.00
155.0020, 15862.00
156.2290, 15634.00
157.4550, 15529.00
158.6810, 15320.00
159.9080, 15041.00
161.1340, 14834.00
162.3590, 14485.00
163.5850, 14491.00
164.8110, 14364.00
166.0360, 14254.00
167.2610, 13818.00
168.4860, 13540.00
169.7110, 13427.00
170.9360, 13183.00
172.1610, 13232.00
173.3850, 13219.00
174.6100, 13132.00
175.8340, 13387.00
177.0580, 13553.00
178.2820, 13632.00
179.5050, 13804.00
180.7290, 13770.00
181.9520, 13949.00
183.1760, 13988.00
184.3990, 14211.00
185.6220, 14673.00
186.8450, 15104.00
188.0670, 15542.00
189.2900, 16081.00
190.5120, 16547.00
191.7340, 17025.00
192.9560, 17355.10
194.1780, 17746.00
195.4000, 17918.00
196.6220, 18070.00
197.8430, 18290.00
199.0640, 18166.00
200.2860, 18385.00
201.5070, 18799.00
202.7270, 18811.00
203.9480, 17886.00
205.1690, 16627.00
206.3890, 15759.00
207.6090, 15267.00
208.8290, 15221.00
210.0490, 15328.00
211.2690, 15177.00
212.4890, 14975.00
213.7080, 14715.00
214.9280, 14580.88
216.1470, 14565.00
217.3660, 14226.00
218.5850, 14134.00
219.8030, 13905.00
221.0220, 13891.00
222.2400, 13645.00
223.4590, 13695.00
224.6770, 13731.00
225.8950, 13791.00
227.1120, 13908.00
228.3300, 14199.00
229.5480, 14626.00
230.7650, 14788.00
231.9820, 15488.00
233.1990, 15749.00
234.4160, 16247.00
235.6330, 16431.00
236.8490, 16804.00
238.0660, 17308.00
239.2820, 17692.00
240.4980, 18004.00
241.7140, 18260.91
242.9300, 18444.00
244.1460, 18529.00
245.3610, 18631.00
246.5770, 18587.00
247.7920, 18479.00
249.0070, 18415.00
250.2220, 18607.00
251.4370, 18937.00
252.6510, 19350.00
253.8660, 19954.00
255.0800, 20688.00
256.2940, 21141.00
257.5080, 21664.00
258.7220, 22758.00
259.9360, 22766.95
261.1490, 23540.00
262.3630, 23007.00
263.5760, 22611.00
264.7890, 22432.00
266.0020, 21795.00
267.2150, 21472.00
268.4270, 20888.00
269.6400, 20080.00
270.8520, 19594.00
272.0640, 18787.00
273.2760, 18011.00
274.4880, 17262.00
275.7000, 16616.00
276.9120, 15999.00
278.1230, 15407.00
279.3340, 14830.00
280.5450, 14322.00
281.7560, 14009.00
282.9670, 13611.00
284.1780, 13226.00
285.3880, 13072.00
286.5980, 12862.00
287.8090, 12666.00
289.0190, 12504.11
290.2290, 12355.58
291.4380, 12237.00
292.6480, 12062.00
293.8570, 12081.00
295.0670, 11854.00
296.2760, 11832.00
297.4850, 11934.00
298.6930, 11937.00
299.9020, 11801.00
301.1110, 11642.00
302.3190, 11810.00
303.5270, 11756.00
304.7350, 11918.00
305.9430, 11875.00
307.1510, 11799.00
308.3580, 11686.00
309.5660, 12016.00
310.7730, 11974.00
311.9800, 11974.00
313.1870, 11891.00
314.3940, 11988.00
315.6010, 11959.00
316.8070, 11829.00
318.0130, 11847.00
319.2200, 11689.00
320.4260, 11690.00
321.6310, 11615.00
322.8370, 11437.00
324.0430, 11429.00
325.2480, 11487.00
326.4540, 11420.63
327.6590, 11442.00
328.8640, 11420.00
330.0680, 11298.00
331.2730, 11254.00
332.4780, 11324.00
333.6820, 11410.00
334.8860, 11366.00
336.0900, 11493.00
337.2940, 11487.00
338.4980, 11554.00
339.7010, 11539.00
340.9050, 11875.00
342.1080, 11947.00
343.3110, 12061.00
344.5140, 12123.00
345.7170, 12224.00
346.9200, 12356.00
348.1220, 12604.00
349.3240, 12780.83
350.5270, 12996.00
351.7290, 13304.00
352.9310, 13562.00
354.1320, 13936.00
355.3340, 14308.00
356.5350, 14517.00
357.7370, 14944.57
358.9380, 15258.57
360.1390, 15647.00
361.3400, 15899.00
362.5400, 16144.00
363.7410, 16311.00
364.9410, 16836.00
366.1410, 16758.00
367.3410, 17028.00
368.5410, 17075.00
369.7410, 17055.00
370.9400, 16700.00
372.1400, 16665.00
373.3390, 16542.00
374.5380, 16375.00
375.7370, 16116.00
376.9360, 16055.00
378.1350, 15806.00
379.3330, 15898.00
380.5310, 15546.00
381.7300, 15551.00
382.9280, 15542.00
384.1260, 15527.00
385.3230, 15309.00
386.5210, 15273.00
387.7180, 15267.00
388.9160, 15427.00
390.1130, 15406.00
391.3100, 15587.00
392.5060, 15380.00
393.7030, 15362.00
394.9000, 15386.00
396.0960, 15581.00
397.2920, 15462.45
398.4880, 15391.00
399.6840, 15333.00
400.8800, 15190.00
402.0750, 15095.00
403.2710, 15147.00
404.4660, 14986.00
405.6610, 14884.00
406.8560, 14817.00
408.0510, 14513.00
409.2450, 14448.33
410.4400, 14399.92
411.6340, 14279.00
412.8280, 14387.00
414.0220, 14562.00
415.2160, 14571.00
416.4100, 14631.00
417.6030, 14732.00
418.7970, 15070.00
419.9900, 15050.00
421.1830, 15583.00
422.3760, 15895.00
423.5690, 16197.00
424.7610, 16511.00
425.9540, 17021.00
427.1460, 17655.00
428.3380, 18138.00
429.5300, 18920.00
430.7220, 19506.00
431.9140, 20230.00
433.1050, 21105.00
434.2970, 21569.00
435.4880, 22516.00
436.6790, 23229.00
437.8700, 23756.00
439.0610, 24072.00
440.2510, 24523.00
441.4420, 24822.00
442.6320, 24663.00
443.8220, 24394.00
445.0120, 24208.00
446.2020, 23842.00
447.3910, 23217.00
448.5810, 22489.00
449.7700, 21857.00
450.9600, 20922.00
452.1490, 20228.00
453.3370, 19496.00
454.5260, 18683.00
455.7150, 17934.00
456.9030, 17293.00
458.0910, 16649.00
459.2800, 16226.00
460.4670, 15485.00
461.6550, 15156.00
462.8430, 14697.00
464.0300, 14262.00
465.2180, 13965.00
466.4050, 13690.00
467.5920, 13353.00
468.7790, 13058.00
469.9650, 12792.00
471.1520, 12696.00
472.3380, 12504.00
473.5250, 12389.00
474.7110, 12249.00
475.8970, 11971.00
477.0820, 11984.00
478.2680, 11862.00
479.4540, 12005.00
480.6390, 11872.00
481.8240, 11704.00
483.0090, 11733.00
484.1940, 11604.00
485.3780, 11627.00
486.5630, 11495.00
487.7470, 11465.00
488.9320, 11446.00
490.1160, 11481.00
491.3000, 11355.00
492.4830, 11395.63
493.6670, 11308.80
494.8500, 11420.00
496.0340, 11226.00
497.2170, 11275.00
498.4000, 11383.00
499.5820, 11368.00
500.7650, 11282.00
501.9480, 11193.00
503.1300, 11165.00
504.3120, 11283.00
505.4940, 11198.00
506.6760, 11233.00
507.8580, 11241.00
509.0390, 11093.00
510.2210, 11246.00
511.4020, 11292.00
512.5830, 11280.00
513.7640, 11200.00
514.9450, 11150.00
516.1250, 11233.00
517.3060, 11266.00
518.4860, 11296.00
519.6660, 11248.00
520.8460, 11186.00
522.0260, 11272.00
523.2060, 11253.00
524.3850, 11142.00
525.5650, 11403.00
526.7440, 11265.00
527.9230, 11303.00
529.1020, 11291.00
530.2810, 11305.00
531.4590, 11292.00
532.6380, 11327.28
533.8160, 11354.00
534.9940, 11377.00
536.1720, 11367.51
537.3500, 11338.00
538.5270, 11290.00
539.7050, 11310.00
540.8820, 11275.00
542.0590, 11406.00
543.2360, 11421.00
544.4130, 11485.00
545.5900, 11536.00
546.7660, 11364.00
547.9430, 11484.00
549.1190, 11560.00
550.2950, 11444.00
551.4710, 11625.00
552.6470, 11588.00
553.8220, 11545.00
554.9980, 11476.00
556.1730, 11588.00
557.3480, 11497.00
558.5230, 11648.00
559.6980, 11600.00
560.8730, 11568.00
562.0470, 11626.00
563.2220, 11750.00
564.3960, 11642.00
565.5700, 11705.00
566.7440, 11869.00
567.9170, 11847.00
569.0910, 11861.26
570.2640, 11897.00
571.4380, 11753.12
572.6110, 11772.00
573.7840, 11662.00
574.9570, 11722.00
576.1290, 11583.00
577.3020, 11623.00
578.4740, 11583.00
579.6460, 11470.00
580.8180, 11618.00
581.9900, 11473.00
583.1620, 11582.00
584.3330, 11358.00
585.5040, 11618.00
586.6760, 11567.00
587.8470, 11496.00
589.0180, 11515.00
590.1880, 11478.00
591.3590, 11486.00
592.5290, 11552.00
593.7000, 11474.00
594.8700, 11674.00
596.0400, 11617.00
597.2090, 11678.00
598.3790, 11679.00
599.5490, 11646.00
600.7180, 11700.40
601.8870, 11749.00
603.0560, 11739.00
604.2250, 11749.00
605.3940, 11727.00
606.5620, 11729.04
607.7300, 11875.00
608.8990, 11701.00
610.0670, 11796.00
611.2350, 11748.00
612.4020, 11667.00
613.5700, 11752.00
614.7370, 11710.00
615.9050, 11732.00
617.0720, 11754.00
618.2390, 11864.00
619.4060, 11793.00
620.5720, 11746.00
621.7390, 11902.00
622.9050, 11827.00
624.0710, 11884.00
625.2370, 11735.00
626.4030, 11797.00
627.5690, 11957.00
628.7340, 11799.00
629.9000, 11756.00
631.0650, 11746.00
632.2300, 11720.79
633.3950, 11823.00
634.5600, 11795.00
635.7240, 11860.00
636.8890, 11941.00
638.0530, 11886.00
639.2170, 11877.00
640.3810, 11906.00
641.5450, 11902.77
642.7080, 11847.00
643.8720, 11960.00
645.0350, 12011.00
646.1980, 12049.00
647.3610, 11812.00
648.5240, 11958.00
649.6870, 11849.00
650.8490, 12043.00
652.0120, 11991.00
653.1740, 11915.00
654.3360, 11914.00
655.4980, 12003.00
656.6600, 11999.00
657.8210, 12065.00
658.9830, 11950.00
660.1440, 11920.00
661.3050, 12084.00
662.4660, 12039.00
663.6270, 12145.00
664.7870, 12154.00
665.9480, 11942.00
667.1080, 12077.00
668.2680, 12120.00
669.4280, 12245.00
670.5880, 12070.00
671.7480, 11984.00
672.9070, 12109.00
674.0670, 12100.00
675.2260, 12029.00
676.3850, 12078.00
677.5440, 12045.00
678.7030, 12088.00
679.8610, 12144.00
681.0200, 12159.00
682.1780, 12228.00
683.3360, 12202.00
684.4940, 12186.00
685.6520, 12177.00
686.8090, 12241.00
687.9670, 12310.00
689.1240, 12294.00
690.2810, 12215.00
691.4380, 12225.00
692.5950, 12266.00
693.7520, 12315.00
694.9080, 12362.87
696.0650, 12338.00
697.2210, 12452.00
698.3770, 12565.00
699.5330, 12539.00
700.6880, 12529.00
701.8440, 12567.00
702.9990, 12498.00
704.1550, 12525.00
705.3100, 12562.00
706.4650, 12534.00
707.6190, 12593.26
708.7740, 12699.00
709.9290, 12726.00
711.0830, 12785.46
712.2370, 12819.00
713.3910, 12842.00
714.5450, 12915.00
715.6980, 12896.00
716.8520, 12940.01
718.0050, 12895.00
719.1580, 12996.00
720.3110, 12977.00
721.4640, 13023.00
722.6170, 13055.43
723.7700, 13158.00
724.9220, 13088.00
726.0740, 13162.00
727.2260, 13153.82
728.3780, 13252.00
729.5300, 13307.00
730.6810, 13354.00
731.8330, 13527.00
732.9840, 13478.00
734.1350, 13577.00
735.2860, 13908.00
736.4370, 13782.83
737.5880, 13844.88
738.7380, 13724.00
739.8880, 13822.00
741.0390, 13755.00
742.1890, 13966.00
743.3380, 13899.00
744.4880, 14122.00
745.6380, 14238.00
746.7870, 14152.00
747.9360, 14265.00
749.0850, 14324.00
750.2340, 14362.00
751.3830, 14555.00
752.5310, 14634.00
753.6800, 14892.00
754.8280, 14835.00
755.9760, 15062.00
757.1240, 15117.00
758.2720, 15458.00
759.4190, 15523.00
760.5670, 15808.00
761.7140, 15922.00
762.8610, 15998.00
764.0080, 16306.00
765.1550, 16541.00
766.3020, 16948.00
767.4480, 17305.00
768.5950, 17632.00
769.7410, 18298.00
770.8870, 18452.00
772.0330, 19086.00
773.1780, 19836.00
774.3240, 20333.00
775.4690, 21123.00
776.6140, 21987.00
777.7590, 23152.00
778.9040, 24392.00
780.0490, 25621.00
781.1940, 27031.00
782.3380, 28704.00
783.4820, 30734.00
784.6260, 32882.00
785.7700, 34888.00
786.9140, 37435.00
788.0580, 39855.00
789.2010, 42460.00
790.3450, 45695.00
791.4880, 47611.00
792.6310, 50690.00
793.7730, 52434.00
794.9160, 54238.00
796.0590, 55697.00
797.2010, 56509.00
798.3430, 56792.00
799.4850, 56876.00
800.6270, 56230.00
801.7690, 54920.00
802.9100, 53546.00
804.0520, 51625.00
805.1930, 49673.00
806.3340, 47984.00
807.4750, 46009.00
808.6160, 44053.00
809.7560, 42077.00
810.8970, 40458.00
812.0370, 38748.00
813.1770, 37299.00
814.3170, 35901.00
815.4570, 34354.89
816.5960, 32645.00
817.7360, 31645.00
818.8750, 30336.00
820.0140, 29411.00
821.1530, 28565.00
822.2920, 27781.00
823.4310, 27127.00
824.5690, 26462.00
825.7070, 25760.87
826.8460, 25152.69
827.9840, 24537.00
829.1220, 23971.00
830.2590, 23607.00
831.3970, 23154.00
832.5340, 23048.00
833.6710, 22484.00
834.8080, 22301.00
835.9450, 21924.00
837.0820, 21868.00
838.2190, 21568.00
839.3550, 21591.00
840.4910, 21401.00
841.6270, 21566.00
842.7630, 21595.00
843.8990, 21983.00
845.0350, 22263.00
846.1700, 22523.00
847.3060, 23330.00
848.4410, 23954.00
849.5760, 24743.00
850.7100, 25437.00
851.8450, 26750.00
852.9800, 27873.00
854.1140, 29290.00
855.2480, 30538.00
856.3820, 32307.00
857.5160, 33375.00
858.6500, 34578.00
859.7830, 35466.00
860.9170, 35956.00
862.0500, 36436.00
863.1830, 36338.89
864.3160, 36132.00
865.4480, 35358.00
866.5810, 34408.00
867.7130, 33081.00
868.8460, 31828.00
869.9780, 30456.00
871.1100, 28768.00
872.2410, 27244.00
873.3730, 25703.00
874.5050, 24418.69
875.6360, 23066.00
876.7670, 22147.00
877.8980, 21275.00
879.0290, 20466.00
880.1590, 19944.00
881.2900, 19431.00
882.4200, 18949.00
883.5500, 18587.00
884.6800, 18174.00
885.8100, 17973.00
886.9400, 17662.00
888.0690, 17456.00
889.1990, 17287.00
890.3280, 17071.05
891.4570, 16844.00
892.5860, 16781.00
893.7140, 16642.00
894.8430, 16600.00
895.9710, 16510.12
897.1000, 16494.00
898.2280, 16265.00
899.3560, 16327.00
900.4830, 16004.00
901.6110, 15904.00
902.7380, 16004.00
903.8660, 15757.00
904.9930, 15709.00
906.1200, 15789.00
907.2460, 15522.00
908.3730, 15497.00
909.5000, 15409.00
910.6260, 15294.00
911.7520, 15277.00
912.8780, 15307.00
914.0040, 15258.00
915.1290, 15197.00
916.2550, 15124.28
917.3800, 15069.00
918.5050, 14899.00
919.6300, 14769.00
920.7550, 14628.00
921.8800, 14837.00
923.0040, 14732.00
924.1290, 14663.00
925.2530, 14656.00
926.3770, 14595.00
927.5010, 14441.00
928.6250, 14506.00
929.7480, 14476.00
930.8720, 14538.00
931.9950, 14490.00
933.1180, 14467.00
934.2410, 14481.00
935.3640, 14432.00
936.4860, 14397.00
937.6090, 14392.00
938.7310, 14362.15
939.8530, 14327.00
940.9750, 14343.00
942.0970, 14300.07
943.2180, 14304.49
944.3400, 14313.00
945.4610, 14213.00
946.5820, 14224.00
947.7030, 14249.00
948.8240, 14385.00
949.9450, 14184.00
951.0650, 14253.00
952.1860, 14285.58
953.3060, 14351.00
954.4260, 14367.00
955.5460, 14381.87
956.6650, 14381.00
957.7850, 14203.00
958.9040, 14347.00
960.0230, 14292.00
961.1420, 14459.00
962.2610, 14413.00
963.3800, 14249.00
964.4990, 14313.00
965.6170, 14244.00
966.7350, 14350.00
967.8530, 14142.00
968.9710, 14150.00
970.0890, 14353.00
971.2070, 14159.00
972.3240, 14193.00
973.4410, 14287.00
974.5580, 14133.00
975.6750, 14129.00
976.7920, 14050.00
977.9090, 14046.59
979.0250, 14279.00
980.1410, 14120.00
981.2580, 14152.00
982.3740, 14266.00
983.4890, 14092.00
984.6050, 14366.00
985.7200, 14197.00
986.8360, 14056.00
987.9510, 14160.00
989.0660, 14292.00
990.1810, 14107.00
991.2950, 14163.00
992.4100, 14165.00
993.5240, 14131.00
994.6390, 14133.00
995.7530, 14049.00
996.8660, 13992.00
997.9800, 14173.00
999.0940, 14131.00
1000.207, 14111.00
1001.320, 14047.00
1002.433, 14122.00
1003.546, 14138.00
1004.659, 14128.00
1005.772, 13929.00
1006.884, 13919.00
1007.996, 13977.00
1009.108, 14008.00
1010.220, 14015.00
1011.332, 13849.00
1012.444, 14114.00
1013.555, 13969.00
1014.666, 14068.00
1015.777, 13897.00
1016.888, 13848.00
1017.999, 13968.00
1019.110, 13868.00
1020.220, 13485.42
1021.331, 13714.84
1022.441, 13851.90
1023.551, 13901.59
1024.661, 13602.22
1025.770, 13964.00
1026.880, 13968.00
1027.989, 14005.00
1029.098, 13941.00
1030.207, 13986.00
1031.316, 13866.00
1032.425, 13922.00
1033.533, 13908.00
1034.642, 13972.00
1035.750, 14048.00
1036.858, 14000.00
1037.966, 13960.00
1039.073, 14037.00
1040.181, 13861.00
1041.288, 13972.00
1042.396, 13979.00
1043.503, 14166.00
1044.610, 13981.00
1045.716, 13925.00
1046.823, 13948.00
1047.929, 14014.00
1049.036, 14092.00
1050.142, 13987.00
1051.248, 13891.00
1052.353, 13949.00
1053.459, 14109.00
1054.564, 14079.00
1055.670, 14093.00
1056.775, 14156.00
1057.880, 14015.00
1058.985, 14029.00
1060.089, 14173.00
1061.194, 14055.00
1062.298, 14008.00
1063.402, 13989.00
1064.506, 14064.00
1065.610, 14003.00
1066.713, 14102.00
1067.817, 14130.00
1068.920, 13973.00
1070.023, 14173.00
1071.126, 14250.00
1072.229, 14200.00
1073.332, 14133.00
1074.435, 13978.00
1075.537, 14049.00
1076.639, 14111.00
1077.741, 14140.00
1078.843, 14135.73
1079.945, 14119.00
1081.046, 14103.00
1082.148, 14113.93
1083.249, 14150.12
1084.350, 14116.00
1085.451, 14209.00
1086.551, 14042.00
1087.652, 14215.00
1088.752, 14244.00
1089.853, 14179.24
1090.953, 14254.00
1092.053, 14112.00
1093.152, 14048.00
1094.252, 14017.00
1095.351, 14145.00
1096.451, 13989.00
1097.550, 14367.00
1098.649, 14223.00
1099.748, 14126.00
1100.846, 14217.00
1101.945, 14108.00
1103.043, 14258.00
1104.141, 14230.00
1105.239, 14178.00
1106.337, 14093.00
1107.434, 14159.00
1108.532, 14257.00
1109.629, 14179.00
1110.726, 14298.00
1111.823, 14139.00
1112.920, 13991.59
1114.017, 14200.29
1115.113, 14316.66
1116.210, 14345.66
1117.306, 14025.59
1118.402, 14156.26
1119.498, 14106.30
1120.593, 14048.94
1121.689, 14243.05
1122.784, 13973.76
1123.879, 14163.88
1124.974, 14170.62
1126.069, 14261.29
1127.164, 14170.21
1128.259, 14135.26
1129.353, 14282.13
1130.447, 14328.33
1131.541, 14216.32
1132.635, 14312.33
1133.729, 14036.69
1134.822, 14087.18
1135.916, 14209.00
1137.009, 14133.00
1138.102, 14285.00
1139.195, 14087.00
1140.288, 14232.00
1141.380, 14255.00
1142.473, 14290.00
1143.565, 14173.00
1144.657, 14223.00
1145.749, 14204.00
1146.841, 14267.00
1147.932, 14253.88
1149.024, 14162.00
1150.115, 14221.00
1151.206, 14220.00
1152.297, 14155.00
1153.388, 14305.00
1154.479, 14137.00
1155.569, 14213.00
1156.659, 14363.00
1157.750, 14394.00
1158.839, 14236.00
1159.929, 14259.00
1161.019, 14080.00
1162.108, 14313.00
1163.198, 14358.00
1164.287, 14142.00
1165.376, 14294.00
1166.465, 14298.00
1167.553, 14234.00
1168.642, 14259.00
1169.730, 14180.00
1170.818, 14256.00
1171.906, 14287.00
1172.994, 14363.00
1174.082, 14309.00
1175.170, 14295.00
1176.257, 14277.00
1177.344, 14353.00
1178.431, 14288.00
1179.518, 14333.00
1180.605, 14357.00
1181.691, 14299.00
1182.778, 14267.00
1183.864, 14246.80
1184.950, 14256.00
1186.036, 14251.00
1187.122, 14337.00
1188.207, 14500.00
1189.292, 14197.00
1190.378, 14464.00
1191.463, 14275.00
1192.548, 14381.00
1193.632, 14138.00
1194.717, 14433.00
1195.801, 14392.00
1196.886, 14349.00
1197.970, 14285.00
1199.054, 14387.00
1200.137, 14480.00
1201.221, 14360.00
1202.305, 14407.00
1203.388, 14446.00
1204.471, 14602.00
1205.554, 14285.00
1206.637, 14730.00
1207.719, 14544.00
1208.802, 14473.00
1209.884, 14577.65
1210.966, 14869.00
1212.048, 14468.00
1213.130, 14653.00
1214.212, 14494.00
1215.293, 14583.00
1216.374, 14562.00
1217.456, 14657.00
1218.536, 14507.00
1219.617, 14541.00
1220.698, 14383.00
1221.778, 14551.00
1222.859, 14660.00
1223.939, 14524.00
1225.019, 14471.00
1226.099, 14614.00
1227.178, 14603.00
1228.258, 14480.00
1229.337, 14554.00
1230.417, 14779.00
1231.496, 14632.00
1232.574, 14777.00
1233.653, 14754.45
1234.732, 14696.00
1235.810, 14715.00
1236.888, 14714.00
1237.966, 14709.00
1239.044, 14806.00
1240.122, 14707.00
1241.199, 14759.00
1242.277, 14834.00
1243.354, 14764.00
1244.431, 14708.00
1245.508, 14817.00
1246.585, 14744.00
1247.661, 14671.00
1248.738, 14703.00
1249.814, 14717.00
1250.890, 14711.00
1251.966, 14930.00
1253.042, 14975.00
1254.117, 14863.00
1255.193, 14728.00
1256.268, 14973.00
1257.343, 14921.00
1258.418, 14942.00
1259.493, 14808.00
1260.567, 14808.00
1261.642, 15073.00
1262.716, 14981.00
1263.790, 14916.00
1264.864, 15139.00
1265.938, 14877.00
1267.011, 15108.00
1268.085, 15057.00
1269.158, 15139.00
1270.231, 14860.00
1271.304, 15005.00
1272.377, 14973.01
1273.450, 14891.11
1274.522, 15045.00
1275.594, 14943.00
1276.666, 14968.00
1277.738, 15259.00
1278.810, 15189.00
1279.882, 15336.00
1280.953, 15385.97
1282.025, 15131.00
1283.096, 15357.00
1284.167, 15159.00
1285.238, 14956.00
1286.308, 15203.00
1287.379, 15107.00
1288.449, 15123.00
1289.519, 15062.00
1290.589, 15251.00
1291.659, 15275.00
1292.729, 15131.00
1293.798, 15353.00
1294.868, 15190.00
1295.937, 15171.00
1297.006, 15151.00
1298.075, 15119.37
1299.143, 15310.00
1300.212, 15205.00
1301.280, 15309.00
1302.348, 15481.00
1303.416, 15278.00
1304.484, 15258.00
1305.552, 15295.00
1306.620, 15287.00
1307.687, 15604.00
1308.754, 15451.00
1309.821, 15221.00
1310.888, 15556.00
1311.955, 15463.00
1313.021, 15441.00
1314.088, 15606.00
1315.154, 15364.00
1316.220, 15432.00
1317.286, 15471.00
1318.352, 15388.00
1319.417, 15362.00
1320.483, 15382.94
1321.548, 15392.00
1322.613, 15400.00
1323.678, 15405.00
1324.743, 15387.00
1325.807, 15522.00
1326.872, 15524.00
1327.936, 15452.00
1329.000, 15681.00
1330.064, 15534.00
1331.128, 15590.98
1332.191, 15785.00
1333.255, 15653.00
1334.318, 15469.00
1335.381, 15633.00
1336.444, 15442.00
1337.507, 15480.00
1338.569, 15615.00
1339.632, 15565.00
1340.694, 15623.16
1341.756, 15529.00
1342.818, 15618.00
1343.880, 15682.00
1344.941, 15620.00
1346.003, 15704.00
1347.064, 15751.00
1348.125, 15635.00
1349.186, 15417.00
1350.247, 15799.00
1351.308, 15555.00
1352.368, 15763.00
1353.428, 15614.00
1354.489, 15787.00
1355.549, 15841.00
1356.608, 15652.00
1357.668, 15846.00
1358.727, 15839.00
1359.787, 15898.00
1360.846, 15792.00
1361.905, 15885.00
1362.964, 15768.00
1364.022, 15892.00
1365.081, 15954.00
1366.139, 15817.00
1367.197, 15830.00
1368.255, 16028.00
1369.313, 15891.00
1370.371, 15723.00
1371.428, 15974.00
1372.486, 15994.00
1373.543, 15842.00
1374.600, 15696.00
1375.657, 15989.00
1376.713, 15831.00
1377.770, 15930.00
1378.826, 15952.00
1379.882, 15903.00
1380.938, 16088.00
1381.994, 16082.00
1383.050, 16080.00
1384.106, 16096.00
1385.161, 16096.00
1386.216, 16013.00
1387.271, 16187.00
1388.326, 16183.00
1389.381, 16231.00
1390.435, 16012.00
1391.490, 16102.00
1392.544, 16120.00
1393.598, 16160.00
1394.652, 16103.00
1395.705, 16026.00
1396.759, 16180.00
1397.812, 16284.00
1398.866, 16102.00
1399.919, 16208.00
1400.972, 16177.00
1402.024, 16238.00
1403.077, 16263.00
1404.129, 16274.00
1405.181, 16185.00
1406.233, 16284.00
1407.285, 16241.00
1408.337, 16236.29
1409.389, 16321.00
1410.440, 16238.00
1411.491, 16378.00
1412.542, 16428.00
1413.593, 16251.00
1414.644, 16377.00
1415.695, 16451.00
1416.745, 16343.00
1417.795, 16489.00
1418.845, 16628.00
1419.895, 16293.00
1420.945, 16497.00
1421.995, 16376.00
1423.044, 16487.00
1424.093, 16486.00
1425.142, 16507.00
1426.191, 16510.00
1427.240, 16435.00
1428.289, 16370.00
1429.337, 16542.00
1430.385, 16511.00
1431.433, 16704.00
1432.481, 16699.00
1433.529, 16705.00
1434.577, 16766.00
1435.624, 16756.03
1436.672, 16722.00
1437.719, 16789.00
1438.766, 16818.00
1439.812, 16855.00
1440.859, 16883.00
1441.905, 16896.00
1442.952, 16933.00
1443.998, 16940.13
1445.044, 16960.28
1446.090, 16925.00
1447.135, 16994.00
1448.181, 16915.00
1449.226, 16932.00
1450.271, 16981.00
1451.316, 17028.00
1452.361, 16938.00
1453.405, 16948.00
1454.450, 17037.00
1455.494, 16971.00
1456.538, 17158.00
1457.582, 16916.00
1458.626, 17087.00
1459.670, 17064.00
1460.713, 17115.00
1461.757, 17132.00
1462.800, 17125.00
1463.843, 17111.00
1464.886, 17233.00
1465.928, 17233.00
1466.971, 17251.99
1468.013, 17188.00
1469.055, 17221.00
1470.097, 17253.00
1471.139, 17147.00
1472.181, 17212.00
1473.222, 17239.00
1474.263, 17120.00
1475.305, 17440.00
1476.346, 17338.00
1477.386, 17288.00
1478.427, 17203.00
1479.468, 17232.00
1480.508, 17228.34
1481.548, 17407.00
1482.588, 17290.00
1483.628, 17402.00
1484.668, 17412.00
1485.707, 17409.00
1486.747, 17242.00
1487.786, 17358.00
1488.825, 17286.00
1489.864, 17477.00
1490.902, 17603.00
1491.941, 17499.00
1492.979, 17560.00
1494.017, 17550.00
1495.055, 17319.00
1496.093, 17484.00
1497.131, 17283.00
1498.168, 17356.00
1499.206, 17474.00
1500.243, 17531.00
1501.280, 17809.00
1502.317, 17622.00
1503.354, 17437.00
1504.390, 17824.00
1505.426, 18152.00
1506.463, 17640.00
1507.499, 17792.00
1508.535, 17828.00
1509.570, 17586.00
1510.606, 17681.00
1511.641, 17767.00
1512.676, 17749.00
1513.711, 17778.00
1514.746, 17731.00
1515.781, 18016.00
1516.816, 17935.00
1517.850, 18019.00
1518.884, 17930.00
1519.918, 17907.00
1520.952, 17968.00
1521.986, 18002.00
1523.019, 18031.00
1524.053, 17966.00
1525.086, 18084.00
1526.119, 18088.00
1527.152, 18203.00
1528.185, 18194.00
1529.217, 18067.00
1530.250, 18003.00
1531.282, 18284.00
1532.314, 18223.00
1533.346, 18084.00
1534.377, 18148.00
1535.409, 18060.00
1536.440, 18191.00
1537.472, 18292.00
1538.503, 18256.00
1539.534, 18308.00
1540.564, 18260.00
1541.595, 18419.00
1542.625, 18281.00
1543.656, 18283.00
1544.686, 18445.00
1545.716, 18331.00
1546.745, 18503.41
1547.775, 18717.87
1548.804, 18839.99
1549.834, 18874.74
1550.863, 18560.43
1551.892, 18696.86
1552.920, 18652.64
1553.949, 18601.03
1554.977, 18800.89
1556.006, 18537.35
1557.034, 18733.22
1558.062, 18745.71
1559.089, 18746.00
1560.117, 18676.00
1561.144, 18764.00
1562.172, 18836.00
1563.199, 18770.00
1564.226, 18998.00
1565.252, 18820.00
1566.279, 18923.00
1567.305, 18876.00
1568.332, 18952.00
1569.358, 19111.00
1570.384, 19118.00
##END=



