##NAMES=Euclase
##RRUFFID=R050032
##IDEAL CHEMISTRY=BeAlSiO_4_(OH)
##LOCALITY=Minas Gerais, Brazil
##OWNER=RRUFF
##SOURCE=University of Arizona Mineral Museum
##DESCRIPTION=Colorless crystal fragments
##STATUS=The identification of this mineral has been confirmed by X-ray diffraction and chemical analysis
##URL=rruff.info/R050032
##MEASURED CHEMISTRY=Be_1.00_Al_1.00_Si_1.00_O_4_(OH)
##PIN_ID=L00411
##ORIENTATION=Laser parallel to (-1 0 -1). Fiducial mark perpendicular to laser is parallel to -b [0 -1 0]
93.142, 5144.000
94.534, 5067.000
95.926, 4976.000
97.318, 4802.000
98.709, 4661.000
100.101, 4544.000
101.492, 4433.092
102.883, 4349.000
104.273, 4284.000
105.664, 4200.000
107.054, 4180.000
108.444, 4122.501
109.834, 4134.000
111.223, 4043.000
112.613, 4011.000
114.002, 3959.000
115.391, 3944.000
116.780, 3852.341
118.168, 3794.000
119.556, 3685.000
120.944, 3584.000
122.332, 3525.000
123.720, 3436.000
125.107, 3365.000
126.495, 3368.000
127.882, 3318.000
129.268, 3282.000
130.655, 3219.000
132.041, 3243.000
133.427, 3218.000
134.813, 3267.000
136.199, 3156.000
137.584, 3244.000
138.970, 3291.000
140.355, 3599.000
141.740, 3876.000
143.124, 4321.000
144.509, 4956.000
145.893, 5346.000
147.277, 5206.000
148.660, 4297.000
150.044, 3696.000
151.427, 3351.000
152.810, 3156.000
154.193, 3024.000
155.576, 2944.000
156.958, 2873.000
158.341, 2773.000
159.723, 2783.000
161.105, 2762.000
162.486, 2735.000
163.867, 2745.000
165.249, 2758.000
166.630, 2732.000
168.010, 2744.000
169.391, 2843.000
170.771, 3076.000
172.151, 3527.000
173.531, 4254.000
174.911, 5100.000
176.290, 6233.000
177.669, 6727.000
179.049, 6208.000
180.427, 5254.000
181.806, 4144.000
183.184, 3416.000
184.562, 2990.000
185.940, 2841.000
187.318, 2729.000
188.696, 2712.000
190.073, 2735.000
191.450, 2896.000
192.827, 3202.000
194.204, 3545.000
195.580, 4225.000
196.956, 4729.000
198.332, 5157.000
199.708, 4890.000
201.084, 4110.000
202.459, 3504.000
203.834, 3052.000
205.209, 2856.000
206.584, 2707.000
207.958, 2611.000
209.333, 2548.000
210.707, 2508.000
212.081, 2532.000
213.454, 2463.000
214.828, 2490.000
216.201, 2704.000
217.574, 3207.000
218.947, 2877.506
220.320, 2846.000
221.692, 2528.000
223.064, 2517.000
224.436, 2593.000
225.808, 2614.000
227.179, 2842.000
228.551, 3113.000
229.922, 3794.000
231.293, 5287.000
232.663, 7307.000
234.034, 10160.000
235.404, 12240.000
236.774, 10790.000
238.144, 7538.000
239.514, 5321.000
240.883, 4309.000
242.252, 3707.000
243.621, 3475.000
244.990, 3466.000
246.359, 3592.000
247.727, 3943.000
249.095, 4509.000
250.463, 5764.000
251.831, 7993.000
253.198, 12480.000
254.566, 19070.000
255.933, 27280.000
257.299, 35840.000
258.666, 34880.000
260.033, 26530.000
261.399, 16890.000
262.765, 10930.000
264.131, 7629.000
265.496, 5570.000
266.862, 4484.000
268.227, 3958.000
269.592, 3752.000
270.957, 3773.000
272.321, 3915.000
273.685, 4201.000
275.050, 4369.000
276.413, 4348.000
277.777, 4246.000
279.141, 4528.000
280.504, 5513.000
281.867, 7636.000
283.230, 11190.000
284.592, 15230.000
285.955, 20180.000
287.317, 20870.000
288.679, 16950.000
290.041, 11860.000
291.403, 8041.000
292.764, 5972.000
294.125, 4620.000
295.486, 3837.000
296.847, 3417.000
298.207, 3128.000
299.568, 3025.000
300.928, 2899.000
302.288, 2914.000
303.647, 2892.000
305.007, 3073.000
306.366, 3181.000
307.725, 3104.000
309.084, 3000.000
310.443, 2798.000
311.801, 2701.000
313.159, 2564.000
314.517, 2510.000
315.875, 2473.000
317.233, 2419.000
318.590, 2387.000
319.947, 2393.000
321.304, 2428.000
322.661, 2484.000
324.018, 2408.000
325.374, 2532.000
326.730, 2611.000
328.086, 2864.000
329.442, 3086.000
330.797, 3350.000
332.153, 3504.000
333.508, 3486.000
334.863, 3594.000
336.217, 3682.000
337.572, 3791.000
338.926, 3617.000
340.280, 3162.000
341.634, 2814.000
342.988, 2552.000
344.341, 2479.000
345.694, 2407.000
347.047, 2481.000
348.400, 2633.000
349.753, 2894.000
351.105, 3215.000
352.457, 3369.000
353.809, 3338.000
355.161, 3031.000
356.512, 2749.000
357.864, 2634.000
359.215, 2377.000
360.566, 2404.000
361.916, 2369.000
363.267, 2338.000
364.617, 2377.000
365.967, 2361.000
367.317, 2389.000
368.667, 2400.000
370.016, 2447.291
371.366, 2540.000
372.715, 2599.000
374.064, 2718.000
375.412, 2875.000
376.761, 3150.000
378.109, 3559.000
379.457, 3809.000
380.805, 4092.000
382.152, 4002.000
383.500, 4058.000
384.847, 4134.000
386.194, 4616.000
387.541, 5563.000
388.887, 6921.000
390.233, 9907.000
391.580, 13810.000
392.926, 20260.000
394.271, 25410.000
395.617, 25340.000
396.962, 20450.000
398.307, 13550.000
399.652, 9147.000
400.997, 6476.000
402.341, 4957.000
403.686, 4062.000
405.030, 3471.000
406.374, 3200.000
407.717, 2909.000
409.061, 2836.000
410.404, 2714.000
411.747, 2665.000
413.090, 2640.000
414.433, 2579.000
415.775, 2609.000
417.117, 2777.000
418.459, 3228.000
419.801, 3159.000
421.143, 3453.000
422.484, 3679.000
423.825, 3615.000
425.166, 3474.000
426.507, 3165.000
427.848, 2851.000
429.188, 2737.000
430.528, 2646.000
431.868, 2683.000
433.208, 2743.000
434.547, 2931.000
435.887, 3294.000
437.226, 4096.000
438.565, 5904.000
439.904, 8489.000
441.242, 11700.000
442.580, 12580.000
443.918, 9780.000
445.256, 6870.000
446.594, 4906.000
447.932, 3960.000
449.269, 3358.000
450.606, 3046.000
451.943, 2917.000
453.280, 2707.000
454.616, 2601.000
455.952, 2519.000
457.288, 2518.000
458.624, 2491.000
459.960, 2461.000
461.295, 2429.000
462.631, 2320.000
463.966, 2382.000
465.300, 2569.000
466.635, 2283.000
467.969, 2630.000
469.304, 2615.000
470.638, 2235.000
471.972, 2184.000
473.305, 2137.000
474.639, 2229.000
475.972, 2212.000
477.305, 2205.000
478.638, 2234.000
479.970, 2216.000
481.303, 2190.000
482.635, 2180.000
483.967, 2208.000
485.298, 2157.000
486.630, 2245.000
487.961, 2233.000
489.293, 2230.000
490.624, 2270.000
491.954, 2208.000
493.285, 2260.000
494.615, 2252.000
495.945, 2226.000
497.275, 2294.000
498.605, 2282.000
499.935, 2301.000
501.264, 2338.000
502.593, 2409.000
503.922, 2678.000
505.251, 2667.543
506.579, 2762.000
507.908, 2761.000
509.236, 2843.000
510.564, 2818.000
511.891, 2742.000
513.219, 2676.000
514.546, 2584.000
515.873, 2497.000
517.200, 2422.000
518.527, 2374.000
519.853, 2412.000
521.180, 2323.000
522.506, 2358.000
523.832, 2342.000
525.157, 2342.000
526.483, 2398.000
527.808, 2412.000
529.133, 2412.000
530.458, 2479.000
531.783, 2500.000
533.107, 2606.000
534.431, 2766.000
535.756, 2936.000
537.079, 3272.000
538.403, 3878.000
539.727, 4810.000
541.050, 5638.000
542.373, 6611.000
543.696, 6377.000
545.018, 5522.000
546.341, 4608.000
547.663, 3762.000
548.985, 3393.000
550.307, 3024.000
551.629, 2821.000
552.950, 2705.000
554.271, 2589.000
555.592, 2649.000
556.913, 2576.000
558.234, 2642.000
559.554, 2710.000
560.875, 2713.000
562.195, 2840.000
563.514, 2931.000
564.834, 3011.000
566.154, 3228.000
567.473, 3459.000
568.792, 3953.000
570.111, 4308.000
571.429, 4753.000
572.748, 5022.000
574.066, 4904.000
575.384, 4687.000
576.702, 4325.000
578.019, 4332.000
579.337, 4370.000
580.654, 4655.000
581.971, 5061.000
583.288, 4919.000
584.605, 4809.000
585.921, 4188.000
587.237, 3779.000
588.553, 3392.000
589.869, 3122.000
591.185, 3033.000
592.500, 2930.000
593.815, 3015.000
595.130, 3153.000
596.445, 3283.000
597.760, 3687.000
599.074, 4186.000
600.389, 4894.000
601.703, 5406.000
603.016, 5259.000
604.330, 4911.000
605.644, 4213.000
606.957, 3720.000
608.270, 3323.000
609.583, 2972.000
610.895, 2801.000
612.208, 2662.000
613.520, 2586.000
614.832, 2557.000
616.144, 2496.000
617.455, 2444.000
618.767, 2406.000
620.078, 2424.000
621.389, 2404.000
622.700, 2366.000
624.011, 2405.000
625.321, 2371.000
626.631, 2433.000
627.941, 2446.000
629.251, 2424.000
630.561, 2490.000
631.870, 2473.000
633.180, 2573.000
634.489, 2615.000
635.798, 2775.000
637.106, 2959.000
638.415, 3122.000
639.723, 3472.000
641.031, 3591.000
642.339, 3712.000
643.647, 3884.000
644.954, 3812.000
646.261, 3799.000
647.568, 3520.000
648.875, 3373.000
650.182, 3260.000
651.488, 3106.000
652.795, 3106.000
654.101, 3023.000
655.407, 2910.000
656.712, 2809.000
658.018, 2674.000
659.323, 2642.000
660.628, 2541.000
661.933, 2510.000
663.238, 2538.000
664.542, 2512.000
665.847, 2483.000
667.151, 2417.000
668.455, 2426.000
669.758, 2487.000
671.062, 2377.000
672.365, 2441.000
673.668, 2392.000
674.971, 2422.000
676.274, 2429.000
677.577, 2374.000
678.879, 2384.000
680.181, 2339.000
681.483, 2347.000
682.785, 2391.000
684.086, 2319.000
685.388, 2401.000
686.689, 2370.000
687.990, 2370.000
689.290, 2383.000
690.591, 2301.000
691.891, 2348.000
693.192, 2377.000
694.491, 2326.000
695.791, 2385.000
697.091, 2294.000
698.390, 2391.000
699.689, 2368.000
700.988, 2356.000
702.287, 2401.000
703.586, 2342.000
704.884, 2426.000
706.182, 2412.000
707.480, 2375.000
708.778, 2435.000
710.076, 2374.000
711.373, 2429.000
712.670, 2432.000
713.968, 2402.000
715.264, 2452.000
716.561, 2408.000
717.857, 2484.000
719.154, 2437.000
720.450, 2459.000
721.746, 2488.000
723.041, 2422.000
724.337, 2486.000
725.632, 2485.000
726.927, 2482.000
728.222, 2555.000
729.517, 2546.000
730.811, 2544.000
732.105, 2582.000
733.400, 2550.000
734.693, 2657.000
735.987, 2618.000
737.281, 2689.000
738.574, 2771.000
739.867, 2812.000
741.160, 3032.000
742.453, 3185.000
743.745, 3504.000
745.038, 3649.000
746.330, 3867.000
747.622, 3871.000
748.913, 3634.000
750.205, 3543.000
751.496, 3440.000
752.788, 3393.000
754.079, 3529.000
755.369, 3511.000
756.660, 3620.000
757.950, 3555.000
759.241, 3352.000
760.531, 3265.000
761.820, 3052.000
763.110, 2995.000
764.399, 2909.000
765.689, 2779.000
766.978, 2835.000
768.267, 2739.000
769.555, 2772.000
770.844, 2780.000
772.132, 2688.000
773.420, 2755.000
774.708, 2708.000
775.996, 2673.000
777.283, 2739.000
778.570, 2718.000
779.857, 2745.000
781.144, 2712.000
782.431, 2749.000
783.718, 2797.000
785.004, 2772.000
786.290, 2860.000
787.576, 2838.000
788.862, 2933.000
790.147, 2959.000
791.433, 2936.000
792.718, 3008.000
794.003, 3033.000
795.288, 3065.000
796.572, 3195.000
797.857, 3145.000
799.141, 3233.000
800.425, 3313.000
801.709, 3433.000
802.992, 3505.000
804.276, 3484.000
805.559, 3543.000
806.842, 3469.000
808.125, 3358.000
809.407, 3282.000
810.690, 3198.000
811.972, 3166.000
813.254, 3119.000
814.536, 3072.000
815.818, 3076.000
817.099, 3005.000
818.381, 3037.000
819.662, 2975.000
820.943, 2924.000
822.223, 2984.000
823.504, 2953.000
824.784, 2959.000
826.065, 2947.000
827.345, 2948.000
828.624, 3003.000
829.904, 2961.000
831.183, 3009.000
832.462, 3008.000
833.741, 2958.000
835.020, 3023.000
836.299, 3043.000
837.577, 3011.000
838.856, 3093.000
840.134, 3100.000
841.412, 3118.000
842.689, 3167.000
843.967, 3110.000
845.244, 3321.000
846.521, 3215.000
847.798, 3256.000
849.075, 3322.000
850.351, 3305.000
851.628, 3430.000
852.904, 3431.000
854.180, 3518.000
855.455, 3666.000
856.731, 3674.000
858.006, 3892.000
859.281, 3859.000
860.556, 3956.000
861.831, 4271.000
863.106, 4323.000
864.380, 4646.000
865.655, 4900.000
866.929, 5266.000
868.202, 5817.000
869.476, 6265.000
870.750, 7234.000
872.023, 8247.000
873.296, 9626.000
874.569, 12360.000
875.842, 15180.000
877.114, 20730.000
878.386, 26980.000
879.658, 32540.000
880.930, 37330.000
882.202, 33790.000
883.474, 28130.000
884.745, 22150.000
886.016, 17150.000
887.287, 14270.000
888.558, 12090.000
889.829, 11040.000
891.099, 10340.000
892.369, 9534.000
893.639, 9171.000
894.909, 8721.000
896.179, 8700.000
897.448, 9201.000
898.718, 9712.000
899.987, 11040.000
901.256, 12730.000
902.524, 15040.000
903.793, 19240.000
905.061, 23120.000
906.329, 28720.000
907.597, 32510.000
908.865, 33570.000
910.133, 32090.000
911.400, 27780.000
912.667, 22790.000
913.934, 19370.000
915.201, 15660.000
916.468, 13150.000
917.734, 11190.000
919.001, 9520.000
920.267, 8719.000
921.532, 7606.000
922.798, 7079.000
924.064, 6560.000
925.329, 6017.000
926.594, 5799.000
927.859, 5484.000
929.124, 5335.000
930.388, 5129.000
931.653, 4888.000
932.917, 4840.000
934.181, 4593.000
935.445, 4539.000
936.708, 4392.000
937.972, 4236.000
939.235, 4242.000
940.498, 4075.000
941.761, 3993.000
943.024, 4020.000
944.286, 3827.000
945.548, 3825.000
946.811, 3787.000
948.072, 3730.000
949.334, 3788.000
950.596, 3705.000
951.857, 3636.000
953.118, 3689.000
954.379, 3594.000
955.640, 3636.000
956.901, 3602.000
958.161, 3622.000
959.421, 3726.000
960.681, 3577.000
961.941, 3758.000
963.201, 3770.000
964.460, 3803.000
965.720, 4026.000
966.979, 4120.000
968.238, 4453.000
969.496, 4873.000
970.755, 5188.000
972.013, 5804.000
973.272, 5844.000
974.529, 5640.000
975.787, 5539.000
977.045, 5017.000
978.302, 4802.000
979.560, 4545.000
980.817, 4224.000
982.073, 4063.000
983.330, 3795.000
984.587, 3712.000
985.843, 3585.000
987.099, 3425.000
988.355, 3431.000
989.611, 3328.000
990.866, 3309.000
992.122, 3383.000
993.377, 3291.589
994.632, 3449.000
995.887, 3264.000
997.141, 3231.000
998.396, 3322.000
999.650, 3208.000
1000.904, 3226.000
1002.158, 3264.000
1003.412, 3218.000
1004.665, 3324.000
1005.918, 3273.000
1007.172, 3273.000
1008.425, 3361.000
1009.677, 3296.000
1010.930, 3339.000
1012.182, 3340.000
1013.434, 3398.000
1014.687, 3430.000
1015.938, 3408.000
1017.190, 3584.000
1018.441, 3698.000
1019.693, 3688.000
1020.944, 3930.000
1022.195, 3983.000
1023.445, 4003.000
1024.696, 3946.000
1025.946, 3806.000
1027.197, 3793.000
1028.446, 3632.000
1029.696, 3541.000
1030.946, 3584.000
1032.195, 3502.000
1033.445, 3518.000
1034.694, 3486.000
1035.942, 3408.000
1037.191, 3564.000
1038.440, 3498.000
1039.688, 3552.000
1040.936, 3600.000
1042.184, 3601.000
1043.432, 3733.000
1044.679, 3788.000
1045.927, 3787.000
1047.174, 3957.000
1048.421, 4111.000
1049.668, 4230.000
1050.914, 4472.000
1052.161, 4752.000
1053.407, 5206.000
1054.653, 5538.000
1055.899, 6180.000
1057.145, 7044.000
1058.391, 7689.000
1059.636, 8174.000
1060.881, 8343.000
1062.126, 7783.000
1063.371, 7358.000
1064.615, 6495.000
1065.860, 5877.000
1067.104, 5416.000
1068.348, 4765.000
1069.592, 4600.000
1070.836, 4405.000
1072.079, 4115.000
1073.323, 4113.000
1074.566, 3858.000
1075.809, 3843.000
1077.052, 3778.000
1078.294, 3670.000
1079.537, 3707.000
1080.779, 3557.000
1082.021, 3606.000
1083.263, 3652.000
1084.504, 3534.000
1085.746, 3546.000
1086.987, 3500.000
1088.228, 3535.000
1089.469, 3594.000
1090.710, 3525.000
1091.951, 3569.000
1093.191, 3626.000
1094.431, 3544.000
1095.671, 3582.000
1096.911, 3678.000
1098.151, 3548.000
1099.390, 3744.000
1100.630, 3670.000
1101.869, 3714.000
1103.108, 3855.000
1104.346, 3768.000
1105.585, 3890.000
1106.823, 3941.000
1108.062, 3976.000
1109.300, 4174.000
1110.537, 4132.000
1111.775, 4248.000
1113.013, 4360.000
1114.250, 4347.000
1115.487, 4496.000
1116.724, 4606.000
1117.961, 4627.000
1119.197, 4793.000
1120.434, 4730.000
1121.670, 4837.000
1122.906, 4879.000
1124.142, 4803.000
1125.377, 4836.000
1126.613, 4730.000
1127.848, 4661.000
1129.083, 4612.000
1130.318, 4300.000
1131.553, 4337.000
1132.787, 4238.000
1134.022, 3996.000
1135.256, 4078.000
1136.490, 3880.000
1137.724, 3777.000
1138.957, 3846.000
1140.191, 3656.000
1141.424, 3705.000
1142.657, 3653.000
1143.890, 3552.000
1145.123, 3594.000
1146.355, 3479.000
1147.588, 3530.000
1148.820, 3557.000
1150.052, 3389.000
1151.284, 3496.000
1152.516, 3388.000
1153.747, 3402.000
1154.978, 3516.000
1156.209, 3331.000
1157.440, 3381.000
1158.671, 3321.000
1159.902, 3353.000
1161.132, 3358.000
1162.362, 3395.000
1163.592, 3326.000
1164.822, 3395.000
1166.052, 3254.000
1167.281, 3347.000
1168.511, 3378.000
1169.740, 3220.000
1170.969, 3329.000
1172.197, 3273.000
1173.426, 3246.000
1174.654, 3336.000
1175.883, 3295.000
1177.111, 3298.000
1178.338, 3358.000
1179.566, 3218.000
1180.794, 3414.000
1182.021, 3313.000
1183.248, 3250.000
1184.475, 3363.000
1185.702, 3244.000
1186.928, 3258.000
1188.155, 3334.000
1189.381, 3246.000
1190.607, 3329.000
1191.833, 3284.000
1193.059, 3266.000
1194.284, 3350.000
1195.509, 3210.000
1196.735, 3274.000
1197.960, 3297.000
1199.184, 3243.000
1200.409, 3323.000
1201.633, 3289.000
1202.858, 3255.000
1204.082, 3374.000
1205.306, 3260.000
1206.529, 3299.000
1207.753, 3378.000
1208.976, 3257.000
1210.199, 3364.000
1211.422, 3305.000
1212.645, 3292.000
1213.868, 3393.000
1215.090, 3262.000
1216.313, 3320.000
1217.535, 3377.000
1218.757, 3358.000
1219.978, 3358.000
1221.200, 3321.000
1222.421, 3332.000
1223.643, 3417.000
1224.864, 3294.000
1226.084, 3385.000
1227.305, 3329.000
1228.526, 3380.000
1229.746, 3373.000
1230.966, 3345.000
1232.186, 3402.000
1233.406, 3441.000
1234.625, 3312.000
1235.845, 3364.000
1237.064, 3456.000
1238.283, 3320.000
1239.502, 3392.000
1240.721, 3384.000
1241.939, 3322.000
1243.157, 3368.422
1244.376, 3396.000
1245.594, 3347.000
1246.811, 3426.000
1248.029, 3347.000
1249.247, 3421.000
1250.464, 3369.000
1251.681, 3334.000
1252.898, 3491.000
1254.115, 3334.000
1255.331, 3434.000
1256.548, 3484.000
1257.764, 3372.000
1258.980, 3448.000
1260.196, 3392.000
1261.411, 3403.000
1262.627, 3456.000
1263.842, 3375.000
1265.057, 3386.000
1266.272, 3535.000
1267.487, 3387.000
1268.702, 3503.000
1269.916, 3492.000
1271.130, 3400.000
1272.344, 3483.000
1273.558, 3398.000
1274.772, 3449.000
1275.986, 3462.000
1277.199, 3352.000
1278.412, 3471.000
1279.625, 3522.000
1280.838, 3388.000
1282.051, 3584.000
1283.263, 3471.000
1284.475, 3424.000
1285.687, 3570.000
1286.899, 3477.000
1288.111, 3495.000
1289.323, 3558.000
1290.534, 3388.000
1291.745, 3528.000
1292.957, 3525.000
1294.167, 3431.000
1295.378, 3501.000
1296.589, 3459.000
1297.799, 3468.000
1299.009, 3524.000
1300.219, 3461.000
1301.429, 3489.000
1302.639, 3495.000
1303.848, 3414.000
1305.057, 3602.000
1306.267, 3441.000
1307.476, 3448.000
1308.684, 3634.000
1309.893, 3468.000
1311.101, 3458.000
1312.310, 3553.000
1313.518, 3445.000
1314.725, 3565.000
1315.933, 3464.000
1317.141, 3438.000
1318.348, 3556.000
1319.555, 3520.000
1320.762, 3485.000
1321.969, 3556.000
1323.176, 3480.000
1324.382, 3532.000
1325.589, 3579.000
1326.795, 3463.000
1328.001, 3617.000
1329.206, 3532.000
1330.412, 3449.000
1331.617, 3656.000
1332.823, 3522.000
1334.028, 3554.000
1335.233, 3567.000
1336.437, 3553.000
1337.642, 3611.000
1338.846, 3552.000
1340.051, 3606.000
1341.255, 3683.000
1342.458, 3553.000
1343.662, 3615.000
1344.866, 3721.000
1346.069, 3578.000
1347.272, 3633.000
1348.475, 3648.000
1349.678, 3614.000
1350.880, 3709.000
1352.083, 3606.000
1353.285, 3629.000
1354.487, 3721.000
1355.689, 3613.000
1356.891, 3666.000
1358.093, 3654.000
1359.294, 3638.000
1360.495, 3772.000
1361.696, 3719.000
1362.897, 3627.000
1364.098, 3828.000
1365.298, 3639.000
1366.499, 3738.000
1367.699, 3757.000
1368.899, 3633.000
1370.099, 3714.000
1371.298, 3752.000
1372.498, 3658.000
1373.697, 3694.000
1374.896, 3646.000
1376.095, 3617.000
1377.294, 3752.000
1378.493, 3659.000
1379.691, 3725.000
1380.889, 3756.000
1382.087, 3658.000
1383.285, 3772.000
1384.483, 3824.000
1385.681, 3686.000
1386.878, 3820.000
1388.075, 3760.000
1389.272, 3750.000
1390.469, 3828.000
1391.666, 3698.000
1392.862, 3762.000
1394.059, 3858.000
1395.255, 3726.000
1396.451, 3833.000
1397.647, 3846.000
1398.842, 3698.000
1400.038, 3887.000
1401.233, 3794.000
1402.428, 3796.000
1403.623, 3866.000
1404.818, 3714.000
1406.013, 3787.000
1407.207, 3897.000
1408.401, 3790.000
1409.595, 3840.000
1410.789, 3919.000
1411.983, 3768.000
1413.177, 3966.000
1414.370, 3834.000
1415.563, 3866.000
1416.756, 3945.000
1417.949, 3831.000
1419.142, 3883.000
1420.335, 3905.000
1421.527, 3814.000
1422.719, 3962.000
1423.911, 3890.000
1425.103, 3874.000
1426.295, 4006.000
1427.486, 3853.000
1428.677, 3926.000
1429.869, 4007.000
1431.060, 3868.000
1432.250, 3968.000
1433.441, 3958.000
1434.632, 3852.000
1435.822, 4047.000
1437.012, 3996.000
1438.202, 3923.000
1439.392, 4028.000
1440.581, 3940.000
1441.771, 3896.000
1442.960, 4110.000
1444.149, 3926.000
1445.338, 3988.000
1446.527, 4105.000
1447.715, 3930.000
1448.904, 4072.000
1450.092, 4016.000
1451.280, 3976.000
1452.468, 4069.000
1453.656, 4019.000
1454.843, 3974.000
1456.031, 4025.000
1457.218, 4000.000
1458.405, 4092.000
1459.592, 4115.000
1460.778, 3987.000
1461.965, 4100.000
1463.151, 4120.000
1464.337, 3990.000
1465.523, 4142.000
1466.709, 4100.000
1467.895, 4029.000
1469.080, 4160.000
1470.266, 4120.000
1471.451, 4142.000
1472.636, 4213.000
1473.821, 4062.000
1475.005, 4204.000
1476.190, 4186.000
1477.374, 4093.000
1478.558, 4251.000
1479.742, 4101.000
1480.926, 4156.000
1482.109, 4232.000
1483.293, 4171.000
1484.476, 4168.000
1485.659, 4284.000
1486.842, 4074.000
1488.025, 4183.000
1489.207, 4267.000
1490.390, 4151.000
1491.572, 4249.000
1492.754, 4169.000
1493.936, 4114.000
1495.118, 4372.000
1496.299, 4081.000
1497.481, 4162.000
1498.662, 4329.000
1499.843, 4164.000
1501.024, 4236.000
1502.205, 4354.000
1503.385, 4144.000
1504.565, 4289.000
1505.746, 4257.000
1506.926, 4200.000
1508.106, 4339.000
1509.285, 4275.000
1510.465, 4113.000
1511.644, 4365.000
1512.823, 4255.000
1514.002, 4216.000
1515.181, 4338.000
1516.360, 4239.000
1517.538, 4323.000
1518.717, 4354.000
1519.895, 4208.000
1521.073, 4344.000
##END=



