##NAMES=Eudialyte
##RRUFFID=R060206
##IDEAL CHEMISTRY=Na_15_Ca_6_Fe^2+^_3_Zr^4+^_3_Si(Si_25_O_73_)(O,OH,H_2_O)_3_(Cl,OH)_2_
##LOCALITY=Desourdy Quarry, Mont Saint-Hilaire, Rouville County, Quebec, Canada
##OWNER=RRUFF
##SOURCE=Royal Ontario Museum
##DESCRIPTION=Yellowish-brown gemmy fragment
##STATUS=The identification of this mineral is confirmed by single-crystal X-ray diffraction and chemical analysis.
##URL=rruff.info/R060206
##MEASURED CHEMISTRY=(Na_13.12_Ca_1.62_K_0.26_)_Σ=15_(Ca_4.47_Mn_1.00_Ce_0.32_La_0.21_)_Σ=6_(Fe_2.91_Mn_0.09_)_Σ=3_Zr_3.00_(Si_0.85_Nb_0.15_)_Σ=1_Si_25.00_O_73_((OH)_2.70_O_0.30_)_Σ=3_(Cl_1.20_(OH)_0.80_)_Σ=2_
##PIN_ID=M00448
##ORIENTATION=Laser parallel to -a* (-1 0 0). Fiducial mark perpendicular to laser is parallel to c [0 0 1]
98.41600, 15910.00
99.64900, 16366.00
100.8830, 16488.00
102.1160, 16605.00
103.3490, 16771.47
104.5820, 17554.40
105.8150, 18188.10
107.0470, 18680.25
108.2800, 18608.63
109.5120, 19265.10
110.7440, 19629.64
111.9760, 19982.21
113.2080, 20741.21
114.4400, 21185.00
115.6710, 22112.00
116.9030, 21953.00
118.1340, 22240.00
119.3650, 22682.00
120.5960, 22782.00
121.8270, 23198.00
123.0580, 23754.00
124.2880, 24075.00
125.5190, 24603.00
126.7490, 25319.00
127.9790, 26199.00
129.2090, 27138.00
130.4390, 27862.00
131.6680, 28749.00
132.8980, 29553.00
134.1270, 30284.00
135.3560, 30940.00
136.5850, 31609.00
137.8140, 32241.00
139.0430, 32514.00
140.2710, 32498.00
141.5000, 31961.00
142.7280, 31215.00
143.9560, 30733.00
145.1840, 29956.00
146.4120, 29135.00
147.6390, 28150.00
148.8670, 27193.00
150.0940, 26247.95
151.3210, 25296.00
152.5490, 24325.00
153.7750, 23243.00
155.0020, 22371.00
156.2290, 21626.00
157.4550, 20978.00
158.6810, 20432.43
159.9080, 19983.00
161.1340, 19676.00
162.3590, 19526.00
163.5850, 19446.00
164.8110, 19325.00
166.0360, 18962.00
167.2610, 18871.00
168.4860, 18706.00
169.7110, 18580.00
170.9360, 18444.00
172.1610, 18294.00
173.3850, 18060.00
174.6100, 17991.00
175.8340, 18130.00
177.0580, 17780.00
178.2820, 18028.00
179.5050, 18135.00
180.7290, 18069.00
181.9520, 18015.00
183.1760, 18116.00
184.3990, 18320.00
185.6220, 18558.00
186.8450, 18691.00
188.0670, 18799.00
189.2900, 18972.38
190.5120, 19073.00
191.7340, 19210.00
192.9560, 19280.72
194.1780, 19328.00
195.4000, 19439.00
196.6220, 19513.00
197.8430, 19469.00
199.0640, 19758.00
200.2860, 19989.00
201.5070, 19959.00
202.7270, 19925.00
203.9480, 19445.00
205.1690, 18563.00
206.3890, 18209.00
207.6090, 17827.00
208.8290, 17574.00
210.0490, 17598.00
211.2690, 17442.00
212.4890, 17232.63
213.7080, 17244.00
214.9280, 16879.00
216.1470, 16726.00
217.3660, 16710.00
218.5850, 16630.00
219.8030, 16491.00
221.0220, 16330.00
222.2400, 16312.00
223.4590, 16148.00
224.6770, 15867.00
225.8950, 15878.00
227.1120, 15901.00
228.3300, 15632.00
229.5480, 15628.00
230.7650, 15625.00
231.9820, 15722.00
233.1990, 15706.00
234.4160, 15794.00
235.6330, 15835.83
236.8490, 15905.00
238.0660, 15939.00
239.2820, 16007.00
240.4980, 16067.00
241.7140, 16184.00
242.9300, 16295.00
244.1460, 16200.00
245.3610, 16060.00
246.5770, 16171.00
247.7920, 15968.00
249.0070, 16085.00
250.2220, 16211.00
251.4370, 15971.00
252.6510, 16198.00
253.8660, 16280.00
255.0800, 16303.00
256.2940, 16434.00
257.5080, 16812.00
258.7220, 16936.21
259.9360, 17022.05
261.1490, 17350.00
262.3630, 17103.00
263.5760, 17080.00
264.7890, 17129.00
266.0020, 17422.00
267.2150, 17538.00
268.4270, 17602.00
269.6400, 17861.00
270.8520, 17951.00
272.0640, 18050.00
273.2760, 18157.00
274.4880, 18204.44
275.7000, 18413.00
276.9120, 18278.00
278.1230, 18402.00
279.3340, 18402.00
280.5450, 18606.00
281.7560, 18507.00
282.9670, 18649.00
284.1780, 18439.00
285.3880, 18549.00
286.5980, 18440.92
287.8090, 18327.79
289.0190, 18236.00
290.2290, 18098.00
291.4380, 17956.00
292.6480, 17841.00
293.8570, 17633.00
295.0670, 17815.00
296.2760, 17443.00
297.4850, 17412.00
298.6930, 17283.00
299.9020, 16954.00
301.1110, 17176.00
302.3190, 16905.00
303.5270, 16965.00
304.7350, 16894.00
305.9430, 16763.00
307.1510, 16714.00
308.3580, 16652.00
309.5660, 16621.00
310.7730, 16516.45
311.9800, 16488.00
313.1870, 16336.00
314.3940, 16321.00
315.6010, 16292.00
316.8070, 16237.00
318.0130, 16234.00
319.2200, 16160.00
320.4260, 16206.00
321.6310, 16290.00
322.8370, 16520.00
324.0430, 16734.00
325.2480, 16857.00
326.4540, 17198.00
327.6590, 17450.00
328.8640, 17616.00
330.0680, 18039.00
331.2730, 18167.00
332.4780, 18652.00
333.6820, 18660.00
334.8860, 18908.00
336.0900, 19294.00
337.2940, 19534.00
338.4980, 19684.00
339.7010, 19912.00
340.9050, 20127.00
342.1080, 20277.00
343.3110, 20488.00
344.5140, 20615.52
345.7170, 20670.00
346.9200, 20869.00
348.1220, 20951.00
349.3240, 21079.00
350.5270, 21133.08
351.7290, 21154.71
352.9310, 21119.00
354.1320, 21107.00
355.3340, 20944.00
356.5350, 20821.00
357.7370, 20550.00
358.9380, 20461.00
360.1390, 20059.00
361.3400, 19886.00
362.5400, 19567.00
363.7410, 19646.00
364.9410, 19316.00
366.1410, 19291.00
367.3410, 19022.00
368.5410, 18890.00
369.7410, 18912.00
370.9400, 18680.00
372.1400, 18544.00
373.3390, 18767.00
374.5380, 18751.00
375.7370, 19200.00
376.9360, 19464.00
378.1350, 19829.00
379.3330, 19925.00
380.5310, 20345.00
381.7300, 20599.00
382.9280, 21071.00
384.1260, 21238.00
385.3230, 21670.00
386.5210, 21695.00
387.7180, 21827.00
388.9160, 21756.00
390.1130, 21641.00
391.3100, 21267.00
392.5060, 21050.00
393.7030, 20259.00
394.9000, 19995.00
396.0960, 19357.00
397.2920, 18749.00
398.4880, 18403.00
399.6840, 17758.00
400.8800, 17245.00
402.0750, 16909.00
403.2710, 16335.00
404.4660, 15857.00
405.6610, 15563.00
406.8560, 14875.00
408.0510, 14576.00
409.2450, 14122.00
410.4400, 13916.00
411.6340, 13512.00
412.8280, 13202.00
414.0220, 13190.00
415.2160, 12889.00
416.4100, 12804.00
417.6030, 12458.00
418.7970, 12346.00
419.9900, 12266.00
421.1830, 12083.00
422.3760, 11969.00
423.5690, 11851.00
424.7610, 11719.00
425.9540, 11587.00
427.1460, 11461.00
428.3380, 11396.00
429.5300, 11218.00
430.7220, 11185.83
431.9140, 11082.00
433.1050, 11100.00
434.2970, 11048.00
435.4880, 11033.00
436.6790, 11041.00
437.8700, 10973.00
439.0610, 11004.77
440.2510, 11050.00
441.4420, 11037.00
442.6320, 11007.00
443.8220, 11027.00
445.0120, 11049.00
446.2020, 10962.00
447.3910, 10966.00
448.5810, 11126.00
449.7700, 10875.00
450.9600, 11015.00
452.1490, 10842.00
453.3370, 11043.00
454.5260, 10904.00
455.7150, 10935.00
456.9030, 11232.00
458.0910, 11051.00
459.2800, 11120.00
460.4670, 11199.00
461.6550, 11123.00
462.8430, 11161.00
464.0300, 11152.85
465.2180, 11231.00
466.4050, 11135.00
467.5920, 11119.00
468.7790, 11110.00
469.9650, 11144.00
471.1520, 11129.00
472.3380, 11051.00
473.5250, 10960.00
474.7110, 10928.00
475.8970, 10856.58
477.0820, 10818.00
478.2680, 10772.00
479.4540, 10769.00
480.6390, 10770.00
481.8240, 10900.00
483.0090, 10877.00
484.1940, 11071.00
485.3780, 10948.00
486.5630, 10971.00
487.7470, 11118.00
488.9320, 11137.00
490.1160, 11084.00
491.3000, 11214.00
492.4830, 11315.00
493.6670, 11419.00
494.8500, 11344.00
496.0340, 11565.00
497.2170, 11468.00
498.4000, 11718.00
499.5820, 11824.00
500.7650, 11883.00
501.9480, 12152.00
503.1300, 12164.00
504.3120, 12352.00
505.4940, 12518.00
506.6760, 12573.00
507.8580, 12620.00
509.0390, 12770.00
510.2210, 12836.00
511.4020, 12885.00
512.5830, 12910.00
513.7640, 13126.00
514.9450, 13474.00
516.1250, 13507.85
517.3060, 13798.00
518.4860, 13795.00
519.6660, 14033.00
520.8460, 14273.00
522.0260, 14677.00
523.2060, 14849.00
524.3850, 15073.00
525.5650, 15231.00
526.7440, 15516.00
527.9230, 15500.00
529.1020, 15767.00
530.2810, 15673.00
531.4590, 15629.00
532.6380, 15837.00
533.8160, 15893.00
534.9940, 15877.00
536.1720, 15859.00
537.3500, 16034.00
538.5270, 16159.00
539.7050, 16506.00
540.8820, 16552.00
542.0590, 17036.00
543.2360, 17743.60
544.4130, 18868.00
545.5900, 19685.00
546.7660, 20818.00
547.9430, 22316.00
549.1190, 23735.00
550.2950, 25375.00
551.4710, 27080.00
552.6470, 28946.00
553.8220, 30579.00
554.9980, 32595.00
556.1730, 34708.00
557.3480, 37292.00
558.5230, 40108.00
559.6980, 43041.00
560.8730, 45778.00
562.0470, 48116.00
563.2220, 49977.00
564.3960, 51447.00
565.5700, 51295.00
566.7440, 50714.00
567.9170, 49057.00
569.0910, 46219.00
570.2640, 43208.00
571.4380, 39865.00
572.6110, 36031.00
573.7840, 32370.00
574.9570, 28861.00
576.1290, 25744.00
577.3020, 23490.00
578.4740, 21571.00
579.6460, 20176.00
580.8180, 18997.00
581.9900, 17989.00
583.1620, 17290.00
584.3330, 16674.00
585.5040, 16543.00
586.6760, 16266.00
587.8470, 16499.00
589.0180, 16362.00
590.1880, 16615.00
591.3590, 17089.00
592.5290, 17223.00
593.7000, 17559.00
594.8700, 18151.00
596.0400, 18945.00
597.2090, 19664.00
598.3790, 20501.00
599.5490, 21435.00
600.7180, 22248.00
601.8870, 23247.00
603.0560, 23901.00
604.2250, 24869.00
605.3940, 25540.00
606.5620, 25873.00
607.7300, 26097.00
608.8990, 25976.00
610.0670, 25752.00
611.2350, 25305.00
612.4020, 24735.00
613.5700, 24169.00
614.7370, 23599.00
615.9050, 22352.00
617.0720, 21759.00
618.2390, 20985.00
619.4060, 20219.00
620.5720, 19481.00
621.7390, 18845.00
622.9050, 18387.00
624.0710, 17974.00
625.2370, 17495.00
626.4030, 17010.00
627.5690, 16713.00
628.7340, 16415.00
629.9000, 15968.00
631.0650, 15662.00
632.2300, 15271.00
633.3950, 14842.00
634.5600, 14479.00
635.7240, 14418.00
636.8890, 14039.00
638.0530, 13804.00
639.2170, 13757.00
640.3810, 13507.00
641.5450, 13612.00
642.7080, 13417.00
643.8720, 13478.00
645.0350, 13449.00
646.1980, 13501.00
647.3610, 13419.00
648.5240, 13570.00
649.6870, 13650.00
650.8490, 13658.00
652.0120, 13943.00
653.1740, 14039.00
654.3360, 14074.00
655.4980, 14304.00
656.6600, 14567.00
657.8210, 14704.69
658.9830, 14962.12
660.1440, 15158.00
661.3050, 15385.00
662.4660, 15714.00
663.6270, 15892.00
664.7870, 16377.00
665.9480, 16422.00
667.1080, 16802.00
668.2680, 17046.00
669.4280, 17487.37
670.5880, 17980.00
671.7480, 18575.00
672.9070, 19221.00
674.0670, 19919.00
675.2260, 20410.00
676.3850, 21324.00
677.5440, 22058.00
678.7030, 22864.00
679.8610, 23442.00
681.0200, 24130.00
682.1780, 24951.00
683.3360, 25603.00
684.4940, 26387.00
685.6520, 27050.00
686.8090, 28020.00
687.9670, 28736.00
689.1240, 29631.00
690.2810, 30621.00
691.4380, 31231.00
692.5950, 32541.00
693.7520, 33493.00
694.9080, 35044.00
696.0650, 36329.00
697.2210, 37456.00
698.3770, 39149.00
699.5330, 40590.00
700.6880, 41892.00
701.8440, 43553.00
702.9990, 44368.00
704.1550, 45234.00
705.3100, 45636.00
706.4650, 45945.00
707.6190, 45104.00
708.7740, 44016.00
709.9290, 42225.00
711.0830, 40495.00
712.2370, 38403.00
713.3910, 36020.00
714.5450, 33865.00
715.6980, 31431.00
716.8520, 29657.00
718.0050, 28227.00
719.1580, 26724.00
720.3110, 25781.00
721.4640, 25149.00
722.6170, 24816.00
723.7700, 24461.00
724.9220, 24604.00
726.0740, 24462.00
727.2260, 24978.00
728.3780, 25289.00
729.5300, 25842.00
730.6810, 26379.00
731.8330, 26850.00
732.9840, 27401.00
734.1350, 28004.00
735.2860, 28462.00
736.4370, 29198.00
737.5880, 29784.00
738.7380, 30121.00
739.8880, 30571.00
741.0390, 30554.00
742.1890, 30502.00
743.3380, 30191.00
744.4880, 29849.00
745.6380, 29099.00
746.7870, 28692.00
747.9360, 28049.00
749.0850, 27191.00
750.2340, 26526.00
751.3830, 25768.00
752.5310, 25125.00
753.6800, 24601.00
754.8280, 24074.00
755.9760, 23553.00
757.1240, 23112.00
758.2720, 22666.65
759.4190, 22223.00
760.5670, 21890.00
761.7140, 21433.00
762.8610, 21108.00
764.0080, 20727.17
765.1550, 20278.00
766.3020, 19994.00
767.4480, 19702.00
768.5950, 19329.00
769.7410, 18864.00
770.8870, 18438.00
772.0330, 18012.93
773.1780, 17512.00
774.3240, 17164.00
775.4690, 16716.00
776.6140, 16341.00
777.7590, 16036.00
778.9040, 15690.94
780.0490, 15397.89
781.1940, 15106.00
782.3380, 14858.00
783.4820, 14563.00
784.6260, 14348.00
785.7700, 14118.91
786.9140, 13976.00
788.0580, 13741.00
789.2010, 13647.00
790.3450, 13544.00
791.4880, 13314.00
792.6310, 13052.00
793.7730, 13183.00
794.9160, 13124.00
796.0590, 12854.00
797.2010, 12849.00
798.3430, 12710.00
799.4850, 12720.00
800.6270, 12645.00
801.7690, 12610.54
802.9100, 12567.61
804.0520, 12550.00
805.1930, 12496.00
806.3340, 12427.00
807.4750, 12460.00
808.6160, 12507.00
809.7560, 12432.00
810.8970, 12465.00
812.0370, 12543.00
813.1770, 12511.00
814.3170, 12458.00
815.4570, 12500.00
816.5960, 12614.00
817.7360, 12600.00
818.8750, 12540.00
820.0140, 12469.00
821.1530, 12705.00
822.2920, 12562.00
823.4310, 12590.00
824.5690, 12707.00
825.7070, 12590.00
826.8460, 12541.00
827.9840, 12616.00
829.1220, 12735.00
830.2590, 12887.00
831.3970, 13065.00
832.5340, 13229.00
833.6710, 13282.00
834.8080, 13336.00
835.9450, 13304.00
837.0820, 13329.00
838.2190, 12966.00
839.3550, 12918.00
840.4910, 12623.00
841.6270, 12584.00
842.7630, 12294.00
843.8990, 12219.00
845.0350, 12257.00
846.1700, 12158.00
847.3060, 12266.00
848.4410, 12362.00
849.5760, 12409.00
850.7100, 12430.00
851.8450, 12466.00
852.9800, 12356.00
854.1140, 12346.00
855.2480, 12082.00
856.3820, 12132.00
857.5160, 12025.00
858.6500, 12106.00
859.7830, 11875.00
860.9170, 11693.00
862.0500, 11776.00
863.1830, 11807.00
864.3160, 11841.00
865.4480, 11818.00
866.5810, 11742.00
867.7130, 11724.00
868.8460, 11729.30
869.9780, 11682.00
871.1100, 11781.00
872.2410, 11901.00
873.3730, 11963.00
874.5050, 11905.00
875.6360, 12064.00
876.7670, 11951.00
877.8980, 12006.00
879.0290, 12017.00
880.1590, 12211.00
881.2900, 12362.00
882.4200, 12353.00
883.5500, 12423.00
884.6800, 12462.00
885.8100, 12560.00
886.9400, 12840.00
888.0690, 12865.00
889.1990, 13011.00
890.3280, 13170.00
891.4570, 13222.00
892.5860, 13729.00
893.7140, 13761.00
894.8430, 14098.00
895.9710, 14243.00
897.1000, 14726.00
898.2280, 14820.00
899.3560, 15111.00
900.4830, 15562.00
901.6110, 16037.00
902.7380, 16696.00
903.8660, 17235.00
904.9930, 18419.00
906.1200, 19958.00
907.2460, 21473.00
908.3730, 22497.00
909.5000, 23664.00
910.6260, 24083.00
911.7520, 24121.00
912.8780, 23535.00
914.0040, 23225.00
915.1290, 22803.00
916.2550, 22389.00
917.3800, 22308.00
918.5050, 22504.00
919.6300, 22880.00
920.7550, 23774.00
921.8800, 24716.00
923.0040, 25781.00
924.1290, 26417.00
925.2530, 26931.00
926.3770, 27487.00
927.5010, 27700.00
928.6250, 27772.00
929.7480, 27669.00
930.8720, 27599.00
931.9950, 27728.00
933.1180, 27917.00
934.2410, 27755.00
935.3640, 28109.00
936.4860, 28374.00
937.6090, 28232.00
938.7310, 28300.00
939.8530, 28251.00
940.9750, 28644.00
942.0970, 30134.00
943.2180, 31742.00
944.3400, 33156.00
945.4610, 34351.00
946.5820, 35118.00
947.7030, 35027.00
948.8240, 34193.00
949.9450, 32724.00
951.0650, 30529.00
952.1860, 28646.00
953.3060, 27001.00
954.4260, 25718.31
955.5460, 24637.00
956.6650, 23989.00
957.7850, 23666.00
958.9040, 23502.00
960.0230, 23346.00
961.1420, 23281.00
962.2610, 23487.00
963.3800, 23682.00
964.4990, 23937.00
965.6170, 24315.00
966.7350, 24551.00
967.8530, 24806.00
968.9710, 25470.00
970.0890, 25840.00
971.2070, 26527.00
972.3240, 27004.00
973.4410, 27386.00
974.5580, 27739.00
975.6750, 28137.00
976.7920, 28671.00
977.9090, 29077.00
979.0250, 29292.00
980.1410, 29621.00
981.2580, 29838.00
982.3740, 30199.00
983.4890, 30350.00
984.6050, 30868.00
985.7200, 31463.00
986.8360, 32124.00
987.9510, 32894.00
989.0660, 33745.71
990.1810, 34765.00
991.2950, 35552.00
992.4100, 36656.00
993.5240, 37423.00
994.6390, 38058.00
995.7530, 38565.00
996.8660, 38874.53
997.9800, 39062.00
999.0940, 39057.00
1000.207, 38606.00
1001.320, 38277.00
1002.433, 37569.00
1003.546, 37136.00
1004.659, 36341.00
1005.772, 35613.00
1006.884, 34455.00
1007.996, 33784.00
1009.108, 33148.00
1010.220, 32269.00
1011.332, 31599.00
1012.444, 30951.00
1013.555, 30348.16
1014.666, 29931.00
1015.777, 29403.00
1016.888, 29022.00
1017.999, 28749.00
1019.110, 28509.65
1020.220, 28324.00
1021.331, 28282.00
1022.441, 28068.00
1023.551, 28027.00
1024.661, 28003.00
1025.770, 27900.00
1026.880, 28232.00
1027.989, 28301.00
1029.098, 28408.00
1030.207, 28294.00
1031.316, 28496.00
1032.425, 28298.00
1033.533, 28294.00
1034.642, 27873.00
1035.750, 27944.00
1036.858, 27936.00
1037.966, 27504.00
1039.073, 27569.00
1040.181, 27288.00
1041.288, 27119.00
1042.396, 26965.00
1043.503, 26870.00
1044.610, 26866.00
1045.716, 26531.00
1046.823, 26680.00
1047.929, 26918.00
1049.036, 26763.00
1050.142, 27268.00
1051.248, 27597.00
1052.353, 27957.00
1053.459, 28667.00
1054.564, 29359.00
1055.670, 30154.00
1056.775, 31130.00
1057.880, 32523.00
1058.985, 34026.00
1060.089, 35220.00
1061.194, 37515.00
1062.298, 39245.00
1063.402, 40961.00
1064.506, 43404.00
1065.610, 44884.00
1066.713, 47576.00
1067.817, 48720.00
1068.920, 50119.00
1070.023, 51056.00
1071.126, 51426.00
1072.229, 51762.00
1073.332, 51522.00
1074.435, 51088.00
1075.537, 50231.00
1076.639, 48963.00
1077.741, 47921.00
1078.843, 46713.00
1079.945, 45504.00
1081.046, 44620.00
1082.148, 43759.00
1083.249, 43224.00
1084.350, 42746.00
1085.451, 41969.00
1086.551, 41884.00
1087.652, 41738.00
1088.752, 41201.00
1089.853, 40897.00
1090.953, 40780.00
1092.053, 40445.00
1093.152, 40228.00
1094.252, 39721.00
1095.351, 39143.00
1096.451, 38496.00
1097.550, 37147.00
1098.649, 36073.00
1099.748, 34506.00
1100.846, 33237.00
1101.945, 31508.00
1103.043, 30086.00
1104.141, 28541.00
1105.239, 27139.00
1106.337, 25459.00
1107.434, 24439.00
1108.532, 23639.00
1109.629, 22456.00
1110.726, 21844.00
1111.823, 21119.00
1112.920, 20663.00
1114.017, 19946.00
1115.113, 19691.00
1116.210, 19222.00
1117.306, 19049.00
1118.402, 18846.00
1119.498, 18552.00
1120.593, 18450.00
1121.689, 18509.00
1122.784, 18437.00
1123.879, 18313.00
1124.974, 18086.00
1126.069, 18157.00
1127.164, 17979.00
1128.259, 18006.00
1129.353, 17960.00
1130.447, 18095.00
1131.541, 17991.00
1132.635, 17946.00
1133.729, 17859.00
1134.822, 17891.11
1135.916, 18062.00
1137.009, 17950.00
1138.102, 17895.00
1139.195, 17845.00
1140.288, 17755.00
1141.380, 17629.00
1142.473, 17536.81
1143.565, 17224.00
1144.657, 17269.00
1145.749, 16999.00
1146.841, 16789.00
1147.932, 16777.00
1149.024, 16724.00
1150.115, 16637.00
1151.206, 16344.00
1152.297, 16406.00
1153.388, 16211.00
1154.479, 15988.00
1155.569, 16150.00
1156.659, 15654.00
1157.750, 15795.00
1158.839, 15464.00
1159.929, 15632.00
1161.019, 15627.00
1162.108, 15386.00
1163.198, 15372.00
1164.287, 15418.00
1165.376, 15278.00
1166.465, 15398.00
1167.553, 15329.00
1168.642, 15288.00
1169.730, 15278.00
1170.818, 15242.00
1171.906, 15293.00
1172.994, 15190.00
1174.082, 15342.00
1175.170, 15169.00
1176.257, 15110.00
1177.344, 15156.00
1178.431, 14995.00
1179.518, 15015.00
1180.605, 14848.00
1181.691, 14983.00
1182.778, 14824.00
1183.864, 14825.00
1184.950, 14809.00
1186.036, 14648.00
1187.122, 14670.00
1188.207, 14502.00
1189.292, 14599.00
1190.378, 14565.00
1191.463, 14527.00
1192.548, 14394.00
1193.632, 14270.00
1194.717, 14244.00
1195.801, 14211.00
1196.886, 14144.55
1197.970, 14023.00
1199.054, 14082.00
1200.137, 14130.00
1201.221, 14150.00
1202.305, 14032.00
1203.388, 14022.00
1204.471, 13903.00
1205.554, 14052.00
1206.637, 13945.00
1207.719, 13971.00
1208.802, 13808.00
1209.884, 13940.00
1210.966, 13898.00
1212.048, 13900.00
1213.130, 13901.00
1214.212, 13792.00
1215.293, 13715.00
1216.374, 14003.00
1217.456, 13878.00
1218.536, 13918.00
1219.617, 13839.00
1220.698, 13922.00
1221.778, 13807.00
1222.859, 13963.00
1223.939, 13948.00
1225.019, 13860.00
1226.099, 13932.00
1227.178, 13895.00
1228.258, 13982.00
1229.337, 14074.00
1230.417, 14061.00
1231.496, 14176.00
1232.574, 13949.00
1233.653, 13949.00
1234.732, 14121.00
1235.810, 14061.00
1236.888, 14126.00
1237.966, 14111.32
1239.044, 14146.00
1240.122, 14019.00
1241.199, 14340.00
1242.277, 14298.00
1243.354, 14398.00
1244.431, 14139.00
1245.508, 14369.00
1246.585, 14255.00
1247.661, 14409.00
1248.738, 14347.00
1249.814, 14480.00
1250.890, 14384.00
1251.966, 14405.00
1253.042, 14377.00
1254.117, 14408.00
1255.193, 14307.00
1256.268, 14469.00
1257.343, 14317.00
1258.418, 14428.00
1259.493, 14459.00
1260.567, 14591.00
1261.642, 14685.00
1262.716, 14549.00
1263.790, 14666.00
1264.864, 14618.00
1265.938, 14653.00
1267.011, 14667.00
1268.085, 14605.00
1269.158, 14605.00
1270.231, 14569.00
1271.304, 14360.00
1272.377, 14440.00
1273.450, 14451.00
1274.522, 14629.00
1275.594, 14485.00
1276.666, 14545.00
1277.738, 14638.00
1278.810, 14568.00
1279.882, 14598.00
1280.953, 14572.91
1282.025, 14578.00
1283.096, 14504.00
1284.167, 14428.00
1285.238, 14400.00
1286.308, 14378.22
1287.379, 14444.00
1288.449, 14386.00
1289.519, 14457.00
1290.589, 14474.00
1291.659, 14468.00
1292.729, 14448.00
1293.798, 14393.00
1294.868, 14461.00
1295.937, 14491.00
1297.006, 14481.00
1298.075, 14587.00
1299.143, 14306.00
1300.212, 14474.00
1301.280, 14388.00
1302.348, 14755.00
1303.416, 14433.00
1304.484, 14663.00
1305.552, 14476.00
1306.620, 14422.00
1307.687, 14381.00
1308.754, 14390.00
1309.821, 14376.00
1310.888, 14395.64
1311.955, 14490.00
1313.021, 14415.00
1314.088, 14476.00
1315.154, 14405.00
1316.220, 14522.00
1317.286, 14449.00
1318.352, 14272.00
1319.417, 14566.00
1320.483, 14638.00
1321.548, 14529.00
1322.613, 14566.00
1323.678, 14545.18
1324.743, 14455.00
1325.807, 14534.00
1326.872, 14461.00
1327.936, 14495.00
1329.000, 14476.00
1330.064, 14473.93
1331.128, 14386.00
1332.191, 14503.00
1333.255, 14413.00
1334.318, 14441.00
1335.381, 14552.00
1336.444, 14616.00
1337.507, 14522.00
1338.569, 14534.00
1339.632, 14621.00
1340.694, 14517.00
1341.756, 14735.00
1342.818, 14673.00
1343.880, 14876.00
1344.941, 15053.00
1346.003, 15028.00
1347.064, 15208.00
1348.125, 15224.00
1349.186, 15560.00
1350.247, 15959.00
1351.308, 16079.00
1352.368, 16483.00
1353.428, 17136.00
1354.489, 17835.00
1355.549, 18534.00
1356.608, 18979.00
1357.668, 19343.00
1358.727, 19529.00
1359.787, 19296.00
1360.846, 18910.00
1361.905, 18239.00
1362.964, 17786.00
1364.022, 17156.00
1365.081, 16626.46
1366.139, 16019.00
1367.197, 15680.00
1368.255, 15543.00
1369.313, 15355.00
1370.371, 15380.00
1371.428, 15418.00
1372.486, 15267.00
1373.543, 15253.00
1374.600, 15295.00
1375.657, 15235.00
1376.713, 15363.00
1377.770, 15141.00
1378.826, 15123.00
1379.882, 15210.00
1380.938, 15051.00
1381.994, 15134.00
1383.050, 15217.00
1384.106, 15069.00
1385.161, 15324.00
1386.216, 15519.00
1387.271, 15920.00
1388.326, 16269.00
1389.381, 16638.00
1390.435, 17179.00
1391.490, 17479.00
1392.544, 17537.50
1393.598, 17554.00
1394.652, 17339.00
1395.705, 16865.00
1396.759, 16451.00
1397.812, 15836.00
1398.866, 15428.00
1399.919, 15163.00
1400.972, 15075.00
1402.024, 14904.00
1403.077, 14524.00
1404.129, 14561.00
1405.181, 14427.00
1406.233, 14261.00
1407.285, 14323.00
1408.337, 14302.00
1409.389, 14218.00
1410.440, 14083.00
1411.491, 14286.00
1412.542, 14260.00
1413.593, 14278.00
1414.644, 14473.00
1415.695, 14378.00
1416.745, 14316.00
1417.795, 14624.00
1418.845, 14920.00
1419.895, 15004.00
1420.945, 15124.00
1421.995, 15376.00
1423.044, 15279.00
1424.093, 15308.00
1425.142, 15276.00
1426.191, 15240.00
1427.240, 14983.00
1428.289, 14986.00
1429.337, 15083.00
1430.385, 14837.00
1431.433, 14926.00
1432.481, 14967.00
1433.529, 15114.00
1434.577, 15275.00
1435.624, 15399.00
1436.672, 15477.00
1437.719, 15597.90
1438.766, 15626.00
1439.812, 15792.00
1440.859, 15856.00
1441.905, 15976.00
1442.952, 16021.00
1443.998, 16047.00
1445.044, 16114.00
1446.090, 16074.00
1447.135, 15910.00
1448.181, 15852.00
1449.226, 15956.00
1450.271, 15911.00
1451.316, 16125.00
1452.361, 16102.00
1453.405, 16085.00
1454.450, 16146.00
1455.494, 16386.00
1456.538, 16458.00
1457.582, 16581.00
1458.626, 16465.00
1459.670, 16553.00
1460.713, 16749.00
1461.757, 16523.00
1462.800, 16579.00
1463.843, 16363.00
1464.886, 16348.00
1465.928, 16417.00
1466.971, 16368.00
1468.013, 16347.00
1469.055, 16325.13
1470.097, 16303.91
1471.139, 16219.00
1472.181, 16270.00
1473.222, 16201.00
1474.263, 16159.00
1475.305, 16060.00
1476.346, 16149.00
1477.386, 16275.00
1478.427, 16259.00
1479.468, 16218.00
1480.508, 16450.00
1481.548, 16284.00
1482.588, 16270.00
1483.628, 16446.00
1484.668, 16187.00
1485.707, 16185.00
1486.747, 16256.00
1487.786, 16388.00
1488.825, 16239.00
1489.864, 16475.00
1490.902, 16242.00
1491.941, 16368.00
1492.979, 16193.00
1494.017, 16422.00
1495.055, 16469.00
1496.093, 16308.00
1497.131, 16300.00
1498.168, 16315.00
1499.206, 16361.00
1500.243, 16466.00
1501.280, 16405.00
1502.317, 16443.00
1503.354, 16402.00
1504.390, 16409.00
1505.426, 16503.00
1506.463, 16445.00
1507.499, 16390.00
1508.535, 16476.00
1509.570, 16376.00
1510.606, 16502.00
1511.641, 16447.00
1512.676, 16440.00
1513.711, 16459.00
1514.746, 16456.00
1515.781, 16698.00
1516.816, 16613.00
1517.850, 16646.00
1518.884, 16569.00
1519.918, 16419.00
1520.952, 16533.00
1521.986, 16724.00
1523.019, 16686.70
1524.053, 16657.00
1525.086, 16704.00
1526.119, 16734.00
1527.152, 16520.00
1528.185, 16673.00
1529.217, 16752.00
1530.250, 16616.00
1531.282, 16799.00
1532.314, 16826.00
1533.346, 16679.00
1534.377, 16806.00
1535.409, 16836.00
1536.440, 16836.00
1537.472, 16794.00
1538.503, 16674.00
1539.534, 16825.00
1540.564, 16910.00
1541.595, 16960.00
1542.625, 17124.00
1543.656, 16910.00
1544.686, 16969.00
1545.716, 17109.00
1546.745, 16901.00
1547.775, 16832.00
1548.804, 17257.00
1549.834, 17077.00
1550.863, 17200.00
1551.892, 17207.00
1552.920, 17345.00
1553.949, 17462.00
1554.977, 17503.00
1556.006, 17307.00
1557.034, 17010.00
1558.062, 16960.00
1559.089, 17001.00
1560.117, 17197.00
1561.144, 17092.00
1562.172, 16991.00
1563.199, 17243.00
1564.226, 17201.00
1565.252, 17139.00
1566.279, 17372.00
1567.305, 17181.00
1568.332, 17226.00
1569.358, 17242.00
1570.384, 17325.00
1571.409, 17390.00
##END=



