##NAMES=Eudialyte
##RRUFFID=R060206
##IDEAL CHEMISTRY=Na_15_Ca_6_Fe^2+^_3_Zr^4+^_3_Si(Si_25_O_73_)(O,OH,H_2_O)_3_(Cl,OH)_2_
##LOCALITY=Desourdy Quarry, Mont Saint-Hilaire, Rouville County, Quebec, Canada
##OWNER=RRUFF
##SOURCE=Royal Ontario Museum
##DESCRIPTION=Yellowish-brown gemmy fragment
##STATUS=The identification of this mineral is confirmed by single-crystal X-ray diffraction and chemical analysis.
##URL=rruff.info/R060206
##MEASURED CHEMISTRY=(Na_13.12_Ca_1.62_K_0.26_)_Σ=15_(Ca_4.47_Mn_1.00_Ce_0.32_La_0.21_)_Σ=6_(Fe_2.91_Mn_0.09_)_Σ=3_Zr_3.00_(Si_0.85_Nb_0.15_)_Σ=1_Si_25.00_O_73_((OH)_2.70_O_0.30_)_Σ=3_(Cl_1.20_(OH)_0.80_)_Σ=2_
##PIN_ID=M00202
##ORIENTATION=Laser parallel to -c* (0 0 -1). Fiducial mark perpendicular to laser is parallel to a [1 0 0]
116.9030, 24859.00
118.1340, 24807.00
119.3650, 24828.00
120.5960, 24866.91
121.8270, 24806.26
123.0580, 24963.00
124.2880, 24713.00
125.5190, 24756.00
126.7490, 24688.00
127.9790, 25046.00
129.2090, 25642.00
130.4390, 25971.00
131.6680, 26289.00
132.8980, 26619.00
134.1270, 27143.00
135.3560, 27525.00
136.5850, 27917.00
137.8140, 28385.00
139.0430, 28588.00
140.2710, 28578.00
141.5000, 28629.00
142.7280, 27901.00
143.9560, 27413.00
145.1840, 27026.00
146.4120, 26504.00
147.6390, 25958.00
148.8670, 25399.00
150.0940, 24951.99
151.3210, 24535.02
152.5490, 24158.00
153.7750, 23849.00
155.0020, 23679.00
156.2290, 23433.00
157.4550, 23457.00
158.6810, 23535.00
159.9080, 23464.00
161.1340, 23612.00
162.3590, 23707.00
163.5850, 23766.00
164.8110, 23905.00
166.0360, 24156.00
167.2610, 24263.00
168.4860, 24454.00
169.7110, 24644.00
170.9360, 25022.00
172.1610, 25269.00
173.3850, 25739.00
174.6100, 26044.00
175.8340, 26534.00
177.0580, 27360.00
178.2820, 28309.00
179.5050, 29099.00
180.7290, 29861.00
181.9520, 30866.00
183.1760, 32021.00
184.3990, 33280.00
185.6220, 34380.00
186.8450, 35708.00
188.0670, 37199.00
189.2900, 38920.00
190.5120, 41012.00
191.7340, 42344.00
192.9560, 44322.00
194.1780, 46246.00
195.4000, 47979.00
196.6220, 49668.00
197.8430, 51093.00
199.0640, 52713.00
200.2860, 53575.00
201.5070, 54115.00
202.7270, 54496.00
203.9480, 54312.00
205.1690, 53242.00
206.3890, 52225.00
207.6090, 50873.00
208.8290, 49372.00
210.0490, 47596.00
211.2690, 45246.00
212.4890, 43499.00
213.7080, 41478.00
214.9280, 39411.00
216.1470, 37449.00
217.3660, 35481.00
218.5850, 33692.00
219.8030, 31923.00
221.0220, 30328.00
222.2400, 29010.00
223.4590, 27944.00
224.6770, 26719.00
225.8950, 25507.00
227.1120, 24690.00
228.3300, 23765.00
229.5480, 23015.00
230.7650, 22389.00
231.9820, 21651.00
233.1990, 21455.00
234.4160, 20794.00
235.6330, 20308.00
236.8490, 19685.00
238.0660, 19173.00
239.2820, 18681.00
240.4980, 18374.00
241.7140, 18088.00
242.9300, 17824.00
244.1460, 17454.00
245.3610, 17286.00
246.5770, 16991.00
247.7920, 16939.00
249.0070, 16893.00
250.2220, 16914.00
251.4370, 16872.00
252.6510, 16986.00
253.8660, 16883.00
255.0800, 16880.00
256.2940, 17162.00
257.5080, 17437.00
258.7220, 17555.19
259.9360, 17752.28
261.1490, 18050.00
262.3630, 18100.00
263.5760, 18582.00
264.7890, 18987.00
266.0020, 19348.00
267.2150, 19987.00
268.4270, 20137.00
269.6400, 20750.00
270.8520, 21070.00
272.0640, 21313.00
273.2760, 21685.00
274.4880, 21747.15
275.7000, 21850.51
276.9120, 21817.00
278.1230, 21881.00
279.3340, 21803.00
280.5450, 21887.00
281.7560, 21820.00
282.9670, 21919.50
284.1780, 22189.00
285.3880, 22131.00
286.5980, 22241.00
287.8090, 22374.00
289.0190, 22275.00
290.2290, 22445.00
291.4380, 22545.00
292.6480, 22470.00
293.8570, 22589.00
295.0670, 22394.00
296.2760, 22296.00
297.4850, 22426.00
298.6930, 22365.00
299.9020, 22274.00
301.1110, 22173.00
302.3190, 22137.00
303.5270, 22109.00
304.7350, 21931.00
305.9430, 21766.00
307.1510, 21561.00
308.3580, 21327.00
309.5660, 20746.00
310.7730, 20734.00
311.9800, 20234.00
313.1870, 19990.00
314.3940, 19716.00
315.6010, 19491.00
316.8070, 19156.00
318.0130, 18969.00
319.2200, 18963.00
320.4260, 19196.00
321.6310, 19135.00
322.8370, 19188.00
324.0430, 19443.00
325.2480, 19463.00
326.4540, 19859.00
327.6590, 20368.00
328.8640, 20387.00
330.0680, 20734.00
331.2730, 21072.00
332.4780, 21412.00
333.6820, 21443.00
334.8860, 21650.00
336.0900, 21517.00
337.2940, 21350.00
338.4980, 21152.00
339.7010, 20912.92
340.9050, 20628.00
342.1080, 20362.00
343.3110, 20181.00
344.5140, 19894.00
345.7170, 20008.00
346.9200, 19810.00
348.1220, 19636.00
349.3240, 19827.00
350.5270, 19685.00
351.7290, 19692.00
352.9310, 20000.00
354.1320, 20032.00
355.3340, 20256.00
356.5350, 20215.00
357.7370, 20216.00
358.9380, 19920.00
360.1390, 19760.00
361.3400, 19574.00
362.5400, 19343.00
363.7410, 19207.00
364.9410, 18737.00
366.1410, 18524.00
367.3410, 18347.00
368.5410, 18078.00
369.7410, 17882.00
370.9400, 17778.00
372.1400, 17621.00
373.3390, 17568.00
374.5380, 17388.00
375.7370, 17505.00
376.9360, 17415.00
378.1350, 17627.00
379.3330, 17698.00
380.5310, 18096.00
381.7300, 18282.00
382.9280, 18576.00
384.1260, 19180.00
385.3230, 19616.00
386.5210, 20097.00
387.7180, 20477.96
388.9160, 20955.00
390.1130, 21034.00
391.3100, 21209.00
392.5060, 21231.00
393.7030, 20979.00
394.9000, 20760.00
396.0960, 20226.00
397.2920, 19769.00
398.4880, 19501.00
399.6840, 18582.00
400.8800, 18019.00
402.0750, 17534.00
403.2710, 17131.00
404.4660, 16653.93
405.6610, 16306.00
406.8560, 15868.00
408.0510, 15595.00
409.2450, 15329.00
410.4400, 15130.00
411.6340, 14901.00
412.8280, 14750.00
414.0220, 14572.32
415.2160, 14434.00
416.4100, 14304.00
417.6030, 14062.00
418.7970, 13998.00
419.9900, 13685.00
421.1830, 13306.00
422.3760, 13152.00
423.5690, 12785.00
424.7610, 12342.00
425.9540, 12203.00
427.1460, 11912.00
428.3380, 11572.00
429.5300, 11432.00
430.7220, 11210.00
431.9140, 11103.00
433.1050, 10950.00
434.2970, 10906.39
435.4880, 10870.00
436.6790, 10905.00
437.8700, 10838.00
439.0610, 10891.00
440.2510, 11023.00
441.4420, 10934.00
442.6320, 10812.00
443.8220, 10528.00
445.0120, 10494.00
446.2020, 10305.00
447.3910, 10267.00
448.5810, 10037.00
449.7700, 9974.000
450.9600, 9784.000
452.1490, 9728.000
453.3370, 9712.000
454.5260, 9597.000
455.7150, 9546.000
456.9030, 9526.000
458.0910, 9329.000
459.2800, 9397.000
460.4670, 9136.000
461.6550, 9052.000
462.8430, 9055.000
464.0300, 9042.000
465.2180, 9071.000
466.4050, 9052.000
467.5920, 9003.000
468.7790, 8942.000
469.9650, 9054.000
471.1520, 8990.000
472.3380, 9038.000
473.5250, 9035.000
474.7110, 9075.000
475.8970, 8882.000
477.0820, 8942.000
478.2680, 8828.000
479.4540, 8757.000
480.6390, 8823.000
481.8240, 9026.000
483.0090, 8794.000
484.1940, 8829.000
485.3780, 8833.000
486.5630, 8741.000
487.7470, 8785.000
488.9320, 8802.000
490.1160, 8845.000
491.3000, 8990.000
492.4830, 9117.000
493.6670, 9087.000
494.8500, 9305.000
496.0340, 9198.000
497.2170, 9198.000
498.4000, 9401.000
499.5820, 9643.000
500.7650, 9827.000
501.9480, 10055.00
503.1300, 10164.00
504.3120, 10407.00
505.4940, 10648.00
506.6760, 10856.00
507.8580, 11127.00
509.0390, 11291.00
510.2210, 11475.00
511.4020, 11642.00
512.5830, 11903.00
513.7640, 12184.00
514.9450, 12523.00
516.1250, 12834.00
517.3060, 13306.00
518.4860, 13729.00
519.6660, 14065.97
520.8460, 14564.00
522.0260, 14827.00
523.2060, 15242.00
524.3850, 15735.00
525.5650, 15830.00
526.7440, 16285.00
527.9230, 16488.00
529.1020, 16782.00
530.2810, 17261.00
531.4590, 17539.00
532.6380, 18233.00
533.8160, 19109.00
534.9940, 19738.00
536.1720, 20893.00
537.3500, 21691.00
538.5270, 22664.00
539.7050, 23600.00
540.8820, 24607.00
542.0590, 25253.00
543.2360, 26039.00
544.4130, 27110.00
545.5900, 27942.00
546.7660, 29291.00
547.9430, 30781.00
549.1190, 32755.00
550.2950, 35163.00
551.4710, 37901.00
552.6470, 41044.00
553.8220, 44270.00
554.9980, 47191.00
556.1730, 49966.00
557.3480, 52128.00
558.5230, 52619.00
559.6980, 52675.00
560.8730, 52544.00
562.0470, 53031.00
563.2220, 54779.00
564.3960, 56571.00
565.5700, 58727.00
566.7440, 59085.00
567.9170, 57837.00
569.0910, 54247.00
570.2640, 48912.00
571.4380, 43388.00
572.6110, 37708.00
573.7840, 32583.00
574.9570, 28524.00
576.1290, 25193.00
577.3020, 22513.00
578.4740, 20523.00
579.6460, 18795.00
580.8180, 17291.00
581.9900, 16182.00
583.1620, 15387.00
584.3330, 14732.00
585.5040, 14240.00
586.6760, 13686.00
587.8470, 13523.00
589.0180, 13273.00
590.1880, 13534.00
591.3590, 13667.00
592.5290, 13959.00
593.7000, 14254.00
594.8700, 14610.00
596.0400, 15093.00
597.2090, 15631.00
598.3790, 16548.00
599.5490, 17423.00
600.7180, 18550.00
601.8870, 19220.00
603.0560, 20232.00
604.2250, 21309.00
605.3940, 22332.00
606.5620, 23150.00
607.7300, 23701.00
608.8990, 24198.00
610.0670, 24354.00
611.2350, 24205.00
612.4020, 23833.00
613.5700, 23290.00
614.7370, 22884.00
615.9050, 22074.00
617.0720, 21522.00
618.2390, 21135.00
619.4060, 20600.00
620.5720, 20409.00
621.7390, 20162.00
622.9050, 20446.00
624.0710, 20415.00
625.2370, 20480.00
626.4030, 20620.00
627.5690, 20667.00
628.7340, 20154.00
629.9000, 19999.00
631.0650, 19104.00
632.2300, 18707.00
633.3950, 17905.00
634.5600, 17376.00
635.7240, 16759.00
636.8890, 16309.00
638.0530, 15937.00
639.2170, 15556.00
640.3810, 15231.46
641.5450, 14954.00
642.7080, 14706.00
643.8720, 14491.00
645.0350, 14377.00
646.1980, 14113.00
647.3610, 14179.00
648.5240, 14015.00
649.6870, 14171.00
650.8490, 14306.00
652.0120, 14400.00
653.1740, 14498.00
654.3360, 14536.00
655.4980, 14473.00
656.6600, 14773.00
657.8210, 14873.00
658.9830, 15154.00
660.1440, 15473.00
661.3050, 15473.00
662.4660, 15714.00
663.6270, 16092.00
664.7870, 16264.00
665.9480, 16427.00
667.1080, 17007.00
668.2680, 17337.00
669.4280, 17582.00
670.5880, 17998.00
671.7480, 18709.00
672.9070, 19221.00
674.0670, 19837.00
675.2260, 20726.00
676.3850, 21356.00
677.5440, 22117.00
678.7030, 22680.00
679.8610, 23612.00
681.0200, 24177.00
682.1780, 25098.00
683.3360, 25661.00
684.4940, 26491.00
685.6520, 27193.00
686.8090, 28003.00
687.9670, 29008.00
689.1240, 29735.00
690.2810, 31036.00
691.4380, 32043.00
692.5950, 32862.00
693.7520, 34093.00
694.9080, 35250.00
696.0650, 36706.00
697.2210, 38224.00
698.3770, 39468.00
699.5330, 40925.00
700.6880, 42741.00
701.8440, 43904.00
702.9990, 45682.00
704.1550, 47025.00
705.3100, 48117.00
706.4650, 48695.00
707.6190, 49050.00
708.7740, 48925.00
709.9290, 48151.00
711.0830, 46744.00
712.2370, 45267.00
713.3910, 43340.00
714.5450, 41916.00
715.6980, 40143.00
716.8520, 39223.00
718.0050, 38894.00
719.1580, 38932.00
720.3110, 39296.00
721.4640, 39988.46
722.6170, 41031.00
723.7700, 42337.00
724.9220, 44063.00
726.0740, 45965.00
727.2260, 47996.00
728.3780, 49616.00
729.5300, 51842.00
730.6810, 53521.00
731.8330, 55775.00
732.9840, 57929.00
734.1350, 59315.00
735.2860, 61127.00
736.4370, 62235.00
737.5880, 63288.00
738.7380, 63748.00
739.8880, 64401.00
741.0390, 64621.00
742.1890, 64639.00
743.3380, 64017.00
744.4880, 63240.00
745.6380, 62134.00
746.7870, 61278.00
747.9360, 60264.00
749.0850, 59183.00
750.2340, 58329.00
751.3830, 57712.00
752.5310, 57264.00
753.6800, 57336.00
754.8280, 57199.00
755.9760, 56499.00
757.1240, 55600.00
758.2720, 54960.00
759.4190, 54128.00
760.5670, 53088.00
761.7140, 51821.00
762.8610, 50946.00
764.0080, 49168.00
765.1550, 47972.00
766.3020, 46437.00
767.4480, 44763.00
768.5950, 43484.00
769.7410, 41947.00
770.8870, 40375.00
772.0330, 38886.00
773.1780, 37022.00
774.3240, 35661.00
775.4690, 34049.00
776.6140, 32786.00
777.7590, 31287.00
778.9040, 29998.00
780.0490, 28863.00
781.1940, 27789.56
782.3380, 27124.00
783.4820, 26047.00
784.6260, 25344.00
785.7700, 24696.00
786.9140, 23835.00
788.0580, 23386.00
789.2010, 22576.00
790.3450, 21641.00
791.4880, 20993.00
792.6310, 20436.00
793.7730, 19799.00
794.9160, 19047.00
796.0590, 18545.00
797.2010, 18207.00
798.3430, 17906.00
799.4850, 17554.00
800.6270, 17228.00
801.7690, 16939.00
802.9100, 16993.00
804.0520, 16850.00
805.1930, 16899.00
806.3340, 17049.00
807.4750, 17744.00
808.6160, 17746.70
809.7560, 18202.00
810.8970, 18219.00
812.0370, 18559.00
813.1770, 18877.00
814.3170, 19265.00
815.4570, 19498.97
816.5960, 20015.00
817.7360, 19767.00
818.8750, 19951.00
820.0140, 19618.00
821.1530, 19252.00
822.2920, 19119.00
823.4310, 18765.00
824.5690, 18063.00
825.7070, 17657.00
826.8460, 17044.00
827.9840, 16610.00
829.1220, 16286.00
830.2590, 15781.00
831.3970, 15639.00
832.5340, 15249.00
833.6710, 15080.00
834.8080, 14678.00
835.9450, 14428.00
837.0820, 14034.00
838.2190, 13906.00
839.3550, 13792.00
840.4910, 13202.00
841.6270, 13076.00
842.7630, 12707.00
843.8990, 12343.00
845.0350, 12000.00
846.1700, 11644.00
847.3060, 11508.00
848.4410, 11243.00
849.5760, 11189.00
850.7100, 11055.00
851.8450, 10767.00
852.9800, 10507.00
854.1140, 10584.00
855.2480, 10525.00
856.3820, 10354.00
857.5160, 10233.00
858.6500, 10229.00
859.7830, 10157.00
860.9170, 10010.00
862.0500, 10037.00
863.1830, 10120.00
864.3160, 9943.000
865.4480, 10091.00
866.5810, 10057.00
867.7130, 9961.000
868.8460, 10115.00
869.9780, 10189.00
871.1100, 10143.00
872.2410, 10172.00
873.3730, 10396.00
874.5050, 10391.00
875.6360, 10320.00
876.7670, 10471.00
877.8980, 10413.00
879.0290, 10570.00
880.1590, 10685.00
881.2900, 10757.00
882.4200, 10898.00
883.5500, 10919.00
884.6800, 11048.00
885.8100, 11229.00
886.9400, 11424.00
888.0690, 11544.00
889.1990, 11703.00
890.3280, 12063.00
891.4570, 12188.00
892.5860, 12314.00
893.7140, 12586.00
894.8430, 12629.00
895.9710, 12851.00
897.1000, 13145.00
898.2280, 13203.00
899.3560, 13396.00
900.4830, 13634.00
901.6110, 13661.00
902.7380, 13921.00
903.8660, 14175.00
904.9930, 14447.00
906.1200, 14680.00
907.2460, 14794.00
908.3730, 15174.00
909.5000, 15335.00
910.6260, 15740.00
911.7520, 15995.33
912.8780, 16197.00
914.0040, 16545.00
915.1290, 16792.00
916.2550, 17022.00
917.3800, 17450.00
918.5050, 18004.00
919.6300, 18553.00
920.7550, 19239.00
921.8800, 19764.00
923.0040, 20537.00
924.1290, 21044.00
925.2530, 21963.00
926.3770, 22935.00
927.5010, 23409.00
928.6250, 24111.00
929.7480, 24881.00
930.8720, 25466.00
931.9950, 25747.00
933.1180, 25921.00
934.2410, 26282.00
935.3640, 26306.00
936.4860, 26163.00
937.6090, 25848.00
938.7310, 25368.00
939.8530, 24913.00
940.9750, 24171.00
942.0970, 23841.00
943.2180, 23245.00
944.3400, 22726.00
945.4610, 22178.00
946.5820, 21560.00
947.7030, 20971.90
948.8240, 20129.00
949.9450, 19736.00
951.0650, 19140.00
952.1860, 18571.00
953.3060, 18181.00
954.4260, 17625.00
955.5460, 17472.00
956.6650, 17178.00
957.7850, 16726.00
958.9040, 16726.00
960.0230, 16556.00
961.1420, 16524.00
962.2610, 16630.00
963.3800, 16489.00
964.4990, 16668.00
965.6170, 16588.00
966.7350, 16614.00
967.8530, 16888.00
968.9710, 17076.00
970.0890, 17139.00
971.2070, 17402.00
972.3240, 17477.00
973.4410, 17601.00
974.5580, 17753.00
975.6750, 18303.00
976.7920, 18342.00
977.9090, 18499.00
979.0250, 18854.00
980.1410, 18825.00
981.2580, 19129.00
982.3740, 19266.00
983.4890, 19593.00
984.6050, 20043.00
985.7200, 20399.00
986.8360, 20805.00
987.9510, 21200.00
989.0660, 21980.00
990.1810, 22298.00
991.2950, 23115.00
992.4100, 23544.00
993.5240, 24430.00
994.6390, 24781.00
995.7530, 25716.00
996.8660, 25875.00
997.9800, 26374.00
999.0940, 26684.00
1000.207, 27075.00
1001.320, 27120.00
1002.433, 27194.00
1003.546, 26992.00
1004.659, 27093.00
1005.772, 27068.00
1006.884, 26908.00
1007.996, 26960.00
1009.108, 26771.00
1010.220, 26643.00
1011.332, 27016.00
1012.444, 27340.00
1013.555, 27628.00
1014.666, 26998.52
1015.777, 26276.00
1016.888, 25543.00
1017.999, 25366.00
1019.110, 24912.00
1020.220, 24765.00
1021.331, 24568.00
1022.441, 24360.00
1023.551, 23855.00
1024.661, 24187.00
1025.770, 23647.00
1026.880, 23658.00
1027.989, 23502.00
1029.098, 23465.00
1030.207, 22998.00
1031.316, 22828.00
1032.425, 22606.00
1033.533, 22124.00
1034.642, 22011.00
1035.750, 21622.00
1036.858, 21505.00
1037.966, 21132.00
1039.073, 21050.00
1040.181, 20675.00
1041.288, 20639.00
1042.396, 20516.00
1043.503, 20442.00
1044.610, 20547.00
1045.716, 20438.00
1046.823, 20376.00
1047.929, 20641.00
1049.036, 20989.00
1050.142, 21391.00
1051.248, 21812.26
1052.353, 22201.00
1053.459, 22816.00
1054.564, 23416.39
1055.670, 24030.00
1056.775, 24899.00
1057.880, 25889.00
1058.985, 26771.00
1060.089, 27888.00
1061.194, 29004.00
1062.298, 30497.00
1063.402, 32511.00
1064.506, 34410.00
1065.610, 37005.00
1066.713, 39353.00
1067.817, 41271.00
1068.920, 41439.00
1070.023, 40889.00
1071.126, 40688.00
1072.229, 40273.00
1073.332, 39947.00
1074.435, 38978.00
1075.537, 37697.00
1076.639, 37035.00
1077.741, 35894.00
1078.843, 34660.00
1079.945, 33735.00
1081.046, 32653.00
1082.148, 31831.00
1083.249, 30800.00
1084.350, 30412.00
1085.451, 29645.00
1086.551, 29384.00
1087.652, 28974.00
1088.752, 28928.00
1089.853, 28865.00
1090.953, 28361.00
1092.053, 28160.00
1093.152, 27825.00
1094.252, 27324.00
1095.351, 27193.00
1096.451, 26596.00
1097.550, 26039.00
1098.649, 24941.00
1099.748, 24132.00
1100.846, 23264.00
1101.945, 22191.00
1103.043, 21306.00
1104.141, 20118.00
1105.239, 19153.00
1106.337, 18360.00
1107.434, 17622.00
1108.532, 16978.00
1109.629, 16364.50
1110.726, 15847.00
1111.823, 15416.00
1112.920, 15024.00
1114.017, 14864.00
1115.113, 14708.00
1116.210, 14466.00
1117.306, 14288.00
1118.402, 14212.00
1119.498, 13968.00
1120.593, 14086.00
1121.689, 13883.00
1122.784, 13781.00
1123.879, 13763.00
1124.974, 13570.00
1126.069, 13459.00
1127.164, 13288.00
1128.259, 13249.00
1129.353, 13197.00
1130.447, 12880.00
1131.541, 12868.00
1132.635, 12877.00
1133.729, 12655.00
1134.822, 12695.00
1135.916, 12504.00
1137.009, 12431.00
1138.102, 12508.00
1139.195, 12343.00
1140.288, 12176.00
1141.380, 11947.00
1142.473, 11920.00
1143.565, 11789.00
1144.657, 11733.00
1145.749, 11572.00
1146.841, 11434.00
1147.932, 11437.00
1149.024, 11311.00
1150.115, 11236.00
1151.206, 10954.00
1152.297, 11074.00
1153.388, 10998.00
1154.479, 10822.00
1155.569, 10945.00
1156.659, 10738.00
1157.750, 10753.00
1158.839, 10761.00
1159.929, 10712.00
1161.019, 10734.00
1162.108, 10668.00
1163.198, 10541.00
1164.287, 10625.00
1165.376, 10535.00
1166.465, 10554.21
1167.553, 10562.60
1168.642, 10562.00
1169.730, 10615.00
1170.818, 10566.00
1171.906, 10581.16
1172.994, 10652.00
1174.082, 10543.00
1175.170, 10547.00
1176.257, 10488.00
1177.344, 10524.00
1178.431, 10401.00
1179.518, 10418.00
1180.605, 10478.00
1181.691, 10310.00
1182.778, 10343.00
1183.864, 10258.00
1184.950, 10131.00
1186.036, 10230.00
1187.122, 10261.00
1188.207, 10072.00
1189.292, 10125.00
1190.378, 10152.00
1191.463, 10043.00
1192.548, 10086.00
1193.632, 10037.00
1194.717, 10042.00
1195.801, 9911.000
1196.886, 10126.00
1197.970, 9931.000
1199.054, 9863.000
1200.137, 10002.00
1201.221, 9728.000
1202.305, 9887.000
1203.388, 9903.000
1204.471, 9768.000
1205.554, 9809.000
1206.637, 9734.000
1207.719, 9857.000
1208.802, 9774.000
1209.884, 9684.000
1210.966, 9776.000
1212.048, 9695.000
1213.130, 9828.000
1214.212, 9770.000
1215.293, 9755.000
1216.374, 9718.000
1217.456, 9769.445
1218.536, 9724.019
1219.617, 9837.000
1220.698, 9778.000
1221.778, 9663.000
1222.859, 9888.000
1223.939, 9809.000
1225.019, 9859.000
1226.099, 9843.000
1227.178, 9855.545
1228.258, 9884.000
1229.337, 9873.000
1230.417, 9910.000
1231.496, 9844.000
1232.574, 10019.00
1233.653, 9942.000
1234.732, 9981.000
1235.810, 9893.000
1236.888, 10080.00
1237.966, 9957.000
1239.044, 9935.000
1240.122, 9851.000
1241.199, 9963.000
1242.277, 9813.000
1243.354, 9906.000
1244.431, 9902.000
1245.508, 9848.000
1246.585, 9804.000
1247.661, 9869.000
1248.738, 9907.000
1249.814, 9869.000
1250.890, 9901.000
1251.966, 9708.000
1253.042, 9850.000
1254.117, 9751.000
1255.193, 9940.000
1256.268, 9918.000
1257.343, 9806.000
1258.418, 9849.000
1259.493, 9899.000
1260.567, 9872.000
1261.642, 9934.000
1262.716, 9836.000
1263.790, 9863.000
1264.864, 9789.000
1265.938, 9826.000
1267.011, 9962.000
1268.085, 9990.000
1269.158, 9919.000
1270.231, 9888.000
1271.304, 9951.000
1272.377, 9844.000
1273.450, 9890.000
1274.522, 9760.000
1275.594, 9892.000
1276.666, 9768.000
1277.738, 9871.000
1278.810, 9839.000
1279.882, 9793.000
1280.953, 9759.000
1282.025, 9667.000
1283.096, 9743.000
1284.167, 9787.000
1285.238, 9660.000
1286.308, 9749.000
1287.379, 9673.000
1288.449, 9656.000
1289.519, 9827.000
1290.589, 9770.000
1291.659, 9787.000
1292.729, 9879.000
1293.798, 9677.000
1294.868, 9796.000
1295.937, 9787.000
1297.006, 9804.000
1298.075, 9727.000
1299.143, 9858.000
1300.212, 9772.000
1301.280, 9796.000
1302.348, 9848.000
1303.416, 9832.000
1304.484, 9795.000
1305.552, 9734.000
1306.620, 9749.000
1307.687, 9730.000
1308.754, 9674.000
1309.821, 9891.000
1310.888, 9846.000
1311.955, 9569.000
1313.021, 9847.000
1314.088, 9730.000
1315.154, 9773.000
1316.220, 9781.000
1317.286, 9707.000
1318.352, 9648.000
1319.417, 9742.000
1320.483, 9827.000
1321.548, 9819.000
1322.613, 9809.007
1323.678, 9696.000
1324.743, 9689.000
1325.807, 9730.000
1326.872, 9676.000
1327.936, 9781.000
1329.000, 9700.000
1330.064, 9724.000
1331.128, 9723.000
1332.191, 9790.000
1333.255, 9759.365
1334.318, 9726.000
1335.381, 9732.000
1336.444, 9704.000
1337.507, 9706.000
1338.569, 9749.000
1339.632, 9751.000
1340.694, 9738.730
1341.756, 9662.000
1342.818, 9718.000
1343.880, 9707.000
1344.941, 9742.000
1346.003, 9759.000
1347.064, 9776.098
1348.125, 9760.000
1349.186, 9799.000
1350.247, 9884.000
1351.308, 9849.000
1352.368, 9908.324
1353.428, 9890.000
1354.489, 9957.000
1355.549, 9914.000
1356.608, 9921.000
1357.668, 9935.000
1358.727, 9922.000
1359.787, 9946.000
1360.846, 9856.000
1361.905, 9861.000
1362.964, 9961.000
1364.022, 9952.000
1365.081, 9812.000
1366.139, 9898.000
1367.197, 9824.000
1368.255, 9879.000
1369.313, 9899.000
1370.371, 9964.000
1371.428, 9895.000
1372.486, 9935.000
1373.543, 9944.000
1374.600, 9985.000
1375.657, 9954.000
1376.713, 9876.000
1377.770, 9875.000
1378.826, 9871.000
1379.882, 9900.000
1380.938, 9900.000
1381.994, 9809.000
1383.050, 9880.000
1384.106, 9918.000
1385.161, 9828.000
1386.216, 9931.000
1387.271, 10023.00
1388.326, 10031.00
1389.381, 10007.00
1390.435, 9918.000
1391.490, 10026.00
1392.544, 9973.193
1393.598, 9993.000
1394.652, 9999.000
1395.705, 9987.000
1396.759, 10041.00
1397.812, 9992.000
1398.866, 9895.000
1399.919, 9955.000
1400.972, 9996.000
1402.024, 9863.000
1403.077, 9898.000
1404.129, 9951.000
1405.181, 10156.00
1406.233, 9984.000
1407.285, 9969.000
1408.337, 10023.00
1409.389, 9859.000
1410.440, 10095.00
1411.491, 10041.00
1412.542, 10124.00
1413.593, 10072.00
1414.644, 10088.00
1415.695, 10228.00
1416.745, 10130.00
1417.795, 10165.20
1418.845, 10123.00
1419.895, 10102.00
1420.945, 10074.00
1421.995, 10013.00
1423.044, 10087.00
1424.093, 10501.00
1425.142, 10594.00
1426.191, 10065.00
1427.240, 10425.00
1428.289, 10139.00
1429.337, 10223.00
1430.385, 10245.00
1431.433, 10329.00
1432.481, 10300.00
1433.529, 10302.00
1434.577, 10368.00
1435.624, 10302.00
1436.672, 10342.00
1437.719, 10508.00
1438.766, 10514.00
1439.812, 10498.00
1440.859, 10436.00
1441.905, 10466.00
1442.952, 10323.00
1443.998, 10551.00
1445.044, 10515.00
1446.090, 10644.00
1447.135, 10592.00
1448.181, 10577.00
1449.226, 10709.00
1450.271, 10597.00
1451.316, 10645.00
1452.361, 10776.00
1453.405, 10793.00
1454.450, 10811.00
1455.494, 10740.00
1456.538, 10808.00
1457.582, 10893.00
1458.626, 10784.00
1459.670, 10869.00
1460.713, 10775.00
1461.757, 10870.00
1462.800, 10846.00
1463.843, 10748.00
1464.886, 10940.00
1465.928, 10862.00
1466.971, 11031.00
1468.013, 10723.00
1469.055, 10802.00
1470.097, 10920.00
1471.139, 11049.00
1472.181, 10901.00
1473.222, 10927.00
1474.263, 10943.00
1475.305, 10926.00
1476.346, 10879.00
1477.386, 10910.00
1478.427, 10954.00
1479.468, 10926.00
1480.508, 10972.00
1481.548, 11030.00
1482.588, 10941.00
1483.628, 11096.00
1484.668, 10919.00
1485.707, 10976.00
1486.747, 11051.00
1487.786, 10957.00
1488.825, 10993.00
1489.864, 10956.00
1490.902, 10999.00
1491.941, 11074.00
1492.979, 10983.00
1494.017, 11065.00
1495.055, 11021.00
1496.093, 11127.00
1497.131, 11115.00
1498.168, 11035.00
1499.206, 11187.00
1500.243, 11105.00
1501.280, 11129.00
1502.317, 11228.00
1503.354, 11161.00
1504.390, 11175.00
1505.426, 11237.00
1506.463, 11246.00
1507.499, 11370.00
1508.535, 11182.00
1509.570, 11403.00
1510.606, 11165.00
1511.641, 11273.00
1512.676, 11343.00
1513.711, 11240.00
1514.746, 11341.00
1515.781, 11194.00
1516.816, 11231.00
1517.850, 11223.00
1518.884, 11331.00
1519.918, 11328.00
1520.952, 11431.00
1521.986, 11395.00
1523.019, 11415.00
1524.053, 11360.00
1525.086, 11211.00
1526.119, 11302.44
1527.152, 11228.27
1528.185, 11416.00
1529.217, 11241.00
1530.250, 11307.00
1531.282, 11377.00
1532.314, 11178.00
1533.346, 11510.00
1534.377, 11318.00
1535.409, 11471.00
1536.440, 11288.00
1537.472, 11314.00
1538.503, 11450.00
1539.534, 11312.00
1540.564, 11370.00
1541.595, 11492.00
1542.625, 11381.00
1543.656, 11362.00
1544.686, 11401.00
1545.716, 11391.00
1546.745, 11417.00
1547.775, 11421.96
1548.804, 11442.00
1549.834, 11464.00
1550.863, 11497.00
1551.892, 11594.00
1552.920, 11673.00
1553.949, 11669.00
1554.977, 11771.00
1556.006, 11451.00
1557.034, 11654.00
1558.062, 11548.00
1559.089, 11447.00
1560.117, 11455.00
1561.144, 11526.00
1562.172, 11494.00
1563.199, 11542.00
1564.226, 11543.05
1565.252, 11587.00
1566.279, 11574.00
1567.305, 11580.00
1568.332, 11660.00
1569.358, 11554.00
1570.384, 11667.00
1571.409, 11687.00
##END=



