##NAMES=Eudialyte
##RRUFFID=R060035
##IDEAL CHEMISTRY=Na_15_Ca_6_Fe^2+^_3_Zr^4+^_3_Si(Si_25_O_73_)(O,OH,H_2_O)_3_(Cl,OH)_2_
##LOCALITY=Chibini, Kola Peninsula, Russia
##OWNER=RRUFF
##SOURCE=University of Arizona Mineral Museum
##DESCRIPTION=Deep pink coarsely crystalline
##STATUS=The identification of this mineral has been confirmed by X-ray diffraction and chemical analysis
##URL=rruff.info/R060035
##MEASURED CHEMISTRY=(Na_14.86_K_0.14_)_Σ=15_Ca_6.00_(Fe_1.52_Mn_1.48_)_Σ=3_(Zr_2.82_Ti_0.18_)_Σ=3_(Si_0.93_Nb_0.07_)_Σ=1_(Si_25.00_O_73_)((OH)_1.01_(H_2_O)_1.99_)_Σ=3_(Cl_1.65_(OH)_0.35_)_Σ=2_
##PIN_ID=M00465
##ORIENTATION=Laser parallel to a* (1 0 0). Fiducial mark perpendicular to laser is parallel to c [0 0 1]
118.1340, 26881.00
119.3650, 26633.00
120.5960, 26582.00
121.8270, 26613.00
123.0580, 26848.00
124.2880, 26705.00
125.5190, 26601.00
126.7490, 26442.00
127.9790, 26704.00
129.2090, 26921.00
130.4390, 27370.00
131.6680, 27428.00
132.8980, 27662.00
134.1270, 28119.00
135.3560, 28364.00
136.5850, 28475.00
137.8140, 29240.00
139.0430, 29776.00
140.2710, 30165.00
141.5000, 30262.00
142.7280, 30083.00
143.9560, 30250.00
145.1840, 29878.00
146.4120, 29700.00
147.6390, 29272.00
148.8670, 29049.00
150.0940, 28709.00
151.3210, 28406.79
152.5490, 28114.13
153.7750, 27997.00
155.0020, 27514.00
156.2290, 27645.00
157.4550, 27432.00
158.6810, 27137.00
159.9080, 27269.00
161.1340, 26868.00
162.3590, 27107.00
163.5850, 27172.00
164.8110, 27353.00
166.0360, 27268.00
167.2610, 27098.00
168.4860, 27117.00
169.7110, 27164.00
170.9360, 27482.00
172.1610, 27232.00
173.3850, 27147.00
174.6100, 27600.00
175.8340, 27625.00
177.0580, 27832.00
178.2820, 27796.00
179.5050, 28056.00
180.7290, 27967.00
181.9520, 28248.00
183.1760, 28545.00
184.3990, 28950.00
185.6220, 29410.00
186.8450, 29828.00
188.0670, 30297.00
189.2900, 30668.00
190.5120, 30910.00
191.7340, 31051.00
192.9560, 31202.00
194.1780, 31378.00
195.4000, 31502.00
196.6220, 31903.00
197.8430, 31923.00
199.0640, 32197.00
200.2860, 32363.00
201.5070, 32455.00
202.7270, 32172.00
203.9480, 31990.00
205.1690, 31925.00
206.3890, 31774.00
207.6090, 31597.39
208.8290, 31535.00
210.0490, 31217.00
211.2690, 30947.00
212.4890, 30721.00
213.7080, 30128.00
214.9280, 29944.00
216.1470, 29443.00
217.3660, 29143.00
218.5850, 28806.00
219.8030, 28677.00
221.0220, 28236.00
222.2400, 28212.00
223.4590, 27960.00
224.6770, 27749.40
225.8950, 27715.00
227.1120, 27433.00
228.3300, 27285.00
229.5480, 27221.00
230.7650, 27164.00
231.9820, 26919.00
233.1990, 26914.00
234.4160, 26781.00
235.6330, 26765.00
236.8490, 26696.00
238.0660, 26664.00
239.2820, 26664.00
240.4980, 26750.00
241.7140, 26700.00
242.9300, 26851.00
244.1460, 26712.00
245.3610, 26903.00
246.5770, 26872.00
247.7920, 26988.00
249.0070, 27001.00
250.2220, 26959.00
251.4370, 27175.00
252.6510, 27009.00
253.8660, 27128.00
255.0800, 27325.00
256.2940, 27338.00
257.5080, 28026.00
258.7220, 28472.00
259.9360, 28142.00
261.1490, 27802.00
262.3630, 27682.00
263.5760, 27986.00
264.7890, 28205.00
266.0020, 28220.00
267.2150, 28243.00
268.4270, 28387.00
269.6400, 28351.00
270.8520, 28643.00
272.0640, 28630.00
273.2760, 28829.00
274.4880, 28908.00
275.7000, 28932.00
276.9120, 28786.00
278.1230, 29324.00
279.3340, 28946.00
280.5450, 29558.00
281.7560, 29277.00
282.9670, 29557.00
284.1780, 29749.00
285.3880, 29868.00
286.5980, 30036.00
287.8090, 30099.00
289.0190, 30016.00
290.2290, 30322.00
291.4380, 30228.00
292.6480, 30506.00
293.8570, 30508.00
295.0670, 30666.00
296.2760, 30673.00
297.4850, 31013.00
298.6930, 30984.00
299.9020, 31222.00
301.1110, 31347.00
302.3190, 31659.00
303.5270, 31653.00
304.7350, 31881.00
305.9430, 32035.00
307.1510, 31879.00
308.3580, 32255.00
309.5660, 32260.00
310.7730, 32090.00
311.9800, 32386.00
313.1870, 32068.00
314.3940, 31874.00
315.6010, 31566.00
316.8070, 31910.00
318.0130, 31376.00
319.2200, 31635.00
320.4260, 31798.00
321.6310, 31660.00
322.8370, 31712.00
324.0430, 31956.00
325.2480, 32054.12
326.4540, 32348.00
327.6590, 32617.00
328.8640, 32702.00
330.0680, 33155.00
331.2730, 33610.00
332.4780, 33946.00
333.6820, 34218.00
334.8860, 34470.00
336.0900, 34840.00
337.2940, 35255.00
338.4980, 35251.00
339.7010, 35125.00
340.9050, 35177.00
342.1080, 34644.00
343.3110, 34512.00
344.5140, 34085.00
345.7170, 33730.00
346.9200, 33699.00
348.1220, 33364.00
349.3240, 33075.00
350.5270, 32721.00
351.7290, 32457.00
352.9310, 32346.00
354.1320, 32229.00
355.3340, 32121.00
356.5350, 31925.00
357.7370, 31685.00
358.9380, 31632.00
360.1390, 31710.00
361.3400, 31604.00
362.5400, 31721.00
363.7410, 31616.00
364.9410, 31486.00
366.1410, 31114.00
367.3410, 30953.00
368.5410, 30775.00
369.7410, 30478.00
370.9400, 30355.00
372.1400, 30165.00
373.3390, 30103.00
374.5380, 29980.00
375.7370, 29888.65
376.9360, 29618.00
378.1350, 29751.00
379.3330, 29730.00
380.5310, 29692.00
381.7300, 29948.00
382.9280, 29992.00
384.1260, 29928.00
385.3230, 30096.00
386.5210, 30114.00
387.7180, 30370.00
388.9160, 30557.00
390.1130, 30663.00
391.3100, 30689.00
392.5060, 30864.00
393.7030, 30998.00
394.9000, 31227.00
396.0960, 31257.00
397.2920, 31329.00
398.4880, 31272.00
399.6840, 31217.00
400.8800, 31146.00
402.0750, 31040.00
403.2710, 30870.00
404.4660, 30575.00
405.6610, 30324.00
406.8560, 29866.00
408.0510, 29739.00
409.2450, 29490.00
410.4400, 29367.00
411.6340, 28934.00
412.8280, 28763.00
414.0220, 28939.00
415.2160, 28517.00
416.4100, 28341.00
417.6030, 27963.00
418.7970, 28038.00
419.9900, 27916.00
421.1830, 27824.00
422.3760, 27792.00
423.5690, 27671.00
424.7610, 27548.00
425.9540, 27243.00
427.1460, 27273.00
428.3380, 27332.00
429.5300, 27080.00
430.7220, 27200.00
431.9140, 27118.00
433.1050, 27233.00
434.2970, 27367.00
435.4880, 27343.00
436.6790, 27390.00
437.8700, 27502.00
439.0610, 27704.00
440.2510, 27772.00
441.4420, 28016.00
442.6320, 28110.00
443.8220, 28208.67
445.0120, 28301.10
446.2020, 28329.00
447.3910, 28348.00
448.5810, 28303.00
449.7700, 28231.00
450.9600, 28231.00
452.1490, 28317.00
453.3370, 28039.00
454.5260, 27910.00
455.7150, 27985.00
456.9030, 27988.00
458.0910, 27758.00
459.2800, 27694.91
460.4670, 27708.00
461.6550, 27407.00
462.8430, 27456.00
464.0300, 27493.00
465.2180, 27535.00
466.4050, 27209.00
467.5920, 27179.00
468.7790, 27230.00
469.9650, 27116.00
471.1520, 27265.00
472.3380, 27446.00
473.5250, 27479.00
474.7110, 27219.00
475.8970, 27506.00
477.0820, 27474.00
478.2680, 27352.00
479.4540, 27619.00
480.6390, 27511.00
481.8240, 27677.00
483.0090, 27748.00
484.1940, 27927.00
485.3780, 28083.00
486.5630, 28189.00
487.7470, 28351.00
488.9320, 28545.00
490.1160, 28663.84
491.3000, 28863.15
492.4830, 29000.00
493.6670, 29267.00
494.8500, 29549.00
496.0340, 29841.00
497.2170, 30066.00
498.4000, 30284.00
499.5820, 30468.98
500.7650, 30363.00
501.9480, 30708.00
503.1300, 30952.00
504.3120, 30927.00
505.4940, 31218.00
506.6760, 31046.00
507.8580, 31238.00
509.0390, 31429.00
510.2210, 31391.00
511.4020, 31213.00
512.5830, 31180.22
513.7640, 30901.00
514.9450, 30787.00
516.1250, 30773.00
517.3060, 30433.00
518.4860, 30648.00
519.6660, 30562.00
520.8460, 30612.00
522.0260, 30617.00
523.2060, 30558.00
524.3850, 30494.00
525.5650, 30674.00
526.7440, 30589.00
527.9230, 30847.00
529.1020, 30802.00
530.2810, 30972.00
531.4590, 31299.00
532.6380, 31530.00
533.8160, 31376.00
534.9940, 31850.00
536.1720, 32280.00
537.3500, 32642.00
538.5270, 33354.00
539.7050, 33840.00
540.8820, 34208.00
542.0590, 34742.00
543.2360, 35238.00
544.4130, 35873.00
545.5900, 36260.00
546.7660, 37180.00
547.9430, 37702.00
549.1190, 38539.00
550.2950, 39760.00
551.4710, 40710.00
552.6470, 41685.00
553.8220, 42819.00
554.9980, 44014.00
556.1730, 45145.00
557.3480, 45972.00
558.5230, 46526.00
559.6980, 47056.00
560.8730, 47867.00
562.0470, 48579.00
563.2220, 49441.00
564.3960, 50404.00
565.5700, 50474.00
566.7440, 49895.00
567.9170, 48890.00
569.0910, 46624.00
570.2640, 44492.00
571.4380, 42201.00
572.6110, 40384.00
573.7840, 38474.00
574.9570, 37015.00
576.1290, 36128.00
577.3020, 34473.00
578.4740, 34101.00
579.6460, 33330.00
580.8180, 32598.00
581.9900, 32504.00
583.1620, 32300.00
584.3330, 32273.00
585.5040, 32023.00
586.6760, 32007.00
587.8470, 32060.00
589.0180, 32033.00
590.1880, 32293.00
591.3590, 32406.00
592.5290, 32664.00
593.7000, 32891.00
594.8700, 33255.00
596.0400, 33458.00
597.2090, 33761.00
598.3790, 34649.00
599.5490, 35359.00
600.7180, 34390.00
601.8870, 34433.00
603.0560, 38088.00
604.2250, 36943.00
605.3940, 37656.00
606.5620, 35058.00
607.7300, 34621.00
608.8990, 34569.00
610.0670, 34496.00
611.2350, 34123.00
612.4020, 34150.00
613.5700, 33642.00
614.7370, 33287.00
615.9050, 33084.00
617.0720, 32622.00
618.2390, 32592.00
619.4060, 32516.00
620.5720, 32232.00
621.7390, 32271.29
622.9050, 32280.00
624.0710, 32168.00
625.2370, 32157.00
626.4030, 32051.00
627.5690, 31811.00
628.7340, 32175.00
629.9000, 31718.00
631.0650, 31948.00
632.2300, 31610.00
633.3950, 31391.00
634.5600, 31482.00
635.7240, 31285.00
636.8890, 31378.00
638.0530, 31149.00
639.2170, 30997.00
640.3810, 31152.00
641.5450, 31044.00
642.7080, 31220.00
643.8720, 31083.00
645.0350, 30910.00
646.1980, 30912.00
647.3610, 31027.00
648.5240, 31240.00
649.6870, 31184.00
650.8490, 31192.00
652.0120, 31281.00
653.1740, 31339.00
654.3360, 31463.00
655.4980, 31454.00
656.6600, 31653.00
657.8210, 31907.00
658.9830, 31837.00
660.1440, 31515.00
661.3050, 31940.00
662.4660, 32066.00
663.6270, 32422.00
664.7870, 32479.00
665.9480, 32363.00
667.1080, 32679.00
668.2680, 32844.00
669.4280, 32716.00
670.5880, 33046.00
671.7480, 33358.00
672.9070, 33359.00
674.0670, 33631.00
675.2260, 34088.00
676.3850, 34099.00
677.5440, 34467.00
678.7030, 34643.00
679.8610, 34829.00
681.0200, 35169.00
682.1780, 35548.00
683.3360, 35874.00
684.4940, 36177.00
685.6520, 36624.22
686.8090, 37000.00
687.9670, 37552.00
689.1240, 37993.00
690.2810, 38575.00
691.4380, 38977.00
692.5950, 39485.00
693.7520, 40345.00
694.9080, 40884.00
696.0650, 41388.00
697.2210, 42258.00
698.3770, 42720.00
699.5330, 43699.00
700.6880, 43840.00
701.8440, 44537.00
702.9990, 44810.00
704.1550, 44800.00
705.3100, 44834.00
706.4650, 44908.00
707.6190, 44545.00
708.7740, 43953.00
709.9290, 43078.00
711.0830, 42296.00
712.2370, 41290.00
713.3910, 40157.00
714.5450, 39136.00
715.6980, 38193.00
716.8520, 37317.00
718.0050, 36760.00
719.1580, 36005.00
720.3110, 35474.00
721.4640, 35170.00
722.6170, 34962.00
723.7700, 34731.00
724.9220, 34594.00
726.0740, 34549.00
727.2260, 34528.00
728.3780, 34656.00
729.5300, 34687.00
730.6810, 34880.00
731.8330, 35156.00
732.9840, 35233.00
734.1350, 35519.00
735.2860, 35711.00
736.4370, 35902.00
737.5880, 36398.00
738.7380, 37019.00
739.8880, 36799.00
741.0390, 37384.00
742.1890, 37503.00
743.3380, 37639.00
744.4880, 37647.00
745.6380, 37672.00
746.7870, 37562.00
747.9360, 37541.00
749.0850, 37239.00
750.2340, 36940.00
751.3830, 36674.00
752.5310, 36697.00
753.6800, 36437.00
754.8280, 36262.00
755.9760, 36025.00
757.1240, 36239.00
758.2720, 36114.00
759.4190, 35929.00
760.5670, 35701.00
761.7140, 35583.00
762.8610, 35817.00
764.0080, 35556.00
765.1550, 35433.00
766.3020, 35663.00
767.4480, 35418.00
768.5950, 35195.00
769.7410, 35277.00
770.8870, 35210.00
772.0330, 35270.00
773.1780, 35244.00
774.3240, 35190.00
775.4690, 35326.00
776.6140, 35310.00
777.7590, 35239.00
778.9040, 35313.00
780.0490, 35217.00
781.1940, 35252.00
782.3380, 35109.00
783.4820, 35101.00
784.6260, 34801.00
785.7700, 35028.00
786.9140, 34745.00
788.0580, 34765.00
789.2010, 34331.00
790.3450, 34219.00
791.4880, 33944.00
792.6310, 34231.00
793.7730, 33886.00
794.9160, 33899.00
796.0590, 33751.00
797.2010, 33695.00
798.3430, 33589.00
799.4850, 33363.00
800.6270, 33306.66
801.7690, 33304.05
802.9100, 33144.00
804.0520, 33398.00
805.1930, 33475.00
806.3340, 33518.00
807.4750, 33212.00
808.6160, 33533.00
809.7560, 33450.00
810.8970, 33617.00
812.0370, 33263.00
813.1770, 33510.00
814.3170, 33589.00
815.4570, 33718.00
816.5960, 33629.00
817.7360, 33539.00
818.8750, 33746.00
820.0140, 33831.00
821.1530, 33981.00
822.2920, 33705.00
823.4310, 33902.00
824.5690, 34043.00
825.7070, 33916.00
826.8460, 34073.00
827.9840, 33968.00
829.1220, 34193.00
830.2590, 33969.00
831.3970, 34115.00
832.5340, 34326.00
833.6710, 34129.00
834.8080, 34166.00
835.9450, 34361.00
837.0820, 34485.00
838.2190, 34516.00
839.3550, 34510.00
840.4910, 34670.00
841.6270, 34708.00
842.7630, 34723.00
843.8990, 35176.00
845.0350, 35054.00
846.1700, 35193.00
847.3060, 35026.00
848.4410, 35355.00
849.5760, 35385.00
850.7100, 35279.00
851.8450, 35452.00
852.9800, 35449.39
854.1140, 35762.00
855.2480, 35694.00
856.3820, 35725.00
857.5160, 36075.00
858.6500, 35970.00
859.7830, 36115.00
860.9170, 36283.00
862.0500, 36508.00
863.1830, 36175.00
864.3160, 36831.00
865.4480, 36765.00
866.5810, 36817.00
867.7130, 37163.00
868.8460, 37229.00
869.9780, 37161.00
871.1100, 37498.00
872.2410, 37423.00
873.3730, 37574.00
874.5050, 37855.00
875.6360, 37894.00
876.7670, 38294.00
877.8980, 38110.00
879.0290, 38468.00
880.1590, 38496.00
881.2900, 38656.00
882.4200, 38435.00
883.5500, 38673.00
884.6800, 39083.00
885.8100, 38779.00
886.9400, 39193.00
888.0690, 39103.00
889.1990, 39389.00
890.3280, 39669.00
891.4570, 40213.00
892.5860, 40251.00
893.7140, 40740.00
894.8430, 40981.00
895.9710, 41463.00
897.1000, 42025.00
898.2280, 42356.00
899.3560, 42827.00
900.4830, 43555.00
901.6110, 43803.00
902.7380, 44402.00
903.8660, 44756.00
904.9930, 44937.00
906.1200, 45373.00
907.2460, 45458.00
908.3730, 46217.00
909.5000, 45946.00
910.6260, 46540.00
911.7520, 47003.00
912.8780, 47212.00
914.0040, 47185.00
915.1290, 47612.00
916.2550, 48056.00
917.3800, 47877.00
918.5050, 48188.00
919.6300, 48453.00
920.7550, 48532.00
921.8800, 48525.00
923.0040, 48615.00
924.1290, 48413.00
925.2530, 48422.00
926.3770, 48597.00
927.5010, 48453.00
928.6250, 48009.00
929.7480, 47423.00
930.8720, 47810.00
931.9950, 47339.00
933.1180, 47291.00
934.2410, 47330.00
935.3640, 47110.00
936.4860, 47342.00
937.6090, 47307.00
938.7310, 47505.00
939.8530, 47520.00
940.9750, 47562.00
942.0970, 47860.00
943.2180, 48149.00
944.3400, 48480.00
945.4610, 48809.00
946.5820, 48952.00
947.7030, 49155.00
948.8240, 49139.00
949.9450, 49390.00
951.0650, 49165.00
952.1860, 48912.00
953.3060, 48737.00
954.4260, 48822.00
955.5460, 48083.00
956.6650, 48214.00
957.7850, 47831.00
958.9040, 47977.00
960.0230, 47318.00
961.1420, 47427.00
962.2610, 47302.00
963.3800, 46956.00
964.4990, 47123.00
965.6170, 46846.00
966.7350, 46822.00
967.8530, 46745.00
968.9710, 46783.00
970.0890, 46723.45
971.2070, 46719.00
972.3240, 46665.00
973.4410, 46709.00
974.5580, 46700.00
975.6750, 46915.00
976.7920, 46898.98
977.9090, 46822.00
979.0250, 46988.00
980.1410, 46964.00
981.2580, 46986.00
982.3740, 47118.00
983.4890, 47598.00
984.6050, 47326.00
985.7200, 47727.00
986.8360, 48223.00
987.9510, 48319.00
989.0660, 48562.00
990.1810, 49097.00
991.2950, 49307.00
992.4100, 49501.00
993.5240, 49903.00
994.6390, 49673.00
995.7530, 49815.00
996.8660, 49856.00
997.9800, 50061.00
999.0940, 49417.00
1000.207, 49460.00
1001.320, 49277.00
1002.433, 48922.00
1003.546, 48722.00
1004.659, 48203.00
1005.772, 47849.00
1006.884, 47472.00
1007.996, 47324.00
1009.108, 46954.00
1010.220, 46886.00
1011.332, 46829.00
1012.444, 46559.00
1013.555, 46135.00
1014.666, 46292.00
1015.777, 46023.00
1016.888, 45701.00
1017.999, 45952.00
1019.110, 46109.00
1020.220, 46021.00
1021.331, 46103.00
1022.441, 46211.00
1023.551, 46269.00
1024.661, 46439.00
1025.770, 46403.00
1026.880, 46389.00
1027.989, 46865.00
1029.098, 46741.00
1030.207, 46908.00
1031.316, 47023.00
1032.425, 47093.00
1033.533, 47505.00
1034.642, 47445.00
1035.750, 47468.00
1036.858, 48117.00
1037.966, 48492.00
1039.073, 48099.00
1040.181, 48490.00
1041.288, 48586.00
1042.396, 48460.00
1043.503, 48669.00
1044.610, 48558.00
1045.716, 48496.00
1046.823, 48322.00
1047.929, 48538.00
1049.036, 48215.00
1050.142, 48452.00
1051.248, 48303.00
1052.353, 48376.90
1053.459, 48580.00
1054.564, 48632.00
1055.670, 49097.00
1056.775, 49386.00
1057.880, 49478.00
1058.985, 49691.00
1060.089, 49872.00
1061.194, 50059.00
1062.298, 50816.00
1063.402, 50974.00
1064.506, 51363.00
1065.610, 51851.00
1066.713, 51876.00
1067.817, 52537.00
1068.920, 52628.00
1070.023, 52972.00
1071.126, 52977.00
1072.229, 53444.00
1073.332, 53768.00
1074.435, 53638.00
1075.537, 53896.00
1076.639, 54334.00
1077.741, 54363.00
1078.843, 54522.00
1079.945, 54763.00
1081.046, 54936.24
1082.148, 55145.00
1083.249, 55422.00
1084.350, 55733.00
1085.451, 55956.00
1086.551, 56238.00
1087.652, 56468.00
1088.752, 56441.00
1089.853, 56399.00
1090.953, 56347.00
1092.053, 56344.00
1093.152, 55892.00
1094.252, 55858.00
1095.351, 55310.00
1096.451, 54863.00
1097.550, 54396.00
1098.649, 53510.00
1099.748, 52867.00
1100.846, 52490.00
1101.945, 51380.00
1103.043, 50939.00
1104.141, 50459.00
1105.239, 49726.50
1106.337, 49955.00
1107.434, 48791.00
1108.532, 48754.00
1109.629, 48729.00
1110.726, 48174.00
1111.823, 48004.00
1112.920, 47419.00
1114.017, 47470.00
1115.113, 47437.00
1116.210, 47411.00
1117.306, 47685.00
1118.402, 47523.00
1119.498, 47451.00
1120.593, 47702.00
1121.689, 47607.00
1122.784, 47549.00
1123.879, 47879.00
1124.974, 47788.00
1126.069, 47759.00
1127.164, 47526.00
1128.259, 47366.00
1129.353, 47138.00
1130.447, 46880.00
1131.541, 46863.00
1132.635, 46829.00
1133.729, 47021.00
1134.822, 46980.00
1135.916, 46768.00
1137.009, 46633.00
1138.102, 46475.88
1139.195, 46303.00
1140.288, 46112.00
1141.380, 45953.00
1142.473, 45758.73
1143.565, 45517.32
1144.657, 45512.00
1145.749, 45136.00
1146.841, 45122.00
1147.932, 45020.00
1149.024, 44865.00
1150.115, 44873.00
1151.206, 44855.00
1152.297, 44838.00
1153.388, 44696.00
1154.479, 44982.00
1155.569, 44748.00
1156.659, 45171.00
1157.750, 45000.00
1158.839, 45221.00
1159.929, 45231.00
1161.019, 45115.00
1162.108, 45070.00
1163.198, 44998.00
1164.287, 45026.00
1165.376, 45056.00
1166.465, 44927.10
1167.553, 44838.00
1168.642, 44674.00
1169.730, 44920.00
1170.818, 44773.00
1171.906, 44919.00
1172.994, 44749.00
1174.082, 44970.00
1175.170, 44843.00
1176.257, 44741.00
1177.344, 44704.00
1178.431, 44627.00
1179.518, 44816.00
1180.605, 45219.00
1181.691, 44978.00
1182.778, 44857.00
1183.864, 45074.00
1184.950, 44705.00
1186.036, 44701.00
1187.122, 44883.00
1188.207, 44642.00
1189.292, 45066.00
1190.378, 44820.00
1191.463, 44897.00
1192.548, 45190.00
1193.632, 45020.00
1194.717, 45239.00
1195.801, 45237.00
1196.886, 45152.00
1197.970, 45111.00
1199.054, 45184.48
1200.137, 45257.00
1201.221, 45276.00
1202.305, 45361.00
1203.388, 45251.00
1204.471, 45253.00
1205.554, 45293.88
1206.637, 45405.00
1207.719, 45391.00
1208.802, 45446.00
1209.884, 45548.00
1210.966, 45433.00
1212.048, 45527.88
1213.130, 45623.00
1214.212, 45580.00
1215.293, 45587.00
1216.374, 45597.00
1217.456, 45573.00
1218.536, 45559.00
1219.617, 45516.00
1220.698, 45702.00
1221.778, 45703.00
1222.859, 45663.00
1223.939, 45751.00
1225.019, 45519.00
1226.099, 45998.00
1227.178, 45779.00
1228.258, 45651.00
1229.337, 45952.00
1230.417, 45875.00
1231.496, 45632.00
1232.574, 45716.00
1233.653, 45726.00
1234.732, 45728.00
1235.810, 45651.00
1236.888, 45850.00
1237.966, 45960.00
1239.044, 45796.00
1240.122, 45809.00
1241.199, 45844.00
1242.277, 46085.00
1243.354, 45875.00
1244.431, 45914.00
1245.508, 46176.00
1246.585, 46022.00
1247.661, 46278.00
1248.738, 46181.00
1249.814, 46019.00
1250.890, 46456.00
1251.966, 46134.00
1253.042, 46482.00
1254.117, 46478.00
1255.193, 46367.00
1256.268, 46497.00
1257.343, 46491.00
1258.418, 46346.00
1259.493, 46420.00
1260.567, 46439.01
1261.642, 46677.00
1262.716, 46674.00
1263.790, 46741.00
1264.864, 47042.00
1265.938, 46775.00
1267.011, 47295.00
1268.085, 47139.00
1269.158, 46889.00
1270.231, 46626.00
1271.304, 46654.00
1272.377, 46603.00
1273.450, 46906.00
1274.522, 47028.00
1275.594, 46800.00
1276.666, 46952.00
1277.738, 46797.00
1278.810, 46798.00
1279.882, 46892.00
1280.953, 47104.00
1282.025, 46978.00
1283.096, 46981.00
1284.167, 47084.00
1285.238, 46932.00
1286.308, 47098.00
1287.379, 47268.00
1288.449, 47239.00
1289.519, 47230.00
1290.589, 47292.00
1291.659, 47437.00
1292.729, 47370.00
1293.798, 47460.00
1294.868, 47148.00
1295.937, 47388.00
1297.006, 47910.00
1298.075, 47543.00
1299.143, 47788.00
1300.212, 47718.00
1301.280, 47809.00
1302.348, 47349.00
1303.416, 47922.00
1304.484, 47670.00
1305.552, 47716.00
1306.620, 48062.00
1307.687, 47881.00
1308.754, 48133.00
1309.821, 48195.00
1310.888, 48067.00
1311.955, 47967.00
1313.021, 48462.00
1314.088, 47882.00
1315.154, 48013.00
1316.220, 48349.00
1317.286, 48105.00
1318.352, 48134.00
1319.417, 48703.00
1320.483, 48787.00
1321.548, 48396.00
1322.613, 48456.00
1323.678, 48907.00
1324.743, 48436.00
1325.807, 48731.00
1326.872, 48703.00
1327.936, 49024.00
1329.000, 48986.00
1330.064, 48890.00
1331.128, 48933.00
1332.191, 48966.00
1333.255, 48773.00
1334.318, 48808.00
1335.381, 48885.00
1336.444, 49104.00
1337.507, 49209.00
1338.569, 49271.00
1339.632, 49192.00
1340.694, 49162.00
1341.756, 48956.00
1342.818, 49070.45
1343.880, 49435.00
1344.941, 49240.00
1346.003, 49546.00
1347.064, 49653.00
1348.125, 49307.00
1349.186, 49273.00
1350.247, 49405.00
1351.308, 49974.00
1352.368, 49847.00
1353.428, 49728.00
1354.489, 49973.00
1355.549, 49733.00
1356.608, 49950.00
1357.668, 49514.00
1358.727, 49858.00
1359.787, 49897.00
1360.846, 49773.00
1361.905, 50224.00
1362.964, 49979.00
1364.022, 50393.00
1365.081, 50188.00
1366.139, 50305.00
1367.197, 50506.00
1368.255, 50324.00
1369.313, 50355.00
1370.371, 50183.00
1371.428, 50595.00
1372.486, 50458.00
1373.543, 50601.00
1374.600, 50779.00
1375.657, 50734.00
1376.713, 50808.00
1377.770, 50746.00
1378.826, 50910.00
1379.882, 51090.00
1380.938, 51035.00
1381.994, 51009.00
1383.050, 51156.00
1384.106, 50989.00
1385.161, 50922.00
1386.216, 51408.00
1387.271, 51010.00
1388.326, 51205.00
1389.381, 51084.00
1390.435, 51200.00
1391.490, 51479.00
1392.544, 51541.00
1393.598, 51287.00
1394.652, 51553.00
1395.705, 51428.00
1396.759, 51685.00
1397.812, 51728.00
1398.866, 51757.00
1399.919, 51750.00
1400.972, 51738.00
1402.024, 52035.00
1403.077, 51833.00
1404.129, 52212.00
1405.181, 52011.00
1406.233, 51977.00
1407.285, 52156.00
1408.337, 52003.00
1409.389, 52334.00
1410.440, 52473.00
1411.491, 52382.00
1412.542, 52613.27
1413.593, 52542.00
1414.644, 52763.00
1415.695, 52768.00
1416.745, 52754.00
1417.795, 52683.00
1418.845, 52791.41
1419.895, 52960.00
1420.945, 53093.00
1421.995, 53162.00
1423.044, 53543.00
1424.093, 53518.00
1425.142, 53264.00
1426.191, 53525.00
1427.240, 53392.00
1428.289, 53482.00
1429.337, 54023.00
1430.385, 53809.00
1431.433, 53938.00
1432.481, 53925.00
1433.529, 54215.00
1434.577, 54111.00
1435.624, 54152.00
1436.672, 54361.00
1437.719, 54699.00
1438.766, 54842.00
1439.812, 54673.00
1440.859, 54966.00
1441.905, 54876.00
1442.952, 55354.00
1443.998, 54786.00
1445.044, 55386.00
1446.090, 55460.00
1447.135, 55049.00
1448.181, 55445.00
1449.226, 55220.00
1450.271, 55701.00
1451.316, 55787.00
1452.361, 55666.00
1453.405, 55574.00
1454.450, 55662.00
1455.494, 55616.00
1456.538, 55671.00
1457.582, 56046.00
1458.626, 55879.00
1459.670, 55911.00
1460.713, 55936.00
1461.757, 55834.00
1462.800, 56029.00
1463.843, 55987.00
1464.886, 56201.00
1465.928, 56354.00
1466.971, 56223.00
1468.013, 56234.00
1469.055, 56352.00
1470.097, 56129.00
1471.139, 56442.00
1472.181, 56518.00
1473.222, 56575.00
1474.263, 56510.00
1475.305, 56428.00
1476.346, 56573.00
1477.386, 56439.00
1478.427, 57035.00
1479.468, 57506.00
1480.508, 56951.00
1481.548, 57015.00
1482.588, 56892.00
1483.628, 57381.00
1484.668, 57289.00
1485.707, 57327.00
1486.747, 57444.00
1487.786, 57542.00
1488.825, 57730.00
1489.864, 57787.00
1490.902, 57605.00
1491.941, 57670.00
1492.979, 58035.00
1494.017, 58308.00
1495.055, 58200.00
1496.093, 58141.00
1497.131, 58176.00
1498.168, 58174.97
1499.206, 58284.43
1500.243, 58296.00
1501.280, 58559.00
1502.317, 58650.00
1503.354, 58785.00
1504.390, 58828.00
1505.426, 59004.00
1506.463, 58910.00
1507.499, 58759.00
1508.535, 58706.00
1509.570, 59201.00
1510.606, 59067.00
1511.641, 59190.00
1512.676, 59099.00
1513.711, 58924.00
1514.746, 59059.00
1515.781, 59196.00
1516.816, 59333.00
1517.850, 59340.00
1518.884, 59190.00
1519.918, 59290.36
1520.952, 59210.09
1521.986, 59467.00
1523.019, 59165.00
1524.053, 59559.00
1525.086, 59609.00
1526.119, 59167.00
1527.152, 59442.00
1528.185, 59376.00
1529.217, 59677.00
1530.250, 59571.00
1531.282, 59722.00
1532.314, 59339.00
1533.346, 59777.00
1534.377, 59740.00
1535.409, 59943.00
1536.440, 59744.00
1537.472, 60063.00
1538.503, 59933.00
1539.534, 59809.00
1540.564, 59890.00
1541.595, 60077.00
1542.625, 59933.00
1543.656, 60432.00
1544.686, 60240.00
1545.716, 60438.00
1546.745, 60321.00
1547.775, 60637.00
1548.804, 60297.00
1549.834, 60423.00
1550.863, 60538.00
1551.892, 60742.00
1552.920, 60758.00
1553.949, 61017.00
1554.977, 60808.00
1556.006, 60983.00
1557.034, 61071.00
1558.062, 61064.00
1559.089, 61184.00
1560.117, 60963.00
1561.144, 61175.00
1562.172, 61206.00
1563.199, 61007.00
1564.226, 61088.00
1565.252, 61117.00
1566.279, 61111.00
1567.305, 61266.00
1568.332, 61177.00
1569.358, 61084.00
1570.384, 61337.00
1571.409, 61413.00
1572.435, 61816.00
##END=



