##NAMES=Eudialyte
##RRUFFID=R060206
##IDEAL CHEMISTRY=Na_15_Ca_6_Fe^2+^_3_Zr^4+^_3_Si(Si_25_O_73_)(O,OH,H_2_O)_3_(Cl,OH)_2_
##LOCALITY=Desourdy Quarry, Mont Saint-Hilaire, Rouville County, Quebec, Canada
##OWNER=RRUFF
##SOURCE=Royal Ontario Museum
##DESCRIPTION=Yellowish-brown gemmy fragment
##STATUS=The identification of this mineral is confirmed by single-crystal X-ray diffraction and chemical analysis.
##URL=rruff.info/R060206
##MEASURED CHEMISTRY=(Na_13.12_Ca_1.62_K_0.26_)_Σ=15_(Ca_4.47_Mn_1.00_Ce_0.32_La_0.21_)_Σ=6_(Fe_2.91_Mn_0.09_)_Σ=3_Zr_3.00_(Si_0.85_Nb_0.15_)_Σ=1_Si_25.00_O_73_((OH)_2.70_O_0.30_)_Σ=3_(Cl_1.20_(OH)_0.80_)_Σ=2_
##PIN_ID=M00448
##ORIENTATION=Laser parallel to -a* (-1 0 0). Fiducial mark perpendicular to laser is parallel to c [0 0 1]
121.8270, 24479.00
123.0580, 24646.00
124.2880, 24176.00
125.5190, 24241.00
126.7490, 24328.00
127.9790, 24900.00
129.2090, 25160.00
130.4390, 25501.00
131.6680, 25762.00
132.8980, 25953.00
134.1270, 26506.82
135.3560, 27733.00
136.5850, 27792.00
137.8140, 28127.00
139.0430, 29199.00
140.2710, 29157.00
141.5000, 29274.00
142.7280, 28950.00
143.9560, 29143.00
145.1840, 28966.00
146.4120, 28865.00
147.6390, 28142.00
148.8670, 26796.00
150.0940, 25875.00
151.3210, 25391.00
152.5490, 24664.00
153.7750, 24029.00
155.0020, 23652.00
156.2290, 23187.00
157.4550, 22982.00
158.6810, 23050.00
159.9080, 22971.00
161.1340, 23124.00
162.3590, 23431.00
163.5850, 23821.00
164.8110, 23856.00
166.0360, 23742.00
167.2610, 23864.00
168.4860, 23967.00
169.7110, 23972.00
170.9360, 24563.00
172.1610, 24541.00
173.3850, 25382.00
174.6100, 25440.00
175.8340, 25641.00
177.0580, 26168.00
178.2820, 26713.00
179.5050, 27507.00
180.7290, 28062.00
181.9520, 29307.00
183.1760, 29796.00
184.3990, 30557.00
185.6220, 31744.00
186.8450, 33068.00
188.0670, 34425.00
189.2900, 35635.00
190.5120, 37076.00
191.7340, 38640.00
192.9560, 40111.00
194.1780, 41401.00
195.4000, 42736.00
196.6220, 43939.00
197.8430, 45082.00
199.0640, 45881.00
200.2860, 46371.00
201.5070, 47058.00
202.7270, 47009.00
203.9480, 46307.00
205.1690, 44897.00
206.3890, 43715.00
207.6090, 42715.00
208.8290, 41408.00
210.0490, 40212.00
211.2690, 38777.00
212.4890, 37365.00
213.7080, 36056.00
214.9280, 34495.00
216.1470, 33322.00
217.3660, 31949.00
218.5850, 30881.00
219.8030, 29940.00
221.0220, 28702.00
222.2400, 27958.00
223.4590, 27156.00
224.6770, 26392.00
225.8950, 25549.00
227.1120, 24661.00
228.3300, 23968.00
229.5480, 23357.00
230.7650, 22853.00
231.9820, 22288.00
233.1990, 21723.00
234.4160, 21322.00
235.6330, 20980.00
236.8490, 21012.00
238.0660, 20825.00
239.2820, 20465.00
240.4980, 20118.00
241.7140, 20043.00
242.9300, 19560.00
244.1460, 19109.00
245.3610, 18766.00
246.5770, 18632.00
247.7920, 18407.00
249.0070, 18366.00
250.2220, 18279.00
251.4370, 18180.00
252.6510, 18272.00
253.8660, 18268.00
255.0800, 18322.00
256.2940, 18727.00
257.5080, 19478.00
258.7220, 20967.00
259.9360, 21132.00
261.1490, 20423.00
262.3630, 20238.00
263.5760, 19845.00
264.7890, 19935.00
266.0020, 19882.00
267.2150, 20029.00
268.4270, 20419.00
269.6400, 20876.00
270.8520, 20871.00
272.0640, 20873.00
273.2760, 21022.00
274.4880, 21112.48
275.7000, 21255.07
276.9120, 21373.00
278.1230, 21475.01
279.3340, 21584.00
280.5450, 21681.00
281.7560, 21770.00
282.9670, 21862.49
284.1780, 21838.00
285.3880, 22117.00
286.5980, 22242.00
287.8090, 22414.00
289.0190, 22362.00
290.2290, 22588.00
291.4380, 22624.00
292.6480, 22431.00
293.8570, 23420.00
295.0670, 24366.00
296.2760, 23582.00
297.4850, 24276.00
298.6930, 23908.63
299.9020, 23767.00
301.1110, 23354.00
302.3190, 22763.00
303.5270, 22752.00
304.7350, 22220.00
305.9430, 22233.00
307.1510, 21961.00
308.3580, 21812.62
309.5660, 21808.00
310.7730, 21538.00
311.9800, 21348.00
313.1870, 21011.00
314.3940, 21028.00
315.6010, 20929.00
316.8070, 21051.00
318.0130, 20996.00
319.2200, 20976.00
320.4260, 20980.00
321.6310, 20762.00
322.8370, 20766.00
324.0430, 20933.00
325.2480, 20972.00
326.4540, 21291.00
327.6590, 21345.00
328.8640, 21933.00
330.0680, 21927.00
331.2730, 22203.00
332.4780, 22270.00
333.6820, 22177.00
334.8860, 22249.00
336.0900, 22278.00
337.2940, 22133.00
338.4980, 21782.00
339.7010, 21674.00
340.9050, 21246.00
342.1080, 21310.00
343.3110, 20973.00
344.5140, 20846.00
345.7170, 20700.00
346.9200, 20433.00
348.1220, 20534.00
349.3240, 20523.00
350.5270, 20576.00
351.7290, 20552.00
352.9310, 20554.00
354.1320, 20482.00
355.3340, 20575.00
356.5350, 20373.00
357.7370, 20321.00
358.9380, 20312.00
360.1390, 20080.00
361.3400, 19905.00
362.5400, 19782.00
363.7410, 19581.00
364.9410, 19393.01
366.1410, 19234.00
367.3410, 18974.00
368.5410, 18791.00
369.7410, 18576.00
370.9400, 18555.00
372.1400, 18431.00
373.3390, 18442.00
374.5380, 18204.00
375.7370, 18152.00
376.9360, 18210.00
378.1350, 18435.00
379.3330, 18465.00
380.5310, 18812.00
381.7300, 18959.00
382.9280, 19488.00
384.1260, 19503.00
385.3230, 19723.00
386.5210, 20306.00
387.7180, 20499.00
388.9160, 20931.00
390.1130, 21106.00
391.3100, 21090.00
392.5060, 21056.00
393.7030, 20948.06
394.9000, 20899.00
396.0960, 20476.00
397.2920, 20293.00
398.4880, 19860.00
399.6840, 19429.00
400.8800, 19059.00
402.0750, 18665.15
403.2710, 18316.71
404.4660, 17910.00
405.6610, 17693.00
406.8560, 17278.00
408.0510, 17055.00
409.2450, 16893.00
410.4400, 16765.00
411.6340, 16571.69
412.8280, 16451.00
414.0220, 16256.00
415.2160, 16186.00
416.4100, 16064.00
417.6030, 15935.00
418.7970, 15765.00
419.9900, 15407.00
421.1830, 15355.00
422.3760, 14964.00
423.5690, 14704.00
424.7610, 14594.00
425.9540, 14330.00
427.1460, 14255.00
428.3380, 13843.00
429.5300, 13732.00
430.7220, 13629.00
431.9140, 13518.00
433.1050, 13523.00
434.2970, 13389.00
435.4880, 13454.00
436.6790, 13471.00
437.8700, 13625.00
439.0610, 13569.00
440.2510, 13438.00
441.4420, 13537.00
442.6320, 13407.00
443.8220, 13152.00
445.0120, 13289.00
446.2020, 13047.00
447.3910, 13011.00
448.5810, 12801.00
449.7700, 12709.00
450.9600, 12570.00
452.1490, 12452.00
453.3370, 12524.00
454.5260, 12535.00
455.7150, 12368.00
456.9030, 12392.00
458.0910, 12144.00
459.2800, 12160.00
460.4670, 12157.00
461.6550, 12083.00
462.8430, 12135.00
464.0300, 11993.00
465.2180, 11991.00
466.4050, 11943.00
467.5920, 11879.00
468.7790, 12022.00
469.9650, 11872.00
471.1520, 11944.00
472.3380, 12078.00
473.5250, 11922.00
474.7110, 11935.00
475.8970, 11986.00
477.0820, 11859.00
478.2680, 11895.00
479.4540, 11947.00
480.6390, 12047.00
481.8240, 11873.00
483.0090, 12081.00
484.1940, 11984.00
485.3780, 12187.00
486.5630, 12204.00
487.7470, 12217.00
488.9320, 12297.00
490.1160, 12347.00
491.3000, 12432.00
492.4830, 12469.00
493.6670, 12544.09
494.8500, 12621.50
496.0340, 12680.00
497.2170, 12773.00
498.4000, 12844.00
499.5820, 12898.00
500.7650, 12979.00
501.9480, 13190.00
503.1300, 13296.00
504.3120, 13488.00
505.4940, 13576.00
506.6760, 13833.00
507.8580, 13927.00
509.0390, 14246.00
510.2210, 14283.00
511.4020, 14452.00
512.5830, 14589.00
513.7640, 14853.00
514.9450, 15068.00
516.1250, 15325.00
517.3060, 15710.00
518.4860, 16004.00
519.6660, 16511.00
520.8460, 16709.00
522.0260, 17083.00
523.2060, 17297.00
524.3850, 17606.00
525.5650, 17913.79
526.7440, 18015.00
527.9230, 18486.00
529.1020, 18678.06
530.2810, 18889.00
531.4590, 19327.00
532.6380, 19713.00
533.8160, 20063.00
534.9940, 20851.00
536.1720, 21418.00
537.3500, 22385.00
538.5270, 22951.00
539.7050, 23685.00
540.8820, 24406.00
542.0590, 24943.00
543.2360, 25822.00
544.4130, 26696.00
545.5900, 27526.00
546.7660, 28726.00
547.9430, 30220.00
549.1190, 31797.00
550.2950, 33768.00
551.4710, 35986.00
552.6470, 37988.00
553.8220, 40123.00
554.9980, 42195.00
556.1730, 44114.00
557.3480, 45498.00
558.5230, 46053.00
559.6980, 46193.00
560.8730, 46592.00
562.0470, 47067.00
563.2220, 47562.00
564.3960, 48711.00
565.5700, 48863.00
566.7440, 48649.00
567.9170, 47270.00
569.0910, 44379.00
570.2640, 40886.00
571.4380, 37079.00
572.6110, 33112.00
573.7840, 29666.00
574.9570, 26472.00
576.1290, 24161.00
577.3020, 22281.00
578.4740, 20795.00
579.6460, 19516.00
580.8180, 18402.00
581.9900, 17595.00
583.1620, 16843.00
584.3330, 16356.00
585.5040, 15826.00
586.6760, 15650.00
587.8470, 15590.00
589.0180, 15583.00
590.1880, 15612.00
591.3590, 15616.00
592.5290, 15893.00
593.7000, 16058.00
594.8700, 16311.00
596.0400, 16877.00
597.2090, 17662.00
598.3790, 18002.00
599.5490, 18913.00
600.7180, 19550.00
601.8870, 19932.00
603.0560, 20854.00
604.2250, 21510.00
605.3940, 22184.00
606.5620, 22564.00
607.7300, 23134.00
608.8990, 23181.00
610.0670, 23092.00
611.2350, 23129.00
612.4020, 22733.00
613.5700, 22782.00
614.7370, 22173.00
615.9050, 21651.00
617.0720, 21446.00
618.2390, 21117.00
619.4060, 20961.00
620.5720, 20738.00
621.7390, 20829.00
622.9050, 20659.00
624.0710, 20936.00
625.2370, 20881.00
626.4030, 20907.00
627.5690, 20812.00
628.7340, 20556.00
629.9000, 20331.00
631.0650, 19924.00
632.2300, 19360.00
633.3950, 18807.00
634.5600, 18292.00
635.7240, 18130.00
636.8890, 17804.00
638.0530, 17492.00
639.2170, 17354.00
640.3810, 16938.00
641.5450, 16838.00
642.7080, 16700.00
643.8720, 16479.00
645.0350, 16498.00
646.1980, 16400.00
647.3610, 16325.00
648.5240, 16350.00
649.6870, 16206.00
650.8490, 16443.00
652.0120, 16711.00
653.1740, 16615.00
654.3360, 16865.00
655.4980, 16894.00
656.6600, 17316.00
657.8210, 17503.00
658.9830, 17702.00
660.1440, 17860.00
661.3050, 18374.00
662.4660, 18581.00
663.6270, 19111.00
664.7870, 19237.00
665.9480, 19717.00
667.1080, 19943.00
668.2680, 20025.00
669.4280, 20353.00
670.5880, 20678.00
671.7480, 21185.00
672.9070, 21563.43
674.0670, 22196.00
675.2260, 22569.00
676.3850, 22900.00
677.5440, 23612.00
678.7030, 24390.00
679.8610, 24880.00
681.0200, 25819.00
682.1780, 26456.00
683.3360, 27224.00
684.4940, 27858.00
685.6520, 28757.00
686.8090, 29395.00
687.9670, 30113.00
689.1240, 30795.00
690.2810, 31472.00
691.4380, 32084.00
692.5950, 33000.00
693.7520, 33603.00
694.9080, 34410.00
696.0650, 35503.00
697.2210, 36722.00
698.3770, 37815.00
699.5330, 39238.00
700.6880, 40452.00
701.8440, 41605.00
702.9990, 42967.00
704.1550, 43934.00
705.3100, 44945.00
706.4650, 45402.00
707.6190, 45479.97
708.7740, 45249.00
709.9290, 44672.14
711.0830, 43765.00
712.2370, 42561.00
713.3910, 41064.00
714.5450, 40153.00
715.6980, 38643.00
716.8520, 38077.00
718.0050, 37595.00
719.1580, 37881.00
720.3110, 37922.00
721.4640, 38829.00
722.6170, 39789.00
723.7700, 40561.00
724.9220, 41805.00
726.0740, 43354.00
727.2260, 44591.00
728.3780, 46289.00
729.5300, 47825.00
730.6810, 48987.00
731.8330, 50196.00
732.9840, 51521.00
734.1350, 52589.00
735.2860, 53661.38
736.4370, 54616.31
737.5880, 55463.00
738.7380, 56002.00
739.8880, 56509.00
741.0390, 56471.00
742.1890, 56364.00
743.3380, 56032.00
744.4880, 55297.00
745.6380, 54510.00
746.7870, 53937.00
747.9360, 52682.00
749.0850, 52216.00
750.2340, 51795.00
751.3830, 50943.00
752.5310, 50751.00
753.6800, 50728.00
754.8280, 50291.00
755.9760, 49992.00
757.1240, 49316.00
758.2720, 48600.00
759.4190, 47621.00
760.5670, 47155.00
761.7140, 45804.00
762.8610, 44922.00
764.0080, 43896.00
765.1550, 42307.00
766.3020, 41600.00
767.4480, 40359.00
768.5950, 39377.00
769.7410, 38100.00
770.8870, 37097.00
772.0330, 36152.00
773.1780, 34940.00
774.3240, 33638.00
775.4690, 32540.00
776.6140, 31656.00
777.7590, 30581.00
778.9040, 29859.00
780.0490, 28809.00
781.1940, 27996.00
782.3380, 27358.00
783.4820, 26360.00
784.6260, 25886.00
785.7700, 25366.00
786.9140, 24693.00
788.0580, 24246.00
789.2010, 23719.00
790.3450, 23214.00
791.4880, 22663.00
792.6310, 22358.00
793.7730, 21897.68
794.9160, 21661.00
796.0590, 21197.00
797.2010, 20678.00
798.3430, 20413.00
799.4850, 20300.00
800.6270, 20174.00
801.7690, 20050.00
802.9100, 20085.00
804.0520, 20078.41
805.1930, 20079.00
806.3340, 20297.00
807.4750, 20542.00
808.6160, 20844.00
809.7560, 21111.15
810.8970, 21372.00
812.0370, 21631.00
813.1770, 21966.00
814.3170, 22057.00
815.4570, 22374.00
816.5960, 22434.00
817.7360, 22658.00
818.8750, 22704.00
820.0140, 22592.00
821.1530, 22238.00
822.2920, 22147.00
823.4310, 21548.00
824.5690, 21408.00
825.7070, 20878.00
826.8460, 20639.00
827.9840, 20603.00
829.1220, 20325.00
830.2590, 20357.00
831.3970, 20535.00
832.5340, 20713.00
833.6710, 21051.00
834.8080, 21422.00
835.9450, 21476.00
837.0820, 20786.00
838.2190, 19923.00
839.3550, 19014.00
840.4910, 18616.00
841.6270, 18059.00
842.7630, 17515.00
843.8990, 17360.00
845.0350, 17095.00
846.1700, 16934.00
847.3060, 16837.00
848.4410, 17027.00
849.5760, 16854.00
850.7100, 17098.00
851.8450, 16993.00
852.9800, 17010.00
854.1140, 16534.00
855.2480, 16139.00
856.3820, 15893.00
857.5160, 15693.00
858.6500, 15515.00
859.7830, 15519.00
860.9170, 15246.00
862.0500, 14967.00
863.1830, 15337.00
864.3160, 15520.00
865.4480, 14821.00
866.5810, 14731.00
867.7130, 14641.00
868.8460, 14738.00
869.9780, 14653.00
871.1100, 14538.00
872.2410, 14687.00
873.3730, 14765.00
874.5050, 14737.00
875.6360, 14682.00
876.7670, 14698.00
877.8980, 14827.00
879.0290, 14814.00
880.1590, 14969.00
881.2900, 15072.00
882.4200, 15269.00
883.5500, 15489.00
884.6800, 15546.00
885.8100, 15654.00
886.9400, 15916.00
888.0690, 16215.00
889.1990, 16336.00
890.3280, 16598.00
891.4570, 16928.00
892.5860, 16878.00
893.7140, 17505.00
894.8430, 17520.00
895.9710, 17883.00
897.1000, 18154.00
898.2280, 18460.00
899.3560, 18909.00
900.4830, 19203.00
901.6110, 19750.00
902.7380, 20319.00
903.8660, 21127.00
904.9930, 22117.00
906.1200, 23735.00
907.2460, 25297.00
908.3730, 27995.00
909.5000, 31640.00
910.6260, 35466.00
911.7520, 37735.00
912.8780, 36628.00
914.0040, 33223.00
915.1290, 30499.00
916.2550, 28863.00
917.3800, 28809.00
918.5050, 29836.00
919.6300, 31791.00
920.7550, 34430.00
921.8800, 36208.00
923.0040, 37562.00
924.1290, 38471.00
925.2530, 40663.00
926.3770, 43802.00
927.5010, 45574.00
928.6250, 45185.00
929.7480, 43324.00
930.8720, 42089.00
931.9950, 41749.00
933.1180, 41017.00
934.2410, 41011.00
935.3640, 41933.00
936.4860, 43792.00
937.6090, 44283.00
938.7310, 42732.00
939.8530, 40330.00
940.9750, 38857.00
942.0970, 39000.00
943.2180, 40190.00
944.3400, 42943.00
945.4610, 48106.00
946.5820, 53325.00
947.7030, 56086.00
948.8240, 53618.00
949.9450, 46637.00
951.0650, 39730.00
952.1860, 35030.00
953.3060, 31344.00
954.4260, 29032.00
955.5460, 27374.00
956.6650, 26176.00
957.7850, 25528.00
958.9040, 25074.00
960.0230, 24571.00
961.1420, 24199.00
962.2610, 23856.00
963.3800, 23686.00
964.4990, 23501.00
965.6170, 23435.00
966.7350, 23395.48
967.8530, 23415.00
968.9710, 23423.00
970.0890, 23431.00
971.2070, 23426.00
972.3240, 23429.95
973.4410, 23443.00
974.5580, 23432.87
975.6750, 23568.00
976.7920, 23593.00
977.9090, 23715.17
979.0250, 23880.00
980.1410, 23993.00
981.2580, 24277.00
982.3740, 24475.00
983.4890, 24864.00
984.6050, 25090.00
985.7200, 25285.00
986.8360, 25656.00
987.9510, 26163.00
989.0660, 26700.00
990.1810, 27103.00
991.2950, 27558.00
992.4100, 28360.00
993.5240, 28891.00
994.6390, 29409.00
995.7530, 29855.00
996.8660, 30387.00
997.9800, 31073.00
999.0940, 31441.00
1000.207, 31679.00
1001.320, 32018.00
1002.433, 31769.00
1003.546, 31858.00
1004.659, 31549.00
1005.772, 31635.00
1006.884, 31493.00
1007.996, 31589.00
1009.108, 31622.00
1010.220, 31892.00
1011.332, 31970.00
1012.444, 31758.00
1013.555, 31665.00
1014.666, 31582.00
1015.777, 31470.00
1016.888, 31593.00
1017.999, 31407.00
1019.110, 31519.00
1020.220, 31504.00
1021.331, 31338.00
1022.441, 31449.00
1023.551, 31451.00
1024.661, 31446.00
1025.770, 31429.70
1026.880, 31454.00
1027.989, 31259.88
1029.098, 31264.00
1030.207, 31067.00
1031.316, 30723.00
1032.425, 30523.00
1033.533, 30179.00
1034.642, 30193.00
1035.750, 29667.00
1036.858, 29413.34
1037.966, 29084.41
1039.073, 28651.00
1040.181, 28490.00
1041.288, 28070.00
1042.396, 28138.00
1043.503, 28077.00
1044.610, 27777.00
1045.716, 27862.00
1046.823, 27731.00
1047.929, 27679.00
1049.036, 27812.00
1050.142, 27874.00
1051.248, 28213.00
1052.353, 28492.00
1053.459, 28992.00
1054.564, 29507.00
1055.670, 30069.00
1056.775, 30730.00
1057.880, 31325.83
1058.985, 32327.00
1060.089, 32828.00
1061.194, 34125.00
1062.298, 35353.00
1063.402, 36561.00
1064.506, 38498.00
1065.610, 39854.00
1066.713, 41312.00
1067.817, 42259.00
1068.920, 42819.00
1070.023, 42455.00
1071.126, 42343.00
1072.229, 42075.00
1073.332, 41306.00
1074.435, 40630.00
1075.537, 39630.00
1076.639, 38726.00
1077.741, 37707.00
1078.843, 36779.00
1079.945, 35831.00
1081.046, 35265.00
1082.148, 34561.75
1083.249, 33913.00
1084.350, 33622.00
1085.451, 33226.00
1086.551, 33058.00
1087.652, 32649.00
1088.752, 32563.00
1089.853, 31889.00
1090.953, 31766.00
1092.053, 31798.00
1093.152, 31504.00
1094.252, 30919.00
1095.351, 30584.00
1096.451, 29988.00
1097.550, 29559.00
1098.649, 29001.00
1099.748, 28256.00
1100.846, 27328.00
1101.945, 26417.00
1103.043, 25602.00
1104.141, 24881.00
1105.239, 24284.00
1106.337, 23557.00
1107.434, 23015.00
1108.532, 22604.00
1109.629, 22055.00
1110.726, 21642.00
1111.823, 21443.00
1112.920, 21271.00
1114.017, 21105.00
1115.113, 20945.00
1116.210, 20799.98
1117.306, 20673.00
1118.402, 20543.00
1119.498, 20561.00
1120.593, 20487.00
1121.689, 20482.00
1122.784, 20309.00
1123.879, 20168.00
1124.974, 20094.00
1126.069, 20079.00
1127.164, 19971.00
1128.259, 19946.00
1129.353, 19747.00
1130.447, 19767.00
1131.541, 19967.00
1132.635, 19802.00
1133.729, 19639.00
1134.822, 19864.00
1135.916, 19781.00
1137.009, 19884.00
1138.102, 19715.00
1139.195, 19634.00
1140.288, 19503.00
1141.380, 19661.00
1142.473, 19703.00
1143.565, 19566.00
1144.657, 19470.00
1145.749, 19590.00
1146.841, 19408.00
1147.932, 19406.00
1149.024, 19377.00
1150.115, 19309.00
1151.206, 19271.92
1152.297, 19175.00
1153.388, 19148.00
1154.479, 19025.00
1155.569, 18956.00
1156.659, 18980.00
1157.750, 19125.00
1158.839, 18896.00
1159.929, 18892.00
1161.019, 18954.00
1162.108, 18824.00
1163.198, 18776.00
1164.287, 18698.00
1165.376, 18697.00
1166.465, 18779.00
1167.553, 18608.00
1168.642, 18599.26
1169.730, 18950.00
1170.818, 18478.00
1171.906, 18549.00
1172.994, 18611.00
1174.082, 18395.00
1175.170, 18490.00
1176.257, 18331.00
1177.344, 18272.00
1178.431, 18131.00
1179.518, 18095.00
1180.605, 17920.00
1181.691, 17926.00
1182.778, 17673.00
1183.864, 17681.00
1184.950, 17646.00
1186.036, 17764.00
1187.122, 17583.00
1188.207, 17480.00
1189.292, 17578.00
1190.378, 17424.00
1191.463, 17264.00
1192.548, 17296.00
1193.632, 17145.00
1194.717, 16944.00
1195.801, 16939.00
1196.886, 16975.00
1197.970, 17140.00
1199.054, 16878.00
1200.137, 16963.00
1201.221, 16968.00
1202.305, 16818.00
1203.388, 16813.00
1204.471, 16748.00
1205.554, 16716.00
1206.637, 16766.00
1207.719, 16783.00
1208.802, 16645.00
1209.884, 16675.00
1210.966, 16756.00
1212.048, 16635.00
1213.130, 16770.00
1214.212, 16594.00
1215.293, 16575.00
1216.374, 16587.00
1217.456, 16586.00
1218.536, 16552.00
1219.617, 16618.00
1220.698, 16703.00
1221.778, 16683.97
1222.859, 16639.00
1223.939, 16756.00
1225.019, 16850.00
1226.099, 17002.00
1227.178, 16914.00
1228.258, 16955.00
1229.337, 16918.00
1230.417, 17082.00
1231.496, 17087.00
1232.574, 16904.00
1233.653, 17073.00
1234.732, 17051.00
1235.810, 17127.00
1236.888, 17190.00
1237.966, 17170.00
1239.044, 17225.73
1240.122, 17272.03
1241.199, 17277.00
1242.277, 17359.00
1243.354, 17415.00
1244.431, 17409.00
1245.508, 17579.00
1246.585, 17492.00
1247.661, 17428.00
1248.738, 17616.00
1249.814, 17567.00
1250.890, 17753.00
1251.966, 17556.00
1253.042, 17519.00
1254.117, 17593.00
1255.193, 17729.00
1256.268, 17889.00
1257.343, 17845.36
1258.418, 17886.00
1259.493, 17771.00
1260.567, 17885.00
1261.642, 17859.00
1262.716, 18104.00
1263.790, 18000.00
1264.864, 18047.00
1265.938, 17993.00
1267.011, 18055.00
1268.085, 17968.00
1269.158, 18030.00
1270.231, 18016.00
1271.304, 17994.00
1272.377, 18034.00
1273.450, 17857.00
1274.522, 17924.00
1275.594, 17853.00
1276.666, 17938.00
1277.738, 17802.00
1278.810, 17908.00
1279.882, 17716.00
1280.953, 17727.00
1282.025, 17916.00
1283.096, 17740.00
1284.167, 17741.00
1285.238, 17651.00
1286.308, 17758.00
1287.379, 17840.00
1288.449, 17727.00
1289.519, 17839.00
1290.589, 17689.00
1291.659, 17663.00
1292.729, 17561.00
1293.798, 17633.00
1294.868, 17719.00
1295.937, 17598.00
1297.006, 17726.00
1298.075, 17672.00
1299.143, 17699.00
1300.212, 17639.00
1301.280, 17589.00
1302.348, 17630.00
1303.416, 17595.00
1304.484, 17538.00
1305.552, 17506.00
1306.620, 17525.09
1307.687, 17475.00
1308.754, 17544.00
1309.821, 17543.00
1310.888, 17459.00
1311.955, 17725.00
1313.021, 17586.00
1314.088, 17466.00
1315.154, 17581.00
1316.220, 17475.00
1317.286, 17490.00
1318.352, 17561.00
1319.417, 17428.00
1320.483, 17517.00
1321.548, 17490.00
1322.613, 17333.00
1323.678, 17430.00
1324.743, 17337.00
1325.807, 17449.00
1326.872, 17306.00
1327.936, 17318.00
1329.000, 17323.59
1330.064, 17335.00
1331.128, 17344.00
1332.191, 17296.00
1333.255, 17360.00
1334.318, 17417.00
1335.381, 17338.00
1336.444, 17356.00
1337.507, 17422.00
1338.569, 17376.00
1339.632, 17609.00
1340.694, 17699.00
1341.756, 17748.00
1342.818, 17838.30
1343.880, 17812.00
1344.941, 17951.00
1346.003, 17909.00
1347.064, 18083.00
1348.125, 18281.00
1349.186, 18260.00
1350.247, 18673.00
1351.308, 18936.00
1352.368, 19334.00
1353.428, 19994.00
1354.489, 20733.00
1355.549, 21557.00
1356.608, 23048.00
1357.668, 24382.00
1358.727, 25478.00
1359.787, 26602.00
1360.846, 26746.00
1361.905, 26567.00
1362.964, 25524.00
1364.022, 24315.00
1365.081, 22874.00
1366.139, 21753.00
1367.197, 20660.00
1368.255, 19891.00
1369.313, 19225.00
1370.371, 18853.00
1371.428, 18468.00
1372.486, 18258.00
1373.543, 18323.00
1374.600, 18379.00
1375.657, 18487.00
1376.713, 18482.00
1377.770, 18498.00
1378.826, 18492.00
1379.882, 18432.96
1380.938, 18345.00
1381.994, 18270.00
1383.050, 18130.00
1384.106, 17992.00
1385.161, 18134.00
1386.216, 18110.00
1387.271, 18347.00
1388.326, 18592.00
1389.381, 19248.00
1390.435, 19783.00
1391.490, 20296.00
1392.544, 21381.00
1393.598, 22052.00
1394.652, 22790.00
1395.705, 23068.00
1396.759, 22546.00
1397.812, 21849.00
1398.866, 20572.00
1399.919, 19864.00
1400.972, 18971.00
1402.024, 18353.00
1403.077, 17908.00
1404.129, 17468.00
1405.181, 17201.00
1406.233, 16891.00
1407.285, 16837.00
1408.337, 16492.00
1409.389, 16353.00
1410.440, 16507.00
1411.491, 16332.00
1412.542, 16469.00
1413.593, 16270.00
1414.644, 16630.00
1415.695, 16575.00
1416.745, 16583.00
1417.795, 16635.00
1418.845, 16693.00
1419.895, 16953.00
1420.945, 17378.00
1421.995, 17460.00
1423.044, 17665.00
1424.093, 18124.00
1425.142, 18363.00
1426.191, 18364.00
1427.240, 18331.00
1428.289, 18493.00
1429.337, 18015.00
1430.385, 17707.00
1431.433, 17727.00
1432.481, 17616.00
1433.529, 17583.00
1434.577, 17529.00
1435.624, 17860.00
1436.672, 17904.00
1437.719, 18204.00
1438.766, 18451.00
1439.812, 18729.00
1440.859, 18975.00
1441.905, 19185.00
1442.952, 19249.00
1443.998, 19486.00
1445.044, 19527.00
1446.090, 19729.00
1447.135, 19678.81
1448.181, 19588.00
1449.226, 19498.00
1450.271, 19378.00
1451.316, 19185.00
1452.361, 19234.00
1453.405, 19253.00
1454.450, 19219.00
1455.494, 19506.00
1456.538, 19616.00
1457.582, 19589.00
1458.626, 19871.00
1459.670, 20017.00
1460.713, 20045.00
1461.757, 20006.00
1462.800, 20065.69
1463.843, 20202.00
1464.886, 19989.00
1465.928, 19998.00
1466.971, 19798.00
1468.013, 19549.00
1469.055, 19382.00
1470.097, 19400.00
1471.139, 19435.00
1472.181, 19429.00
1473.222, 19199.00
1474.263, 19277.00
1475.305, 19128.00
1476.346, 19246.00
1477.386, 19214.00
1478.427, 19437.00
1479.468, 19210.00
1480.508, 19175.00
1481.548, 18969.00
1482.588, 19098.00
1483.628, 19226.00
1484.668, 19325.00
1485.707, 19352.00
1486.747, 19290.00
1487.786, 19291.00
1488.825, 19052.00
1489.864, 19188.00
1490.902, 19185.00
1491.941, 19293.00
1492.979, 19362.00
1494.017, 19251.00
1495.055, 19220.00
1496.093, 19124.00
1497.131, 19190.00
1498.168, 19286.00
1499.206, 19207.00
1500.243, 19399.00
1501.280, 19320.00
1502.317, 19250.00
1503.354, 19439.00
1504.390, 19370.00
1505.426, 19361.00
1506.463, 19494.00
1507.499, 19405.00
1508.535, 19354.00
1509.570, 19340.00
1510.606, 19434.00
1511.641, 19299.00
1512.676, 19538.00
1513.711, 19452.00
1514.746, 19511.00
1515.781, 19644.00
1516.816, 19530.30
1517.850, 19425.00
1518.884, 19393.00
1519.918, 19480.00
1520.952, 19386.00
1521.986, 19479.00
1523.019, 19448.00
1524.053, 19361.00
1525.086, 19486.00
1526.119, 19380.00
1527.152, 19483.00
1528.185, 19532.00
1529.217, 19639.00
1530.250, 19495.00
1531.282, 19409.00
1532.314, 19490.92
1533.346, 19603.00
1534.377, 19601.00
1535.409, 19711.00
1536.440, 19800.00
1537.472, 19753.00
1538.503, 19625.00
1539.534, 19565.00
1540.564, 19771.00
1541.595, 19789.00
1542.625, 19934.00
1543.656, 19775.00
1544.686, 19810.00
1545.716, 19927.00
1546.745, 20056.00
1547.775, 20113.00
1548.804, 20161.00
1549.834, 20202.00
1550.863, 20164.00
1551.892, 20408.00
1552.920, 20569.00
1553.949, 20815.00
1554.977, 20703.00
1556.006, 20662.00
1557.034, 20485.00
1558.062, 20297.00
1559.089, 20182.00
1560.117, 20442.00
1561.144, 20376.00
1562.172, 20542.00
1563.199, 20471.00
1564.226, 20531.00
1565.252, 20529.00
1566.279, 20576.00
1567.305, 20528.00
1568.332, 20706.00
1569.358, 20461.00
1570.384, 20735.00
1571.409, 20867.00
##END=



