##NAMES=Eudialyte
##RRUFFID=R050230
##IDEAL CHEMISTRY=Na_15_Ca_6_Fe^2+^_3_Zr^4+^_3_Si(Si_25_O_73_)(O,OH,H_2_O)_3_(Cl,OH)_2_
##LOCALITY=Kipawa alkaline complex, near Sheffield Lake, Villedieu Township, Temiscamingue County, Quebec, Canada
##OWNER=RRUFF
##SOURCE=Marcus Origlieri
##DESCRIPTION=Massive aggregate of red crystals
##STATUS=The identification of this mineral has been confirmed by X-ray diffraction and chemical analysis
##URL=rruff.info/R050230
##MEASURED CHEMISTRY=(Na_14.50_K_0.35_Ca_0.15_)_Σ=15_Ca_6.00_(Fe_1.86_Mn_1.01_Mg_0.13_)_Σ=3_(Zr_2.91_Ti_0.09_)_3_(Si_0.94_Nb_0.06_)_Σ=1.00_(Si_25.00_O_73_)(OH)_1.10_(H_2_O)_1.90_)_Σ=3_(Cl_1.17_(OH)_0.83_)_Σ=2_
##PIN_ID=M00176
##ORIENTATION=Laser parallel to a* (1 0 0). Fiducial mark perpendicular to laser is parallel to c [0 0 1]
118.1340, 16922.00
119.3650, 17138.00
120.5960, 17170.00
121.8270, 17493.00
123.0580, 17776.00
124.2880, 17946.00
125.5190, 18202.00
126.7490, 18566.00
127.9790, 19009.00
129.2090, 19715.00
130.4390, 20259.00
131.6680, 20636.00
132.8980, 21215.00
134.1270, 21700.00
135.3560, 22379.00
136.5850, 22886.00
137.8140, 23321.00
139.0430, 23734.29
140.2710, 24271.00
141.5000, 24326.00
142.7280, 24415.00
143.9560, 24599.00
145.1840, 24428.00
146.4120, 24218.00
147.6390, 23954.00
148.8670, 23606.49
150.0940, 23114.00
151.3210, 22735.00
152.5490, 22265.00
153.7750, 21661.00
155.0020, 21472.00
156.2290, 20917.00
157.4550, 20537.00
158.6810, 20209.00
159.9080, 19781.00
161.1340, 19848.00
162.3590, 19833.00
163.5850, 19701.00
164.8110, 19436.00
166.0360, 19134.00
167.2610, 18988.00
168.4860, 18915.00
169.7110, 19060.00
170.9360, 18720.00
172.1610, 18644.00
173.3850, 18510.00
174.6100, 18242.00
175.8340, 18215.00
177.0580, 18220.00
178.2820, 18222.00
179.5050, 18087.00
180.7290, 18096.00
181.9520, 18088.00
183.1760, 18217.00
184.3990, 18271.00
185.6220, 18334.00
186.8450, 18526.00
188.0670, 18631.00
189.2900, 18709.00
190.5120, 18800.00
191.7340, 18575.00
192.9560, 18746.00
194.1780, 18657.00
195.4000, 18839.00
196.6220, 18778.00
197.8430, 18554.00
199.0640, 18488.00
200.2860, 18595.00
201.5070, 18864.00
202.7270, 18835.00
203.9480, 18847.00
205.1690, 18680.00
206.3890, 18694.00
207.6090, 18558.00
208.8290, 18801.00
210.0490, 18707.00
211.2690, 18863.00
212.4890, 18594.00
213.7080, 18851.00
214.9280, 18913.00
216.1470, 18586.00
217.3660, 18573.00
218.5850, 18373.00
219.8030, 18418.00
221.0220, 18573.00
222.2400, 18347.00
223.4590, 18182.00
224.6770, 18252.00
225.8950, 17891.00
227.1120, 17847.00
228.3300, 17789.00
229.5480, 17794.00
230.7650, 17557.00
231.9820, 17544.00
233.1990, 17347.00
234.4160, 17291.00
235.6330, 17441.00
236.8490, 17439.00
238.0660, 17494.00
239.2820, 17389.00
240.4980, 17585.00
241.7140, 17458.00
242.9300, 17484.00
244.1460, 17657.00
245.3610, 17815.00
246.5770, 17839.00
247.7920, 17894.00
249.0070, 17941.00
250.2220, 18045.00
251.4370, 17956.00
252.6510, 18050.00
253.8660, 18136.00
255.0800, 18145.00
256.2940, 18422.00
257.5080, 18836.00
258.7220, 18720.25
259.9360, 18930.00
261.1490, 18741.00
262.3630, 18672.00
263.5760, 18832.00
264.7890, 19199.00
266.0020, 19290.00
267.2150, 19358.00
268.4270, 19487.00
269.6400, 19754.00
270.8520, 19905.00
272.0640, 20193.00
273.2760, 20225.00
274.4880, 20416.00
275.7000, 20394.00
276.9120, 20623.00
278.1230, 20748.00
279.3340, 20961.00
280.5450, 20955.00
281.7560, 20992.00
282.9670, 20950.00
284.1780, 21103.00
285.3880, 21195.00
286.5980, 21103.00
287.8090, 20999.00
289.0190, 20971.00
290.2290, 20878.00
291.4380, 20868.00
292.6480, 20536.00
293.8570, 20576.00
295.0670, 20402.00
296.2760, 20257.00
297.4850, 20170.00
298.6930, 20154.00
299.9020, 20071.00
301.1110, 19795.00
302.3190, 19812.00
303.5270, 19644.00
304.7350, 19571.00
305.9430, 19417.00
307.1510, 19501.00
308.3580, 19374.00
309.5660, 19361.00
310.7730, 19236.00
311.9800, 19076.00
313.1870, 19253.00
314.3940, 19248.00
315.6010, 19216.00
316.8070, 19380.00
318.0130, 19377.00
319.2200, 19187.00
320.4260, 19307.00
321.6310, 19462.00
322.8370, 19566.00
324.0430, 19688.00
325.2480, 19717.00
326.4540, 19731.00
327.6590, 19805.00
328.8640, 19810.00
330.0680, 20131.00
331.2730, 20050.00
332.4780, 20344.00
333.6820, 20431.00
334.8860, 20658.00
336.0900, 20704.00
337.2940, 20823.00
338.4980, 21057.00
339.7010, 21316.00
340.9050, 21080.00
342.1080, 21144.00
343.3110, 21038.00
344.5140, 21143.00
345.7170, 21060.00
346.9200, 20800.00
348.1220, 20834.00
349.3240, 20696.00
350.5270, 20677.00
351.7290, 20734.00
352.9310, 20471.00
354.1320, 20549.00
355.3340, 20447.00
356.5350, 20310.00
357.7370, 20370.00
358.9380, 20258.00
360.1390, 19978.00
361.3400, 19847.00
362.5400, 19852.00
363.7410, 19626.00
364.9410, 19249.00
366.1410, 19174.00
367.3410, 18780.00
368.5410, 18582.00
369.7410, 18327.00
370.9400, 18274.00
372.1400, 18183.00
373.3390, 17946.00
374.5380, 17757.00
375.7370, 17790.00
376.9360, 17539.00
378.1350, 17585.00
379.3330, 17370.00
380.5310, 17264.00
381.7300, 17241.00
382.9280, 17409.00
384.1260, 17140.00
385.3230, 17346.00
386.5210, 17290.00
387.7180, 17388.00
388.9160, 17526.00
390.1130, 17601.00
391.3100, 17597.00
392.5060, 17624.00
393.7030, 17749.00
394.9000, 17710.00
396.0960, 17897.00
397.2920, 17921.00
398.4880, 17843.00
399.6840, 17739.00
400.8800, 17852.00
402.0750, 17817.00
403.2710, 17738.00
404.4660, 17710.00
405.6610, 17615.00
406.8560, 17593.00
408.0510, 17554.00
409.2450, 17276.00
410.4400, 17237.00
411.6340, 16957.00
412.8280, 16958.00
414.0220, 17015.00
415.2160, 16799.00
416.4100, 16716.00
417.6030, 16592.00
418.7970, 16550.00
419.9900, 16428.00
421.1830, 16368.55
422.3760, 16229.00
423.5690, 16254.00
424.7610, 16121.00
425.9540, 16086.36
427.1460, 15830.00
428.3380, 15848.00
429.5300, 15691.00
430.7220, 15479.00
431.9140, 16002.00
433.1050, 15903.16
434.2970, 15720.29
435.4880, 16199.00
436.6790, 15254.00
437.8700, 15217.00
439.0610, 15106.00
440.2510, 14890.00
441.4420, 14862.00
442.6320, 14872.00
443.8220, 14987.00
445.0120, 14752.00
446.2020, 14744.00
447.3910, 14808.00
448.5810, 14805.00
449.7700, 14746.00
450.9600, 14657.00
452.1490, 14741.00
453.3370, 14597.00
454.5260, 14465.00
455.7150, 14685.00
456.9030, 14382.00
458.0910, 14576.00
459.2800, 14478.00
460.4670, 14565.00
461.6550, 14481.00
462.8430, 14419.00
464.0300, 14337.00
465.2180, 14215.00
466.4050, 14297.00
467.5920, 14250.00
468.7790, 14200.00
469.9650, 14117.00
471.1520, 14073.00
472.3380, 14228.00
473.5250, 14187.02
474.7110, 14279.00
475.8970, 14311.00
477.0820, 14378.00
478.2680, 14510.00
479.4540, 14368.00
480.6390, 14520.00
481.8240, 14577.00
483.0090, 14491.00
484.1940, 14589.00
485.3780, 14433.00
486.5630, 14477.00
487.7470, 14317.00
488.9320, 14450.00
490.1160, 14645.00
491.3000, 14510.00
492.4830, 14571.00
493.6670, 14513.00
494.8500, 14551.00
496.0340, 14650.00
497.2170, 14748.00
498.4000, 14743.00
499.5820, 14744.00
500.7650, 14860.00
501.9480, 14957.00
503.1300, 15026.00
504.3120, 14986.00
505.4940, 15097.00
506.6760, 15399.00
507.8580, 15284.00
509.0390, 15420.00
510.2210, 15648.00
511.4020, 15521.00
512.5830, 15445.00
513.7640, 15692.00
514.9450, 15650.00
516.1250, 15874.00
517.3060, 15953.00
518.4860, 15882.00
519.6660, 16046.00
520.8460, 15917.00
522.0260, 16107.00
523.2060, 16272.00
524.3850, 16364.00
525.5650, 16498.45
526.7440, 16466.00
527.9230, 16637.00
529.1020, 16779.00
530.2810, 16741.00
531.4590, 16908.00
532.6380, 16982.00
533.8160, 17255.00
534.9940, 17357.00
536.1720, 17450.00
537.3500, 17528.00
538.5270, 17744.20
539.7050, 17980.00
540.8820, 18236.00
542.0590, 18543.00
543.2360, 18892.97
544.4130, 19468.00
545.5900, 19871.00
546.7660, 20391.00
547.9430, 21092.00
549.1190, 21622.00
550.2950, 22621.00
551.4710, 23374.00
552.6470, 24204.00
553.8220, 25139.00
554.9980, 26198.00
556.1730, 27269.00
557.3480, 28522.00
558.5230, 29642.00
559.6980, 30965.00
560.8730, 31811.00
562.0470, 33169.00
563.2220, 34056.00
564.3960, 34972.00
565.5700, 35793.00
566.7440, 36422.00
567.9170, 37069.00
569.0910, 37313.00
570.2640, 37412.00
571.4380, 36561.00
572.6110, 35530.00
573.7840, 33979.00
574.9570, 32423.00
576.1290, 30800.00
577.3020, 28845.00
578.4740, 27352.00
579.6460, 26076.00
580.8180, 24874.00
581.9900, 23812.00
583.1620, 23090.00
584.3330, 22409.00
585.5040, 21837.00
586.6760, 21763.00
587.8470, 21324.00
589.0180, 21280.00
590.1880, 21314.00
591.3590, 21417.00
592.5290, 21659.00
593.7000, 21712.00
594.8700, 22196.00
596.0400, 22381.00
597.2090, 22849.00
598.3790, 23321.00
599.5490, 23918.00
600.7180, 24051.00
601.8870, 24471.00
603.0560, 24908.00
604.2250, 24988.00
605.3940, 25045.00
606.5620, 25092.00
607.7300, 24992.00
608.8990, 24641.00
610.0670, 24547.00
611.2350, 23866.00
612.4020, 23495.00
613.5700, 23131.00
614.7370, 22355.00
615.9050, 21951.00
617.0720, 21327.00
618.2390, 20696.00
619.4060, 20146.00
620.5720, 19842.00
621.7390, 19568.00
622.9050, 19400.00
624.0710, 19179.00
625.2370, 19112.00
626.4030, 19005.00
627.5690, 18937.00
628.7340, 18824.00
629.9000, 18592.00
631.0650, 18668.00
632.2300, 18431.00
633.3950, 18578.00
634.5600, 18301.00
635.7240, 18491.00
636.8890, 18224.00
638.0530, 18337.00
639.2170, 18498.00
640.3810, 18459.00
641.5450, 18529.00
642.7080, 18522.00
643.8720, 18641.00
645.0350, 18588.00
646.1980, 18755.00
647.3610, 19026.00
648.5240, 19257.00
649.6870, 19344.00
650.8490, 19587.00
652.0120, 19748.00
653.1740, 19871.00
654.3360, 20015.00
655.4980, 20317.00
656.6600, 20726.00
657.8210, 21157.00
658.9830, 21441.00
660.1440, 21808.05
661.3050, 21983.00
662.4660, 22426.00
663.6270, 22697.00
664.7870, 22990.00
665.9480, 23370.00
667.1080, 23763.00
668.2680, 24151.82
669.4280, 24514.00
670.5880, 24916.87
671.7480, 25228.00
672.9070, 25683.00
674.0670, 26115.00
675.2260, 26457.00
676.3850, 26953.00
677.5440, 27408.55
678.7030, 27995.00
679.8610, 28429.00
681.0200, 28829.00
682.1780, 29388.00
683.3360, 29750.00
684.4940, 30227.00
685.6520, 30614.00
686.8090, 31108.00
687.9670, 31633.00
689.1240, 32166.00
690.2810, 32296.00
691.4380, 33065.00
692.5950, 33414.00
693.7520, 33719.00
694.9080, 34430.00
696.0650, 34679.37
697.2210, 35082.39
698.3770, 35459.00
699.5330, 35591.00
700.6880, 36011.00
701.8440, 35955.00
702.9990, 35976.00
704.1550, 35629.00
705.3100, 35410.00
706.4650, 34832.00
707.6190, 33994.00
708.7740, 33216.00
709.9290, 32138.00
711.0830, 30968.00
712.2370, 29988.00
713.3910, 28609.00
714.5450, 27697.00
715.6980, 26854.00
716.8520, 25990.00
718.0050, 25247.00
719.1580, 24969.00
720.3110, 24445.00
721.4640, 23954.00
722.6170, 23915.00
723.7700, 23728.00
724.9220, 23889.00
726.0740, 23661.00
727.2260, 23698.00
728.3780, 23812.00
729.5300, 24057.00
730.6810, 24257.00
731.8330, 24596.00
732.9840, 24543.00
734.1350, 25216.00
735.2860, 25158.00
736.4370, 25563.00
737.5880, 25695.00
738.7380, 25941.00
739.8880, 26268.00
741.0390, 26407.00
742.1890, 26511.00
743.3380, 26593.00
744.4880, 26556.34
745.6380, 26589.00
746.7870, 26320.00
747.9360, 26213.00
749.0850, 25904.00
750.2340, 25806.00
751.3830, 25539.00
752.5310, 25423.00
753.6800, 24949.00
754.8280, 24608.00
755.9760, 24591.00
757.1240, 24266.00
758.2720, 24123.00
759.4190, 23772.00
760.5670, 23563.00
761.7140, 23228.00
762.8610, 23003.00
764.0080, 23188.00
765.1550, 22715.00
766.3020, 22962.00
767.4480, 22534.00
768.5950, 22417.00
769.7410, 22061.00
770.8870, 21929.00
772.0330, 21770.00
773.1780, 21558.00
774.3240, 21310.00
775.4690, 21154.00
776.6140, 20940.43
777.7590, 20742.15
778.9040, 20573.00
780.0490, 20380.00
781.1940, 20210.54
782.3380, 20088.00
783.4820, 19893.00
784.6260, 19719.00
785.7700, 19518.00
786.9140, 19385.00
788.0580, 19245.00
789.2010, 19161.00
790.3450, 19158.00
791.4880, 18998.00
792.6310, 18788.00
793.7730, 18986.00
794.9160, 18571.00
796.0590, 18586.00
797.2010, 18449.00
798.3430, 18339.00
799.4850, 18401.00
800.6270, 18136.00
801.7690, 18161.00
802.9100, 18018.00
804.0520, 17901.00
805.1930, 17808.00
806.3340, 17789.00
807.4750, 17592.00
808.6160, 17815.00
809.7560, 17529.00
810.8970, 17598.00
812.0370, 17618.00
813.1770, 17495.00
814.3170, 17599.00
815.4570, 17576.00
816.5960, 17415.00
817.7360, 17480.00
818.8750, 17449.00
820.0140, 17435.00
821.1530, 17364.00
822.2920, 17348.00
823.4310, 17303.00
824.5690, 17223.00
825.7070, 17298.00
826.8460, 17339.00
827.9840, 17114.00
829.1220, 17271.00
830.2590, 17105.00
831.3970, 17138.00
832.5340, 17133.00
833.6710, 17197.00
834.8080, 17094.00
835.9450, 17131.00
837.0820, 17066.00
838.2190, 17097.00
839.3550, 17202.00
840.4910, 17040.00
841.6270, 17175.00
842.7630, 17338.00
843.8990, 17175.00
845.0350, 17330.00
846.1700, 17254.00
847.3060, 17213.00
848.4410, 17417.00
849.5760, 17260.00
850.7100, 17029.00
851.8450, 17304.00
852.9800, 17216.00
854.1140, 17215.00
855.2480, 17355.00
856.3820, 17488.00
857.5160, 17361.00
858.6500, 17369.00
859.7830, 17441.33
860.9170, 17547.00
862.0500, 17547.00
863.1830, 17638.00
864.3160, 17659.00
865.4480, 17828.00
866.5810, 17792.00
867.7130, 17770.00
868.8460, 17865.00
869.9780, 18036.00
871.1100, 18200.00
872.2410, 18033.00
873.3730, 18214.00
874.5050, 18200.00
875.6360, 18298.00
876.7670, 18516.00
877.8980, 18481.00
879.0290, 18462.00
880.1590, 18429.00
881.2900, 18505.00
882.4200, 18554.00
883.5500, 18395.00
884.6800, 18539.00
885.8100, 18620.00
886.9400, 18478.00
888.0690, 18608.00
889.1990, 18582.00
890.3280, 18685.00
891.4570, 18654.00
892.5860, 18753.00
893.7140, 18896.00
894.8430, 18875.00
895.9710, 19161.00
897.1000, 19276.00
898.2280, 19252.00
899.3560, 19431.00
900.4830, 19511.00
901.6110, 19579.00
902.7380, 19797.00
903.8660, 19741.00
904.9930, 19883.00
906.1200, 19929.00
907.2460, 20031.00
908.3730, 20181.00
909.5000, 20203.00
910.6260, 20281.00
911.7520, 20338.00
912.8780, 20442.10
914.0040, 20637.00
915.1290, 20708.00
916.2550, 20807.00
917.3800, 21001.00
918.5050, 21056.00
919.6300, 21277.00
920.7550, 21437.00
921.8800, 21611.00
923.0040, 21678.00
924.1290, 21899.00
925.2530, 21884.00
926.3770, 22141.00
927.5010, 22009.00
928.6250, 22331.00
929.7480, 22241.00
930.8720, 22434.00
931.9950, 22462.00
933.1180, 22340.00
934.2410, 22532.00
935.3640, 22709.00
936.4860, 22716.00
937.6090, 22948.00
938.7310, 22881.00
939.8530, 22779.00
940.9750, 23112.00
942.0970, 23194.00
943.2180, 23455.00
944.3400, 23451.00
945.4610, 23422.00
946.5820, 23784.00
947.7030, 23869.00
948.8240, 23998.00
949.9450, 24182.00
951.0650, 24273.00
952.1860, 24493.00
953.3060, 24656.00
954.4260, 24942.00
955.5460, 25087.00
956.6650, 25227.00
957.7850, 25280.00
958.9040, 25390.00
960.0230, 25501.29
961.1420, 25607.92
962.2610, 25745.00
963.3800, 25852.00
964.4990, 26021.00
965.6170, 26131.00
966.7350, 26162.00
967.8530, 26470.00
968.9710, 26581.00
970.0890, 26498.00
971.2070, 26726.00
972.3240, 26989.00
973.4410, 26886.00
974.5580, 27316.00
975.6750, 27453.00
976.7920, 27615.00
977.9090, 27589.00
979.0250, 27948.00
980.1410, 27914.00
981.2580, 28255.00
982.3740, 28265.00
983.4890, 28351.00
984.6050, 28818.00
985.7200, 29018.00
986.8360, 29350.00
987.9510, 29740.00
989.0660, 29865.00
990.1810, 30267.00
991.2950, 30503.00
992.4100, 30904.00
993.5240, 31401.00
994.6390, 31630.00
995.7530, 31927.00
996.8660, 32258.00
997.9800, 32533.00
999.0940, 32544.00
1000.207, 32567.00
1001.320, 32942.00
1002.433, 32709.00
1003.546, 32705.00
1004.659, 32898.00
1005.772, 32569.00
1006.884, 32483.00
1007.996, 32180.00
1009.108, 32179.00
1010.220, 31683.00
1011.332, 31495.00
1012.444, 31260.00
1013.555, 30965.00
1014.666, 30893.27
1015.777, 30719.00
1016.888, 30694.00
1017.999, 30659.00
1019.110, 30518.00
1020.220, 30657.00
1021.331, 30362.00
1022.441, 30584.00
1023.551, 30552.00
1024.661, 30426.00
1025.770, 30451.00
1026.880, 30677.00
1027.989, 30895.00
1029.098, 31112.00
1030.207, 30944.00
1031.316, 31262.00
1032.425, 31323.00
1033.533, 31648.00
1034.642, 31838.00
1035.750, 31747.00
1036.858, 32228.00
1037.966, 32432.00
1039.073, 32452.00
1040.181, 33108.00
1041.288, 33255.00
1042.396, 33627.00
1043.503, 34131.00
1044.610, 34329.00
1045.716, 34910.00
1046.823, 34984.00
1047.929, 35528.00
1049.036, 36090.00
1050.142, 36628.00
1051.248, 37079.00
1052.353, 37712.00
1053.459, 38432.00
1054.564, 39054.00
1055.670, 39364.00
1056.775, 40308.00
1057.880, 40916.00
1058.985, 41828.00
1060.089, 42382.00
1061.194, 43150.00
1062.298, 44001.00
1063.402, 44638.00
1064.506, 45006.00
1065.610, 45659.00
1066.713, 46216.00
1067.817, 46614.00
1068.920, 47065.00
1070.023, 47163.00
1071.126, 46992.00
1072.229, 47543.00
1073.332, 48036.00
1074.435, 47863.00
1075.537, 48366.00
1076.639, 48753.00
1077.741, 49085.00
1078.843, 49419.59
1079.945, 49802.00
1081.046, 49953.00
1082.148, 50340.00
1083.249, 50607.00
1084.350, 50753.00
1085.451, 50600.00
1086.551, 50633.00
1087.652, 50084.00
1088.752, 49759.00
1089.853, 49003.00
1090.953, 48044.00
1092.053, 47068.00
1093.152, 46121.00
1094.252, 45095.00
1095.351, 44096.00
1096.451, 43121.00
1097.550, 41633.00
1098.649, 40637.00
1099.748, 39435.00
1100.846, 38492.00
1101.945, 37651.25
1103.043, 36845.00
1104.141, 36064.00
1105.239, 35439.00
1106.337, 34547.00
1107.434, 34092.00
1108.532, 33411.00
1109.629, 33422.00
1110.726, 33044.00
1111.823, 32761.00
1112.920, 32479.00
1114.017, 32043.00
1115.113, 32068.00
1116.210, 31718.00
1117.306, 32000.00
1118.402, 31909.00
1119.498, 31648.00
1120.593, 31604.00
1121.689, 31876.00
1122.784, 31596.00
1123.879, 31807.00
1124.974, 31841.00
1126.069, 31883.00
1127.164, 31824.00
1128.259, 31839.00
1129.353, 31880.00
1130.447, 31661.00
1131.541, 31640.00
1132.635, 31271.00
1133.729, 31053.00
1134.822, 30695.00
1135.916, 30501.00
1137.009, 30268.00
1138.102, 30023.00
1139.195, 29474.00
1140.288, 29672.00
1141.380, 29223.00
1142.473, 28593.00
1143.565, 28681.00
1144.657, 28538.00
1145.749, 28244.00
1146.841, 28514.00
1147.932, 28522.00
1149.024, 28401.00
1150.115, 28844.00
1151.206, 29154.00
1152.297, 29248.00
1153.388, 29723.00
1154.479, 30070.00
1155.569, 30550.00
1156.659, 31000.64
1157.750, 31547.00
1158.839, 31984.00
1159.929, 32476.00
1161.019, 33061.00
1162.108, 33637.00
1163.198, 34204.55
1164.287, 34848.00
1165.376, 35407.00
1166.465, 35913.00
1167.553, 36542.00
1168.642, 37022.00
1169.730, 37301.00
1170.818, 37965.00
1171.906, 38098.00
1172.994, 38304.00
1174.082, 38255.00
1175.170, 38056.00
1176.257, 38164.00
1177.344, 38094.00
1178.431, 38053.00
1179.518, 38066.00
1180.605, 37958.00
1181.691, 37722.00
1182.778, 37685.00
1183.864, 37607.00
1184.950, 37548.00
1186.036, 37278.00
1187.122, 37300.00
1188.207, 37154.00
1189.292, 36989.00
1190.378, 37029.00
1191.463, 36398.00
1192.548, 36373.00
1193.632, 36210.00
1194.717, 35780.00
1195.801, 35770.00
1196.886, 35202.00
1197.970, 34940.00
1199.054, 34322.00
1200.137, 33747.00
1201.221, 33541.00
1202.305, 33076.00
1203.388, 32595.00
1204.471, 32016.00
1205.554, 31684.00
1206.637, 31372.00
1207.719, 30728.00
1208.802, 30547.00
1209.884, 30044.00
1210.966, 29944.00
1212.048, 29504.00
1213.130, 29402.00
1214.212, 29091.00
1215.293, 28827.00
1216.374, 28926.00
1217.456, 28298.00
1218.536, 28624.00
1219.617, 27972.00
1220.698, 28066.00
1221.778, 28045.00
1222.859, 27986.00
1223.939, 27847.00
1225.019, 27981.00
1226.099, 27899.00
1227.178, 27668.00
1228.258, 27547.00
1229.337, 27697.00
1230.417, 27512.00
1231.496, 27564.00
1232.574, 27528.00
1233.653, 27611.00
1234.732, 27500.00
1235.810, 27540.00
1236.888, 27405.00
1237.966, 27269.00
1239.044, 27249.00
1240.122, 27318.00
1241.199, 27270.00
1242.277, 27293.00
1243.354, 27188.00
1244.431, 26977.00
1245.508, 26798.00
1246.585, 26686.00
1247.661, 26600.00
1248.738, 26605.00
1249.814, 26484.00
1250.890, 26294.00
1251.966, 26651.00
1253.042, 26422.00
1254.117, 26459.00
1255.193, 26315.00
1256.268, 26257.00
1257.343, 26141.00
1258.418, 26269.00
1259.493, 26345.00
1260.567, 26335.00
1261.642, 26390.00
1262.716, 26400.51
1263.790, 26361.00
1264.864, 26423.00
1265.938, 26278.00
1267.011, 26288.00
1268.085, 26210.00
1269.158, 26133.00
1270.231, 26214.00
1271.304, 26078.00
1272.377, 26168.00
1273.450, 26014.00
1274.522, 25900.00
1275.594, 25802.00
1276.666, 25670.00
1277.738, 25666.00
1278.810, 25598.00
1279.882, 25440.00
1280.953, 25367.00
1282.025, 25448.00
1283.096, 25250.00
1284.167, 25459.00
1285.238, 25275.00
1286.308, 25163.00
1287.379, 25038.00
1288.449, 25226.00
1289.519, 25034.00
1290.589, 25301.00
1291.659, 25130.00
1292.729, 25017.00
1293.798, 24959.00
1294.868, 25002.00
1295.937, 25056.00
1297.006, 25234.00
1298.075, 24873.00
1299.143, 25001.00
1300.212, 25001.00
1301.280, 24831.00
1302.348, 24884.00
1303.416, 24908.00
1304.484, 24870.01
1305.552, 25000.00
1306.620, 24917.00
1307.687, 24982.00
1308.754, 25050.00
1309.821, 25134.00
1310.888, 25157.00
1311.955, 25299.00
1313.021, 25174.00
1314.088, 25099.00
1315.154, 25363.00
1316.220, 25075.00
1317.286, 25150.00
1318.352, 25223.00
1319.417, 25497.00
1320.483, 25536.00
1321.548, 25334.00
1322.613, 25361.00
1323.678, 25551.00
1324.743, 25358.00
1325.807, 25410.00
1326.872, 25360.00
1327.936, 25436.00
1329.000, 25598.00
1330.064, 25516.00
1331.128, 25585.49
1332.191, 25514.00
1333.255, 25576.00
1334.318, 25509.00
1335.381, 25495.00
1336.444, 25663.00
1337.507, 25567.00
1338.569, 25724.00
1339.632, 25912.00
1340.694, 25713.00
1341.756, 25621.00
1342.818, 25973.00
1343.880, 25932.00
1344.941, 25777.00
1346.003, 25999.00
1347.064, 26037.00
1348.125, 25885.00
1349.186, 25977.00
1350.247, 26063.00
1351.308, 26246.00
1352.368, 26181.00
1353.428, 26105.00
1354.489, 26253.00
1355.549, 26182.00
1356.608, 26061.00
1357.668, 26446.00
1358.727, 26481.00
1359.787, 26569.00
1360.846, 26376.00
1361.905, 26487.00
1362.964, 26560.00
1364.022, 26598.00
1365.081, 26656.00
1366.139, 26913.00
1367.197, 26840.00
1368.255, 27016.00
1369.313, 26991.76
1370.371, 27026.00
1371.428, 26921.00
1372.486, 27076.00
1373.543, 27059.00
1374.600, 27172.00
1375.657, 27548.00
1376.713, 27412.00
1377.770, 27570.00
1378.826, 27619.00
1379.882, 27518.00
1380.938, 27529.00
1381.994, 27799.00
1383.050, 27762.00
1384.106, 27805.00
1385.161, 27938.00
1386.216, 27886.00
1387.271, 28149.00
1388.326, 28130.00
1389.381, 28215.00
1390.435, 28502.00
1391.490, 28370.00
1392.544, 28510.00
1393.598, 28645.00
1394.652, 28820.00
1395.705, 28852.00
1396.759, 28761.00
1397.812, 28943.21
1398.866, 28921.00
1399.919, 29169.00
1400.972, 29388.00
1402.024, 29531.00
1403.077, 29662.58
1404.129, 29784.12
1405.181, 29828.00
1406.233, 30034.00
1407.285, 30127.00
1408.337, 30405.00
1409.389, 30520.08
1410.440, 30757.00
1411.491, 30775.00
1412.542, 30858.00
1413.593, 30889.00
1414.644, 31130.00
1415.695, 31453.00
1416.745, 31649.00
1417.795, 31618.00
1418.845, 31692.00
1419.895, 32059.00
1420.945, 32282.00
1421.995, 32210.00
1423.044, 32533.00
1424.093, 32698.00
1425.142, 33105.00
1426.191, 33055.00
1427.240, 33340.00
1428.289, 33461.00
1429.337, 33737.00
1430.385, 34118.00
1431.433, 34392.00
1432.481, 34675.17
1433.529, 34853.00
1434.577, 35198.00
1435.624, 35347.00
1436.672, 35578.00
1437.719, 35841.00
1438.766, 36220.00
1439.812, 36691.00
1440.859, 36652.00
1441.905, 36770.00
1442.952, 37250.00
1443.998, 37524.00
1445.044, 37785.00
1446.090, 38044.00
1447.135, 38350.00
1448.181, 38682.00
1449.226, 39001.00
1450.271, 39234.00
1451.316, 39581.00
1452.361, 39686.00
1453.405, 39961.00
1454.450, 40104.00
1455.494, 40346.00
1456.538, 40709.00
1457.582, 40870.00
1458.626, 40968.00
1459.670, 41275.00
1460.713, 41304.00
1461.757, 41676.00
1462.800, 41826.08
1463.843, 42286.00
1464.886, 42347.00
1465.928, 42194.00
1466.971, 42685.00
1468.013, 42344.00
1469.055, 42847.00
1470.097, 42994.00
1471.139, 42931.00
1472.181, 42941.00
1473.222, 43339.00
1474.263, 43637.00
1475.305, 43807.00
1476.346, 44051.61
1477.386, 44151.04
1478.427, 44362.00
1479.468, 44274.00
1480.508, 44400.00
1481.548, 44406.00
1482.588, 44536.46
1483.628, 44873.00
1484.668, 44904.00
1485.707, 45343.00
1486.747, 45661.00
1487.786, 45519.00
1488.825, 45805.00
1489.864, 46056.00
1490.902, 46227.00
1491.941, 46591.00
1492.979, 46904.00
1494.017, 47037.00
1495.055, 47289.00
1496.093, 47661.00
1497.131, 47960.00
1498.168, 47948.00
1499.206, 48422.00
1500.243, 48514.00
1501.280, 48833.00
1502.317, 49083.00
1503.354, 49048.00
1504.390, 49201.00
1505.426, 49788.00
1506.463, 49966.00
1507.499, 50037.00
1508.535, 50107.00
1509.570, 50814.00
1510.606, 50717.54
1511.641, 51219.00
1512.676, 50997.00
1513.711, 51159.00
1514.746, 51396.00
1515.781, 51540.00
1516.816, 51712.01
1517.850, 51911.00
1518.884, 51996.00
1519.918, 52125.00
1520.952, 52211.78
1521.986, 52321.56
1523.019, 52364.00
1524.053, 52556.00
1525.086, 52526.00
1526.119, 52678.00
1527.152, 52753.00
1528.185, 52737.60
1529.217, 52704.00
1530.250, 52717.00
1531.282, 52678.00
1532.314, 52639.48
1533.346, 52654.72
1534.377, 52673.00
1535.409, 52644.00
1536.440, 52657.00
1537.472, 52608.00
1538.503, 52499.00
1539.534, 52497.00
1540.564, 52270.00
1541.595, 52356.00
1542.625, 52368.00
1543.656, 52430.00
1544.686, 52191.00
1545.716, 52583.00
1546.745, 52163.00
1547.775, 52222.00
1548.804, 52286.00
1549.834, 52394.00
1550.863, 52397.81
1551.892, 52376.00
1552.920, 52415.05
1553.949, 52525.00
1554.977, 52518.00
1556.006, 52635.00
1557.034, 52808.02
1558.062, 53023.00
1559.089, 53143.00
1560.117, 53279.00
1561.144, 53290.00
1562.172, 53830.00
1563.199, 54155.00
1564.226, 54260.00
1565.252, 54577.00
1566.279, 54408.00
1567.305, 55010.00
1568.332, 54878.00
1569.358, 55330.00
1570.384, 55417.00
1571.409, 55617.00
1572.435, 56058.00
##END=



