##NAMES=Eudialyte
##RRUFFID=R060035
##IDEAL CHEMISTRY=Na_15_Ca_6_Fe^2+^_3_Zr^4+^_3_Si(Si_25_O_73_)(O,OH,H_2_O)_3_(Cl,OH)_2_
##LOCALITY=Chibini, Kola Peninsula, Russia
##OWNER=RRUFF
##SOURCE=University of Arizona Mineral Museum
##DESCRIPTION=Deep pink coarsely crystalline
##STATUS=The identification of this mineral has been confirmed by X-ray diffraction and chemical analysis
##URL=rruff.info/R060035
##MEASURED CHEMISTRY=(Na_14.86_K_0.14_)_Σ=15_Ca_6.00_(Fe_1.52_Mn_1.48_)_Σ=3_(Zr_2.82_Ti_0.18_)_Σ=3_(Si_0.93_Nb_0.07_)_Σ=1_(Si_25.00_O_73_)((OH)_1.01_(H_2_O)_1.99_)_Σ=3_(Cl_1.65_(OH)_0.35_)_Σ=2_
##PIN_ID=M00465
##ORIENTATION=Laser parallel to a* (1 0 0). Fiducial mark perpendicular to laser is parallel to c [0 0 1]
118.1340, 26627.00
119.3650, 26753.00
120.5960, 26732.00
121.8270, 26748.00
123.0580, 26757.94
124.2880, 26823.80
125.5190, 26824.00
126.7490, 27071.00
127.9790, 27360.00
129.2090, 27678.00
130.4390, 27846.00
131.6680, 27988.00
132.8980, 28367.00
134.1270, 28532.00
135.3560, 28992.00
136.5850, 29185.00
137.8140, 29779.00
139.0430, 29709.00
140.2710, 29889.00
141.5000, 29917.00
142.7280, 29860.00
143.9560, 29643.00
145.1840, 29701.00
146.4120, 29565.00
147.6390, 29562.00
148.8670, 29083.00
150.0940, 28919.00
151.3210, 28950.00
152.5490, 28682.00
153.7750, 28887.00
155.0020, 28439.00
156.2290, 28548.00
157.4550, 28388.00
158.6810, 28444.00
159.9080, 28512.00
161.1340, 28578.00
162.3590, 28593.00
163.5850, 29010.00
164.8110, 28890.00
166.0360, 29182.00
167.2610, 28985.00
168.4860, 29258.00
169.7110, 29567.00
170.9360, 29455.00
172.1610, 29614.00
173.3850, 29625.00
174.6100, 30027.00
175.8340, 30145.00
177.0580, 30549.00
178.2820, 30740.00
179.5050, 31068.00
180.7290, 31813.00
181.9520, 32200.00
183.1760, 32760.00
184.3990, 33519.00
185.6220, 34118.00
186.8450, 34882.00
188.0670, 35419.00
189.2900, 36404.00
190.5120, 37501.00
191.7340, 38472.00
192.9560, 39156.00
194.1780, 40144.00
195.4000, 41161.00
196.6220, 41763.00
197.8430, 42838.00
199.0640, 43134.00
200.2860, 43931.00
201.5070, 44039.00
202.7270, 44150.00
203.9480, 43884.00
205.1690, 43778.00
206.3890, 43239.00
207.6090, 42939.00
208.8290, 42313.00
210.0490, 41923.00
211.2690, 41356.00
212.4890, 40547.67
213.7080, 40142.00
214.9280, 39097.00
216.1470, 38635.00
217.3660, 38468.00
218.5850, 37521.00
219.8030, 36411.00
221.0220, 35480.00
222.2400, 35027.00
223.4590, 34167.00
224.6770, 33589.00
225.8950, 33007.00
227.1120, 32521.00
228.3300, 31863.00
229.5480, 31461.04
230.7650, 30948.00
231.9820, 30670.00
233.1990, 30212.00
234.4160, 29931.00
235.6330, 29757.00
236.8490, 29529.00
238.0660, 29107.00
239.2820, 28783.00
240.4980, 28748.00
241.7140, 28793.00
242.9300, 28498.00
244.1460, 28440.00
245.3610, 28495.00
246.5770, 28375.00
247.7920, 28488.00
249.0070, 28645.00
250.2220, 28361.00
251.4370, 28621.00
252.6510, 28434.00
253.8660, 28718.00
255.0800, 28840.00
256.2940, 29083.00
257.5080, 29663.00
258.7220, 29562.04
259.9360, 30106.00
261.1490, 29701.00
262.3630, 29722.00
263.5760, 30001.00
264.7890, 30151.00
266.0020, 30372.00
267.2150, 30481.00
268.4270, 30515.00
269.6400, 30924.00
270.8520, 30955.00
272.0640, 30803.00
273.2760, 31044.00
274.4880, 30656.00
275.7000, 30724.00
276.9120, 30879.00
278.1230, 30599.00
279.3340, 30366.00
280.5450, 30370.00
281.7560, 30246.48
282.9670, 30198.04
284.1780, 30240.00
285.3880, 30201.00
286.5980, 30208.00
287.8090, 30318.00
289.0190, 30211.00
290.2290, 30540.00
291.4380, 30492.00
292.6480, 30707.00
293.8570, 30572.00
295.0670, 30772.00
296.2760, 30873.00
297.4850, 31005.00
298.6930, 31212.00
299.9020, 31403.00
301.1110, 31363.00
302.3190, 31605.00
303.5270, 31649.00
304.7350, 31750.00
305.9430, 31816.00
307.1510, 31780.00
308.3580, 31804.05
309.5660, 31777.57
310.7730, 31750.00
311.9800, 31654.00
313.1870, 31637.00
314.3940, 31471.00
315.6010, 31439.00
316.8070, 31499.00
318.0130, 31376.00
319.2200, 31260.00
320.4260, 31121.00
321.6310, 31356.00
322.8370, 31358.00
324.0430, 31472.00
325.2480, 31301.00
326.4540, 31455.00
327.6590, 31530.00
328.8640, 31367.00
330.0680, 31706.00
331.2730, 31673.00
332.4780, 31360.00
333.6820, 31491.00
334.8860, 31751.00
336.0900, 31728.00
337.2940, 31904.00
338.4980, 31764.00
339.7010, 31793.00
340.9050, 31607.00
342.1080, 31621.00
343.3110, 31574.00
344.5140, 31497.00
345.7170, 31528.11
346.9200, 31468.09
348.1220, 31491.00
349.3240, 31489.00
350.5270, 31349.00
351.7290, 31514.00
352.9310, 31853.00
354.1320, 31860.00
355.3340, 31872.00
356.5350, 31907.00
357.7370, 31813.00
358.9380, 31807.00
360.1390, 31701.00
361.3400, 31470.00
362.5400, 31260.00
363.7410, 31247.00
364.9410, 30951.00
366.1410, 31050.00
367.3410, 30543.00
368.5410, 30689.00
369.7410, 30279.00
370.9400, 30500.00
372.1400, 30568.00
373.3390, 30113.00
374.5380, 30068.00
375.7370, 30088.00
376.9360, 30118.00
378.1350, 29972.00
379.3330, 29988.00
380.5310, 30054.00
381.7300, 30041.00
382.9280, 30119.00
384.1260, 30240.00
385.3230, 29951.00
386.5210, 30475.00
387.7180, 30454.00
388.9160, 30895.00
390.1130, 31198.00
391.3100, 31299.00
392.5060, 31629.00
393.7030, 31829.00
394.9000, 32024.00
396.0960, 32046.00
397.2920, 31942.00
398.4880, 31759.00
399.6840, 31764.00
400.8800, 31401.00
402.0750, 31185.00
403.2710, 31130.00
404.4660, 30935.00
405.6610, 30600.00
406.8560, 30364.00
408.0510, 30220.00
409.2450, 30039.00
410.4400, 30151.00
411.6340, 29852.00
412.8280, 29697.00
414.0220, 29780.00
415.2160, 29322.00
416.4100, 29453.00
417.6030, 29338.00
418.7970, 29011.00
419.9900, 28963.00
421.1830, 29028.00
422.3760, 28768.00
423.5690, 28735.00
424.7610, 28757.00
425.9540, 28745.00
427.1460, 28511.00
428.3380, 28834.00
429.5300, 28546.00
430.7220, 28730.00
431.9140, 28820.00
433.1050, 28767.00
434.2970, 28649.00
435.4880, 28705.00
436.6790, 29176.00
437.8700, 28944.00
439.0610, 29302.00
440.2510, 29484.00
441.4420, 29584.00
442.6320, 29443.00
443.8220, 29641.00
445.0120, 29484.00
446.2020, 29341.00
447.3910, 29559.00
448.5810, 29506.00
449.7700, 29537.00
450.9600, 29376.00
452.1490, 29466.00
453.3370, 29328.00
454.5260, 29111.00
455.7150, 28949.00
456.9030, 28947.00
458.0910, 28803.28
459.2800, 28768.00
460.4670, 28638.00
461.6550, 28635.00
462.8430, 28477.00
464.0300, 28412.24
465.2180, 28443.00
466.4050, 28249.00
467.5920, 28032.00
468.7790, 27965.00
469.9650, 28023.00
471.1520, 27858.00
472.3380, 28047.00
473.5250, 28030.00
474.7110, 27829.00
475.8970, 28142.00
477.0820, 28120.00
478.2680, 28156.00
479.4540, 28188.00
480.6390, 28280.00
481.8240, 28350.00
483.0090, 28433.00
484.1940, 28510.00
485.3780, 28405.00
486.5630, 28763.00
487.7470, 28611.00
488.9320, 28770.00
490.1160, 29143.00
491.3000, 29073.00
492.4830, 28974.00
493.6670, 29105.00
494.8500, 29057.00
496.0340, 29263.00
497.2170, 29193.00
498.4000, 29349.00
499.5820, 29491.00
500.7650, 29762.00
501.9480, 29793.00
503.1300, 29972.00
504.3120, 29973.00
505.4940, 30285.00
506.6760, 30398.00
507.8580, 30442.00
509.0390, 30722.00
510.2210, 30764.00
511.4020, 31086.00
512.5830, 31221.00
513.7640, 31318.00
514.9450, 31279.00
516.1250, 31626.00
517.3060, 31693.00
518.4860, 31803.00
519.6660, 31912.00
520.8460, 32266.00
522.0260, 32108.00
523.2060, 32258.00
524.3850, 32370.00
525.5650, 32820.00
526.7440, 32676.00
527.9230, 33074.00
529.1020, 33285.00
530.2810, 33527.00
531.4590, 33749.00
532.6380, 34086.00
533.8160, 34765.00
534.9940, 35313.00
536.1720, 36134.91
537.3500, 36949.00
538.5270, 38089.00
539.7050, 39110.00
540.8820, 40403.00
542.0590, 41570.00
543.2360, 42883.00
544.4130, 44141.00
545.5900, 45035.00
546.7660, 46738.00
547.9430, 47797.00
549.1190, 49384.00
550.2950, 50882.00
551.4710, 53205.00
552.6470, 55010.00
553.8220, 56588.00
554.9980, 58338.00
556.1730, 59771.00
557.3480, 60735.00
558.5230, 60960.00
559.6980, 61068.00
560.8730, 61262.00
562.0470, 61982.00
563.2220, 62498.00
564.3960, 63046.00
565.5700, 62763.00
566.7440, 61532.00
567.9170, 59061.00
569.0910, 56202.00
570.2640, 52838.00
571.4380, 49373.00
572.6110, 46378.00
573.7840, 43527.00
574.9570, 41448.00
576.1290, 39459.00
577.3020, 37864.00
578.4740, 36684.00
579.6460, 36035.00
580.8180, 35171.00
581.9900, 34564.00
583.1620, 34421.00
584.3330, 34335.00
585.5040, 34132.00
586.6760, 34186.00
587.8470, 34114.00
589.0180, 34172.00
590.1880, 34355.00
591.3590, 34479.00
592.5290, 35199.00
593.7000, 35363.00
594.8700, 35784.00
596.0400, 36073.00
597.2090, 36477.00
598.3790, 36992.00
599.5490, 37594.00
600.7180, 37403.00
601.8870, 37973.00
603.0560, 38701.00
604.2250, 38241.00
605.3940, 38469.00
606.5620, 38747.00
607.7300, 38337.00
608.8990, 38420.00
610.0670, 38055.00
611.2350, 37653.00
612.4020, 37208.00
613.5700, 36856.00
614.7370, 36505.00
615.9050, 36126.00
617.0720, 35925.00
618.2390, 35659.89
619.4060, 35482.00
620.5720, 35359.00
621.7390, 35311.00
622.9050, 35360.00
624.0710, 35388.00
625.2370, 35483.00
626.4030, 35584.00
627.5690, 35471.00
628.7340, 35398.12
629.9000, 34918.00
631.0650, 34986.00
632.2300, 34644.00
633.3950, 34278.00
634.5600, 34220.00
635.7240, 33979.00
636.8890, 33694.00
638.0530, 33405.00
639.2170, 33207.00
640.3810, 32998.00
641.5450, 32842.29
642.7080, 32738.65
643.8720, 32659.00
645.0350, 32627.00
646.1980, 32682.00
647.3610, 32716.00
648.5240, 32780.00
649.6870, 32871.00
650.8490, 32773.00
652.0120, 32966.00
653.1740, 33073.00
654.3360, 33050.00
655.4980, 33336.00
656.6600, 33208.00
657.8210, 33484.00
658.9830, 33445.00
660.1440, 33805.00
661.3050, 33711.00
662.4660, 34181.00
663.6270, 34026.00
664.7870, 34316.00
665.9480, 34438.00
667.1080, 34322.00
668.2680, 34545.00
669.4280, 34409.00
670.5880, 34635.00
671.7480, 35129.00
672.9070, 35298.00
674.0670, 35409.00
675.2260, 35825.00
676.3850, 36129.00
677.5440, 36314.00
678.7030, 36901.00
679.8610, 37424.00
681.0200, 37557.00
682.1780, 38076.00
683.3360, 38459.00
684.4940, 38970.00
685.6520, 39924.00
686.8090, 40400.00
687.9670, 41102.00
689.1240, 41828.00
690.2810, 42450.00
691.4380, 43476.00
692.5950, 44162.46
693.7520, 45026.00
694.9080, 45686.00
696.0650, 46620.00
697.2210, 47188.00
698.3770, 48035.00
699.5330, 49108.00
700.6880, 49578.00
701.8440, 50627.00
702.9990, 50705.00
704.1550, 50964.00
705.3100, 50679.00
706.4650, 50354.78
707.6190, 50018.00
708.7740, 49063.00
709.9290, 48094.00
711.0830, 46954.00
712.2370, 45524.00
713.3910, 44112.00
714.5450, 42554.00
715.6980, 41605.00
716.8520, 40464.00
718.0050, 39423.00
719.1580, 38581.00
720.3110, 37960.00
721.4640, 37561.00
722.6170, 37050.00
723.7700, 37241.00
724.9220, 36760.00
726.0740, 36813.00
727.2260, 36851.00
728.3780, 36849.00
729.5300, 37366.00
730.6810, 37744.00
731.8330, 37997.00
732.9840, 38315.00
734.1350, 38818.00
735.2860, 39366.00
736.4370, 39893.00
737.5880, 40267.00
738.7380, 40718.00
739.8880, 41605.00
741.0390, 41698.00
742.1890, 42073.00
743.3380, 42066.00
744.4880, 42255.00
745.6380, 42123.00
746.7870, 42210.00
747.9360, 41946.00
749.0850, 41606.00
750.2340, 41410.00
751.3830, 41242.87
752.5310, 40862.00
753.6800, 40933.00
754.8280, 40735.00
755.9760, 40412.00
757.1240, 40485.00
758.2720, 40133.00
759.4190, 39859.00
760.5670, 39919.00
761.7140, 39757.00
762.8610, 39310.00
764.0080, 39371.00
765.1550, 39342.00
766.3020, 39464.00
767.4480, 39356.00
768.5950, 39306.00
769.7410, 39136.00
770.8870, 39188.00
772.0330, 39155.00
773.1780, 39183.00
774.3240, 38961.00
775.4690, 38860.00
776.6140, 39217.00
777.7590, 38736.00
778.9040, 38937.00
780.0490, 38631.00
781.1940, 38599.00
782.3380, 38293.00
783.4820, 38071.00
784.6260, 37839.00
785.7700, 37718.00
786.9140, 37295.00
788.0580, 37000.00
789.2010, 36583.00
790.3450, 36279.00
791.4880, 35934.00
792.6310, 35596.00
793.7730, 35331.00
794.9160, 35037.00
796.0590, 34717.00
797.2010, 34769.00
798.3430, 34676.00
799.4850, 34340.00
800.6270, 34499.00
801.7690, 34413.00
802.9100, 34213.00
804.0520, 34277.00
805.1930, 33929.00
806.3340, 34131.00
807.4750, 34263.00
808.6160, 34015.00
809.7560, 34197.00
810.8970, 34123.00
812.0370, 34198.00
813.1770, 34090.00
814.3170, 34123.00
815.4570, 34161.62
816.5960, 34170.00
817.7360, 34275.00
818.8750, 34286.00
820.0140, 34375.17
821.1530, 34428.62
822.2920, 34375.00
823.4310, 34491.00
824.5690, 34404.00
825.7070, 34315.00
826.8460, 34490.00
827.9840, 34583.00
829.1220, 34636.00
830.2590, 34419.00
831.3970, 34533.00
832.5340, 34422.44
833.6710, 34740.00
834.8080, 34486.00
835.9450, 34297.00
837.0820, 34731.00
838.2190, 34744.00
839.3550, 34909.00
840.4910, 34823.00
841.6270, 35071.00
842.7630, 35146.00
843.8990, 35115.00
845.0350, 35207.02
846.1700, 35293.00
847.3060, 35207.00
848.4410, 35103.00
849.5760, 35106.00
850.7100, 35454.00
851.8450, 35297.00
852.9800, 35361.00
854.1140, 35744.00
855.2480, 35347.00
856.3820, 35357.00
857.5160, 35688.00
858.6500, 35745.00
859.7830, 35723.00
860.9170, 35737.00
862.0500, 35755.00
863.1830, 35828.75
864.3160, 36046.00
865.4480, 36021.00
866.5810, 36296.00
867.7130, 36413.00
868.8460, 36535.67
869.9780, 36584.00
871.1100, 36831.00
872.2410, 36782.00
873.3730, 36925.00
874.5050, 36865.00
875.6360, 36961.00
876.7670, 37106.00
877.8980, 37322.00
879.0290, 37189.00
880.1590, 37388.00
881.2900, 37328.00
882.4200, 37579.00
883.5500, 37575.00
884.6800, 37723.00
885.8100, 37717.00
886.9400, 38163.00
888.0690, 38505.00
889.1990, 38575.00
890.3280, 38614.00
891.4570, 38829.00
892.5860, 39033.00
893.7140, 39119.00
894.8430, 39693.00
895.9710, 39992.00
897.1000, 40289.00
898.2280, 40142.00
899.3560, 40893.00
900.4830, 41141.00
901.6110, 41484.00
902.7380, 42154.00
903.8660, 42283.00
904.9930, 42549.00
906.1200, 42806.00
907.2460, 43019.00
908.3730, 43654.00
909.5000, 44044.00
910.6260, 44428.00
911.7520, 44689.00
912.8780, 45202.00
914.0040, 45259.00
915.1290, 45992.00
916.2550, 46273.00
917.3800, 46454.00
918.5050, 46791.00
919.6300, 47149.00
920.7550, 47209.00
921.8800, 47220.00
923.0040, 47259.00
924.1290, 47155.00
925.2530, 47068.00
926.3770, 46631.00
927.5010, 46238.00
928.6250, 45981.00
929.7480, 45533.00
930.8720, 44978.00
931.9950, 44802.00
933.1180, 44302.00
934.2410, 44082.00
935.3640, 43743.00
936.4860, 43563.41
937.6090, 43616.00
938.7310, 43265.00
939.8530, 43367.00
940.9750, 43134.00
942.0970, 43119.00
943.2180, 43127.00
944.3400, 42914.00
945.4610, 42996.00
946.5820, 43027.00
947.7030, 42858.00
948.8240, 42989.00
949.9450, 42962.00
951.0650, 42630.00
952.1860, 42539.00
953.3060, 42889.00
954.4260, 43051.00
955.5460, 42528.00
956.6650, 42287.00
957.7850, 42111.00
958.9040, 42265.00
960.0230, 42191.00
961.1420, 42060.00
962.2610, 42254.00
963.3800, 42239.00
964.4990, 42335.00
965.6170, 42233.00
966.7350, 42279.00
967.8530, 42483.00
968.9710, 42302.00
970.0890, 42447.00
971.2070, 42349.00
972.3240, 42975.00
973.4410, 42890.00
974.5580, 43007.00
975.6750, 42952.00
976.7920, 43174.00
977.9090, 43375.00
979.0250, 43266.00
980.1410, 43672.00
981.2580, 43769.00
982.3740, 44132.00
983.4890, 44024.00
984.6050, 44342.00
985.7200, 44474.00
986.8360, 44719.00
987.9510, 44946.70
989.0660, 45200.00
990.1810, 45371.00
991.2950, 45649.00
992.4100, 45834.00
993.5240, 46064.00
994.6390, 46063.00
995.7530, 46249.00
996.8660, 46153.00
997.9800, 46297.00
999.0940, 46025.00
1000.207, 46298.00
1001.320, 45880.00
1002.433, 45879.00
1003.546, 45682.00
1004.659, 45298.00
1005.772, 45050.00
1006.884, 44904.00
1007.996, 44393.00
1009.108, 44312.00
1010.220, 44279.00
1011.332, 43814.00
1012.444, 44054.00
1013.555, 43843.00
1014.666, 43765.00
1015.777, 43980.00
1016.888, 43652.00
1017.999, 43446.00
1019.110, 43720.00
1020.220, 43926.00
1021.331, 43778.00
1022.441, 43729.00
1023.551, 44124.00
1024.661, 43890.00
1025.770, 43675.00
1026.880, 43797.00
1027.989, 43823.00
1029.098, 43840.00
1030.207, 43923.00
1031.316, 44249.00
1032.425, 43991.00
1033.533, 44322.00
1034.642, 44172.00
1035.750, 44463.00
1036.858, 44299.00
1037.966, 44450.00
1039.073, 44360.00
1040.181, 44735.00
1041.288, 44619.00
1042.396, 44602.00
1043.503, 44875.00
1044.610, 44442.00
1045.716, 44935.00
1046.823, 44444.00
1047.929, 44845.00
1049.036, 44605.00
1050.142, 44811.00
1051.248, 44953.00
1052.353, 45074.00
1053.459, 45318.00
1054.564, 45335.00
1055.670, 45644.00
1056.775, 45812.00
1057.880, 46240.00
1058.985, 46289.00
1060.089, 46572.00
1061.194, 46723.00
1062.298, 47264.00
1063.402, 47200.00
1064.506, 47564.00
1065.610, 48063.00
1066.713, 48003.00
1067.817, 48685.00
1068.920, 48747.00
1070.023, 48849.00
1071.126, 49191.00
1072.229, 49355.00
1073.332, 49406.00
1074.435, 49502.00
1075.537, 50053.00
1076.639, 50316.00
1077.741, 50708.00
1078.843, 50698.00
1079.945, 51124.00
1081.046, 51547.00
1082.148, 51834.00
1083.249, 52499.00
1084.350, 52794.00
1085.451, 53064.00
1086.551, 53458.00
1087.652, 53669.00
1088.752, 54048.00
1089.853, 54171.00
1090.953, 54345.00
1092.053, 54318.76
1093.152, 54180.00
1094.252, 53933.00
1095.351, 53598.00
1096.451, 53038.00
1097.550, 52441.00
1098.649, 52069.00
1099.748, 51385.00
1100.846, 50807.00
1101.945, 50241.00
1103.043, 49369.00
1104.141, 49194.00
1105.239, 48861.00
1106.337, 48036.00
1107.434, 47639.00
1108.532, 47672.00
1109.629, 47314.00
1110.726, 46937.00
1111.823, 46859.00
1112.920, 46713.00
1114.017, 46297.00
1115.113, 46371.00
1116.210, 46283.00
1117.306, 46346.00
1118.402, 46235.00
1119.498, 46198.10
1120.593, 46217.00
1121.689, 46116.00
1122.784, 46059.00
1123.879, 46115.00
1124.974, 46310.00
1126.069, 46051.00
1127.164, 46013.00
1128.259, 46165.00
1129.353, 45860.00
1130.447, 45869.00
1131.541, 46102.00
1132.635, 45820.00
1133.729, 45882.00
1134.822, 45379.00
1135.916, 45378.00
1137.009, 45185.00
1138.102, 45194.00
1139.195, 44741.00
1140.288, 44449.00
1141.380, 44596.00
1142.473, 44561.00
1143.565, 44461.00
1144.657, 44376.71
1145.749, 44095.00
1146.841, 44053.00
1147.932, 43826.00
1149.024, 43717.00
1150.115, 44095.00
1151.206, 44239.00
1152.297, 43730.00
1153.388, 44318.00
1154.479, 44323.00
1155.569, 44144.00
1156.659, 44260.00
1157.750, 44557.00
1158.839, 44557.00
1159.929, 44788.00
1161.019, 44771.00
1162.108, 44374.00
1163.198, 44535.00
1164.287, 44191.00
1165.376, 44445.00
1166.465, 44544.00
1167.553, 44452.00
1168.642, 44404.00
1169.730, 44270.00
1170.818, 44089.00
1171.906, 44182.00
1172.994, 44147.00
1174.082, 43987.00
1175.170, 44035.00
1176.257, 44081.00
1177.344, 44122.00
1178.431, 44220.00
1179.518, 44120.00
1180.605, 44250.00
1181.691, 44208.00
1182.778, 44030.00
1183.864, 44130.00
1184.950, 44146.00
1186.036, 44013.00
1187.122, 43884.00
1188.207, 43855.00
1189.292, 44099.00
1190.378, 44013.62
1191.463, 44364.00
1192.548, 44171.00
1193.632, 44303.00
1194.717, 44547.00
1195.801, 44308.00
1196.886, 44471.00
1197.970, 44019.00
1199.054, 44401.00
1200.137, 44145.00
1201.221, 44211.00
1202.305, 44509.00
1203.388, 44155.00
1204.471, 44267.00
1205.554, 44216.00
1206.637, 44448.00
1207.719, 44408.00
1208.802, 44398.00
1209.884, 44954.00
1210.966, 44384.00
1212.048, 44777.00
1213.130, 45000.00
1214.212, 44602.00
1215.293, 44662.00
1216.374, 44837.00
1217.456, 44804.00
1218.536, 45114.00
1219.617, 45271.00
1220.698, 45068.00
1221.778, 44684.00
1222.859, 45222.00
1223.939, 44852.00
1225.019, 45067.00
1226.099, 44950.00
1227.178, 45178.00
1228.258, 44889.00
1229.337, 45014.00
1230.417, 44986.00
1231.496, 45297.00
1232.574, 45150.00
1233.653, 45214.78
1234.732, 44887.00
1235.810, 45160.00
1236.888, 45266.00
1237.966, 45230.00
1239.044, 44852.00
1240.122, 45198.00
1241.199, 45256.00
1242.277, 45688.00
1243.354, 45052.00
1244.431, 45177.00
1245.508, 45232.00
1246.585, 45322.00
1247.661, 45572.00
1248.738, 45634.00
1249.814, 45600.00
1250.890, 45530.00
1251.966, 45660.00
1253.042, 45615.00
1254.117, 45515.00
1255.193, 45837.00
1256.268, 45400.00
1257.343, 45775.00
1258.418, 45798.00
1259.493, 45979.00
1260.567, 45952.00
1261.642, 45983.00
1262.716, 46197.00
1263.790, 46255.00
1264.864, 45916.00
1265.938, 46409.00
1267.011, 46081.00
1268.085, 46119.00
1269.158, 46065.00
1270.231, 46303.00
1271.304, 46156.00
1272.377, 46163.00
1273.450, 46133.00
1274.522, 46194.00
1275.594, 46229.00
1276.666, 46190.00
1277.738, 46237.67
1278.810, 46128.00
1279.882, 46285.00
1280.953, 46212.00
1282.025, 46273.00
1283.096, 46219.00
1284.167, 46332.00
1285.238, 46172.00
1286.308, 46548.00
1287.379, 46672.00
1288.449, 46408.00
1289.519, 46671.00
1290.589, 46555.00
1291.659, 46536.00
1292.729, 46564.00
1293.798, 46586.00
1294.868, 46636.96
1295.937, 46589.00
1297.006, 46721.00
1298.075, 46888.00
1299.143, 46830.00
1300.212, 46743.00
1301.280, 46861.00
1302.348, 46838.00
1303.416, 47008.00
1304.484, 47063.00
1305.552, 46987.00
1306.620, 47293.00
1307.687, 47041.00
1308.754, 47298.00
1309.821, 47315.00
1310.888, 47406.00
1311.955, 47346.00
1313.021, 47404.21
1314.088, 47555.00
1315.154, 47387.00
1316.220, 47616.00
1317.286, 47490.00
1318.352, 47595.00
1319.417, 47751.00
1320.483, 47665.26
1321.548, 47791.00
1322.613, 47700.00
1323.678, 47714.00
1324.743, 47868.00
1325.807, 47934.00
1326.872, 47946.00
1327.936, 47724.00
1329.000, 48021.00
1330.064, 48082.00
1331.128, 47970.00
1332.191, 48234.00
1333.255, 48477.00
1334.318, 47977.00
1335.381, 48120.00
1336.444, 48501.00
1337.507, 48389.00
1338.569, 48403.00
1339.632, 48632.00
1340.694, 48470.00
1341.756, 48644.00
1342.818, 48712.00
1343.880, 48606.00
1344.941, 48482.00
1346.003, 48368.00
1347.064, 48610.00
1348.125, 48619.00
1349.186, 48706.00
1350.247, 48917.00
1351.308, 48814.00
1352.368, 48885.00
1353.428, 48829.00
1354.489, 48645.00
1355.549, 48976.00
1356.608, 49267.00
1357.668, 48939.00
1358.727, 49111.00
1359.787, 49062.00
1360.846, 49127.00
1361.905, 49157.00
1362.964, 49152.00
1364.022, 49222.45
1365.081, 49406.00
1366.139, 49284.00
1367.197, 49355.00
1368.255, 49301.00
1369.313, 49302.77
1370.371, 49425.03
1371.428, 49362.00
1372.486, 49635.00
1373.543, 49766.00
1374.600, 49792.00
1375.657, 49787.00
1376.713, 50029.00
1377.770, 49903.00
1378.826, 50035.00
1379.882, 50027.00
1380.938, 49969.00
1381.994, 50295.00
1383.050, 50113.00
1384.106, 50214.00
1385.161, 50438.00
1386.216, 50153.00
1387.271, 50592.00
1388.326, 50645.00
1389.381, 50410.00
1390.435, 50332.00
1391.490, 50237.00
1392.544, 50467.00
1393.598, 50603.00
1394.652, 50758.00
1395.705, 50845.74
1396.759, 50854.66
1397.812, 50948.00
1398.866, 50763.00
1399.919, 50767.00
1400.972, 50648.00
1402.024, 50911.00
1403.077, 50907.00
1404.129, 51176.00
1405.181, 51230.00
1406.233, 51296.00
1407.285, 51140.00
1408.337, 51467.00
1409.389, 51543.00
1410.440, 51775.00
1411.491, 51483.00
1412.542, 51639.00
1413.593, 51729.00
1414.644, 51610.00
1415.695, 52021.00
1416.745, 51837.00
1417.795, 52107.00
1418.845, 51857.00
1419.895, 52126.00
1420.945, 52143.00
1421.995, 52206.00
1423.044, 52318.62
1424.093, 52226.00
1425.142, 52467.00
1426.191, 52542.00
1427.240, 52688.00
1428.289, 52633.00
1429.337, 52924.00
1430.385, 52699.00
1431.433, 53157.00
1432.481, 52889.00
1433.529, 53289.00
1434.577, 53111.00
1435.624, 53387.00
1436.672, 53425.00
1437.719, 53574.00
1438.766, 53828.00
1439.812, 53838.00
1440.859, 53868.00
1441.905, 53727.00
1442.952, 53779.00
1443.998, 53808.82
1445.044, 54255.00
1446.090, 53879.00
1447.135, 54310.00
1448.181, 54244.00
1449.226, 54601.00
1450.271, 54514.00
1451.316, 54491.00
1452.361, 54665.00
1453.405, 54485.00
1454.450, 54753.00
1455.494, 54793.00
1456.538, 55065.00
1457.582, 54956.00
1458.626, 55030.00
1459.670, 55042.00
1460.713, 54934.00
1461.757, 54820.00
1462.800, 54977.00
1463.843, 54865.00
1464.886, 55208.00
1465.928, 55115.00
1466.971, 55250.00
1468.013, 55013.00
1469.055, 55357.00
1470.097, 55443.00
1471.139, 55340.00
1472.181, 55468.00
1473.222, 55687.00
1474.263, 55628.00
1475.305, 55327.00
1476.346, 55746.00
1477.386, 55581.00
1478.427, 55816.00
1479.468, 55801.00
1480.508, 55570.00
1481.548, 56055.00
1482.588, 55922.00
1483.628, 55938.00
1484.668, 56127.00
1485.707, 56264.00
1486.747, 56417.00
1487.786, 56322.00
1488.825, 56212.00
1489.864, 56572.00
1490.902, 56532.00
1491.941, 56791.00
1492.979, 56795.00
1494.017, 56818.00
1495.055, 56990.00
1496.093, 56863.00
1497.131, 56975.00
1498.168, 57037.00
1499.206, 57089.36
1500.243, 57224.63
1501.280, 57307.00
1502.317, 57509.00
1503.354, 57638.00
1504.390, 57857.00
1505.426, 57697.00
1506.463, 57667.00
1507.499, 57765.00
1508.535, 57823.00
1509.570, 58036.00
1510.606, 57735.00
1511.641, 58152.00
1512.676, 57820.00
1513.711, 57800.00
1514.746, 58234.00
1515.781, 58036.00
1516.816, 57943.00
1517.850, 58113.00
1518.884, 58067.00
1519.918, 58223.00
1520.952, 58268.16
1521.986, 58361.00
1523.019, 58400.00
1524.053, 58394.00
1525.086, 58482.00
1526.119, 58267.00
1527.152, 58485.00
1528.185, 58749.00
1529.217, 58661.00
1530.250, 58558.00
1531.282, 58895.00
1532.314, 58701.00
1533.346, 58609.00
1534.377, 58686.00
1535.409, 59073.00
1536.440, 59090.00
1537.472, 59088.00
1538.503, 59010.00
1539.534, 59065.00
1540.564, 59318.00
1541.595, 59010.00
1542.625, 59297.00
1543.656, 59613.00
1544.686, 59931.00
1545.716, 59742.00
1546.745, 59926.00
1547.775, 59765.00
1548.804, 59735.00
1549.834, 59624.00
1550.863, 59934.00
1551.892, 60115.00
1552.920, 60168.00
1553.949, 60129.00
1554.977, 60581.00
1556.006, 60452.00
1557.034, 60484.00
1558.062, 60279.00
1559.089, 60254.00
1560.117, 60435.00
1561.144, 60649.00
1562.172, 60122.00
1563.199, 60364.00
1564.226, 60545.00
1565.252, 60357.00
1566.279, 60502.00
1567.305, 60449.00
1568.332, 60550.00
1569.358, 60700.00
1570.384, 60511.00
1571.409, 60560.00
1572.435, 61183.00
##END=



