##NAMES=Eudialyte
##RRUFFID=R060035
##IDEAL CHEMISTRY=Na_15_Ca_6_Fe^2+^_3_Zr^4+^_3_Si(Si_25_O_73_)(O,OH,H_2_O)_3_(Cl,OH)_2_
##LOCALITY=Chibini, Kola Peninsula, Russia
##OWNER=RRUFF
##SOURCE=University of Arizona Mineral Museum
##DESCRIPTION=Deep pink coarsely crystalline
##STATUS=The identification of this mineral has been confirmed by X-ray diffraction and chemical analysis
##URL=rruff.info/R060035
##MEASURED CHEMISTRY=(Na_14.86_K_0.14_)_Σ=15_Ca_6.00_(Fe_1.52_Mn_1.48_)_Σ=3_(Zr_2.82_Ti_0.18_)_Σ=3_(Si_0.93_Nb_0.07_)_Σ=1_(Si_25.00_O_73_)((OH)_1.01_(H_2_O)_1.99_)_Σ=3_(Cl_1.65_(OH)_0.35_)_Σ=2_
##PIN_ID=M00465
##ORIENTATION=Laser parallel to a* (1 0 0). Fiducial mark perpendicular to laser is parallel to c [0 0 1]
118.1340, 25100.00
119.3650, 25004.00
120.5960, 25128.00
121.8270, 25263.00
123.0580, 25273.00
124.2880, 25533.00
125.5190, 25497.00
126.7490, 25623.00
127.9790, 25855.00
129.2090, 26033.00
130.4390, 26450.00
131.6680, 26435.00
132.8980, 26805.00
134.1270, 27177.00
135.3560, 27780.00
136.5850, 28137.00
137.8140, 28695.00
139.0430, 29148.00
140.2710, 29542.00
141.5000, 29797.00
142.7280, 29755.00
143.9560, 29838.00
145.1840, 29697.00
146.4120, 29580.00
147.6390, 29286.00
148.8670, 28978.00
150.0940, 28744.00
151.3210, 28448.39
152.5490, 28254.00
153.7750, 27893.00
155.0020, 27646.00
156.2290, 27343.00
157.4550, 27204.00
158.6810, 27009.00
159.9080, 27027.00
161.1340, 27048.00
162.3590, 27071.00
163.5850, 27155.00
164.8110, 27175.00
166.0360, 27212.00
167.2610, 27254.00
168.4860, 27229.00
169.7110, 27289.00
170.9360, 27382.00
172.1610, 27122.00
173.3850, 27113.00
174.6100, 27367.00
175.8340, 27285.00
177.0580, 27516.00
178.2820, 27817.00
179.5050, 27602.00
180.7290, 27999.00
181.9520, 27839.00
183.1760, 28211.00
184.3990, 28452.00
185.6220, 28860.00
186.8450, 29082.00
188.0670, 29305.00
189.2900, 29537.00
190.5120, 30075.00
191.7340, 30223.00
192.9560, 30785.00
194.1780, 30902.00
195.4000, 31369.00
196.6220, 31451.00
197.8430, 31378.00
199.0640, 31919.00
200.2860, 32075.00
201.5070, 32020.00
202.7270, 32098.00
203.9480, 31967.00
205.1690, 32096.00
206.3890, 31637.00
207.6090, 31308.00
208.8290, 31401.00
210.0490, 31082.00
211.2690, 30990.00
212.4890, 30649.00
213.7080, 30549.00
214.9280, 30131.00
216.1470, 29958.00
217.3660, 29650.00
218.5850, 29413.00
219.8030, 29178.00
221.0220, 28816.00
222.2400, 28664.00
223.4590, 28772.00
224.6770, 28495.00
225.8950, 28306.00
227.1120, 28220.00
228.3300, 28000.00
229.5480, 27805.00
230.7650, 27804.00
231.9820, 27736.00
233.1990, 27917.00
234.4160, 27858.00
235.6330, 27686.00
236.8490, 27846.00
238.0660, 27535.00
239.2820, 27548.00
240.4980, 27472.00
241.7140, 27754.00
242.9300, 27728.00
244.1460, 27755.00
245.3610, 27896.00
246.5770, 27840.00
247.7920, 28089.00
249.0070, 27861.00
250.2220, 28005.00
251.4370, 27958.00
252.6510, 28146.00
253.8660, 28157.00
255.0800, 28128.00
256.2940, 28165.00
257.5080, 28621.00
258.7220, 29041.00
259.9360, 28814.00
261.1490, 28957.00
262.3630, 28678.00
263.5760, 28575.00
264.7890, 28740.00
266.0020, 28728.00
267.2150, 28808.31
268.4270, 28929.00
269.6400, 29013.00
270.8520, 29160.00
272.0640, 29305.00
273.2760, 29320.00
274.4880, 29195.00
275.7000, 29409.00
276.9120, 29494.00
278.1230, 29431.00
279.3340, 29658.00
280.5450, 29913.00
281.7560, 29885.80
282.9670, 29977.05
284.1780, 29979.00
285.3880, 29955.00
286.5980, 29991.00
287.8090, 30043.00
289.0190, 30122.00
290.2290, 30171.00
291.4380, 30242.00
292.6480, 30186.00
293.8570, 30238.00
295.0670, 30489.00
296.2760, 30424.00
297.4850, 30657.00
298.6930, 30384.00
299.9020, 30732.00
301.1110, 30811.00
302.3190, 30846.00
303.5270, 31090.00
304.7350, 30960.00
305.9430, 31114.00
307.1510, 30994.00
308.3580, 31377.00
309.5660, 31096.00
310.7730, 31244.00
311.9800, 31047.00
313.1870, 31066.00
314.3940, 31271.00
315.6010, 31235.00
316.8070, 30980.00
318.0130, 31265.00
319.2200, 30953.00
320.4260, 31179.00
321.6310, 31312.00
322.8370, 31030.00
324.0430, 31138.00
325.2480, 31351.00
326.4540, 31147.00
327.6590, 31467.00
328.8640, 31747.00
330.0680, 31717.00
331.2730, 32020.00
332.4780, 32194.00
333.6820, 32456.00
334.8860, 32448.00
336.0900, 32691.00
337.2940, 32500.00
338.4980, 32952.00
339.7010, 32871.00
340.9050, 33012.00
342.1080, 32782.00
343.3110, 32694.00
344.5140, 32656.00
345.7170, 32608.00
346.9200, 32511.39
348.1220, 32426.00
349.3240, 32316.00
350.5270, 32264.60
351.7290, 32141.80
352.9310, 32026.00
354.1320, 32052.00
355.3340, 31753.00
356.5350, 31779.00
357.7370, 31763.00
358.9380, 31526.00
360.1390, 31547.00
361.3400, 31522.00
362.5400, 31330.00
363.7410, 31283.00
364.9410, 31187.10
366.1410, 30836.00
367.3410, 31001.00
368.5410, 30813.00
369.7410, 30680.00
370.9400, 30727.00
372.1400, 30443.00
373.3390, 30618.00
374.5380, 30523.00
375.7370, 30459.00
376.9360, 30471.00
378.1350, 30330.00
379.3330, 30442.00
380.5310, 30262.00
381.7300, 30541.00
382.9280, 30366.00
384.1260, 30517.00
385.3230, 30573.00
386.5210, 30678.00
387.7180, 31039.00
388.9160, 30981.00
390.1130, 31001.00
391.3100, 31538.00
392.5060, 31372.00
393.7030, 31488.00
394.9000, 31602.00
396.0960, 31771.00
397.2920, 31787.34
398.4880, 31875.00
399.6840, 31757.00
400.8800, 31704.00
402.0750, 31516.00
403.2710, 31457.00
404.4660, 31308.00
405.6610, 31058.00
406.8560, 30892.00
408.0510, 30671.39
409.2450, 30574.00
410.4400, 30329.00
411.6340, 30376.00
412.8280, 30434.00
414.0220, 30043.00
415.2160, 30003.00
416.4100, 29948.00
417.6030, 29633.00
418.7970, 29897.00
419.9900, 29608.00
421.1830, 29660.00
422.3760, 29640.00
423.5690, 29596.00
424.7610, 29515.00
425.9540, 29278.00
427.1460, 29257.00
428.3380, 29193.61
429.5300, 29460.00
430.7220, 29191.00
431.9140, 29476.00
433.1050, 29552.00
434.2970, 29228.00
435.4880, 29355.00
436.6790, 29634.00
437.8700, 29724.00
439.0610, 29826.00
440.2510, 29771.00
441.4420, 29913.00
442.6320, 29935.00
443.8220, 30102.00
445.0120, 30080.00
446.2020, 30220.00
447.3910, 30206.00
448.5810, 30289.00
449.7700, 30176.00
450.9600, 30303.00
452.1490, 30244.00
453.3370, 30229.00
454.5260, 30152.00
455.7150, 30115.66
456.9030, 29951.00
458.0910, 29978.00
459.2800, 29978.00
460.4670, 29821.00
461.6550, 29863.00
462.8430, 29849.00
464.0300, 29969.00
465.2180, 29574.00
466.4050, 29666.00
467.5920, 29322.00
468.7790, 29756.00
469.9650, 29500.00
471.1520, 29745.00
472.3380, 29640.00
473.5250, 29746.00
474.7110, 29604.00
475.8970, 29638.00
477.0820, 29787.00
478.2680, 29784.00
479.4540, 29838.00
480.6390, 29799.00
481.8240, 29949.00
483.0090, 30166.00
484.1940, 29979.00
485.3780, 30348.00
486.5630, 30372.00
487.7470, 30404.00
488.9320, 30563.00
490.1160, 30493.00
491.3000, 30605.00
492.4830, 30705.00
493.6670, 30879.00
494.8500, 30877.00
496.0340, 31200.00
497.2170, 31088.00
498.4000, 31183.00
499.5820, 31503.00
500.7650, 31466.00
501.9480, 31742.00
503.1300, 31845.00
504.3120, 31740.00
505.4940, 32104.00
506.6760, 32288.00
507.8580, 32194.00
509.0390, 32143.00
510.2210, 32232.00
511.4020, 32322.00
512.5830, 32074.00
513.7640, 32418.00
514.9450, 32133.00
516.1250, 32224.00
517.3060, 32385.00
518.4860, 32233.00
519.6660, 32501.00
520.8460, 32351.00
522.0260, 32341.00
523.2060, 32214.00
524.3850, 32293.00
525.5650, 32265.00
526.7440, 32597.00
527.9230, 32572.00
529.1020, 32644.00
530.2810, 32884.00
531.4590, 32811.00
532.6380, 33010.00
533.8160, 33362.00
534.9940, 33586.00
536.1720, 33846.00
537.3500, 34133.00
538.5270, 34527.12
539.7050, 34934.00
540.8820, 35426.00
542.0590, 35947.00
543.2360, 36473.82
544.4130, 36790.00
545.5900, 37497.00
546.7660, 38151.00
547.9430, 38555.00
549.1190, 39435.00
550.2950, 40132.00
551.4710, 41424.00
552.6470, 42255.00
553.8220, 43501.00
554.9980, 44444.00
556.1730, 45233.00
557.3480, 45763.00
558.5230, 46786.00
559.6980, 47488.00
560.8730, 48111.00
562.0470, 49061.00
563.2220, 49765.00
564.3960, 50668.00
565.5700, 51060.00
566.7440, 50495.00
567.9170, 49348.00
569.0910, 47779.00
570.2640, 45679.00
571.4380, 43753.00
572.6110, 42066.00
573.7840, 40208.00
574.9570, 38894.00
576.1290, 37394.00
577.3020, 36716.00
578.4740, 35856.00
579.6460, 35283.00
580.8180, 34994.00
581.9900, 34853.00
583.1620, 34664.00
584.3330, 34350.00
585.5040, 34457.00
586.6760, 34299.00
587.8470, 34484.00
589.0180, 34776.00
590.1880, 34633.00
591.3590, 34776.00
592.5290, 35038.00
593.7000, 35397.00
594.8700, 35425.00
596.0400, 35747.00
597.2090, 36093.00
598.3790, 36159.00
599.5490, 36392.00
600.7180, 36751.00
601.8870, 36975.00
603.0560, 37165.00
604.2250, 37158.00
605.3940, 37242.00
606.5620, 37181.00
607.7300, 36916.00
608.8990, 37076.00
610.0670, 36969.00
611.2350, 36643.00
612.4020, 36347.00
613.5700, 36408.00
614.7370, 35980.00
615.9050, 35692.00
617.0720, 35292.00
618.2390, 35076.00
619.4060, 35147.00
620.5720, 34932.00
621.7390, 34751.00
622.9050, 34679.00
624.0710, 34536.00
625.2370, 34600.00
626.4030, 34503.00
627.5690, 34588.00
628.7340, 34481.00
629.9000, 34345.00
631.0650, 34137.00
632.2300, 34276.00
633.3950, 34100.00
634.5600, 33992.00
635.7240, 34312.00
636.8890, 33854.00
638.0530, 33530.00
639.2170, 33585.00
640.3810, 33734.00
641.5450, 33717.00
642.7080, 33763.23
643.8720, 33763.50
645.0350, 33747.00
646.1980, 33742.00
647.3610, 33685.00
648.5240, 33752.00
649.6870, 33786.00
650.8490, 33877.00
652.0120, 33881.00
653.1740, 33968.70
654.3360, 34032.42
655.4980, 34149.00
656.6600, 34177.00
657.8210, 34332.00
658.9830, 34407.00
660.1440, 34582.00
661.3050, 34748.00
662.4660, 34542.00
663.6270, 34657.00
664.7870, 34685.00
665.9480, 34789.00
667.1080, 34923.00
668.2680, 35298.00
669.4280, 35414.00
670.5880, 35501.00
671.7480, 35514.00
672.9070, 35745.00
674.0670, 35845.00
675.2260, 35816.00
676.3850, 36484.00
677.5440, 37398.00
678.7030, 36699.00
679.8610, 36924.00
681.0200, 37592.00
682.1780, 37365.00
683.3360, 37804.00
684.4940, 38414.00
685.6520, 38416.00
686.8090, 38963.00
687.9670, 39527.00
689.1240, 39767.00
690.2810, 40441.00
691.4380, 41027.00
692.5950, 41385.00
693.7520, 41981.00
694.9080, 42779.00
696.0650, 43179.00
697.2210, 43901.00
698.3770, 44508.00
699.5330, 44875.00
700.6880, 45322.00
701.8440, 45736.00
702.9990, 46041.00
704.1550, 46610.00
705.3100, 46836.00
706.4650, 46748.00
707.6190, 46004.00
708.7740, 45674.00
709.9290, 44919.00
711.0830, 44193.00
712.2370, 43241.00
713.3910, 42233.00
714.5450, 41424.00
715.6980, 40321.00
716.8520, 39843.00
718.0050, 39120.00
719.1580, 38820.00
720.3110, 38117.00
721.4640, 37660.00
722.6170, 37331.00
723.7700, 37142.00
724.9220, 37002.00
726.0740, 36805.00
727.2260, 37062.00
728.3780, 36904.00
729.5300, 37049.00
730.6810, 37254.00
731.8330, 37323.00
732.9840, 37474.00
734.1350, 37773.00
735.2860, 37856.00
736.4370, 38375.00
737.5880, 38521.00
738.7380, 38894.00
739.8880, 39057.00
741.0390, 39379.00
742.1890, 39653.00
743.3380, 39798.00
744.4880, 39843.56
745.6380, 39783.00
746.7870, 39686.00
747.9360, 39551.00
749.0850, 39329.00
750.2340, 39094.00
751.3830, 39058.00
752.5310, 38814.00
753.6800, 38738.00
754.8280, 38662.00
755.9760, 38393.00
757.1240, 38327.00
758.2720, 37963.00
759.4190, 38236.00
760.5670, 37816.00
761.7140, 37820.00
762.8610, 38033.00
764.0080, 37829.00
765.1550, 37578.00
766.3020, 37784.00
767.4480, 37647.00
768.5950, 37535.00
769.7410, 37617.00
770.8870, 37499.00
772.0330, 37675.00
773.1780, 37439.00
774.3240, 37521.00
775.4690, 37436.00
776.6140, 37393.00
777.7590, 37672.00
778.9040, 37346.00
780.0490, 37345.00
781.1940, 37592.00
782.3380, 37433.00
783.4820, 37296.00
784.6260, 37036.00
785.7700, 37124.60
786.9140, 37230.00
788.0580, 37112.00
789.2010, 37115.43
790.3450, 36454.00
791.4880, 36831.00
792.6310, 36659.00
793.7730, 36271.00
794.9160, 36401.00
796.0590, 36078.00
797.2010, 36414.00
798.3430, 36017.00
799.4850, 36055.00
800.6270, 36015.00
801.7690, 36196.00
802.9100, 36067.00
804.0520, 36176.00
805.1930, 36032.00
806.3340, 35956.00
807.4750, 35879.00
808.6160, 36196.00
809.7560, 36248.00
810.8970, 36002.00
812.0370, 36251.00
813.1770, 36100.00
814.3170, 36111.00
815.4570, 36191.00
816.5960, 36037.00
817.7360, 36332.00
818.8750, 36237.00
820.0140, 36303.00
821.1530, 36364.00
822.2920, 36339.00
823.4310, 36383.99
824.5690, 36532.00
825.7070, 36459.00
826.8460, 36522.00
827.9840, 36684.00
829.1220, 36542.00
830.2590, 36529.00
831.3970, 36459.00
832.5340, 36377.00
833.6710, 36541.00
834.8080, 36490.30
835.9450, 36613.00
837.0820, 36588.00
838.2190, 36766.00
839.3550, 36863.00
840.4910, 36881.00
841.6270, 36953.00
842.7630, 37014.23
843.8990, 36949.00
845.0350, 37176.00
846.1700, 37097.00
847.3060, 37254.00
848.4410, 37322.00
849.5760, 37153.00
850.7100, 37470.00
851.8450, 37500.00
852.9800, 37482.00
854.1140, 37770.00
855.2480, 37649.00
856.3820, 37737.00
857.5160, 37459.00
858.6500, 37548.00
859.7830, 38001.00
860.9170, 37946.00
862.0500, 38215.00
863.1830, 38221.00
864.3160, 38089.00
865.4480, 38229.00
866.5810, 38205.85
867.7130, 38586.00
868.8460, 38384.00
869.9780, 38624.00
871.1100, 38917.00
872.2410, 38658.00
873.3730, 38804.00
874.5050, 39156.00
875.6360, 39196.00
876.7670, 39233.00
877.8980, 39348.00
879.0290, 39454.00
880.1590, 39575.00
881.2900, 39513.00
882.4200, 39634.00
883.5500, 39683.00
884.6800, 39730.00
885.8100, 39812.00
886.9400, 39966.00
888.0690, 40015.00
889.1990, 40511.00
890.3280, 40514.00
891.4570, 40817.00
892.5860, 40794.00
893.7140, 41092.00
894.8430, 41143.00
895.9710, 41364.12
897.1000, 41866.00
898.2280, 41931.00
899.3560, 42323.00
900.4830, 42862.00
901.6110, 42970.00
902.7380, 43372.00
903.8660, 43701.00
904.9930, 43619.00
906.1200, 43916.00
907.2460, 44079.05
908.3730, 44387.00
909.5000, 44584.00
910.6260, 44703.00
911.7520, 45185.00
912.8780, 45193.00
914.0040, 45136.00
915.1290, 45741.00
916.2550, 45714.00
917.3800, 46095.00
918.5050, 46387.00
919.6300, 46258.00
920.7550, 46267.00
921.8800, 46134.00
923.0040, 46471.00
924.1290, 46238.00
925.2530, 46344.00
926.3770, 46211.00
927.5010, 45885.00
928.6250, 45923.00
929.7480, 45628.00
930.8720, 45664.00
931.9950, 45713.00
933.1180, 45394.00
934.2410, 45101.00
935.3640, 45375.00
936.4860, 45092.00
937.6090, 44962.00
938.7310, 45273.00
939.8530, 45414.00
940.9750, 45409.00
942.0970, 45598.00
943.2180, 45471.00
944.3400, 45663.00
945.4610, 45861.00
946.5820, 45498.00
947.7030, 45682.00
948.8240, 46076.00
949.9450, 46156.00
951.0650, 45935.00
952.1860, 45860.00
953.3060, 45990.00
954.4260, 45780.00
955.5460, 45970.00
956.6650, 45475.00
957.7850, 45453.00
958.9040, 45347.00
960.0230, 45292.00
961.1420, 45319.00
962.2610, 45374.00
963.3800, 45573.00
964.4990, 45320.00
965.6170, 45285.00
966.7350, 44964.00
967.8530, 45304.00
968.9710, 45321.00
970.0890, 45388.00
971.2070, 45492.00
972.3240, 45339.00
973.4410, 45619.00
974.5580, 45576.00
975.6750, 46007.00
976.7920, 46315.00
977.9090, 46116.00
979.0250, 46450.00
980.1410, 46562.00
981.2580, 46772.00
982.3740, 46944.00
983.4890, 47087.00
984.6050, 47179.00
985.7200, 47652.00
986.8360, 47814.00
987.9510, 48186.00
989.0660, 48469.28
990.1810, 48588.00
991.2950, 49052.00
992.4100, 49013.00
993.5240, 49358.00
994.6390, 49611.00
995.7530, 49286.00
996.8660, 49386.00
997.9800, 49508.00
999.0940, 49386.00
1000.207, 49039.00
1001.320, 48734.00
1002.433, 48628.00
1003.546, 48761.00
1004.659, 48040.00
1005.772, 47577.00
1006.884, 47671.00
1007.996, 47236.00
1009.108, 47146.00
1010.220, 46794.00
1011.332, 46519.00
1012.444, 46607.00
1013.555, 46549.00
1014.666, 46359.00
1015.777, 46236.00
1016.888, 46369.00
1017.999, 46206.00
1019.110, 46047.00
1020.220, 46111.00
1021.331, 46335.00
1022.441, 46342.00
1023.551, 46379.00
1024.661, 46326.00
1025.770, 46330.00
1026.880, 46347.00
1027.989, 46615.00
1029.098, 46657.00
1030.207, 46886.00
1031.316, 47054.00
1032.425, 47075.00
1033.533, 46972.00
1034.642, 47200.00
1035.750, 47199.00
1036.858, 47357.46
1037.966, 47464.00
1039.073, 47646.00
1040.181, 47759.45
1041.288, 47891.00
1042.396, 47970.01
1043.503, 48041.25
1044.610, 48057.73
1045.716, 48110.00
1046.823, 48097.00
1047.929, 48144.00
1049.036, 48135.00
1050.142, 48061.00
1051.248, 48406.00
1052.353, 48404.00
1053.459, 48653.00
1054.564, 48857.00
1055.670, 48711.00
1056.775, 49353.00
1057.880, 49358.00
1058.985, 49858.00
1060.089, 49910.00
1061.194, 50086.00
1062.298, 50417.00
1063.402, 50526.00
1064.506, 51049.00
1065.610, 51119.00
1066.713, 51393.00
1067.817, 51681.00
1068.920, 51846.00
1070.023, 51990.00
1071.126, 52217.00
1072.229, 52365.00
1073.332, 52649.43
1074.435, 52938.00
1075.537, 53150.00
1076.639, 53410.00
1077.741, 53487.00
1078.843, 53575.00
1079.945, 53918.00
1081.046, 53929.00
1082.148, 54506.00
1083.249, 54751.00
1084.350, 55279.00
1085.451, 55582.00
1086.551, 55479.00
1087.652, 55908.00
1088.752, 56071.00
1089.853, 56135.00
1090.953, 56305.00
1092.053, 56349.00
1093.152, 56142.64
1094.252, 55757.00
1095.351, 55515.00
1096.451, 55117.00
1097.550, 54584.00
1098.649, 54208.00
1099.748, 53437.00
1100.846, 52920.00
1101.945, 52361.81
1103.043, 51580.00
1104.141, 51196.00
1105.239, 50732.00
1106.337, 50098.00
1107.434, 50022.00
1108.532, 49609.00
1109.629, 49346.00
1110.726, 49060.00
1111.823, 49277.00
1112.920, 48695.00
1114.017, 48863.00
1115.113, 48501.00
1116.210, 48295.00
1117.306, 48064.00
1118.402, 48043.25
1119.498, 48291.00
1120.593, 48212.00
1121.689, 48352.00
1122.784, 48611.00
1123.879, 48389.00
1124.974, 48277.00
1126.069, 48372.00
1127.164, 48426.00
1128.259, 48464.00
1129.353, 48156.00
1130.447, 47966.00
1131.541, 48259.00
1132.635, 48342.00
1133.729, 48378.00
1134.822, 48568.00
1135.916, 48121.00
1137.009, 48650.00
1138.102, 48147.00
1139.195, 48197.00
1140.288, 48302.00
1141.380, 48095.00
1142.473, 47667.00
1143.565, 47714.00
1144.657, 47134.00
1145.749, 47346.00
1146.841, 47365.00
1147.932, 46938.00
1149.024, 47404.00
1150.115, 47105.00
1151.206, 46961.00
1152.297, 47188.00
1153.388, 46711.00
1154.479, 47000.00
1155.569, 47015.00
1156.659, 47087.00
1157.750, 47265.00
1158.839, 47182.00
1159.929, 47361.00
1161.019, 47269.00
1162.108, 47361.00
1163.198, 47358.00
1164.287, 47302.00
1165.376, 47149.00
1166.465, 47430.00
1167.553, 47204.00
1168.642, 47247.00
1169.730, 47062.00
1170.818, 46980.00
1171.906, 47188.00
1172.994, 47067.00
1174.082, 47222.00
1175.170, 47069.00
1176.257, 47228.00
1177.344, 47423.00
1178.431, 47301.00
1179.518, 47161.00
1180.605, 47355.00
1181.691, 47136.00
1182.778, 47115.00
1183.864, 47110.00
1184.950, 46992.00
1186.036, 47364.00
1187.122, 47438.00
1188.207, 47366.00
1189.292, 47388.00
1190.378, 47500.00
1191.463, 47453.00
1192.548, 47601.00
1193.632, 47446.00
1194.717, 47600.00
1195.801, 47771.00
1196.886, 47660.00
1197.970, 47524.00
1199.054, 47771.00
1200.137, 47979.00
1201.221, 47606.00
1202.305, 47632.00
1203.388, 47678.00
1204.471, 48083.00
1205.554, 47497.00
1206.637, 48059.00
1207.719, 47833.00
1208.802, 47691.00
1209.884, 47877.00
1210.966, 47857.00
1212.048, 48154.00
1213.130, 48153.00
1214.212, 47946.00
1215.293, 47947.00
1216.374, 48114.00
1217.456, 48266.00
1218.536, 47962.00
1219.617, 48403.00
1220.698, 48159.00
1221.778, 48119.00
1222.859, 48505.00
1223.939, 48366.00
1225.019, 48392.00
1226.099, 48679.00
1227.178, 48433.00
1228.258, 48261.00
1229.337, 48278.00
1230.417, 48233.00
1231.496, 48247.32
1232.574, 48286.00
1233.653, 48317.00
1234.732, 48424.00
1235.810, 48381.00
1236.888, 48558.00
1237.966, 48437.00
1239.044, 48726.00
1240.122, 48451.00
1241.199, 48476.00
1242.277, 48508.00
1243.354, 48611.00
1244.431, 48584.00
1245.508, 48796.00
1246.585, 48883.00
1247.661, 48724.00
1248.738, 49239.00
1249.814, 48975.00
1250.890, 48977.00
1251.966, 49379.00
1253.042, 49077.00
1254.117, 49161.00
1255.193, 48950.00
1256.268, 49045.00
1257.343, 49265.00
1258.418, 49221.00
1259.493, 49120.00
1260.567, 49225.00
1261.642, 49575.00
1262.716, 49480.00
1263.790, 49438.00
1264.864, 49659.00
1265.938, 49498.00
1267.011, 49739.00
1268.085, 49321.00
1269.158, 49597.00
1270.231, 49678.00
1271.304, 49767.00
1272.377, 49437.00
1273.450, 49433.00
1274.522, 49367.00
1275.594, 49512.00
1276.666, 49596.00
1277.738, 49598.46
1278.810, 49862.00
1279.882, 49618.00
1280.953, 49820.00
1282.025, 49748.00
1283.096, 49921.00
1284.167, 50154.00
1285.238, 50005.00
1286.308, 50305.00
1287.379, 50607.00
1288.449, 50485.00
1289.519, 50499.76
1290.589, 50397.00
1291.659, 50240.00
1292.729, 50413.00
1293.798, 50518.00
1294.868, 50464.00
1295.937, 50545.96
1297.006, 50513.00
1298.075, 50537.00
1299.143, 50526.00
1300.212, 50512.00
1301.280, 50479.00
1302.348, 50386.00
1303.416, 50451.00
1304.484, 50659.00
1305.552, 50580.00
1306.620, 50570.00
1307.687, 51196.00
1308.754, 50552.00
1309.821, 51106.00
1310.888, 50936.00
1311.955, 51291.00
1313.021, 51309.00
1314.088, 51137.00
1315.154, 51555.00
1316.220, 51213.00
1317.286, 51428.00
1318.352, 51549.00
1319.417, 51518.00
1320.483, 51511.00
1321.548, 51506.00
1322.613, 51520.00
1323.678, 51621.00
1324.743, 51758.00
1325.807, 51702.00
1326.872, 51688.00
1327.936, 51586.00
1329.000, 51727.00
1330.064, 51784.00
1331.128, 52012.00
1332.191, 52087.00
1333.255, 51997.00
1334.318, 51949.00
1335.381, 51774.00
1336.444, 52028.00
1337.507, 51932.00
1338.569, 52124.00
1339.632, 52227.00
1340.694, 52100.00
1341.756, 52144.00
1342.818, 52075.00
1343.880, 52354.00
1344.941, 52318.00
1346.003, 52584.00
1347.064, 52567.00
1348.125, 52371.00
1349.186, 52487.00
1350.247, 52369.00
1351.308, 52725.00
1352.368, 52973.00
1353.428, 52580.00
1354.489, 52571.00
1355.549, 52853.00
1356.608, 53116.00
1357.668, 52843.00
1358.727, 53097.00
1359.787, 53247.00
1360.846, 53061.00
1361.905, 52908.00
1362.964, 53378.00
1364.022, 52985.00
1365.081, 53229.00
1366.139, 52952.00
1367.197, 53225.00
1368.255, 53284.00
1369.313, 53240.00
1370.371, 53073.00
1371.428, 53522.00
1372.486, 53542.00
1373.543, 53395.00
1374.600, 53555.00
1375.657, 53585.00
1376.713, 53642.00
1377.770, 53888.00
1378.826, 54049.00
1379.882, 53931.00
1380.938, 53897.00
1381.994, 54128.00
1383.050, 53958.00
1384.106, 54133.00
1385.161, 53820.00
1386.216, 54167.00
1387.271, 53994.00
1388.326, 53954.00
1389.381, 54295.00
1390.435, 54245.00
1391.490, 54275.00
1392.544, 54575.00
1393.598, 54307.00
1394.652, 54552.00
1395.705, 54556.00
1396.759, 54206.00
1397.812, 54520.00
1398.866, 54680.00
1399.919, 54447.00
1400.972, 54842.00
1402.024, 54906.00
1403.077, 54889.00
1404.129, 54841.00
1405.181, 55228.00
1406.233, 54706.00
1407.285, 55289.00
1408.337, 55071.00
1409.389, 55395.00
1410.440, 55315.00
1411.491, 55178.00
1412.542, 55354.00
1413.593, 55385.00
1414.644, 55391.00
1415.695, 55596.00
1416.745, 55640.00
1417.795, 55588.00
1418.845, 55541.00
1419.895, 55809.00
1420.945, 55915.00
1421.995, 55827.00
1423.044, 55630.00
1424.093, 55909.00
1425.142, 55967.00
1426.191, 56057.00
1427.240, 56101.00
1428.289, 56358.00
1429.337, 56394.00
1430.385, 56589.00
1431.433, 56472.00
1432.481, 56746.00
1433.529, 56661.00
1434.577, 56928.00
1435.624, 56934.00
1436.672, 57151.00
1437.719, 56947.00
1438.766, 57360.00
1439.812, 57328.00
1440.859, 57128.00
1441.905, 57724.00
1442.952, 57804.00
1443.998, 58004.00
1445.044, 57637.00
1446.090, 57905.00
1447.135, 57942.00
1448.181, 58104.00
1449.226, 58191.86
1450.271, 58031.00
1451.316, 58254.00
1452.361, 58237.00
1453.405, 58122.00
1454.450, 58359.00
1455.494, 58027.00
1456.538, 58637.00
1457.582, 58542.00
1458.626, 58448.00
1459.670, 58501.00
1460.713, 58332.00
1461.757, 58508.00
1462.800, 58634.00
1463.843, 58586.00
1464.886, 58585.00
1465.928, 58876.00
1466.971, 58872.00
1468.013, 58796.00
1469.055, 58785.00
1470.097, 58957.00
1471.139, 58782.00
1472.181, 59097.00
1473.222, 59283.00
1474.263, 58812.00
1475.305, 59351.00
1476.346, 59347.00
1477.386, 59349.00
1478.427, 59152.00
1479.468, 59336.00
1480.508, 59510.00
1481.548, 59686.00
1482.588, 59641.00
1483.628, 59613.00
1484.668, 59816.00
1485.707, 59640.00
1486.747, 60015.00
1487.786, 60248.00
1488.825, 60146.00
1489.864, 60111.00
1490.902, 60055.00
1491.941, 60117.72
1492.979, 60358.00
1494.017, 60263.00
1495.055, 60404.00
1496.093, 60408.00
1497.131, 60495.00
1498.168, 60747.00
1499.206, 60885.00
1500.243, 61088.00
1501.280, 61092.00
1502.317, 60981.00
1503.354, 61138.00
1504.390, 60998.00
1505.426, 61081.00
1506.463, 61173.00
1507.499, 61318.00
1508.535, 61374.00
1509.570, 61380.00
1510.606, 61580.00
1511.641, 61290.00
1512.676, 61320.00
1513.711, 61315.00
1514.746, 61436.00
1515.781, 61610.00
1516.816, 61451.00
1517.850, 61465.00
1518.884, 61641.00
1519.918, 61725.00
1520.952, 61626.00
1521.986, 61712.00
1523.019, 61666.00
1524.053, 61792.00
1525.086, 61957.00
1526.119, 62010.00
1527.152, 62089.51
1528.185, 62050.00
1529.217, 62183.00
1530.250, 62123.00
1531.282, 62189.00
1532.314, 62126.00
1533.346, 62283.00
1534.377, 62148.00
1535.409, 62208.00
1536.440, 62369.00
1537.472, 62354.00
1538.503, 62134.00
1539.534, 62207.00
1540.564, 62427.00
1541.595, 62719.00
1542.625, 62562.00
1543.656, 62748.00
1544.686, 62765.00
1545.716, 62611.00
1546.745, 62667.00
1547.775, 62676.69
1548.804, 62799.00
1549.834, 62826.00
1550.863, 62944.00
1551.892, 63125.00
1552.920, 63094.00
1553.949, 63226.18
1554.977, 63255.13
1556.006, 63286.00
1557.034, 63280.00
1558.062, 63138.00
1559.089, 63077.00
1560.117, 63198.00
1561.144, 63305.00
1562.172, 63182.00
1563.199, 63377.42
1564.226, 63633.00
1565.252, 63576.00
1566.279, 63657.00
1567.305, 63678.00
1568.332, 63817.00
1569.358, 63736.00
1570.384, 63911.00
1571.409, 63734.00
1572.435, 64244.00
##END=



