##NAMES=Eudialyte
##RRUFFID=R060206
##IDEAL CHEMISTRY=Na_15_Ca_6_Fe^2+^_3_Zr^4+^_3_Si(Si_25_O_73_)(O,OH,H_2_O)_3_(Cl,OH)_2_
##LOCALITY=Desourdy Quarry, Mont Saint-Hilaire, Rouville County, Quebec, Canada
##OWNER=RRUFF
##SOURCE=Royal Ontario Museum
##DESCRIPTION=Yellowish-brown gemmy fragment
##STATUS=The identification of this mineral is confirmed by single-crystal X-ray diffraction and chemical analysis.
##URL=rruff.info/R060206
##MEASURED CHEMISTRY=(Na_13.12_Ca_1.62_K_0.26_)_Σ=15_(Ca_4.47_Mn_1.00_Ce_0.32_La_0.21_)_Σ=6_(Fe_2.91_Mn_0.09_)_Σ=3_Zr_3.00_(Si_0.85_Nb_0.15_)_Σ=1_Si_25.00_O_73_((OH)_2.70_O_0.30_)_Σ=3_(Cl_1.20_(OH)_0.80_)_Σ=2_
##PIN_ID=M00202
##ORIENTATION=Laser parallel to -c* (0 0 -1). Fiducial mark perpendicular to laser is parallel to a [1 0 0]
116.9030, 22162.00
118.1340, 22359.00
119.3650, 22254.00
120.5960, 22131.00
121.8270, 22186.00
123.0580, 22306.00
124.2880, 22544.00
125.5190, 22477.00
126.7490, 22557.00
127.9790, 22637.00
129.2090, 23372.00
130.4390, 23472.00
131.6680, 24033.00
132.8980, 24421.00
134.1270, 24731.00
135.3560, 25255.00
136.5850, 25684.00
137.8140, 25909.85
139.0430, 26068.73
140.2710, 26281.00
141.5000, 25916.00
142.7280, 25886.00
143.9560, 25402.00
145.1840, 25004.00
146.4120, 24657.00
147.6390, 24087.00
148.8670, 23506.00
150.0940, 23180.00
151.3210, 23018.00
152.5490, 22703.00
153.7750, 22436.00
155.0020, 22032.00
156.2290, 21933.04
157.4550, 21961.00
158.6810, 21790.00
159.9080, 21826.00
161.1340, 21942.00
162.3590, 22090.00
163.5850, 22185.75
164.8110, 22420.00
166.0360, 22436.00
167.2610, 22711.00
168.4860, 22820.00
169.7110, 23100.00
170.9360, 23200.00
172.1610, 23617.00
173.3850, 23844.00
174.6100, 24598.00
175.8340, 25074.00
177.0580, 25695.00
178.2820, 26376.00
179.5050, 27041.00
180.7290, 27964.00
181.9520, 28887.00
183.1760, 30102.00
184.3990, 31193.00
185.6220, 32075.00
186.8450, 33618.00
188.0670, 34741.00
189.2900, 36335.00
190.5120, 38038.00
191.7340, 39490.00
192.9560, 41027.00
194.1780, 43087.00
195.4000, 44709.00
196.6220, 46101.00
197.8430, 47550.00
199.0640, 49067.00
200.2860, 49809.00
201.5070, 50483.00
202.7270, 50957.00
203.9480, 50731.00
205.1690, 49923.00
206.3890, 48550.00
207.6090, 47313.00
208.8290, 45960.00
210.0490, 44382.00
211.2690, 42657.00
212.4890, 40967.00
213.7080, 39257.00
214.9280, 36768.00
216.1470, 35414.00
217.3660, 33527.00
218.5850, 31556.00
219.8030, 30221.00
221.0220, 28852.00
222.2400, 27372.00
223.4590, 26204.00
224.6770, 25185.00
225.8950, 24148.58
227.1120, 23406.00
228.3300, 22555.00
229.5480, 21889.00
230.7650, 21382.00
231.9820, 20665.00
233.1990, 20321.00
234.4160, 19767.00
235.6330, 19181.00
236.8490, 18816.00
238.0660, 18231.00
239.2820, 17899.00
240.4980, 17767.00
241.7140, 17209.00
242.9300, 17080.00
244.1460, 16792.00
245.3610, 16517.00
246.5770, 16426.00
247.7920, 16290.00
249.0070, 16182.00
250.2220, 16191.00
251.4370, 16154.24
252.6510, 16230.00
253.8660, 16226.00
255.0800, 16240.00
256.2940, 16322.00
257.5080, 16635.00
258.7220, 16771.72
259.9360, 16900.86
261.1490, 17314.00
262.3630, 17270.00
263.5760, 17599.00
264.7890, 18088.00
266.0020, 18409.00
267.2150, 18999.00
268.4270, 19422.00
269.6400, 19802.00
270.8520, 20202.00
272.0640, 20653.00
273.2760, 20834.00
274.4880, 21045.11
275.7000, 21070.00
276.9120, 21132.00
278.1230, 21272.00
279.3340, 21086.00
280.5450, 21184.00
281.7560, 21168.00
282.9670, 21332.00
284.1780, 21454.00
285.3880, 21442.00
286.5980, 21681.00
287.8090, 21888.00
289.0190, 21885.00
290.2290, 22079.00
291.4380, 22054.00
292.6480, 22113.00
293.8570, 22325.00
295.0670, 22064.00
296.2760, 22344.00
297.4850, 22173.00
298.6930, 22197.00
299.9020, 22162.00
301.1110, 22202.00
302.3190, 22010.00
303.5270, 22122.00
304.7350, 21911.00
305.9430, 21960.00
307.1510, 21753.00
308.3580, 21377.00
309.5660, 21068.00
310.7730, 20676.00
311.9800, 20341.00
313.1870, 19981.00
314.3940, 19666.00
315.6010, 19468.00
316.8070, 19011.00
318.0130, 18863.00
319.2200, 18466.00
320.4260, 18472.74
321.6310, 18574.00
322.8370, 18635.00
324.0430, 18870.00
325.2480, 19156.00
326.4540, 19290.00
327.6590, 19719.00
328.8640, 19951.00
330.0680, 20342.00
331.2730, 20836.00
332.4780, 21055.00
333.6820, 21142.00
334.8860, 21158.00
336.0900, 21112.00
337.2940, 20987.00
338.4980, 20538.00
339.7010, 20146.00
340.9050, 19983.00
342.1080, 19779.00
343.3110, 19264.00
344.5140, 19071.00
345.7170, 18894.00
346.9200, 18617.00
348.1220, 18579.00
349.3240, 18435.00
350.5270, 18725.00
351.7290, 18629.00
352.9310, 18600.00
354.1320, 18623.00
355.3340, 18628.00
356.5350, 18475.00
357.7370, 18519.00
358.9380, 18394.00
360.1390, 18120.00
361.3400, 18163.00
362.5400, 17836.00
363.7410, 17430.00
364.9410, 17197.00
366.1410, 17129.00
367.3410, 16702.00
368.5410, 16575.00
369.7410, 16410.00
370.9400, 16100.00
372.1400, 16112.00
373.3390, 15935.00
374.5380, 16125.00
375.7370, 16022.00
376.9360, 16224.00
378.1350, 16224.00
379.3330, 16466.00
380.5310, 16834.00
381.7300, 17077.00
382.9280, 17449.00
384.1260, 17759.00
385.3230, 18266.00
386.5210, 18515.00
387.7180, 18993.00
388.9160, 19403.00
390.1130, 19600.00
391.3100, 19734.00
392.5060, 19959.00
393.7030, 19980.00
394.9000, 19592.00
396.0960, 19401.00
397.2920, 18968.00
398.4880, 18525.00
399.6840, 18082.00
400.8800, 17535.00
402.0750, 16849.00
403.2710, 16731.00
404.4660, 16181.00
405.6610, 15818.00
406.8560, 15636.00
408.0510, 15226.00
409.2450, 15136.00
410.4400, 15060.00
411.6340, 14720.00
412.8280, 14542.00
414.0220, 14456.00
415.2160, 14316.00
416.4100, 14030.00
417.6030, 13867.00
418.7970, 13579.00
419.9900, 13310.00
421.1830, 13147.00
422.3760, 12782.00
423.5690, 12703.00
424.7610, 12274.00
425.9540, 12045.00
427.1460, 11541.00
428.3380, 11391.00
429.5300, 11107.00
430.7220, 10905.00
431.9140, 10831.00
433.1050, 10649.08
434.2970, 10746.00
435.4880, 10510.00
436.6790, 10679.00
437.8700, 10783.00
439.0610, 10674.00
440.2510, 10853.00
441.4420, 10801.00
442.6320, 10733.00
443.8220, 10521.00
445.0120, 10406.00
446.2020, 10185.00
447.3910, 9945.000
448.5810, 9893.000
449.7700, 9844.000
450.9600, 9711.000
452.1490, 9473.000
453.3370, 9524.000
454.5260, 9384.000
455.7150, 9288.000
456.9030, 9251.000
458.0910, 9066.000
459.2800, 9112.000
460.4670, 9116.000
461.6550, 9038.164
462.8430, 9043.000
464.0300, 8943.000
465.2180, 8936.000
466.4050, 8824.000
467.5920, 8867.000
468.7790, 8826.000
469.9650, 8866.000
471.1520, 8789.000
472.3380, 8879.000
473.5250, 8954.000
474.7110, 8853.000
475.8970, 8659.000
477.0820, 8779.000
478.2680, 8778.000
479.4540, 8815.000
480.6390, 8771.000
481.8240, 8762.000
483.0090, 8701.000
484.1940, 8559.000
485.3780, 8562.000
486.5630, 8772.000
487.7470, 8668.000
488.9320, 8695.000
490.1160, 8754.000
491.3000, 8671.000
492.4830, 8818.000
493.6670, 8911.000
494.8500, 9028.000
496.0340, 9039.000
497.2170, 9099.000
498.4000, 9233.000
499.5820, 9283.000
500.7650, 9519.000
501.9480, 9759.000
503.1300, 9892.000
504.3120, 10072.00
505.4940, 10257.00
506.6760, 10460.00
507.8580, 10673.58
509.0390, 10910.78
510.2210, 11150.00
511.4020, 11417.00
512.5830, 11713.00
513.7640, 11977.00
514.9450, 12205.00
516.1250, 12636.00
517.3060, 12988.00
518.4860, 13423.00
519.6660, 13880.00
520.8460, 14321.00
522.0260, 14854.00
523.2060, 15204.00
524.3850, 15474.00
525.5650, 15655.00
526.7440, 15917.00
527.9230, 16298.00
529.1020, 16548.00
530.2810, 17134.00
531.4590, 17359.00
532.6380, 17992.00
533.8160, 18448.00
534.9940, 19287.00
536.1720, 19988.00
537.3500, 20954.00
538.5270, 21714.00
539.7050, 22485.00
540.8820, 23368.00
542.0590, 24049.00
543.2360, 24590.00
544.4130, 25626.00
545.5900, 26651.00
546.7660, 27657.00
547.9430, 29141.00
549.1190, 30786.00
550.2950, 33021.00
551.4710, 35102.00
552.6470, 38071.00
553.8220, 40941.00
554.9980, 43563.00
556.1730, 46275.00
557.3480, 47967.00
558.5230, 49181.00
559.6980, 49151.00
560.8730, 49076.00
562.0470, 49578.00
563.2220, 50667.00
564.3960, 52309.00
565.5700, 54142.00
566.7440, 54823.00
567.9170, 53658.00
569.0910, 50498.00
570.2640, 45893.00
571.4380, 40426.00
572.6110, 35537.00
573.7840, 30853.00
574.9570, 27218.00
576.1290, 23955.00
577.3020, 21581.00
578.4740, 19453.00
579.6460, 18017.00
580.8180, 16659.00
581.9900, 15613.00
583.1620, 14704.00
584.3330, 13998.00
585.5040, 13726.00
586.6760, 13202.00
587.8470, 13026.00
589.0180, 12951.00
590.1880, 12906.00
591.3590, 13136.00
592.5290, 13314.00
593.7000, 13722.00
594.8700, 13847.00
596.0400, 14402.00
597.2090, 15001.00
598.3790, 15716.00
599.5490, 16477.82
600.7180, 17415.00
601.8870, 18234.00
603.0560, 19227.00
604.2250, 20281.00
605.3940, 20893.00
606.5620, 21728.00
607.7300, 22175.00
608.8990, 22742.00
610.0670, 22860.00
611.2350, 22711.00
612.4020, 22421.00
613.5700, 22073.00
614.7370, 21375.00
615.9050, 20688.00
617.0720, 20450.00
618.2390, 19948.00
619.4060, 19537.00
620.5720, 19204.00
621.7390, 19271.00
622.9050, 19328.00
624.0710, 19444.00
625.2370, 19554.00
626.4030, 19672.00
627.5690, 19549.00
628.7340, 19414.00
629.9000, 19023.00
631.0650, 18542.00
632.2300, 17857.00
633.3950, 17273.00
634.5600, 16714.00
635.7240, 16156.57
636.8890, 15738.00
638.0530, 15291.00
639.2170, 15055.00
640.3810, 14981.00
641.5450, 14704.00
642.7080, 14547.00
643.8720, 14232.00
645.0350, 14242.00
646.1980, 13955.00
647.3610, 13868.00
648.5240, 14085.00
649.6870, 13983.00
650.8490, 13812.00
652.0120, 14295.00
653.1740, 14221.00
654.3360, 14345.00
655.4980, 14552.00
656.6600, 14783.00
657.8210, 14868.00
658.9830, 15035.00
660.1440, 15168.00
661.3050, 15307.00
662.4660, 15464.00
663.6270, 15786.00
664.7870, 15891.00
665.9480, 16350.00
667.1080, 16651.00
668.2680, 16944.00
669.4280, 17170.00
670.5880, 17615.00
671.7480, 18185.00
672.9070, 18486.00
674.0670, 19018.00
675.2260, 19881.00
676.3850, 20526.00
677.5440, 21201.00
678.7030, 21899.00
679.8610, 22551.00
681.0200, 23237.00
682.1780, 24055.00
683.3360, 24606.00
684.4940, 25241.00
685.6520, 25968.00
686.8090, 26824.00
687.9670, 27657.00
689.1240, 28461.84
690.2810, 29277.00
691.4380, 30184.00
692.5950, 31113.00
693.7520, 32103.00
694.9080, 33252.00
696.0650, 34605.00
697.2210, 35650.00
698.3770, 37208.00
699.5330, 38347.00
700.6880, 40071.00
701.8440, 41251.00
702.9990, 42567.00
704.1550, 44087.00
705.3100, 44938.00
706.4650, 45649.00
707.6190, 46007.00
708.7740, 45801.00
709.9290, 45004.00
711.0830, 43763.00
712.2370, 42465.00
713.3910, 40689.00
714.5450, 39311.00
715.6980, 38031.00
716.8520, 37092.00
718.0050, 36693.00
719.1580, 36634.00
720.3110, 36993.00
721.4640, 37587.00
722.6170, 38555.00
723.7700, 39696.53
724.9220, 41151.00
726.0740, 42670.00
727.2260, 44713.00
728.3780, 46505.00
729.5300, 48439.00
730.6810, 50456.00
731.8330, 52134.00
732.9840, 54074.00
734.1350, 55505.00
735.2860, 57097.00
736.4370, 58300.00
737.5880, 59599.00
738.7380, 59989.00
739.8880, 60746.00
741.0390, 60906.00
742.1890, 60606.00
743.3380, 60317.00
744.4880, 59751.00
745.6380, 59059.00
746.7870, 57962.00
747.9360, 56564.00
749.0850, 55694.00
750.2340, 55254.00
751.3830, 54179.00
752.5310, 54093.00
753.6800, 53563.00
754.8280, 52776.00
755.9760, 53042.00
757.1240, 52511.00
758.2720, 51980.00
759.4190, 51122.00
760.5670, 50075.00
761.7140, 49302.00
762.8610, 48090.00
764.0080, 46531.00
765.1550, 45123.00
766.3020, 43824.00
767.4480, 42438.00
768.5950, 40953.00
769.7410, 39528.00
770.8870, 38137.00
772.0330, 36639.00
773.1780, 35205.26
774.3240, 33737.32
775.4690, 32318.00
776.6140, 30896.00
777.7590, 29558.00
778.9040, 28386.00
780.0490, 27298.30
781.1940, 26151.00
782.3380, 25483.00
783.4820, 24804.00
784.6260, 24173.00
785.7700, 23281.00
786.9140, 22537.00
788.0580, 21887.00
789.2010, 21158.11
790.3450, 20553.75
791.4880, 19929.00
792.6310, 19421.00
793.7730, 18939.00
794.9160, 18511.00
796.0590, 17957.00
797.2010, 17536.00
798.3430, 16986.00
799.4850, 16664.00
800.6270, 16539.00
801.7690, 16632.00
802.9100, 16465.00
804.0520, 16413.47
805.1930, 16588.00
806.3340, 16307.00
807.4750, 16645.00
808.6160, 16800.00
809.7560, 17021.00
810.8970, 17352.00
812.0370, 17816.00
813.1770, 18138.00
814.3170, 18502.00
815.4570, 18673.00
816.5960, 19089.00
817.7360, 19122.00
818.8750, 19375.00
820.0140, 18984.00
821.1530, 18784.00
822.2920, 18528.00
823.4310, 18228.00
824.5690, 17751.00
825.7070, 17170.00
826.8460, 16652.00
827.9840, 16306.00
829.1220, 15884.00
830.2590, 15340.00
831.3970, 15134.00
832.5340, 14821.00
833.6710, 14431.00
834.8080, 14503.00
835.9450, 14121.00
837.0820, 13869.00
838.2190, 13716.00
839.3550, 13252.00
840.4910, 12898.00
841.6270, 12815.00
842.7630, 12449.00
843.8990, 12215.00
845.0350, 11956.00
846.1700, 11707.01
847.3060, 11476.00
848.4410, 11270.00
849.5760, 11109.00
850.7100, 10885.00
851.8450, 10742.00
852.9800, 10700.00
854.1140, 10658.00
855.2480, 10470.00
856.3820, 10581.00
857.5160, 10380.00
858.6500, 10310.00
859.7830, 10408.00
860.9170, 10258.00
862.0500, 10170.00
863.1830, 10157.00
864.3160, 10051.00
865.4480, 10184.00
866.5810, 10135.00
867.7130, 10080.00
868.8460, 10236.00
869.9780, 10251.00
871.1100, 10261.00
872.2410, 10470.00
873.3730, 10512.00
874.5050, 10495.00
875.6360, 10594.00
876.7670, 10591.00
877.8980, 10633.00
879.0290, 10691.00
880.1590, 10750.00
881.2900, 10859.06
882.4200, 10987.70
883.5500, 11130.00
884.6800, 11329.00
885.8100, 11532.00
886.9400, 11768.00
888.0690, 11954.00
889.1990, 12147.00
890.3280, 12386.00
891.4570, 12478.00
892.5860, 12805.00
893.7140, 12902.00
894.8430, 13135.00
895.9710, 13455.00
897.1000, 13558.00
898.2280, 13776.00
899.3560, 13812.00
900.4830, 14257.00
901.6110, 14406.00
902.7380, 14630.00
903.8660, 14923.00
904.9930, 15301.00
906.1200, 15732.00
907.2460, 15741.00
908.3730, 15931.00
909.5000, 16398.00
910.6260, 16689.00
911.7520, 17008.00
912.8780, 17200.00
914.0040, 17364.00
915.1290, 17553.00
916.2550, 18023.00
917.3800, 18438.00
918.5050, 18884.00
919.6300, 19566.00
920.7550, 20157.00
921.8800, 20720.00
923.0040, 21535.00
924.1290, 22340.00
925.2530, 23144.00
926.3770, 24137.00
927.5010, 24911.00
928.6250, 25693.00
929.7480, 26449.00
930.8720, 26963.00
931.9950, 27548.00
933.1180, 27822.00
934.2410, 28131.00
935.3640, 28049.00
936.4860, 28089.00
937.6090, 27521.00
938.7310, 27353.00
939.8530, 26848.00
940.9750, 26103.00
942.0970, 25496.00
943.2180, 24824.00
944.3400, 24338.00
945.4610, 23584.00
946.5820, 23005.00
947.7030, 22389.00
948.8240, 21776.00
949.9450, 21037.00
951.0650, 20423.00
952.1860, 19975.00
953.3060, 19294.00
954.4260, 18793.00
955.5460, 18351.00
956.6650, 17983.00
957.7850, 17512.00
958.9040, 17449.00
960.0230, 17382.00
961.1420, 17283.00
962.2610, 17048.00
963.3800, 16958.00
964.4990, 17098.00
965.6170, 17287.00
966.7350, 17276.00
967.8530, 17304.00
968.9710, 17603.00
970.0890, 17813.00
971.2070, 17752.00
972.3240, 17883.00
973.4410, 18188.00
974.5580, 18414.00
975.6750, 18345.00
976.7920, 18607.00
977.9090, 18636.00
979.0250, 18952.00
980.1410, 19026.00
981.2580, 19481.00
982.3740, 19587.19
983.4890, 20224.00
984.6050, 20131.00
985.7200, 20304.00
986.8360, 21010.00
987.9510, 21394.00
989.0660, 21817.00
990.1810, 22558.00
991.2950, 23107.00
992.4100, 23900.00
993.5240, 24435.00
994.6390, 24929.00
995.7530, 25469.00
996.8660, 26038.00
997.9800, 26546.00
999.0940, 26563.00
1000.207, 27039.00
1001.320, 27305.00
1002.433, 27260.00
1003.546, 27462.00
1004.659, 27315.00
1005.772, 27466.00
1006.884, 27296.00
1007.996, 27157.00
1009.108, 27209.00
1010.220, 27059.00
1011.332, 27025.00
1012.444, 26990.00
1013.555, 26860.00
1014.666, 26860.00
1015.777, 26568.00
1016.888, 26407.00
1017.999, 26222.00
1019.110, 25900.00
1020.220, 25982.00
1021.331, 25763.00
1022.441, 25479.00
1023.551, 25379.00
1024.661, 25314.00
1025.770, 24952.00
1026.880, 25060.00
1027.989, 24873.00
1029.098, 24519.00
1030.207, 24463.00
1031.316, 23980.00
1032.425, 23673.00
1033.533, 23527.00
1034.642, 23052.00
1035.750, 22909.00
1036.858, 22419.00
1037.966, 22045.00
1039.073, 21782.00
1040.181, 21523.00
1041.288, 21124.00
1042.396, 21051.00
1043.503, 20712.00
1044.610, 20866.00
1045.716, 20761.00
1046.823, 20817.00
1047.929, 20781.00
1049.036, 20988.00
1050.142, 21272.00
1051.248, 21496.00
1052.353, 21933.00
1053.459, 22393.00
1054.564, 22974.00
1055.670, 23569.00
1056.775, 24129.00
1057.880, 25091.00
1058.985, 26054.00
1060.089, 26911.00
1061.194, 28247.00
1062.298, 29572.00
1063.402, 30871.00
1064.506, 32873.00
1065.610, 35087.00
1066.713, 37537.00
1067.817, 38848.00
1068.920, 39696.00
1070.023, 39398.00
1071.126, 38651.00
1072.229, 38455.00
1073.332, 37899.00
1074.435, 37153.00
1075.537, 36268.00
1076.639, 35113.00
1077.741, 34167.00
1078.843, 33332.00
1079.945, 32203.00
1081.046, 31185.00
1082.148, 30377.00
1083.249, 29803.00
1084.350, 29061.00
1085.451, 28863.00
1086.551, 28353.00
1087.652, 28129.00
1088.752, 27882.00
1089.853, 27669.00
1090.953, 27293.00
1092.053, 26925.00
1093.152, 26681.00
1094.252, 26341.00
1095.351, 25988.00
1096.451, 25437.00
1097.550, 24876.00
1098.649, 24088.00
1099.748, 23315.00
1100.846, 22529.00
1101.945, 21336.00
1103.043, 20512.00
1104.141, 19689.00
1105.239, 18823.00
1106.337, 18021.00
1107.434, 17182.00
1108.532, 16740.00
1109.629, 16219.00
1110.726, 15523.00
1111.823, 15482.00
1112.920, 14905.00
1114.017, 14595.00
1115.113, 14525.00
1116.210, 14231.00
1117.306, 14144.00
1118.402, 13976.00
1119.498, 13889.00
1120.593, 13797.00
1121.689, 13744.08
1122.784, 13649.84
1123.879, 13622.00
1124.974, 13516.00
1126.069, 13287.00
1127.164, 13271.00
1128.259, 12954.00
1129.353, 13095.00
1130.447, 12985.00
1131.541, 12782.00
1132.635, 12798.00
1133.729, 12751.00
1134.822, 12596.00
1135.916, 12526.00
1137.009, 12354.00
1138.102, 12439.00
1139.195, 12084.00
1140.288, 12181.00
1141.380, 12039.00
1142.473, 11853.00
1143.565, 11878.00
1144.657, 11740.00
1145.749, 11592.00
1146.841, 11466.00
1147.932, 11404.06
1149.024, 11184.00
1150.115, 11306.00
1151.206, 11307.00
1152.297, 11250.00
1153.388, 11063.00
1154.479, 10993.00
1155.569, 10922.00
1156.659, 11018.00
1157.750, 10985.00
1158.839, 10746.00
1159.929, 10689.00
1161.019, 10897.00
1162.108, 10699.00
1163.198, 10759.00
1164.287, 10699.00
1165.376, 10723.00
1166.465, 10679.00
1167.553, 10672.00
1168.642, 10701.00
1169.730, 10695.00
1170.818, 10707.00
1171.906, 10880.00
1172.994, 10776.00
1174.082, 10675.00
1175.170, 10478.00
1176.257, 10492.24
1177.344, 10610.00
1178.431, 10463.00
1179.518, 10467.00
1180.605, 10415.00
1181.691, 10392.00
1182.778, 10339.00
1183.864, 10383.00
1184.950, 10438.00
1186.036, 10331.00
1187.122, 10494.00
1188.207, 10265.00
1189.292, 10340.00
1190.378, 10275.00
1191.463, 10456.00
1192.548, 10648.00
1193.632, 10177.00
1194.717, 10169.00
1195.801, 10146.00
1196.886, 10198.00
1197.970, 10145.00
1199.054, 10176.00
1200.137, 10137.00
1201.221, 10038.00
1202.305, 9946.000
1203.388, 10013.00
1204.471, 9961.000
1205.554, 10051.00
1206.637, 9985.000
1207.719, 9873.000
1208.802, 9892.000
1209.884, 10031.00
1210.966, 9835.000
1212.048, 10003.00
1213.130, 9785.000
1214.212, 9824.000
1215.293, 9985.000
1216.374, 10013.00
1217.456, 9803.000
1218.536, 9931.000
1219.617, 9911.000
1220.698, 9917.000
1221.778, 10035.00
1222.859, 9948.000
1223.939, 9897.000
1225.019, 9938.000
1226.099, 10104.00
1227.178, 10062.00
1228.258, 10167.00
1229.337, 9982.000
1230.417, 10071.00
1231.496, 10091.00
1232.574, 10108.00
1233.653, 10122.00
1234.732, 10154.00
1235.810, 10176.00
1236.888, 10165.00
1237.966, 10254.00
1239.044, 10112.00
1240.122, 10115.00
1241.199, 10174.00
1242.277, 10100.00
1243.354, 10059.00
1244.431, 10046.00
1245.508, 10078.00
1246.585, 10159.00
1247.661, 10121.11
1248.738, 10012.00
1249.814, 10076.00
1250.890, 9955.000
1251.966, 9885.000
1253.042, 10003.00
1254.117, 10054.00
1255.193, 9988.000
1256.268, 9967.000
1257.343, 9982.000
1258.418, 10040.00
1259.493, 9932.000
1260.567, 10078.00
1261.642, 10071.00
1262.716, 10048.00
1263.790, 10174.00
1264.864, 10090.00
1265.938, 10127.00
1267.011, 10100.00
1268.085, 10066.00
1269.158, 9927.957
1270.231, 10046.48
1271.304, 10113.33
1272.377, 10131.29
1273.450, 9953.919
1274.522, 10028.78
1275.594, 10002.55
1276.666, 9972.183
1277.738, 10082.54
1278.810, 9933.578
1279.882, 10041.70
1280.953, 10047.21
1282.025, 9925.000
1283.096, 9895.000
1284.167, 10003.00
1285.238, 10060.00
1286.308, 10066.00
1287.379, 9921.000
1288.449, 9866.000
1289.519, 9968.000
1290.589, 9971.000
1291.659, 9973.000
1292.729, 10009.00
1293.798, 9926.000
1294.868, 10007.00
1295.937, 10064.00
1297.006, 9941.000
1298.075, 10056.00
1299.143, 9980.602
1300.212, 10038.00
1301.280, 9944.000
1302.348, 9936.000
1303.416, 10019.00
1304.484, 9941.000
1305.552, 9983.000
1306.620, 9884.000
1307.687, 10035.00
1308.754, 9903.000
1309.821, 10040.00
1310.888, 10015.00
1311.955, 9930.000
1313.021, 10091.00
1314.088, 9898.000
1315.154, 10031.00
1316.220, 10148.00
1317.286, 9980.000
1318.352, 9964.000
1319.417, 9847.000
1320.483, 10015.00
1321.548, 9874.000
1322.613, 9907.000
1323.678, 10000.00
1324.743, 9976.000
1325.807, 9985.000
1326.872, 9923.000
1327.936, 9925.000
1329.000, 9890.000
1330.064, 9878.849
1331.128, 9882.995
1332.191, 9875.000
1333.255, 9882.000
1334.318, 9895.000
1335.381, 9869.000
1336.444, 9815.000
1337.507, 10044.00
1338.569, 9884.000
1339.632, 9988.000
1340.694, 9917.000
1341.756, 9952.000
1342.818, 9901.000
1343.880, 9994.000
1344.941, 10032.00
1346.003, 10026.16
1347.064, 10104.00
1348.125, 10068.00
1349.186, 10093.00
1350.247, 10165.00
1351.308, 10054.00
1352.368, 10113.00
1353.428, 10218.00
1354.489, 10185.00
1355.549, 10231.00
1356.608, 10545.73
1357.668, 10388.33
1358.727, 10468.03
1359.787, 10209.00
1360.846, 10424.00
1361.905, 10219.00
1362.964, 10239.00
1364.022, 10397.00
1365.081, 10215.00
1366.139, 10257.00
1367.197, 10128.00
1368.255, 10174.00
1369.313, 10184.00
1370.371, 10157.00
1371.428, 10073.00
1372.486, 10109.00
1373.543, 10116.00
1374.600, 10216.00
1375.657, 10158.00
1376.713, 10174.00
1377.770, 10110.00
1378.826, 10154.00
1379.882, 10215.00
1380.938, 10235.00
1381.994, 10217.00
1383.050, 10134.00
1384.106, 10053.00
1385.161, 10254.00
1386.216, 10322.00
1387.271, 10177.00
1388.326, 10255.00
1389.381, 10108.00
1390.435, 10371.00
1391.490, 10399.00
1392.544, 10413.00
1393.598, 10394.00
1394.652, 10304.00
1395.705, 10282.00
1396.759, 10217.71
1397.812, 10184.09
1398.866, 10148.00
1399.919, 10150.00
1400.972, 10226.00
1402.024, 10265.00
1403.077, 10284.82
1404.129, 10302.09
1405.181, 10337.00
1406.233, 10273.00
1407.285, 10302.00
1408.337, 10249.00
1409.389, 10235.00
1410.440, 10217.00
1411.491, 10221.00
1412.542, 10195.00
1413.593, 10324.00
1414.644, 10364.00
1415.695, 10353.00
1416.745, 10359.00
1417.795, 10450.00
1418.845, 10320.00
1419.895, 10245.00
1420.945, 10422.00
1421.995, 10525.00
1423.044, 10432.00
1424.093, 10322.00
1425.142, 10504.00
1426.191, 10473.00
1427.240, 10543.00
1428.289, 10520.00
1429.337, 10376.00
1430.385, 10567.00
1431.433, 10390.00
1432.481, 10554.00
1433.529, 10491.00
1434.577, 10548.00
1435.624, 10548.00
1436.672, 10638.00
1437.719, 10630.00
1438.766, 10728.00
1439.812, 10627.00
1440.859, 10727.00
1441.905, 10755.00
1442.952, 10764.00
1443.998, 10846.00
1445.044, 10771.00
1446.090, 10712.00
1447.135, 10890.00
1448.181, 10909.00
1449.226, 10877.00
1450.271, 10896.00
1451.316, 11025.00
1452.361, 11044.00
1453.405, 11029.00
1454.450, 10937.00
1455.494, 10991.00
1456.538, 10992.00
1457.582, 10995.00
1458.626, 10951.00
1459.670, 11010.00
1460.713, 11204.00
1461.757, 11135.00
1462.800, 11153.00
1463.843, 11028.00
1464.886, 11084.00
1465.928, 11092.00
1466.971, 11057.00
1468.013, 11043.00
1469.055, 11183.00
1470.097, 11073.00
1471.139, 11129.00
1472.181, 10994.00
1473.222, 11128.00
1474.263, 11048.00
1475.305, 11091.00
1476.346, 11076.00
1477.386, 11069.33
1478.427, 11087.49
1479.468, 11090.00
1480.508, 11092.00
1481.548, 11118.00
1482.588, 11105.43
1483.628, 11180.00
1484.668, 11166.00
1485.707, 11157.00
1486.747, 11237.00
1487.786, 11083.00
1488.825, 11088.00
1489.864, 11383.00
1490.902, 11214.00
1491.941, 11396.00
1492.979, 11350.00
1494.017, 11272.00
1495.055, 11166.00
1496.093, 11274.00
1497.131, 11204.00
1498.168, 11298.00
1499.206, 11240.00
1500.243, 11327.00
1501.280, 11233.00
1502.317, 11232.00
1503.354, 11443.00
1504.390, 11452.00
1505.426, 11433.00
1506.463, 11532.00
1507.499, 11442.00
1508.535, 11522.00
1509.570, 11527.00
1510.606, 11552.00
1511.641, 11481.00
1512.676, 11323.00
1513.711, 11479.00
1514.746, 11455.00
1515.781, 11575.00
1516.816, 11502.00
1517.850, 11605.00
1518.884, 11493.00
1519.918, 11744.00
1520.952, 11644.00
1521.986, 11612.00
1523.019, 11661.00
1524.053, 11518.00
1525.086, 11643.00
1526.119, 11539.00
1527.152, 11617.00
1528.185, 11614.00
1529.217, 11628.00
1530.250, 11582.00
1531.282, 11588.00
1532.314, 11686.00
1533.346, 11682.00
1534.377, 11621.00
1535.409, 11643.00
1536.440, 11590.00
1537.472, 11688.00
1538.503, 11732.00
1539.534, 11583.00
1540.564, 11661.00
1541.595, 11628.00
1542.625, 11568.00
1543.656, 11628.00
1544.686, 11604.79
1545.716, 11716.00
1546.745, 11666.00
1547.775, 11630.00
1548.804, 11715.00
1549.834, 11782.00
1550.863, 11821.00
1551.892, 11768.00
1552.920, 11849.00
1553.949, 11908.00
1554.977, 11960.00
1556.006, 11861.00
1557.034, 11814.00
1558.062, 11735.00
1559.089, 11812.00
1560.117, 11831.00
1561.144, 11776.00
1562.172, 11860.00
1563.199, 11684.00
1564.226, 11730.00
1565.252, 11676.00
1566.279, 11928.00
1567.305, 11800.00
1568.332, 11912.00
1569.358, 11924.00
1570.384, 11863.00
1571.409, 12014.00
##END=



