##NAMES=Eudialyte
##RRUFFID=R060035
##IDEAL CHEMISTRY=Na_15_Ca_6_Fe^2+^_3_Zr^4+^_3_Si(Si_25_O_73_)(O,OH,H_2_O)_3_(Cl,OH)_2_
##LOCALITY=Chibini, Kola Peninsula, Russia
##OWNER=RRUFF
##SOURCE=University of Arizona Mineral Museum
##DESCRIPTION=Deep pink coarsely crystalline
##STATUS=The identification of this mineral has been confirmed by X-ray diffraction and chemical analysis
##URL=rruff.info/R060035
##MEASURED CHEMISTRY=(Na_14.86_K_0.14_)_Σ=15_Ca_6.00_(Fe_1.52_Mn_1.48_)_Σ=3_(Zr_2.82_Ti_0.18_)_Σ=3_(Si_0.93_Nb_0.07_)_Σ=1_(Si_25.00_O_73_)((OH)_1.01_(H_2_O)_1.99_)_Σ=3_(Cl_1.65_(OH)_0.35_)_Σ=2_
##PIN_ID=M00150
##ORIENTATION=Laser parallel to c* (0 0 1). Fiducial mark perpendicular to laser is parallel to b [0 1 0]
118.1340, 24145.00
119.3650, 24337.00
120.5960, 24447.00
121.8270, 24678.00
123.0580, 24918.00
124.2880, 24827.00
125.5190, 24757.00
126.7490, 24828.00
127.9790, 24983.00
129.2090, 25123.50
130.4390, 25285.79
131.6680, 25553.00
132.8980, 25738.00
134.1270, 25895.00
135.3560, 26291.00
136.5850, 26482.00
137.8140, 26433.00
139.0430, 26863.00
140.2710, 27146.00
141.5000, 27209.00
142.7280, 27126.00
143.9560, 27150.00
145.1840, 27073.00
146.4120, 27174.00
147.6390, 27035.00
148.8670, 27007.50
150.0940, 26763.00
151.3210, 26835.00
152.5490, 26643.00
153.7750, 26491.00
155.0020, 26401.00
156.2290, 26308.67
157.4550, 26242.60
158.6810, 26271.00
159.9080, 26209.00
161.1340, 26316.00
162.3590, 26425.00
163.5850, 26540.00
164.8110, 26597.00
166.0360, 26554.00
167.2610, 26744.00
168.4860, 26660.00
169.7110, 26753.00
170.9360, 26800.00
172.1610, 26869.00
173.3850, 26817.00
174.6100, 27207.00
175.8340, 27396.00
177.0580, 27273.00
178.2820, 27783.00
179.5050, 27802.00
180.7290, 28320.00
181.9520, 28470.00
183.1760, 28798.00
184.3990, 29288.00
185.6220, 29672.00
186.8450, 30058.00
188.0670, 30763.00
189.2900, 31236.00
190.5120, 31717.00
191.7340, 32216.00
192.9560, 32760.00
194.1780, 33382.00
195.4000, 33939.00
196.6220, 34225.00
197.8430, 35107.00
199.0640, 35251.00
200.2860, 35825.00
201.5070, 36128.00
202.7270, 36124.00
203.9480, 36358.00
205.1690, 35970.00
206.3890, 35792.00
207.6090, 35295.00
208.8290, 35364.00
210.0490, 34748.00
211.2690, 34620.00
212.4890, 34000.00
213.7080, 33469.00
214.9280, 33214.00
216.1470, 32914.00
217.3660, 32489.00
218.5850, 31991.00
219.8030, 31466.00
221.0220, 31089.00
222.2400, 30568.00
223.4590, 30313.00
224.6770, 30105.00
225.8950, 29638.00
227.1120, 29339.00
228.3300, 28899.00
229.5480, 28678.00
230.7650, 28402.00
231.9820, 28371.00
233.1990, 28129.00
234.4160, 27796.00
235.6330, 27693.00
236.8490, 27492.00
238.0660, 27362.00
239.2820, 27261.43
240.4980, 27171.43
241.7140, 27112.00
242.9300, 27090.00
244.1460, 27105.00
245.3610, 27111.13
246.5770, 27029.00
247.7920, 27143.00
249.0070, 27074.00
250.2220, 27139.00
251.4370, 27271.00
252.6510, 27210.00
253.8660, 27157.00
255.0800, 27364.00
256.2940, 27458.00
257.5080, 27607.00
258.7220, 27791.35
259.9360, 28068.00
261.1490, 28091.00
262.3630, 28079.00
263.5760, 28090.00
264.7890, 28321.00
266.0020, 28323.00
267.2150, 28334.00
268.4270, 28761.00
269.6400, 28852.00
270.8520, 29078.00
272.0640, 28899.00
273.2760, 28839.00
274.4880, 29038.00
275.7000, 29149.00
276.9120, 28894.00
278.1230, 28924.00
279.3340, 28766.00
280.5450, 28955.00
281.7560, 28906.00
282.9670, 28940.00
284.1780, 28857.00
285.3880, 28938.00
286.5980, 28930.00
287.8090, 28953.36
289.0190, 29011.00
290.2290, 29067.00
291.4380, 29126.00
292.6480, 29266.00
293.8570, 29449.00
295.0670, 29542.00
296.2760, 29566.00
297.4850, 29831.00
298.6930, 29816.00
299.9020, 30022.00
301.1110, 30097.00
302.3190, 30166.00
303.5270, 30410.00
304.7350, 30250.00
305.9430, 30351.00
307.1510, 30379.00
308.3580, 30520.00
309.5660, 30435.00
310.7730, 30400.00
311.9800, 30509.00
313.1870, 30171.00
314.3940, 30542.00
315.6010, 30213.00
316.8070, 30334.00
318.0130, 30189.00
319.2200, 30301.00
320.4260, 30071.00
321.6310, 30228.00
322.8370, 30381.00
324.0430, 30320.00
325.2480, 30303.00
326.4540, 30616.00
327.6590, 30363.00
328.8640, 30553.00
330.0680, 30559.00
331.2730, 30749.00
332.4780, 30925.00
333.6820, 30997.00
334.8860, 31098.79
336.0900, 31039.00
337.2940, 31129.00
338.4980, 31192.00
339.7010, 31062.00
340.9050, 30995.00
342.1080, 30957.20
343.3110, 30878.59
344.5140, 30820.00
345.7170, 30775.00
346.9200, 30702.00
348.1220, 30633.00
349.3240, 30745.00
350.5270, 30616.00
351.7290, 30601.00
352.9310, 30763.00
354.1320, 30872.00
355.3340, 30528.00
356.5350, 30571.00
357.7370, 30517.00
358.9380, 30374.00
360.1390, 30233.00
361.3400, 30166.46
362.5400, 30102.79
363.7410, 30009.00
364.9410, 29918.38
366.1410, 29933.00
367.3410, 29709.00
368.5410, 29602.00
369.7410, 29495.00
370.9400, 29582.00
372.1400, 29621.00
373.3390, 29535.00
374.5380, 29344.00
375.7370, 29379.00
376.9360, 29399.00
378.1350, 29190.00
379.3330, 29314.00
380.5310, 29092.00
381.7300, 28999.00
382.9280, 29537.00
384.1260, 29153.00
385.3230, 29361.00
386.5210, 29640.00
387.7180, 29715.00
388.9160, 29770.00
390.1130, 30167.00
391.3100, 30120.00
392.5060, 30382.00
393.7030, 30726.00
394.9000, 31031.00
396.0960, 30781.00
397.2920, 30911.00
398.4880, 30662.00
399.6840, 30820.00
400.8800, 30967.00
402.0750, 30776.00
403.2710, 30614.00
404.4660, 30541.00
405.6610, 30213.00
406.8560, 30186.00
408.0510, 30130.00
409.2450, 29935.00
410.4400, 29939.00
411.6340, 29737.00
412.8280, 29334.00
414.0220, 29524.00
415.2160, 29195.00
416.4100, 29228.00
417.6030, 29080.00
418.7970, 29163.00
419.9900, 28882.00
421.1830, 28912.00
422.3760, 28868.00
423.5690, 28883.00
424.7610, 28660.00
425.9540, 28518.00
427.1460, 28372.00
428.3380, 28615.00
429.5300, 28569.00
430.7220, 28758.00
431.9140, 28646.00
433.1050, 28551.00
434.2970, 29031.00
435.4880, 28717.00
436.6790, 28711.00
437.8700, 28711.00
439.0610, 29147.00
440.2510, 28977.00
441.4420, 29383.00
442.6320, 29296.00
443.8220, 29403.16
445.0120, 29541.24
446.2020, 29612.00
447.3910, 29600.00
448.5810, 29806.00
449.7700, 29655.00
450.9600, 29464.00
452.1490, 29639.00
453.3370, 29542.00
454.5260, 29825.00
455.7150, 29295.00
456.9030, 29438.00
458.0910, 29323.00
459.2800, 29112.00
460.4670, 29014.00
461.6550, 28807.00
462.8430, 28802.00
464.0300, 28907.00
465.2180, 28716.00
466.4050, 28712.00
467.5920, 28543.00
468.7790, 28655.00
469.9650, 28570.00
471.1520, 28587.00
472.3380, 28671.78
473.5250, 28582.00
474.7110, 28748.00
475.8970, 28699.00
477.0820, 28554.00
478.2680, 28615.00
479.4540, 28679.00
480.6390, 28640.00
481.8240, 28876.00
483.0090, 28926.00
484.1940, 29037.00
485.3780, 29270.00
486.5630, 29081.00
487.7470, 29081.00
488.9320, 29135.00
490.1160, 28977.00
491.3000, 29326.00
492.4830, 29398.00
493.6670, 29687.00
494.8500, 29747.00
496.0340, 29758.00
497.2170, 29695.00
498.4000, 29981.00
499.5820, 30183.00
500.7650, 30141.00
501.9480, 30407.00
503.1300, 30365.00
504.3120, 30549.00
505.4940, 30476.00
506.6760, 30805.00
507.8580, 30913.00
509.0390, 31039.00
510.2210, 31139.00
511.4020, 31243.00
512.5830, 31317.49
513.7640, 31183.00
514.9450, 31486.00
516.1250, 31294.00
517.3060, 31443.00
518.4860, 31686.00
519.6660, 31464.00
520.8460, 31716.00
522.0260, 31863.00
523.2060, 31899.00
524.3850, 32046.00
525.5650, 32043.00
526.7440, 31999.00
527.9230, 32128.00
529.1020, 32262.00
530.2810, 32431.00
531.4590, 32748.00
532.6380, 32892.00
533.8160, 33143.00
534.9940, 33738.00
536.1720, 34315.00
537.3500, 34995.00
538.5270, 35509.00
539.7050, 36182.00
540.8820, 36936.00
542.0590, 37848.00
543.2360, 38538.00
544.4130, 39174.00
545.5900, 39985.00
546.7660, 41280.00
547.9430, 42091.00
549.1190, 43153.00
550.2950, 44564.00
551.4710, 45650.00
552.6470, 47004.00
553.8220, 48268.00
554.9980, 49343.00
556.1730, 50106.00
557.3480, 50947.00
558.5230, 50933.00
559.6980, 51312.00
560.8730, 51831.00
562.0470, 52281.00
563.2220, 52621.00
564.3960, 52751.00
565.5700, 52477.00
566.7440, 51599.00
567.9170, 50268.00
569.0910, 48423.00
570.2640, 46081.00
571.4380, 44042.00
572.6110, 41803.00
573.7840, 40438.00
574.9570, 38504.00
576.1290, 37203.00
577.3020, 36312.00
578.4740, 35258.00
579.6460, 34800.00
580.8180, 34326.00
581.9900, 33840.00
583.1620, 33657.00
584.3330, 33504.00
585.5040, 33315.00
586.6760, 33097.00
587.8470, 33305.00
589.0180, 33211.00
590.1880, 33683.00
591.3590, 33730.00
592.5290, 33804.00
593.7000, 34192.00
594.8700, 34504.00
596.0400, 34634.00
597.2090, 34880.00
598.3790, 35143.00
599.5490, 35425.00
600.7180, 35620.44
601.8870, 35825.53
603.0560, 35994.00
604.2250, 36124.00
605.3940, 36250.00
606.5620, 36308.00
607.7300, 36346.00
608.8990, 36304.00
610.0670, 36107.00
611.2350, 35977.00
612.4020, 35652.00
613.5700, 35385.00
614.7370, 35277.00
615.9050, 35139.00
617.0720, 34901.00
618.2390, 34630.00
619.4060, 34615.00
620.5720, 34518.00
621.7390, 34247.00
622.9050, 34468.00
624.0710, 34290.00
625.2370, 34345.00
626.4030, 34323.00
627.5690, 34355.00
628.7340, 34346.00
629.9000, 34124.00
631.0650, 34197.00
632.2300, 34187.00
633.3950, 33954.04
634.5600, 33341.00
635.7240, 33581.00
636.8890, 33240.00
638.0530, 33117.00
639.2170, 33034.00
640.3810, 32914.00
641.5450, 32839.00
642.7080, 33017.00
643.8720, 32634.00
645.0350, 32662.00
646.1980, 32780.00
647.3610, 32626.00
648.5240, 32717.00
649.6870, 32561.00
650.8490, 32922.00
652.0120, 32792.00
653.1740, 32970.00
654.3360, 33043.00
655.4980, 32936.00
656.6600, 33139.00
657.8210, 33389.00
658.9830, 33441.00
660.1440, 33554.00
661.3050, 33464.00
662.4660, 33686.00
663.6270, 33734.00
664.7870, 33944.00
665.9480, 34282.00
667.1080, 34222.00
668.2680, 34424.79
669.4280, 34331.00
670.5880, 34610.00
671.7480, 34680.00
672.9070, 34821.00
674.0670, 34762.00
675.2260, 35237.00
676.3850, 35362.00
677.5440, 35809.00
678.7030, 35731.00
679.8610, 36201.00
681.0200, 36527.00
682.1780, 36874.00
683.3360, 37318.72
684.4940, 37812.00
685.6520, 38178.00
686.8090, 38504.00
687.9670, 38969.00
689.1240, 39135.00
690.2810, 39797.00
691.4380, 40230.00
692.5950, 40780.00
693.7520, 41468.00
694.9080, 42170.00
696.0650, 42791.00
697.2210, 43260.00
698.3770, 43779.00
699.5330, 44487.00
700.6880, 44922.00
701.8440, 45250.00
702.9990, 45680.00
704.1550, 45929.00
705.3100, 45880.00
706.4650, 45801.00
707.6190, 45543.10
708.7740, 45021.00
709.9290, 44549.00
711.0830, 43753.00
712.2370, 42784.00
713.3910, 41971.00
714.5450, 41053.00
715.6980, 39819.00
716.8520, 39354.00
718.0050, 38612.00
719.1580, 38084.00
720.3110, 37680.00
721.4640, 37074.00
722.6170, 36741.00
723.7700, 36726.00
724.9220, 36177.00
726.0740, 36307.00
727.2260, 36564.00
728.3780, 36395.00
729.5300, 36672.00
730.6810, 36578.00
731.8330, 36852.00
732.9840, 36899.00
734.1350, 37256.00
735.2860, 37667.00
736.4370, 37798.00
737.5880, 38249.00
738.7380, 38554.00
739.8880, 39107.00
741.0390, 39242.00
742.1890, 39244.00
743.3380, 39767.00
744.4880, 39682.00
745.6380, 39761.00
746.7870, 39766.00
747.9360, 39709.00
749.0850, 39421.00
750.2340, 39512.00
751.3830, 39184.00
752.5310, 39083.00
753.6800, 39234.00
754.8280, 38688.00
755.9760, 38820.00
757.1240, 38435.00
758.2720, 38418.00
759.4190, 38764.00
760.5670, 38379.00
761.7140, 38400.00
762.8610, 38590.00
764.0080, 38315.00
765.1550, 38024.00
766.3020, 37997.00
767.4480, 38015.00
768.5950, 37975.00
769.7410, 37862.00
770.8870, 37891.00
772.0330, 37822.00
773.1780, 38012.00
774.3240, 37847.00
775.4690, 37959.00
776.6140, 38080.00
777.7590, 37947.00
778.9040, 38081.00
780.0490, 38181.00
781.1940, 38072.00
782.3380, 37874.00
783.4820, 37703.00
784.6260, 37551.00
785.7700, 37276.00
786.9140, 37216.00
788.0580, 37125.00
789.2010, 36904.00
790.3450, 36402.00
791.4880, 36391.00
792.6310, 36253.00
793.7730, 35972.00
794.9160, 35918.00
796.0590, 35540.00
797.2010, 35672.00
798.3430, 35464.00
799.4850, 35359.00
800.6270, 35376.00
801.7690, 35395.00
802.9100, 35403.00
804.0520, 35461.00
805.1930, 35548.00
806.3340, 35610.00
807.4750, 35598.98
808.6160, 35533.41
809.7560, 35564.00
810.8970, 35267.00
812.0370, 35250.00
813.1770, 35056.00
814.3170, 35596.00
815.4570, 35587.00
816.5960, 35456.00
817.7360, 35611.00
818.8750, 35283.00
820.0140, 35586.00
821.1530, 35531.00
822.2920, 35734.00
823.4310, 35727.00
824.5690, 35655.00
825.7070, 35492.00
826.8460, 35795.00
827.9840, 35727.00
829.1220, 35969.00
830.2590, 35988.00
831.3970, 35867.00
832.5340, 35811.00
833.6710, 35640.00
834.8080, 35711.73
835.9450, 35923.00
837.0820, 35904.00
838.2190, 35890.00
839.3550, 36104.00
840.4910, 36157.00
841.6270, 36073.00
842.7630, 36346.00
843.8990, 36287.00
845.0350, 36466.00
846.1700, 36508.00
847.3060, 36495.00
848.4410, 36354.00
849.5760, 36563.00
850.7100, 36242.00
851.8450, 36499.00
852.9800, 36466.00
854.1140, 36699.00
855.2480, 36552.00
856.3820, 36797.00
857.5160, 37069.00
858.6500, 36947.00
859.7830, 36832.00
860.9170, 37004.00
862.0500, 37234.00
863.1830, 37177.00
864.3160, 37330.00
865.4480, 37140.00
866.5810, 37495.00
867.7130, 37771.00
868.8460, 37595.00
869.9780, 37897.00
871.1100, 38152.00
872.2410, 37956.00
873.3730, 38295.00
874.5050, 38148.00
875.6360, 38314.00
876.7670, 38421.00
877.8980, 38532.00
879.0290, 38367.00
880.1590, 38849.00
881.2900, 38613.00
882.4200, 38489.00
883.5500, 38939.00
884.6800, 38685.00
885.8100, 38711.00
886.9400, 39257.00
888.0690, 39404.00
889.1990, 39483.00
890.3280, 39588.00
891.4570, 39836.00
892.5860, 40011.66
893.7140, 40358.00
894.8430, 40536.00
895.9710, 40868.00
897.1000, 41205.82
898.2280, 41426.27
899.3560, 41783.00
900.4830, 41887.00
901.6110, 42158.00
902.7380, 42263.00
903.8660, 42588.00
904.9930, 42960.00
906.1200, 43431.00
907.2460, 43687.00
908.3730, 43830.00
909.5000, 44185.00
910.6260, 44550.00
911.7520, 45155.00
912.8780, 45269.00
914.0040, 45583.00
915.1290, 45491.00
916.2550, 46090.00
917.3800, 46281.00
918.5050, 46324.00
919.6300, 46885.00
920.7550, 47019.00
921.8800, 46618.00
923.0040, 46906.00
924.1290, 46887.00
925.2530, 46885.00
926.3770, 46832.00
927.5010, 46470.00
928.6250, 46325.00
929.7480, 45905.00
930.8720, 45822.00
931.9950, 45393.00
933.1180, 45136.00
934.2410, 44951.00
935.3640, 44951.00
936.4860, 44652.00
937.6090, 44477.00
938.7310, 44554.00
939.8530, 44267.00
940.9750, 44000.00
942.0970, 44140.00
943.2180, 44126.00
944.3400, 44210.00
945.4610, 44990.00
946.5820, 44901.00
947.7030, 45260.00
948.8240, 45009.00
949.9450, 44038.00
951.0650, 43895.00
952.1860, 43932.00
953.3060, 43886.00
954.4260, 43675.00
955.5460, 43650.00
956.6650, 43600.00
957.7850, 43369.00
958.9040, 43523.00
960.0230, 43092.00
961.1420, 43470.00
962.2610, 43478.00
963.3800, 43360.00
964.4990, 43607.00
965.6170, 43335.00
966.7350, 43395.00
967.8530, 43641.00
968.9710, 43606.00
970.0890, 43745.50
971.2070, 43677.00
972.3240, 43847.00
973.4410, 43847.00
974.5580, 43748.00
975.6750, 43985.00
976.7920, 43990.00
977.9090, 44478.00
979.0250, 44008.00
980.1410, 44530.00
981.2580, 44869.00
982.3740, 44736.00
983.4890, 45100.00
984.6050, 45409.00
985.7200, 45333.00
986.8360, 45303.00
987.9510, 45938.00
989.0660, 45976.00
990.1810, 46198.00
991.2950, 46262.00
992.4100, 46537.00
993.5240, 46550.00
994.6390, 46738.00
995.7530, 46804.00
996.8660, 46704.00
997.9800, 46998.00
999.0940, 46646.00
1000.207, 46555.00
1001.320, 46513.00
1002.433, 46097.00
1003.546, 46129.00
1004.659, 45898.00
1005.772, 45773.00
1006.884, 45633.00
1007.996, 45582.00
1009.108, 45415.00
1010.220, 45335.36
1011.332, 45275.09
1012.444, 45146.00
1013.555, 45155.00
1014.666, 45077.00
1015.777, 44985.00
1016.888, 45190.00
1017.999, 45144.00
1019.110, 45066.00
1020.220, 44880.00
1021.331, 44825.00
1022.441, 44989.00
1023.551, 44980.00
1024.661, 44848.00
1025.770, 45202.00
1026.880, 45264.00
1027.989, 45027.00
1029.098, 45385.00
1030.207, 45381.00
1031.316, 44939.00
1032.425, 45402.00
1033.533, 45368.00
1034.642, 45562.00
1035.750, 45348.00
1036.858, 45668.00
1037.966, 45665.00
1039.073, 45447.00
1040.181, 45699.00
1041.288, 45734.00
1042.396, 45589.00
1043.503, 45856.00
1044.610, 45741.00
1045.716, 46026.00
1046.823, 45850.00
1047.929, 45814.00
1049.036, 45946.00
1050.142, 45984.00
1051.248, 45963.00
1052.353, 46008.00
1053.459, 46100.00
1054.564, 46147.00
1055.670, 46416.00
1056.775, 46879.00
1057.880, 46884.00
1058.985, 47095.00
1060.089, 47160.00
1061.194, 47457.00
1062.298, 47970.00
1063.402, 47841.00
1064.506, 48256.00
1065.610, 48414.09
1066.713, 48531.27
1067.817, 48805.00
1068.920, 48914.00
1070.023, 49162.00
1071.126, 49470.00
1072.229, 49705.00
1073.332, 49759.00
1074.435, 49801.00
1075.537, 50197.00
1076.639, 50120.00
1077.741, 50258.00
1078.843, 50666.00
1079.945, 50947.00
1081.046, 51153.00
1082.148, 51670.00
1083.249, 51882.00
1084.350, 52132.00
1085.451, 52483.00
1086.551, 52733.00
1087.652, 52908.00
1088.752, 53701.00
1089.853, 53356.00
1090.953, 53300.00
1092.053, 53638.00
1093.152, 53212.00
1094.252, 53351.00
1095.351, 53282.00
1096.451, 53213.00
1097.550, 52822.05
1098.649, 52387.00
1099.748, 51796.00
1100.846, 51384.00
1101.945, 50827.00
1103.043, 50219.00
1104.141, 49917.00
1105.239, 49522.00
1106.337, 49269.00
1107.434, 48699.00
1108.532, 48603.00
1109.629, 48459.00
1110.726, 48474.00
1111.823, 48334.00
1112.920, 47972.00
1114.017, 47827.00
1115.113, 47910.00
1116.210, 47586.00
1117.306, 47782.00
1118.402, 47612.00
1119.498, 47584.00
1120.593, 47472.00
1121.689, 47696.00
1122.784, 47712.00
1123.879, 47417.00
1124.974, 47755.00
1126.069, 47584.00
1127.164, 48061.00
1128.259, 47790.00
1129.353, 47587.00
1130.447, 47650.00
1131.541, 47436.00
1132.635, 47490.00
1133.729, 47483.00
1134.822, 47483.00
1135.916, 47650.00
1137.009, 47324.00
1138.102, 47161.00
1139.195, 47343.00
1140.288, 47338.00
1141.380, 47353.00
1142.473, 46961.00
1143.565, 46843.00
1144.657, 46458.00
1145.749, 46522.00
1146.841, 46597.00
1147.932, 46238.00
1149.024, 46537.00
1150.115, 46313.00
1151.206, 46477.00
1152.297, 46646.00
1153.388, 46473.00
1154.479, 46739.00
1155.569, 46750.00
1156.659, 46577.00
1157.750, 46830.00
1158.839, 46698.00
1159.929, 47134.00
1161.019, 46907.00
1162.108, 46605.00
1163.198, 46898.00
1164.287, 47050.00
1165.376, 46953.00
1166.465, 47076.00
1167.553, 47016.00
1168.642, 46732.00
1169.730, 46768.00
1170.818, 46964.00
1171.906, 46819.00
1172.994, 47110.00
1174.082, 46979.00
1175.170, 47130.00
1176.257, 47191.00
1177.344, 47229.00
1178.431, 47143.00
1179.518, 47011.00
1180.605, 46882.00
1181.691, 46854.24
1182.778, 46835.02
1183.864, 46853.00
1184.950, 46967.00
1186.036, 47099.00
1187.122, 47314.00
1188.207, 47184.00
1189.292, 47517.00
1190.378, 47427.00
1191.463, 47418.00
1192.548, 47456.00
1193.632, 47370.00
1194.717, 47577.00
1195.801, 47520.00
1196.886, 47261.00
1197.970, 47370.00
1199.054, 47262.00
1200.137, 47718.00
1201.221, 47460.00
1202.305, 47852.00
1203.388, 47733.00
1204.471, 47638.00
1205.554, 47586.00
1206.637, 47739.00
1207.719, 47790.00
1208.802, 47697.00
1209.884, 48183.00
1210.966, 48168.00
1212.048, 47965.00
1213.130, 47785.00
1214.212, 47929.00
1215.293, 47937.00
1216.374, 48256.00
1217.456, 48238.00
1218.536, 48363.00
1219.617, 48564.00
1220.698, 48603.00
1221.778, 48581.00
1222.859, 48608.00
1223.939, 48599.00
1225.019, 48617.00
1226.099, 48697.00
1227.178, 48640.00
1228.258, 48756.00
1229.337, 48761.00
1230.417, 48869.00
1231.496, 48798.00
1232.574, 48875.00
1233.653, 48883.00
1234.732, 48921.00
1235.810, 49124.00
1236.888, 49096.00
1237.966, 48803.00
1239.044, 49003.00
1240.122, 48886.00
1241.199, 48875.00
1242.277, 49168.00
1243.354, 49013.00
1244.431, 49242.00
1245.508, 49050.00
1246.585, 49522.00
1247.661, 49613.00
1248.738, 49591.00
1249.814, 49490.00
1250.890, 49272.00
1251.966, 49403.00
1253.042, 49509.00
1254.117, 49716.00
1255.193, 49444.00
1256.268, 49763.00
1257.343, 49640.00
1258.418, 49876.00
1259.493, 49971.00
1260.567, 49768.00
1261.642, 50100.00
1262.716, 50020.00
1263.790, 50279.00
1264.864, 50347.00
1265.938, 50122.00
1267.011, 50115.00
1268.085, 50158.00
1269.158, 50082.00
1270.231, 50009.00
1271.304, 49826.00
1272.377, 50247.00
1273.450, 50468.00
1274.522, 50282.00
1275.594, 50191.00
1276.666, 50178.00
1277.738, 50267.00
1278.810, 50295.00
1279.882, 50438.00
1280.953, 50371.00
1282.025, 50289.00
1283.096, 50506.00
1284.167, 50388.00
1285.238, 50426.00
1286.308, 50615.00
1287.379, 50656.00
1288.449, 50354.00
1289.519, 50428.00
1290.589, 50530.00
1291.659, 50651.00
1292.729, 50885.00
1293.798, 50895.00
1294.868, 50964.00
1295.937, 51020.00
1297.006, 50905.00
1298.075, 51135.00
1299.143, 51217.00
1300.212, 51205.00
1301.280, 51569.00
1302.348, 51456.00
1303.416, 51541.00
1304.484, 51405.00
1305.552, 51445.00
1306.620, 51517.00
1307.687, 51808.00
1308.754, 51461.00
1309.821, 51771.00
1310.888, 51860.00
1311.955, 51775.00
1313.021, 52023.00
1314.088, 52097.00
1315.154, 52249.00
1316.220, 52181.00
1317.286, 52094.00
1318.352, 52208.00
1319.417, 52281.00
1320.483, 52411.00
1321.548, 52461.18
1322.613, 52595.00
1323.678, 52573.00
1324.743, 52665.74
1325.807, 52523.00
1326.872, 52763.00
1327.936, 52673.00
1329.000, 52670.00
1330.064, 53065.00
1331.128, 52771.00
1332.191, 52825.00
1333.255, 53235.00
1334.318, 52732.00
1335.381, 52893.00
1336.444, 53097.00
1337.507, 52874.00
1338.569, 53070.00
1339.632, 53284.00
1340.694, 53499.00
1341.756, 53395.00
1342.818, 53353.00
1343.880, 53458.00
1344.941, 53250.00
1346.003, 53740.00
1347.064, 53450.00
1348.125, 53847.00
1349.186, 53709.00
1350.247, 54024.00
1351.308, 53737.00
1352.368, 54016.00
1353.428, 53911.00
1354.489, 53734.00
1355.549, 54187.00
1356.608, 53846.00
1357.668, 54120.00
1358.727, 53898.00
1359.787, 54275.00
1360.846, 54287.00
1361.905, 54107.00
1362.964, 54336.00
1364.022, 54278.00
1365.081, 54562.00
1366.139, 54626.00
1367.197, 54569.00
1368.255, 54645.00
1369.313, 54622.00
1370.371, 54750.00
1371.428, 54712.00
1372.486, 54937.00
1373.543, 54738.00
1374.600, 54717.00
1375.657, 55076.00
1376.713, 54986.00
1377.770, 55185.00
1378.826, 55233.00
1379.882, 55034.00
1380.938, 55097.00
1381.994, 55428.00
1383.050, 54944.00
1384.106, 55590.00
1385.161, 55488.00
1386.216, 55460.00
1387.271, 55410.00
1388.326, 55455.00
1389.381, 55279.00
1390.435, 55875.00
1391.490, 56012.00
1392.544, 55588.00
1393.598, 55882.00
1394.652, 55612.00
1395.705, 56078.00
1396.759, 56076.00
1397.812, 56038.00
1398.866, 56123.00
1399.919, 56289.00
1400.972, 56237.00
1402.024, 56324.00
1403.077, 56218.00
1404.129, 56228.00
1405.181, 56387.00
1406.233, 56584.00
1407.285, 56415.00
1408.337, 56862.00
1409.389, 57041.00
1410.440, 56782.00
1411.491, 56920.00
1412.542, 56572.00
1413.593, 56867.00
1414.644, 56799.00
1415.695, 56792.00
1416.745, 56926.00
1417.795, 57221.00
1418.845, 57175.00
1419.895, 57407.00
1420.945, 57317.00
1421.995, 57509.00
1423.044, 57470.00
1424.093, 57360.00
1425.142, 57698.00
1426.191, 57418.00
1427.240, 57706.00
1428.289, 57656.00
1429.337, 57861.00
1430.385, 57990.00
1431.433, 57985.00
1432.481, 58145.00
1433.529, 57881.00
1434.577, 58405.00
1435.624, 58206.00
1436.672, 58399.00
1437.719, 58582.00
1438.766, 58549.00
1439.812, 58380.00
1440.859, 58494.00
1441.905, 58383.00
1442.952, 58724.00
1443.998, 59134.00
1445.044, 59043.00
1446.090, 59039.00
1447.135, 58998.00
1448.181, 59174.00
1449.226, 59249.00
1450.271, 59215.00
1451.316, 59292.00
1452.361, 59236.00
1453.405, 59287.00
1454.450, 59340.00
1455.494, 59365.60
1456.538, 59631.00
1457.582, 59531.00
1458.626, 59661.00
1459.670, 59852.00
1460.713, 60154.00
1461.757, 59740.00
1462.800, 60272.00
1463.843, 59976.00
1464.886, 60085.00
1465.928, 59951.00
1466.971, 60130.00
1468.013, 59918.00
1469.055, 60327.00
1470.097, 60183.00
1471.139, 60174.00
1472.181, 60624.00
1473.222, 60584.00
1474.263, 60615.00
1475.305, 60520.00
1476.346, 60596.00
1477.386, 60922.00
1478.427, 60676.00
1479.468, 60727.00
1480.508, 60895.00
1481.548, 60671.00
1482.588, 61061.00
1483.628, 60943.00
1484.668, 61113.00
1485.707, 61149.00
1486.747, 61167.00
1487.786, 61445.00
1488.825, 61497.00
1489.864, 61742.00
1490.902, 61723.00
1491.941, 61759.63
1492.979, 61884.00
1494.017, 61696.00
1495.055, 61806.00
1496.093, 61748.00
1497.131, 61493.00
1498.168, 62047.00
1499.206, 61813.00
1500.243, 62069.00
1501.280, 62067.00
1502.317, 62227.00
1503.354, 62500.00
1504.390, 62357.00
1505.426, 62555.00
1506.463, 62518.00
1507.499, 62286.00
1508.535, 62664.00
1509.570, 62626.00
1510.606, 62645.00
1511.641, 62767.00
1512.676, 62804.00
1513.711, 62881.92
1514.746, 63075.00
1515.781, 62995.00
1516.816, 62959.00
1517.850, 62926.00
1518.884, 63206.00
1519.918, 63109.00
1520.952, 63210.00
1521.986, 63565.00
1523.019, 63372.00
1524.053, 63319.00
1525.086, 63583.00
1526.119, 63390.00
1527.152, 63713.00
1528.185, 63693.00
1529.217, 63881.00
1530.250, 63877.00
1531.282, 63927.00
1532.314, 64012.91
1533.346, 64054.61
1534.377, 64144.00
1535.409, 64162.00
1536.440, 64277.00
1537.472, 64256.00
1538.503, 64477.00
1539.534, 64255.00
1540.564, 64644.00
1541.595, 64928.00
1542.625, 64350.00
1543.656, 64771.00
1544.686, 64639.00
1545.716, 64841.00
1546.745, 64745.00
1547.775, 64868.00
1548.804, 64793.00
1549.834, 64977.00
1550.863, 64968.00
1551.892, 65449.00
1552.920, 65216.00
1553.949, 65422.00
1554.977, 65274.00
1556.006, 65329.00
1557.034, 65294.00
1558.062, 65263.00
1559.089, 65344.00
1560.117, 65476.00
1561.144, 65444.00
1562.172, 65510.65
1563.199, 65535.00
1564.226, 65535.00
1565.252, 65535.00
1566.279, 65535.00
1567.305, 65535.00
1568.332, 65535.00
1569.358, 65535.00
1570.384, 65535.00
1571.409, 65535.00
1572.435, 65535.00
##END=



