##NAMES=Eudialyte
##RRUFFID=R060206
##IDEAL CHEMISTRY=Na_15_Ca_6_Fe^2+^_3_Zr^4+^_3_Si(Si_25_O_73_)(O,OH,H_2_O)_3_(Cl,OH)_2_
##LOCALITY=Desourdy Quarry, Mont Saint-Hilaire, Rouville County, Quebec, Canada
##OWNER=RRUFF
##SOURCE=Royal Ontario Museum
##DESCRIPTION=Yellowish-brown gemmy fragment
##STATUS=The identification of this mineral is confirmed by single-crystal X-ray diffraction and chemical analysis.
##URL=rruff.info/R060206
##MEASURED CHEMISTRY=(Na_13.12_Ca_1.62_K_0.26_)_Σ=15_(Ca_4.47_Mn_1.00_Ce_0.32_La_0.21_)_Σ=6_(Fe_2.91_Mn_0.09_)_Σ=3_Zr_3.00_(Si_0.85_Nb_0.15_)_Σ=1_Si_25.00_O_73_((OH)_2.70_O_0.30_)_Σ=3_(Cl_1.20_(OH)_0.80_)_Σ=2_
##PIN_ID=M00448
##ORIENTATION=Laser parallel to -a* (-1 0 0). Fiducial mark perpendicular to laser is parallel to c [0 0 1]
121.8270, 22798.00
123.0580, 23069.00
124.2880, 23230.00
125.5190, 23131.00
126.7490, 23481.00
127.9790, 23956.00
129.2090, 24521.00
130.4390, 25081.00
131.6680, 25676.00
132.8980, 26172.00
134.1270, 26784.94
135.3560, 27291.00
136.5850, 27980.00
137.8140, 28669.00
139.0430, 29306.00
140.2710, 29503.00
141.5000, 29482.00
142.7280, 29270.00
143.9560, 29081.00
145.1840, 28914.00
146.4120, 28503.00
147.6390, 27642.00
148.8670, 25983.00
150.0940, 25176.00
151.3210, 24307.00
152.5490, 23389.00
153.7750, 22609.00
155.0020, 21970.00
156.2290, 21453.00
157.4550, 21046.00
158.6810, 20750.00
159.9080, 20591.00
161.1340, 20500.00
162.3590, 20465.00
163.5850, 20838.00
164.8110, 20613.00
166.0360, 20534.00
167.2610, 20186.00
168.4860, 20105.00
169.7110, 20216.00
170.9360, 20320.00
172.1610, 20293.00
173.3850, 20266.00
174.6100, 20336.00
175.8340, 20347.00
177.0580, 20515.00
178.2820, 20884.00
179.5050, 21228.00
180.7290, 21428.00
181.9520, 21643.00
183.1760, 21954.00
184.3990, 22449.00
185.6220, 22980.00
186.8450, 23491.00
188.0670, 24016.00
189.2900, 24626.00
190.5120, 25216.00
191.7340, 25823.00
192.9560, 26308.00
194.1780, 26865.63
195.4000, 27365.87
196.6220, 27809.00
197.8430, 28316.00
199.0640, 28615.00
200.2860, 29017.00
201.5070, 29147.00
202.7270, 29072.00
203.9480, 28243.00
205.1690, 27421.00
206.3890, 26792.00
207.6090, 26251.00
208.8290, 25859.00
210.0490, 24983.00
211.2690, 24804.00
212.4890, 24320.00
213.7080, 23538.00
214.9280, 23379.00
216.1470, 22681.00
217.3660, 21938.00
218.5850, 21517.00
219.8030, 21229.00
221.0220, 21041.00
222.2400, 20587.00
223.4590, 20476.00
224.6770, 19959.00
225.8950, 19514.00
227.1120, 19074.00
228.3300, 18879.00
229.5480, 18721.00
230.7650, 18400.00
231.9820, 18415.00
233.1990, 18123.00
234.4160, 17819.00
235.6330, 18180.00
236.8490, 17905.00
238.0660, 18059.00
239.2820, 18133.00
240.4980, 18049.00
241.7140, 18118.00
242.9300, 17825.00
244.1460, 17473.00
245.3610, 17306.00
246.5770, 17420.00
247.7920, 17051.00
249.0070, 17256.00
250.2220, 17771.00
251.4370, 17836.00
252.6510, 17834.00
253.8660, 17631.00
255.0800, 17806.00
256.2940, 17818.00
257.5080, 18192.00
258.7220, 18410.44
259.9360, 18412.89
261.1490, 18870.00
262.3630, 18561.00
263.5760, 18333.00
264.7890, 18624.00
266.0020, 18395.00
267.2150, 18496.00
268.4270, 18792.00
269.6400, 18937.00
270.8520, 19149.00
272.0640, 19260.00
273.2760, 19458.00
274.4880, 19574.00
275.7000, 19784.00
276.9120, 19908.00
278.1230, 19901.00
279.3340, 19983.00
280.5450, 20191.00
281.7560, 20103.00
282.9670, 20557.00
284.1780, 20716.00
285.3880, 20801.00
286.5980, 20786.00
287.8090, 20777.00
289.0190, 20780.00
290.2290, 21010.00
291.4380, 20967.00
292.6480, 20870.00
293.8570, 21033.00
295.0670, 20877.00
296.2760, 20817.00
297.4850, 20593.00
298.6930, 20823.00
299.9020, 21034.00
301.1110, 20801.00
302.3190, 21066.00
303.5270, 21213.00
304.7350, 20876.00
305.9430, 21119.00
307.1510, 21058.00
308.3580, 20969.00
309.5660, 20699.00
310.7730, 20668.00
311.9800, 20410.00
313.1870, 20318.00
314.3940, 20067.00
315.6010, 20106.00
316.8070, 20092.00
318.0130, 19932.00
319.2200, 20043.00
320.4260, 19932.00
321.6310, 19897.00
322.8370, 19791.00
324.0430, 19840.00
325.2480, 19890.00
326.4540, 20336.00
327.6590, 20363.00
328.8640, 20971.00
330.0680, 21073.00
331.2730, 21678.00
332.4780, 21874.00
333.6820, 21817.00
334.8860, 22004.00
336.0900, 22253.00
337.2940, 22150.00
338.4980, 22358.00
339.7010, 22450.00
340.9050, 22474.00
342.1080, 22242.00
343.3110, 22595.00
344.5140, 22530.00
345.7170, 22647.00
346.9200, 22735.00
348.1220, 22475.00
349.3240, 22737.00
350.5270, 22729.00
351.7290, 22693.00
352.9310, 22517.00
354.1320, 22538.00
355.3340, 22341.00
356.5350, 22298.00
357.7370, 22002.00
358.9380, 21822.00
360.1390, 21680.00
361.3400, 21427.00
362.5400, 21004.00
363.7410, 20668.00
364.9410, 20441.00
366.1410, 20164.63
367.3410, 19973.21
368.5410, 19793.00
369.7410, 19645.00
370.9400, 19522.00
372.1400, 19382.00
373.3390, 19316.46
374.5380, 19331.00
375.7370, 19236.00
376.9360, 19319.00
378.1350, 19359.00
379.3330, 19465.31
380.5310, 19725.00
381.7300, 19851.00
382.9280, 20184.00
384.1260, 20564.00
385.3230, 20730.00
386.5210, 20957.00
387.7180, 21483.00
388.9160, 21359.00
390.1130, 21671.00
391.3100, 21692.00
392.5060, 21489.00
393.7030, 21313.00
394.9000, 21114.00
396.0960, 20638.70
397.2920, 20506.00
398.4880, 19657.00
399.6840, 19373.00
400.8800, 18995.00
402.0750, 18399.00
403.2710, 18096.00
404.4660, 17858.00
405.6610, 17647.00
406.8560, 17268.00
408.0510, 16931.00
409.2450, 16624.19
410.4400, 16287.80
411.6340, 15994.00
412.8280, 15709.00
414.0220, 15497.00
415.2160, 15309.00
416.4100, 15057.00
417.6030, 14874.00
418.7970, 14613.00
419.9900, 14508.00
421.1830, 14121.00
422.3760, 14021.00
423.5690, 13854.00
424.7610, 13531.00
425.9540, 13459.00
427.1460, 13251.00
428.3380, 13045.00
429.5300, 12931.00
430.7220, 12825.00
431.9140, 12681.00
433.1050, 12661.47
434.2970, 12707.00
435.4880, 12615.00
436.6790, 12633.00
437.8700, 12599.00
439.0610, 12805.00
440.2510, 12811.00
441.4420, 12772.00
442.6320, 12744.00
443.8220, 12721.00
445.0120, 12595.00
446.2020, 12578.00
447.3910, 12531.00
448.5810, 12461.00
449.7700, 12491.00
450.9600, 12296.00
452.1490, 12352.00
453.3370, 12282.00
454.5260, 12304.00
455.7150, 12267.00
456.9030, 12286.00
458.0910, 12247.00
459.2800, 12364.00
460.4670, 12236.00
461.6550, 12229.00
462.8430, 12371.00
464.0300, 12227.00
465.2180, 12288.00
466.4050, 12210.00
467.5920, 12325.00
468.7790, 12194.00
469.9650, 12198.00
471.1520, 12228.00
472.3380, 12061.00
473.5250, 12072.00
474.7110, 11990.00
475.8970, 12054.00
477.0820, 11974.00
478.2680, 12057.00
479.4540, 12054.00
480.6390, 12047.00
481.8240, 11936.00
483.0090, 12167.00
484.1940, 12157.00
485.3780, 12372.00
486.5630, 12442.00
487.7470, 12506.00
488.9320, 12616.00
490.1160, 12626.00
491.3000, 12697.00
492.4830, 12850.00
493.6670, 12838.00
494.8500, 13155.00
496.0340, 13153.00
497.2170, 13399.00
498.4000, 13660.00
499.5820, 13788.00
500.7650, 13978.00
501.9480, 14289.00
503.1300, 14501.00
504.3120, 14597.00
505.4940, 14582.00
506.6760, 14737.00
507.8580, 14765.00
509.0390, 14773.00
510.2210, 14815.00
511.4020, 14877.00
512.5830, 15000.00
513.7640, 15008.00
514.9450, 15110.00
516.1250, 15206.13
517.3060, 15258.00
518.4860, 15457.00
519.6660, 15545.00
520.8460, 15762.00
522.0260, 15876.00
523.2060, 16247.00
524.3850, 16484.00
525.5650, 16604.00
526.7440, 16653.00
527.9230, 16854.00
529.1020, 16940.00
530.2810, 17031.00
531.4590, 17260.00
532.6380, 17213.00
533.8160, 17384.00
534.9940, 17475.00
536.1720, 17493.00
537.3500, 17763.00
538.5270, 17940.00
539.7050, 18343.00
540.8820, 18618.00
542.0590, 18997.00
543.2360, 19543.00
544.4130, 19946.00
545.5900, 20757.18
546.7660, 21611.21
547.9430, 22584.00
549.1190, 23838.00
550.2950, 25068.00
551.4710, 26623.00
552.6470, 28247.00
553.8220, 29941.00
554.9980, 31787.00
556.1730, 33379.00
557.3480, 34840.00
558.5230, 36047.00
559.6980, 37074.00
560.8730, 38787.00
562.0470, 40421.00
563.2220, 41359.00
564.3960, 43111.00
565.5700, 44540.00
566.7440, 45432.00
567.9170, 44640.00
569.0910, 43096.00
570.2640, 39509.00
571.4380, 35429.00
572.6110, 32255.00
573.7840, 28532.00
574.9570, 25629.00
576.1290, 23092.00
577.3020, 21359.00
578.4740, 19919.00
579.6460, 18646.00
580.8180, 17924.00
581.9900, 16983.00
583.1620, 16477.00
584.3330, 15814.00
585.5040, 15779.00
586.6760, 15619.00
587.8470, 15504.00
589.0180, 15564.00
590.1880, 15557.00
591.3590, 15735.00
592.5290, 15802.00
593.7000, 16195.00
594.8700, 16318.00
596.0400, 16797.00
597.2090, 17201.00
598.3790, 17926.00
599.5490, 18359.00
600.7180, 19170.00
601.8870, 19907.00
603.0560, 20802.00
604.2250, 21238.00
605.3940, 21851.00
606.5620, 22320.00
607.7300, 22729.00
608.8990, 22839.00
610.0670, 22924.00
611.2350, 22824.00
612.4020, 22471.00
613.5700, 22072.00
614.7370, 21430.00
615.9050, 20937.00
617.0720, 20276.00
618.2390, 19721.00
619.4060, 19425.00
620.5720, 18796.00
621.7390, 18759.00
622.9050, 18471.00
624.0710, 18102.00
625.2370, 17839.00
626.4030, 18495.00
627.5690, 17841.89
628.7340, 18178.00
629.9000, 17148.00
631.0650, 17035.00
632.2300, 16621.00
633.3950, 16121.00
634.5600, 15923.00
635.7240, 15721.00
636.8890, 15344.00
638.0530, 15156.00
639.2170, 15074.00
640.3810, 14980.00
641.5450, 14834.00
642.7080, 14740.00
643.8720, 14690.00
645.0350, 14760.00
646.1980, 14788.00
647.3610, 14732.00
648.5240, 14672.00
649.6870, 14872.00
650.8490, 14953.00
652.0120, 15072.00
653.1740, 15166.00
654.3360, 15412.00
655.4980, 15533.00
656.6600, 15698.84
657.8210, 15857.00
658.9830, 16003.00
660.1440, 16250.00
661.3050, 16375.00
662.4660, 16796.00
663.6270, 17177.00
664.7870, 17463.00
665.9480, 17670.00
667.1080, 17642.00
668.2680, 18225.00
669.4280, 18153.00
670.5880, 18354.00
671.7480, 18855.00
672.9070, 19317.00
674.0670, 19652.00
675.2260, 20140.00
676.3850, 20688.00
677.5440, 21286.00
678.7030, 21887.00
679.8610, 22527.00
681.0200, 23075.00
682.1780, 23727.38
683.3360, 24482.00
684.4940, 25002.00
685.6520, 25787.00
686.8090, 26456.00
687.9670, 27026.00
689.1240, 27826.00
690.2810, 28464.00
691.4380, 29053.00
692.5950, 29402.00
693.7520, 30387.00
694.9080, 31138.00
696.0650, 31871.00
697.2210, 32873.00
698.3770, 33885.00
699.5330, 34887.00
700.6880, 36338.00
701.8440, 37381.00
702.9990, 38060.00
704.1550, 39716.00
705.3100, 40435.00
706.4650, 40920.00
707.6190, 41075.00
708.7740, 40802.00
709.9290, 40055.00
711.0830, 38520.00
712.2370, 36678.00
713.3910, 35143.00
714.5450, 33349.00
715.6980, 31735.00
716.8520, 30415.00
718.0050, 29526.00
719.1580, 28341.00
720.3110, 28473.00
721.4640, 28191.00
722.6170, 27968.00
723.7700, 28251.00
724.9220, 28650.00
726.0740, 29159.00
727.2260, 30069.00
728.3780, 30581.00
729.5300, 31312.00
730.6810, 32012.00
731.8330, 32638.00
732.9840, 33450.00
734.1350, 34416.00
735.2860, 34915.00
736.4370, 35736.00
737.5880, 36012.00
738.7380, 36638.00
739.8880, 37165.00
741.0390, 37232.00
742.1890, 36911.00
743.3380, 36907.00
744.4880, 36458.00
745.6380, 36299.00
746.7870, 35612.00
747.9360, 34944.00
749.0850, 34438.00
750.2340, 33648.00
751.3830, 33407.00
752.5310, 32690.00
753.6800, 32422.00
754.8280, 32210.00
755.9760, 32023.00
757.1240, 31519.00
758.2720, 31241.00
759.4190, 30490.00
760.5670, 30174.00
761.7140, 29665.00
762.8610, 29127.00
764.0080, 28488.00
765.1550, 28048.00
766.3020, 27388.00
767.4480, 26643.00
768.5950, 26422.00
769.7410, 25649.00
770.8870, 24910.00
772.0330, 24421.00
773.1780, 24106.00
774.3240, 23540.00
775.4690, 22825.00
776.6140, 22302.00
777.7590, 21745.00
778.9040, 21210.00
780.0490, 20575.00
781.1940, 20288.00
782.3380, 19708.00
783.4820, 19453.00
784.6260, 18994.00
785.7700, 18787.00
786.9140, 18434.00
788.0580, 18199.00
789.2010, 17891.00
790.3450, 17641.00
791.4880, 17471.00
792.6310, 17306.00
793.7730, 17101.00
794.9160, 16831.00
796.0590, 16640.00
797.2010, 16438.00
798.3430, 16460.00
799.4850, 16224.00
800.6270, 16253.00
801.7690, 16271.00
802.9100, 16150.00
804.0520, 16119.00
805.1930, 16217.00
806.3340, 16126.00
807.4750, 16145.00
808.6160, 16375.00
809.7560, 16387.00
810.8970, 16622.00
812.0370, 16843.00
813.1770, 16736.00
814.3170, 16941.00
815.4570, 16967.00
816.5960, 17060.00
817.7360, 17087.17
818.8750, 17140.00
820.0140, 17114.00
821.1530, 17033.00
822.2920, 17130.00
823.4310, 16931.00
824.5690, 16935.00
825.7070, 16665.00
826.8460, 16514.00
827.9840, 16682.00
829.1220, 16528.00
830.2590, 16818.00
831.3970, 16864.00
832.5340, 17153.00
833.6710, 17636.00
834.8080, 18167.00
835.9450, 17958.00
837.0820, 17770.00
838.2190, 17123.00
839.3550, 16507.00
840.4910, 16116.00
841.6270, 15690.00
842.7630, 15469.00
843.8990, 15445.00
845.0350, 15323.00
846.1700, 15254.00
847.3060, 15197.00
848.4410, 15317.00
849.5760, 15646.00
850.7100, 15939.00
851.8450, 15927.00
852.9800, 15695.00
854.1140, 15305.00
855.2480, 15039.00
856.3820, 14993.00
857.5160, 15008.00
858.6500, 14825.03
859.7830, 14731.29
860.9170, 14590.00
862.0500, 14435.00
863.1830, 14257.00
864.3160, 14160.00
865.4480, 14090.00
866.5810, 14081.00
867.7130, 14047.00
868.8460, 14167.00
869.9780, 14129.00
871.1100, 14308.00
872.2410, 14164.00
873.3730, 14094.00
874.5050, 14165.00
875.6360, 14129.78
876.7670, 14267.00
877.8980, 14240.00
879.0290, 14464.00
880.1590, 14573.00
881.2900, 14698.00
882.4200, 14749.00
883.5500, 14936.00
884.6800, 15062.00
885.8100, 15300.00
886.9400, 15433.00
888.0690, 15627.00
889.1990, 15928.00
890.3280, 16153.00
891.4570, 16411.00
892.5860, 16771.00
893.7140, 17234.00
894.8430, 17427.00
895.9710, 17816.00
897.1000, 18255.00
898.2280, 18445.00
899.3560, 18772.00
900.4830, 19547.00
901.6110, 20002.00
902.7380, 20398.00
903.8660, 21662.00
904.9930, 22459.00
906.1200, 23748.00
907.2460, 25385.00
908.3730, 27606.00
909.5000, 30882.00
910.6260, 34421.00
911.7520, 36682.00
912.8780, 35523.00
914.0040, 32248.00
915.1290, 29101.00
916.2550, 27833.00
917.3800, 27186.00
918.5050, 27944.00
919.6300, 29687.00
920.7550, 32173.00
921.8800, 34150.00
923.0040, 34160.00
924.1290, 34734.00
925.2530, 36689.00
926.3770, 39769.00
927.5010, 41835.00
928.6250, 41179.00
929.7480, 39406.00
930.8720, 38099.00
931.9950, 37567.00
933.1180, 37440.00
934.2410, 37520.00
935.3640, 38641.00
936.4860, 40907.00
937.6090, 41807.00
938.7310, 40471.00
939.8530, 38036.00
940.9750, 36730.00
942.0970, 37045.00
943.2180, 38694.00
944.3400, 41293.00
945.4610, 45881.00
946.5820, 51439.00
947.7030, 54915.00
948.8240, 52885.00
949.9450, 45925.00
951.0650, 39750.00
952.1860, 35618.00
953.3060, 32716.00
954.4260, 31075.00
955.5460, 29818.00
956.6650, 28546.00
957.7850, 27949.00
958.9040, 27724.00
960.0230, 27134.00
961.1420, 27153.00
962.2610, 26880.00
963.3800, 26627.00
964.4990, 26478.00
965.6170, 26347.00
966.7350, 26535.00
967.8530, 26530.00
968.9710, 26576.00
970.0890, 26555.00
971.2070, 26568.00
972.3240, 26871.00
973.4410, 26930.00
974.5580, 27285.00
975.6750, 27731.00
976.7920, 27713.00
977.9090, 27686.00
979.0250, 27980.00
980.1410, 27860.00
981.2580, 28113.00
982.3740, 28418.00
983.4890, 28465.00
984.6050, 28805.00
985.7200, 29218.00
986.8360, 29799.00
987.9510, 30061.00
989.0660, 30746.00
990.1810, 32130.00
991.2950, 32257.00
992.4100, 33988.00
993.5240, 34378.00
994.6390, 34308.00
995.7530, 34961.00
996.8660, 35712.00
997.9800, 36070.00
999.0940, 36121.00
1000.207, 36357.00
1001.320, 36464.00
1002.433, 36295.00
1003.546, 35695.00
1004.659, 35576.00
1005.772, 35317.00
1006.884, 34554.00
1007.996, 34342.00
1009.108, 33771.00
1010.220, 33659.00
1011.332, 33600.00
1012.444, 33139.00
1013.555, 33006.00
1014.666, 32550.00
1015.777, 32686.00
1016.888, 32429.00
1017.999, 32262.00
1019.110, 32421.00
1020.220, 32270.00
1021.331, 32465.00
1022.441, 32060.00
1023.551, 32452.00
1024.661, 32339.00
1025.770, 32305.00
1026.880, 32609.00
1027.989, 32686.00
1029.098, 32598.00
1030.207, 32463.00
1031.316, 32522.00
1032.425, 32522.00
1033.533, 32220.00
1034.642, 31835.00
1035.750, 31562.00
1036.858, 31304.00
1037.966, 30777.00
1039.073, 30379.00
1040.181, 30056.00
1041.288, 29731.45
1042.396, 29534.00
1043.503, 29237.00
1044.610, 29075.00
1045.716, 28823.00
1046.823, 28746.00
1047.929, 28723.00
1049.036, 28717.00
1050.142, 28670.00
1051.248, 28731.00
1052.353, 29071.00
1053.459, 29539.00
1054.564, 29736.00
1055.670, 30542.00
1056.775, 31106.00
1057.880, 32083.00
1058.985, 32629.00
1060.089, 33709.00
1061.194, 34911.00
1062.298, 36514.00
1063.402, 37763.00
1064.506, 39505.00
1065.610, 41252.00
1066.713, 43212.00
1067.817, 44473.00
1068.920, 45537.00
1070.023, 45758.00
1071.126, 46159.00
1072.229, 46258.00
1073.332, 45752.00
1074.435, 45615.00
1075.537, 44625.00
1076.639, 43797.00
1077.741, 42725.00
1078.843, 41772.00
1079.945, 40603.00
1081.046, 39824.00
1082.148, 39024.00
1083.249, 38155.00
1084.350, 37665.00
1085.451, 37362.00
1086.551, 36799.00
1087.652, 36870.00
1088.752, 36501.00
1089.853, 36104.00
1090.953, 36252.00
1092.053, 35948.00
1093.152, 35535.00
1094.252, 35324.00
1095.351, 34805.00
1096.451, 34259.00
1097.550, 33666.00
1098.649, 32713.00
1099.748, 31619.00
1100.846, 30719.00
1101.945, 29536.00
1103.043, 28328.00
1104.141, 27370.00
1105.239, 26350.00
1106.337, 25469.68
1107.434, 24487.00
1108.532, 23931.00
1109.629, 23202.00
1110.726, 22614.00
1111.823, 22317.00
1112.920, 21940.00
1114.017, 21535.00
1115.113, 21296.00
1116.210, 21036.00
1117.306, 20885.00
1118.402, 20767.70
1119.498, 20642.00
1120.593, 20647.00
1121.689, 20553.00
1122.784, 20514.00
1123.879, 20414.00
1124.974, 20349.39
1126.069, 20260.00
1127.164, 20194.00
1128.259, 20131.00
1129.353, 20030.00
1130.447, 20184.00
1131.541, 20084.00
1132.635, 20143.00
1133.729, 19920.00
1134.822, 20088.00
1135.916, 20136.00
1137.009, 20215.00
1138.102, 20074.00
1139.195, 20035.00
1140.288, 19920.00
1141.380, 20026.00
1142.473, 19897.00
1143.565, 19700.00
1144.657, 19819.00
1145.749, 19732.00
1146.841, 19663.00
1147.932, 19643.79
1149.024, 19513.00
1150.115, 19488.00
1151.206, 19373.00
1152.297, 19269.00
1153.388, 19264.00
1154.479, 19037.00
1155.569, 19009.00
1156.659, 18983.00
1157.750, 18957.00
1158.839, 18909.23
1159.929, 18801.00
1161.019, 18793.00
1162.108, 18749.00
1163.198, 18656.00
1164.287, 18643.00
1165.376, 18566.00
1166.465, 18608.00
1167.553, 18559.00
1168.642, 18516.00
1169.730, 18566.00
1170.818, 18573.00
1171.906, 18487.00
1172.994, 18439.00
1174.082, 18463.00
1175.170, 18533.00
1176.257, 18396.00
1177.344, 18118.00
1178.431, 18179.00
1179.518, 18107.00
1180.605, 17885.00
1181.691, 17932.00
1182.778, 17882.00
1183.864, 17827.00
1184.950, 17892.00
1186.036, 17702.00
1187.122, 17702.00
1188.207, 17478.00
1189.292, 17429.00
1190.378, 17491.00
1191.463, 17453.00
1192.548, 17246.00
1193.632, 17196.00
1194.717, 17263.00
1195.801, 17409.00
1196.886, 17133.00
1197.970, 17148.00
1199.054, 17271.00
1200.137, 17077.00
1201.221, 17196.00
1202.305, 16987.00
1203.388, 16903.00
1204.471, 16859.00
1205.554, 16925.00
1206.637, 16992.00
1207.719, 16956.00
1208.802, 16958.03
1209.884, 16725.00
1210.966, 16855.00
1212.048, 16762.00
1213.130, 16674.00
1214.212, 16917.00
1215.293, 16925.00
1216.374, 16758.00
1217.456, 16843.00
1218.536, 16776.00
1219.617, 16791.00
1220.698, 16900.00
1221.778, 16789.00
1222.859, 16824.00
1223.939, 16974.00
1225.019, 16748.00
1226.099, 17016.00
1227.178, 16966.00
1228.258, 16935.00
1229.337, 16937.00
1230.417, 16963.38
1231.496, 17075.00
1232.574, 17068.00
1233.653, 17182.00
1234.732, 17240.00
1235.810, 17246.00
1236.888, 17343.00
1237.966, 17250.00
1239.044, 17325.00
1240.122, 17291.00
1241.199, 17348.00
1242.277, 17318.00
1243.354, 17448.00
1244.431, 17536.00
1245.508, 17452.00
1246.585, 17511.00
1247.661, 17439.00
1248.738, 17559.00
1249.814, 17616.00
1250.890, 17686.00
1251.966, 17717.00
1253.042, 17697.00
1254.117, 17735.00
1255.193, 17753.00
1256.268, 17764.00
1257.343, 17825.00
1258.418, 17924.00
1259.493, 17859.00
1260.567, 18105.00
1261.642, 18005.00
1262.716, 18047.00
1263.790, 18149.00
1264.864, 18079.00
1265.938, 17936.00
1267.011, 18027.00
1268.085, 18136.00
1269.158, 18212.00
1270.231, 17923.00
1271.304, 18092.00
1272.377, 18036.00
1273.450, 17997.00
1274.522, 18060.00
1275.594, 17870.00
1276.666, 17912.00
1277.738, 17945.00
1278.810, 17934.00
1279.882, 18077.00
1280.953, 17948.00
1282.025, 17851.00
1283.096, 17990.00
1284.167, 18004.00
1285.238, 17759.00
1286.308, 17690.00
1287.379, 17749.00
1288.449, 17807.00
1289.519, 17740.00
1290.589, 17817.00
1291.659, 17908.00
1292.729, 18017.00
1293.798, 17817.00
1294.868, 17702.00
1295.937, 17893.00
1297.006, 17933.00
1298.075, 17814.00
1299.143, 17708.00
1300.212, 17917.00
1301.280, 17968.00
1302.348, 18015.00
1303.416, 18010.00
1304.484, 18165.00
1305.552, 17632.00
1306.620, 17785.00
1307.687, 17730.00
1308.754, 17792.00
1309.821, 17749.00
1310.888, 17766.26
1311.955, 17726.00
1313.021, 17768.00
1314.088, 17788.00
1315.154, 17743.00
1316.220, 17738.00
1317.286, 17806.00
1318.352, 17817.00
1319.417, 17859.00
1320.483, 17796.00
1321.548, 17701.00
1322.613, 17721.00
1323.678, 17691.00
1324.743, 17842.00
1325.807, 17673.00
1326.872, 17524.00
1327.936, 17670.00
1329.000, 17722.00
1330.064, 17562.00
1331.128, 17674.00
1332.191, 17667.00
1333.255, 17615.00
1334.318, 17697.00
1335.381, 17726.00
1336.444, 17672.00
1337.507, 17798.00
1338.569, 17648.00
1339.632, 17759.00
1340.694, 17726.00
1341.756, 17848.00
1342.818, 18012.00
1343.880, 17941.00
1344.941, 18092.00
1346.003, 18146.00
1347.064, 18376.00
1348.125, 18452.00
1349.186, 18756.00
1350.247, 18836.00
1351.308, 19140.00
1352.368, 19732.00
1353.428, 20174.00
1354.489, 20841.00
1355.549, 21732.00
1356.608, 22572.00
1357.668, 23758.00
1358.727, 24995.00
1359.787, 26107.00
1360.846, 26250.00
1361.905, 26206.00
1362.964, 25209.00
1364.022, 23857.00
1365.081, 22670.00
1366.139, 21413.00
1367.197, 20594.16
1368.255, 19670.00
1369.313, 19305.00
1370.371, 18971.00
1371.428, 18783.00
1372.486, 18747.00
1373.543, 18542.00
1374.600, 18685.00
1375.657, 18720.00
1376.713, 18844.00
1377.770, 18965.00
1378.826, 18952.00
1379.882, 18741.00
1380.938, 18760.00
1381.994, 18589.00
1383.050, 18471.73
1384.106, 18346.00
1385.161, 18371.00
1386.216, 18459.00
1387.271, 18760.00
1388.326, 18891.00
1389.381, 19414.00
1390.435, 19901.00
1391.490, 20720.00
1392.544, 21477.00
1393.598, 22118.00
1394.652, 22695.00
1395.705, 23083.00
1396.759, 22513.00
1397.812, 21744.00
1398.866, 20776.00
1399.919, 19925.00
1400.972, 19127.00
1402.024, 18733.00
1403.077, 18137.00
1404.129, 17854.00
1405.181, 17609.00
1406.233, 17290.00
1407.285, 17301.00
1408.337, 17372.00
1409.389, 17277.00
1410.440, 17226.00
1411.491, 17146.00
1412.542, 17045.00
1413.593, 17072.00
1414.644, 17183.00
1415.695, 17263.00
1416.745, 17234.00
1417.795, 17257.00
1418.845, 17423.00
1419.895, 17598.00
1420.945, 17771.00
1421.995, 18083.00
1423.044, 18240.00
1424.093, 18809.00
1425.142, 18904.00
1426.191, 19139.00
1427.240, 19572.00
1428.289, 18735.00
1429.337, 18547.00
1430.385, 18393.00
1431.433, 18145.00
1432.481, 18191.00
1433.529, 18293.00
1434.577, 18432.00
1435.624, 18520.00
1436.672, 18498.00
1437.719, 18763.00
1438.766, 19062.00
1439.812, 19006.00
1440.859, 19366.04
1441.905, 19957.00
1442.952, 19772.00
1443.998, 20040.00
1445.044, 20053.00
1446.090, 20022.00
1447.135, 20046.00
1448.181, 19968.11
1449.226, 20014.00
1450.271, 19781.00
1451.316, 19805.00
1452.361, 19654.00
1453.405, 19727.00
1454.450, 19622.00
1455.494, 19804.00
1456.538, 19898.00
1457.582, 19907.00
1458.626, 20176.00
1459.670, 20299.00
1460.713, 20415.00
1461.757, 20671.00
1462.800, 20730.00
1463.843, 20360.00
1464.886, 20456.00
1465.928, 20350.00
1466.971, 20193.00
1468.013, 20048.00
1469.055, 19985.00
1470.097, 19871.00
1471.139, 19815.00
1472.181, 19772.00
1473.222, 19749.00
1474.263, 19730.00
1475.305, 19730.17
1476.346, 19763.00
1477.386, 19731.00
1478.427, 19731.00
1479.468, 19684.00
1480.508, 19762.00
1481.548, 19767.00
1482.588, 19742.00
1483.628, 19853.00
1484.668, 19701.00
1485.707, 19864.00
1486.747, 19683.00
1487.786, 19558.00
1488.825, 19726.00
1489.864, 19873.00
1490.902, 19835.00
1491.941, 19970.00
1492.979, 19815.00
1494.017, 19815.00
1495.055, 19831.00
1496.093, 19803.00
1497.131, 19829.61
1498.168, 19882.00
1499.206, 19890.00
1500.243, 19864.00
1501.280, 19947.00
1502.317, 19964.00
1503.354, 19956.00
1504.390, 19877.00
1505.426, 20089.00
1506.463, 19885.00
1507.499, 20084.00
1508.535, 19872.00
1509.570, 19951.00
1510.606, 20001.00
1511.641, 20225.00
1512.676, 20063.00
1513.711, 19812.00
1514.746, 19945.00
1515.781, 20050.00
1516.816, 20174.00
1517.850, 20021.00
1518.884, 19971.00
1519.918, 19928.00
1520.952, 20011.00
1521.986, 20006.00
1523.019, 20121.00
1524.053, 19946.00
1525.086, 19987.00
1526.119, 20250.00
1527.152, 20047.00
1528.185, 20177.00
1529.217, 20157.00
1530.250, 20119.00
1531.282, 20092.00
1532.314, 20215.00
1533.346, 20288.00
1534.377, 20281.00
1535.409, 20391.00
1536.440, 20304.00
1537.472, 20438.00
1538.503, 20332.00
1539.534, 20342.00
1540.564, 20401.00
1541.595, 20286.00
1542.625, 20534.00
1543.656, 20462.00
1544.686, 20473.00
1545.716, 20624.00
1546.745, 20696.00
1547.775, 20725.23
1548.804, 20730.00
1549.834, 20751.00
1550.863, 20851.00
1551.892, 20791.00
1552.920, 20999.00
1553.949, 20987.84
1554.977, 21053.00
1556.006, 21026.00
1557.034, 20987.00
1558.062, 20906.00
1559.089, 20924.05
1560.117, 20925.77
1561.144, 21006.00
1562.172, 20966.00
1563.199, 21154.00
1564.226, 21124.00
1565.252, 20903.00
1566.279, 21056.00
1567.305, 21143.00
1568.332, 21055.00
1569.358, 21335.00
1570.384, 21329.00
1571.409, 21388.00
##END=



