##NAMES=Eudialyte
##RRUFFID=R060206
##IDEAL CHEMISTRY=Na_15_Ca_6_Fe^2+^_3_Zr^4+^_3_Si(Si_25_O_73_)(O,OH,H_2_O)_3_(Cl,OH)_2_
##LOCALITY=Desourdy Quarry, Mont Saint-Hilaire, Rouville County, Quebec, Canada
##OWNER=RRUFF
##SOURCE=Royal Ontario Museum
##DESCRIPTION=Yellowish-brown gemmy fragment
##STATUS=The identification of this mineral is confirmed by single-crystal X-ray diffraction and chemical analysis.
##URL=rruff.info/R060206
##MEASURED CHEMISTRY=(Na_13.12_Ca_1.62_K_0.26_)_Σ=15_(Ca_4.47_Mn_1.00_Ce_0.32_La_0.21_)_Σ=6_(Fe_2.91_Mn_0.09_)_Σ=3_Zr_3.00_(Si_0.85_Nb_0.15_)_Σ=1_Si_25.00_O_73_((OH)_2.70_O_0.30_)_Σ=3_(Cl_1.20_(OH)_0.80_)_Σ=2_
##PIN_ID=M00448
##ORIENTATION=Laser parallel to -a* (-1 0 0). Fiducial mark perpendicular to laser is parallel to c [0 0 1]
116.9030, 15686.95
118.1340, 15873.36
119.3650, 15653.00
120.5960, 15456.00
121.8270, 15470.52
123.0580, 15511.34
124.2880, 15589.00
125.5190, 15771.00
126.7490, 16030.00
127.9790, 16188.00
129.2090, 16655.00
130.4390, 16733.00
131.6680, 17199.00
132.8980, 17541.00
134.1270, 17720.00
135.3560, 18263.00
136.5850, 18901.00
137.8140, 19544.00
139.0430, 20026.00
140.2710, 20054.00
141.5000, 20019.00
142.7280, 20068.00
143.9560, 20107.00
145.1840, 19980.00
146.4120, 19546.00
147.6390, 18915.00
148.8670, 17809.00
150.0940, 16955.00
151.3210, 16408.00
152.5490, 15885.00
153.7750, 15286.00
155.0020, 14857.00
156.2290, 14610.00
157.4550, 14348.00
158.6810, 13970.00
159.9080, 13864.00
161.1340, 13911.00
162.3590, 14037.00
163.5850, 14052.00
164.8110, 13982.00
166.0360, 13887.00
167.2610, 13697.00
168.4860, 13806.77
169.7110, 13964.39
170.9360, 13984.81
172.1610, 13705.00
173.3850, 13749.00
174.6100, 13672.00
175.8340, 13780.00
177.0580, 13969.00
178.2820, 14203.00
179.5050, 14261.00
180.7290, 14382.00
181.9520, 14497.00
183.1760, 14925.00
184.3990, 15089.00
185.6220, 15556.00
186.8450, 15742.00
188.0670, 16198.00
189.2900, 16385.00
190.5120, 16890.00
191.7340, 17226.00
192.9560, 17559.00
194.1780, 17830.00
195.4000, 18166.00
196.6220, 18280.00
197.8430, 18387.00
199.0640, 18786.00
200.2860, 19053.00
201.5070, 19218.00
202.7270, 18881.00
203.9480, 18496.00
205.1690, 17513.00
206.3890, 17178.00
207.6090, 16787.00
208.8290, 16399.00
210.0490, 16198.00
211.2690, 15975.00
212.4890, 15578.00
213.7080, 15567.00
214.9280, 15116.00
216.1470, 14867.00
217.3660, 14654.00
218.5850, 14598.00
219.8030, 14619.00
221.0220, 14511.00
222.2400, 14306.00
223.4590, 14237.00
224.6770, 13982.00
225.8950, 13771.00
227.1120, 13337.00
228.3300, 13138.00
229.5480, 12992.00
230.7650, 12989.00
231.9820, 12822.00
233.1990, 12962.00
234.4160, 12932.00
235.6330, 12734.00
236.8490, 12928.00
238.0660, 12929.00
239.2820, 12976.00
240.4980, 12993.00
241.7140, 12889.00
242.9300, 12807.00
244.1460, 12535.00
245.3610, 12377.00
246.5770, 12330.00
247.7920, 12404.00
249.0070, 12306.00
250.2220, 12186.00
251.4370, 12620.00
252.6510, 12256.00
253.8660, 12175.09
255.0800, 12595.73
256.2940, 12867.15
257.5080, 12997.37
258.7220, 12563.47
259.9360, 12858.02
261.1490, 12860.57
262.3630, 12851.22
263.5760, 13248.22
264.7890, 12896.31
266.0020, 13286.87
267.2150, 13370.00
268.4270, 13383.00
269.6400, 13616.00
270.8520, 13708.00
272.0640, 13969.00
273.2760, 13966.00
274.4880, 14231.00
275.7000, 14345.00
276.9120, 14606.00
278.1230, 14637.00
279.3340, 14827.80
280.5450, 15051.00
281.7560, 15113.00
282.9670, 15308.00
284.1780, 15441.00
285.3880, 15633.00
286.5980, 15773.23
287.8090, 15943.72
289.0190, 16070.00
290.2290, 16196.00
291.4380, 16369.00
292.6480, 16315.00
293.8570, 16405.00
295.0670, 16514.00
296.2760, 16681.33
297.4850, 16596.00
298.6930, 16756.40
299.9020, 16717.00
301.1110, 16902.00
302.3190, 17112.00
303.5270, 17141.00
304.7350, 17299.00
305.9430, 17366.00
307.1510, 17351.00
308.3580, 17428.00
309.5660, 17356.00
310.7730, 17284.77
311.9800, 17098.00
313.1870, 17019.00
314.3940, 16855.00
315.6010, 16639.00
316.8070, 16394.00
318.0130, 16332.00
319.2200, 16260.00
320.4260, 16293.00
321.6310, 16055.00
322.8370, 15799.00
324.0430, 15938.00
325.2480, 16072.00
326.4540, 16187.00
327.6590, 16414.00
328.8640, 16666.00
330.0680, 17005.00
331.2730, 17136.00
332.4780, 17461.00
333.6820, 17837.00
334.8860, 17778.00
336.0900, 17922.00
337.2940, 17996.00
338.4980, 17943.00
339.7010, 18018.00
340.9050, 17999.55
342.1080, 18123.00
343.3110, 18002.00
344.5140, 17849.00
345.7170, 17882.00
346.9200, 17812.00
348.1220, 17907.00
349.3240, 17569.00
350.5270, 17638.00
351.7290, 17329.00
352.9310, 17231.00
354.1320, 16887.00
355.3340, 16917.00
356.5350, 16814.00
357.7370, 16491.00
358.9380, 16374.00
360.1390, 16212.00
361.3400, 15887.00
362.5400, 15695.00
363.7410, 15486.00
364.9410, 15251.00
366.1410, 14895.00
367.3410, 14842.00
368.5410, 14725.00
369.7410, 14366.00
370.9400, 14402.00
372.1400, 14151.00
373.3390, 13895.00
374.5380, 14023.00
375.7370, 13817.00
376.9360, 13675.00
378.1350, 13634.00
379.3330, 13867.00
380.5310, 13896.00
381.7300, 13997.00
382.9280, 14542.00
384.1260, 14268.00
385.3230, 14572.00
386.5210, 14332.00
387.7180, 14670.00
388.9160, 14944.00
390.1130, 14806.00
391.3100, 14877.00
392.5060, 14968.00
393.7030, 14832.00
394.9000, 14746.00
396.0960, 14521.00
397.2920, 14353.45
398.4880, 14137.00
399.6840, 13931.00
400.8800, 13756.00
402.0750, 13554.00
403.2710, 13388.00
404.4660, 13117.79
405.6610, 12954.00
406.8560, 12735.71
408.0510, 12506.00
409.2450, 12342.00
410.4400, 12148.00
411.6340, 11996.00
412.8280, 11882.00
414.0220, 11423.00
415.2160, 11398.00
416.4100, 11172.00
417.6030, 11194.00
418.7970, 10898.00
419.9900, 10718.00
421.1830, 10385.00
422.3760, 10402.00
423.5690, 10172.00
424.7610, 10016.00
425.9540, 9815.000
427.1460, 9695.000
428.3380, 9598.000
429.5300, 9422.000
430.7220, 9443.000
431.9140, 9168.000
433.1050, 9284.000
434.2970, 9325.000
435.4880, 9235.000
436.6790, 9196.000
437.8700, 9249.000
439.0610, 9423.000
440.2510, 9476.000
441.4420, 9430.000
442.6320, 9368.000
443.8220, 9418.000
445.0120, 9320.000
446.2020, 9128.000
447.3910, 9103.000
448.5810, 9099.000
449.7700, 9109.000
450.9600, 9050.000
452.1490, 9047.000
453.3370, 9041.000
454.5260, 8995.000
455.7150, 8937.000
456.9030, 8993.000
458.0910, 8869.000
459.2800, 8901.238
460.4670, 8857.000
461.6550, 8896.000
462.8430, 8969.000
464.0300, 8958.584
465.2180, 8830.000
466.4050, 8881.000
467.5920, 8819.000
468.7790, 8797.000
469.9650, 8833.000
471.1520, 8733.000
472.3380, 8821.000
473.5250, 8798.000
474.7110, 8687.000
475.8970, 8688.000
477.0820, 8760.000
478.2680, 8786.000
479.4540, 8799.000
480.6390, 8857.000
481.8240, 8865.362
483.0090, 9015.000
484.1940, 8951.000
485.3780, 9100.000
486.5630, 9251.000
487.7470, 9315.000
488.9320, 9457.000
490.1160, 9445.000
491.3000, 9630.000
492.4830, 9541.000
493.6670, 9780.000
494.8500, 9937.000
496.0340, 10203.00
497.2170, 10335.00
498.4000, 10475.00
499.5820, 10802.00
500.7650, 10948.33
501.9480, 11196.01
503.1300, 11346.00
504.3120, 11548.00
505.4940, 11659.00
506.6760, 11580.00
507.8580, 11703.00
509.0390, 11688.00
510.2210, 11480.00
511.4020, 11537.00
512.5830, 11516.00
513.7640, 11520.28
514.9450, 11527.80
516.1250, 11630.00
517.3060, 11600.00
518.4860, 11638.00
519.6660, 11856.00
520.8460, 12037.00
522.0260, 11995.00
523.2060, 12098.00
524.3850, 12064.00
525.5650, 12165.00
526.7440, 12030.00
527.9230, 12324.00
529.1020, 12173.00
530.2810, 12214.00
531.4590, 12271.00
532.6380, 12145.00
533.8160, 12328.00
534.9940, 12275.00
536.1720, 12257.00
537.3500, 12209.00
538.5270, 12292.00
539.7050, 12468.00
540.8820, 12567.00
542.0590, 12858.00
543.2360, 13131.00
544.4130, 13357.00
545.5900, 13948.00
546.7660, 14186.00
547.9430, 14593.00
549.1190, 15325.00
550.2950, 16069.00
551.4710, 16966.00
552.6470, 17899.00
553.8220, 18827.00
554.9980, 19741.00
556.1730, 20589.00
557.3480, 21414.00
558.5230, 21844.00
559.6980, 22529.00
560.8730, 22945.00
562.0470, 23790.00
563.2220, 25030.00
564.3960, 25957.00
565.5700, 26683.00
566.7440, 26685.48
567.9170, 26648.00
569.0910, 25531.00
570.2640, 23964.00
571.4380, 22063.00
572.6110, 20066.00
573.7840, 18069.00
574.9570, 16444.00
576.1290, 15156.00
577.3020, 13942.00
578.4740, 13189.00
579.6460, 12401.00
580.8180, 11882.00
581.9900, 11397.00
583.1620, 11093.00
584.3330, 10909.00
585.5040, 10708.00
586.6760, 10648.00
587.8470, 10599.00
589.0180, 10523.00
590.1880, 10393.00
591.3590, 10517.00
592.5290, 10660.00
593.7000, 10857.00
594.8700, 10836.00
596.0400, 11100.00
597.2090, 11216.00
598.3790, 11477.00
599.5490, 11885.00
600.7180, 12191.00
601.8870, 12581.00
603.0560, 12989.00
604.2250, 13446.00
605.3940, 13740.44
606.5620, 14010.74
607.7300, 14230.00
608.8990, 14329.00
610.0670, 14302.00
611.2350, 14254.43
612.4020, 14190.00
613.5700, 14016.00
614.7370, 13804.00
615.9050, 13490.00
617.0720, 13344.00
618.2390, 12972.00
619.4060, 12579.00
620.5720, 12491.00
621.7390, 12350.00
622.9050, 12295.00
624.0710, 12046.00
625.2370, 12221.00
626.4030, 11964.00
627.5690, 12080.00
628.7340, 11776.00
629.9000, 11647.00
631.0650, 11348.00
632.2300, 11184.65
633.3950, 11211.00
634.5600, 10888.00
635.7240, 10784.00
636.8890, 10744.00
638.0530, 10565.00
639.2170, 10517.00
640.3810, 10656.00
641.5450, 10550.00
642.7080, 10486.62
643.8720, 10615.00
645.0350, 10397.00
646.1980, 10425.00
647.3610, 10703.00
648.5240, 10576.00
649.6870, 10786.00
650.8490, 10668.00
652.0120, 10878.00
653.1740, 10987.00
654.3360, 10999.00
655.4980, 11075.00
656.6600, 11149.00
657.8210, 11349.00
658.9830, 11476.00
660.1440, 11819.00
661.3050, 11923.00
662.4660, 12193.00
663.6270, 12355.00
664.7870, 12589.00
665.9480, 12871.23
667.1080, 12880.61
668.2680, 12997.69
669.4280, 12966.00
670.5880, 13073.00
671.7480, 13208.00
672.9070, 13369.00
674.0670, 13553.00
675.2260, 14010.00
676.3850, 14351.00
677.5440, 14631.00
678.7030, 14932.00
679.8610, 15340.83
681.0200, 15786.00
682.1780, 16209.00
683.3360, 16750.00
684.4940, 17287.00
685.6520, 17714.00
686.8090, 18152.30
687.9670, 18460.00
689.1240, 18807.00
690.2810, 19123.00
691.4380, 19203.00
692.5950, 19583.00
693.7520, 19927.00
694.9080, 20287.21
696.0650, 20929.00
697.2210, 21246.00
698.3770, 21722.00
699.5330, 22354.00
700.6880, 23185.00
701.8440, 23774.00
702.9990, 24546.00
704.1550, 25161.00
705.3100, 25819.00
706.4650, 26060.00
707.6190, 25855.00
708.7740, 25745.00
709.9290, 25455.00
711.0830, 24954.00
712.2370, 23817.00
713.3910, 22773.00
714.5450, 21778.00
715.6980, 20837.00
716.8520, 20180.00
718.0050, 19431.00
719.1580, 18991.00
720.3110, 18600.00
721.4640, 18559.00
722.6170, 18552.00
723.7700, 18657.00
724.9220, 18749.00
726.0740, 19104.00
727.2260, 19518.00
728.3780, 19793.00
729.5300, 20168.00
730.6810, 20516.00
731.8330, 20913.94
732.9840, 21379.00
734.1350, 21753.00
735.2860, 22088.00
736.4370, 22480.00
737.5880, 22732.21
738.7380, 22885.00
739.8880, 23168.00
741.0390, 23239.00
742.1890, 23305.00
743.3380, 23356.00
744.4880, 23218.00
745.6380, 22798.00
746.7870, 22528.00
747.9360, 22170.00
749.0850, 21820.00
750.2340, 21664.00
751.3830, 21279.00
752.5310, 21157.00
753.6800, 20939.62
754.8280, 20826.00
755.9760, 20597.00
757.1240, 20479.00
758.2720, 20329.00
759.4190, 20172.00
760.5670, 19747.00
761.7140, 19514.00
762.8610, 19146.00
764.0080, 18833.34
765.1550, 18529.00
766.3020, 18201.00
767.4480, 17800.00
768.5950, 17444.00
769.7410, 17206.00
770.8870, 16994.00
772.0330, 16799.00
773.1780, 16236.00
774.3240, 15863.00
775.4690, 15723.00
776.6140, 15496.00
777.7590, 15050.00
778.9040, 14644.00
780.0490, 14413.00
781.1940, 14223.00
782.3380, 13950.00
783.4820, 13645.00
784.6260, 13460.00
785.7700, 13259.00
786.9140, 12983.00
788.0580, 13011.00
789.2010, 12754.00
790.3450, 12687.00
791.4880, 12568.00
792.6310, 12432.00
793.7730, 12311.00
794.9160, 12155.00
796.0590, 12037.00
797.2010, 11959.00
798.3430, 11789.00
799.4850, 11876.00
800.6270, 11568.00
801.7690, 11836.00
802.9100, 11748.00
804.0520, 11706.00
805.1930, 11769.00
806.3340, 11726.00
807.4750, 11773.00
808.6160, 11817.89
809.7560, 11977.00
810.8970, 11930.00
812.0370, 12021.00
813.1770, 12089.00
814.3170, 12122.00
815.4570, 12217.00
816.5960, 12259.00
817.7360, 12348.87
818.8750, 12234.13
820.0140, 12366.54
821.1530, 12430.08
822.2920, 12428.44
823.4310, 12166.45
824.5690, 12240.68
825.7070, 12180.17
826.8460, 12114.12
827.9840, 12235.67
829.1220, 12011.56
830.2590, 12130.16
831.3970, 12111.94
832.5340, 12156.35
833.6710, 12065.20
834.8080, 12015.91
835.9450, 12102.24
837.0820, 12113.48
838.2190, 12006.71
839.3550, 12055.12
840.4910, 11826.33
841.6270, 11840.79
842.7630, 11960.20
843.8990, 11860.27
845.0350, 11911.16
846.1700, 11904.64
847.3060, 11637.05
848.4410, 11823.46
849.5760, 11813.54
850.7100, 11602.06
851.8450, 11772.91
852.9800, 11589.19
854.1140, 11532.06
855.2480, 11482.00
856.3820, 11394.00
857.5160, 11214.00
858.6500, 11121.00
859.7830, 11024.00
860.9170, 11127.00
862.0500, 11004.16
863.1830, 10912.00
864.3160, 10927.00
865.4480, 10814.00
866.5810, 10834.00
867.7130, 10715.00
868.8460, 10812.00
869.9780, 10928.00
871.1100, 10880.00
872.2410, 10922.00
873.3730, 10861.00
874.5050, 11023.00
875.6360, 11050.00
876.7670, 11251.00
877.8980, 11107.00
879.0290, 11190.00
880.1590, 11327.00
881.2900, 11433.00
882.4200, 11684.00
883.5500, 11627.00
884.6800, 11970.00
885.8100, 12011.00
886.9400, 12312.00
888.0690, 12368.00
889.1990, 12758.00
890.3280, 12912.00
891.4570, 13202.00
892.5860, 13492.00
893.7140, 13989.00
894.8430, 14300.00
895.9710, 14540.00
897.1000, 15084.00
898.2280, 15469.00
899.3560, 16143.00
900.4830, 16702.00
901.6110, 17064.00
902.7380, 17969.00
903.8660, 18691.00
904.9930, 19932.00
906.1200, 21553.00
907.2460, 23004.00
908.3730, 25485.00
909.5000, 28942.00
910.6260, 32060.00
911.7520, 32863.00
912.8780, 30739.00
914.0040, 28453.00
915.1290, 26349.00
916.2550, 25192.00
917.3800, 24619.00
918.5050, 25510.00
919.6300, 27297.00
920.7550, 29218.00
921.8800, 30812.00
923.0040, 31116.00
924.1290, 32170.00
925.2530, 34413.00
926.3770, 36731.00
927.5010, 37866.00
928.6250, 36727.00
929.7480, 35468.00
930.8720, 34873.00
931.9950, 34512.00
933.1180, 33873.00
934.2410, 34670.00
935.3640, 36118.00
936.4860, 37702.00
937.6090, 37376.00
938.7310, 36219.00
939.8530, 34872.00
940.9750, 34213.00
942.0970, 34797.00
943.2180, 36484.00
944.3400, 39458.00
945.4610, 43962.00
946.5820, 48939.00
947.7030, 50076.00
948.8240, 46237.00
949.9450, 40792.00
951.0650, 35951.00
952.1860, 32282.00
953.3060, 29505.00
954.4260, 27908.00
955.5460, 26440.00
956.6650, 25286.00
957.7850, 24642.00
958.9040, 24214.00
960.0230, 23480.00
961.1420, 23198.00
962.2610, 22900.00
963.3800, 22461.00
964.4990, 22180.00
965.6170, 22003.00
966.7350, 21914.00
967.8530, 21665.00
968.9710, 21390.00
970.0890, 21428.00
971.2070, 21316.00
972.3240, 21050.00
973.4410, 21195.00
974.5580, 21298.00
975.6750, 21177.00
976.7920, 21266.00
977.9090, 21212.00
979.0250, 21138.00
980.1410, 21276.00
981.2580, 21458.00
982.3740, 21291.00
983.4890, 21587.00
984.6050, 21643.00
985.7200, 21914.00
986.8360, 22224.00
987.9510, 22602.00
989.0660, 22911.00
990.1810, 23368.00
991.2950, 24181.00
992.4100, 24545.00
993.5240, 25206.00
994.6390, 25552.00
995.7530, 26063.00
996.8660, 26375.00
997.9800, 26771.00
999.0940, 27009.00
1000.207, 27116.28
1001.320, 27562.00
1002.433, 27224.00
1003.546, 27098.00
1004.659, 27196.00
1005.772, 26872.00
1006.884, 26930.00
1007.996, 26700.00
1009.108, 26519.00
1010.220, 26361.00
1011.332, 26321.00
1012.444, 26263.00
1013.555, 26302.00
1014.666, 26463.00
1015.777, 26443.00
1016.888, 26546.79
1017.999, 26652.01
1019.110, 26661.00
1020.220, 26840.00
1021.331, 26850.00
1022.441, 26882.00
1023.551, 27105.00
1024.661, 27193.00
1025.770, 27228.00
1026.880, 27283.00
1027.989, 27345.00
1029.098, 27405.00
1030.207, 27548.00
1031.316, 27229.00
1032.425, 27144.00
1033.533, 26638.00
1034.642, 26544.00
1035.750, 26284.00
1036.858, 25893.00
1037.966, 25278.00
1039.073, 24945.00
1040.181, 24637.00
1041.288, 24296.00
1042.396, 23744.00
1043.503, 23505.00
1044.610, 23352.00
1045.716, 22931.00
1046.823, 22829.00
1047.929, 22475.00
1049.036, 22302.00
1050.142, 22361.00
1051.248, 22328.00
1052.353, 22296.00
1053.459, 22577.00
1054.564, 22580.00
1055.670, 23096.00
1056.775, 23177.00
1057.880, 23617.00
1058.985, 24213.00
1060.089, 24789.00
1061.194, 25475.00
1062.298, 26246.00
1063.402, 27111.00
1064.506, 28066.00
1065.610, 29330.00
1066.713, 30354.00
1067.817, 31112.00
1068.920, 31894.00
1070.023, 32208.00
1071.126, 32243.00
1072.229, 32293.00
1073.332, 32198.00
1074.435, 31952.00
1075.537, 31663.00
1076.639, 31020.00
1077.741, 30181.00
1078.843, 29835.00
1079.945, 29125.00
1081.046, 28499.00
1082.148, 27706.00
1083.249, 27279.00
1084.350, 26862.00
1085.451, 26602.00
1086.551, 26237.58
1087.652, 25893.00
1088.752, 25712.00
1089.853, 25418.00
1090.953, 25299.00
1092.053, 25090.00
1093.152, 24778.00
1094.252, 24465.00
1095.351, 24196.80
1096.451, 24021.00
1097.550, 23557.00
1098.649, 23076.00
1099.748, 22644.00
1100.846, 21669.00
1101.945, 21198.00
1103.043, 20542.00
1104.141, 19731.00
1105.239, 19246.00
1106.337, 18589.00
1107.434, 18111.00
1108.532, 17651.00
1109.629, 17342.00
1110.726, 16955.00
1111.823, 16673.00
1112.920, 16459.00
1114.017, 16251.00
1115.113, 16038.00
1116.210, 16001.00
1117.306, 16079.00
1118.402, 15816.00
1119.498, 15920.00
1120.593, 15877.00
1121.689, 15666.00
1122.784, 15819.00
1123.879, 15820.00
1124.974, 15674.00
1126.069, 15527.00
1127.164, 15516.00
1128.259, 15467.00
1129.353, 15342.00
1130.447, 15521.00
1131.541, 15464.00
1132.635, 15368.00
1133.729, 15308.00
1134.822, 15333.00
1135.916, 15539.00
1137.009, 15569.00
1138.102, 15572.00
1139.195, 15633.00
1140.288, 15485.00
1141.380, 15425.00
1142.473, 15509.00
1143.565, 15353.00
1144.657, 15281.00
1145.749, 15276.00
1146.841, 15245.00
1147.932, 15112.00
1149.024, 15120.00
1150.115, 15196.00
1151.206, 14946.00
1152.297, 15113.00
1153.388, 15000.00
1154.479, 14973.00
1155.569, 14982.00
1156.659, 14891.00
1157.750, 14833.00
1158.839, 14832.00
1159.929, 14695.00
1161.019, 14807.00
1162.108, 14726.00
1163.198, 14812.00
1164.287, 14712.00
1165.376, 14562.00
1166.465, 14650.00
1167.553, 14667.00
1168.642, 14688.00
1169.730, 14764.00
1170.818, 14678.00
1171.906, 14500.00
1172.994, 14456.00
1174.082, 14410.00
1175.170, 14240.00
1176.257, 14400.00
1177.344, 14275.00
1178.431, 14171.00
1179.518, 14192.00
1180.605, 14043.00
1181.691, 14208.00
1182.778, 13917.00
1183.864, 13995.00
1184.950, 14011.00
1186.036, 13810.00
1187.122, 13866.00
1188.207, 13766.00
1189.292, 13920.00
1190.378, 13749.00
1191.463, 13703.00
1192.548, 13538.00
1193.632, 13520.00
1194.717, 13572.00
1195.801, 13478.00
1196.886, 13425.00
1197.970, 13301.00
1199.054, 13283.00
1200.137, 13313.00
1201.221, 13322.00
1202.305, 13379.00
1203.388, 13376.00
1204.471, 13214.00
1205.554, 13136.00
1206.637, 13281.00
1207.719, 13201.00
1208.802, 13242.00
1209.884, 13281.00
1210.966, 13293.00
1212.048, 13230.00
1213.130, 13264.00
1214.212, 13268.00
1215.293, 13086.00
1216.374, 13226.00
1217.456, 13184.00
1218.536, 13288.00
1219.617, 13235.00
1220.698, 13224.00
1221.778, 13159.00
1222.859, 13428.00
1223.939, 13327.16
1225.019, 13671.00
1226.099, 13384.00
1227.178, 13240.00
1228.258, 13377.00
1229.337, 13415.00
1230.417, 13478.00
1231.496, 13431.00
1232.574, 13568.00
1233.653, 13527.00
1234.732, 13726.00
1235.810, 13559.00
1236.888, 13674.00
1237.966, 13576.00
1239.044, 13723.00
1240.122, 13713.00
1241.199, 13865.00
1242.277, 13831.00
1243.354, 13868.00
1244.431, 13797.00
1245.508, 13834.00
1246.585, 13842.00
1247.661, 13921.00
1248.738, 14031.00
1249.814, 14119.00
1250.890, 13929.00
1251.966, 14245.00
1253.042, 14066.00
1254.117, 14229.00
1255.193, 14099.00
1256.268, 14344.00
1257.343, 14177.00
1258.418, 14066.00
1259.493, 14325.00
1260.567, 14260.00
1261.642, 14266.00
1262.716, 14296.00
1263.790, 14327.00
1264.864, 14409.00
1265.938, 14424.00
1267.011, 14378.00
1268.085, 14473.00
1269.158, 14656.00
1270.231, 14562.00
1271.304, 14333.00
1272.377, 14225.00
1273.450, 14436.00
1274.522, 14502.00
1275.594, 14400.00
1276.666, 14240.00
1277.738, 14299.00
1278.810, 14230.00
1279.882, 14201.00
1280.953, 14285.00
1282.025, 14261.00
1283.096, 14121.00
1284.167, 14198.00
1285.238, 14194.00
1286.308, 14277.00
1287.379, 14366.00
1288.449, 14303.00
1289.519, 14282.00
1290.589, 14293.00
1291.659, 14224.00
1292.729, 14252.08
1293.798, 14201.00
1294.868, 14275.00
1295.937, 14297.00
1297.006, 14310.00
1298.075, 14361.00
1299.143, 14249.00
1300.212, 14126.00
1301.280, 14174.00
1302.348, 14162.00
1303.416, 14156.00
1304.484, 14308.00
1305.552, 14164.00
1306.620, 14336.00
1307.687, 14144.00
1308.754, 14158.00
1309.821, 14091.00
1310.888, 14179.00
1311.955, 14046.00
1313.021, 14079.00
1314.088, 14185.00
1315.154, 14028.00
1316.220, 14229.00
1317.286, 14211.00
1318.352, 14120.00
1319.417, 14090.00
1320.483, 14107.00
1321.548, 14118.00
1322.613, 14057.00
1323.678, 14052.00
1324.743, 14075.92
1325.807, 14038.00
1326.872, 14118.00
1327.936, 13975.00
1329.000, 13937.00
1330.064, 14178.00
1331.128, 13824.00
1332.191, 13822.00
1333.255, 14081.00
1334.318, 14260.00
1335.381, 14116.00
1336.444, 14111.00
1337.507, 14122.00
1338.569, 14214.00
1339.632, 14229.00
1340.694, 14387.00
1341.756, 14480.00
1342.818, 14413.00
1343.880, 14354.00
1344.941, 14471.00
1346.003, 14535.81
1347.064, 14635.88
1348.125, 14871.00
1349.186, 14992.00
1350.247, 15240.00
1351.308, 15602.00
1352.368, 15921.00
1353.428, 16461.00
1354.489, 17202.28
1355.549, 17992.00
1356.608, 19033.00
1357.668, 20226.00
1358.727, 21397.00
1359.787, 22186.00
1360.846, 22496.00
1361.905, 22219.00
1362.964, 21483.00
1364.022, 20217.00
1365.081, 19095.00
1366.139, 17849.00
1367.197, 17053.00
1368.255, 16339.00
1369.313, 15823.00
1370.371, 15414.00
1371.428, 15101.79
1372.486, 14978.00
1373.543, 14842.00
1374.600, 14849.00
1375.657, 14953.00
1376.713, 15045.00
1377.770, 15233.00
1378.826, 15322.00
1379.882, 15198.00
1380.938, 15077.00
1381.994, 14943.00
1383.050, 14914.38
1384.106, 14717.00
1385.161, 14876.00
1386.216, 14933.00
1387.271, 14927.00
1388.326, 15221.00
1389.381, 15581.00
1390.435, 16115.00
1391.490, 16806.00
1392.544, 17553.00
1393.598, 18386.00
1394.652, 18804.00
1395.705, 19105.00
1396.759, 18687.00
1397.812, 17983.00
1398.866, 17104.00
1399.919, 16332.00
1400.972, 15547.00
1402.024, 15065.00
1403.077, 14511.00
1404.129, 14178.00
1405.181, 13981.00
1406.233, 13651.00
1407.285, 13639.00
1408.337, 13604.00
1409.389, 13388.00
1410.440, 13420.00
1411.491, 13410.00
1412.542, 13346.00
1413.593, 13294.00
1414.644, 13328.00
1415.695, 13409.00
1416.745, 13504.00
1417.795, 13481.00
1418.845, 13515.00
1419.895, 13799.00
1420.945, 14098.00
1421.995, 14250.00
1423.044, 14587.00
1424.093, 15008.00
1425.142, 14953.00
1426.191, 14980.00
1427.240, 14962.00
1428.289, 14734.00
1429.337, 14578.00
1430.385, 14409.00
1431.433, 14382.00
1432.481, 14264.00
1433.529, 14324.00
1434.577, 14422.00
1435.624, 14473.00
1436.672, 14531.00
1437.719, 14587.00
1438.766, 15020.00
1439.812, 15160.00
1440.859, 15303.00
1441.905, 15544.00
1442.952, 15736.00
1443.998, 15797.00
1445.044, 15873.00
1446.090, 15998.00
1447.135, 15969.00
1448.181, 15864.00
1449.226, 15826.00
1450.271, 15529.00
1451.316, 15578.00
1452.361, 15487.00
1453.405, 15503.00
1454.450, 15551.00
1455.494, 15567.00
1456.538, 15665.09
1457.582, 15809.00
1458.626, 15919.00
1459.670, 16100.00
1460.713, 16335.00
1461.757, 16564.00
1462.800, 16417.00
1463.843, 16527.00
1464.886, 16329.00
1465.928, 16185.00
1466.971, 16249.00
1468.013, 16138.00
1469.055, 15863.00
1470.097, 16039.00
1471.139, 15876.00
1472.181, 15871.00
1473.222, 15892.00
1474.263, 15776.00
1475.305, 15746.00
1476.346, 15644.00
1477.386, 15862.00
1478.427, 15504.00
1479.468, 15771.00
1480.508, 15868.00
1481.548, 15795.58
1482.588, 16060.00
1483.628, 15836.00
1484.668, 15747.00
1485.707, 15715.00
1486.747, 15827.00
1487.786, 15883.00
1488.825, 15875.00
1489.864, 15694.00
1490.902, 15784.00
1491.941, 15704.00
1492.979, 15912.00
1494.017, 15894.00
1495.055, 15801.00
1496.093, 15741.00
1497.131, 15829.00
1498.168, 15827.00
1499.206, 15833.00
1500.243, 15962.00
1501.280, 15918.00
1502.317, 15964.00
1503.354, 15951.00
1504.390, 15962.00
1505.426, 15882.00
1506.463, 16000.00
1507.499, 15872.00
1508.535, 15846.00
1509.570, 15962.00
1510.606, 15908.00
1511.641, 15960.00
1512.676, 16095.00
1513.711, 16076.00
1514.746, 15888.00
1515.781, 15738.00
1516.816, 15920.00
1517.850, 16091.00
1518.884, 15943.00
1519.918, 15898.00
1520.952, 15869.00
1521.986, 15963.00
1523.019, 15779.00
1524.053, 16000.00
1525.086, 15930.00
1526.119, 15960.00
1527.152, 15933.00
1528.185, 16038.00
1529.217, 15978.00
1530.250, 16211.00
1531.282, 16137.00
1532.314, 16130.00
1533.346, 16189.00
1534.377, 16138.01
1535.409, 16188.00
1536.440, 16132.00
1537.472, 16216.00
1538.503, 16250.00
1539.534, 16183.00
1540.564, 16147.00
1541.595, 16444.00
1542.625, 16280.00
1543.656, 16369.00
1544.686, 16473.00
1545.716, 16362.00
1546.745, 16412.00
1547.775, 16502.00
1548.804, 16559.00
1549.834, 16579.00
1550.863, 16750.00
1551.892, 16731.00
1552.920, 16932.00
1553.949, 17027.00
1554.977, 16854.00
1556.006, 16864.00
1557.034, 16866.10
1558.062, 16630.00
1559.089, 16877.00
1560.117, 16851.00
1561.144, 16866.00
1562.172, 16822.00
1563.199, 16743.00
1564.226, 17003.00
1565.252, 16726.00
1566.279, 16915.00
1567.305, 17077.00
1568.332, 17082.00
1569.358, 17036.00
1570.384, 17289.00
1571.409, 17211.00
##END=



