##NAMES=Eudialyte
##RRUFFID=R060035
##IDEAL CHEMISTRY=Na_15_Ca_6_Fe^2+^_3_Zr^4+^_3_Si(Si_25_O_73_)(O,OH,H_2_O)_3_(Cl,OH)_2_
##LOCALITY=Chibini, Kola Peninsula, Russia
##OWNER=RRUFF
##SOURCE=University of Arizona Mineral Museum
##DESCRIPTION=Deep pink coarsely crystalline
##STATUS=The identification of this mineral has been confirmed by X-ray diffraction and chemical analysis
##URL=rruff.info/R060035
##MEASURED CHEMISTRY=(Na_14.86_K_0.14_)_Σ=15_Ca_6.00_(Fe_1.52_Mn_1.48_)_Σ=3_(Zr_2.82_Ti_0.18_)_Σ=3_(Si_0.93_Nb_0.07_)_Σ=1_(Si_25.00_O_73_)((OH)_1.01_(H_2_O)_1.99_)_Σ=3_(Cl_1.65_(OH)_0.35_)_Σ=2_
##PIN_ID=M00465
##ORIENTATION=Laser parallel to a* (1 0 0). Fiducial mark perpendicular to laser is parallel to c [0 0 1]
118.1340, 21126.00
119.3650, 21263.00
120.5960, 21513.00
121.8270, 21784.00
123.0580, 21934.00
124.2880, 22162.00
125.5190, 22242.00
126.7490, 22701.00
127.9790, 22858.00
129.2090, 23378.00
130.4390, 23992.00
131.6680, 24615.00
132.8980, 25180.00
134.1270, 25818.00
135.3560, 26677.00
136.5850, 27577.00
137.8140, 28585.00
139.0430, 29356.00
140.2710, 30000.00
141.5000, 30269.00
142.7280, 30557.00
143.9560, 30601.00
145.1840, 30216.00
146.4120, 29943.00
147.6390, 29422.00
148.8670, 28585.00
150.0940, 27959.00
151.3210, 27265.00
152.5490, 26437.00
153.7750, 26068.00
155.0020, 25294.00
156.2290, 24706.00
157.4550, 24386.00
158.6810, 23908.00
159.9080, 23802.00
161.1340, 23424.00
162.3590, 23399.00
163.5850, 23273.00
164.8110, 23259.00
166.0360, 23088.00
167.2610, 23117.00
168.4860, 22850.00
169.7110, 23069.00
170.9360, 22974.00
172.1610, 22775.00
173.3850, 22811.00
174.6100, 22814.00
175.8340, 22882.00
177.0580, 22914.34
178.2820, 23025.00
179.5050, 23031.00
180.7290, 23106.00
181.9520, 23206.00
183.1760, 23041.00
184.3990, 23398.00
185.6220, 23539.00
186.8450, 23529.00
188.0670, 24017.00
189.2900, 24021.00
190.5120, 24197.00
191.7340, 24321.00
192.9560, 24497.00
194.1780, 24722.00
195.4000, 24789.00
196.6220, 25112.00
197.8430, 25165.00
199.0640, 25325.00
200.2860, 25390.00
201.5070, 25413.00
202.7270, 25102.00
203.9480, 24967.00
205.1690, 24733.00
206.3890, 24590.00
207.6090, 24439.00
208.8290, 24361.00
210.0490, 24189.00
211.2690, 24012.95
212.4890, 24015.00
213.7080, 23637.00
214.9280, 23381.00
216.1470, 23235.00
217.3660, 23150.00
218.5850, 22874.00
219.8030, 22981.00
221.0220, 22787.00
222.2400, 22756.00
223.4590, 22622.00
224.6770, 22753.00
225.8950, 22723.00
227.1120, 22626.00
228.3300, 22800.00
229.5480, 22625.00
230.7650, 22777.00
231.9820, 22757.00
233.1990, 22889.00
234.4160, 23012.83
235.6330, 23017.00
236.8490, 23283.00
238.0660, 23437.00
239.2820, 23548.00
240.4980, 23711.00
241.7140, 23832.60
242.9300, 23961.05
244.1460, 24044.00
245.3610, 24210.00
246.5770, 24224.00
247.7920, 24332.00
249.0070, 24226.00
250.2220, 24149.00
251.4370, 24329.00
252.6510, 24231.00
253.8660, 23907.00
255.0800, 24435.00
256.2940, 24426.00
257.5080, 24580.00
258.7220, 25069.00
259.9360, 24616.00
261.1490, 24305.00
262.3630, 24287.00
263.5760, 24541.00
264.7890, 24334.00
266.0020, 24320.00
267.2150, 24261.00
268.4270, 24284.00
269.6400, 24317.00
270.8520, 24353.19
272.0640, 24522.00
273.2760, 24475.00
274.4880, 24607.00
275.7000, 24639.00
276.9120, 24527.00
278.1230, 24751.00
279.3340, 24634.00
280.5450, 24667.00
281.7560, 24976.00
282.9670, 24800.00
284.1780, 24975.00
285.3880, 25047.00
286.5980, 25145.00
287.8090, 25211.53
289.0190, 25309.00
290.2290, 25263.00
291.4380, 25402.00
292.6480, 25370.00
293.8570, 25600.00
295.0670, 25496.00
296.2760, 25631.00
297.4850, 25551.00
298.6930, 25588.00
299.9020, 25704.00
301.1110, 25656.62
302.3190, 25817.00
303.5270, 25728.00
304.7350, 25929.00
305.9430, 26090.00
307.1510, 25735.00
308.3580, 25969.00
309.5660, 25888.00
310.7730, 26083.00
311.9800, 25742.00
313.1870, 26086.00
314.3940, 25865.00
315.6010, 25967.00
316.8070, 25763.00
318.0130, 25747.00
319.2200, 25909.00
320.4260, 26061.00
321.6310, 25974.00
322.8370, 25803.00
324.0430, 25915.00
325.2480, 26151.00
326.4540, 26294.00
327.6590, 26696.00
328.8640, 26760.00
330.0680, 27013.00
331.2730, 27071.00
332.4780, 27480.00
333.6820, 27630.00
334.8860, 27785.00
336.0900, 28127.00
337.2940, 28150.00
338.4980, 28235.00
339.7010, 28396.00
340.9050, 28497.00
342.1080, 28542.57
343.3110, 28498.00
344.5140, 28578.00
345.7170, 28357.00
346.9200, 28283.00
348.1220, 28295.00
349.3240, 28372.00
350.5270, 28260.00
351.7290, 27981.00
352.9310, 27931.00
354.1320, 28026.00
355.3340, 27862.00
356.5350, 27946.00
357.7370, 27637.00
358.9380, 27390.00
360.1390, 27228.00
361.3400, 27199.00
362.5400, 26917.00
363.7410, 26978.00
364.9410, 26540.00
366.1410, 26242.00
367.3410, 26372.00
368.5410, 26187.00
369.7410, 26117.00
370.9400, 25995.00
372.1400, 25901.00
373.3390, 26125.00
374.5380, 25777.00
375.7370, 25819.00
376.9360, 25992.00
378.1350, 25862.00
379.3330, 25415.00
380.5310, 25606.00
381.7300, 25458.00
382.9280, 25529.00
384.1260, 25679.00
385.3230, 25678.00
386.5210, 25753.00
387.7180, 25838.00
388.9160, 25917.09
390.1130, 26022.74
391.3100, 26176.00
392.5060, 26266.00
393.7030, 26483.00
394.9000, 26666.00
396.0960, 26791.00
397.2920, 26829.46
398.4880, 26959.00
399.6840, 26807.00
400.8800, 26490.00
402.0750, 26459.00
403.2710, 26123.00
404.4660, 25921.00
405.6610, 25690.00
406.8560, 25574.00
408.0510, 25373.00
409.2450, 25120.00
410.4400, 24940.00
411.6340, 24754.00
412.8280, 24733.00
414.0220, 24765.00
415.2160, 24710.00
416.4100, 24554.00
417.6030, 24560.00
418.7970, 24442.49
419.9900, 24259.00
421.1830, 24298.00
422.3760, 24115.00
423.5690, 24095.00
424.7610, 24037.00
425.9540, 23960.00
427.1460, 23935.00
428.3380, 23973.00
429.5300, 23839.00
430.7220, 23780.00
431.9140, 23952.00
433.1050, 23754.00
434.2970, 23881.00
435.4880, 23914.00
436.6790, 23843.00
437.8700, 23841.00
439.0610, 24046.00
440.2510, 24143.00
441.4420, 24158.00
442.6320, 24482.00
443.8220, 24584.00
445.0120, 24634.00
446.2020, 24589.00
447.3910, 24702.00
448.5810, 24611.00
449.7700, 24706.00
450.9600, 24875.00
452.1490, 24884.00
453.3370, 24865.00
454.5260, 24814.00
455.7150, 25051.00
456.9030, 24714.00
458.0910, 24892.00
459.2800, 24684.00
460.4670, 24404.00
461.6550, 24303.00
462.8430, 24135.00
464.0300, 24047.00
465.2180, 24072.00
466.4050, 24189.00
467.5920, 23935.00
468.7790, 24176.00
469.9650, 23919.00
471.1520, 24169.00
472.3380, 24220.00
473.5250, 24364.00
474.7110, 24356.00
475.8970, 24610.00
477.0820, 24533.00
478.2680, 24416.00
479.4540, 24705.00
480.6390, 24609.00
481.8240, 24718.00
483.0090, 24580.00
484.1940, 24747.00
485.3780, 24846.00
486.5630, 25008.00
487.7470, 24944.00
488.9320, 25092.00
490.1160, 25067.00
491.3000, 25154.00
492.4830, 25289.00
493.6670, 25239.00
494.8500, 25301.00
496.0340, 25406.00
497.2170, 25546.00
498.4000, 25597.00
499.5820, 25710.01
500.7650, 25753.00
501.9480, 25914.00
503.1300, 26005.00
504.3120, 26165.65
505.4940, 26131.00
506.6760, 26284.00
507.8580, 26436.00
509.0390, 26211.00
510.2210, 26247.00
511.4020, 26199.00
512.5830, 26269.00
513.7640, 26229.00
514.9450, 26319.00
516.1250, 26372.00
517.3060, 26286.00
518.4860, 26424.00
519.6660, 26457.00
520.8460, 26516.00
522.0260, 26725.00
523.2060, 26939.00
524.3850, 26683.00
525.5650, 26595.00
526.7440, 26725.00
527.9230, 26864.00
529.1020, 26865.00
530.2810, 26976.00
531.4590, 27050.00
532.6380, 27344.00
533.8160, 27223.00
534.9940, 27588.00
536.1720, 27921.00
537.3500, 27942.00
538.5270, 28202.00
539.7050, 28615.00
540.8820, 28872.00
542.0590, 29236.00
543.2360, 30032.00
544.4130, 30533.00
545.5900, 30882.00
546.7660, 31734.00
547.9430, 32377.00
549.1190, 33312.00
550.2950, 34631.00
551.4710, 35643.00
552.6470, 37078.00
553.8220, 38421.00
554.9980, 40036.00
556.1730, 41247.00
557.3480, 42713.00
558.5230, 43695.00
559.6980, 45817.00
560.8730, 47411.00
562.0470, 49763.00
563.2220, 52021.00
564.3960, 53184.00
565.5700, 54094.00
566.7440, 53635.00
567.9170, 52046.00
569.0910, 49557.00
570.2640, 46847.00
571.4380, 43926.00
572.6110, 41001.00
573.7840, 38461.00
574.9570, 36579.00
576.1290, 34585.00
577.3020, 33574.00
578.4740, 32270.00
579.6460, 31545.00
580.8180, 30877.00
581.9900, 30563.00
583.1620, 30338.00
584.3330, 30221.00
585.5040, 30064.00
586.6760, 30265.00
587.8470, 30288.00
589.0180, 30446.00
590.1880, 30431.00
591.3590, 30909.00
592.5290, 31081.00
593.7000, 31703.00
594.8700, 31892.00
596.0400, 32388.00
597.2090, 32986.00
598.3790, 33191.00
599.5490, 33652.00
600.7180, 34167.00
601.8870, 34139.00
603.0560, 34477.00
604.2250, 34293.00
605.3940, 34475.00
606.5620, 34344.00
607.7300, 33958.00
608.8990, 33705.00
610.0670, 33380.00
611.2350, 33050.00
612.4020, 32243.00
613.5700, 32041.00
614.7370, 31458.00
615.9050, 30904.00
617.0720, 30577.00
618.2390, 30104.00
619.4060, 29778.00
620.5720, 29522.00
621.7390, 29261.47
622.9050, 28885.00
624.0710, 28939.00
625.2370, 28659.00
626.4030, 28558.00
627.5690, 28586.00
628.7340, 28234.00
629.9000, 28213.00
631.0650, 28182.00
632.2300, 27948.00
633.3950, 27905.00
634.5600, 27869.00
635.7240, 27678.00
636.8890, 27851.00
638.0530, 27370.00
639.2170, 27479.00
640.3810, 27769.00
641.5450, 27548.00
642.7080, 27588.00
643.8720, 27563.00
645.0350, 27789.00
646.1980, 27743.85
647.3610, 27540.00
648.5240, 27768.00
649.6870, 27839.00
650.8490, 27806.00
652.0120, 27959.00
653.1740, 28086.00
654.3360, 27945.00
655.4980, 28068.00
656.6600, 28242.00
657.8210, 28180.00
658.9830, 28317.00
660.1440, 28624.00
661.3050, 28474.00
662.4660, 28430.00
663.6270, 28971.00
664.7870, 28808.00
665.9480, 29315.00
667.1080, 29414.00
668.2680, 29544.00
669.4280, 29575.00
670.5880, 30151.00
671.7480, 30263.00
672.9070, 30488.00
674.0670, 30623.00
675.2260, 31227.00
676.3850, 31425.00
677.5440, 31784.00
678.7030, 31984.00
679.8610, 32526.00
681.0200, 32962.00
682.1780, 33255.00
683.3360, 33872.00
684.4940, 34614.00
685.6520, 34974.00
686.8090, 35667.00
687.9670, 36245.00
689.1240, 36942.00
690.2810, 37828.00
691.4380, 38742.00
692.5950, 39432.00
693.7520, 40391.98
694.9080, 41134.00
696.0650, 42145.00
697.2210, 43072.00
698.3770, 43884.00
699.5330, 45013.00
700.6880, 45669.00
701.8440, 46261.00
702.9990, 46867.00
704.1550, 47244.00
705.3100, 47401.00
706.4650, 47200.00
707.6190, 46548.00
708.7740, 45524.00
709.9290, 44628.00
711.0830, 43179.00
712.2370, 41720.00
713.3910, 40178.00
714.5450, 38555.00
715.6980, 37198.00
716.8520, 35918.00
718.0050, 34983.00
719.1580, 33872.00
720.3110, 33284.00
721.4640, 32518.00
722.6170, 31770.00
723.7700, 31457.00
724.9220, 31649.00
726.0740, 31191.00
727.2260, 31268.00
728.3780, 30957.00
729.5300, 31256.00
730.6810, 31168.00
731.8330, 31236.00
732.9840, 31477.00
734.1350, 31805.00
735.2860, 31892.00
736.4370, 32418.00
737.5880, 32617.00
738.7380, 33085.00
739.8880, 33293.00
741.0390, 33722.00
742.1890, 34019.00
743.3380, 34377.00
744.4880, 33878.00
745.6380, 33998.00
746.7870, 33698.00
747.9360, 33621.00
749.0850, 33430.00
750.2340, 32940.00
751.3830, 32689.00
752.5310, 32481.00
753.6800, 32077.00
754.8280, 31983.00
755.9760, 31554.00
757.1240, 31628.00
758.2720, 31287.00
759.4190, 30944.00
760.5670, 30947.00
761.7140, 30951.00
762.8610, 30573.00
764.0080, 30372.00
765.1550, 30271.00
766.3020, 30505.00
767.4480, 30096.00
768.5950, 30190.00
769.7410, 30192.00
770.8870, 30058.00
772.0330, 30301.00
773.1780, 30062.00
774.3240, 30085.00
775.4690, 30003.00
776.6140, 29834.00
777.7590, 29861.00
778.9040, 29782.00
780.0490, 29673.00
781.1940, 29606.00
782.3380, 29522.00
783.4820, 29606.00
784.6260, 29331.00
785.7700, 29616.00
786.9140, 29408.00
788.0580, 29238.00
789.2010, 29041.00
790.3450, 28990.00
791.4880, 29069.00
792.6310, 28954.00
793.7730, 29026.00
794.9160, 28754.00
796.0590, 28781.00
797.2010, 29051.00
798.3430, 28895.00
799.4850, 28670.00
800.6270, 28888.00
801.7690, 28620.00
802.9100, 28926.00
804.0520, 28997.00
805.1930, 28944.00
806.3340, 28812.00
807.4750, 28978.00
808.6160, 28675.00
809.7560, 28779.00
810.8970, 28728.00
812.0370, 28890.00
813.1770, 28829.00
814.3170, 28726.00
815.4570, 28755.00
816.5960, 29014.00
817.7360, 28854.00
818.8750, 28750.00
820.0140, 28722.00
821.1530, 29164.00
822.2920, 28990.00
823.4310, 28750.00
824.5690, 29075.00
825.7070, 28893.00
826.8460, 29177.00
827.9840, 29086.00
829.1220, 29284.00
830.2590, 29296.00
831.3970, 29243.00
832.5340, 29199.00
833.6710, 29273.00
834.8080, 29375.00
835.9450, 29488.00
837.0820, 29515.00
838.2190, 29530.00
839.3550, 29390.00
840.4910, 29395.00
841.6270, 29617.00
842.7630, 29512.00
843.8990, 29606.00
845.0350, 29622.00
846.1700, 29813.00
847.3060, 29829.52
848.4410, 29784.00
849.5760, 29917.00
850.7100, 29913.00
851.8450, 29902.00
852.9800, 29949.00
854.1140, 30059.00
855.2480, 30163.00
856.3820, 30452.00
857.5160, 30423.00
858.6500, 30448.00
859.7830, 30201.00
860.9170, 30335.00
862.0500, 30300.00
863.1830, 30353.00
864.3160, 30520.00
865.4480, 30552.00
866.5810, 30641.68
867.7130, 30704.00
868.8460, 30834.00
869.9780, 31021.00
871.1100, 31248.00
872.2410, 30999.00
873.3730, 31368.00
874.5050, 31393.00
875.6360, 31260.00
876.7670, 31517.00
877.8980, 31373.00
879.0290, 31460.00
880.1590, 31541.00
881.2900, 31790.00
882.4200, 31798.00
883.5500, 31778.00
884.6800, 31788.00
885.8100, 32199.00
886.9400, 32230.00
888.0690, 32288.00
889.1990, 32467.00
890.3280, 32209.00
891.4570, 32441.03
892.5860, 32686.00
893.7140, 32781.00
894.8430, 33144.00
895.9710, 33288.00
897.1000, 33752.00
898.2280, 33690.00
899.3560, 34033.00
900.4830, 34253.00
901.6110, 34236.00
902.7380, 34754.00
903.8660, 34946.00
904.9930, 35164.00
906.1200, 35439.00
907.2460, 35422.00
908.3730, 35769.00
909.5000, 35947.00
910.6260, 36004.00
911.7520, 36243.00
912.8780, 36234.00
914.0040, 36384.00
915.1290, 36289.00
916.2550, 36726.00
917.3800, 36797.00
918.5050, 36957.00
919.6300, 36931.00
920.7550, 37284.00
921.8800, 37352.00
923.0040, 37438.00
924.1290, 37487.00
925.2530, 37491.00
926.3770, 37275.00
927.5010, 37393.00
928.6250, 37122.00
929.7480, 36840.00
930.8720, 36935.00
931.9950, 36744.00
933.1180, 36703.00
934.2410, 36604.00
935.3640, 36848.00
936.4860, 36661.00
937.6090, 36986.00
938.7310, 36720.00
939.8530, 37012.00
940.9750, 37006.00
942.0970, 37277.00
943.2180, 37517.00
944.3400, 37448.00
945.4610, 37648.00
946.5820, 37740.00
947.7030, 37977.00
948.8240, 37969.00
949.9450, 38020.00
951.0650, 37986.00
952.1860, 37943.60
953.3060, 38105.00
954.4260, 37833.00
955.5460, 37844.00
956.6650, 37841.00
957.7850, 38132.00
958.9040, 38168.00
960.0230, 37896.00
961.1420, 38011.00
962.2610, 37875.00
963.3800, 38110.00
964.4990, 38134.00
965.6170, 38347.00
966.7350, 38575.00
967.8530, 38605.00
968.9710, 38859.00
970.0890, 39005.00
971.2070, 39243.00
972.3240, 39514.57
973.4410, 39746.00
974.5580, 40069.00
975.6750, 40276.00
976.7920, 40511.00
977.9090, 40910.00
979.0250, 41312.00
980.1410, 41832.00
981.2580, 42239.00
982.3740, 42484.00
983.4890, 42921.00
984.6050, 42976.00
985.7200, 43695.00
986.8360, 44008.00
987.9510, 44894.00
989.0660, 45306.00
990.1810, 45552.00
991.2950, 46233.00
992.4100, 46415.00
993.5240, 46660.00
994.6390, 46849.00
995.7530, 46791.00
996.8660, 46604.00
997.9800, 46934.00
999.0940, 46410.00
1000.207, 46166.00
1001.320, 45614.00
1002.433, 45044.00
1003.546, 44581.00
1004.659, 43823.00
1005.772, 43247.00
1006.884, 42622.00
1007.996, 42263.00
1009.108, 41612.00
1010.220, 41501.00
1011.332, 41092.00
1012.444, 40693.00
1013.555, 40474.00
1014.666, 40026.00
1015.777, 39947.00
1016.888, 39629.00
1017.999, 39606.00
1019.110, 39587.00
1020.220, 39579.00
1021.331, 39532.00
1022.441, 39533.27
1023.551, 39567.11
1024.661, 39616.77
1025.770, 39705.00
1026.880, 39819.00
1027.989, 39979.00
1029.098, 40160.00
1030.207, 40452.00
1031.316, 40540.00
1032.425, 40355.00
1033.533, 40892.00
1034.642, 40696.00
1035.750, 41152.00
1036.858, 41247.00
1037.966, 41629.00
1039.073, 41743.00
1040.181, 42017.00
1041.288, 41907.00
1042.396, 42328.00
1043.503, 42299.00
1044.610, 42531.00
1045.716, 42579.00
1046.823, 42718.00
1047.929, 42755.00
1049.036, 42943.00
1050.142, 43090.00
1051.248, 43223.00
1052.353, 43184.00
1053.459, 43976.00
1054.564, 43895.00
1055.670, 44136.00
1056.775, 44718.00
1057.880, 44560.00
1058.985, 45372.00
1060.089, 45533.00
1061.194, 45833.00
1062.298, 46287.00
1063.402, 46786.00
1064.506, 47261.00
1065.610, 47704.00
1066.713, 47785.00
1067.817, 48103.00
1068.920, 48579.00
1070.023, 48997.00
1071.126, 49286.00
1072.229, 49361.00
1073.332, 49707.00
1074.435, 49866.00
1075.537, 50165.00
1076.639, 50248.00
1077.741, 50924.00
1078.843, 51325.00
1079.945, 51440.00
1081.046, 51845.00
1082.148, 52749.00
1083.249, 53427.00
1084.350, 53679.00
1085.451, 54173.00
1086.551, 54722.00
1087.652, 55191.00
1088.752, 55725.00
1089.853, 55694.00
1090.953, 55887.00
1092.053, 55904.00
1093.152, 55478.00
1094.252, 55063.00
1095.351, 54868.00
1096.451, 53897.00
1097.550, 52608.00
1098.649, 51744.00
1099.748, 50915.00
1100.846, 49622.00
1101.945, 48537.00
1103.043, 47797.00
1104.141, 46727.00
1105.239, 46100.00
1106.337, 45118.00
1107.434, 44373.00
1108.532, 43773.00
1109.629, 43323.00
1110.726, 42867.00
1111.823, 42568.00
1112.920, 42108.00
1114.017, 42145.00
1115.113, 42009.00
1116.210, 41749.00
1117.306, 41845.00
1118.402, 41664.00
1119.498, 41755.00
1120.593, 41909.00
1121.689, 41631.00
1122.784, 41800.00
1123.879, 41844.00
1124.974, 41898.00
1126.069, 41910.00
1127.164, 41782.00
1128.259, 41920.00
1129.353, 41550.00
1130.447, 41452.00
1131.541, 41633.00
1132.635, 41469.00
1133.729, 41506.00
1134.822, 41741.00
1135.916, 41377.00
1137.009, 41438.00
1138.102, 41417.00
1139.195, 41534.00
1140.288, 40897.00
1141.380, 41070.00
1142.473, 40524.00
1143.565, 40074.00
1144.657, 39806.00
1145.749, 39625.00
1146.841, 39612.00
1147.932, 39025.00
1149.024, 38942.00
1150.115, 38604.00
1151.206, 38657.00
1152.297, 38447.00
1153.388, 38311.00
1154.479, 38324.00
1155.569, 38163.00
1156.659, 38260.00
1157.750, 38196.00
1158.839, 38226.00
1159.929, 38153.00
1161.019, 38216.00
1162.108, 38295.00
1163.198, 37943.00
1164.287, 38019.00
1165.376, 38027.00
1166.465, 38147.00
1167.553, 37822.00
1168.642, 37885.00
1169.730, 37906.00
1170.818, 37707.00
1171.906, 37696.00
1172.994, 37853.00
1174.082, 37838.00
1175.170, 37603.00
1176.257, 37778.00
1177.344, 37602.00
1178.431, 37683.00
1179.518, 37803.00
1180.605, 37566.00
1181.691, 37707.00
1182.778, 37755.00
1183.864, 37940.00
1184.950, 38054.00
1186.036, 38032.96
1187.122, 37768.00
1188.207, 37903.00
1189.292, 37788.00
1190.378, 37556.00
1191.463, 38027.00
1192.548, 38005.00
1193.632, 38041.00
1194.717, 37913.00
1195.801, 38081.00
1196.886, 37991.00
1197.970, 37994.14
1199.054, 38138.00
1200.137, 37979.00
1201.221, 38105.00
1202.305, 38139.00
1203.388, 38061.00
1204.471, 38284.00
1205.554, 38019.00
1206.637, 38143.00
1207.719, 38497.00
1208.802, 38232.00
1209.884, 38308.00
1210.966, 38121.00
1212.048, 38409.00
1213.130, 38194.00
1214.212, 38307.00
1215.293, 38462.00
1216.374, 38321.00
1217.456, 38355.00
1218.536, 38198.00
1219.617, 38286.00
1220.698, 38276.00
1221.778, 37937.00
1222.859, 38292.00
1223.939, 37989.00
1225.019, 38227.00
1226.099, 38150.00
1227.178, 38509.00
1228.258, 38044.00
1229.337, 38559.00
1230.417, 38354.00
1231.496, 38419.00
1232.574, 38248.00
1233.653, 38523.00
1234.732, 38273.00
1235.810, 38514.00
1236.888, 38480.00
1237.966, 38363.00
1239.044, 38301.00
1240.122, 38331.00
1241.199, 38396.00
1242.277, 38261.00
1243.354, 38573.00
1244.431, 38429.00
1245.508, 38418.00
1246.585, 38634.00
1247.661, 38576.00
1248.738, 38638.00
1249.814, 38702.00
1250.890, 38912.00
1251.966, 38631.00
1253.042, 38675.00
1254.117, 38897.00
1255.193, 38741.00
1256.268, 38684.00
1257.343, 38765.00
1258.418, 38807.00
1259.493, 38591.00
1260.567, 38711.00
1261.642, 38942.00
1262.716, 38862.00
1263.790, 39128.00
1264.864, 39203.00
1265.938, 39184.00
1267.011, 39317.00
1268.085, 39119.00
1269.158, 39289.00
1270.231, 39112.00
1271.304, 39081.00
1272.377, 38827.00
1273.450, 39041.00
1274.522, 39011.00
1275.594, 39167.00
1276.666, 39380.00
1277.738, 39310.00
1278.810, 39338.00
1279.882, 39262.00
1280.953, 39390.00
1282.025, 39288.00
1283.096, 39190.00
1284.167, 39433.00
1285.238, 39481.00
1286.308, 39268.00
1287.379, 39262.00
1288.449, 39544.00
1289.519, 39398.00
1290.589, 39559.00
1291.659, 39734.00
1292.729, 39518.00
1293.798, 39645.00
1294.868, 39782.00
1295.937, 39822.00
1297.006, 39833.13
1298.075, 39892.00
1299.143, 39770.00
1300.212, 39719.00
1301.280, 39711.00
1302.348, 39726.00
1303.416, 39640.00
1304.484, 40108.00
1305.552, 39872.00
1306.620, 40081.00
1307.687, 39981.00
1308.754, 40007.00
1309.821, 40223.00
1310.888, 40323.00
1311.955, 40088.00
1313.021, 40307.00
1314.088, 40058.00
1315.154, 40377.00
1316.220, 40435.00
1317.286, 40118.00
1318.352, 40313.00
1319.417, 40433.00
1320.483, 40805.00
1321.548, 40272.00
1322.613, 40450.00
1323.678, 40466.00
1324.743, 40715.00
1325.807, 40432.00
1326.872, 40509.00
1327.936, 40834.00
1329.000, 40399.00
1330.064, 40685.00
1331.128, 40828.00
1332.191, 40945.00
1333.255, 40540.00
1334.318, 40940.00
1335.381, 40607.00
1336.444, 40805.00
1337.507, 40755.00
1338.569, 40882.00
1339.632, 40984.00
1340.694, 41084.00
1341.756, 41127.00
1342.818, 41035.00
1343.880, 41048.00
1344.941, 41249.00
1346.003, 41230.00
1347.064, 41049.00
1348.125, 41207.00
1349.186, 41121.00
1350.247, 41420.00
1351.308, 41340.00
1352.368, 41247.00
1353.428, 41272.00
1354.489, 41412.00
1355.549, 41473.00
1356.608, 41457.00
1357.668, 41451.00
1358.727, 41659.00
1359.787, 41554.00
1360.846, 41607.00
1361.905, 41697.00
1362.964, 41895.00
1364.022, 41832.00
1365.081, 41590.00
1366.139, 41849.00
1367.197, 41731.00
1368.255, 41947.00
1369.313, 41707.00
1370.371, 41966.00
1371.428, 41878.00
1372.486, 42160.00
1373.543, 42208.00
1374.600, 41941.00
1375.657, 41999.00
1376.713, 42107.00
1377.770, 42362.00
1378.826, 42211.00
1379.882, 42339.00
1380.938, 42432.00
1381.994, 42294.00
1383.050, 42208.00
1384.106, 42583.00
1385.161, 42717.00
1386.216, 42250.00
1387.271, 42453.00
1388.326, 42416.00
1389.381, 42434.00
1390.435, 42676.00
1391.490, 42779.00
1392.544, 42590.00
1393.598, 42675.00
1394.652, 42804.00
1395.705, 42788.00
1396.759, 42864.56
1397.812, 42855.00
1398.866, 42942.00
1399.919, 42914.00
1400.972, 42981.00
1402.024, 42970.00
1403.077, 43189.00
1404.129, 43202.00
1405.181, 43341.00
1406.233, 43392.29
1407.285, 43447.70
1408.337, 43477.00
1409.389, 43432.00
1410.440, 43503.00
1411.491, 43230.00
1412.542, 43200.00
1413.593, 43506.00
1414.644, 43881.00
1415.695, 43661.00
1416.745, 43715.00
1417.795, 43916.00
1418.845, 43889.00
1419.895, 43936.00
1420.945, 44015.55
1421.995, 44129.00
1423.044, 44143.00
1424.093, 44030.00
1425.142, 44163.00
1426.191, 44197.89
1427.240, 44291.00
1428.289, 44451.00
1429.337, 44538.00
1430.385, 44767.00
1431.433, 44477.00
1432.481, 44803.00
1433.529, 45038.00
1434.577, 44758.00
1435.624, 44675.00
1436.672, 45128.00
1437.719, 45123.00
1438.766, 45066.00
1439.812, 45388.00
1440.859, 45323.00
1441.905, 45259.00
1442.952, 45341.00
1443.998, 45541.00
1445.044, 45298.00
1446.090, 45620.00
1447.135, 45705.00
1448.181, 45839.00
1449.226, 45808.00
1450.271, 45901.00
1451.316, 46263.00
1452.361, 45985.00
1453.405, 46155.00
1454.450, 45974.00
1455.494, 45668.00
1456.538, 46243.00
1457.582, 46090.00
1458.626, 46171.00
1459.670, 46306.00
1460.713, 46388.00
1461.757, 46327.00
1462.800, 46531.00
1463.843, 46474.00
1464.886, 46406.00
1465.928, 46436.00
1466.971, 46254.00
1468.013, 46322.00
1469.055, 46799.00
1470.097, 46657.00
1471.139, 46601.00
1472.181, 46878.00
1473.222, 46717.00
1474.263, 47113.00
1475.305, 47029.00
1476.346, 47059.00
1477.386, 46897.00
1478.427, 46977.33
1479.468, 47268.00
1480.508, 47210.00
1481.548, 47303.00
1482.588, 47691.00
1483.628, 47264.00
1484.668, 47455.00
1485.707, 47317.00
1486.747, 47616.00
1487.786, 47574.00
1488.825, 47964.00
1489.864, 47918.00
1490.902, 47957.00
1491.941, 47928.00
1492.979, 47995.00
1494.017, 47871.00
1495.055, 48245.00
1496.093, 48230.00
1497.131, 48164.00
1498.168, 48064.00
1499.206, 48208.00
1500.243, 48330.00
1501.280, 48323.00
1502.317, 48654.00
1503.354, 48539.00
1504.390, 48866.00
1505.426, 48754.00
1506.463, 48780.00
1507.499, 48596.00
1508.535, 48817.00
1509.570, 48812.00
1510.606, 48747.00
1511.641, 48858.00
1512.676, 49160.00
1513.711, 48828.00
1514.746, 48885.00
1515.781, 48922.00
1516.816, 48696.00
1517.850, 49043.00
1518.884, 49035.00
1519.918, 49064.00
1520.952, 49050.00
1521.986, 49197.00
1523.019, 48966.00
1524.053, 49068.00
1525.086, 48862.00
1526.119, 49122.00
1527.152, 49024.00
1528.185, 48987.00
1529.217, 49281.00
1530.250, 49095.00
1531.282, 49148.00
1532.314, 49325.00
1533.346, 49229.00
1534.377, 49299.00
1535.409, 49047.00
1536.440, 49272.00
1537.472, 49340.00
1538.503, 49146.00
1539.534, 49299.00
1540.564, 48853.00
1541.595, 49207.00
1542.625, 49300.00
1543.656, 49648.00
1544.686, 49371.00
1545.716, 49505.00
1546.745, 49578.00
1547.775, 49529.00
1548.804, 49762.00
1549.834, 50018.00
1550.863, 49923.00
1551.892, 50064.00
1552.920, 49875.00
1553.949, 49948.00
1554.977, 50058.00
1556.006, 49688.00
1557.034, 50021.00
1558.062, 50046.00
1559.089, 49903.00
1560.117, 50071.00
1561.144, 49749.00
1562.172, 50104.00
1563.199, 50040.00
1564.226, 50202.00
1565.252, 50010.00
1566.279, 50324.00
1567.305, 50015.00
1568.332, 50363.00
1569.358, 49817.00
1570.384, 50240.00
1571.409, 50308.00
1572.435, 50587.00
##END=



