##NAMES=Eudialyte
##RRUFFID=R060206
##IDEAL CHEMISTRY=Na_15_Ca_6_Fe^2+^_3_Zr^4+^_3_Si(Si_25_O_73_)(O,OH,H_2_O)_3_(Cl,OH)_2_
##LOCALITY=Desourdy Quarry, Mont Saint-Hilaire, Rouville County, Quebec, Canada
##OWNER=RRUFF
##SOURCE=Royal Ontario Museum
##DESCRIPTION=Yellowish-brown gemmy fragment
##STATUS=The identification of this mineral is confirmed by single-crystal X-ray diffraction and chemical analysis.
##URL=rruff.info/R060206
##MEASURED CHEMISTRY=(Na_13.12_Ca_1.62_K_0.26_)_Σ=15_(Ca_4.47_Mn_1.00_Ce_0.32_La_0.21_)_Σ=6_(Fe_2.91_Mn_0.09_)_Σ=3_Zr_3.00_(Si_0.85_Nb_0.15_)_Σ=1_Si_25.00_O_73_((OH)_2.70_O_0.30_)_Σ=3_(Cl_1.20_(OH)_0.80_)_Σ=2_
##PIN_ID=M00202
##ORIENTATION=Laser parallel to -c* (0 0 -1). Fiducial mark perpendicular to laser is parallel to a [1 0 0]
118.1340, 23094.00
119.3650, 22975.00
120.5960, 23124.39
121.8270, 23093.00
123.0580, 23289.00
124.2880, 23420.00
125.5190, 23302.00
126.7490, 23503.00
127.9790, 23757.00
129.2090, 24352.00
130.4390, 24711.00
131.6680, 25189.00
132.8980, 25415.00
134.1270, 25826.00
135.3560, 26475.00
136.5850, 26723.00
137.8140, 26901.00
139.0430, 27342.00
140.2710, 27343.00
141.5000, 26894.00
142.7280, 26594.00
143.9560, 26520.00
145.1840, 25838.00
146.4120, 25393.00
147.6390, 24834.00
148.8670, 24311.00
150.0940, 23841.00
151.3210, 23818.00
152.5490, 23524.00
153.7750, 22927.00
155.0020, 22968.00
156.2290, 22549.00
157.4550, 22720.00
158.6810, 22722.00
159.9080, 22652.00
161.1340, 22555.00
162.3590, 22698.00
163.5850, 22659.00
164.8110, 23026.00
166.0360, 23214.00
167.2610, 23309.00
168.4860, 23392.00
169.7110, 23757.00
170.9360, 24128.00
172.1610, 24358.00
173.3850, 24642.00
174.6100, 25103.00
175.8340, 25448.00
177.0580, 26422.00
178.2820, 26949.00
179.5050, 27610.00
180.7290, 28729.00
181.9520, 29694.00
183.1760, 30533.00
184.3990, 31898.00
185.6220, 33107.00
186.8450, 34290.00
188.0670, 35839.00
189.2900, 37047.00
190.5120, 38924.00
191.7340, 40389.00
192.9560, 42240.00
194.1780, 44131.00
195.4000, 45302.00
196.6220, 47224.00
197.8430, 48831.00
199.0640, 50082.00
200.2860, 50618.00
201.5070, 51549.00
202.7270, 51669.00
203.9480, 51271.00
205.1690, 50412.00
206.3890, 49570.00
207.6090, 47909.00
208.8290, 46901.00
210.0490, 45223.00
211.2690, 43198.00
212.4890, 41416.00
213.7080, 39693.00
214.9280, 37714.00
216.1470, 35746.00
217.3660, 33908.00
218.5850, 32251.00
219.8030, 30744.00
221.0220, 29432.00
222.2400, 28178.00
223.4590, 27054.49
224.6770, 25669.00
225.8950, 25045.00
227.1120, 23933.00
228.3300, 22956.00
229.5480, 22374.00
230.7650, 21896.00
231.9820, 21274.00
233.1990, 20841.00
234.4160, 20207.00
235.6330, 19960.00
236.8490, 19229.00
238.0660, 18942.00
239.2820, 18598.00
240.4980, 18136.00
241.7140, 17908.00
242.9300, 17689.00
244.1460, 17399.00
245.3610, 17074.00
246.5770, 16905.00
247.7920, 16784.00
249.0070, 16737.00
250.2220, 16638.00
251.4370, 16565.00
252.6510, 16743.00
253.8660, 16755.00
255.0800, 16950.00
256.2940, 17440.00
257.5080, 17598.33
258.7220, 17774.22
259.9360, 18193.00
261.1490, 17975.00
262.3630, 18113.00
263.5760, 18167.00
264.7890, 18806.00
266.0020, 19070.00
267.2150, 19574.00
268.4270, 19919.00
269.6400, 20286.00
270.8520, 20662.00
272.0640, 20982.00
273.2760, 21222.00
274.4880, 21410.23
275.7000, 21513.14
276.9120, 21636.00
278.1230, 21590.00
279.3340, 21644.00
280.5450, 21678.00
281.7560, 21757.32
282.9670, 21829.47
284.1780, 21959.00
285.3880, 22018.00
286.5980, 22082.00
287.8090, 22205.00
289.0190, 22260.00
290.2290, 22251.00
291.4380, 22423.00
292.6480, 22457.00
293.8570, 22696.00
295.0670, 22371.00
296.2760, 22440.00
297.4850, 22251.00
298.6930, 22478.00
299.9020, 22754.00
301.1110, 22531.00
302.3190, 22278.00
303.5270, 22059.00
304.7350, 22001.00
305.9430, 22082.00
307.1510, 21752.00
308.3580, 21505.00
309.5660, 21211.00
310.7730, 20884.00
311.9800, 20617.00
313.1870, 20302.00
314.3940, 19997.00
315.6010, 19599.00
316.8070, 19316.00
318.0130, 19184.00
319.2200, 19077.00
320.4260, 18962.00
321.6310, 18999.00
322.8370, 19061.00
324.0430, 19113.00
325.2480, 19485.00
326.4540, 19620.00
327.6590, 20017.00
328.8640, 20469.00
330.0680, 20782.00
331.2730, 21094.00
332.4780, 21317.66
333.6820, 21467.41
334.8860, 21563.00
336.0900, 21580.00
337.2940, 21506.00
338.4980, 21377.00
339.7010, 20955.00
340.9050, 20690.00
342.1080, 20362.00
343.3110, 20201.00
344.5140, 20057.00
345.7170, 19732.00
346.9200, 19793.00
348.1220, 19546.00
349.3240, 19648.00
350.5270, 19604.00
351.7290, 19669.00
352.9310, 19784.00
354.1320, 19771.00
355.3340, 19900.00
356.5350, 19817.00
357.7370, 19655.00
358.9380, 19787.00
360.1390, 19395.00
361.3400, 19327.00
362.5400, 18979.00
363.7410, 18924.00
364.9410, 18497.23
366.1410, 18185.00
367.3410, 17828.00
368.5410, 17595.00
369.7410, 17649.00
370.9400, 17375.00
372.1400, 17378.00
373.3390, 17288.16
374.5380, 17004.00
375.7370, 17154.00
376.9360, 17178.00
378.1350, 17146.00
379.3330, 17712.00
380.5310, 17610.00
381.7300, 17929.00
382.9280, 18377.00
384.1260, 18753.00
385.3230, 19348.00
386.5210, 19671.00
387.7180, 20055.00
388.9160, 20529.00
390.1130, 20634.00
391.3100, 20813.00
392.5060, 20849.00
393.7030, 20565.00
394.9000, 20583.00
396.0960, 20325.00
397.2920, 19769.00
398.4880, 19223.00
399.6840, 18702.00
400.8800, 18266.00
402.0750, 17760.00
403.2710, 17160.00
404.4660, 16982.00
405.6610, 16368.00
406.8560, 16330.00
408.0510, 15886.00
409.2450, 16006.00
410.4400, 15599.00
411.6340, 15412.00
412.8280, 15244.00
414.0220, 15089.00
415.2160, 14921.00
416.4100, 14720.20
417.6030, 14553.00
418.7970, 14279.00
419.9900, 14044.81
421.1830, 13764.00
422.3760, 13457.00
423.5690, 13105.00
424.7610, 12749.00
425.9540, 12455.00
427.1460, 12266.00
428.3380, 12047.00
429.5300, 11872.00
430.7220, 11734.00
431.9140, 11576.84
433.1050, 11479.65
434.2970, 11351.00
435.4880, 11350.00
436.6790, 11306.00
437.8700, 11338.79
439.0610, 11306.00
440.2510, 11382.00
441.4420, 11340.00
442.6320, 11380.00
443.8220, 11089.00
445.0120, 10999.00
446.2020, 10713.00
447.3910, 10806.00
448.5810, 10505.00
449.7700, 10417.00
450.9600, 10384.00
452.1490, 10221.00
453.3370, 10132.00
454.5260, 9986.000
455.7150, 9981.000
456.9030, 9905.000
458.0910, 9834.000
459.2800, 9703.000
460.4670, 9706.000
461.6550, 9709.000
462.8430, 9460.000
464.0300, 9594.000
465.2180, 9472.000
466.4050, 9532.000
467.5920, 9383.000
468.7790, 9344.000
469.9650, 9523.000
471.1520, 9473.000
472.3380, 9498.840
473.5250, 9497.834
474.7110, 9502.000
475.8970, 9385.000
477.0820, 9408.000
478.2680, 9300.000
479.4540, 9367.000
480.6390, 9382.000
481.8240, 9224.000
483.0090, 9196.000
484.1940, 9165.000
485.3780, 9186.000
486.5630, 9307.000
487.7470, 9296.000
488.9320, 9360.000
490.1160, 9252.000
491.3000, 9275.000
492.4830, 9513.000
493.6670, 9523.000
494.8500, 9660.000
496.0340, 9772.158
497.2170, 9822.562
498.4000, 10001.00
499.5820, 10015.00
500.7650, 10201.00
501.9480, 10408.00
503.1300, 10632.00
504.3120, 10825.00
505.4940, 11039.12
506.6760, 11362.00
507.8580, 11454.00
509.0390, 11720.00
510.2210, 11934.00
511.4020, 12096.00
512.5830, 12322.00
513.7640, 12681.00
514.9450, 12888.00
516.1250, 13147.00
517.3060, 13539.00
518.4860, 13982.00
519.6660, 14563.00
520.8460, 14875.00
522.0260, 15320.00
523.2060, 15508.00
524.3850, 15990.03
525.5650, 16240.71
526.7440, 16804.00
527.9230, 16921.00
529.1020, 17177.00
530.2810, 17765.00
531.4590, 18101.00
532.6380, 18694.00
533.8160, 19179.00
534.9940, 20021.00
536.1720, 20880.00
537.3500, 21876.00
538.5270, 22644.00
539.7050, 23631.00
540.8820, 24283.00
542.0590, 25003.00
543.2360, 25806.00
544.4130, 26665.00
545.5900, 27611.00
546.7660, 28858.00
547.9430, 30363.00
549.1190, 32014.00
550.2950, 34137.00
551.4710, 37105.00
552.6470, 39750.00
553.8220, 42744.00
554.9980, 45728.00
556.1730, 48171.00
557.3480, 49782.00
558.5230, 50804.00
559.6980, 50489.00
560.8730, 50975.00
562.0470, 51368.00
563.2220, 52864.00
564.3960, 55214.00
565.5700, 56393.00
566.7440, 56803.00
567.9170, 55675.00
569.0910, 52054.00
570.2640, 47370.00
571.4380, 42149.00
572.6110, 37103.00
573.7840, 32328.00
574.9570, 28177.00
576.1290, 25194.00
577.3020, 22692.00
578.4740, 20742.00
579.6460, 18866.00
580.8180, 17604.00
581.9900, 16537.00
583.1620, 15817.00
584.3330, 14989.00
585.5040, 14439.00
586.6760, 14141.00
587.8470, 14008.00
589.0180, 13732.00
590.1880, 13863.00
591.3590, 14092.00
592.5290, 14346.00
593.7000, 14613.00
594.8700, 14887.00
596.0400, 15577.00
597.2090, 16029.00
598.3790, 16807.00
599.5490, 17706.00
600.7180, 18493.00
601.8870, 19615.00
603.0560, 20357.00
604.2250, 21395.00
605.3940, 22054.00
606.5620, 23143.00
607.7300, 23619.00
608.8990, 23945.00
610.0670, 24107.00
611.2350, 24051.00
612.4020, 23833.00
613.5700, 23371.00
614.7370, 22756.00
615.9050, 22174.00
617.0720, 21673.00
618.2390, 21259.00
619.4060, 20908.63
620.5720, 20478.00
621.7390, 20505.00
622.9050, 20408.00
624.0710, 20522.00
625.2370, 20457.00
626.4030, 20708.00
627.5690, 20545.00
628.7340, 20529.00
629.9000, 19917.00
631.0650, 19294.00
632.2300, 18920.00
633.3950, 18163.00
634.5600, 17690.00
635.7240, 17205.00
636.8890, 16616.00
638.0530, 16308.00
639.2170, 16042.00
640.3810, 15638.00
641.5450, 15531.00
642.7080, 15400.00
643.8720, 15128.00
645.0350, 15040.00
646.1980, 14911.19
647.3610, 14754.00
648.5240, 14796.00
649.6870, 14784.00
650.8490, 14870.00
652.0120, 14982.75
653.1740, 14969.00
654.3360, 15246.00
655.4980, 15481.00
656.6600, 15555.00
657.8210, 15773.26
658.9830, 15739.00
660.1440, 16046.00
661.3050, 16167.00
662.4660, 16275.00
663.6270, 16583.00
664.7870, 16875.00
665.9480, 17073.00
667.1080, 17439.00
668.2680, 17753.00
669.4280, 18137.00
670.5880, 18641.00
671.7480, 19145.00
672.9070, 19725.00
674.0670, 20325.95
675.2260, 20928.00
676.3850, 21649.00
677.5440, 22315.00
678.7030, 23065.00
679.8610, 23682.00
681.0200, 24570.00
682.1780, 25467.00
683.3360, 25748.00
684.4940, 26640.00
685.6520, 27217.00
686.8090, 27936.00
687.9670, 29006.00
689.1240, 29769.00
690.2810, 30673.00
691.4380, 31670.00
692.5950, 32495.00
693.7520, 33577.00
694.9080, 34931.00
696.0650, 36187.00
697.2210, 37283.00
698.3770, 39017.00
699.5330, 40233.00
700.6880, 41925.00
701.8440, 43251.00
702.9990, 44590.00
704.1550, 45632.00
705.3100, 47254.00
706.4650, 47349.00
707.6190, 47795.00
708.7740, 47307.00
709.9290, 46755.00
711.0830, 45838.00
712.2370, 43646.00
713.3910, 42437.00
714.5450, 40930.00
715.6980, 39595.00
716.8520, 38774.00
718.0050, 38057.00
719.1580, 37914.00
720.3110, 38931.00
721.4640, 39226.00
722.6170, 40085.00
723.7700, 41348.00
724.9220, 42770.00
726.0740, 44529.00
727.2260, 46091.00
728.3780, 48082.00
729.5300, 50328.00
730.6810, 51681.00
731.8330, 53834.00
732.9840, 55555.00
734.1350, 57386.00
735.2860, 58547.00
736.4370, 59767.00
737.5880, 61134.00
738.7380, 61668.00
739.8880, 62068.00
741.0390, 62423.00
742.1890, 62449.00
743.3380, 61941.00
744.4880, 61336.00
745.6380, 60249.00
746.7870, 59281.00
747.9360, 57916.00
749.0850, 57072.00
750.2340, 56093.00
751.3830, 55414.00
752.5310, 55036.00
753.6800, 54827.00
754.8280, 54541.00
755.9760, 54333.00
757.1240, 53595.00
758.2720, 52961.00
759.4190, 52238.00
760.5670, 51175.00
761.7140, 50293.00
762.8610, 49121.00
764.0080, 47730.00
765.1550, 46242.00
766.3020, 45028.00
767.4480, 43393.00
768.5950, 42187.00
769.7410, 40733.00
770.8870, 39284.00
772.0330, 37901.00
773.1780, 36321.00
774.3240, 34794.00
775.4690, 33399.00
776.6140, 32058.00
777.7590, 30709.00
778.9040, 29521.00
780.0490, 28305.00
781.1940, 27528.00
782.3380, 26702.00
783.4820, 25533.00
784.6260, 25107.00
785.7700, 24273.28
786.9140, 23487.00
788.0580, 22925.00
789.2010, 22512.00
790.3450, 21670.00
791.4880, 20986.00
792.6310, 20557.00
793.7730, 19865.00
794.9160, 19287.00
796.0590, 18778.00
797.2010, 18323.00
798.3430, 18102.00
799.4850, 17686.00
800.6270, 17417.00
801.7690, 17368.00
802.9100, 17223.00
804.0520, 17183.00
805.1930, 17216.00
806.3340, 17438.00
807.4750, 17558.00
808.6160, 17815.00
809.7560, 18102.82
810.8970, 18457.30
812.0370, 18709.00
813.1770, 19260.00
814.3170, 19485.00
815.4570, 19773.00
816.5960, 20019.00
817.7360, 19952.00
818.8750, 19971.00
820.0140, 20135.00
821.1530, 19704.00
822.2920, 19441.00
823.4310, 18929.00
824.5690, 18715.00
825.7070, 18127.00
826.8460, 17646.00
827.9840, 17165.00
829.1220, 16746.97
830.2590, 16307.00
831.3970, 16062.00
832.5340, 15805.00
833.6710, 15609.00
834.8080, 15357.00
835.9450, 15152.00
837.0820, 14909.00
838.2190, 14635.55
839.3550, 14153.00
840.4910, 14003.00
841.6270, 13669.00
842.7630, 13195.00
843.8990, 12920.00
845.0350, 12704.00
846.1700, 12517.00
847.3060, 12410.00
848.4410, 12139.00
849.5760, 12110.00
850.7100, 11795.00
851.8450, 11708.00
852.9800, 11635.00
854.1140, 11369.00
855.2480, 11270.00
856.3820, 11265.00
857.5160, 11271.00
858.6500, 11158.00
859.7830, 11167.00
860.9170, 11092.00
862.0500, 11008.00
863.1830, 11092.00
864.3160, 10981.00
865.4480, 10930.00
866.5810, 10835.00
867.7130, 11003.00
868.8460, 11026.00
869.9780, 11217.00
871.1100, 11218.00
872.2410, 11196.00
873.3730, 11295.00
874.5050, 11301.00
875.6360, 11368.00
876.7670, 11522.00
877.8980, 11555.00
879.0290, 11465.00
880.1590, 11631.00
881.2900, 11673.00
882.4200, 11919.00
883.5500, 11977.00
884.6800, 12252.00
885.8100, 12354.00
886.9400, 12414.00
888.0690, 12719.00
889.1990, 12970.00
890.3280, 13021.00
891.4570, 13182.00
892.5860, 13397.00
893.7140, 13679.00
894.8430, 13871.09
895.9710, 14224.00
897.1000, 14351.00
898.2280, 14487.00
899.3560, 14753.00
900.4830, 15010.00
901.6110, 15285.00
902.7380, 15465.00
903.8660, 15773.92
904.9930, 15907.00
906.1200, 16317.00
907.2460, 16519.00
908.3730, 16730.00
909.5000, 17049.00
910.6260, 17315.00
911.7520, 17652.00
912.8780, 17987.00
914.0040, 18200.00
915.1290, 18237.00
916.2550, 18509.00
917.3800, 19117.00
918.5050, 19404.00
919.6300, 20023.00
920.7550, 20699.00
921.8800, 21252.00
923.0040, 21978.00
924.1290, 22775.00
925.2530, 23546.00
926.3770, 24525.00
927.5010, 25122.00
928.6250, 25988.00
929.7480, 26772.00
930.8720, 27074.00
931.9950, 27840.00
933.1180, 28071.00
934.2410, 28327.00
935.3640, 28324.00
936.4860, 28059.00
937.6090, 28055.00
938.7310, 27647.00
939.8530, 26956.00
940.9750, 26387.00
942.0970, 25861.35
943.2180, 25383.00
944.3400, 24704.00
945.4610, 24183.00
946.5820, 23501.00
947.7030, 23128.00
948.8240, 22654.00
949.9450, 21971.00
951.0650, 21346.00
952.1860, 20527.00
953.3060, 20107.00
954.4260, 19618.00
955.5460, 19172.00
956.6650, 18971.00
957.7850, 18637.00
958.9040, 18447.00
960.0230, 18278.00
961.1420, 18241.00
962.2610, 18142.29
963.3800, 17965.00
964.4990, 18092.00
965.6170, 18179.00
966.7350, 18201.81
967.8530, 18658.00
968.9710, 18596.00
970.0890, 18525.00
971.2070, 18951.00
972.3240, 18852.00
973.4410, 19038.00
974.5580, 19385.00
975.6750, 19526.00
976.7920, 19525.00
977.9090, 19824.00
979.0250, 20021.89
980.1410, 20158.55
981.2580, 20605.00
982.3740, 20594.00
983.4890, 20881.00
984.6050, 21275.00
985.7200, 21578.00
986.8360, 22006.00
987.9510, 22560.00
989.0660, 23035.00
990.1810, 23620.00
991.2950, 24315.00
992.4100, 24836.00
993.5240, 25619.00
994.6390, 26346.00
995.7530, 26623.00
996.8660, 27067.00
997.9800, 27601.00
999.0940, 27997.00
1000.207, 27995.00
1001.320, 28289.00
1002.433, 28184.00
1003.546, 28372.00
1004.659, 28329.00
1005.772, 28236.00
1006.884, 28241.00
1007.996, 28078.00
1009.108, 28049.89
1010.220, 27860.00
1011.332, 27890.00
1012.444, 27777.00
1013.555, 27615.00
1014.666, 27500.00
1015.777, 27284.29
1016.888, 26882.00
1017.999, 26838.00
1019.110, 26587.00
1020.220, 26354.00
1021.331, 26297.00
1022.441, 26083.00
1023.551, 25999.00
1024.661, 25775.00
1025.770, 25594.00
1026.880, 25429.00
1027.989, 25197.00
1029.098, 25063.00
1030.207, 24860.00
1031.316, 24674.00
1032.425, 24491.00
1033.533, 24039.00
1034.642, 23812.00
1035.750, 23536.00
1036.858, 23294.00
1037.966, 22737.00
1039.073, 22614.00
1040.181, 22331.83
1041.288, 22164.00
1042.396, 22000.00
1043.503, 21763.00
1044.610, 21704.00
1045.716, 21624.00
1046.823, 21613.00
1047.929, 21757.41
1049.036, 22003.00
1050.142, 22268.00
1051.248, 22529.00
1052.353, 23064.00
1053.459, 23556.00
1054.564, 24237.00
1055.670, 24945.00
1056.775, 25497.00
1057.880, 26485.00
1058.985, 27402.00
1060.089, 28191.00
1061.194, 29290.00
1062.298, 30884.00
1063.402, 32776.00
1064.506, 34528.00
1065.610, 36416.00
1066.713, 39029.00
1067.817, 40886.00
1068.920, 41545.00
1070.023, 40936.00
1071.126, 40729.00
1072.229, 40512.00
1073.332, 39593.00
1074.435, 38988.00
1075.537, 38025.00
1076.639, 37087.00
1077.741, 35910.00
1078.843, 34998.00
1079.945, 34124.00
1081.046, 32858.00
1082.148, 32138.00
1083.249, 31505.00
1084.350, 30679.00
1085.451, 30276.00
1086.551, 29983.00
1087.652, 29705.00
1088.752, 29479.00
1089.853, 29221.00
1090.953, 28965.00
1092.053, 28495.00
1093.152, 28495.00
1094.252, 28076.00
1095.351, 27607.00
1096.451, 27119.00
1097.550, 26497.00
1098.649, 25816.00
1099.748, 24962.00
1100.846, 24068.00
1101.945, 23008.00
1103.043, 21715.00
1104.141, 21043.00
1105.239, 20118.00
1106.337, 19110.00
1107.434, 18662.00
1108.532, 17930.00
1109.629, 17518.00
1110.726, 16903.00
1111.823, 16373.00
1112.920, 16249.00
1114.017, 15813.00
1115.113, 15621.00
1116.210, 15426.00
1117.306, 15350.00
1118.402, 15354.00
1119.498, 15094.00
1120.593, 15051.00
1121.689, 15041.00
1122.784, 14900.00
1123.879, 14979.00
1124.974, 14742.00
1126.069, 14664.00
1127.164, 14454.00
1128.259, 14403.00
1129.353, 14139.00
1130.447, 14112.00
1131.541, 14011.00
1132.635, 13891.00
1133.729, 13817.00
1134.822, 13741.00
1135.916, 13617.00
1137.009, 13459.00
1138.102, 13480.00
1139.195, 13148.00
1140.288, 13250.00
1141.380, 13266.00
1142.473, 13130.00
1143.565, 12950.00
1144.657, 13060.00
1145.749, 12711.00
1146.841, 12608.00
1147.932, 12615.00
1149.024, 12464.00
1150.115, 12347.00
1151.206, 12405.00
1152.297, 12372.00
1153.388, 12335.00
1154.479, 12266.24
1155.569, 12179.80
1156.659, 12049.00
1157.750, 12000.00
1158.839, 11881.00
1159.929, 11858.00
1161.019, 11867.00
1162.108, 11967.00
1163.198, 11811.00
1164.287, 11932.00
1165.376, 11768.00
1166.465, 11724.00
1167.553, 11816.00
1168.642, 11826.00
1169.730, 11803.00
1170.818, 11820.00
1171.906, 11826.00
1172.994, 11799.00
1174.082, 11789.83
1175.170, 11749.00
1176.257, 11757.00
1177.344, 11697.00
1178.431, 11723.00
1179.518, 11619.00
1180.605, 11658.00
1181.691, 11764.00
1182.778, 11509.00
1183.864, 11653.00
1184.950, 11559.00
1186.036, 11444.00
1187.122, 11535.00
1188.207, 11388.00
1189.292, 11379.00
1190.378, 11350.00
1191.463, 11374.00
1192.548, 11366.00
1193.632, 11420.00
1194.717, 11432.00
1195.801, 11441.00
1196.886, 11236.00
1197.970, 11219.00
1199.054, 11238.00
1200.137, 11283.00
1201.221, 11279.00
1202.305, 11145.00
1203.388, 11215.00
1204.471, 11071.00
1205.554, 11203.00
1206.637, 11145.00
1207.719, 11236.00
1208.802, 11170.00
1209.884, 11080.00
1210.966, 11203.00
1212.048, 11178.00
1213.130, 11054.00
1214.212, 11135.00
1215.293, 11093.00
1216.374, 11039.00
1217.456, 11062.00
1218.536, 11127.00
1219.617, 11018.00
1220.698, 11159.00
1221.778, 11059.00
1222.859, 11212.00
1223.939, 11208.00
1225.019, 11104.00
1226.099, 11157.00
1227.178, 11293.00
1228.258, 11373.00
1229.337, 11223.00
1230.417, 11041.14
1231.496, 11224.54
1232.574, 11330.01
1233.653, 11361.76
1234.732, 11098.93
1235.810, 11216.48
1236.888, 11181.58
1237.966, 11140.44
1239.044, 11311.52
1240.122, 11091.53
1241.199, 11259.25
1242.277, 11272.20
1243.354, 11355.98
1244.431, 11286.38
1245.508, 11264.15
1246.585, 11395.36
1247.661, 11441.60
1248.738, 11354.34
1249.814, 11309.00
1250.890, 11241.00
1251.966, 11272.00
1253.042, 11127.00
1254.117, 11164.00
1255.193, 11144.00
1256.268, 11114.00
1257.343, 11195.00
1258.418, 11227.00
1259.493, 11198.00
1260.567, 11153.00
1261.642, 11271.00
1262.716, 11447.00
1263.790, 11250.00
1264.864, 11371.00
1265.938, 11417.00
1267.011, 11287.00
1268.085, 11396.00
1269.158, 11346.00
1270.231, 11227.00
1271.304, 11307.00
1272.377, 11284.00
1273.450, 11314.00
1274.522, 11377.00
1275.594, 11322.00
1276.666, 11228.00
1277.738, 11258.00
1278.810, 11276.00
1279.882, 11304.00
1280.953, 11215.00
1282.025, 11104.00
1283.096, 11257.00
1284.167, 11213.00
1285.238, 11240.00
1286.308, 11142.00
1287.379, 11306.00
1288.449, 11109.00
1289.519, 11355.00
1290.589, 11164.00
1291.659, 11151.00
1292.729, 11354.00
1293.798, 11181.00
1294.868, 11420.00
1295.937, 11234.00
1297.006, 11338.00
1298.075, 11343.43
1299.143, 11230.49
1300.212, 11332.00
1301.280, 11163.00
1302.348, 11139.00
1303.416, 11309.00
1304.484, 11183.00
1305.552, 11131.00
1306.620, 11133.00
1307.687, 11229.00
1308.754, 11330.00
1309.821, 11196.00
1310.888, 11185.00
1311.955, 11182.00
1313.021, 11254.00
1314.088, 11161.00
1315.154, 11213.00
1316.220, 11199.00
1317.286, 11267.00
1318.352, 11342.00
1319.417, 11321.00
1320.483, 11297.00
1321.548, 11265.00
1322.613, 11286.00
1323.678, 11227.00
1324.743, 11296.00
1325.807, 11136.00
1326.872, 11355.00
1327.936, 11202.00
1329.000, 11206.00
1330.064, 11283.00
1331.128, 11205.00
1332.191, 11194.00
1333.255, 11239.00
1334.318, 11275.00
1335.381, 11189.00
1336.444, 11211.00
1337.507, 11194.00
1338.569, 11330.00
1339.632, 11198.00
1340.694, 11273.00
1341.756, 11319.00
1342.818, 11272.00
1343.880, 11265.00
1344.941, 11279.00
1346.003, 11361.00
1347.064, 11273.00
1348.125, 11411.00
1349.186, 11276.00
1350.247, 11299.00
1351.308, 11476.00
1352.368, 11481.00
1353.428, 11510.00
1354.489, 11504.00
1355.549, 11546.00
1356.608, 11625.00
1357.668, 11615.00
1358.727, 11648.00
1359.787, 11664.00
1360.846, 11489.00
1361.905, 11634.00
1362.964, 11506.00
1364.022, 11607.00
1365.081, 11575.00
1366.139, 11533.00
1367.197, 11500.00
1368.255, 11480.00
1369.313, 11553.00
1370.371, 11461.00
1371.428, 11558.00
1372.486, 11489.00
1373.543, 11551.00
1374.600, 11477.00
1375.657, 11554.00
1376.713, 11435.00
1377.770, 11505.00
1378.826, 11474.00
1379.882, 11524.00
1380.938, 11551.00
1381.994, 11489.00
1383.050, 11460.00
1384.106, 11511.00
1385.161, 11516.00
1386.216, 11548.00
1387.271, 11615.00
1388.326, 11493.00
1389.381, 11729.00
1390.435, 11705.00
1391.490, 11598.00
1392.544, 11726.00
1393.598, 11743.00
1394.652, 11725.00
1395.705, 11821.00
1396.759, 11715.00
1397.812, 11685.00
1398.866, 11675.00
1399.919, 11535.00
1400.972, 11634.00
1402.024, 11595.00
1403.077, 11568.00
1404.129, 11518.00
1405.181, 11701.00
1406.233, 11526.00
1407.285, 11652.00
1408.337, 11578.00
1409.389, 11512.00
1410.440, 11591.00
1411.491, 11643.00
1412.542, 11680.00
1413.593, 11736.00
1414.644, 11648.00
1415.695, 11715.00
1416.745, 11692.00
1417.795, 11681.00
1418.845, 11687.00
1419.895, 11855.00
1420.945, 11708.00
1421.995, 11832.00
1423.044, 11841.00
1424.093, 11772.00
1425.142, 12043.00
1426.191, 11823.00
1427.240, 12062.00
1428.289, 11951.00
1429.337, 11972.00
1430.385, 12009.55
1431.433, 11967.60
1432.481, 11997.00
1433.529, 11986.00
1434.577, 12002.00
1435.624, 12051.00
1436.672, 12000.00
1437.719, 12059.67
1438.766, 11963.93
1439.812, 12147.36
1440.859, 12259.97
1441.905, 12305.53
1442.952, 12083.32
1443.998, 12206.89
1445.044, 12191.88
1446.090, 12171.18
1447.135, 12343.40
1448.181, 12160.12
1449.226, 12329.28
1450.271, 12357.74
1451.316, 12450.60
1452.361, 12404.01
1453.405, 12400.48
1454.450, 12536.45
1455.494, 12595.16
1456.538, 12532.51
1457.582, 12629.44
1458.626, 12441.24
1459.670, 12503.25
1460.713, 12673.18
1461.757, 12617.54
1462.800, 12716.99
1463.843, 12757.37
1464.886, 12506.00
1465.928, 12567.00
1466.971, 12641.00
1468.013, 12631.00
1469.055, 12553.00
1470.097, 12646.00
1471.139, 12591.00
1472.181, 12754.00
1473.222, 12715.00
1474.263, 12542.00
1475.305, 12518.00
1476.346, 12606.00
1477.386, 12600.00
1478.427, 12653.00
1479.468, 12549.00
1480.508, 12615.00
1481.548, 12623.00
1482.588, 12647.00
1483.628, 12713.00
1484.668, 12659.00
1485.707, 12735.00
1486.747, 12702.00
1487.786, 12901.00
1488.825, 12654.00
1489.864, 12907.00
1490.902, 12892.00
1491.941, 12838.00
1492.979, 12863.00
1494.017, 12847.00
1495.055, 12796.00
1496.093, 12834.00
1497.131, 12701.00
1498.168, 12944.00
1499.206, 12697.00
1500.243, 12926.00
1501.280, 12874.00
1502.317, 12798.00
1503.354, 12916.00
1504.390, 12947.00
1505.426, 13083.00
1506.463, 13119.00
1507.499, 13125.72
1508.535, 12872.00
1509.570, 13093.00
1510.606, 13017.00
1511.641, 12975.00
1512.676, 13030.00
1513.711, 13010.00
1514.746, 12949.00
1515.781, 13071.00
1516.816, 13057.42
1517.850, 13066.00
1518.884, 13145.00
1519.918, 13141.00
1520.952, 13169.00
1521.986, 13167.00
1523.019, 12995.00
1524.053, 13143.00
1525.086, 13277.00
1526.119, 13122.00
1527.152, 13058.00
1528.185, 13043.00
1529.217, 13056.00
1530.250, 13166.00
1531.282, 13237.00
1532.314, 13078.00
1533.346, 13283.00
1534.377, 13332.00
1535.409, 13064.00
1536.440, 13087.00
1537.472, 13142.00
1538.503, 13303.00
1539.534, 13197.00
1540.564, 13259.73
1541.595, 13198.00
1542.625, 13198.00
1543.656, 13240.00
1544.686, 13138.00
1545.716, 13378.00
1546.745, 13325.00
1547.775, 13106.00
1548.804, 13435.00
1549.834, 13316.65
1550.863, 13386.85
1551.892, 13491.00
1552.920, 13375.00
1553.949, 13425.03
1554.977, 13396.00
1556.006, 13365.00
1557.034, 13244.00
1558.062, 13193.00
1559.089, 13369.00
1560.117, 13471.00
1561.144, 13406.00
1562.172, 13518.00
1563.199, 13370.00
1564.226, 13268.00
1565.252, 13416.00
1566.279, 13372.00
1567.305, 13540.00
1568.332, 13616.00
1569.358, 13496.00
1570.384, 13557.00
1571.409, 13629.00
##END=



