##NAMES=Eudialyte
##RRUFFID=R060035
##IDEAL CHEMISTRY=Na_15_Ca_6_Fe^2+^_3_Zr^4+^_3_Si(Si_25_O_73_)(O,OH,H_2_O)_3_(Cl,OH)_2_
##LOCALITY=Chibini, Kola Peninsula, Russia
##OWNER=RRUFF
##SOURCE=University of Arizona Mineral Museum
##DESCRIPTION=Deep pink coarsely crystalline
##STATUS=The identification of this mineral has been confirmed by X-ray diffraction and chemical analysis
##URL=rruff.info/R060035
##MEASURED CHEMISTRY=(Na_14.86_K_0.14_)_Σ=15_Ca_6.00_(Fe_1.52_Mn_1.48_)_Σ=3_(Zr_2.82_Ti_0.18_)_Σ=3_(Si_0.93_Nb_0.07_)_Σ=1_(Si_25.00_O_73_)((OH)_1.01_(H_2_O)_1.99_)_Σ=3_(Cl_1.65_(OH)_0.35_)_Σ=2_
##PIN_ID=M00150
##ORIENTATION=Laser parallel to c* (0 0 1). Fiducial mark perpendicular to laser is parallel to b [0 1 0]
118.1340, 23005.00
119.3650, 22934.00
120.5960, 22988.00
121.8270, 23181.00
123.0580, 23091.00
124.2880, 23413.00
125.5190, 23397.00
126.7490, 23217.00
127.9790, 23804.00
129.2090, 23774.00
130.4390, 23948.00
131.6680, 24053.00
132.8980, 24318.00
134.1270, 24699.00
135.3560, 24804.00
136.5850, 24994.00
137.8140, 25350.00
139.0430, 25520.00
140.2710, 25672.00
141.5000, 25811.00
142.7280, 25857.00
143.9560, 25737.00
145.1840, 25625.00
146.4120, 25511.00
147.6390, 25363.53
148.8670, 25280.45
150.0940, 25093.00
151.3210, 25086.00
152.5490, 25026.00
153.7750, 24910.00
155.0020, 24649.00
156.2290, 24642.00
157.4550, 24525.00
158.6810, 24591.00
159.9080, 24681.00
161.1340, 24471.00
162.3590, 24670.00
163.5850, 24844.00
164.8110, 24877.00
166.0360, 24901.00
167.2610, 24994.24
168.4860, 25123.00
169.7110, 25113.00
170.9360, 25220.00
172.1610, 25322.00
173.3850, 25357.00
174.6100, 25371.00
175.8340, 25719.00
177.0580, 25655.00
178.2820, 25842.00
179.5050, 26292.00
180.7290, 26518.00
181.9520, 26940.00
183.1760, 27090.00
184.3990, 27497.00
185.6220, 28038.00
186.8450, 28622.00
188.0670, 28846.00
189.2900, 29649.00
190.5120, 30201.00
191.7340, 30902.00
192.9560, 31650.00
194.1780, 32538.00
195.4000, 32858.00
196.6220, 33926.00
197.8430, 34092.00
199.0640, 34540.00
200.2860, 35108.00
201.5070, 35442.00
202.7270, 35811.00
203.9480, 35252.00
205.1690, 35396.00
206.3890, 35210.00
207.6090, 34762.00
208.8290, 34556.00
210.0490, 34115.00
211.2690, 33652.00
212.4890, 33231.00
213.7080, 32437.00
214.9280, 32224.00
216.1470, 31857.00
217.3660, 31180.00
218.5850, 30877.00
219.8030, 30122.00
221.0220, 29727.00
222.2400, 29283.00
223.4590, 28938.00
224.6770, 28362.00
225.8950, 28168.00
227.1120, 27656.00
228.3300, 27400.00
229.5480, 26918.00
230.7650, 26827.00
231.9820, 26483.00
233.1990, 26307.00
234.4160, 26059.00
235.6330, 25756.00
236.8490, 25703.00
238.0660, 25476.00
239.2820, 25365.00
240.4980, 25122.00
241.7140, 25216.00
242.9300, 24901.00
244.1460, 25030.00
245.3610, 24757.00
246.5770, 24835.00
247.7920, 24933.00
249.0070, 24803.00
250.2220, 25092.00
251.4370, 25141.00
252.6510, 24891.00
253.8660, 25049.00
255.0800, 25170.00
256.2940, 25326.00
257.5080, 25804.00
258.7220, 26228.00
259.9360, 26065.00
261.1490, 25957.00
262.3630, 25893.00
263.5760, 26067.00
264.7890, 26201.00
266.0020, 26401.00
267.2150, 26516.00
268.4270, 26785.00
269.6400, 26537.00
270.8520, 26862.00
272.0640, 27050.00
273.2760, 26789.00
274.4880, 27026.00
275.7000, 26806.00
276.9120, 26686.00
278.1230, 26695.00
279.3340, 26656.00
280.5450, 26540.00
281.7560, 26487.00
282.9670, 26651.00
284.1780, 26602.00
285.3880, 26702.00
286.5980, 26652.00
287.8090, 26705.00
289.0190, 26752.00
290.2290, 26825.00
291.4380, 26931.00
292.6480, 27012.39
293.8570, 27078.19
295.0670, 27180.10
296.2760, 27211.00
297.4850, 27361.00
298.6930, 27451.00
299.9020, 27541.00
301.1110, 27521.00
302.3190, 27756.00
303.5270, 27812.00
304.7350, 27756.00
305.9430, 28090.00
307.1510, 28163.00
308.3580, 28211.00
309.5660, 28191.00
310.7730, 27992.00
311.9800, 28247.00
313.1870, 27959.00
314.3940, 27904.00
315.6010, 27888.00
316.8070, 27759.00
318.0130, 27796.00
319.2200, 27767.00
320.4260, 27811.00
321.6310, 27982.00
322.8370, 28074.00
324.0430, 27925.00
325.2480, 27790.00
326.4540, 27837.00
327.6590, 28039.00
328.8640, 27965.00
330.0680, 28253.00
331.2730, 28080.00
332.4780, 28409.00
333.6820, 28396.00
334.8860, 28486.00
336.0900, 28365.00
337.2940, 28596.00
338.4980, 28352.00
339.7010, 28463.00
340.9050, 28416.00
342.1080, 28399.00
343.3110, 28344.00
344.5140, 28046.00
345.7170, 28181.00
346.9200, 28047.00
348.1220, 28290.00
349.3240, 28148.00
350.5270, 28239.00
351.7290, 28148.00
352.9310, 28161.00
354.1320, 28034.00
355.3340, 27897.00
356.5350, 28064.00
357.7370, 28033.00
358.9380, 27764.00
360.1390, 27561.00
361.3400, 27766.00
362.5400, 27560.00
363.7410, 27679.00
364.9410, 27371.00
366.1410, 27221.00
367.3410, 27094.00
368.5410, 26929.00
369.7410, 26833.00
370.9400, 26905.00
372.1400, 26819.00
373.3390, 26793.00
374.5380, 26823.00
375.7370, 26807.00
376.9360, 26729.76
378.1350, 26663.00
379.3330, 26584.00
380.5310, 26461.00
381.7300, 26455.00
382.9280, 26569.00
384.1260, 26806.00
385.3230, 26720.00
386.5210, 26638.00
387.7180, 26978.00
388.9160, 27200.00
390.1130, 27359.00
391.3100, 27626.00
392.5060, 27708.00
393.7030, 27990.00
394.9000, 28129.00
396.0960, 27944.00
397.2920, 28333.00
398.4880, 28189.00
399.6840, 28287.00
400.8800, 27965.00
402.0750, 27967.00
403.2710, 27863.00
404.4660, 27745.00
405.6610, 27435.00
406.8560, 27214.00
408.0510, 27168.00
409.2450, 27151.00
410.4400, 26757.00
411.6340, 26833.00
412.8280, 26718.00
414.0220, 26450.00
415.2160, 26358.00
416.4100, 26579.00
417.6030, 26366.00
418.7970, 26239.00
419.9900, 26010.00
421.1830, 26119.00
422.3760, 25755.00
423.5690, 26019.00
424.7610, 25832.00
425.9540, 25830.00
427.1460, 25675.00
428.3380, 25614.00
429.5300, 25752.00
430.7220, 25679.00
431.9140, 25732.00
433.1050, 25682.00
434.2970, 25788.00
435.4880, 25928.00
436.6790, 25747.00
437.8700, 26048.00
439.0610, 26290.00
440.2510, 26041.00
441.4420, 26360.00
442.6320, 26390.00
443.8220, 26507.00
445.0120, 26475.00
446.2020, 26611.00
447.3910, 26511.00
448.5810, 26695.00
449.7700, 26771.00
450.9600, 26571.00
452.1490, 26577.00
453.3370, 26505.00
454.5260, 26654.00
455.7150, 26385.00
456.9030, 26549.00
458.0910, 26214.00
459.2800, 26260.00
460.4670, 26145.00
461.6550, 25989.00
462.8430, 25950.09
464.0300, 25734.00
465.2180, 25724.00
466.4050, 25721.00
467.5920, 25552.00
468.7790, 25405.00
469.9650, 25528.00
471.1520, 25263.00
472.3380, 25274.00
473.5250, 25421.00
474.7110, 25338.00
475.8970, 25516.00
477.0820, 25309.00
478.2680, 25435.00
479.4540, 25595.00
480.6390, 25231.00
481.8240, 25635.00
483.0090, 25569.00
484.1940, 25851.00
485.3780, 25909.00
486.5630, 25951.00
487.7470, 25826.00
488.9320, 25973.00
490.1160, 25917.00
491.3000, 26279.00
492.4830, 26285.00
493.6670, 26394.00
494.8500, 26433.00
496.0340, 26405.00
497.2170, 26453.00
498.4000, 26608.00
499.5820, 26883.00
500.7650, 26745.00
501.9480, 26979.00
503.1300, 27086.00
504.3120, 27088.00
505.4940, 27330.00
506.6760, 27630.00
507.8580, 27756.00
509.0390, 27758.00
510.2210, 27765.00
511.4020, 27914.00
512.5830, 28136.00
513.7640, 27947.00
514.9450, 28026.00
516.1250, 28341.00
517.3060, 28076.00
518.4860, 28307.00
519.6660, 28611.00
520.8460, 28537.00
522.0260, 29018.00
523.2060, 28575.00
524.3850, 28864.00
525.5650, 29141.00
526.7440, 28991.00
527.9230, 29344.00
529.1020, 29404.56
530.2810, 29419.00
531.4590, 29765.00
532.6380, 29933.00
533.8160, 30327.00
534.9940, 30713.00
536.1720, 31513.00
537.3500, 31848.00
538.5270, 32668.00
539.7050, 33375.00
540.8820, 34198.00
542.0590, 35042.00
543.2360, 36273.00
544.4130, 36909.00
545.5900, 38018.00
546.7660, 39061.00
547.9430, 39801.00
549.1190, 41196.00
550.2950, 42435.00
551.4710, 43681.00
552.6470, 45153.00
553.8220, 46895.00
554.9980, 48060.00
556.1730, 49014.00
557.3480, 49978.00
558.5230, 50349.00
559.6980, 50313.00
560.8730, 50267.00
562.0470, 50735.00
563.2220, 51022.00
564.3960, 51698.00
565.5700, 51206.00
566.7440, 50071.00
567.9170, 48903.00
569.0910, 46770.00
570.2640, 44394.00
571.4380, 41987.00
572.6110, 39635.00
573.7840, 37882.00
574.9570, 35768.00
576.1290, 34325.00
577.3020, 33150.00
578.4740, 32145.00
579.6460, 31405.00
580.8180, 30780.00
581.9900, 30477.00
583.1620, 30298.00
584.3330, 29961.00
585.5040, 29894.00
586.6760, 29740.00
587.8470, 29697.00
589.0180, 30113.00
590.1880, 29892.00
591.3590, 30342.00
592.5290, 30389.00
593.7000, 30928.00
594.8700, 30670.00
596.0400, 31091.00
597.2090, 31557.00
598.3790, 31896.00
599.5490, 32083.00
600.7180, 32378.51
601.8870, 32531.00
603.0560, 32731.00
604.2250, 32802.00
605.3940, 32903.00
606.5620, 32896.00
607.7300, 33098.00
608.8990, 32844.00
610.0670, 32839.00
611.2350, 32926.00
612.4020, 32472.00
613.5700, 32473.00
614.7370, 31836.00
615.9050, 32115.00
617.0720, 31189.00
618.2390, 31169.00
619.4060, 30986.00
620.5720, 30847.00
621.7390, 30880.00
622.9050, 30875.00
624.0710, 30835.00
625.2370, 30780.00
626.4030, 30935.00
627.5690, 31062.00
628.7340, 30976.00
629.9000, 30801.00
631.0650, 30714.00
632.2300, 30615.00
633.3950, 30414.00
634.5600, 30058.00
635.7240, 30095.00
636.8890, 29691.00
638.0530, 29791.00
639.2170, 29502.00
640.3810, 29318.00
641.5450, 29022.00
642.7080, 28870.00
643.8720, 28905.00
645.0350, 29099.00
646.1980, 28913.00
647.3610, 28969.00
648.5240, 29124.00
649.6870, 29021.00
650.8490, 29189.00
652.0120, 29175.00
653.1740, 29216.00
654.3360, 29340.00
655.4980, 29606.00
656.6600, 29561.00
657.8210, 29746.00
658.9830, 29702.00
660.1440, 29765.00
661.3050, 29689.00
662.4660, 30047.00
663.6270, 29942.00
664.7870, 30417.00
665.9480, 30400.00
667.1080, 30413.00
668.2680, 30833.00
669.4280, 30901.00
670.5880, 30666.00
671.7480, 31012.00
672.9070, 31215.00
674.0670, 31380.00
675.2260, 31591.00
676.3850, 31692.00
677.5440, 32032.00
678.7030, 32399.00
679.8610, 32412.00
681.0200, 32961.00
682.1780, 33295.00
683.3360, 33415.00
684.4940, 34044.00
685.6520, 34378.00
686.8090, 34890.00
687.9670, 35452.00
689.1240, 35838.00
690.2810, 36286.00
691.4380, 37158.00
692.5950, 37561.00
693.7520, 38149.00
694.9080, 38909.00
696.0650, 39272.00
697.2210, 40015.00
698.3770, 40583.00
699.5330, 41286.00
700.6880, 41767.00
701.8440, 42184.00
702.9990, 42926.00
704.1550, 42876.00
705.3100, 43059.00
706.4650, 43099.00
707.6190, 42706.00
708.7740, 41955.00
709.9290, 41356.00
711.0830, 40701.00
712.2370, 39642.00
713.3910, 38688.00
714.5450, 37397.00
715.6980, 36852.00
716.8520, 35815.00
718.0050, 34789.00
719.1580, 34231.00
720.3110, 33750.00
721.4640, 33082.00
722.6170, 32725.00
723.7700, 32633.00
724.9220, 32485.00
726.0740, 32455.00
727.2260, 32326.00
728.3780, 32291.00
729.5300, 32469.00
730.6810, 32547.62
731.8330, 32850.00
732.9840, 32999.00
734.1350, 33366.00
735.2860, 33702.00
736.4370, 34277.00
737.5880, 34440.00
738.7380, 34925.00
739.8880, 35065.00
741.0390, 35545.00
742.1890, 35675.00
743.3380, 35977.00
744.4880, 36063.00
745.6380, 36315.00
746.7870, 36209.00
747.9360, 36219.00
749.0850, 35852.00
750.2340, 35557.00
751.3830, 35552.00
752.5310, 35245.43
753.6800, 35259.00
754.8280, 34976.00
755.9760, 34916.00
757.1240, 34971.00
758.2720, 35041.00
759.4190, 34714.00
760.5670, 34689.00
761.7140, 34692.00
762.8610, 34458.00
764.0080, 34590.00
765.1550, 34316.00
766.3020, 34346.00
767.4480, 34395.00
768.5950, 33867.00
769.7410, 33995.00
770.8870, 33940.00
772.0330, 34143.00
773.1780, 34161.00
774.3240, 34086.00
775.4690, 33923.00
776.6140, 33961.45
777.7590, 34052.00
778.9040, 33899.00
780.0490, 33888.00
781.1940, 33769.00
782.3380, 33870.00
783.4820, 33646.00
784.6260, 33634.00
785.7700, 33474.00
786.9140, 33318.00
788.0580, 33092.20
789.2010, 32859.00
790.3450, 32556.00
791.4880, 32176.00
792.6310, 31959.00
793.7730, 31772.00
794.9160, 31664.00
796.0590, 31459.00
797.2010, 31351.81
798.3430, 31060.00
799.4850, 31129.00
800.6270, 30918.00
801.7690, 30821.00
802.9100, 30768.00
804.0520, 30738.00
805.1930, 30718.32
806.3340, 30732.77
807.4750, 30757.00
808.6160, 30788.00
809.7560, 30859.00
810.8970, 30873.00
812.0370, 30875.00
813.1770, 30828.00
814.3170, 30687.00
815.4570, 30869.00
816.5960, 31014.00
817.7360, 31024.00
818.8750, 30899.00
820.0140, 30852.00
821.1530, 31083.00
822.2920, 30876.00
823.4310, 31025.00
824.5690, 31072.00
825.7070, 30986.00
826.8460, 31151.00
827.9840, 31182.00
829.1220, 31190.00
830.2590, 31122.00
831.3970, 31145.00
832.5340, 31079.00
833.6710, 31212.00
834.8080, 31204.00
835.9450, 31056.00
837.0820, 31219.00
838.2190, 31251.00
839.3550, 31393.00
840.4910, 31496.00
841.6270, 31599.00
842.7630, 31684.67
843.8990, 31382.00
845.0350, 31749.00
846.1700, 31701.00
847.3060, 31559.00
848.4410, 31771.00
849.5760, 31692.00
850.7100, 31781.00
851.8450, 31774.00
852.9800, 31756.00
854.1140, 31800.00
855.2480, 31833.77
856.3820, 31956.00
857.5160, 31969.00
858.6500, 32042.00
859.7830, 32145.00
860.9170, 32151.00
862.0500, 32176.00
863.1830, 32417.00
864.3160, 32238.00
865.4480, 32452.00
866.5810, 33004.00
867.7130, 32693.00
868.8460, 32881.00
869.9780, 32942.00
871.1100, 32971.00
872.2410, 33115.00
873.3730, 33212.00
874.5050, 33268.00
875.6360, 33409.00
876.7670, 33581.00
877.8980, 33576.00
879.0290, 33724.00
880.1590, 33700.00
881.2900, 33914.00
882.4200, 33952.82
883.5500, 34120.00
884.6800, 34081.00
885.8100, 34176.00
886.9400, 34184.00
888.0690, 34299.00
889.1990, 34532.00
890.3280, 34620.00
891.4570, 34841.00
892.5860, 35046.00
893.7140, 35396.00
894.8430, 35585.00
895.9710, 35597.00
897.1000, 36043.00
898.2280, 36257.00
899.3560, 36745.00
900.4830, 36779.00
901.6110, 37387.00
902.7380, 37918.00
903.8660, 38059.00
904.9930, 38274.00
906.1200, 38647.00
907.2460, 39080.00
908.3730, 39203.00
909.5000, 39708.00
910.6260, 39977.00
911.7520, 40256.00
912.8780, 40515.00
914.0040, 40794.00
915.1290, 40934.00
916.2550, 41518.00
917.3800, 41923.00
918.5050, 42205.00
919.6300, 42473.00
920.7550, 42599.00
921.8800, 42711.84
923.0040, 42638.00
924.1290, 42667.00
925.2530, 42450.00
926.3770, 42156.00
927.5010, 41791.00
928.6250, 41621.00
929.7480, 41643.00
930.8720, 41205.00
931.9950, 40839.00
933.1180, 40318.00
934.2410, 40221.00
935.3640, 40307.00
936.4860, 39577.00
937.6090, 39514.00
938.7310, 39521.00
939.8530, 39173.00
940.9750, 39337.00
942.0970, 39232.00
943.2180, 38904.00
944.3400, 38929.00
945.4610, 39230.00
946.5820, 38922.00
947.7030, 39147.00
948.8240, 38788.00
949.9450, 38842.00
951.0650, 38856.00
952.1860, 38735.00
953.3060, 38584.00
954.4260, 38588.00
955.5460, 38557.00
956.6650, 38412.38
957.7850, 38464.00
958.9040, 38209.00
960.0230, 38169.00
961.1420, 38173.00
962.2610, 38125.00
963.3800, 38018.00
964.4990, 38076.00
965.6170, 38253.00
966.7350, 37950.00
967.8530, 38186.00
968.9710, 38117.00
970.0890, 38184.00
971.2070, 38356.00
972.3240, 38527.00
973.4410, 38523.00
974.5580, 38716.00
975.6750, 38628.00
976.7920, 38925.00
977.9090, 38926.00
979.0250, 39067.00
980.1410, 39159.00
981.2580, 39495.00
982.3740, 39704.00
983.4890, 39790.00
984.6050, 39918.00
985.7200, 40173.00
986.8360, 40294.00
987.9510, 40630.00
989.0660, 40628.00
990.1810, 40976.00
991.2950, 41228.00
992.4100, 41534.00
993.5240, 41517.00
994.6390, 41567.00
995.7530, 41626.00
996.8660, 41706.00
997.9800, 41623.00
999.0940, 41665.00
1000.207, 41617.00
1001.320, 41430.00
1002.433, 41563.00
1003.546, 41164.00
1004.659, 40729.00
1005.772, 40811.00
1006.884, 40617.00
1007.996, 40648.00
1009.108, 40254.00
1010.220, 40208.00
1011.332, 39857.00
1012.444, 39791.00
1013.555, 39707.00
1014.666, 39800.00
1015.777, 39618.00
1016.888, 39762.00
1017.999, 39410.00
1019.110, 39491.00
1020.220, 39669.00
1021.331, 39836.00
1022.441, 39614.00
1023.551, 39647.00
1024.661, 40022.00
1025.770, 39707.00
1026.880, 39828.00
1027.989, 39650.00
1029.098, 39921.00
1030.207, 40059.00
1031.316, 39840.00
1032.425, 40004.00
1033.533, 39589.00
1034.642, 40077.00
1035.750, 39969.00
1036.858, 40200.00
1037.966, 40084.00
1039.073, 40376.00
1040.181, 40327.00
1041.288, 40178.00
1042.396, 40139.00
1043.503, 40245.00
1044.610, 40246.00
1045.716, 40301.00
1046.823, 40273.00
1047.929, 40250.00
1049.036, 40253.91
1050.142, 40524.00
1051.248, 40283.00
1052.353, 40428.00
1053.459, 40595.00
1054.564, 41000.00
1055.670, 41013.30
1056.775, 41271.00
1057.880, 41280.00
1058.985, 41297.00
1060.089, 41613.00
1061.194, 41690.00
1062.298, 41943.00
1063.402, 42241.00
1064.506, 42319.00
1065.610, 42617.29
1066.713, 42880.00
1067.817, 43075.00
1068.920, 43299.00
1070.023, 43514.00
1071.126, 43775.00
1072.229, 43955.05
1073.332, 44183.51
1074.435, 44283.00
1075.537, 44545.00
1076.639, 44605.00
1077.741, 44649.00
1078.843, 45304.00
1079.945, 45294.00
1081.046, 45778.00
1082.148, 46176.00
1083.249, 46191.00
1084.350, 46880.00
1085.451, 46960.00
1086.551, 47557.00
1087.652, 47572.00
1088.752, 47882.00
1089.853, 47828.00
1090.953, 48089.00
1092.053, 48457.00
1093.152, 48060.00
1094.252, 48113.00
1095.351, 48136.00
1096.451, 47480.00
1097.550, 47108.00
1098.649, 46690.00
1099.748, 46195.00
1100.846, 45650.00
1101.945, 45305.00
1103.043, 44514.00
1104.141, 44114.00
1105.239, 43865.00
1106.337, 43317.00
1107.434, 43281.00
1108.532, 42829.00
1109.629, 42544.00
1110.726, 42193.00
1111.823, 42232.00
1112.920, 41961.00
1114.017, 41736.00
1115.113, 42021.00
1116.210, 41702.00
1117.306, 41885.00
1118.402, 41812.00
1119.498, 41696.00
1120.593, 41773.00
1121.689, 41672.00
1122.784, 41612.00
1123.879, 41927.00
1124.974, 41686.00
1126.069, 41708.00
1127.164, 41544.00
1128.259, 41637.00
1129.353, 41372.00
1130.447, 41855.00
1131.541, 41328.00
1132.635, 41593.00
1133.729, 41264.00
1134.822, 41486.00
1135.916, 41144.00
1137.009, 41182.00
1138.102, 41110.00
1139.195, 40857.00
1140.288, 40937.00
1141.380, 40672.00
1142.473, 40709.00
1143.565, 40696.00
1144.657, 40720.00
1145.749, 40493.00
1146.841, 40393.00
1147.932, 40225.00
1149.024, 40057.00
1150.115, 40344.00
1151.206, 40073.00
1152.297, 40361.00
1153.388, 40210.00
1154.479, 40200.00
1155.569, 40426.00
1156.659, 40477.00
1157.750, 40587.00
1158.839, 40679.09
1159.929, 40539.00
1161.019, 40696.00
1162.108, 40766.00
1163.198, 40551.00
1164.287, 40710.00
1165.376, 40452.00
1166.465, 40414.00
1167.553, 40650.00
1168.642, 40640.00
1169.730, 40484.00
1170.818, 40420.00
1171.906, 40457.00
1172.994, 40494.00
1174.082, 40494.65
1175.170, 40510.00
1176.257, 40516.00
1177.344, 40581.00
1178.431, 40513.00
1179.518, 40615.00
1180.605, 40454.00
1181.691, 40509.00
1182.778, 40723.00
1183.864, 40648.00
1184.950, 40652.00
1186.036, 40466.00
1187.122, 40744.00
1188.207, 40655.00
1189.292, 40820.00
1190.378, 40305.00
1191.463, 41036.00
1192.548, 40476.00
1193.632, 40792.00
1194.717, 40740.00
1195.801, 40791.00
1196.886, 41046.00
1197.970, 40895.00
1199.054, 40751.00
1200.137, 40672.00
1201.221, 41015.00
1202.305, 41120.00
1203.388, 41025.00
1204.471, 40924.00
1205.554, 41152.00
1206.637, 41033.00
1207.719, 40996.00
1208.802, 40847.00
1209.884, 41115.00
1210.966, 41086.00
1212.048, 41310.00
1213.130, 41354.00
1214.212, 41326.00
1215.293, 41599.00
1216.374, 41559.00
1217.456, 41555.00
1218.536, 41557.00
1219.617, 41623.00
1220.698, 41741.00
1221.778, 41730.00
1222.859, 41723.00
1223.939, 41819.20
1225.019, 41821.00
1226.099, 41930.00
1227.178, 41959.00
1228.258, 41956.00
1229.337, 42052.00
1230.417, 41827.00
1231.496, 42100.00
1232.574, 41933.00
1233.653, 42005.00
1234.732, 41864.00
1235.810, 41901.00
1236.888, 42022.00
1237.966, 41940.00
1239.044, 41892.00
1240.122, 42050.00
1241.199, 42244.00
1242.277, 42214.00
1243.354, 42251.00
1244.431, 42225.00
1245.508, 42508.00
1246.585, 42405.00
1247.661, 42162.00
1248.738, 42507.00
1249.814, 42357.00
1250.890, 42653.00
1251.966, 42665.00
1253.042, 42683.00
1254.117, 42708.00
1255.193, 42592.00
1256.268, 42886.00
1257.343, 42702.00
1258.418, 42759.00
1259.493, 42583.00
1260.567, 42829.00
1261.642, 42992.00
1262.716, 43215.00
1263.790, 43074.00
1264.864, 43215.00
1265.938, 43235.00
1267.011, 43410.00
1268.085, 43448.00
1269.158, 43005.00
1270.231, 43045.00
1271.304, 42842.00
1272.377, 43166.00
1273.450, 42882.00
1274.522, 43048.00
1275.594, 43168.00
1276.666, 42993.00
1277.738, 43293.00
1278.810, 43317.00
1279.882, 43253.00
1280.953, 43504.00
1282.025, 43428.00
1283.096, 43462.00
1284.167, 43634.00
1285.238, 43591.00
1286.308, 43409.00
1287.379, 43440.00
1288.449, 43688.00
1289.519, 43901.00
1290.589, 43562.00
1291.659, 43799.00
1292.729, 43661.00
1293.798, 43752.00
1294.868, 43873.00
1295.937, 43858.00
1297.006, 44052.00
1298.075, 44067.45
1299.143, 44275.00
1300.212, 44131.00
1301.280, 44123.00
1302.348, 44066.00
1303.416, 44299.00
1304.484, 44461.00
1305.552, 44554.00
1306.620, 44426.00
1307.687, 44545.00
1308.754, 44272.00
1309.821, 44313.00
1310.888, 44644.00
1311.955, 44597.00
1313.021, 44492.00
1314.088, 44516.00
1315.154, 44532.28
1316.220, 44699.00
1317.286, 44643.00
1318.352, 44854.00
1319.417, 44902.00
1320.483, 44982.00
1321.548, 45099.00
1322.613, 44964.00
1323.678, 45309.00
1324.743, 45259.00
1325.807, 45053.00
1326.872, 45138.00
1327.936, 45079.00
1329.000, 45328.00
1330.064, 45266.00
1331.128, 45547.00
1332.191, 45559.00
1333.255, 45710.00
1334.318, 45424.00
1335.381, 45538.00
1336.444, 45642.00
1337.507, 45859.00
1338.569, 45939.00
1339.632, 45797.00
1340.694, 45838.00
1341.756, 45955.00
1342.818, 45812.00
1343.880, 46076.00
1344.941, 46075.00
1346.003, 46111.00
1347.064, 45931.00
1348.125, 46054.00
1349.186, 46237.00
1350.247, 46027.00
1351.308, 46405.00
1352.368, 46342.00
1353.428, 46540.00
1354.489, 46495.00
1355.549, 46865.00
1356.608, 46855.00
1357.668, 46917.07
1358.727, 46608.00
1359.787, 46912.00
1360.846, 46786.00
1361.905, 46671.00
1362.964, 46689.00
1364.022, 46725.00
1365.081, 46727.05
1366.139, 46884.00
1367.197, 46856.00
1368.255, 47038.00
1369.313, 47171.00
1370.371, 47248.00
1371.428, 47203.00
1372.486, 47280.00
1373.543, 47338.00
1374.600, 47342.04
1375.657, 47348.00
1376.713, 47473.00
1377.770, 47501.00
1378.826, 47725.00
1379.882, 47777.00
1380.938, 47827.55
1381.994, 47676.00
1383.050, 47833.00
1384.106, 47821.00
1385.161, 47702.00
1386.216, 47847.00
1387.271, 48193.00
1388.326, 47746.00
1389.381, 48068.00
1390.435, 48039.00
1391.490, 47879.00
1392.544, 48130.00
1393.598, 48187.00
1394.652, 48209.00
1395.705, 48263.00
1396.759, 48125.00
1397.812, 48234.00
1398.866, 48648.00
1399.919, 48527.00
1400.972, 48700.00
1402.024, 48790.00
1403.077, 48923.00
1404.129, 48760.00
1405.181, 49065.00
1406.233, 48593.00
1407.285, 48995.00
1408.337, 48936.00
1409.389, 48661.00
1410.440, 49146.00
1411.491, 49234.00
1412.542, 49233.00
1413.593, 49187.00
1414.644, 49261.00
1415.695, 49261.18
1416.745, 49385.00
1417.795, 49431.00
1418.845, 49600.00
1419.895, 49908.00
1420.945, 49767.00
1421.995, 50101.00
1423.044, 49599.00
1424.093, 49708.00
1425.142, 49753.00
1426.191, 49983.00
1427.240, 50344.00
1428.289, 50006.00
1429.337, 50130.00
1430.385, 50056.00
1431.433, 50402.00
1432.481, 50495.00
1433.529, 50569.00
1434.577, 50358.00
1435.624, 50564.00
1436.672, 50929.00
1437.719, 50637.00
1438.766, 50746.00
1439.812, 51230.00
1440.859, 51032.00
1441.905, 51239.00
1442.952, 51005.00
1443.998, 51301.00
1445.044, 51692.00
1446.090, 51165.00
1447.135, 51291.00
1448.181, 51106.00
1449.226, 51315.00
1450.271, 51601.00
1451.316, 51480.00
1452.361, 51648.00
1453.405, 51754.00
1454.450, 51569.00
1455.494, 51809.00
1456.538, 51855.00
1457.582, 51902.00
1458.626, 51957.00
1459.670, 51895.00
1460.713, 52049.00
1461.757, 52082.00
1462.800, 52005.00
1463.843, 52059.00
1464.886, 52064.00
1465.928, 52169.00
1466.971, 52696.00
1468.013, 52019.00
1469.055, 52553.00
1470.097, 52605.00
1471.139, 52373.00
1472.181, 52553.00
1473.222, 52536.00
1474.263, 52651.00
1475.305, 52764.00
1476.346, 52800.00
1477.386, 52661.00
1478.427, 52659.00
1479.468, 53044.00
1480.508, 52879.00
1481.548, 53097.00
1482.588, 53141.00
1483.628, 53286.00
1484.668, 53268.00
1485.707, 53186.00
1486.747, 53384.00
1487.786, 53455.00
1488.825, 53323.00
1489.864, 53386.00
1490.902, 53712.00
1491.941, 53470.00
1492.979, 53641.00
1494.017, 53913.00
1495.055, 53820.00
1496.093, 53934.00
1497.131, 53967.00
1498.168, 53699.00
1499.206, 54159.00
1500.243, 54270.00
1501.280, 54077.00
1502.317, 54211.00
1503.354, 54436.00
1504.390, 54481.00
1505.426, 54623.81
1506.463, 54716.23
1507.499, 54782.00
1508.535, 54795.00
1509.570, 54794.00
1510.606, 54835.25
1511.641, 54835.00
1512.676, 54919.00
1513.711, 54945.00
1514.746, 55072.00
1515.781, 55020.00
1516.816, 54927.00
1517.850, 55047.86
1518.884, 55114.00
1519.918, 55279.00
1520.952, 55150.00
1521.986, 55453.00
1523.019, 55495.00
1524.053, 55407.00
1525.086, 55511.00
1526.119, 55708.00
1527.152, 55512.00
1528.185, 55613.00
1529.217, 55881.00
1530.250, 55801.00
1531.282, 55936.00
1532.314, 55902.00
1533.346, 55943.00
1534.377, 56115.00
1535.409, 56112.00
1536.440, 56477.00
1537.472, 56322.00
1538.503, 56687.00
1539.534, 56658.00
1540.564, 56551.00
1541.595, 56624.00
1542.625, 56434.00
1543.656, 56677.00
1544.686, 56789.00
1545.716, 56894.00
1546.745, 56804.00
1547.775, 57088.00
1548.804, 56821.00
1549.834, 57208.00
1550.863, 57336.00
1551.892, 57265.00
1552.920, 57322.00
1553.949, 57446.00
1554.977, 57428.70
1556.006, 57574.00
1557.034, 57466.00
1558.062, 57627.00
1559.089, 57561.00
1560.117, 57569.00
1561.144, 58059.00
1562.172, 57725.00
1563.199, 57669.00
1564.226, 58009.00
1565.252, 57824.00
1566.279, 57892.00
1567.305, 58073.00
1568.332, 57980.00
1569.358, 58130.00
1570.384, 57701.00
1571.409, 57885.00
1572.435, 58539.00
##END=



