##NAMES=Fayalite
##RRUFFID=R070157
##IDEAL CHEMISTRY=Fe^2+^_2_SiO_4_
##LOCALITY=Coso Hot Springs, Inyo County, California, USA
##OWNER=RRUFF
##SOURCE=James Shigley
##DESCRIPTION=Brown transparent tabular crystals associated with fine grained quartz
##STATUS=The identification of this mineral is confirmed by single-crystal X-ray diffraction and chemical analysis.
##URL=rruff.info/R070157
##MEASURED CHEMISTRY=(Fe^2+^_1.88_Mn_0.11_Zn_0.01_)_Î£=2_Si_1.00_O_4_ ; trace amounts of Mg
##PIN_ID=M01877
##ORIENTATION=Laser parallel to c* (0 0 1). Fiducial mark perpendicular to laser is parallel to a [1 0 0]
96.86900, 13259.00
98.10600, 13399.00
99.34400, 13642.00
100.5810, 13725.00
101.8190, 13747.00
103.0560, 13806.00
104.2930, 14296.00
105.5290, 15163.00
106.7660, 15176.34
108.0020, 16376.00
109.2390, 15709.00
110.4750, 15502.00
111.7110, 15860.00
112.9460, 16564.00
114.1820, 17516.00
115.4170, 18868.00
116.6530, 19790.00
117.8880, 20510.00
119.1230, 20455.00
120.3580, 20152.00
121.5920, 19903.00
122.8270, 19354.00
124.0610, 18111.00
125.2950, 16693.00
126.5290, 15487.00
127.7630, 14718.00
128.9970, 14276.00
130.2300, 13762.00
131.4640, 13407.00
132.6970, 13168.00
133.9300, 13187.00
135.1630, 13099.00
136.3950, 12847.00
137.6280, 13229.00
138.8600, 13426.00
140.0920, 13367.00
141.3240, 13282.00
142.5560, 13212.00
143.7880, 13471.00
145.0190, 13739.00
146.2510, 13866.00
147.4820, 14134.00
148.7130, 14682.00
149.9440, 15279.00
151.1750, 15928.00
152.4050, 16463.00
153.6360, 16483.00
154.8660, 16342.00
156.0960, 16091.00
157.3260, 15575.00
158.5560, 14737.00
159.7850, 14408.00
161.0150, 13891.00
162.2440, 13606.00
163.4730, 13408.00
164.7020, 13223.33
165.9310, 13363.00
167.1590, 13183.00
168.3880, 13383.00
169.6160, 13566.00
170.8440, 13569.00
172.0720, 13578.00
173.3000, 13383.00
174.5280, 13163.00
175.7550, 12928.00
176.9820, 12784.00
178.2100, 12796.00
179.4370, 12569.00
180.6630, 12431.00
181.8900, 12590.00
183.1170, 12382.00
184.3430, 12594.00
185.5690, 12652.00
186.7950, 12635.00
188.0210, 12739.00
189.2470, 12946.00
190.4720, 12843.00
191.6970, 13021.00
192.9230, 13044.00
194.1480, 13056.00
195.3730, 13012.00
196.5970, 13107.00
197.8220, 13081.00
199.0460, 13077.00
200.2700, 12798.00
201.4940, 12621.00
202.7180, 12474.00
203.9420, 12348.03
205.1660, 12350.00
206.3890, 12209.00
207.6120, 12082.00
208.8350, 12029.00
210.0580, 12196.00
211.2810, 12108.00
212.5040, 12141.00
213.7260, 12203.83
214.9480, 12233.00
216.1700, 12302.00
217.3920, 12158.00
218.6140, 12223.00
219.8360, 12257.00
221.0570, 12495.00
222.2790, 12383.00
223.5000, 12447.00
224.7210, 12433.00
225.9410, 12412.00
227.1620, 12406.00
228.3820, 12390.00
229.6030, 12450.00
230.8230, 12616.00
232.0430, 12438.00
233.2630, 12676.00
234.4820, 12575.00
235.7020, 12780.00
236.9210, 12824.00
238.1400, 12954.00
239.3590, 13082.00
240.5780, 13258.00
241.7970, 13320.00
243.0150, 13426.31
244.2340, 13503.00
245.4520, 13625.96
246.6700, 13800.00
247.8880, 13885.00
249.1060, 14011.00
250.3230, 14143.00
251.5400, 14384.00
252.7580, 14536.00
253.9750, 14766.00
255.1920, 14783.00
256.4080, 15277.00
257.6250, 15716.00
258.8410, 15982.00
260.0580, 16102.00
261.2740, 16197.00
262.4900, 16416.00
263.7050, 16759.54
264.9210, 17287.00
266.1360, 17616.00
267.3520, 18214.00
268.5670, 18725.00
269.7820, 19492.00
270.9960, 20373.00
272.2110, 21229.00
273.4250, 22298.00
274.6400, 23514.00
275.8540, 24924.00
277.0680, 26751.85
278.2810, 28740.00
279.4950, 31089.00
280.7090, 33568.00
281.9220, 36385.00
283.1350, 39195.00
284.3480, 42587.00
285.5610, 46025.00
286.7730, 47997.00
287.9860, 50159.00
289.1980, 51651.00
290.4100, 51452.00
291.6220, 50872.00
292.8340, 49218.00
294.0460, 46782.00
295.2570, 43915.00
296.4690, 41751.00
297.6800, 38553.00
298.8910, 35658.00
300.1020, 32969.00
301.3120, 30479.00
302.5230, 27958.00
303.7330, 26320.00
304.9440, 24758.47
306.1540, 23433.92
307.3630, 22712.00
308.5730, 21626.00
309.7830, 21036.00
310.9920, 20413.00
312.2010, 19902.00
313.4100, 19436.00
314.6190, 18991.00
315.8280, 18522.00
317.0370, 18183.35
318.2450, 17882.00
319.4530, 17587.00
320.6610, 17230.00
321.8690, 17053.00
323.0770, 16698.00
324.2850, 16840.00
325.4920, 16550.00
326.6990, 16220.00
327.9060, 16393.00
329.1130, 16345.00
330.3200, 16298.00
331.5270, 16221.00
332.7330, 15984.00
333.9390, 16065.00
335.1450, 16224.00
336.3510, 16088.00
337.5570, 16436.00
338.7630, 16391.00
339.9680, 16693.00
341.1740, 16586.00
342.3790, 16993.00
343.5840, 17162.00
344.7890, 17260.00
345.9930, 17588.00
347.1980, 17883.00
348.4020, 18363.00
349.6060, 18631.00
350.8100, 19199.00
352.0140, 19657.00
353.2180, 20167.00
354.4210, 20723.00
355.6250, 21575.00
356.8280, 22397.58
358.0310, 23462.00
359.2340, 24418.00
360.4360, 25595.00
361.6390, 26746.00
362.8410, 28071.00
364.0430, 29449.00
365.2450, 30203.00
366.4470, 31063.00
367.6490, 32390.00
368.8510, 33060.00
370.0520, 33303.00
371.2530, 33811.00
372.4540, 33819.00
373.6550, 33831.00
374.8560, 33272.00
376.0560, 32584.00
377.2570, 31846.00
378.4570, 30891.87
379.6570, 29932.00
380.8570, 28817.00
382.0570, 27905.00
383.2560, 26930.00
384.4560, 26029.00
385.6550, 25069.00
386.8540, 24285.00
388.0530, 23395.00
389.2520, 22662.00
390.4510, 22158.00
391.6490, 21398.00
392.8470, 20866.00
394.0450, 20362.00
395.2430, 19835.00
396.4410, 19408.25
397.6390, 18940.00
398.8360, 18592.00
400.0340, 18292.00
401.2310, 17928.00
402.4280, 17690.00
403.6250, 17449.00
404.8210, 17205.00
406.0180, 16880.00
407.2140, 16776.00
408.4100, 16469.00
409.6060, 16286.00
410.8020, 16180.00
411.9980, 16023.00
413.1930, 15852.50
414.3890, 15695.00
415.5840, 15518.00
416.7790, 15316.00
417.9740, 15166.00
419.1680, 15165.00
420.3630, 15132.00
421.5570, 15201.00
422.7510, 15032.00
423.9450, 15015.00
425.1390, 14870.00
426.3330, 14711.00
427.5270, 14893.00
428.7200, 14862.00
429.9130, 14795.00
431.1060, 14833.00
432.2990, 14783.00
433.4920, 14872.00
434.6840, 14769.00
435.8770, 14864.00
437.0690, 14752.00
438.2610, 14676.00
439.4530, 14854.00
440.6450, 14802.00
441.8360, 14858.00
443.0280, 14843.00
444.2190, 14714.00
445.4100, 14770.00
446.6010, 14750.00
447.7920, 14738.76
448.9820, 14816.00
450.1730, 14781.00
451.3630, 14813.00
452.5530, 14867.00
453.7430, 14848.00
454.9330, 14852.00
456.1230, 14905.00
457.3120, 14938.00
458.5010, 14947.00
459.6910, 15040.00
460.8800, 14811.00
462.0680, 14984.00
463.2570, 14903.00
464.4460, 14874.00
465.6340, 15022.00
466.8220, 15000.00
468.0100, 14946.00
469.1980, 14950.00
470.3860, 14924.00
471.5730, 15038.00
472.7600, 14974.30
473.9480, 14843.00
475.1350, 14948.00
476.3210, 14818.00
477.5080, 14854.00
478.6950, 14878.00
479.8810, 14920.00
481.0670, 14881.00
482.2530, 15057.00
483.4390, 14894.00
484.6250, 15264.00
485.8100, 15076.00
486.9960, 15069.00
488.1810, 15187.00
489.3660, 15271.00
490.5510, 15283.00
491.7360, 15297.00
492.9200, 15379.00
494.1050, 15208.00
495.2890, 15323.00
496.4730, 15204.00
497.6570, 15472.00
498.8400, 15489.00
500.0240, 15591.00
501.2070, 15575.00
502.3910, 15676.00
503.5740, 15600.00
504.7570, 15617.00
505.9400, 15532.00
507.1220, 15534.00
508.3050, 15643.00
509.4870, 15674.00
510.6690, 15689.23
511.8510, 15723.00
513.0330, 15697.00
514.2140, 15696.00
515.3960, 15672.00
516.5770, 15668.00
517.7580, 15539.00
518.9390, 15458.00
520.1200, 15628.00
521.3010, 15477.00
522.4810, 15577.00
523.6610, 15473.00
524.8420, 15422.00
526.0220, 15630.00
527.2010, 15593.00
528.3810, 15712.00
529.5610, 15925.00
530.7400, 15778.00
531.9190, 15913.24
533.0980, 15959.00
534.2770, 16002.00
535.4560, 15922.00
536.6340, 16047.00
537.8120, 16293.00
538.9910, 16455.00
540.1690, 16760.00
541.3460, 16793.00
542.5240, 17198.00
543.7020, 17316.00
544.8790, 17735.00
546.0560, 18092.00
547.2330, 18527.00
548.4100, 18923.00
549.5870, 19285.00
550.7630, 19710.00
551.9400, 20334.00
553.1160, 20967.00
554.2920, 21453.00
555.4680, 21942.00
556.6440, 22745.00
557.8190, 23287.00
558.9950, 23750.00
560.1700, 24236.00
561.3450, 24574.79
562.5200, 25156.00
563.6950, 25144.00
564.8690, 25139.00
566.0440, 25309.00
567.2180, 24962.00
568.3920, 24545.00
569.5660, 24169.00
570.7400, 23709.02
571.9130, 23364.00
573.0870, 22711.00
574.2600, 22284.00
575.4330, 21680.00
576.6060, 21073.00
577.7790, 20618.00
578.9520, 20105.88
580.1240, 19515.00
581.2960, 19274.00
582.4690, 18700.00
583.6410, 18397.00
584.8120, 18155.00
585.9840, 17812.00
587.1560, 17608.61
588.3270, 17403.85
589.4980, 17251.00
590.6690, 17041.00
591.8400, 16924.10
593.0110, 16799.00
594.1810, 16714.00
595.3510, 16649.00
596.5220, 16596.00
597.6920, 16437.00
598.8610, 16233.00
600.0310, 16148.00
601.2010, 16059.00
602.3700, 15997.00
603.5390, 15699.00
604.7080, 15670.00
605.8770, 15518.00
607.0460, 15293.00
608.2140, 15248.00
609.3830, 15055.00
610.5510, 15027.00
611.7190, 14829.00
612.8870, 14811.00
614.0550, 14765.00
615.2220, 14706.00
616.3900, 14452.00
617.5570, 14528.00
618.7240, 14504.00
619.8910, 14344.00
621.0580, 14407.00
622.2240, 14414.00
623.3910, 14434.00
624.5570, 14348.00
625.7230, 14402.00
626.8890, 14392.00
628.0550, 14432.00
629.2200, 14427.77
630.3860, 14300.00
631.5510, 14428.00
632.7160, 14307.00
633.8810, 14325.00
635.0460, 14419.00
636.2100, 14336.00
637.3750, 14393.00
638.5390, 14492.00
639.7030, 14393.00
640.8670, 14503.00
642.0310, 14630.00
643.1950, 14554.00
644.3580, 14550.00
645.5210, 14567.74
646.6850, 14481.00
647.8480, 14540.00
649.0100, 14403.00
650.1730, 14368.00
651.3350, 14451.00
652.4980, 14305.49
653.6600, 14363.21
654.8220, 14402.24
655.9840, 14423.59
657.1450, 14374.30
658.3070, 14416.22
659.4680, 14421.58
660.6300, 14425.46
661.7910, 14534.00
662.9510, 14563.00
664.1120, 14686.00
665.2730, 14697.55
666.4330, 14711.00
667.5930, 14780.00
668.7530, 14675.00
669.9130, 14729.00
671.0730, 14788.00
672.2320, 14862.00
673.3920, 15054.00
674.5510, 15109.00
675.7100, 15220.00
676.8690, 15345.00
678.0280, 15415.00
679.1860, 15486.00
680.3450, 15525.00
681.5030, 15608.95
682.6610, 15690.00
683.8190, 15736.00
684.9770, 15830.00
686.1340, 15850.00
687.2920, 15905.53
688.4490, 15872.00
689.6060, 15979.00
690.7630, 15990.00
691.9200, 16013.44
693.0760, 15844.00
694.2330, 15968.00
695.3890, 15924.00
696.5450, 15841.00
697.7010, 15973.00
698.8570, 15997.00
700.0130, 16129.00
701.1680, 16072.00
702.3230, 16231.00
703.4780, 16273.00
704.6330, 16234.00
705.7880, 16298.00
706.9430, 16444.00
708.0970, 16467.00
709.2520, 16735.00
710.4060, 16994.00
711.5600, 16963.00
712.7140, 16824.00
713.8670, 17174.00
715.0210, 17128.00
716.1740, 17297.00
717.3270, 17451.00
718.4800, 17531.00
719.6330, 17657.86
720.7860, 17854.00
721.9380, 17840.00
723.0910, 17858.00
724.2430, 17943.00
725.3950, 18249.00
726.5470, 18282.00
727.6980, 18645.00
728.8500, 18650.00
730.0010, 18866.00
731.1530, 18971.00
732.3040, 19045.00
733.4550, 19387.00
734.6050, 19540.00
735.7560, 19934.00
736.9060, 19943.00
738.0560, 20388.00
739.2060, 20570.00
740.3560, 21061.00
741.5060, 21122.00
742.6560, 21470.00
743.8050, 21504.00
744.9540, 21472.00
746.1030, 21412.00
747.2520, 21313.00
748.4010, 21420.00
749.5500, 21125.00
750.6980, 21077.00
751.8460, 20880.00
752.9950, 20954.00
754.1420, 20767.00
755.2900, 20827.00
756.4380, 20802.00
757.5850, 20810.00
758.7330, 21107.00
759.8800, 20912.00
761.0270, 21343.00
762.1730, 21342.00
763.3200, 21643.00
764.4670, 21867.00
765.6130, 21950.00
766.7590, 22256.00
767.9050, 22456.00
769.0510, 22806.00
770.1960, 23066.00
771.3420, 23463.00
772.4870, 23598.00
773.6320, 24139.00
774.7770, 24513.00
775.9220, 25161.00
777.0670, 25500.00
778.2110, 26497.00
779.3560, 26865.00
780.5000, 27481.00
781.6440, 28558.00
782.7880, 29491.00
783.9320, 30407.00
785.0750, 31523.00
786.2180, 32856.00
787.3620, 34387.00
788.5050, 35983.00
789.6480, 37803.00
790.7900, 39960.00
791.9330, 42141.00
793.0750, 44935.00
794.2170, 48215.00
795.3590, 51541.00
796.5010, 56131.00
797.6430, 60909.00
798.7850, 66470.00
799.9260, 73757.00
801.0670, 81314.00
802.2080, 91638.00
803.3490, 104160.0
804.4900, 117994.0
805.6310, 134061.0
806.7710, 152147.0
807.9110, 171778.0
809.0510, 191436.0
810.1910, 211105.0
811.3310, 225916.0
812.4710, 237176.0
813.6100, 242063.0
814.7490, 241846.0
815.8880, 236388.0
817.0270, 227183.0
818.1660, 215621.0
819.3050, 201352.0
820.4430, 188887.0
821.5820, 177065.0
822.7200, 165659.0
823.8580, 156773.0
824.9950, 150111.0
826.1330, 144157.0
827.2710, 139851.0
828.4080, 137469.0
829.5450, 135632.0
830.6820, 134604.0
831.8190, 134592.0
832.9560, 135669.0
834.0920, 136219.0
835.2280, 137755.0
836.3650, 138583.0
837.5010, 139073.0
838.6360, 139575.0
839.7720, 138448.0
840.9080, 136092.0
842.0430, 132793.0
843.1780, 128892.0
844.3130, 123145.0
845.4480, 117251.0
846.5830, 110793.0
847.7170, 103767.0
848.8520, 97596.00
849.9860, 90322.00
851.1200, 83956.00
852.2540, 78062.00
853.3870, 71833.00
854.5210, 66639.00
855.6540, 62228.00
856.7880, 57835.00
857.9210, 53951.00
859.0540, 50818.00
860.1860, 47307.00
861.3190, 44487.00
862.4510, 42372.00
863.5840, 39890.00
864.7160, 37992.00
865.8480, 36267.00
866.9790, 34529.00
868.1110, 33145.00
869.2420, 31773.54
870.3740, 30639.00
871.5050, 29531.00
872.6360, 28581.00
873.7660, 27811.00
874.8970, 27353.00
876.0280, 26581.00
877.1580, 26090.00
878.2880, 25425.00
879.4180, 24970.07
880.5480, 24504.00
881.6770, 24186.00
882.8070, 23714.00
883.9360, 23442.00
885.0650, 23400.00
886.1940, 23014.00
887.3230, 22831.00
888.4520, 22562.00
889.5800, 22455.00
890.7090, 22302.00
891.8370, 22084.00
892.9650, 21696.00
894.0930, 21660.00
895.2200, 21515.00
896.3480, 21413.00
897.4750, 21335.00
898.6020, 21144.66
899.7290, 21014.00
900.8560, 20810.00
901.9830, 20636.00
903.1090, 20516.00
904.2360, 20290.00
905.3620, 20216.00
906.4880, 20060.00
907.6140, 19926.00
908.7400, 20000.00
909.8650, 19986.00
910.9900, 19962.00
912.1160, 19921.00
913.2410, 20177.00
914.3660, 20153.00
915.4900, 20120.00
916.6150, 20459.00
917.7390, 20354.00
918.8640, 20401.00
919.9880, 20865.00
921.1120, 20922.00
922.2350, 20881.00
923.3590, 21279.00
924.4820, 21473.00
925.6060, 21792.28
926.7290, 22111.48
927.8520, 22368.00
928.9740, 22647.00
930.0970, 22531.00
931.2190, 22567.00
932.3420, 22866.00
933.4640, 22781.00
934.5860, 22984.00
935.7080, 22968.00
936.8290, 23075.00
937.9510, 22898.00
939.0720, 22971.00
940.1930, 23003.00
941.3140, 22765.00
942.4350, 22920.00
943.5560, 22923.00
944.6760, 23233.00
945.7960, 22755.00
946.9170, 22838.00
948.0370, 22729.00
949.1560, 22528.00
950.2760, 22671.00
951.3960, 22586.00
952.5150, 22461.00
953.6340, 22648.00
954.7530, 22496.00
955.8720, 22405.00
956.9910, 22263.00
958.1090, 22250.00
959.2280, 22091.00
960.3460, 22020.00
961.4640, 21886.00
962.5820, 22110.00
963.6990, 21794.00
964.8170, 22009.00
965.9340, 21874.00
967.0510, 21784.00
968.1690, 21629.00
969.2850, 21379.00
970.4020, 21709.00
971.5190, 21658.00
972.6350, 21680.00
973.7510, 21565.00
974.8670, 21455.00
975.9830, 21474.00
977.0990, 21300.00
978.2150, 21174.00
979.3300, 21165.00
980.4450, 21361.00
981.5600, 21223.00
982.6750, 21236.00
983.7900, 21205.72
984.9050, 21233.00
986.0190, 21041.00
987.1340, 20949.00
988.2480, 20821.00
989.3620, 20788.19
990.4750, 20748.00
991.5890, 20799.00
992.7020, 20838.00
993.8160, 20893.00
994.9290, 20893.67
996.0420, 20665.00
997.1550, 20865.00
998.2670, 20781.00
999.3800, 20708.00
1000.492, 20802.00
1001.604, 20535.00
1002.716, 20511.00
1003.828, 20386.00
1004.940, 20558.00
1006.051, 20541.00
1007.163, 20322.00
1008.274, 20502.00
1009.385, 20172.00
1010.496, 20242.00
1011.606, 20265.00
1012.717, 20003.00
1013.827, 20053.00
1014.937, 19941.00
1016.047, 19975.00
1017.157, 20030.00
1018.267, 20103.00
1019.377, 19996.23
1020.486, 19962.00
1021.595, 19808.00
1022.704, 19763.00
1023.813, 19758.00
1024.922, 19828.00
1026.030, 19795.00
1027.139, 19657.00
1028.247, 19660.00
1029.355, 19898.00
1030.463, 19665.00
1031.571, 19433.00
1032.678, 19851.00
1033.786, 19748.00
1034.893, 19706.00
1036.000, 19798.00
1037.107, 19756.00
1038.214, 19727.00
1039.321, 19891.00
1040.427, 19757.00
1041.533, 19747.00
1042.639, 19655.00
1043.745, 19782.00
1044.851, 19753.00
1045.957, 19797.00
1047.062, 19965.00
1048.168, 19925.00
1049.273, 20099.00
1050.378, 20061.00
1051.482, 20093.00
1052.587, 20126.00
1053.692, 20107.00
1054.796, 20142.00
1055.900, 20155.96
1057.004, 20128.00
1058.108, 20202.00
1059.212, 20216.00
1060.315, 20248.00
1061.418, 20282.00
1062.522, 20447.00
1063.625, 20185.00
1064.728, 20438.00
1065.830, 20368.00
1066.933, 20343.00
1068.035, 20463.00
1069.137, 20467.00
1070.239, 20377.00
1071.341, 20732.00
1072.443, 20632.00
1073.545, 20494.00
1074.646, 20545.00
1075.747, 20759.00
1076.848, 20679.60
1077.949, 20738.89
1079.050, 20745.00
1080.150, 20745.00
1081.251, 20798.00
1082.351, 20882.00
1083.451, 20930.00
1084.551, 21018.00
1085.651, 21055.10
1086.750, 21083.65
1087.850, 21107.00
1088.949, 21133.00
1090.048, 21104.00
1091.147, 21164.00
1092.246, 21136.00
1093.345, 20949.00
1094.443, 21027.00
1095.541, 20980.00
1096.639, 20981.65
1097.737, 21327.00
1098.835, 21098.00
1099.933, 21258.00
1101.030, 21430.00
1102.128, 21154.00
1103.225, 21366.00
1104.322, 21219.00
1105.419, 21612.00
1106.515, 21621.00
1107.612, 21445.00
1108.708, 21570.00
1109.804, 21551.00
1110.900, 21744.00
1111.996, 21810.00
1113.092, 21738.00
1114.187, 21665.00
1115.283, 21908.00
1116.378, 22059.00
1117.473, 22231.00
1118.568, 21882.00
1119.662, 22055.00
1120.757, 22150.00
1121.851, 22149.00
1122.946, 22333.00
1124.040, 22251.00
1125.134, 22408.00
1126.227, 22430.00
1127.321, 22656.00
1128.414, 22716.00
1129.508, 22642.00
1130.601, 22575.00
1131.693, 22608.00
1132.786, 22941.00
1133.879, 22754.00
1134.971, 22941.00
1136.064, 22869.00
1137.156, 22791.00
1138.248, 22861.00
1139.339, 23005.00
1140.431, 23016.00
1141.522, 23082.00
1142.614, 23185.00
1143.705, 23080.00
1144.796, 23119.00
1145.887, 23004.00
1146.977, 23042.00
1148.068, 23011.00
1149.158, 23090.00
1150.248, 23058.00
1151.338, 23100.00
1152.428, 23101.55
1153.518, 23020.00
1154.607, 23069.00
1155.696, 23002.00
1156.785, 22927.00
1157.874, 23091.00
1158.963, 23089.00
1160.052, 23041.00
1161.141, 23015.00
1162.229, 22747.00
1163.317, 22898.00
1164.405, 22817.00
1165.493, 22961.00
1166.581, 22746.00
1167.668, 22980.00
1168.756, 22946.00
1169.843, 22957.00
1170.930, 23070.00
1172.017, 23026.00
1173.103, 22919.00
1174.190, 22972.00
1175.276, 22835.00
1176.363, 22734.00
1177.449, 23068.00
1178.535, 22721.00
1179.620, 22949.00
1180.706, 22677.00
1181.791, 22831.00
1182.877, 22891.00
1183.962, 22839.00
1185.047, 22938.00
1186.131, 22774.00
1187.216, 22956.00
1188.300, 22989.00
1189.385, 22753.00
1190.469, 22848.00
1191.553, 22823.00
1192.637, 22822.00
1193.720, 23060.00
1194.804, 23014.00
1195.887, 23162.00
1196.970, 22896.00
1198.053, 22934.00
1199.136, 23002.00
1200.219, 23189.00
1201.301, 22820.00
1202.383, 23005.00
1203.465, 22847.00
1204.547, 23151.00
1205.629, 23136.00
1206.711, 23056.00
1207.792, 23098.00
1208.874, 23251.00
1209.955, 23444.00
1211.036, 23133.00
1212.117, 23411.00
1213.198, 23332.00
1214.278, 23184.00
1215.359, 23237.00
1216.439, 23188.33
1217.519, 23185.18
1218.599, 23206.00
1219.678, 23302.00
1220.758, 23290.00
1221.837, 23514.00
1222.917, 23462.00
1223.996, 23614.00
1225.075, 23421.00
1226.153, 23572.00
1227.232, 23575.00
1228.310, 23724.00
1229.389, 23803.91
1230.467, 23884.00
1231.545, 23973.00
1232.622, 23907.00
1233.700, 23936.00
1234.777, 24031.00
1235.855, 23894.00
1236.932, 24059.00
1238.009, 24163.00
1239.086, 23995.00
1240.162, 24228.00
1241.239, 24184.00
1242.315, 24254.00
1243.391, 24298.00
1244.467, 24308.00
1245.543, 24191.00
1246.619, 24098.00
1247.694, 24463.00
1248.769, 24475.00
1249.844, 24810.00
1250.919, 24492.00
1251.994, 24739.00
1253.069, 24650.00
1254.144, 24615.00
1255.218, 24788.00
1256.292, 24804.00
1257.366, 24582.00
1258.440, 24672.00
1259.514, 25005.00
1260.587, 24804.00
1261.661, 24969.00
1262.734, 24954.00
1263.807, 24965.00
1264.880, 25151.00
1265.952, 25258.00
1267.025, 25382.00
1268.097, 25156.00
1269.170, 25369.00
1270.242, 25236.00
1271.314, 25421.00
1272.385, 25518.00
1273.457, 25688.00
1274.528, 25695.00
1275.600, 25755.42
1276.671, 25634.00
1277.742, 25780.00
1278.812, 25807.00
1279.883, 25828.00
1280.954, 25918.00
1282.024, 26141.00
1283.094, 25902.00
1284.164, 25664.00
1285.234, 26152.00
1286.303, 25904.00
1287.373, 26319.00
1288.442, 26180.00
1289.511, 26209.00
1290.580, 26444.00
1291.649, 26417.00
1292.718, 26440.00
1293.786, 26443.00
1294.855, 26495.25
1295.923, 26559.00
1296.991, 26613.00
1298.059, 26552.00
1299.126, 26573.00
1300.194, 26734.00
1301.261, 26564.00
1302.328, 26639.00
1303.395, 26755.00
1304.462, 27086.00
1305.529, 27019.00
1306.596, 27038.00
1307.662, 26971.00
1308.728, 27200.00
1309.794, 26966.00
1310.860, 27227.00
1311.926, 27207.00
1312.991, 27165.00
1314.057, 27286.00
1315.122, 27419.00
1316.187, 27607.00
1317.252, 27538.00
1318.317, 27448.00
1319.381, 27464.00
1320.446, 27640.00
1321.510, 27484.00
1322.574, 27756.00
1323.638, 27309.00
1324.702, 27632.00
1325.766, 27675.00
1326.829, 27865.00
1327.892, 27953.00
1328.956, 27939.00
1330.019, 27961.00
1331.081, 27926.00
1332.144, 28205.00
1333.206, 28076.00
1334.269, 28187.00
1335.331, 28222.00
1336.393, 28238.00
1337.455, 28384.00
1338.516, 28278.00
1339.578, 28140.00
1340.639, 28187.00
1341.701, 28533.00
1342.762, 28541.00
1343.822, 28356.00
1344.883, 28604.00
1345.944, 28539.00
1347.004, 28583.00
1348.064, 28773.00
1349.124, 28467.00
1350.184, 28693.00
1351.244, 28665.00
1352.304, 28763.00
1353.363, 28797.00
1354.422, 28880.00
1355.481, 28956.00
1356.540, 29158.00
1357.599, 29232.00
1358.657, 29200.00
1359.716, 29111.00
1360.774, 29215.00
1361.832, 29185.00
1362.890, 29461.00
1363.948, 29162.00
1365.006, 29159.00
1366.063, 29172.00
1367.120, 29514.00
1368.178, 29724.00
1369.234, 29557.00
1370.291, 29825.00
1371.348, 29636.00
1372.404, 29609.00
1373.461, 29929.00
1374.517, 29725.00
1375.573, 29620.00
1376.629, 29689.00
1377.684, 29805.00
1378.740, 29879.00
1379.795, 29852.00
1380.850, 30059.00
1381.905, 30027.00
1382.960, 30101.00
1384.015, 30364.00
1385.070, 30125.00
1386.124, 30254.00
1387.178, 30426.00
1388.232, 30399.00
1389.286, 30487.00
1390.340, 30399.00
1391.393, 30663.00
1392.447, 30682.00
1393.500, 30702.00
1394.553, 30771.66
1395.606, 30798.00
1396.659, 30734.00
1397.711, 30778.00
1398.764, 30705.00
1399.816, 30915.00
1400.868, 31112.00
1401.920, 31042.00
1402.972, 31003.00
1404.023, 31158.00
1405.075, 31132.61
1406.126, 31238.36
1407.177, 31255.00
1408.228, 31444.00
1409.279, 31527.86
1410.330, 31652.51
1411.380, 31633.00
1412.431, 31647.00
1413.481, 31625.00
1414.531, 31341.00
1415.580, 32025.00
1416.630, 31584.00
1417.680, 31507.00
1418.729, 31779.00
1419.778, 31581.00
1420.827, 31664.00
1421.876, 32177.00
1422.925, 32024.00
1423.973, 31873.00
1425.022, 32374.00
1426.070, 32185.30
1427.118, 32347.00
1428.166, 32342.00
1429.214, 32162.00
1430.261, 32349.00
1431.309, 32387.00
1432.356, 32456.00
1433.403, 32532.00
1434.450, 32513.00
1435.497, 32527.00
1436.543, 32597.59
1437.590, 32800.00
1438.636, 32655.00
1439.682, 32765.00
1440.728, 32653.00
1441.774, 32894.00
1442.819, 32907.00
1443.865, 32918.00
1444.910, 33024.00
1445.955, 33002.00
1447.000, 33052.00
1448.045, 33106.00
1449.090, 33173.78
1450.134, 33231.00
1451.178, 33324.00
1452.223, 33388.00
1453.267, 33373.00
1454.310, 33359.83
1455.354, 33550.00
1456.398, 33323.00
1457.441, 33540.00
1458.484, 33731.00
1459.527, 33893.00
1460.570, 33888.00
1461.613, 33766.00
1462.655, 33809.00
1463.698, 33952.00
1464.740, 34035.00
1465.782, 33972.00
1466.824, 34314.00
1467.866, 34272.00
1468.907, 34160.00
1469.948, 33912.00
1470.990, 34220.00
1472.031, 34246.00
1473.072, 34244.00
1474.112, 34437.00
1475.153, 34282.00
1476.194, 34350.00
1477.234, 34414.09
1478.274, 34588.00
1479.314, 34525.00
1480.354, 34702.00
1481.393, 34755.00
1482.433, 34387.00
1483.472, 34701.00
1484.511, 34631.00
1485.550, 34726.00
1486.589, 34768.00
1487.628, 34679.00
1488.666, 34720.25
1489.704, 35052.00
1490.743, 34728.00
1491.781, 35018.00
1492.819, 35172.00
1493.856, 35026.00
1494.894, 35054.00
1495.931, 35030.00
1496.968, 35044.00
1498.005, 35100.00
1499.042, 35132.00
1500.079, 35366.00
1501.115, 35309.00
1502.152, 35276.00
1503.188, 35571.00
1504.224, 35232.00
1505.260, 35673.00
1506.296, 35488.00
1507.331, 35561.00
1508.367, 35756.00
1509.402, 35929.00
1510.437, 35815.00
1511.472, 35697.00
1512.507, 35934.00
1513.541, 35942.00
1514.576, 35897.00
1515.610, 36255.00
1516.644, 36229.00
1517.678, 36099.00
1518.712, 36369.00
1519.746, 36368.00
1520.779, 36518.00
1521.813, 36698.00
1522.846, 36725.00
1523.879, 36500.00
1524.912, 36457.00
1525.944, 36953.00
1526.977, 36496.00
1528.009, 36883.00
1529.041, 37112.00
1530.073, 36647.00
1531.105, 36984.00
1532.137, 37366.00
1533.168, 37322.00
1534.200, 37037.00
1535.231, 37184.00
1536.262, 37058.00
1537.293, 37072.00
1538.324, 37296.00
1539.354, 37356.00
1540.385, 37473.00
1541.415, 37585.00
1542.445, 37931.00
1543.475, 37971.98
1544.505, 37683.00
1545.534, 38135.00
1546.564, 38017.00
1547.593, 37927.00
1548.622, 38052.00
1549.651, 37934.00
1550.680, 38061.00
1551.708, 37745.00
1552.737, 37959.00
1553.765, 38061.00
1554.793, 38380.00
1555.821, 38434.00
1556.849, 38378.00
1557.877, 38261.00
1558.904, 38209.00
1559.932, 38244.39
1560.959, 38399.00
1561.986, 38386.00
1563.013, 38422.00
1564.039, 38544.00
1565.066, 38579.00
1566.092, 38597.00
1567.119, 38406.00
1568.145, 38604.00
1569.170, 38548.00
1570.196, 38556.00
1571.222, 38902.00
1572.247, 39082.00
1573.272, 38909.00
1574.297, 38869.00
1575.322, 38983.00
1576.347, 38807.00
1577.372, 38857.00
##END=



