##NAMES=Fayalite
##RRUFFID=R070374
##IDEAL CHEMISTRY=Fe^2+^_2_SiO_4_
##LOCALITY=Little Lake, Lake County, California, USA
##OWNER=RRUFF
##SOURCE=Michael Scott
##DESCRIPTION=Large dark brown crystal fragment
##STATUS=The identification of this mineral has been confirmed by X-ray diffraction and chemical analysis
##URL=rruff.info/R070374
##MEASURED CHEMISTRY=(Fe^2+^_1.89_Mn^2+^_0.11_)_Î£=2_Si_1.00_O_4_ ; trace amounts of Mg
##PIN_ID=M01077
##ORIENTATION=Laser parallel to a* (1 0 0). Fiducial mark perpendicular to laser is parallel to b [0 1 0]
95.63100, 1794.000
96.86900, 1761.000
98.10600, 1837.000
99.34400, 1905.000
100.5810, 1960.000
101.8190, 1937.000
103.0560, 2011.000
104.2930, 2086.000
105.5290, 2277.000
106.7660, 2355.000
108.0020, 2413.000
109.2390, 2399.000
110.4750, 2453.000
111.7110, 2471.000
112.9460, 2657.000
114.1820, 2726.000
115.4170, 2737.000
116.6530, 2726.000
117.8880, 2691.698
119.1230, 2641.000
120.3580, 2545.000
121.5920, 2451.000
122.8270, 2350.406
124.0610, 2259.000
125.2950, 2160.000
126.5290, 2023.000
127.7630, 1918.000
128.9970, 1873.422
130.2300, 1919.000
131.4640, 1811.000
132.6970, 1831.000
133.9300, 1815.000
135.1630, 1805.000
136.3950, 1752.000
137.6280, 1824.000
138.8600, 1877.000
140.0920, 1881.000
141.3240, 1857.000
142.5560, 1855.000
143.7880, 1868.000
145.0190, 1910.124
146.2510, 1991.000
147.4820, 2057.000
148.7130, 2136.000
149.9440, 2266.000
151.1750, 2496.000
152.4050, 2754.000
153.6360, 2840.000
154.8660, 2964.000
156.0960, 2895.000
157.3260, 2768.000
158.5560, 2619.000
159.7850, 2538.000
161.0150, 2489.000
162.2440, 2655.000
163.4730, 2834.000
164.7020, 3037.000
165.9310, 3515.000
167.1590, 4065.000
168.3880, 4990.000
169.6160, 5744.000
170.8440, 6054.000
172.0720, 6151.000
173.3000, 5777.000
174.5280, 4915.000
175.7550, 4102.000
176.9820, 3325.000
178.2100, 2805.000
179.4370, 2521.000
180.6630, 2320.000
181.8900, 2205.000
183.1170, 2166.000
184.3430, 2147.000
185.5690, 2218.000
186.7950, 2110.000
188.0210, 2116.000
189.2470, 2125.000
190.4720, 2045.000
191.6970, 2122.000
192.9230, 2028.000
194.1480, 2120.000
195.3730, 2084.000
196.5970, 2062.000
197.8220, 2009.000
199.0460, 1979.000
200.2700, 1940.000
201.4940, 1946.000
202.7180, 1759.000
203.9420, 1714.000
205.1660, 1667.000
206.3890, 1644.000
207.6120, 1657.000
208.8350, 1663.000
210.0580, 1695.000
211.2810, 1696.670
212.5040, 1720.000
213.7260, 1723.000
214.9480, 1737.000
216.1700, 1771.000
217.3920, 1776.000
218.6140, 1832.650
219.8360, 1876.000
221.0570, 1948.000
222.2790, 2013.000
223.5000, 2081.000
224.7210, 2212.000
225.9410, 2306.000
227.1620, 2462.000
228.3820, 2625.000
229.6030, 2822.000
230.8230, 3100.002
232.0430, 3401.000
233.2630, 3744.000
234.4820, 4132.000
235.7020, 4523.000
236.9210, 4859.000
238.1400, 4988.000
239.3590, 5082.267
240.5780, 5032.000
241.7970, 4900.000
243.0150, 4662.000
244.2340, 4297.000
245.4520, 3945.000
246.6700, 3534.000
247.8880, 3260.000
249.1060, 3054.000
250.3230, 2854.000
251.5400, 2735.000
252.7580, 2610.000
253.9750, 2488.000
255.1920, 2481.000
256.4080, 2342.000
257.6250, 2370.000
258.8410, 2365.000
260.0580, 2325.000
261.2740, 2362.000
262.4900, 2325.000
263.7050, 2300.000
264.9210, 2343.000
266.1360, 2357.000
267.3520, 2481.000
268.5670, 2544.000
269.7820, 2650.000
270.9960, 2737.000
272.2110, 2827.000
273.4250, 3077.000
274.6400, 3199.000
275.8540, 3441.000
277.0680, 3666.000
278.2810, 3827.000
279.4950, 4017.000
280.7090, 4187.000
281.9220, 4379.000
283.1350, 4290.000
284.3480, 4308.000
285.5610, 4272.000
286.7730, 4066.000
287.9860, 3961.000
289.1980, 3768.000
290.4100, 3639.000
291.6220, 3397.000
292.8340, 3242.000
294.0460, 3179.000
295.2570, 2967.000
296.4690, 2810.000
297.6800, 2703.000
298.8910, 2613.000
300.1020, 2587.000
301.3120, 2498.000
302.5230, 2495.000
303.7330, 2475.000
304.9440, 2536.000
306.1540, 2460.000
307.3630, 2494.000
308.5730, 2488.000
309.7830, 2438.000
310.9920, 2408.000
312.2010, 2386.692
313.4100, 2358.000
314.6190, 2320.000
315.8280, 2311.000
317.0370, 2243.000
318.2450, 2166.000
319.4530, 2173.000
320.6610, 2065.000
321.8690, 2084.000
323.0770, 2011.000
324.2850, 2024.000
325.4920, 1982.000
326.6990, 1974.000
327.9060, 2017.000
329.1130, 1985.000
330.3200, 1945.000
331.5270, 1905.000
332.7330, 1987.000
333.9390, 1979.000
335.1450, 1975.000
336.3510, 1933.000
337.5570, 1946.000
338.7630, 1977.000
339.9680, 1965.344
341.1740, 2004.691
342.3790, 2005.000
343.5840, 2051.000
344.7890, 2115.000
345.9930, 2109.000
347.1980, 2182.000
348.4020, 2179.000
349.6060, 2221.000
350.8100, 2280.000
352.0140, 2390.000
353.2180, 2437.000
354.4210, 2422.000
355.6250, 2552.000
356.8280, 2608.000
358.0310, 2743.000
359.2340, 2851.000
360.4360, 2888.000
361.6390, 2965.000
362.8410, 3133.000
364.0430, 3176.000
365.2450, 3364.000
366.4470, 3359.000
367.6490, 3403.000
368.8510, 3406.000
370.0520, 3441.000
371.2530, 3464.000
372.4540, 3412.000
373.6550, 3375.016
374.8560, 3193.000
376.0560, 3215.000
377.2570, 3053.000
378.4570, 2950.000
379.6570, 2930.000
380.8570, 2886.000
382.0570, 2772.000
383.2560, 2666.000
384.4560, 2581.000
385.6550, 2535.000
386.8540, 2492.000
388.0530, 2444.000
389.2520, 2388.000
390.4510, 2289.000
391.6490, 2175.000
392.8470, 2144.000
394.0450, 2094.000
395.2430, 2048.000
396.4410, 2014.000
397.6390, 1953.000
398.8360, 1908.000
400.0340, 1892.000
401.2310, 1877.000
402.4280, 1836.000
403.6250, 1809.000
404.8210, 1752.000
406.0180, 1753.000
407.2140, 1741.000
408.4100, 1753.000
409.6060, 1773.000
410.8020, 1758.146
411.9980, 1708.000
413.1930, 1732.000
414.3890, 1699.000
415.5840, 1659.000
416.7790, 1683.000
417.9740, 1581.000
419.1680, 1610.000
420.3630, 1653.000
421.5570, 1599.000
422.7510, 1547.000
423.9450, 1647.000
425.1390, 1613.000
426.3330, 1608.000
427.5270, 1588.000
428.7200, 1574.044
429.9130, 1573.000
431.1060, 1553.000
432.2990, 1549.000
433.4920, 1541.000
434.6840, 1536.805
435.8770, 1543.417
437.0690, 1539.000
438.2610, 1558.000
439.4530, 1567.000
440.6450, 1569.000
441.8360, 1584.000
443.0280, 1530.000
444.2190, 1560.000
445.4100, 1539.000
446.6010, 1551.000
447.7920, 1546.000
448.9820, 1557.000
450.1730, 1577.000
451.3630, 1571.000
452.5530, 1531.000
453.7430, 1512.000
454.9330, 1544.000
456.1230, 1594.000
457.3120, 1580.000
458.5010, 1579.000
459.6910, 1547.000
460.8800, 1563.000
462.0680, 1594.000
463.2570, 1580.000
464.4460, 1592.000
465.6340, 1579.000
466.8220, 1579.000
468.0100, 1578.000
469.1980, 1584.000
470.3860, 1558.000
471.5730, 1591.000
472.7600, 1597.000
473.9480, 1594.000
475.1350, 1569.000
476.3210, 1594.000
477.5080, 1669.000
478.6950, 1642.000
479.8810, 1689.000
481.0670, 1650.000
482.2530, 1654.000
483.4390, 1728.000
484.6250, 1687.000
485.8100, 1721.000
486.9960, 1781.000
488.1810, 1772.000
489.3660, 1832.000
490.5510, 1833.000
491.7360, 1866.000
492.9200, 1915.000
494.1050, 1957.000
495.2890, 2059.000
496.4730, 2162.000
497.6570, 2295.000
498.8400, 2382.000
500.0240, 2454.000
501.2070, 2629.000
502.3910, 2862.000
503.5740, 2975.000
504.7570, 3058.000
505.9400, 3165.000
507.1220, 3009.000
508.3050, 3022.000
509.4870, 2828.000
510.6690, 2718.000
511.8510, 2576.000
513.0330, 2498.000
514.2140, 2391.000
515.3960, 2241.000
516.5770, 2196.000
517.7580, 2112.000
518.9390, 2127.000
520.1200, 2068.629
521.3010, 2029.528
522.4810, 1996.000
523.6610, 1976.000
524.8420, 1920.000
526.0220, 1949.000
527.2010, 1893.000
528.3810, 1956.000
529.5610, 1946.000
530.7400, 1891.000
531.9190, 1922.000
533.0980, 1910.000
534.2770, 1941.000
535.4560, 1975.000
536.6340, 1952.000
537.8120, 1930.000
538.9910, 1973.000
540.1690, 1963.000
541.3460, 1995.000
542.5240, 2005.000
543.7020, 1994.000
544.8790, 2027.000
546.0560, 2057.000
547.2330, 2082.000
548.4100, 2105.471
549.5870, 2118.542
550.7630, 2137.000
551.9400, 2139.000
553.1160, 2136.000
554.2920, 2149.032
555.4680, 2150.734
556.6440, 2190.000
557.8190, 2160.000
558.9950, 2186.000
560.1700, 2184.000
561.3450, 2160.000
562.5200, 2181.000
563.6950, 2132.000
564.8690, 2161.000
566.0440, 2186.000
567.2180, 2186.000
568.3920, 2077.000
569.5660, 2057.000
570.7400, 2079.000
571.9130, 2070.000
573.0870, 2071.000
574.2600, 2043.000
575.4330, 2052.000
576.6060, 1975.000
577.7790, 1986.000
578.9520, 1988.000
580.1240, 1997.000
581.2960, 2021.000
582.4690, 2002.000
583.6410, 2001.000
584.8120, 1968.000
585.9840, 2035.000
587.1560, 2055.000
588.3270, 2000.000
589.4980, 1972.000
590.6690, 1981.000
591.8400, 1985.000
593.0110, 2017.000
594.1810, 1973.000
595.3510, 1966.000
596.5220, 1920.000
597.6920, 1898.000
598.8610, 1885.000
600.0310, 1925.000
601.2010, 1888.000
602.3700, 1871.683
603.5390, 1882.000
604.7080, 1814.000
605.8770, 1763.000
607.0460, 1756.000
608.2140, 1733.871
609.3830, 1711.387
610.5510, 1739.000
611.7190, 1699.000
612.8870, 1694.000
614.0550, 1728.000
615.2220, 1661.000
616.3900, 1700.000
617.5570, 1715.000
618.7240, 1704.000
619.8910, 1679.000
621.0580, 1650.000
622.2240, 1708.000
623.3910, 1684.000
624.5570, 1673.000
625.7230, 1650.000
626.8890, 1686.000
628.0550, 1697.000
629.2200, 1729.000
630.3860, 1668.000
631.5510, 1666.000
632.7160, 1697.000
633.8810, 1679.000
635.0460, 1707.000
636.2100, 1698.000
637.3750, 1674.000
638.5390, 1709.000
639.7030, 1664.000
640.8670, 1729.000
642.0310, 1733.000
643.1950, 1686.000
644.3580, 1738.000
645.5210, 1751.000
646.6850, 1701.000
647.8480, 1749.000
649.0100, 1717.000
650.1730, 1736.000
651.3350, 1712.000
652.4980, 1719.269
653.6600, 1735.000
654.8220, 1731.000
655.9840, 1755.000
657.1450, 1758.000
658.3070, 1736.000
659.4680, 1775.000
660.6300, 1723.000
661.7910, 1731.000
662.9510, 1796.000
664.1120, 1761.000
665.2730, 1769.000
666.4330, 1769.000
667.5930, 1727.000
668.7530, 1738.000
669.9130, 1756.000
671.0730, 1762.000
672.2320, 1760.000
673.3920, 1810.000
674.5510, 1782.000
675.7100, 1803.000
676.8690, 1832.000
678.0280, 1777.000
679.1860, 1801.000
680.3450, 1822.000
681.5030, 1841.000
682.6610, 1840.000
683.8190, 1856.440
684.9770, 1834.000
686.1340, 1861.000
687.2920, 1886.000
688.4490, 1865.000
689.6060, 1827.000
690.7630, 1838.000
691.9200, 1876.000
693.0760, 1930.000
694.2330, 1924.000
695.3890, 1906.000
696.5450, 1903.000
697.7010, 1909.117
698.8570, 1910.749
700.0130, 1924.000
701.1680, 1930.000
702.3230, 1923.000
703.4780, 1927.000
704.6330, 1912.000
705.7880, 1963.000
706.9430, 1967.000
708.0970, 1960.000
709.2520, 1980.000
710.4060, 1963.000
711.5600, 1959.000
712.7140, 1953.000
713.8670, 1987.000
715.0210, 1986.852
716.1740, 1973.000
717.3270, 2015.000
718.4800, 1991.000
719.6330, 1999.000
720.7860, 2001.000
721.9380, 1995.000
723.0910, 2013.412
724.2430, 2055.000
725.3950, 2050.000
726.5470, 2064.000
727.6980, 2094.000
728.8500, 2101.000
730.0010, 2162.000
731.1530, 2075.000
732.3040, 2079.000
733.4550, 2165.000
734.6050, 2117.000
735.7560, 2129.000
736.9060, 2140.000
738.0560, 2208.000
739.2060, 2157.000
740.3560, 2199.000
741.5060, 2219.000
742.6560, 2221.000
743.8050, 2225.000
744.9540, 2267.000
746.1030, 2264.000
747.2520, 2312.000
748.4010, 2320.000
749.5500, 2313.000
750.6980, 2280.000
751.8460, 2369.000
752.9950, 2400.000
754.1420, 2361.000
755.2900, 2347.000
756.4380, 2315.000
757.5850, 2306.000
758.7330, 2323.735
759.8800, 2337.958
761.0270, 2377.000
762.1730, 2427.000
763.3200, 2456.000
764.4670, 2542.000
765.6130, 2482.000
766.7590, 2602.000
767.9050, 2493.000
769.0510, 2580.000
770.1960, 2611.000
771.3420, 2658.000
772.4870, 2666.000
773.6320, 2708.000
774.7770, 2719.000
775.9220, 2749.000
777.0670, 2758.000
778.2110, 2859.000
779.3560, 2887.327
780.5000, 2968.000
781.6440, 3005.000
782.7880, 3025.000
783.9320, 3085.000
785.0750, 3165.000
786.2180, 3297.000
787.3620, 3391.000
788.5050, 3443.000
789.6480, 3661.000
790.7900, 3753.000
791.9330, 3910.000
793.0750, 4140.000
794.2170, 4303.000
795.3590, 4561.000
796.5010, 4933.000
797.6430, 5246.000
798.7850, 5616.000
799.9260, 6145.000
801.0670, 6977.000
802.2080, 7702.000
803.3490, 8829.000
804.4900, 10144.00
805.6310, 11610.00
806.7710, 13414.00
807.9110, 15453.00
809.0510, 17591.00
810.1910, 20121.00
811.3310, 22121.00
812.4710, 23988.00
813.6100, 25316.00
814.7490, 25473.00
815.8880, 25575.00
817.0270, 24869.00
818.1660, 23823.00
819.3050, 22834.00
820.4430, 21583.00
821.5820, 20675.00
822.7200, 19611.00
823.8580, 18985.00
824.9950, 18403.00
826.1330, 18161.00
827.2710, 17883.00
828.4080, 17671.00
829.5450, 17799.00
830.6820, 17624.00
831.8190, 17897.00
832.9560, 18070.00
834.0920, 18071.00
835.2280, 18285.00
836.3650, 18318.00
837.5010, 18242.00
838.6360, 18185.00
839.7720, 17939.00
840.9080, 17685.00
842.0430, 17340.00
843.1780, 16563.00
844.3130, 15965.00
845.4480, 15206.00
846.5830, 14537.00
847.7170, 13781.00
848.8520, 12914.00
849.9860, 12140.00
851.1200, 11453.00
852.2540, 10780.00
853.3870, 10125.00
854.5210, 9521.000
855.6540, 9114.000
856.7880, 8506.000
857.9210, 8190.000
859.0540, 7655.000
860.1860, 7405.000
861.3190, 7137.000
862.4510, 6769.000
863.5840, 6430.000
864.7160, 6214.000
865.8480, 6186.000
866.9790, 5938.000
868.1110, 5790.000
869.2420, 5674.000
870.3740, 5457.000
871.5050, 5434.000
872.6360, 5391.000
873.7660, 5275.000
874.8970, 5147.000
876.0280, 5150.000
877.1580, 5107.000
878.2880, 5048.000
879.4180, 5107.000
880.5480, 5068.000
881.6770, 5120.000
882.8070, 5125.000
883.9360, 5206.000
885.0650, 5307.000
886.1940, 5320.000
887.3230, 5502.000
888.4520, 5620.566
889.5800, 5772.000
890.7090, 5975.000
891.8370, 6188.000
892.9650, 6421.000
894.0930, 6765.000
895.2200, 7343.000
896.3480, 7716.000
897.4750, 8361.000
898.6020, 8806.000
899.7290, 9258.000
900.8560, 9738.000
901.9830, 9820.000
903.1090, 9718.000
904.2360, 9310.000
905.3620, 8842.000
906.4880, 8154.000
907.6140, 7587.000
908.7400, 7127.000
909.8650, 6638.000
910.9900, 6317.000
912.1160, 6075.000
913.2410, 5888.000
914.3660, 5781.000
915.4900, 5664.000
916.6150, 5485.000
917.7390, 5585.000
918.8640, 5420.000
919.9880, 5446.000
921.1120, 5391.000
922.2350, 5478.000
923.3590, 5440.000
924.4820, 5273.734
925.6060, 5285.743
926.7290, 5277.077
927.8520, 5248.152
928.9740, 5177.096
930.0970, 5130.817
931.2190, 5056.535
932.3420, 4968.637
933.4640, 4961.000
934.5860, 4901.000
935.7080, 4787.000
936.8290, 4713.000
937.9510, 4664.000
939.0720, 4571.000
940.1930, 4517.506
941.3140, 4424.000
942.4350, 4395.000
943.5560, 4345.000
944.6760, 4288.000
945.7960, 4164.000
946.9170, 4210.000
948.0370, 4066.000
949.1560, 4042.000
950.2760, 4084.000
951.3960, 3977.000
952.5150, 3916.000
953.6340, 3966.000
954.7530, 3911.000
955.8720, 3998.000
956.9910, 3831.096
958.1090, 3828.936
959.2280, 3819.023
960.3460, 3801.812
961.4640, 3755.365
962.5820, 3746.670
963.6990, 3722.862
964.8170, 3698.416
965.9340, 3695.051
967.0510, 3652.874
968.1690, 3649.157
969.2850, 3630.116
970.4020, 3619.000
971.5190, 3609.749
972.6350, 3580.000
973.7510, 3582.000
974.8670, 3516.000
975.9830, 3479.000
977.0990, 3511.000
978.2150, 3490.000
979.3300, 3510.000
980.4450, 3468.000
981.5600, 3420.000
982.6750, 3430.000
983.7900, 3393.000
984.9050, 3420.000
986.0190, 3354.000
987.1340, 3391.000
988.2480, 3398.000
989.3620, 3323.000
990.4750, 3332.000
991.5890, 3338.000
992.7020, 3368.000
993.8160, 3239.000
994.9290, 3282.000
996.0420, 3217.000
997.1550, 3268.000
998.2670, 3219.000
999.3800, 3173.000
1000.492, 3204.000
1001.604, 3247.000
1002.716, 3209.000
1003.828, 3183.000
1004.940, 3095.000
1006.051, 3135.000
1007.163, 3103.000
1008.274, 3121.000
1009.385, 3124.000
1010.496, 3060.000
1011.606, 3112.000
1012.717, 3089.000
1013.827, 3087.000
1014.937, 3105.784
1016.047, 3066.000
1017.157, 3093.000
1018.267, 3089.000
1019.377, 3025.000
1020.486, 3046.000
1021.595, 3000.000
1022.704, 3034.000
1023.813, 3014.000
1024.922, 3035.000
1026.030, 3025.481
1027.139, 3015.643
1028.247, 3002.000
1029.355, 2989.000
1030.463, 2974.000
1031.571, 2952.000
1032.678, 2959.000
1033.786, 2948.000
1034.893, 2957.806
1036.000, 2962.823
1037.107, 2987.000
1038.214, 2968.000
1039.321, 2986.000
1040.427, 2963.000
1041.533, 2909.000
1042.639, 3007.000
1043.745, 2935.000
1044.851, 2878.000
1045.957, 2917.000
1047.062, 3009.000
1048.168, 2976.000
1049.273, 2924.000
1050.378, 2923.000
1051.482, 2893.000
1052.587, 2907.000
1053.692, 2882.000
1054.796, 2905.000
1055.900, 2952.000
1057.004, 2994.000
1058.108, 2939.000
1059.212, 2936.000
1060.315, 2906.000
1061.418, 2972.000
1062.522, 2916.000
1063.625, 2915.000
1064.728, 2952.000
1065.830, 2901.645
1066.933, 2925.629
1068.035, 2877.000
1069.137, 2929.000
1070.239, 2974.000
1071.341, 2975.000
1072.443, 2955.000
1073.545, 2910.000
1074.646, 2931.000
1075.747, 2885.000
1076.848, 2933.000
1077.949, 2898.000
1079.050, 2859.000
1080.150, 2911.000
1081.251, 2916.000
1082.351, 2904.000
1083.451, 2884.000
1084.551, 2932.000
1085.651, 2926.000
1086.750, 2894.000
1087.850, 2978.000
1088.949, 2933.000
1090.048, 2869.000
1091.147, 2927.000
1092.246, 2856.000
1093.345, 2896.000
1094.443, 2921.000
1095.541, 2915.000
1096.639, 2860.000
1097.737, 2926.000
1098.835, 2877.000
1099.933, 2906.000
1101.030, 2915.000
1102.128, 2883.000
1103.225, 2903.000
1104.322, 2853.000
1105.419, 2804.000
1106.515, 2891.000
1107.612, 2814.000
1108.708, 2893.000
1109.804, 2874.000
1110.900, 2896.000
1111.996, 2855.000
1113.092, 2825.000
1114.187, 2910.000
1115.283, 2841.000
1116.378, 2860.000
1117.473, 2894.000
1118.568, 2916.000
1119.662, 2905.000
1120.757, 2898.000
1121.851, 2892.000
1122.946, 2899.000
1124.040, 2902.000
1125.134, 2895.000
1126.227, 2904.000
1127.321, 2954.000
1128.414, 2949.000
1129.508, 3002.000
1130.601, 2955.000
1131.693, 2906.000
1132.786, 2941.000
1133.879, 2932.000
1134.971, 2959.000
1136.064, 2982.000
1137.156, 2910.000
1138.248, 2923.000
1139.339, 2930.000
1140.431, 2926.000
1141.522, 2959.000
1142.614, 2879.000
1143.705, 2872.000
1144.796, 2902.000
1145.887, 2872.000
1146.977, 2931.000
1148.068, 2899.000
1149.158, 2862.000
1150.248, 2872.000
1151.338, 2832.000
1152.428, 2877.000
1153.518, 2836.000
1154.607, 2831.000
1155.696, 2882.000
1156.785, 2845.000
1157.874, 2796.000
1158.963, 2779.000
1160.052, 2784.000
1161.141, 2793.000
1162.229, 2764.000
1163.317, 2745.000
1164.405, 2776.000
1165.493, 2741.835
1166.581, 2749.933
1167.668, 2713.000
1168.756, 2736.000
1169.843, 2724.000
1170.930, 2696.000
1172.017, 2726.000
1173.103, 2712.000
1174.190, 2685.000
1175.276, 2668.000
1176.363, 2685.000
1177.449, 2732.000
1178.535, 2723.000
1179.620, 2703.000
1180.706, 2767.707
1181.791, 2721.924
1182.877, 2714.685
1183.962, 2682.000
1185.047, 2660.000
1186.131, 2646.000
1187.216, 2627.000
1188.300, 2622.997
1189.385, 2618.075
1190.469, 2625.000
1191.553, 2617.000
1192.637, 2630.000
1193.720, 2625.000
1194.804, 2601.000
1195.887, 2575.000
1196.970, 2628.000
1198.053, 2634.000
1199.136, 2571.000
1200.219, 2507.000
1201.301, 2554.000
1202.383, 2568.000
1203.465, 2564.000
1204.547, 2582.000
1205.629, 2567.429
1206.711, 2612.000
1207.792, 2550.000
1208.874, 2549.000
1209.955, 2563.000
1211.036, 2612.000
1212.117, 2562.000
1213.198, 2572.000
1214.278, 2546.000
1215.359, 2549.000
1216.439, 2563.000
1217.519, 2515.000
1218.599, 2530.000
1219.678, 2543.000
1220.758, 2564.000
1221.837, 2524.000
1222.917, 2571.000
1223.996, 2521.000
1225.075, 2504.000
1226.153, 2522.000
1227.232, 2521.000
1228.310, 2547.000
1229.389, 2564.000
1230.467, 2570.000
1231.545, 2601.000
1232.622, 2555.000
1233.700, 2570.000
1234.777, 2577.000
1235.855, 2530.000
1236.932, 2560.000
1238.009, 2546.000
1239.086, 2608.000
1240.162, 2494.000
1241.239, 2530.000
1242.315, 2590.000
1243.391, 2553.000
1244.467, 2601.000
1245.543, 2527.000
1246.619, 2532.000
1247.694, 2582.000
1248.769, 2589.000
1249.844, 2543.000
1250.919, 2581.000
1251.994, 2502.000
1253.069, 2599.000
1254.144, 2593.000
1255.218, 2578.000
1256.292, 2571.000
1257.366, 2546.000
1258.440, 2594.000
1259.514, 2537.000
1260.587, 2609.000
1261.661, 2590.000
1262.734, 2511.000
1263.807, 2594.000
1264.880, 2547.000
1265.952, 2565.000
1267.025, 2564.000
1268.097, 2582.000
1269.170, 2573.000
1270.242, 2585.000
1271.314, 2523.000
1272.385, 2624.000
1273.457, 2607.000
1274.528, 2572.000
1275.600, 2621.000
1276.671, 2518.000
1277.742, 2581.000
1278.812, 2542.000
1279.883, 2592.000
1280.954, 2526.000
1282.024, 2591.000
1283.094, 2610.000
1284.164, 2589.000
1285.234, 2566.000
1286.303, 2582.000
1287.373, 2623.000
1288.442, 2528.000
1289.511, 2554.000
1290.580, 2598.000
1291.649, 2561.000
1292.718, 2587.000
1293.786, 2633.000
1294.855, 2582.000
1295.923, 2598.000
1296.991, 2605.000
1298.059, 2585.000
1299.126, 2572.000
1300.194, 2604.000
1301.261, 2628.000
1302.328, 2617.446
1303.395, 2648.000
1304.462, 2628.000
1305.529, 2622.384
1306.596, 2597.000
1307.662, 2594.000
1308.728, 2613.000
1309.794, 2606.000
1310.860, 2666.000
1311.926, 2613.000
1312.991, 2565.000
1314.057, 2629.000
1315.122, 2640.000
1316.187, 2641.000
1317.252, 2651.000
1318.317, 2666.000
1319.381, 2606.000
1320.446, 2668.000
1321.510, 2649.000
1322.574, 2655.000
1323.638, 2693.000
1324.702, 2605.000
1325.766, 2601.000
1326.829, 2650.000
1327.892, 2669.000
1328.956, 2663.019
1330.019, 2671.000
1331.081, 2667.000
1332.144, 2651.000
1333.206, 2688.000
1334.269, 2698.000
1335.331, 2686.000
1336.393, 2653.000
1337.455, 2630.000
1338.516, 2642.000
1339.578, 2691.000
1340.639, 2683.000
1341.701, 2700.000
1342.762, 2678.000
1343.822, 2652.000
1344.883, 2630.000
1345.944, 2608.000
1347.004, 2665.000
1348.064, 2701.000
1349.124, 2641.000
1350.184, 2721.000
1351.244, 2696.000
1352.304, 2720.000
1353.363, 2653.000
1354.422, 2651.000
1355.481, 2697.000
1356.540, 2679.000
1357.599, 2699.000
1358.657, 2676.000
1359.716, 2690.000
1360.774, 2681.000
1361.832, 2651.000
1362.890, 2606.000
1363.948, 2703.000
1365.006, 2647.000
1366.063, 2686.000
1367.120, 2656.000
1368.178, 2676.000
1369.234, 2647.000
1370.291, 2714.000
1371.348, 2711.000
1372.404, 2697.000
1373.461, 2722.000
1374.517, 2728.000
1375.573, 2735.000
1376.629, 2722.454
1377.684, 2760.000
1378.740, 2678.000
1379.795, 2682.000
1380.850, 2656.000
1381.905, 2713.000
1382.960, 2742.000
1384.015, 2696.000
1385.070, 2673.000
1386.124, 2746.000
1387.178, 2664.000
1388.232, 2683.000
1389.286, 2705.000
1390.340, 2720.000
1391.393, 2730.000
1392.447, 2692.000
1393.500, 2641.000
1394.553, 2648.000
1395.606, 2707.000
1396.659, 2676.000
1397.711, 2708.000
1398.764, 2666.000
1399.816, 2682.000
1400.868, 2684.000
1401.920, 2717.000
1402.972, 2716.787
1404.023, 2678.000
1405.075, 2717.000
1406.126, 2646.000
1407.177, 2613.000
1408.228, 2638.322
1409.279, 2664.000
1410.330, 2686.000
1411.380, 2700.000
1412.431, 2762.000
1413.481, 2694.000
1414.531, 2713.000
1415.580, 2778.000
1416.630, 2711.000
1417.680, 2706.000
1418.729, 2739.000
1419.778, 2755.000
1420.827, 2737.423
1421.876, 2659.000
1422.925, 2696.000
1423.973, 2738.000
1425.022, 2709.000
1426.070, 2764.000
1427.118, 2679.000
1428.166, 2753.000
1429.214, 2697.000
1430.261, 2698.000
1431.309, 2684.000
1432.356, 2657.000
1433.403, 2660.000
1434.450, 2662.000
1435.497, 2659.955
1436.543, 2675.990
1437.590, 2669.000
1438.636, 2698.000
1439.682, 2694.000
1440.728, 2682.000
1441.774, 2688.000
1442.819, 2719.000
1443.865, 2714.000
1444.910, 2714.000
1445.955, 2714.688
1447.000, 2693.000
1448.045, 2684.000
1449.090, 2659.000
1450.134, 2614.000
1451.178, 2709.000
1452.223, 2736.000
1453.267, 2713.000
1454.310, 2707.000
1455.354, 2731.000
1456.398, 2663.000
1457.441, 2685.000
1458.484, 2702.000
1459.527, 2666.000
1460.570, 2667.000
1461.613, 2669.000
1462.655, 2695.000
1463.698, 2707.000
1464.740, 2681.000
1465.782, 2734.000
1466.824, 2665.000
1467.866, 2687.000
1468.907, 2661.000
1469.948, 2643.000
1470.990, 2699.000
1472.031, 2701.000
1473.072, 2633.000
1474.112, 2674.000
1475.153, 2652.000
1476.194, 2669.000
1477.234, 2632.000
1478.274, 2630.000
1479.314, 2667.000
1480.354, 2631.000
1481.393, 2612.000
1482.433, 2601.000
1483.472, 2672.000
1484.511, 2739.000
1485.550, 2671.000
1486.589, 2665.000
1487.628, 2674.000
1488.666, 2590.000
1489.704, 2629.000
1490.743, 2716.000
1491.781, 2639.000
1492.819, 2657.000
1493.856, 2678.000
1494.894, 2628.000
1495.931, 2651.000
1496.968, 2634.000
1498.005, 2609.000
1499.042, 2600.000
1500.079, 2576.100
1501.115, 2615.000
1502.152, 2561.000
1503.188, 2565.000
1504.224, 2615.000
1505.260, 2614.000
1506.296, 2573.000
1507.331, 2613.000
1508.367, 2623.000
1509.402, 2559.000
1510.437, 2602.000
1511.472, 2544.000
1512.507, 2590.000
1513.541, 2598.000
1514.576, 2566.000
1515.610, 2554.000
1516.644, 2574.000
1517.678, 2576.000
1518.712, 2555.000
1519.746, 2531.000
1520.779, 2547.401
1521.813, 2508.000
1522.846, 2566.000
1523.879, 2576.000
1524.912, 2572.000
1525.944, 2565.000
1526.977, 2573.591
1528.009, 2596.000
1529.041, 2577.000
1530.073, 2580.000
1531.105, 2570.000
1532.137, 2560.353
1533.168, 2580.000
1534.200, 2542.000
1535.231, 2582.000
1536.262, 2575.000
1537.293, 2578.000
1538.324, 2568.000
1539.354, 2534.000
1540.385, 2554.000
1541.415, 2596.000
1542.445, 2539.000
1543.475, 2551.000
1544.505, 2572.000
1545.534, 2492.000
1546.564, 2501.000
1547.593, 2511.000
1548.622, 2581.000
1549.651, 2524.000
1550.680, 2520.000
1551.708, 2558.000
1552.737, 2549.000
1553.765, 2496.000
1554.793, 2557.000
1555.821, 2515.000
1556.849, 2492.000
1557.877, 2497.000
1558.904, 2513.000
1559.932, 2457.000
1560.959, 2563.000
1561.986, 2448.000
1563.013, 2502.000
1564.039, 2475.000
1565.066, 2472.000
1566.092, 2451.000
1567.119, 2459.000
1568.145, 2429.000
1569.170, 2491.000
1570.196, 2440.000
1571.222, 2526.000
1572.247, 2434.000
1573.272, 2502.000
1574.297, 2476.000
1575.322, 2476.000
1576.347, 2457.000
##END=



