##NAMES=Fayalite
##RRUFFID=R070157
##IDEAL CHEMISTRY=Fe^2+^_2_SiO_4_
##LOCALITY=Coso Hot Springs, Inyo County, California, USA
##OWNER=RRUFF
##SOURCE=James Shigley
##DESCRIPTION=Brown transparent tabular crystals associated with fine grained quartz
##STATUS=The identification of this mineral is confirmed by single-crystal X-ray diffraction and chemical analysis.
##URL=rruff.info/R070157
##MEASURED CHEMISTRY=(Fe^2+^_1.88_Mn_0.11_Zn_0.01_)_Î£=2_Si_1.00_O_4_ ; trace amounts of Mg
##PIN_ID=M01904
##ORIENTATION=Laser parallel to a* (1 0 0). Fiducial mark perpendicular to laser is parallel to b [0 1 0]
140.0920, 38176.90
141.3240, 38148.84
142.5560, 38115.88
143.7880, 38249.36
145.0190, 38076.13
146.2510, 38206.97
147.4820, 38216.43
148.7130, 38204.00
149.9440, 38289.03
151.1750, 38326.12
152.4050, 38346.00
153.6360, 38456.00
154.8660, 38453.00
156.0960, 38598.00
157.3260, 38806.75
158.5560, 39095.36
159.7850, 39375.00
161.0150, 40009.00
162.2440, 40460.00
163.4730, 41253.00
164.7020, 42264.00
165.9310, 43422.00
167.1590, 44052.00
168.3880, 45735.00
169.6160, 47774.00
170.8440, 49695.00
172.0720, 50838.00
173.3000, 51070.00
174.5280, 50315.00
175.7550, 48644.00
176.9820, 46023.00
178.2100, 43673.00
179.4370, 41712.00
180.6630, 40040.00
181.8900, 39485.00
183.1170, 38961.00
184.3430, 38695.00
185.5690, 38559.00
186.7950, 38660.00
188.0210, 38525.00
189.2470, 38271.00
190.4720, 38378.00
191.6970, 38072.00
192.9230, 38107.00
194.1480, 37882.00
195.3730, 38012.00
196.5970, 37822.00
197.8220, 37649.00
199.0460, 37658.00
200.2700, 37352.00
201.4940, 37444.00
202.7180, 37483.00
203.9420, 37166.00
205.1660, 36885.00
206.3890, 36299.00
207.6120, 36591.00
208.8350, 36436.00
210.0580, 36499.00
211.2810, 36523.00
212.5040, 36669.00
213.7260, 36864.00
214.9480, 36884.00
216.1700, 37090.00
217.3920, 37342.00
218.6140, 37454.00
219.8360, 37781.00
221.0570, 37964.00
222.2790, 38123.00
223.5000, 38452.00
224.7210, 38771.25
225.9410, 39358.00
227.1620, 39665.00
228.3820, 40470.00
229.6030, 41176.00
230.8230, 41761.00
232.0430, 42305.00
233.2630, 43150.00
234.4820, 44243.00
235.7020, 45086.00
236.9210, 46150.00
238.1400, 46980.00
239.3590, 47277.00
240.5780, 47372.70
241.7970, 47020.00
243.0150, 46407.00
244.2340, 45873.00
245.4520, 44467.00
246.6700, 43760.00
247.8880, 42728.00
249.1060, 42006.00
250.3230, 41446.00
251.5400, 40802.00
252.7580, 40132.00
253.9750, 39902.00
255.1920, 39815.00
256.4080, 39646.00
257.6250, 39760.00
258.8410, 39986.00
260.0580, 39634.00
261.2740, 39701.05
262.4900, 39281.00
263.7050, 39523.00
264.9210, 39467.00
266.1360, 39558.00
267.3520, 39512.00
268.5670, 40291.00
269.7820, 40517.00
270.9960, 41038.00
272.2110, 41468.00
273.4250, 42049.00
274.6400, 42579.00
275.8540, 43503.00
277.0680, 44349.00
278.2810, 44932.00
279.4950, 45403.00
280.7090, 46208.00
281.9220, 46602.00
283.1350, 47179.00
284.3480, 47173.00
285.5610, 46787.00
286.7730, 46373.00
287.9860, 45800.00
289.1980, 45199.50
290.4100, 44252.00
291.6220, 43784.00
292.8340, 42737.00
294.0460, 41933.00
295.2570, 41767.00
296.4690, 40939.00
297.6800, 40572.00
298.8910, 40306.00
300.1020, 39683.00
301.3120, 39917.00
302.5230, 39535.00
303.7330, 39612.00
304.9440, 39377.00
306.1540, 38896.00
307.3630, 39081.00
308.5730, 39046.00
309.7830, 38945.00
310.9920, 38725.00
312.2010, 38960.00
313.4100, 38727.00
314.6190, 38582.00
315.8280, 38795.00
317.0370, 38628.00
318.2450, 38555.45
319.4530, 38320.00
320.6610, 38298.00
321.8690, 38232.00
323.0770, 38114.00
324.2850, 37942.00
325.4920, 37867.00
326.6990, 37638.00
327.9060, 37790.00
329.1130, 38032.00
330.3200, 37646.00
331.5270, 37718.00
332.7330, 37967.00
333.9390, 38022.00
335.1450, 37960.00
336.3510, 38102.75
337.5570, 38059.00
338.7630, 38110.00
339.9680, 38031.00
341.1740, 37843.00
342.3790, 37956.00
343.5840, 38234.00
344.7890, 37961.00
345.9930, 38154.00
347.1980, 38139.00
348.4020, 38478.00
349.6060, 38605.00
350.8100, 38680.00
352.0140, 38954.00
353.2180, 39683.00
354.4210, 39895.00
355.6250, 39804.00
356.8280, 39516.00
358.0310, 39547.00
359.2340, 39493.00
360.4360, 39689.00
361.6390, 39900.00
362.8410, 40038.54
364.0430, 40231.00
365.2450, 40441.00
366.4470, 40778.00
367.6490, 40908.00
368.8510, 40956.00
370.0520, 41048.00
371.2530, 41017.59
372.4540, 40897.00
373.6550, 40832.00
374.8560, 40771.00
376.0560, 40500.00
377.2570, 40368.97
378.4570, 40444.00
379.6570, 39929.00
380.8570, 39855.00
382.0570, 39631.00
383.2560, 39299.00
384.4560, 39326.00
385.6550, 39099.00
386.8540, 39040.00
388.0530, 38981.00
389.2520, 39136.00
390.4510, 39123.09
391.6490, 39069.99
392.8470, 39225.00
394.0450, 39021.00
395.2430, 38958.00
396.4410, 39130.00
397.6390, 38845.00
398.8360, 39046.00
400.0340, 39129.00
401.2310, 39301.00
402.4280, 39693.00
403.6250, 39642.00
404.8210, 39721.00
406.0180, 39966.00
407.2140, 39937.00
408.4100, 40035.00
409.6060, 40043.00
410.8020, 40283.00
411.9980, 40211.00
413.1930, 40047.00
414.3890, 40213.00
415.5840, 40070.00
416.7790, 39750.00
417.9740, 39821.00
419.1680, 39776.00
420.3630, 39640.00
421.5570, 39105.00
422.7510, 39281.00
423.9450, 38936.00
425.1390, 39143.00
426.3330, 39443.00
427.5270, 39077.02
428.7200, 38720.00
429.9130, 38772.00
431.1060, 38613.00
432.2990, 38755.00
433.4920, 38850.00
434.6840, 38461.00
435.8770, 38600.00
437.0690, 38767.00
438.2610, 38313.00
439.4530, 38599.00
440.6450, 38397.00
441.8360, 38784.00
443.0280, 38649.00
444.2190, 38416.00
445.4100, 38809.00
446.6010, 38698.00
447.7920, 38463.00
448.9820, 38628.00
450.1730, 38649.00
451.3630, 38536.00
452.5530, 38707.00
453.7430, 38682.00
454.9330, 38541.00
456.1230, 38612.00
457.3120, 38749.00
458.5010, 38504.00
459.6910, 38674.00
460.8800, 38909.00
462.0680, 38935.00
463.2570, 38568.00
464.4460, 38887.00
465.6340, 38510.00
466.8220, 38912.00
468.0100, 38783.14
469.1980, 38811.00
470.3860, 38935.00
471.5730, 38782.00
472.7600, 39350.00
473.9480, 39278.00
475.1350, 38868.00
476.3210, 39214.00
477.5080, 39467.00
478.6950, 39325.00
479.8810, 39380.00
481.0670, 39381.00
482.2530, 39648.00
483.4390, 39289.00
484.6250, 39435.00
485.8100, 39599.00
486.9960, 39969.00
488.1810, 39940.00
489.3660, 39935.00
490.5510, 40234.00
491.7360, 40390.00
492.9200, 40840.00
494.1050, 41001.00
495.2890, 41450.00
496.4730, 41465.00
497.6570, 42063.00
498.8400, 42137.00
500.0240, 42702.00
501.2070, 43094.00
502.3910, 43421.00
503.5740, 43687.00
504.7570, 44310.00
505.9400, 44227.00
507.1220, 44497.00
508.3050, 44419.00
509.4870, 44240.00
510.6690, 44075.00
511.8510, 43585.00
513.0330, 43554.00
514.2140, 43217.00
515.3960, 42957.00
516.5770, 42725.00
517.7580, 42805.00
518.9390, 42380.00
520.1200, 42091.00
521.3010, 42236.00
522.4810, 42011.00
523.6610, 42056.00
524.8420, 41726.00
526.0220, 41805.00
527.2010, 41948.00
528.3810, 41804.00
529.5610, 41693.00
530.7400, 41699.00
531.9190, 41523.00
533.0980, 41363.00
534.2770, 41458.00
535.4560, 41548.00
536.6340, 41550.00
537.8120, 41714.00
538.9910, 41869.00
540.1690, 41847.00
541.3460, 41700.00
542.5240, 41952.00
543.7020, 41924.00
544.8790, 41881.00
546.0560, 42202.00
547.2330, 42184.00
548.4100, 42329.00
549.5870, 42610.00
550.7630, 42539.00
551.9400, 42792.00
553.1160, 43042.00
554.2920, 43559.00
555.4680, 43252.00
556.6440, 43259.00
557.8190, 43092.00
558.9950, 43482.00
560.1700, 43534.00
561.3450, 43718.00
562.5200, 43746.00
563.6950, 43598.00
564.8690, 43793.00
566.0440, 43605.00
567.2180, 43652.98
568.3920, 43741.00
569.5660, 43667.00
570.7400, 43758.00
571.9130, 43794.00
573.0870, 43454.00
574.2600, 43251.00
575.4330, 43252.00
576.6060, 42633.00
577.7790, 42704.00
578.9520, 42351.00
580.1240, 42102.00
581.2960, 41929.00
582.4690, 41718.00
583.6410, 41575.00
584.8120, 41347.00
585.9840, 41121.00
587.1560, 41012.00
588.3270, 41170.00
589.4980, 41018.00
590.6690, 40983.00
591.8400, 40939.00
593.0110, 40965.00
594.1810, 40986.19
595.3510, 41113.00
596.5220, 41060.00
597.6920, 41163.00
598.8610, 41138.00
600.0310, 41359.00
601.2010, 41163.00
602.3700, 41362.00
603.5390, 41363.00
604.7080, 41103.00
605.8770, 41009.00
607.0460, 40942.00
608.2140, 41055.00
609.3830, 40985.00
610.5510, 41151.00
611.7190, 40917.00
612.8870, 40933.00
614.0550, 40873.00
615.2220, 41103.00
616.3900, 41082.00
617.5570, 41093.00
618.7240, 41500.00
619.8910, 41282.00
621.0580, 41273.00
622.2240, 41592.00
623.3910, 41800.00
624.5570, 41623.00
625.7230, 41869.00
626.8890, 42108.00
628.0550, 41595.00
629.2200, 41416.00
630.3860, 41659.00
631.5510, 41416.00
632.7160, 41076.00
633.8810, 41272.00
635.0460, 40967.00
636.2100, 40941.00
637.3750, 41124.00
638.5390, 41161.00
639.7030, 41198.00
640.8670, 41327.00
642.0310, 40971.00
643.1950, 41138.00
644.3580, 41109.83
645.5210, 41789.00
646.6850, 41259.00
647.8480, 41667.00
649.0100, 41898.00
650.1730, 41661.00
651.3350, 41503.00
652.4980, 41701.00
653.6600, 41448.00
654.8220, 41333.00
655.9840, 41627.00
657.1450, 41486.00
658.3070, 41399.00
659.4680, 41640.00
660.6300, 41356.00
661.7910, 41313.00
662.9510, 40986.00
664.1120, 41072.00
665.2730, 41030.00
666.4330, 40739.00
667.5930, 40725.00
668.7530, 40897.00
669.9130, 40785.59
671.0730, 40883.00
672.2320, 40939.00
673.3920, 40765.00
674.5510, 40992.00
675.7100, 40721.00
676.8690, 40658.00
678.0280, 40683.00
679.1860, 40478.00
680.3450, 40699.00
681.5030, 40521.00
682.6610, 40615.00
683.8190, 40329.00
684.9770, 40457.00
686.1340, 40304.00
687.2920, 40253.00
688.4490, 40419.00
689.6060, 40469.00
690.7630, 40215.00
691.9200, 40345.00
693.0760, 40191.98
694.2330, 40070.00
695.3890, 40056.00
696.5450, 40030.00
697.7010, 40103.00
698.8570, 40115.00
700.0130, 40076.00
701.1680, 40167.53
702.3230, 40203.00
703.4780, 40278.00
704.6330, 40260.00
705.7880, 40277.67
706.9430, 39881.00
708.0970, 40096.00
709.2520, 39917.00
710.4060, 39783.00
711.5600, 39902.00
712.7140, 40198.00
713.8670, 40092.00
715.0210, 40455.00
716.1740, 40424.00
717.3270, 40309.00
718.4800, 40245.00
719.6330, 40458.00
720.7860, 40604.00
721.9380, 40285.00
723.0910, 40250.00
724.2430, 40652.00
725.3950, 40501.00
726.5470, 40151.00
727.6980, 40468.00
728.8500, 40510.00
730.0010, 40633.00
731.1530, 40762.00
732.3040, 40851.40
733.4550, 40882.00
734.6050, 40974.00
735.7560, 41077.00
736.9060, 40910.00
738.0560, 40907.00
739.2060, 40892.00
740.3560, 41276.00
741.5060, 41268.00
742.6560, 41409.00
743.8050, 41559.00
744.9540, 41379.00
746.1030, 41186.00
747.2520, 41239.00
748.4010, 40893.00
749.5500, 40933.00
750.6980, 41410.00
751.8460, 41097.00
752.9950, 40992.00
754.1420, 40970.00
755.2900, 40677.00
756.4380, 40906.00
757.5850, 41015.00
758.7330, 41030.00
759.8800, 41128.00
761.0270, 41149.42
762.1730, 41380.00
763.3200, 41168.00
764.4670, 40983.00
765.6130, 40922.00
766.7590, 41148.00
767.9050, 41251.00
769.0510, 41280.00
770.1960, 41185.00
771.3420, 41323.00
772.4870, 41482.00
773.6320, 41341.00
774.7770, 41438.00
775.9220, 41772.00
777.0670, 41642.00
778.2110, 41555.00
779.3560, 41873.00
780.5000, 41956.00
781.6440, 41813.00
782.7880, 42331.00
783.9320, 42604.00
785.0750, 42751.00
786.2180, 43152.00
787.3620, 43196.00
788.5050, 43333.00
789.6480, 43811.00
790.7900, 44122.00
791.9330, 44844.00
793.0750, 45007.00
794.2170, 45594.00
795.3590, 46394.00
796.5010, 47467.00
797.6430, 48180.00
798.7850, 48847.00
799.9260, 50475.00
801.0670, 52088.00
802.2080, 53926.00
803.3490, 56347.00
804.4900, 59234.00
805.6310, 62762.00
806.7710, 66592.00
807.9110, 71309.00
809.0510, 76061.00
810.1910, 80941.00
811.3310, 86065.00
812.4710, 90587.00
813.6100, 94260.00
814.7490, 96367.00
815.8880, 97176.00
817.0270, 96908.00
818.1660, 95235.00
819.3050, 93099.00
820.4430, 91174.00
821.5820, 88510.00
822.7200, 86728.00
823.8580, 84832.00
824.9950, 82925.00
826.1330, 82290.00
827.2710, 81559.00
828.4080, 81214.00
829.5450, 81248.00
830.6820, 81726.00
831.8190, 82002.00
832.9560, 82904.00
834.0920, 83742.00
835.2280, 84335.00
836.3650, 85174.00
837.5010, 85367.00
838.6360, 86100.00
839.7720, 86227.00
840.9080, 85768.00
842.0430, 85219.00
843.1780, 84425.00
844.3130, 82736.00
845.4480, 81215.00
846.5830, 78897.00
847.7170, 77073.00
848.8520, 74528.00
849.9860, 72802.00
851.1200, 70376.00
852.2540, 67987.00
853.3870, 65941.00
854.5210, 64211.00
855.6540, 62364.00
856.7880, 61306.00
857.9210, 60068.00
859.0540, 58544.00
860.1860, 57065.00
861.3190, 56126.00
862.4510, 55327.00
863.5840, 54571.00
864.7160, 53794.73
865.8480, 53027.45
866.9790, 52403.00
868.1110, 51585.00
869.2420, 50944.00
870.3740, 50407.00
871.5050, 50091.00
872.6360, 49804.00
873.7660, 49327.00
874.8970, 49370.00
876.0280, 49005.00
877.1580, 48759.00
878.2880, 48964.00
879.4180, 48770.00
880.5480, 48880.00
881.6770, 49108.00
882.8070, 48908.00
883.9360, 49034.00
885.0650, 49535.00
886.1940, 49732.00
887.3230, 50172.00
888.4520, 50583.00
889.5800, 51046.00
890.7090, 51867.00
891.8370, 52246.00
892.9650, 53379.00
894.0930, 54552.00
895.2200, 55923.01
896.3480, 57386.84
897.4750, 59188.00
898.6020, 60542.00
899.7290, 61999.00
900.8560, 63524.00
901.9830, 64369.00
903.1090, 64336.00
904.2360, 63679.00
905.3620, 62418.00
906.4880, 60743.00
907.6140, 59211.00
908.7400, 57852.00
909.8650, 55541.00
910.9900, 54002.00
912.1160, 53041.00
913.2410, 52357.00
914.3660, 51295.00
915.4900, 51103.00
916.6150, 50616.00
917.7390, 50561.00
918.8640, 50000.00
919.9880, 49883.00
921.1120, 49779.00
922.2350, 49593.00
923.3590, 49592.00
924.4820, 49437.00
925.6060, 49173.00
926.7290, 48966.00
927.8520, 48982.00
928.9740, 48681.09
930.0970, 48689.00
931.2190, 48272.00
932.3420, 47881.00
933.4640, 47690.00
934.5860, 47588.00
935.7080, 47403.00
936.8290, 46774.00
937.9510, 46546.00
939.0720, 46134.00
940.1930, 46046.00
941.3140, 45826.00
942.4350, 45545.00
943.5560, 45301.00
944.6760, 45345.00
945.7960, 45135.00
946.9170, 44749.00
948.0370, 44636.00
949.1560, 44763.00
950.2760, 45238.00
951.3960, 44767.00
952.5150, 44650.00
953.6340, 44801.00
954.7530, 44340.00
955.8720, 44014.00
956.9910, 43848.00
958.1090, 43770.00
959.2280, 43554.00
960.3460, 43418.00
961.4640, 43319.09
962.5820, 43265.00
963.6990, 43076.00
964.8170, 43056.00
965.9340, 42851.00
967.0510, 42934.00
968.1690, 42439.00
969.2850, 42669.00
970.4020, 42478.00
971.5190, 42479.00
972.6350, 42640.00
973.7510, 42383.00
974.8670, 42334.00
975.9830, 42394.00
977.0990, 42213.00
978.2150, 42391.00
979.3300, 42186.00
980.4450, 42263.00
981.5600, 41977.00
982.6750, 42012.00
983.7900, 41807.00
984.9050, 41997.00
986.0190, 41792.00
987.1340, 41799.00
988.2480, 41903.00
989.3620, 41982.00
990.4750, 41999.00
991.5890, 41904.00
992.7020, 41795.00
993.8160, 41795.00
994.9290, 41793.00
996.0420, 41833.00
997.1550, 41889.00
998.2670, 42002.00
999.3800, 42105.00
1000.492, 42286.10
1001.604, 42756.95
1002.716, 42982.84
1003.828, 42968.69
1004.940, 42454.72
1006.051, 42235.30
1007.163, 42026.00
1008.274, 41549.00
1009.385, 41657.00
1010.496, 41619.00
1011.606, 41376.00
1012.717, 41329.00
1013.827, 41134.00
1014.937, 41311.00
1016.047, 41127.78
1017.157, 41137.69
1018.267, 41016.00
1019.377, 41163.00
1020.486, 41288.00
1021.595, 41455.00
1022.704, 41723.00
1023.813, 41532.00
1024.922, 41725.00
1026.030, 41291.00
1027.139, 41454.00
1028.247, 41693.00
1029.355, 41266.00
1030.463, 41234.00
1031.571, 41223.00
1032.678, 41483.00
1033.786, 41300.00
1034.893, 41053.00
1036.000, 41188.00
1037.107, 41087.00
1038.214, 40865.00
1039.321, 40947.00
1040.427, 40888.59
1041.533, 40951.00
1042.639, 40949.00
1043.745, 40925.00
1044.851, 40932.00
1045.957, 40952.00
1047.062, 40906.00
1048.168, 41093.00
1049.273, 40886.00
1050.378, 41016.00
1051.482, 41094.00
1052.587, 40997.00
1053.692, 41016.00
1054.796, 40914.00
1055.900, 41095.00
1057.004, 40764.00
1058.108, 40806.00
1059.212, 41009.00
1060.315, 40901.00
1061.418, 41136.00
1062.522, 40809.00
1063.625, 41059.00
1064.728, 40902.00
1065.830, 40955.00
1066.933, 40871.00
1068.035, 40656.00
1069.137, 40999.00
1070.239, 41186.00
1071.341, 40541.00
1072.443, 41139.00
1073.545, 41107.00
1074.646, 40987.00
1075.747, 41224.00
1076.848, 40903.00
1077.949, 41080.00
1079.050, 41258.00
1080.150, 41248.00
1081.251, 41377.00
1082.351, 41378.21
1083.451, 41302.00
1084.551, 41356.00
1085.651, 41370.00
1086.750, 41350.00
1087.850, 41168.00
1088.949, 41066.00
1090.048, 41017.00
1091.147, 41273.00
1092.246, 40976.00
1093.345, 41198.00
1094.443, 41217.00
1095.541, 41040.00
1096.639, 41010.00
1097.737, 41091.00
1098.835, 41032.00
1099.933, 41049.00
1101.030, 40952.00
1102.128, 40884.00
1103.225, 40716.00
1104.322, 40678.00
1105.419, 41026.00
1106.515, 40985.00
1107.612, 40986.93
1108.708, 40802.00
1109.804, 40841.00
1110.900, 41113.00
1111.996, 41000.00
1113.092, 40799.00
1114.187, 41040.45
1115.283, 41216.78
1116.378, 41301.48
1117.473, 41299.45
1118.568, 40950.88
1119.662, 41049.82
1120.757, 40969.41
1121.851, 40881.67
1122.946, 41043.55
1124.040, 41062.00
1125.134, 41185.00
1126.227, 40921.00
1127.321, 41079.00
1128.414, 40858.72
1129.508, 41038.27
1130.601, 41126.18
1131.693, 41127.38
1132.786, 40782.02
1133.879, 40884.14
1134.971, 40806.96
1136.064, 40722.39
1137.156, 40887.51
1138.248, 40817.33
1139.339, 40998.01
1140.431, 41087.00
1141.522, 41089.28
1142.614, 40745.00
1143.705, 40848.23
1144.796, 40772.12
1145.887, 40688.66
1146.977, 40854.89
1148.068, 40561.04
1149.158, 40820.00
1150.248, 40802.00
1151.338, 40705.00
1152.428, 40460.00
1153.518, 40639.00
1154.607, 40368.00
1155.696, 40284.00
1156.785, 40786.00
1157.874, 40309.00
1158.963, 40486.00
1160.052, 40508.00
1161.141, 40239.00
1162.229, 40407.00
1163.317, 40358.00
1164.405, 40452.00
1165.493, 40397.00
1166.581, 40434.00
1167.668, 40528.00
1168.756, 40624.00
1169.843, 40725.00
1170.930, 40446.00
1172.017, 40392.00
1173.103, 40292.00
1174.190, 40429.00
1175.276, 40491.00
1176.363, 40284.00
1177.449, 40409.00
1178.535, 40282.00
1179.620, 40255.00
1180.706, 40361.00
1181.791, 40172.00
1182.877, 40079.00
1183.962, 40346.00
1185.047, 40237.00
1186.131, 40197.00
1187.216, 40288.00
1188.300, 40423.00
1189.385, 40185.00
1190.469, 40070.00
1191.553, 40247.00
1192.637, 40270.00
1193.720, 39769.00
1194.804, 40078.00
1195.887, 39910.00
1196.970, 40098.00
1198.053, 40449.00
1199.136, 40109.00
1200.219, 40143.00
1201.301, 40232.00
1202.383, 40301.00
1203.465, 40160.00
1204.547, 40151.00
1205.629, 40064.00
1206.711, 40143.00
1207.792, 40017.00
1208.874, 40083.00
1209.955, 40039.00
1211.036, 40140.00
1212.117, 39938.00
1213.198, 40237.00
1214.278, 40187.00
1215.359, 40023.00
1216.439, 40295.00
1217.519, 40121.00
1218.599, 40334.00
1219.678, 40364.00
1220.758, 40117.00
1221.837, 40464.00
1222.917, 40400.00
1223.996, 40266.00
1225.075, 40205.00
1226.153, 40233.00
1227.232, 40235.00
1228.310, 40235.00
1229.389, 40273.00
1230.467, 40309.00
1231.545, 40443.00
1232.622, 40366.00
1233.700, 40703.00
1234.777, 40438.00
1235.855, 40692.00
1236.932, 40478.00
1238.009, 40537.00
1239.086, 40850.00
1240.162, 40683.00
1241.239, 40695.00
1242.315, 40818.00
1243.391, 40802.00
1244.467, 40812.00
1245.543, 40820.59
1246.619, 40871.00
1247.694, 40665.00
1248.769, 40913.00
1249.844, 40632.01
1250.919, 40858.57
1251.994, 41052.00
1253.069, 41091.00
1254.144, 41076.00
1255.218, 40905.00
1256.292, 40897.00
1257.366, 40820.00
1258.440, 41222.00
1259.514, 41214.00
1260.587, 41114.00
1261.661, 41211.00
1262.734, 41016.00
1263.807, 41321.00
1264.880, 41109.00
1265.952, 41172.00
1267.025, 41584.00
1268.097, 41257.00
1269.170, 41490.00
1270.242, 41761.00
1271.314, 41794.00
1272.385, 41885.00
1273.457, 41766.00
1274.528, 41643.00
1275.600, 41855.00
1276.671, 41924.00
1277.742, 41772.00
1278.812, 41687.00
1279.883, 41740.00
1280.954, 41593.00
1282.024, 41825.00
1283.094, 41726.00
1284.164, 41723.82
1285.234, 41964.00
1286.303, 41731.00
1287.373, 41659.00
1288.442, 41794.00
1289.511, 41840.00
1290.580, 41932.00
1291.649, 42049.00
1292.718, 42220.00
1293.786, 42282.00
1294.855, 42349.13
1295.923, 42415.24
1296.991, 42337.00
1298.059, 42483.00
1299.126, 42325.00
1300.194, 42350.00
1301.261, 42409.02
1302.328, 42891.00
1303.395, 42542.00
1304.462, 42657.00
1305.529, 42787.00
1306.596, 42634.00
1307.662, 42942.00
1308.728, 42970.00
1309.794, 42945.00
1310.860, 43347.00
1311.926, 43177.00
1312.991, 43213.00
1314.057, 43209.00
1315.122, 43338.00
1316.187, 43300.00
1317.252, 43301.59
1318.317, 43223.00
1319.381, 43259.00
1320.446, 43340.00
1321.510, 43374.00
1322.574, 43298.00
1323.638, 43251.00
1324.702, 43054.00
1325.766, 42838.00
1326.829, 42851.36
1327.892, 43008.00
1328.956, 43072.92
1330.019, 43051.16
1331.081, 42682.91
1332.144, 42762.09
1333.206, 42661.99
1334.269, 42554.48
1335.331, 42696.68
1336.393, 42378.84
1337.455, 42517.09
1338.516, 42473.31
1339.578, 42512.81
1340.639, 42218.00
1341.701, 42282.00
1342.762, 42494.00
1343.822, 42403.00
1344.883, 42693.00
1345.944, 42228.00
1347.004, 42156.00
1348.064, 41987.00
1349.124, 42176.00
1350.184, 42007.00
1351.244, 42044.00
1352.304, 41936.00
1353.363, 42056.00
1354.422, 41958.00
1355.481, 41889.00
1356.540, 41640.00
1357.599, 41621.43
1358.657, 41518.57
1359.716, 41459.00
1360.774, 41429.00
1361.832, 41299.25
1362.890, 41309.75
1363.948, 41202.00
1365.006, 41396.00
1366.063, 41487.00
1367.120, 41434.00
1368.178, 41386.00
1369.234, 41196.00
1370.291, 41292.00
1371.348, 41349.00
1372.404, 41179.00
1373.461, 40956.00
1374.517, 41444.00
1375.573, 41217.00
1376.629, 41284.00
1377.684, 41375.00
1378.740, 41028.00
1379.795, 41252.00
1380.850, 40809.44
1381.905, 41000.68
1382.960, 41100.25
1384.015, 41113.09
1385.070, 40779.39
1386.124, 40893.18
1387.178, 40827.65
1388.232, 40754.76
1389.286, 40931.53
1390.340, 40480.11
1391.393, 40696.84
1392.447, 40821.92
1393.500, 40860.26
1394.553, 40552.06
1395.606, 40691.33
1396.659, 40651.28
1397.711, 40603.87
1398.764, 40806.12
1399.816, 40548.32
1400.868, 40746.61
1401.920, 40642.00
1402.972, 40412.00
1404.023, 40597.00
1405.075, 40501.00
1406.126, 40428.00
1407.177, 40410.00
1408.228, 40428.93
1409.279, 40351.00
1410.330, 40528.00
1411.380, 40566.00
1412.431, 40575.00
1413.481, 40647.00
1414.531, 40377.00
1415.580, 40401.00
1416.630, 40513.00
1417.680, 40320.00
1418.729, 40400.00
1419.778, 40137.00
1420.827, 40394.00
1421.876, 40201.00
1422.925, 40168.00
1423.973, 40500.00
1425.022, 40625.00
1426.070, 40176.00
1427.118, 40179.00
1428.166, 40361.00
1429.214, 40444.00
1430.261, 40462.00
1431.309, 40459.00
1432.356, 40648.00
1433.403, 40413.00
1434.450, 40710.00
1435.497, 41161.00
1436.543, 40855.00
1437.590, 41057.00
1438.636, 41442.00
1439.682, 41350.00
1440.728, 41553.00
1441.774, 41682.00
1442.819, 41724.41
1443.865, 41859.45
1444.910, 42072.43
1445.955, 42256.31
1447.000, 42370.41
1448.045, 42418.00
1449.090, 42225.88
1450.134, 42323.39
1451.178, 42292.68
1452.223, 42248.40
1453.267, 42361.89
1454.310, 42160.04
1455.354, 42253.56
1456.398, 42217.04
1457.441, 42227.46
1458.484, 42108.94
1459.527, 42018.93
1460.570, 42040.59
1461.613, 41859.00
1462.655, 41566.00
1463.698, 41661.00
1464.740, 41747.00
1465.782, 41208.00
1466.824, 41055.00
1467.866, 41267.00
1468.907, 41135.00
1469.948, 40766.00
1470.990, 40968.00
1472.031, 40720.00
1473.072, 40599.00
1474.112, 40617.00
1475.153, 40586.00
1476.194, 40501.90
1477.234, 40306.00
1478.274, 40332.00
1479.314, 40300.00
1480.354, 40149.00
1481.393, 40606.00
1482.433, 40326.00
1483.472, 40355.00
1484.511, 40090.00
1485.550, 40168.00
1486.589, 40028.00
1487.628, 40248.00
1488.666, 39722.00
1489.704, 40099.00
1490.743, 39733.00
1491.781, 39805.00
1492.819, 39621.00
1493.856, 39610.00
1494.894, 39545.00
1495.931, 39532.00
1496.968, 39461.68
1498.005, 39477.00
1499.042, 39344.00
1500.079, 39354.52
1501.115, 39349.00
1502.152, 39190.00
1503.188, 39310.00
1504.224, 39184.00
1505.260, 39147.00
1506.296, 38801.00
1507.331, 39228.00
1508.367, 39179.00
1509.402, 39312.00
1510.437, 39041.00
1511.472, 39166.00
1512.507, 39034.00
1513.541, 39095.00
1514.576, 39019.84
1515.610, 39199.00
1516.644, 38944.00
1517.678, 38865.00
1518.712, 39017.00
1519.746, 39222.00
1520.779, 39087.00
1521.813, 39228.68
1522.846, 39098.00
1523.879, 39253.00
1524.912, 38844.00
1525.944, 38770.71
1526.977, 38992.27
1528.009, 39122.16
1529.041, 39165.30
1530.073, 38861.92
1531.105, 39006.01
1532.137, 38970.77
1533.168, 38928.17
1534.200, 39135.24
1535.231, 38882.25
1536.262, 39085.35
1537.293, 39106.39
1538.324, 39210.75
1539.354, 39134.67
1540.385, 39114.33
1541.415, 39050.00
1542.445, 38952.00
1543.475, 38830.00
1544.505, 38898.00
1545.534, 38915.00
1546.564, 39001.00
1547.593, 39093.80
1548.622, 39039.00
1549.651, 39328.00
1550.680, 39635.30
1551.708, 39736.90
1552.737, 39746.72
1553.765, 39669.92
1554.793, 39246.59
1555.821, 39270.72
1556.849, 39115.54
1557.877, 38953.01
1558.904, 39040.23
1559.932, 38526.00
1560.959, 38729.00
1561.986, 38426.00
1563.013, 38299.00
1564.039, 38280.00
1565.066, 38552.00
1566.092, 38409.00
1567.119, 38534.00
1568.145, 38345.00
1569.170, 38453.00
1570.196, 38357.75
1571.222, 38333.53
1572.247, 38236.00
1573.272, 38324.00
1574.297, 38351.00
1575.322, 38403.00
1576.347, 38376.00
1577.372, 38338.00
##END=



