##NAMES=Fayalite
##RRUFFID=R070157
##IDEAL CHEMISTRY=Fe^2+^_2_SiO_4_
##LOCALITY=Coso Hot Springs, Inyo County, California, USA
##OWNER=RRUFF
##SOURCE=James Shigley
##DESCRIPTION=Brown transparent tabular crystals associated with fine grained quartz
##STATUS=The identification of this mineral is confirmed by single-crystal X-ray diffraction and chemical analysis.
##URL=rruff.info/R070157
##MEASURED CHEMISTRY=(Fe^2+^_1.88_Mn_0.11_Zn_0.01_)_Î£=2_Si_1.00_O_4_ ; trace amounts of Mg
##PIN_ID=M00908
##ORIENTATION=Laser parallel to -b* (0 -1 0). Fiducial mark perpendicular to laser is parallel to c [0 0 1]
142.5560, 12950.00
143.7880, 13028.00
145.0190, 13119.00
146.2510, 13102.00
147.4820, 13201.00
148.7130, 13607.00
149.9440, 13720.00
151.1750, 13963.00
152.4050, 14016.00
153.6360, 14617.00
154.8660, 14855.00
156.0960, 15501.00
157.3260, 16292.00
158.5560, 17389.00
159.7850, 19431.00
161.0150, 21708.00
162.2440, 24478.00
163.4730, 27644.00
164.7020, 32217.00
165.9310, 38396.00
167.1590, 45643.00
168.3880, 52837.00
169.6160, 58742.00
170.8440, 62380.00
172.0720, 63003.00
173.3000, 61108.00
174.5280, 56202.00
175.7550, 48533.00
176.9820, 39992.00
178.2100, 31665.00
179.4370, 25455.00
180.6630, 20707.00
181.8900, 18159.00
183.1170, 16501.00
184.3430, 15362.00
185.5690, 14658.00
186.7950, 14216.00
188.0210, 13671.00
189.2470, 13474.00
190.4720, 13412.00
191.6970, 13149.00
192.9230, 12906.00
194.1480, 13065.00
195.3730, 13014.00
196.5970, 12861.00
197.8220, 13021.00
199.0460, 13041.00
200.2700, 13007.00
201.4940, 13196.00
202.7180, 12999.00
203.9420, 12937.00
205.1660, 12975.00
206.3890, 13119.00
207.6120, 13083.00
208.8350, 13267.00
210.0580, 13570.00
211.2810, 13724.00
212.5040, 14118.00
213.7260, 14400.00
214.9480, 14563.00
216.1700, 15168.00
217.3920, 15529.00
218.6140, 16100.00
219.8360, 16711.00
221.0570, 17437.00
222.2790, 18348.00
223.5000, 19796.00
224.7210, 20893.00
225.9410, 22569.00
227.1620, 24654.00
228.3820, 26654.00
229.6030, 29650.00
230.8230, 32860.00
232.0430, 35948.00
233.2630, 39547.00
234.4820, 43040.00
235.7020, 46275.00
236.9210, 48959.00
238.1400, 50265.00
239.3590, 50613.00
240.5780, 50160.00
241.7970, 48068.00
243.0150, 45224.00
244.2340, 42256.00
245.4520, 38568.00
246.6700, 35075.00
247.8880, 32175.00
249.1060, 29796.00
250.3230, 27380.00
251.5400, 25780.00
252.7580, 24090.00
253.9750, 22840.00
255.1920, 21740.00
256.4080, 20998.00
257.6250, 20349.00
258.8410, 19628.00
260.0580, 18935.00
261.2740, 18426.00
262.4900, 17791.00
263.7050, 17478.00
264.9210, 17092.00
266.1360, 16764.00
267.3520, 16679.00
268.5670, 16476.00
269.7820, 16169.00
270.9960, 16051.00
272.2110, 16137.00
273.4250, 16167.00
274.6400, 16092.00
275.8540, 16228.00
277.0680, 16093.00
278.2810, 16188.00
279.4950, 16284.00
280.7090, 16558.00
281.9220, 16698.00
283.1350, 16735.00
284.3480, 16938.00
285.5610, 16939.00
286.7730, 17147.00
287.9860, 16974.06
289.1980, 16628.00
290.4100, 16566.00
291.6220, 16103.00
292.8340, 15797.00
294.0460, 15299.00
295.2570, 14923.00
296.4690, 14478.00
297.6800, 14248.00
298.8910, 13897.74
300.1020, 13665.00
301.3120, 13313.00
302.5230, 13328.00
303.7330, 13015.00
304.9440, 12896.00
306.1540, 12923.00
307.3630, 12808.00
308.5730, 12772.00
309.7830, 12704.00
310.9920, 12755.00
312.2010, 12553.00
313.4100, 12358.00
314.6190, 12387.00
315.8280, 12252.00
317.0370, 12324.00
318.2450, 11982.00
319.4530, 12085.00
320.6610, 11936.00
321.8690, 12010.00
323.0770, 11940.00
324.2850, 11864.00
325.4920, 11760.00
326.6990, 11858.00
327.9060, 11853.00
329.1130, 11751.00
330.3200, 11657.00
331.5270, 11801.00
332.7330, 11717.00
333.9390, 11780.00
335.1450, 11745.00
336.3510, 11702.00
337.5570, 11819.00
338.7630, 11732.00
339.9680, 11678.00
341.1740, 11832.00
342.3790, 11746.00
343.5840, 11933.00
344.7890, 12075.00
345.9930, 11845.00
347.1980, 12077.00
348.4020, 12006.00
349.6060, 12205.00
350.8100, 12394.00
352.0140, 12202.00
353.2180, 12507.00
354.4210, 12607.00
355.6250, 12574.00
356.8280, 12869.00
358.0310, 12974.00
359.2340, 13028.00
360.4360, 13503.00
361.6390, 13429.00
362.8410, 13750.00
364.0430, 13903.00
365.2450, 14162.00
366.4470, 14245.00
367.6490, 14409.00
368.8510, 14514.00
370.0520, 14512.00
371.2530, 14839.00
372.4540, 14633.00
373.6550, 14622.88
374.8560, 14506.00
376.0560, 14296.00
377.2570, 14278.00
378.4570, 14026.00
379.6570, 13828.00
380.8570, 13718.00
382.0570, 13628.00
383.2560, 13434.00
384.4560, 13490.00
385.6550, 13174.00
386.8540, 13137.00
388.0530, 13022.00
389.2520, 12758.00
390.4510, 12743.00
391.6490, 12617.00
392.8470, 12719.00
394.0450, 12787.00
395.2430, 12625.00
396.4410, 12381.00
397.6390, 12398.00
398.8360, 12316.00
400.0340, 12245.00
401.2310, 12237.00
402.4280, 12214.00
403.6250, 12144.87
404.8210, 12137.00
406.0180, 12033.00
407.2140, 11954.00
408.4100, 11920.03
409.6060, 11997.00
410.8020, 11927.00
411.9980, 11935.00
413.1930, 12016.00
414.3890, 11907.00
415.5840, 11945.00
416.7790, 11922.34
417.9740, 11887.37
419.1680, 11876.00
420.3630, 11783.00
421.5570, 11743.00
422.7510, 11541.00
423.9450, 11550.96
425.1390, 11532.83
426.3330, 11500.00
427.5270, 11572.00
428.7200, 11557.00
429.9130, 11530.00
431.1060, 11552.00
432.2990, 11525.00
433.4920, 11508.00
434.6840, 11639.00
435.8770, 11534.00
437.0690, 11478.00
438.2610, 11438.00
439.4530, 11593.00
440.6450, 11483.00
441.8360, 11470.00
443.0280, 11596.00
444.2190, 11504.00
445.4100, 11443.00
446.6010, 11631.00
447.7920, 11406.00
448.9820, 11527.00
450.1730, 11705.00
451.3630, 11663.00
452.5530, 11528.00
453.7430, 11577.00
454.9330, 11566.00
456.1230, 11764.00
457.3120, 11624.00
458.5010, 11719.00
459.6910, 11751.00
460.8800, 11551.00
462.0680, 11708.00
463.2570, 11772.00
464.4460, 11692.00
465.6340, 11769.00
466.8220, 11890.00
468.0100, 11760.00
469.1980, 11797.00
470.3860, 11751.00
471.5730, 11755.00
472.7600, 11774.90
473.9480, 11811.00
475.1350, 11856.00
476.3210, 11857.00
477.5080, 11988.00
478.6950, 11913.00
479.8810, 11929.00
481.0670, 12136.00
482.2530, 12060.00
483.4390, 12117.00
484.6250, 12093.00
485.8100, 12341.00
486.9960, 12256.00
488.1810, 12432.00
489.3660, 12243.00
490.5510, 12344.00
491.7360, 12609.00
492.9200, 12738.00
494.1050, 12753.00
495.2890, 12820.00
496.4730, 13261.00
497.6570, 13198.00
498.8400, 13497.00
500.0240, 13884.00
501.2070, 13995.00
502.3910, 14220.56
503.5740, 14414.00
504.7570, 14487.00
505.9400, 14536.00
507.1220, 14666.00
508.3050, 14370.00
509.4870, 14427.00
510.6690, 14382.00
511.8510, 13891.00
513.0330, 13713.00
514.2140, 13380.00
515.3960, 13379.00
516.5770, 13243.00
517.7580, 13022.00
518.9390, 12953.00
520.1200, 12984.00
521.3010, 12739.00
522.4810, 12647.00
523.6610, 12609.00
524.8420, 12419.00
526.0220, 12526.00
527.2010, 12374.00
528.3810, 12437.00
529.5610, 12444.00
530.7400, 12323.00
531.9190, 12359.00
533.0980, 12387.00
534.2770, 12353.00
535.4560, 12347.00
536.6340, 12545.00
537.8120, 12517.83
538.9910, 12580.71
540.1690, 12664.00
541.3460, 12534.00
542.5240, 12669.00
543.7020, 12424.00
544.8790, 12707.00
546.0560, 12597.00
547.2330, 12747.00
548.4100, 12663.00
549.5870, 12870.00
550.7630, 12933.00
551.9400, 12812.00
553.1160, 12992.00
554.2920, 12717.00
555.4680, 12724.00
556.6440, 12919.00
557.8190, 12739.00
558.9950, 12598.00
560.1700, 12645.00
561.3450, 12549.00
562.5200, 12730.00
563.6950, 12601.00
564.8690, 12688.00
566.0440, 12611.00
567.2180, 12659.00
568.3920, 12649.00
569.5660, 12490.00
570.7400, 12545.00
571.9130, 12580.00
573.0870, 12599.00
574.2600, 12630.00
575.4330, 12606.00
576.6060, 12525.00
577.7790, 12722.00
578.9520, 12582.00
580.1240, 12618.00
581.2960, 12732.00
582.4690, 12663.00
583.6410, 12587.00
584.8120, 12660.00
585.9840, 12623.27
587.1560, 12642.15
588.3270, 12659.00
589.4980, 12689.00
590.6690, 12694.00
591.8400, 12726.00
593.0110, 12752.00
594.1810, 12858.00
595.3510, 12740.00
596.5220, 12772.00
597.6920, 12811.00
598.8610, 12714.00
600.0310, 12802.00
601.2010, 12782.00
602.3700, 12725.00
603.5390, 12606.00
604.7080, 12468.00
605.8770, 12311.00
607.0460, 12248.08
608.2140, 12178.00
609.3830, 12110.00
610.5510, 12005.00
611.7190, 11923.00
612.8870, 11893.03
614.0550, 11868.00
615.2220, 11861.00
616.3900, 11749.00
617.5570, 11761.00
618.7240, 11658.00
619.8910, 11726.00
621.0580, 11681.00
622.2240, 11733.00
623.3910, 11748.00
624.5570, 11624.00
625.7230, 11758.00
626.8890, 11729.00
628.0550, 11662.00
629.2200, 11521.00
630.3860, 11695.00
631.5510, 11746.00
632.7160, 11670.00
633.8810, 11714.00
635.0460, 11630.00
636.2100, 11822.00
637.3750, 11624.00
638.5390, 11766.00
639.7030, 11693.00
640.8670, 11674.00
642.0310, 11574.00
643.1950, 11788.00
644.3580, 11709.00
645.5210, 11801.00
646.6850, 11810.00
647.8480, 11717.00
649.0100, 11814.00
650.1730, 11616.00
651.3350, 11743.00
652.4980, 11731.00
653.6600, 11779.00
654.8220, 11750.00
655.9840, 11895.00
657.1450, 11884.00
658.3070, 11869.00
659.4680, 11884.00
660.6300, 11849.00
661.7910, 11785.00
662.9510, 11862.00
664.1120, 11754.00
665.2730, 11906.00
666.4330, 11795.00
667.5930, 11931.00
668.7530, 12053.00
669.9130, 11960.00
671.0730, 11853.00
672.2320, 11725.00
673.3920, 11800.00
674.5510, 11850.00
675.7100, 11873.00
676.8690, 11896.80
678.0280, 11998.00
679.1860, 11900.00
680.3450, 11959.00
681.5030, 11963.00
682.6610, 11842.00
683.8190, 11921.00
684.9770, 11899.93
686.1340, 11975.00
687.2920, 11961.00
688.4490, 11975.00
689.6060, 12033.00
690.7630, 11924.00
691.9200, 11956.00
693.0760, 12054.00
694.2330, 11930.00
695.3890, 11859.00
696.5450, 12020.00
697.7010, 11938.00
698.8570, 12049.00
700.0130, 12054.00
701.1680, 11950.00
702.3230, 12194.00
703.4780, 12036.00
704.6330, 12207.00
705.7880, 12145.00
706.9430, 12220.00
708.0970, 12106.00
709.2520, 12183.00
710.4060, 12399.00
711.5600, 12202.00
712.7140, 12195.00
713.8670, 12340.00
715.0210, 12491.00
716.1740, 12471.00
717.3270, 12386.00
718.4800, 12633.00
719.6330, 12591.00
720.7860, 12818.00
721.9380, 12851.00
723.0910, 12683.00
724.2430, 12904.00
725.3950, 12909.00
726.5470, 13229.00
727.6980, 13322.00
728.8500, 13246.00
730.0010, 13586.00
731.1530, 13644.00
732.3040, 13738.00
733.4550, 13709.00
734.6050, 13891.00
735.7560, 14103.00
736.9060, 14423.00
738.0560, 14442.00
739.2060, 14688.00
740.3560, 14766.00
741.5060, 14919.00
742.6560, 14846.00
743.8050, 15058.00
744.9540, 14924.00
746.1030, 14899.00
747.2520, 14828.00
748.4010, 14544.00
749.5500, 14395.00
750.6980, 14451.00
751.8460, 14289.00
752.9950, 14332.00
754.1420, 14201.00
755.2900, 14016.00
756.4380, 13979.00
757.5850, 13976.00
758.7330, 13917.00
759.8800, 13937.00
761.0270, 13970.00
762.1730, 14030.00
763.3200, 14133.00
764.4670, 14253.00
765.6130, 14347.00
766.7590, 14324.00
767.9050, 14244.00
769.0510, 14408.00
770.1960, 14349.00
771.3420, 14590.00
772.4870, 14579.00
773.6320, 14816.00
774.7770, 14802.00
775.9220, 14944.00
777.0670, 15117.00
778.2110, 15300.00
779.3560, 15489.83
780.5000, 15581.00
781.6440, 15923.00
782.7880, 16047.00
783.9320, 16302.00
785.0750, 16655.00
786.2180, 16925.00
787.3620, 17332.00
788.5050, 17932.00
789.6480, 18208.00
790.7900, 18777.00
791.9330, 19207.00
793.0750, 19919.00
794.2170, 20555.00
795.3590, 21267.00
796.5010, 22318.00
797.6430, 23505.00
798.7850, 24590.00
799.9260, 26514.00
801.0670, 28532.00
802.2080, 31173.00
803.3490, 33954.00
804.4900, 37833.00
805.6310, 42214.00
806.7710, 47105.00
807.9110, 52814.00
809.0510, 59324.00
810.1910, 65319.00
811.3310, 71361.00
812.4710, 76479.00
813.6100, 80778.00
814.7490, 82352.00
815.8880, 83478.00
817.0270, 83626.00
818.1660, 82084.00
819.3050, 80803.00
820.4430, 79283.00
821.5820, 77884.00
822.7200, 77785.00
823.8580, 77077.00
824.9950, 77664.00
826.1330, 78580.00
827.2710, 80217.00
828.4080, 82291.23
829.5450, 85050.00
830.6820, 88033.00
831.8190, 91598.00
832.9560, 95722.00
834.0920, 100258.0
835.2280, 104522.0
836.3650, 107994.0
837.5010, 111271.0
838.6360, 115001.0
839.7720, 116604.0
840.9080, 117984.0
842.0430, 117708.0
843.1780, 116717.0
844.3130, 114505.0
845.4480, 110704.0
846.5830, 107639.0
847.7170, 102972.0
848.8520, 99175.00
849.9860, 93907.00
851.1200, 88779.00
852.2540, 84222.00
853.3870, 79656.14
854.5210, 75210.00
855.6540, 71403.00
856.7880, 67639.00
857.9210, 64024.00
859.0540, 61165.00
860.1860, 57916.00
861.3190, 55201.00
862.4510, 52674.00
863.5840, 50608.00
864.7160, 48272.00
865.8480, 46504.00
866.9790, 45120.00
868.1110, 43438.00
869.2420, 42073.00
870.3740, 40716.00
871.5050, 39336.00
872.6360, 38559.00
873.7660, 37953.00
874.8970, 36833.00
876.0280, 36497.00
877.1580, 35403.00
878.2880, 35043.00
879.4180, 34527.00
880.5480, 34027.00
881.6770, 33809.00
882.8070, 33582.00
883.9360, 33052.00
885.0650, 32812.00
886.1940, 32800.00
887.3230, 32489.00
888.4520, 32618.00
889.5800, 32213.00
890.7090, 32263.00
891.8370, 32249.00
892.9650, 32440.00
894.0930, 32358.00
895.2200, 32546.00
896.3480, 32230.00
897.4750, 32522.00
898.6020, 32655.00
899.7290, 32937.00
900.8560, 32823.00
901.9830, 32769.00
903.1090, 33123.00
904.2360, 33286.00
905.3620, 33413.00
906.4880, 33791.00
907.6140, 33769.00
908.7400, 34144.00
909.8650, 34316.00
910.9900, 34536.00
912.1160, 34657.00
913.2410, 34906.00
914.3660, 35345.00
915.4900, 35458.00
916.6150, 35710.00
917.7390, 35823.00
918.8640, 35845.00
919.9880, 35606.00
921.1120, 35684.00
922.2350, 35406.00
923.3590, 35071.00
924.4820, 34805.00
925.6060, 34068.00
926.7290, 33626.00
927.8520, 32702.00
928.9740, 31960.00
930.0970, 31072.00
931.2190, 30296.00
932.3420, 29326.00
933.4640, 28314.00
934.5860, 27468.00
935.7080, 26653.00
936.8290, 25719.00
937.9510, 24693.00
939.0720, 24085.00
940.1930, 23384.00
941.3140, 22514.00
942.4350, 22069.00
943.5560, 21325.00
944.6760, 20938.00
945.7960, 20478.00
946.9170, 20177.00
948.0370, 19804.00
949.1560, 19352.00
950.2760, 19192.00
951.3960, 18834.00
952.5150, 18471.00
953.6340, 18324.00
954.7530, 18256.00
955.8720, 18037.00
956.9910, 17781.00
958.1090, 17562.00
959.2280, 17421.00
960.3460, 17359.00
961.4640, 17284.00
962.5820, 17120.33
963.6990, 16926.00
964.8170, 16839.00
965.9340, 16616.00
967.0510, 16531.00
968.1690, 16476.00
969.2850, 16289.00
970.4020, 16391.00
971.5190, 16218.00
972.6350, 16171.00
973.7510, 16105.00
974.8670, 16010.64
975.9830, 16002.00
977.0990, 15923.00
978.2150, 15828.00
979.3300, 15874.00
980.4450, 15795.71
981.5600, 15803.53
982.6750, 15743.00
983.7900, 15745.00
984.9050, 15734.00
986.0190, 15698.65
987.1340, 15657.25
988.2480, 15651.00
989.3620, 15519.00
990.4750, 15487.00
991.5890, 15375.00
992.7020, 15374.00
993.8160, 15311.00
994.9290, 15240.00
996.0420, 15208.03
997.1550, 15085.00
998.2670, 15091.00
999.3800, 14960.00
1000.492, 14865.45
1001.604, 14878.92
1002.716, 14773.00
1003.828, 14882.00
1004.940, 14906.00
1006.051, 14918.00
1007.163, 14939.00
1008.274, 14715.00
1009.385, 14905.00
1010.496, 14776.00
1011.606, 14845.00
1012.717, 14605.00
1013.827, 14803.00
1014.937, 14643.00
1016.047, 14662.00
1017.157, 14529.00
1018.267, 14526.00
1019.377, 14607.00
1020.486, 14562.00
1021.595, 14598.00
1022.704, 14588.00
1023.813, 14600.00
1024.922, 14622.00
1026.030, 14506.00
1027.139, 14634.00
1028.247, 14569.00
1029.355, 14528.00
1030.463, 14602.00
1031.571, 14545.00
1032.678, 14343.00
1033.786, 14329.00
1034.893, 14510.00
1036.000, 14389.00
1037.107, 14499.00
1038.214, 14342.00
1039.321, 14509.00
1040.427, 14481.00
1041.533, 14462.00
1042.639, 14469.00
1043.745, 14469.00
1044.851, 14517.00
1045.957, 14471.00
1047.062, 14409.00
1048.168, 14722.00
1049.273, 14567.00
1050.378, 14551.00
1051.482, 14613.00
1052.587, 14410.00
1053.692, 14640.00
1054.796, 14758.00
1055.900, 14633.00
1057.004, 14650.00
1058.108, 14613.00
1059.212, 14679.00
1060.315, 14613.00
1061.418, 14683.00
1062.522, 14537.00
1063.625, 14663.00
1064.728, 14630.00
1065.830, 14855.00
1066.933, 14870.00
1068.035, 14919.00
1069.137, 14895.00
1070.239, 14785.00
1071.341, 14908.00
1072.443, 14740.00
1073.545, 14882.00
1074.646, 14824.00
1075.747, 14862.00
1076.848, 14868.00
1077.949, 14724.00
1079.050, 15033.00
1080.150, 14847.00
1081.251, 14834.00
1082.351, 14964.00
1083.451, 15042.00
1084.551, 15001.00
1085.651, 14931.00
1086.750, 15063.00
1087.850, 14941.00
1088.949, 15058.00
1090.048, 15458.00
1091.147, 15178.12
1092.246, 15213.00
1093.345, 14952.00
1094.443, 14963.00
1095.541, 15003.00
1096.639, 15233.00
1097.737, 15071.00
1098.835, 15054.00
1099.933, 15246.00
1101.030, 15240.00
1102.128, 15049.00
1103.225, 15088.00
1104.322, 15151.00
1105.419, 14947.00
1106.515, 15105.00
1107.612, 15056.00
1108.708, 15159.00
1109.804, 15230.00
1110.900, 15098.00
1111.996, 15075.00
1113.092, 15174.00
1114.187, 15146.00
1115.283, 15046.00
1116.378, 15227.00
1117.473, 14973.00
1118.568, 15054.00
1119.662, 15045.00
1120.757, 15094.00
1121.851, 14958.00
1122.946, 15157.00
1124.040, 15145.00
1125.134, 14966.00
1126.227, 15247.00
1127.321, 15189.00
1128.414, 15232.00
1129.508, 15242.00
1130.601, 15350.00
1131.693, 15332.00
1132.786, 15056.00
1133.879, 15375.00
1134.971, 15216.00
1136.064, 15269.00
1137.156, 15347.00
1138.248, 15265.00
1139.339, 15044.00
1140.431, 15189.00
1141.522, 15210.00
1142.614, 14914.00
1143.705, 15311.00
1144.796, 15175.00
1145.887, 15180.00
1146.977, 15116.00
1148.068, 15117.00
1149.158, 15046.00
1150.248, 14982.00
1151.338, 15065.00
1152.428, 14937.00
1153.518, 14805.00
1154.607, 14845.00
1155.696, 14771.00
1156.785, 14861.00
1157.874, 14728.00
1158.963, 14715.00
1160.052, 14639.00
1161.141, 14461.00
1162.229, 14612.00
1163.317, 14707.00
1164.405, 14584.00
1165.493, 14489.00
1166.581, 14412.00
1167.668, 14419.00
1168.756, 14476.00
1169.843, 14341.00
1170.930, 14299.00
1172.017, 14174.00
1173.103, 14355.00
1174.190, 14193.00
1175.276, 14351.00
1176.363, 14063.00
1177.449, 14223.00
1178.535, 13994.00
1179.620, 14209.00
1180.706, 14029.00
1181.791, 14038.00
1182.877, 14004.00
1183.962, 13989.00
1185.047, 13986.49
1186.131, 13973.43
1187.216, 13967.00
1188.300, 13944.00
1189.385, 13916.00
1190.469, 13844.00
1191.553, 13777.00
1192.637, 13787.43
1193.720, 13752.00
1194.804, 13841.00
1195.887, 13778.00
1196.970, 13879.00
1198.053, 13663.00
1199.136, 13701.00
1200.219, 13643.00
1201.301, 13771.00
1202.383, 13581.00
1203.465, 13646.00
1204.547, 13599.00
1205.629, 13653.00
1206.711, 13631.96
1207.792, 13670.00
1208.874, 13579.00
1209.955, 13645.00
1211.036, 13588.00
1212.117, 13629.00
1213.198, 13586.00
1214.278, 13547.00
1215.359, 13582.00
1216.439, 13530.00
1217.519, 13735.00
1218.599, 13554.00
1219.678, 13660.00
1220.758, 13613.00
1221.837, 13521.00
1222.917, 13532.00
1223.996, 13559.00
1225.075, 13543.00
1226.153, 13731.00
1227.232, 13635.00
1228.310, 13655.00
1229.389, 13394.00
1230.467, 13472.00
1231.545, 13524.00
1232.622, 13509.00
1233.700, 13553.00
1234.777, 13553.00
1235.855, 13512.00
1236.932, 13702.00
1238.009, 13459.00
1239.086, 13602.00
1240.162, 13459.00
1241.239, 13519.00
1242.315, 13511.00
1243.391, 13529.00
1244.467, 13520.35
1245.543, 13560.00
1246.619, 13494.00
1247.694, 13453.00
1248.769, 13475.00
1249.844, 13600.00
1250.919, 13474.00
1251.994, 13540.00
1253.069, 13471.00
1254.144, 13475.00
1255.218, 13460.00
1256.292, 13554.00
1257.366, 13526.00
1258.440, 13550.00
1259.514, 13607.00
1260.587, 13588.00
1261.661, 13645.00
1262.734, 13511.00
1263.807, 13598.00
1264.880, 13395.00
1265.952, 13624.00
1267.025, 13590.00
1268.097, 13728.00
1269.170, 13500.00
1270.242, 13587.00
1271.314, 13511.00
1272.385, 13647.00
1273.457, 13761.00
1274.528, 13572.00
1275.600, 13533.00
1276.671, 13626.00
1277.742, 13677.00
1278.812, 13714.00
1279.883, 13677.00
1280.954, 13814.00
1282.024, 13628.00
1283.094, 13726.00
1284.164, 13683.00
1285.234, 13614.00
1286.303, 13676.00
1287.373, 13833.00
1288.442, 13656.00
1289.511, 13753.00
1290.580, 13746.52
1291.649, 13744.00
1292.718, 13809.00
1293.786, 13827.00
1294.855, 13971.00
1295.923, 13698.00
1296.991, 13753.00
1298.059, 13621.00
1299.126, 13763.00
1300.194, 13912.00
1301.261, 13737.00
1302.328, 13919.00
1303.395, 13900.00
1304.462, 13786.00
1305.529, 13876.00
1306.596, 13995.00
1307.662, 13781.00
1308.728, 13787.00
1309.794, 13934.00
1310.860, 13914.00
1311.926, 13812.00
1312.991, 13965.00
1314.057, 13858.00
1315.122, 13852.00
1316.187, 13886.00
1317.252, 13988.00
1318.317, 13971.11
1319.381, 13908.00
1320.446, 13972.00
1321.510, 13959.00
1322.574, 13894.00
1323.638, 14058.00
1324.702, 13865.00
1325.766, 13768.00
1326.829, 14017.00
1327.892, 13889.00
1328.956, 13855.00
1330.019, 13889.00
1331.081, 13963.00
1332.144, 13916.00
1333.206, 13894.00
1334.269, 13792.00
1335.331, 13955.00
1336.393, 13829.00
1337.455, 14058.00
1338.516, 13802.00
1339.578, 13943.00
1340.639, 13976.00
1341.701, 13952.00
1342.762, 13876.00
1343.822, 13914.00
1344.883, 13802.00
1345.944, 13835.00
1347.004, 13916.00
1348.064, 13990.00
1349.124, 13849.00
1350.184, 13983.00
1351.244, 13842.00
1352.304, 13887.00
1353.363, 13810.00
1354.422, 13988.00
1355.481, 13799.00
1356.540, 13959.00
1357.599, 13956.00
1358.657, 14085.00
1359.716, 14075.00
1360.774, 13893.00
1361.832, 13904.00
1362.890, 13855.00
1363.948, 14010.00
1365.006, 13897.00
1366.063, 13999.00
1367.120, 13825.00
1368.178, 13853.00
1369.234, 13855.00
1370.291, 13944.00
1371.348, 14079.00
1372.404, 14006.00
1373.461, 13828.00
1374.517, 13927.00
1375.573, 13843.00
1376.629, 13955.00
1377.684, 13880.00
1378.740, 13946.00
1379.795, 14040.00
1380.850, 14002.00
1381.905, 13887.00
1382.960, 13931.00
1384.015, 13932.00
1385.070, 13844.00
1386.124, 14151.00
1387.178, 14059.08
1388.232, 14006.00
1389.286, 14085.00
1390.340, 13940.00
1391.393, 13891.00
1392.447, 14032.00
1393.500, 14054.00
1394.553, 14052.00
1395.606, 14155.00
1396.659, 14129.00
1397.711, 13897.00
1398.764, 14180.00
1399.816, 14107.00
1400.868, 13861.00
1401.920, 14124.00
1402.972, 14114.00
1404.023, 14049.00
1405.075, 14173.00
1406.126, 14189.00
1407.177, 14136.00
1408.228, 14159.00
1409.279, 14152.00
1410.330, 14179.00
1411.380, 14343.00
1412.431, 14285.00
1413.481, 14200.00
1414.531, 14253.00
1415.580, 14141.00
1416.630, 14149.00
1417.680, 14140.00
1418.729, 14091.00
1419.778, 14309.00
1420.827, 14274.00
1421.876, 14169.00
1422.925, 14362.00
1423.973, 14233.00
1425.022, 14195.00
1426.070, 14282.00
1427.118, 14221.00
1428.166, 14265.00
1429.214, 14285.00
1430.261, 14243.00
1431.309, 14114.00
1432.356, 14178.00
1433.403, 14256.00
1434.450, 14260.00
1435.497, 14361.00
1436.543, 14308.00
1437.590, 14276.00
1438.636, 14255.00
1439.682, 14295.71
1440.728, 14268.75
1441.774, 14271.59
1442.819, 14270.00
1443.865, 14263.00
1444.910, 14271.00
1445.955, 14277.00
1447.000, 14288.00
1448.045, 14208.00
1449.090, 14397.00
1450.134, 14363.00
1451.178, 14144.00
1452.223, 14274.00
1453.267, 14396.00
1454.310, 14430.00
1455.354, 14316.00
1456.398, 14166.00
1457.441, 14239.00
1458.484, 14430.00
1459.527, 14385.00
1460.570, 14243.00
1461.613, 14299.00
1462.655, 14221.00
1463.698, 14260.00
1464.740, 14295.00
1465.782, 14349.00
1466.824, 14207.00
1467.866, 14284.00
1468.907, 14291.00
1469.948, 14191.00
1470.990, 14225.00
1472.031, 14316.00
1473.072, 14186.00
1474.112, 14190.00
1475.153, 14188.00
1476.194, 14158.00
1477.234, 14160.00
1478.274, 14297.00
1479.314, 14343.00
1480.354, 14276.00
1481.393, 14134.00
1482.433, 14228.00
1483.472, 14217.00
1484.511, 14146.00
1485.550, 14286.00
1486.589, 14289.00
1487.628, 14346.00
1488.666, 14223.00
1489.704, 14254.00
1490.743, 14224.69
1491.781, 14072.00
1492.819, 14145.00
1493.856, 14159.00
1494.894, 14039.00
1495.931, 14148.00
1496.968, 14063.00
1498.005, 14077.00
1499.042, 13972.00
1500.079, 14044.00
1501.115, 14005.00
1502.152, 14045.00
1503.188, 13999.00
1504.224, 13915.00
1505.260, 14089.00
1506.296, 13985.00
1507.331, 14180.00
1508.367, 14115.00
1509.402, 14073.00
1510.437, 14045.00
1511.472, 14000.00
1512.507, 14018.00
1513.541, 14046.00
1514.576, 14107.00
1515.610, 14100.00
1516.644, 14075.00
1517.678, 13937.00
1518.712, 14050.00
1519.746, 14028.00
1520.779, 13947.00
1521.813, 14107.00
1522.846, 13966.00
1523.879, 14007.00
1524.912, 13958.00
1525.944, 14060.00
1526.977, 13978.00
1528.009, 14086.00
1529.041, 13985.00
1530.073, 13912.00
1531.105, 14013.00
1532.137, 14005.00
1533.168, 13955.00
1534.200, 13943.00
1535.231, 14091.00
1536.262, 14023.00
1537.293, 14006.00
1538.324, 14112.00
1539.354, 13984.00
1540.385, 13919.00
1541.415, 13729.00
1542.445, 13883.00
1543.475, 13860.00
1544.505, 13841.00
1545.534, 13867.00
1546.564, 13811.00
1547.593, 14001.00
1548.622, 13741.00
1549.651, 14090.00
1550.680, 13961.00
1551.708, 13946.00
1552.737, 13896.00
1553.765, 13848.70
1554.793, 13982.00
1555.821, 13777.00
1556.849, 13770.00
1557.877, 13695.00
1558.904, 13540.00
1559.932, 13602.00
1560.959, 13674.00
1561.986, 13709.00
1563.013, 13532.00
1564.039, 13601.00
1565.066, 13706.00
1566.092, 13364.00
1567.119, 13660.00
1568.145, 13552.00
1569.170, 13607.00
1570.196, 13477.00
1571.222, 13486.00
1572.247, 13480.00
1573.272, 13561.00
1574.297, 13618.00
1575.322, 13630.00
1576.347, 13472.00
1577.372, 13428.00
##END=



