##NAMES=Fayalite
##RRUFFID=R070157
##IDEAL CHEMISTRY=Fe^2+^_2_SiO_4_
##LOCALITY=Coso Hot Springs, Inyo County, California, USA
##OWNER=RRUFF
##SOURCE=James Shigley
##DESCRIPTION=Brown transparent tabular crystals associated with fine grained quartz
##STATUS=The identification of this mineral is confirmed by single-crystal X-ray diffraction and chemical analysis.
##URL=rruff.info/R070157
##MEASURED CHEMISTRY=(Fe^2+^_1.88_Mn_0.11_Zn_0.01_)_Î£=2_Si_1.00_O_4_ ; trace amounts of Mg
##PIN_ID=M00908
##ORIENTATION=Laser parallel to -b* (0 -1 0). Fiducial mark perpendicular to laser is parallel to c [0 0 1]
142.5560, 13646.00
143.7880, 13480.00
145.0190, 13495.00
146.2510, 13654.00
147.4820, 13670.00
148.7130, 13750.00
149.9440, 13709.00
151.1750, 13984.00
152.4050, 14036.00
153.6360, 14287.00
154.8660, 14459.00
156.0960, 14524.00
157.3260, 14396.00
158.5560, 14783.00
159.7850, 15274.00
161.0150, 15830.00
162.2440, 16660.00
163.4730, 17206.00
164.7020, 18214.00
165.9310, 19511.00
167.1590, 21049.00
168.3880, 22833.00
169.6160, 24178.00
170.8440, 24601.00
172.0720, 24624.00
173.3000, 24108.00
174.5280, 22882.00
175.7550, 21070.00
176.9820, 19128.00
178.2100, 17290.00
179.4370, 15761.00
180.6630, 14788.00
181.8900, 14184.00
183.1170, 13771.00
184.3430, 13631.00
185.5690, 13460.00
186.7950, 13195.00
188.0210, 13196.00
189.2470, 13112.00
190.4720, 13189.00
191.6970, 13253.00
192.9230, 12969.00
194.1480, 12937.00
195.3730, 12981.00
196.5970, 13084.00
197.8220, 13159.00
199.0460, 12999.00
200.2700, 13137.00
201.4940, 12994.00
202.7180, 12924.00
203.9420, 12774.00
205.1660, 12744.00
206.3890, 12649.00
207.6120, 12606.00
208.8350, 12909.00
210.0580, 12845.00
211.2810, 12939.00
212.5040, 13076.00
213.7260, 12979.00
214.9480, 13062.00
216.1700, 13272.00
217.3920, 13439.00
218.6140, 13623.00
219.8360, 13538.00
221.0570, 13969.00
222.2790, 14038.00
223.5000, 14469.00
224.7210, 14597.00
225.9410, 15074.00
227.1620, 15348.00
228.3820, 15947.00
229.6030, 16720.00
230.8230, 17177.00
232.0430, 18069.00
233.2630, 18973.00
234.4820, 19723.00
235.7020, 20303.00
236.9210, 20883.00
238.1400, 21250.00
239.3590, 21295.00
240.5780, 21227.00
241.7970, 20777.00
243.0150, 20310.00
244.2340, 19613.00
245.4520, 18966.00
246.6700, 18310.00
247.8880, 17743.00
249.1060, 17269.00
250.3230, 16872.00
251.5400, 16743.00
252.7580, 16255.00
253.9750, 16428.00
255.1920, 16246.00
256.4080, 16287.00
257.6250, 16817.00
258.8410, 16518.00
260.0580, 16112.00
261.2740, 15910.00
262.4900, 16389.00
263.7050, 16333.00
264.9210, 16545.00
266.1360, 16711.00
267.3520, 16964.00
268.5670, 17043.00
269.7820, 17494.00
270.9960, 17901.00
272.2110, 18427.00
273.4250, 19163.00
274.6400, 19716.00
275.8540, 20470.00
277.0680, 21507.00
278.2810, 22403.00
279.4950, 23978.00
280.7090, 24801.00
281.9220, 26461.00
283.1350, 28253.00
284.3480, 29931.00
285.5610, 31258.00
286.7730, 33146.00
287.9860, 34619.00
289.1980, 35166.00
290.4100, 35898.00
291.6220, 36057.00
292.8340, 35431.00
294.0460, 34277.00
295.2570, 32850.00
296.4690, 31191.00
297.6800, 29708.00
298.8910, 28036.00
300.1020, 26736.00
301.3120, 25601.00
302.5230, 24983.00
303.7330, 24414.00
304.9440, 24011.00
306.1540, 23866.00
307.3630, 23396.00
308.5730, 23218.00
309.7830, 22690.00
310.9920, 22140.00
312.2010, 21205.00
313.4100, 20624.00
314.6190, 19810.00
315.8280, 19415.00
317.0370, 18446.00
318.2450, 17725.00
319.4530, 17316.00
320.6610, 16461.00
321.8690, 16089.00
323.0770, 15645.00
324.2850, 15456.00
325.4920, 15007.00
326.6990, 14786.00
327.9060, 14516.00
329.1130, 14373.00
330.3200, 13990.00
331.5270, 13807.00
332.7330, 13916.00
333.9390, 13632.00
335.1450, 13705.00
336.3510, 13580.00
337.5570, 13532.00
338.7630, 13539.00
339.9680, 13394.00
341.1740, 13507.00
342.3790, 13369.00
343.5840, 13484.00
344.7890, 13390.00
345.9930, 13649.00
347.1980, 13745.00
348.4020, 13789.00
349.6060, 13830.00
350.8100, 14001.00
352.0140, 14287.00
353.2180, 14337.00
354.4210, 14538.00
355.6250, 14962.00
356.8280, 15231.00
358.0310, 15534.00
359.2340, 15887.53
360.4360, 16213.10
361.6390, 16553.00
362.8410, 16952.00
364.0430, 17323.43
365.2450, 17741.00
366.4470, 18040.00
367.6490, 18353.00
368.8510, 18721.00
370.0520, 18702.00
371.2530, 18855.00
372.4540, 18711.00
373.6550, 18753.00
374.8560, 18454.00
376.0560, 18275.00
377.2570, 18065.00
378.4570, 17841.00
379.6570, 17573.79
380.8570, 17280.00
382.0570, 16954.00
383.2560, 16738.00
384.4560, 16349.00
385.6550, 16080.00
386.8540, 15964.00
388.0530, 15991.00
389.2520, 15798.00
390.4510, 15621.00
391.6490, 15890.00
392.8470, 15575.00
394.0450, 15809.00
395.2430, 15723.00
396.4410, 15840.00
397.6390, 15874.00
398.8360, 16121.00
400.0340, 16171.00
401.2310, 16148.00
402.4280, 16437.00
403.6250, 16389.00
404.8210, 16402.00
406.0180, 16466.00
407.2140, 16364.00
408.4100, 16324.00
409.6060, 16023.00
410.8020, 16011.00
411.9980, 15870.00
413.1930, 15479.00
414.3890, 15338.00
415.5840, 15060.00
416.7790, 15061.00
417.9740, 14809.00
419.1680, 14514.00
420.3630, 14472.00
421.5570, 14343.00
422.7510, 14182.68
423.9450, 14015.58
425.1390, 14004.00
426.3330, 13674.00
427.5270, 13712.00
428.7200, 13741.00
429.9130, 13549.00
431.1060, 13520.00
432.2990, 13394.00
433.4920, 13373.00
434.6840, 13249.00
435.8770, 13240.60
437.0690, 13258.00
438.2610, 13246.00
439.4530, 13204.00
440.6450, 13258.00
441.8360, 13193.00
443.0280, 13117.00
444.2190, 13020.00
445.4100, 13045.00
446.6010, 13129.00
447.7920, 13198.00
448.9820, 13157.00
450.1730, 13058.00
451.3630, 13109.79
452.5530, 13107.00
453.7430, 13111.00
454.9330, 13164.00
456.1230, 13148.00
457.3120, 13208.00
458.5010, 13232.00
459.6910, 13032.00
460.8800, 13171.00
462.0680, 13104.53
463.2570, 13174.00
464.4460, 13115.00
465.6340, 13182.00
466.8220, 13210.00
468.0100, 13185.00
469.1980, 13132.00
470.3860, 13063.00
471.5730, 13325.00
472.7600, 13121.00
473.9480, 13290.00
475.1350, 13259.00
476.3210, 13348.00
477.5080, 13209.00
478.6950, 13182.00
479.8810, 13498.00
481.0670, 13447.00
482.2530, 13317.00
483.4390, 13693.00
484.6250, 13510.00
485.8100, 13464.00
486.9960, 13533.00
488.1810, 13676.00
489.3660, 13592.00
490.5510, 13670.00
491.7360, 13690.00
492.9200, 13838.00
494.1050, 13767.00
495.2890, 13966.00
496.4730, 13951.00
497.6570, 14025.00
498.8400, 14142.00
500.0240, 14143.00
501.2070, 14268.00
502.3910, 14348.00
503.5740, 14279.00
504.7570, 14348.92
505.9400, 14429.00
507.1220, 14388.00
508.3050, 14403.00
509.4870, 14514.00
510.6690, 14480.00
511.8510, 14428.00
513.0330, 14541.00
514.2140, 14358.00
515.3960, 14230.00
516.5770, 14431.00
517.7580, 14364.00
518.9390, 14374.00
520.1200, 14433.00
521.3010, 14369.00
522.4810, 14322.00
523.6610, 14549.00
524.8420, 14449.00
526.0220, 14518.00
527.2010, 14620.00
528.3810, 14570.00
529.5610, 14691.00
530.7400, 14725.00
531.9190, 14808.00
533.0980, 14909.00
534.2770, 15160.00
535.4560, 15219.00
536.6340, 15277.00
537.8120, 15612.00
538.9910, 15820.00
540.1690, 16112.00
541.3460, 16447.00
542.5240, 16695.00
543.7020, 16980.00
544.8790, 17406.41
546.0560, 17866.00
547.2330, 18281.00
548.4100, 18670.16
549.5870, 19287.00
550.7630, 19367.00
551.9400, 19785.00
553.1160, 20024.00
554.2920, 20090.00
555.4680, 19810.00
556.6440, 19609.00
557.8190, 19536.00
558.9950, 19198.00
560.1700, 18867.00
561.3450, 18733.00
562.5200, 18705.00
563.6950, 18530.00
564.8690, 18344.00
566.0440, 18079.00
567.2180, 17858.00
568.3920, 17531.00
569.5660, 17433.00
570.7400, 16998.00
571.9130, 16982.00
573.0870, 16824.00
574.2600, 16381.00
575.4330, 16233.00
576.6060, 15888.00
577.7790, 15747.00
578.9520, 15462.00
580.1240, 15351.00
581.2960, 15412.00
582.4690, 14912.00
583.6410, 14757.00
584.8120, 14804.00
585.9840, 14711.00
587.1560, 14510.00
588.3270, 14594.00
589.4980, 14359.00
590.6690, 14484.00
591.8400, 14354.00
593.0110, 14224.00
594.1810, 14354.00
595.3510, 14164.00
596.5220, 14181.00
597.6920, 14021.00
598.8610, 14207.00
600.0310, 14185.00
601.2010, 14162.00
602.3700, 14052.00
603.5390, 13949.00
604.7080, 14033.00
605.8770, 13923.00
607.0460, 13640.00
608.2140, 13670.00
609.3830, 13585.00
610.5510, 13642.00
611.7190, 13783.00
612.8870, 13685.00
614.0550, 13711.00
615.2220, 13711.90
616.3900, 13563.00
617.5570, 13631.00
618.7240, 13652.00
619.8910, 13529.00
621.0580, 13696.00
622.2240, 13613.00
623.3910, 13645.00
624.5570, 13649.00
625.7230, 13672.00
626.8890, 13560.00
628.0550, 13633.00
629.2200, 13518.00
630.3860, 13532.62
631.5510, 13723.00
632.7160, 13563.00
633.8810, 13680.00
635.0460, 13773.00
636.2100, 13848.00
637.3750, 13642.00
638.5390, 13724.00
639.7030, 13748.00
640.8670, 13904.00
642.0310, 13701.00
643.1950, 13907.00
644.3580, 13782.00
645.5210, 13846.00
646.6850, 13916.00
647.8480, 13724.00
649.0100, 13918.00
650.1730, 13915.00
651.3350, 14090.00
652.4980, 13920.00
653.6600, 13896.00
654.8220, 14065.00
655.9840, 14058.00
657.1450, 14075.00
658.3070, 13900.00
659.4680, 13995.00
660.6300, 14037.00
661.7910, 14127.00
662.9510, 14049.00
664.1120, 14067.00
665.2730, 14128.00
666.4330, 14302.00
667.5930, 14198.00
668.7530, 14094.00
669.9130, 14323.00
671.0730, 14213.00
672.2320, 14433.00
673.3920, 14349.00
674.5510, 14302.00
675.7100, 14593.00
676.8690, 14485.00
678.0280, 14647.00
679.1860, 14573.00
680.3450, 14626.00
681.5030, 14684.00
682.6610, 14579.00
683.8190, 14672.89
684.9770, 14994.00
686.1340, 14750.00
687.2920, 14905.00
688.4490, 14948.00
689.6060, 14928.00
690.7630, 14943.00
691.9200, 14996.00
693.0760, 15046.00
694.2330, 15046.00
695.3890, 15018.00
696.5450, 15030.00
697.7010, 15093.00
698.8570, 15236.00
700.0130, 15061.00
701.1680, 15037.00
702.3230, 15247.00
703.4780, 15169.00
704.6330, 15103.00
705.7880, 15175.00
706.9430, 15206.00
708.0970, 15234.00
709.2520, 15322.50
710.4060, 15374.94
711.5600, 15471.00
712.7140, 15525.00
713.8670, 15568.00
715.0210, 15632.00
716.1740, 15799.00
717.3270, 15722.00
718.4800, 15831.00
719.6330, 15832.00
720.7860, 16062.00
721.9380, 16000.00
723.0910, 16064.00
724.2430, 16234.00
725.3950, 16169.00
726.5470, 16135.00
727.6980, 16530.00
728.8500, 16562.00
730.0010, 16500.00
731.1530, 16790.00
732.3040, 16595.00
733.4550, 17024.00
734.6050, 17185.00
735.7560, 17250.00
736.9060, 17356.00
738.0560, 17519.00
739.2060, 17684.00
740.3560, 17900.00
741.5060, 17947.00
742.6560, 18074.00
743.8050, 18216.00
744.9540, 17952.00
746.1030, 17963.00
747.2520, 17917.00
748.4010, 17846.00
749.5500, 17869.00
750.6980, 17566.00
751.8460, 17749.00
752.9950, 17558.00
754.1420, 17623.00
755.2900, 17619.00
756.4380, 17578.00
757.5850, 17516.00
758.7330, 17482.00
759.8800, 17736.00
761.0270, 17705.00
762.1730, 17547.00
763.3200, 17868.00
764.4670, 17871.00
765.6130, 17870.00
766.7590, 18220.00
767.9050, 18366.00
769.0510, 18084.00
770.1960, 18512.00
771.3420, 18463.00
772.4870, 18753.00
773.6320, 18852.00
774.7770, 19136.00
775.9220, 19309.24
777.0670, 19458.00
778.2110, 19749.00
779.3560, 19879.00
780.5000, 20233.00
781.6440, 20419.00
782.7880, 20796.00
783.9320, 21280.00
785.0750, 21667.00
786.2180, 21979.00
787.3620, 22688.00
788.5050, 23290.00
789.6480, 23809.00
790.7900, 24723.00
791.9330, 25570.00
793.0750, 26458.00
794.2170, 27522.00
795.3590, 28682.00
796.5010, 30209.00
797.6430, 32084.00
798.7850, 34104.00
799.9260, 36668.00
801.0670, 39877.00
802.2080, 43403.00
803.3490, 47990.00
804.4900, 53425.00
805.6310, 59091.00
806.7710, 66213.00
807.9110, 73628.00
809.0510, 81362.00
810.1910, 88695.00
811.3310, 95268.00
812.4710, 100123.0
813.6100, 103185.0
814.7490, 103599.0
815.8880, 102160.0
817.0270, 99552.00
818.1660, 94825.00
819.3050, 90554.00
820.4430, 85867.00
821.5820, 81542.00
822.7200, 78531.00
823.8580, 75606.00
824.9950, 73190.00
826.1330, 72053.00
827.2710, 70947.00
828.4080, 70972.00
829.5450, 70699.00
830.6820, 71441.00
831.8190, 72351.00
832.9560, 73642.00
834.0920, 74770.00
835.2280, 75710.00
836.3650, 77526.00
837.5010, 77798.00
838.6360, 78402.00
839.7720, 78760.00
840.9080, 78378.00
842.0430, 77318.32
843.1780, 75693.00
844.3130, 73578.00
845.4480, 71117.00
846.5830, 67995.00
847.7170, 65214.00
848.8520, 62249.00
849.9860, 59316.00
851.1200, 56096.00
852.2540, 53571.00
853.3870, 50758.00
854.5210, 48346.00
855.6540, 46296.00
856.7880, 44351.00
857.9210, 42713.00
859.0540, 41148.00
860.1860, 39641.00
861.3190, 38509.00
862.4510, 37307.00
863.5840, 36141.00
864.7160, 35060.04
865.8480, 33895.00
866.9790, 32978.00
868.1110, 31971.00
869.2420, 31084.00
870.3740, 30304.00
871.5050, 29374.00
872.6360, 28942.00
873.7660, 28180.00
874.8970, 27843.00
876.0280, 27272.00
877.1580, 27238.00
878.2880, 26846.00
879.4180, 26290.00
880.5480, 25911.00
881.6770, 25845.00
882.8070, 25641.00
883.9360, 25470.00
885.0650, 25216.00
886.1940, 25140.00
887.3230, 25102.00
888.4520, 24872.00
889.5800, 24875.00
890.7090, 24704.00
891.8370, 24680.00
892.9650, 24716.00
894.0930, 24621.00
895.2200, 24549.00
896.3480, 24679.00
897.4750, 24813.00
898.6020, 24675.00
899.7290, 24427.00
900.8560, 24588.00
901.9830, 24428.00
903.1090, 24393.00
904.2360, 24487.00
905.3620, 24576.00
906.4880, 24680.00
907.6140, 24779.74
908.7400, 24598.00
909.8650, 24939.00
910.9900, 24902.00
912.1160, 24861.00
913.2410, 25299.00
914.3660, 25006.00
915.4900, 25128.00
916.6150, 25174.00
917.7390, 25316.00
918.8640, 25454.00
919.9880, 25513.00
921.1120, 25703.00
922.2350, 25723.00
923.3590, 25513.00
924.4820, 25466.00
925.6060, 25536.00
926.7290, 25397.00
927.8520, 25450.00
928.9740, 25258.00
930.0970, 25017.00
931.2190, 24836.00
932.3420, 24605.00
933.4640, 24421.00
934.5860, 24186.00
935.7080, 24095.00
936.8290, 23571.00
937.9510, 23603.00
939.0720, 23216.00
940.1930, 23182.00
941.3140, 22914.00
942.4350, 23013.00
943.5560, 22901.00
944.6760, 22760.00
945.7960, 22551.00
946.9170, 22441.00
948.0370, 22235.00
949.1560, 22375.00
950.2760, 21997.00
951.3960, 21909.00
952.5150, 21896.00
953.6340, 22070.00
954.7530, 22080.00
955.8720, 21866.00
956.9910, 21825.00
958.1090, 21681.00
959.2280, 22001.00
960.3460, 21586.00
961.4640, 21759.00
962.5820, 21473.00
963.6990, 21606.00
964.8170, 21449.00
965.9340, 21328.00
967.0510, 21475.00
968.1690, 21308.00
969.2850, 21435.00
970.4020, 21418.00
971.5190, 21244.00
972.6350, 21331.00
973.7510, 21316.00
974.8670, 21153.00
975.9830, 21213.00
977.0990, 21392.00
978.2150, 21026.00
979.3300, 21252.00
980.4450, 21064.00
981.5600, 21244.00
982.6750, 21422.00
983.7900, 21209.00
984.9050, 21405.00
986.0190, 21190.00
987.1340, 21087.00
988.2480, 21221.00
989.3620, 21154.00
990.4750, 21234.00
991.5890, 21130.00
992.7020, 21201.00
993.8160, 21238.00
994.9290, 21158.00
996.0420, 20971.00
997.1550, 21015.00
998.2670, 21291.00
999.3800, 21076.00
1000.492, 21115.00
1001.604, 21079.00
1002.716, 21083.00
1003.828, 21039.00
1004.940, 21077.00
1006.051, 21075.00
1007.163, 21152.00
1008.274, 21011.00
1009.385, 21236.00
1010.496, 20985.00
1011.606, 21033.00
1012.717, 21087.00
1013.827, 20827.00
1014.937, 21139.00
1016.047, 21049.00
1017.157, 21054.00
1018.267, 21022.00
1019.377, 20938.00
1020.486, 21025.00
1021.595, 21029.00
1022.704, 20846.00
1023.813, 20983.00
1024.922, 20950.00
1026.030, 21005.00
1027.139, 20981.00
1028.247, 20982.75
1029.355, 21048.53
1030.463, 20998.00
1031.571, 21098.00
1032.678, 21168.00
1033.786, 21041.00
1034.893, 21051.00
1036.000, 20990.00
1037.107, 21151.00
1038.214, 21165.00
1039.321, 21108.00
1040.427, 21169.00
1041.533, 21161.00
1042.639, 21173.25
1043.745, 21193.63
1044.851, 21209.00
1045.957, 21238.00
1047.062, 21248.00
1048.168, 21329.00
1049.273, 21525.00
1050.378, 21256.00
1051.482, 21552.00
1052.587, 21350.00
1053.692, 21455.00
1054.796, 21521.00
1055.900, 21500.00
1057.004, 21588.00
1058.108, 21649.00
1059.212, 21630.00
1060.315, 21705.00
1061.418, 21776.00
1062.522, 21573.00
1063.625, 21632.00
1064.728, 21625.00
1065.830, 21925.00
1066.933, 22009.00
1068.035, 21893.00
1069.137, 21711.00
1070.239, 21929.00
1071.341, 22090.00
1072.443, 22019.00
1073.545, 22166.00
1074.646, 22095.00
1075.747, 22099.00
1076.848, 22108.00
1077.949, 22108.00
1079.050, 22237.00
1080.150, 22185.00
1081.251, 22275.00
1082.351, 22137.00
1083.451, 22372.00
1084.551, 22311.00
1085.651, 22417.00
1086.750, 22435.00
1087.850, 22372.00
1088.949, 22450.00
1090.048, 22488.00
1091.147, 22518.00
1092.246, 22385.00
1093.345, 22566.00
1094.443, 22528.00
1095.541, 22718.00
1096.639, 22735.00
1097.737, 22678.00
1098.835, 22708.00
1099.933, 22888.00
1101.030, 22795.00
1102.128, 22901.00
1103.225, 22619.00
1104.322, 22812.00
1105.419, 23000.00
1106.515, 22757.00
1107.612, 22901.00
1108.708, 23032.00
1109.804, 22990.00
1110.900, 23047.00
1111.996, 23136.00
1113.092, 23079.00
1114.187, 23291.00
1115.283, 23209.00
1116.378, 23256.00
1117.473, 23184.00
1118.568, 23278.00
1119.662, 23168.00
1120.757, 23222.00
1121.851, 23391.00
1122.946, 23406.00
1124.040, 23510.00
1125.134, 23468.00
1126.227, 23502.70
1127.321, 23622.00
1128.414, 23485.00
1129.508, 23670.00
1130.601, 23632.00
1131.693, 23782.00
1132.786, 23820.99
1133.879, 23724.00
1134.971, 23895.00
1136.064, 23843.00
1137.156, 23842.00
1138.248, 23770.00
1139.339, 23789.00
1140.431, 23904.00
1141.522, 23911.00
1142.614, 24103.00
1143.705, 24043.00
1144.796, 23959.00
1145.887, 23829.00
1146.977, 23861.00
1148.068, 24177.00
1149.158, 24021.00
1150.248, 24114.00
1151.338, 23897.00
1152.428, 24131.00
1153.518, 24040.00
1154.607, 23999.00
1155.696, 23929.00
1156.785, 23923.81
1157.874, 24020.00
1158.963, 23955.00
1160.052, 24058.00
1161.141, 24006.30
1162.229, 24237.70
1163.317, 24363.17
1164.405, 24388.41
1165.493, 24013.18
1166.581, 24155.07
1167.668, 24089.73
1168.756, 24015.88
1169.843, 24230.56
1170.930, 23913.59
1172.017, 24033.00
1173.103, 24160.00
1174.190, 23994.00
1175.276, 24106.00
1176.363, 23984.00
1177.449, 24248.00
1178.535, 24198.00
1179.620, 24154.00
1180.706, 24265.00
1181.791, 24081.00
1182.877, 24167.00
1183.962, 23966.00
1185.047, 23915.00
1186.131, 24065.00
1187.216, 23952.00
1188.300, 24324.00
1189.385, 24182.00
1190.469, 24182.00
1191.553, 24258.00
1192.637, 24035.00
1193.720, 24076.00
1194.804, 24334.00
1195.887, 24245.00
1196.970, 24130.00
1198.053, 24314.00
1199.136, 24192.00
1200.219, 24431.00
1201.301, 24269.00
1202.383, 24197.00
1203.465, 24245.00
1204.547, 24317.00
1205.629, 24428.00
1206.711, 24444.91
1207.792, 24327.00
1208.874, 24490.00
1209.955, 24458.00
1211.036, 24433.00
1212.117, 24618.00
1213.198, 24667.00
1214.278, 24729.00
1215.359, 24425.00
1216.439, 24548.00
1217.519, 24706.00
1218.599, 24363.00
1219.678, 24723.00
1220.758, 24620.00
1221.837, 24620.00
1222.917, 24549.00
1223.996, 24618.00
1225.075, 24534.00
1226.153, 24643.20
1227.232, 24708.00
1228.310, 24811.00
1229.389, 24900.00
1230.467, 24895.00
1231.545, 24960.00
1232.622, 24877.00
1233.700, 25057.00
1234.777, 25016.00
1235.855, 24992.00
1236.932, 25265.00
1238.009, 25277.00
1239.086, 25061.00
1240.162, 25183.00
1241.239, 25172.00
1242.315, 25260.00
1243.391, 25251.00
1244.467, 25423.00
1245.543, 25377.07
1246.619, 25477.00
1247.694, 25398.00
1248.769, 25280.00
1249.844, 25395.00
1250.919, 25429.00
1251.994, 25333.00
1253.069, 25652.00
1254.144, 25576.00
1255.218, 25597.00
1256.292, 25547.00
1257.366, 25613.00
1258.440, 25535.00
1259.514, 25508.00
1260.587, 25628.00
1261.661, 25402.00
1262.734, 25714.00
1263.807, 25783.00
1264.880, 25747.92
1265.952, 25943.44
1267.025, 25777.00
1268.097, 26022.00
1269.170, 26074.00
1270.242, 25884.00
1271.314, 25980.00
1272.385, 25926.00
1273.457, 25978.00
1274.528, 26076.00
1275.600, 25893.00
1276.671, 26058.00
1277.742, 26187.00
1278.812, 26183.00
1279.883, 26085.00
1280.954, 26308.00
1282.024, 26164.00
1283.094, 26193.00
1284.164, 26436.00
1285.234, 26333.00
1286.303, 26426.00
1287.373, 26511.00
1288.442, 26349.00
1289.511, 26530.00
1290.580, 26563.00
1291.649, 26588.00
1292.718, 26481.00
1293.786, 26791.00
1294.855, 26589.00
1295.923, 26875.00
1296.991, 26813.00
1298.059, 26572.00
1299.126, 26648.00
1300.194, 26773.00
1301.261, 26698.00
1302.328, 26828.00
1303.395, 26882.00
1304.462, 26893.00
1305.529, 27049.00
1306.596, 27025.00
1307.662, 26898.00
1308.728, 27199.00
1309.794, 26981.00
1310.860, 27206.00
1311.926, 26848.00
1312.991, 26924.00
1314.057, 26974.00
1315.122, 26874.00
1316.187, 27186.00
1317.252, 27027.00
1318.317, 27403.00
1319.381, 27163.00
1320.446, 27191.00
1321.510, 27506.00
1322.574, 27502.00
1323.638, 27451.00
1324.702, 27490.00
1325.766, 27465.86
1326.829, 27534.00
1327.892, 27479.00
1328.956, 27619.00
1330.019, 27679.00
1331.081, 27486.00
1332.144, 27592.00
1333.206, 27558.00
1334.269, 27644.00
1335.331, 27592.00
1336.393, 27723.00
1337.455, 27525.00
1338.516, 27588.00
1339.578, 27842.00
1340.639, 27728.00
1341.701, 27633.00
1342.762, 27821.00
1343.822, 27825.00
1344.883, 27794.00
1345.944, 27622.00
1347.004, 27986.00
1348.064, 27725.00
1349.124, 28086.00
1350.184, 28017.00
1351.244, 27794.00
1352.304, 28296.00
1353.363, 28060.00
1354.422, 28019.00
1355.481, 28270.00
1356.540, 28034.00
1357.599, 28265.00
1358.657, 28327.00
1359.716, 28465.00
1360.774, 28229.00
1361.832, 28384.00
1362.890, 28457.00
1363.948, 28272.00
1365.006, 28473.00
1366.063, 28561.00
1367.120, 28383.00
1368.178, 28544.13
1369.234, 28310.00
1370.291, 28610.00
1371.348, 28620.00
1372.404, 28645.00
1373.461, 28550.00
1374.517, 28762.00
1375.573, 28635.00
1376.629, 28762.00
1377.684, 28783.00
1378.740, 29025.00
1379.795, 28804.00
1380.850, 28574.00
1381.905, 28788.00
1382.960, 28730.00
1384.015, 28876.00
1385.070, 28999.00
1386.124, 28879.00
1387.178, 29063.00
1388.232, 28959.00
1389.286, 28940.00
1390.340, 29067.00
1391.393, 29204.00
1392.447, 29453.00
1393.500, 29095.00
1394.553, 29078.00
1395.606, 29252.00
1396.659, 29070.00
1397.711, 29111.00
1398.764, 29162.51
1399.816, 29221.00
1400.868, 29290.00
1401.920, 29130.00
1402.972, 29257.00
1404.023, 29138.00
1405.075, 29479.00
1406.126, 29339.00
1407.177, 29468.00
1408.228, 29555.00
1409.279, 29582.00
1410.330, 29620.21
1411.380, 29642.97
1412.431, 29553.00
1413.481, 29664.00
1414.531, 29514.00
1415.580, 29529.00
1416.630, 29578.00
1417.680, 29645.00
1418.729, 29652.00
1419.778, 29708.00
1420.827, 29671.00
1421.876, 29771.00
1422.925, 29822.00
1423.973, 29552.00
1425.022, 29933.00
1426.070, 29989.00
1427.118, 29948.00
1428.166, 30218.00
1429.214, 29995.00
1430.261, 30125.00
1431.309, 29938.00
1432.356, 30152.00
1433.403, 29949.00
1434.450, 30045.00
1435.497, 29895.00
1436.543, 30068.00
1437.590, 30068.00
1438.636, 30063.00
1439.682, 30276.00
1440.728, 30231.00
1441.774, 30246.00
1442.819, 30114.00
1443.865, 30422.00
1444.910, 30125.00
1445.955, 30426.00
1447.000, 30373.00
1448.045, 30403.00
1449.090, 30353.00
1450.134, 30606.00
1451.178, 30452.31
1452.223, 30609.00
1453.267, 30301.00
1454.310, 30579.00
1455.354, 30558.00
1456.398, 30613.00
1457.441, 30433.00
1458.484, 30525.00
1459.527, 30540.47
1460.570, 30473.00
1461.613, 30728.00
1462.655, 30441.00
1463.698, 30689.35
1464.740, 30943.15
1465.782, 31091.01
1466.824, 31138.64
1467.866, 30785.81
1468.907, 30950.08
1469.948, 30907.12
1470.990, 30855.67
1472.031, 31092.72
1473.072, 30798.12
1474.112, 31030.59
1475.153, 30798.00
1476.194, 30988.00
1477.234, 30852.00
1478.274, 30860.00
1479.314, 30784.00
1480.354, 30907.00
1481.393, 31096.00
1482.433, 30944.00
1483.472, 31025.00
1484.511, 30935.00
1485.550, 30871.00
1486.589, 30907.00
1487.628, 30993.00
1488.666, 30821.00
1489.704, 30767.00
1490.743, 31058.00
1491.781, 30933.00
1492.819, 30956.00
1493.856, 31183.00
1494.894, 31016.00
1495.931, 31141.00
1496.968, 31246.00
1498.005, 31040.00
1499.042, 31024.00
1500.079, 31111.00
1501.115, 30858.00
1502.152, 30976.00
1503.188, 30892.00
1504.224, 30908.00
1505.260, 31058.00
1506.296, 31093.00
1507.331, 31201.00
1508.367, 31178.00
1509.402, 31368.00
1510.437, 31378.00
1511.472, 31374.00
1512.507, 31327.00
1513.541, 31301.00
1514.576, 31298.80
1515.610, 31275.20
1516.644, 31309.00
1517.678, 31293.00
1518.712, 31332.00
1519.746, 31415.00
1520.779, 31530.00
1521.813, 31581.00
1522.846, 31579.00
1523.879, 31645.78
1524.912, 31640.28
1525.944, 31702.00
1526.977, 31620.00
1528.009, 31640.00
1529.041, 31580.00
1530.073, 31446.00
1531.105, 31461.00
1532.137, 31812.00
1533.168, 31520.00
1534.200, 31473.00
1535.231, 31791.00
1536.262, 31666.00
1537.293, 31799.00
1538.324, 31810.00
1539.354, 31752.00
1540.385, 31668.00
1541.415, 31688.00
1542.445, 31735.00
1543.475, 31660.00
1544.505, 31880.00
1545.534, 31852.00
1546.564, 31832.00
1547.593, 31916.00
1548.622, 31739.00
1549.651, 31925.00
1550.680, 31948.00
1551.708, 31855.00
1552.737, 32147.00
1553.765, 31937.00
1554.793, 32190.00
1555.821, 31942.00
1556.849, 31701.00
1557.877, 31801.00
1558.904, 31914.00
1559.932, 31986.00
1560.959, 31861.00
1561.986, 31747.00
1563.013, 31812.00
1564.039, 31712.65
1565.066, 31947.00
1566.092, 31708.00
1567.119, 31825.00
1568.145, 31943.00
1569.170, 31753.00
1570.196, 32098.00
1571.222, 31930.00
1572.247, 32101.00
1573.272, 31905.00
1574.297, 32052.00
1575.322, 31926.00
1576.347, 32027.00
1577.372, 31922.00
##END=



