##NAMES=Fayalite
##RRUFFID=R070157
##IDEAL CHEMISTRY=Fe^2+^_2_SiO_4_
##LOCALITY=Coso Hot Springs, Inyo County, California, USA
##OWNER=RRUFF
##SOURCE=James Shigley
##DESCRIPTION=Brown transparent tabular crystals associated with fine grained quartz
##STATUS=The identification of this mineral is confirmed by single-crystal X-ray diffraction and chemical analysis.
##URL=rruff.info/R070157
##MEASURED CHEMISTRY=(Fe^2+^_1.88_Mn_0.11_Zn_0.01_)_Î£=2_Si_1.00_O_4_ ; trace amounts of Mg
##PIN_ID=M01877
##ORIENTATION=Laser parallel to c* (0 0 1). Fiducial mark perpendicular to laser is parallel to a [1 0 0]
96.86900, 15623.00
98.10600, 15866.00
99.34400, 16081.68
100.5810, 16096.77
101.8190, 16191.93
103.0560, 16368.05
104.2930, 16572.18
105.5290, 16965.83
106.7660, 17636.00
108.0020, 17838.00
109.2390, 16841.00
110.4750, 16495.00
111.7110, 16682.00
112.9460, 16847.00
114.1820, 17320.00
115.4170, 17795.00
116.6530, 18319.00
117.8880, 18541.00
119.1230, 18320.00
120.3580, 18154.00
121.5920, 18122.00
122.8270, 17858.00
124.0610, 17390.00
125.2950, 16608.00
126.5290, 15865.00
127.7630, 15835.00
128.9970, 15505.00
130.2300, 15403.00
131.4640, 15332.00
132.6970, 15260.00
133.9300, 15112.00
135.1630, 15012.00
136.3950, 15380.00
137.6280, 15551.00
138.8600, 15960.00
140.0920, 15998.00
141.3240, 16526.00
142.5560, 16885.00
143.7880, 18168.00
145.0190, 18522.00
146.2510, 19528.00
147.4820, 21178.00
148.7130, 23325.00
149.9440, 26039.00
151.1750, 28769.00
152.4050, 31206.00
153.6360, 32705.00
154.8660, 32831.00
156.0960, 31354.00
157.3260, 29169.00
158.5560, 26478.00
159.7850, 23590.00
161.0150, 21016.00
162.2440, 19080.00
163.4730, 17439.00
164.7020, 16504.00
165.9310, 16161.00
167.1590, 15946.00
168.3880, 15775.00
169.6160, 15823.00
170.8440, 16020.00
172.0720, 15746.00
173.3000, 15602.00
174.5280, 15359.00
175.7550, 14979.00
176.9820, 14835.00
178.2100, 14613.00
179.4370, 14457.76
180.6630, 14267.00
181.8900, 14242.00
183.1170, 14269.00
184.3430, 14168.00
185.5690, 14519.00
186.7950, 14726.00
188.0210, 15190.00
189.2470, 15384.00
190.4720, 16050.00
191.6970, 16458.00
192.9230, 17045.00
194.1480, 17294.00
195.3730, 17305.00
196.5970, 17177.00
197.8220, 16629.00
199.0460, 16226.00
200.2700, 15680.00
201.4940, 14965.00
202.7180, 14520.00
203.9420, 14081.00
205.1660, 13751.00
206.3890, 13514.00
207.6120, 13392.00
208.8350, 13094.00
210.0580, 13193.00
211.2810, 13178.00
212.5040, 13259.00
213.7260, 13116.00
214.9480, 13247.00
216.1700, 13180.00
217.3920, 13276.00
218.6140, 13272.00
219.8360, 13398.00
221.0570, 13297.00
222.2790, 13337.00
223.5000, 13410.00
224.7210, 13486.61
225.9410, 13605.00
227.1620, 13757.00
228.3820, 13937.00
229.6030, 14053.00
230.8230, 14155.00
232.0430, 14416.00
233.2630, 14472.00
234.4820, 14891.00
235.7020, 14962.00
236.9210, 15282.00
238.1400, 15112.00
239.3590, 15057.00
240.5780, 15134.00
241.7970, 15021.00
243.0150, 14847.00
244.2340, 14700.00
245.4520, 14717.00
246.6700, 14438.00
247.8880, 14313.00
249.1060, 14332.00
250.3230, 14186.00
251.5400, 14230.00
252.7580, 14124.00
253.9750, 14110.00
255.1920, 14338.00
256.4080, 14510.00
257.6250, 14592.00
258.8410, 14741.00
260.0580, 14671.00
261.2740, 14632.00
262.4900, 14740.00
263.7050, 14872.00
264.9210, 14948.00
266.1360, 15131.00
267.3520, 15409.00
268.5670, 15579.00
269.7820, 15902.00
270.9960, 16148.00
272.2110, 16626.00
273.4250, 17134.00
274.6400, 17667.42
275.8540, 18381.00
277.0680, 19005.00
278.2810, 19815.00
279.4950, 20670.00
280.7090, 21815.00
281.9220, 22571.00
283.1350, 23857.00
284.3480, 25320.00
285.5610, 26115.00
286.7730, 27370.00
287.9860, 28054.00
289.1980, 28673.00
290.4100, 28734.00
291.6220, 28938.00
292.8340, 27958.00
294.0460, 26991.00
295.2570, 26336.00
296.4690, 25378.00
297.6800, 24146.00
298.8910, 23382.00
300.1020, 22675.00
301.3120, 22051.00
302.5230, 21644.34
303.7330, 21232.00
304.9440, 21096.00
306.1540, 21020.00
307.3630, 20958.00
308.5730, 20819.00
309.7830, 20675.00
310.9920, 20778.00
312.2010, 20749.00
313.4100, 20348.00
314.6190, 19832.00
315.8280, 19555.00
317.0370, 18959.00
318.2450, 18752.00
319.4530, 18129.00
320.6610, 17896.00
321.8690, 17435.00
323.0770, 16789.00
324.2850, 16896.00
325.4920, 16425.00
326.6990, 16102.00
327.9060, 15947.00
329.1130, 15851.00
330.3200, 15712.00
331.5270, 15655.00
332.7330, 15673.00
333.9390, 15642.84
335.1450, 15655.85
336.3510, 15694.00
337.5570, 15689.00
338.7630, 15700.00
339.9680, 15703.00
341.1740, 15819.25
342.3790, 15869.00
343.5840, 16111.00
344.7890, 16284.00
345.9930, 16493.00
347.1980, 16741.00
348.4020, 16930.00
349.6060, 17417.00
350.8100, 17898.00
352.0140, 18083.00
353.2180, 18488.00
354.4210, 18862.00
355.6250, 19424.00
356.8280, 20289.00
358.0310, 20763.00
359.2340, 21593.00
360.4360, 22307.00
361.6390, 23029.00
362.8410, 24221.00
364.0430, 24955.00
365.2450, 25865.00
366.4470, 26386.00
367.6490, 27185.00
368.8510, 27528.00
370.0520, 28315.00
371.2530, 28725.00
372.4540, 28755.00
373.6550, 28690.00
374.8560, 28836.00
376.0560, 28620.00
377.2570, 28321.00
378.4570, 28121.00
379.6570, 27708.00
380.8570, 27239.00
382.0570, 26943.00
383.2560, 26158.00
384.4560, 25756.00
385.6550, 25250.00
386.8540, 24499.00
388.0530, 23772.00
389.2520, 23191.00
390.4510, 22388.00
391.6490, 21680.00
392.8470, 20995.00
394.0450, 20424.00
395.2430, 19679.00
396.4410, 19147.72
397.6390, 18921.00
398.8360, 18068.00
400.0340, 17695.00
401.2310, 17225.00
402.4280, 16631.00
403.6250, 16446.00
404.8210, 15979.00
406.0180, 15702.63
407.2140, 15503.93
408.4100, 15281.00
409.6060, 15043.00
410.8020, 15027.00
411.9980, 14630.00
413.1930, 14393.00
414.3890, 14401.00
415.5840, 14317.00
416.7790, 14097.00
417.9740, 13942.00
419.1680, 13888.00
420.3630, 13698.00
421.5570, 13477.00
422.7510, 13587.00
423.9450, 13423.00
425.1390, 13272.00
426.3330, 13403.00
427.5270, 13322.00
428.7200, 13363.00
429.9130, 13264.00
431.1060, 13364.00
432.2990, 13124.00
433.4920, 13086.00
434.6840, 13256.00
435.8770, 13162.00
437.0690, 13188.00
438.2610, 13148.00
439.4530, 13144.00
440.6450, 13257.00
441.8360, 13059.00
443.0280, 13124.00
444.2190, 12993.00
445.4100, 13182.00
446.6010, 13312.00
447.7920, 13130.00
448.9820, 13168.00
450.1730, 12986.00
451.3630, 13102.00
452.5530, 13141.00
453.7430, 13135.00
454.9330, 13117.00
456.1230, 13155.00
457.3120, 13142.39
458.5010, 13096.00
459.6910, 13171.00
460.8800, 13120.00
462.0680, 13170.30
463.2570, 13106.00
464.4460, 13162.00
465.6340, 13164.00
466.8220, 13134.00
468.0100, 13299.00
469.1980, 13373.00
470.3860, 13398.00
471.5730, 13172.00
472.7600, 13202.00
473.9480, 13295.00
475.1350, 13121.00
476.3210, 13323.00
477.5080, 13350.00
478.6950, 13426.00
479.8810, 13376.00
481.0670, 13401.00
482.2530, 13597.00
483.4390, 13657.00
484.6250, 13700.00
485.8100, 13665.00
486.9960, 13784.00
488.1810, 13994.00
489.3660, 14052.13
490.5510, 14245.92
491.7360, 14335.00
492.9200, 14611.00
494.1050, 14790.00
495.2890, 15045.00
496.4730, 15287.00
497.6570, 15878.00
498.8400, 16323.00
500.0240, 16814.00
501.2070, 17230.00
502.3910, 17936.00
503.5740, 18195.00
504.7570, 18621.00
505.9400, 18879.00
507.1220, 18893.00
508.3050, 18950.00
509.4870, 18635.00
510.6690, 18280.00
511.8510, 17768.00
513.0330, 17474.00
514.2140, 16947.00
515.3960, 16564.00
516.5770, 16298.00
517.7580, 15943.00
518.9390, 15735.00
520.1200, 15536.00
521.3010, 15233.00
522.4810, 15145.00
523.6610, 14957.00
524.8420, 15007.00
526.0220, 14983.00
527.2010, 14904.00
528.3810, 14893.00
529.5610, 14901.00
530.7400, 14904.00
531.9190, 14766.00
533.0980, 14817.00
534.2770, 14819.00
535.4560, 14913.00
536.6340, 14907.00
537.8120, 15003.00
538.9910, 14933.00
540.1690, 15124.00
541.3460, 15305.00
542.5240, 15587.00
543.7020, 15688.00
544.8790, 15751.00
546.0560, 16055.00
547.2330, 16024.00
548.4100, 16305.00
549.5870, 16655.00
550.7630, 16712.00
551.9400, 16924.00
553.1160, 17408.00
554.2920, 17766.00
555.4680, 17968.00
556.6440, 18282.00
557.8190, 18533.00
558.9950, 18728.79
560.1700, 18945.00
561.3450, 19146.00
562.5200, 19311.00
563.6950, 19576.00
564.8690, 19821.00
566.0440, 19633.00
567.2180, 19658.00
568.3920, 19341.00
569.5660, 19020.00
570.7400, 19011.00
571.9130, 18660.00
573.0870, 18336.00
574.2600, 18075.00
575.4330, 17717.00
576.6060, 17510.00
577.7790, 17196.00
578.9520, 16847.00
580.1240, 16673.00
581.2960, 16544.00
582.4690, 16393.00
583.6410, 16017.00
584.8120, 16047.00
585.9840, 15643.00
587.1560, 15453.00
588.3270, 15543.00
589.4980, 15321.00
590.6690, 15110.00
591.8400, 15023.00
593.0110, 15064.00
594.1810, 14823.00
595.3510, 14789.00
596.5220, 14585.00
597.6920, 14581.00
598.8610, 14517.00
600.0310, 14391.00
601.2010, 14415.00
602.3700, 14499.00
603.5390, 14420.00
604.7080, 14331.00
605.8770, 14224.00
607.0460, 13932.00
608.2140, 13963.00
609.3830, 13650.00
610.5510, 13730.00
611.7190, 13748.00
612.8870, 13406.00
614.0550, 13669.00
615.2220, 13549.00
616.3900, 13578.00
617.5570, 13483.00
618.7240, 13373.00
619.8910, 13541.00
621.0580, 13536.00
622.2240, 13465.00
623.3910, 13526.95
624.5570, 13343.00
625.7230, 13468.00
626.8890, 13442.00
628.0550, 13335.00
629.2200, 13489.00
630.3860, 13555.00
631.5510, 13534.00
632.7160, 13489.00
633.8810, 13579.00
635.0460, 13491.00
636.2100, 13509.00
637.3750, 13665.00
638.5390, 13686.00
639.7030, 13702.00
640.8670, 13615.00
642.0310, 13664.47
643.1950, 13647.00
644.3580, 13679.00
645.5210, 13673.00
646.6850, 13650.00
647.8480, 13685.37
649.0100, 13674.28
650.1730, 13753.00
651.3350, 13657.00
652.4980, 13733.00
653.6600, 13666.00
654.8220, 13567.00
655.9840, 13776.00
657.1450, 13821.00
658.3070, 13761.00
659.4680, 13857.00
660.6300, 13774.00
661.7910, 13815.00
662.9510, 14008.00
664.1120, 13800.00
665.2730, 13733.00
666.4330, 13844.00
667.5930, 13826.00
668.7530, 13863.73
669.9130, 13938.51
671.0730, 14007.00
672.2320, 14001.00
673.3920, 14204.00
674.5510, 14106.00
675.7100, 14259.00
676.8690, 14423.00
678.0280, 14495.00
679.1860, 14662.00
680.3450, 14665.00
681.5030, 14624.00
682.6610, 14625.00
683.8190, 14676.71
684.9770, 14713.00
686.1340, 14798.00
687.2920, 14793.00
688.4490, 14832.00
689.6060, 14824.00
690.7630, 14969.00
691.9200, 15015.00
693.0760, 14979.00
694.2330, 14881.00
695.3890, 14953.00
696.5450, 14984.00
697.7010, 14915.00
698.8570, 14917.00
700.0130, 14963.28
701.1680, 15062.00
702.3230, 15099.00
703.4780, 15129.00
704.6330, 15255.00
705.7880, 15225.00
706.9430, 15411.00
708.0970, 15338.00
709.2520, 15583.00
710.4060, 15635.00
711.5600, 15654.00
712.7140, 15792.00
713.8670, 15816.27
715.0210, 15912.00
716.1740, 15990.00
717.3270, 16029.00
718.4800, 16111.92
719.6330, 16204.00
720.7860, 16203.00
721.9380, 16298.39
723.0910, 16271.00
724.2430, 16366.00
725.3950, 16522.00
726.5470, 16526.00
727.6980, 16753.00
728.8500, 16941.00
730.0010, 16864.00
731.1530, 17078.66
732.3040, 17478.00
733.4550, 17378.00
734.6050, 17384.00
735.7560, 17708.00
736.9060, 17759.00
738.0560, 17878.00
739.2060, 17970.00
740.3560, 18087.00
741.5060, 18197.16
742.6560, 18394.00
743.8050, 18399.00
744.9540, 18519.00
746.1030, 18570.00
747.2520, 18583.00
748.4010, 18534.10
749.5500, 18251.00
750.6980, 18358.00
751.8460, 18199.00
752.9950, 18151.00
754.1420, 18074.00
755.2900, 18218.00
756.4380, 18457.00
757.5850, 18266.00
758.7330, 18552.00
759.8800, 18543.00
761.0270, 18759.00
762.1730, 18856.00
763.3200, 18917.00
764.4670, 19186.00
765.6130, 19342.00
766.7590, 19369.00
767.9050, 19689.00
769.0510, 19815.00
770.1960, 20130.00
771.3420, 20108.00
772.4870, 20135.00
773.6320, 20537.00
774.7770, 20779.00
775.9220, 20961.00
777.0670, 21430.00
778.2110, 21777.00
779.3560, 22185.00
780.5000, 22706.00
781.6440, 22899.00
782.7880, 23726.00
783.9320, 24192.00
785.0750, 24803.00
786.2180, 25653.00
787.3620, 26437.00
788.5050, 27276.00
789.6480, 28339.00
790.7900, 29751.00
791.9330, 30702.00
793.0750, 32718.00
794.2170, 34381.00
795.3590, 36712.00
796.5010, 39104.00
797.6430, 42117.00
798.7850, 45638.00
799.9260, 49509.00
801.0670, 54722.00
802.2080, 61081.00
803.3490, 68087.00
804.4900, 76857.00
805.6310, 86677.00
806.7710, 98575.00
807.9110, 111120.0
809.0510, 124420.0
810.1910, 137201.0
811.3310, 148403.0
812.4710, 156514.0
813.6100, 162432.0
814.7490, 163195.0
815.8880, 160944.0
817.0270, 155389.0
818.1660, 148561.0
819.3050, 140934.0
820.4430, 132611.0
821.5820, 124908.0
822.7200, 118344.0
823.8580, 112586.0
824.9950, 108545.0
826.1330, 104609.0
827.2710, 100977.0
828.4080, 99355.00
829.5450, 97283.00
830.6820, 96838.00
831.8190, 96386.00
832.9560, 96137.00
834.0920, 96214.00
835.2280, 96169.00
836.3650, 96866.00
837.5010, 96220.00
838.6360, 95735.00
839.7720, 94992.00
840.9080, 92626.00
842.0430, 90310.00
843.1780, 87140.00
844.3130, 83950.00
845.4480, 79445.00
846.5830, 75269.00
847.7170, 71178.00
848.8520, 66196.00
849.9860, 62240.00
851.1200, 58170.00
852.2540, 54593.00
853.3870, 51027.00
854.5210, 47693.00
855.6540, 44544.00
856.7880, 41994.00
857.9210, 39778.00
859.0540, 37812.00
860.1860, 35857.00
861.3190, 34094.00
862.4510, 32595.00
863.5840, 31227.00
864.7160, 30216.00
865.8480, 29345.00
866.9790, 28318.00
868.1110, 27603.85
869.2420, 26882.00
870.3740, 26299.00
871.5050, 25757.00
872.6360, 25345.00
873.7660, 24922.00
874.8970, 24399.00
876.0280, 24234.00
877.1580, 23843.00
878.2880, 23757.00
879.4180, 23619.00
880.5480, 23520.00
881.6770, 23137.00
882.8070, 23194.00
883.9360, 22919.00
885.0650, 22833.00
886.1940, 22773.00
887.3230, 22754.00
888.4520, 22747.51
889.5800, 22563.00
890.7090, 22731.00
891.8370, 22660.00
892.9650, 22505.00
894.0930, 22410.00
895.2200, 22355.00
896.3480, 22322.24
897.4750, 22301.00
898.6020, 22365.00
899.7290, 22453.00
900.8560, 22530.00
901.9830, 22459.00
903.1090, 22406.00
904.2360, 22457.00
905.3620, 22252.00
906.4880, 22505.00
907.6140, 22313.00
908.7400, 22457.00
909.8650, 22655.00
910.9900, 22646.00
912.1160, 22682.00
913.2410, 22857.00
914.3660, 22905.00
915.4900, 23186.00
916.6150, 23387.00
917.7390, 23525.00
918.8640, 23988.00
919.9880, 24223.00
921.1120, 24677.00
922.2350, 24752.00
923.3590, 25213.00
924.4820, 25586.00
925.6060, 25661.00
926.7290, 26078.00
927.8520, 26248.00
928.9740, 26290.00
930.0970, 26572.00
931.2190, 26860.00
932.3420, 27025.00
933.4640, 27215.00
934.5860, 27260.00
935.7080, 27279.00
936.8290, 27188.00
937.9510, 26945.00
939.0720, 27101.00
940.1930, 26895.00
941.3140, 26946.00
942.4350, 26846.00
943.5560, 26968.00
944.6760, 26960.00
945.7960, 26684.00
946.9170, 26558.00
948.0370, 26608.00
949.1560, 26535.00
950.2760, 26568.00
951.3960, 26466.00
952.5150, 26251.00
953.6340, 26280.00
954.7530, 26100.00
955.8720, 26056.00
956.9910, 26173.00
958.1090, 25926.00
959.2280, 25790.00
960.3460, 25588.00
961.4640, 25794.00
962.5820, 25631.49
963.6990, 25825.00
964.8170, 25621.00
965.9340, 25706.00
967.0510, 25810.00
968.1690, 25526.00
969.2850, 25657.00
970.4020, 25639.00
971.5190, 25478.00
972.6350, 25542.00
973.7510, 25443.00
974.8670, 25398.16
975.9830, 25234.00
977.0990, 25314.00
978.2150, 25404.00
979.3300, 25381.07
980.4450, 25231.00
981.5600, 25294.00
982.6750, 25107.00
983.7900, 25053.00
984.9050, 25212.00
986.0190, 25052.00
987.1340, 25125.00
988.2480, 25084.00
989.3620, 25204.00
990.4750, 25104.00
991.5890, 25083.00
992.7020, 25166.00
993.8160, 25018.00
994.9290, 25085.00
996.0420, 25141.00
997.1550, 24990.00
998.2670, 24897.00
999.3800, 24936.00
1000.492, 24957.00
1001.604, 25124.00
1002.716, 24950.00
1003.828, 25092.00
1004.940, 24915.00
1006.051, 24969.00
1007.163, 24833.00
1008.274, 24836.00
1009.385, 24899.00
1010.496, 24594.00
1011.606, 24866.00
1012.717, 24778.00
1013.827, 24884.00
1014.937, 24639.00
1016.047, 24576.00
1017.157, 24679.00
1018.267, 24630.00
1019.377, 24661.93
1020.486, 24799.00
1021.595, 24707.00
1022.704, 24804.00
1023.813, 24835.00
1024.922, 24822.00
1026.030, 24746.00
1027.139, 24775.00
1028.247, 24678.00
1029.355, 24794.00
1030.463, 24732.13
1031.571, 24708.00
1032.678, 24713.00
1033.786, 24791.00
1034.893, 24837.00
1036.000, 24919.00
1037.107, 24920.00
1038.214, 24955.32
1039.321, 25050.00
1040.427, 24984.00
1041.533, 25046.00
1042.639, 25077.00
1043.745, 25194.00
1044.851, 25253.00
1045.957, 25283.94
1047.062, 25376.13
1048.168, 25369.00
1049.273, 25397.00
1050.378, 25505.00
1051.482, 25482.44
1052.587, 25530.00
1053.692, 25497.00
1054.796, 25598.00
1055.900, 25591.00
1057.004, 25413.00
1058.108, 25632.00
1059.212, 25591.00
1060.315, 25923.00
1061.418, 25737.00
1062.522, 25935.00
1063.625, 25987.00
1064.728, 25998.00
1065.830, 25820.00
1066.933, 25904.00
1068.035, 25942.00
1069.137, 26172.00
1070.239, 26269.00
1071.341, 26166.00
1072.443, 26254.00
1073.545, 26341.00
1074.646, 26391.00
1075.747, 26221.00
1076.848, 26476.00
1077.949, 26296.00
1079.050, 26510.00
1080.150, 26618.00
1081.251, 26639.00
1082.351, 26497.00
1083.451, 26569.00
1084.551, 26536.00
1085.651, 26622.00
1086.750, 26747.00
1087.850, 26551.00
1088.949, 26664.00
1090.048, 26977.00
1091.147, 26876.00
1092.246, 26900.00
1093.345, 26803.00
1094.443, 26831.00
1095.541, 26957.00
1096.639, 27169.00
1097.737, 26953.00
1098.835, 27158.00
1099.933, 27230.00
1101.030, 27064.00
1102.128, 27144.00
1103.225, 27407.00
1104.322, 27442.00
1105.419, 27257.00
1106.515, 27522.00
1107.612, 27424.00
1108.708, 27366.00
1109.804, 27527.00
1110.900, 27575.00
1111.996, 27674.00
1113.092, 27680.00
1114.187, 27843.00
1115.283, 27845.00
1116.378, 27837.00
1117.473, 28106.00
1118.568, 27689.00
1119.662, 27958.00
1120.757, 28049.00
1121.851, 28090.00
1122.946, 28269.00
1124.040, 28319.00
1125.134, 28364.00
1126.227, 28455.02
1127.321, 28533.31
1128.414, 28591.00
1129.508, 28700.00
1130.601, 28844.00
1131.693, 28869.00
1132.786, 28997.00
1133.879, 29079.00
1134.971, 29289.00
1136.064, 29138.00
1137.156, 29295.00
1138.248, 29201.00
1139.339, 29172.00
1140.431, 29511.00
1141.522, 29434.00
1142.614, 29484.00
1143.705, 29501.00
1144.796, 29395.00
1145.887, 29534.00
1146.977, 29609.00
1148.068, 29526.00
1149.158, 29447.00
1150.248, 29556.00
1151.338, 29729.00
1152.428, 29474.00
1153.518, 29868.00
1154.607, 29699.00
1155.696, 29828.00
1156.785, 29910.00
1157.874, 29860.00
1158.963, 29760.00
1160.052, 29822.90
1161.141, 29873.00
1162.229, 29875.00
1163.317, 29906.00
1164.405, 29982.00
1165.493, 30000.00
1166.581, 29926.00
1167.668, 30038.00
1168.756, 30001.00
1169.843, 30105.00
1170.930, 30094.00
1172.017, 30116.00
1173.103, 30180.44
1174.190, 30130.00
1175.276, 30239.00
1176.363, 30268.00
1177.449, 30216.00
1178.535, 30302.00
1179.620, 30374.00
1180.706, 30379.51
1181.791, 30328.00
1182.877, 30363.00
1183.962, 30499.00
1185.047, 30309.00
1186.131, 30675.00
1187.216, 30555.00
1188.300, 30529.00
1189.385, 30541.00
1190.469, 30448.00
1191.553, 30610.00
1192.637, 30675.00
1193.720, 30523.00
1194.804, 30719.00
1195.887, 30864.00
1196.970, 30721.00
1198.053, 31148.00
1199.136, 30934.00
1200.219, 30843.00
1201.301, 31011.00
1202.383, 31073.00
1203.465, 31222.00
1204.547, 31291.00
1205.629, 31467.00
1206.711, 31280.00
1207.792, 31330.00
1208.874, 31407.00
1209.955, 31580.00
1211.036, 31571.00
1212.117, 31591.00
1213.198, 31659.00
1214.278, 31696.00
1215.359, 31767.40
1216.439, 31867.00
1217.519, 31913.00
1218.599, 31865.00
1219.678, 31912.00
1220.758, 32213.00
1221.837, 32076.00
1222.917, 32193.00
1223.996, 32453.00
1225.075, 32288.00
1226.153, 32518.00
1227.232, 32581.00
1228.310, 32573.00
1229.389, 32719.00
1230.467, 32779.00
1231.545, 32965.00
1232.622, 32940.00
1233.700, 33034.39
1234.777, 32984.00
1235.855, 33179.00
1236.932, 33050.00
1238.009, 33217.00
1239.086, 33519.00
1240.162, 33437.00
1241.239, 33339.00
1242.315, 33550.00
1243.391, 33542.00
1244.467, 33538.00
1245.543, 33735.00
1246.619, 33802.00
1247.694, 33713.00
1248.769, 33897.00
1249.844, 34024.00
1250.919, 34053.00
1251.994, 33997.00
1253.069, 34413.00
1254.144, 34386.00
1255.218, 34260.00
1256.292, 34496.00
1257.366, 34384.00
1258.440, 34482.00
1259.514, 34788.00
1260.587, 34693.00
1261.661, 34920.00
1262.734, 34724.00
1263.807, 35083.00
1264.880, 35093.00
1265.952, 35211.00
1267.025, 35215.00
1268.097, 35560.00
1269.170, 35433.00
1270.242, 35433.00
1271.314, 35542.00
1272.385, 35884.00
1273.457, 35860.30
1274.528, 35991.59
1275.600, 36104.28
1276.671, 36199.21
1277.742, 36223.50
1278.812, 36338.92
1279.883, 36417.88
1280.954, 36495.32
1282.024, 36623.57
1283.094, 36366.00
1284.164, 36604.00
1285.234, 36494.00
1286.303, 36578.00
1287.373, 36712.00
1288.442, 36750.00
1289.511, 36692.00
1290.580, 36869.00
1291.649, 37208.00
1292.718, 36853.00
1293.786, 37387.00
1294.855, 37411.00
1295.923, 37196.00
1296.991, 37352.00
1298.059, 37518.00
1299.126, 37516.00
1300.194, 37632.00
1301.261, 38030.00
1302.328, 37678.00
1303.395, 37717.00
1304.462, 38080.00
1305.529, 38143.00
1306.596, 38112.00
1307.662, 38237.00
1308.728, 38278.00
1309.794, 38467.00
1310.860, 38420.00
1311.926, 38829.00
1312.991, 38669.00
1314.057, 38900.00
1315.122, 38534.00
1316.187, 38928.00
1317.252, 38847.00
1318.317, 39068.00
1319.381, 39097.00
1320.446, 39365.00
1321.510, 39508.00
1322.574, 39444.00
1323.638, 39743.00
1324.702, 39731.00
1325.766, 39920.00
1326.829, 40011.00
1327.892, 39919.00
1328.956, 39927.00
1330.019, 40067.00
1331.081, 40294.00
1332.144, 40573.00
1333.206, 40389.00
1334.269, 40691.00
1335.331, 40607.00
1336.393, 40756.00
1337.455, 40897.00
1338.516, 40950.00
1339.578, 40927.00
1340.639, 41021.57
1341.701, 41044.00
1342.762, 41115.00
1343.822, 41285.00
1344.883, 41361.00
1345.944, 41497.00
1347.004, 41501.00
1348.064, 41459.00
1349.124, 41710.00
1350.184, 42043.00
1351.244, 41942.00
1352.304, 42146.00
1353.363, 42092.00
1354.422, 42238.00
1355.481, 42229.00
1356.540, 42338.56
1357.599, 42477.00
1358.657, 42552.00
1359.716, 42650.00
1360.774, 42723.00
1361.832, 43110.00
1362.890, 42898.00
1363.948, 43168.00
1365.006, 42909.00
1366.063, 43090.00
1367.120, 43393.00
1368.178, 43154.00
1369.234, 43087.00
1370.291, 43397.00
1371.348, 43628.00
1372.404, 43785.00
1373.461, 43863.00
1374.517, 43714.00
1375.573, 43713.00
1376.629, 43881.00
1377.684, 44239.00
1378.740, 44124.00
1379.795, 44460.00
1380.850, 44328.00
1381.905, 44154.58
1382.960, 44297.32
1384.015, 44421.40
1385.070, 44527.78
1386.124, 44563.45
1387.178, 44690.32
1388.232, 44780.64
1389.286, 44869.46
1390.340, 45009.16
1391.393, 45055.00
1392.447, 45193.91
1393.500, 45295.61
1394.553, 45766.00
1395.606, 46024.00
1396.659, 45635.00
1397.711, 45947.00
1398.764, 46280.00
1399.816, 46059.00
1400.868, 46428.00
1401.920, 46399.00
1402.972, 46936.44
1404.023, 47039.18
1405.075, 47123.29
1406.126, 47189.67
1407.177, 47185.42
1408.228, 47272.37
1409.279, 47322.77
1410.330, 47371.68
1411.380, 47471.41
1412.431, 47477.44
1413.481, 47821.00
1414.531, 47714.00
1415.580, 47889.00
1416.630, 47720.00
1417.680, 48095.00
1418.729, 48324.00
1419.778, 48172.00
1420.827, 48550.00
1421.876, 48302.00
1422.925, 48708.00
1423.973, 48537.00
1425.022, 48916.00
1426.070, 48940.00
1427.118, 48994.00
1428.166, 48987.00
1429.214, 49067.00
1430.261, 49209.25
1431.309, 49381.00
1432.356, 49553.00
1433.403, 49667.00
1434.450, 49829.00
1435.497, 49806.00
1436.543, 49920.00
1437.590, 50153.00
1438.636, 50156.73
1439.682, 50490.00
1440.728, 50448.00
1441.774, 50553.00
1442.819, 50984.00
1443.865, 50633.00
1444.910, 50721.00
1445.955, 50927.00
1447.000, 51056.00
1448.045, 51332.00
1449.090, 51391.00
1450.134, 51519.00
1451.178, 51491.00
1452.223, 51778.00
1453.267, 51742.00
1454.310, 51941.00
1455.354, 51635.00
1456.398, 52065.00
1457.441, 52602.00
1458.484, 52161.00
1459.527, 52513.00
1460.570, 52826.00
1461.613, 52660.00
1462.655, 53146.00
1463.698, 52926.00
1464.740, 53096.00
1465.782, 53227.00
1466.824, 53247.00
1467.866, 53520.00
1468.907, 53780.00
1469.948, 53604.00
1470.990, 53692.00
1472.031, 53846.00
1473.072, 54277.00
1474.112, 54050.00
1475.153, 54444.00
1476.194, 54361.00
1477.234, 54521.00
1478.274, 54765.00
1479.314, 54377.00
1480.354, 54754.00
1481.393, 55074.00
1482.433, 54816.00
1483.472, 55214.00
1484.511, 55387.00
1485.550, 55347.00
1486.589, 55867.00
1487.628, 55602.00
1488.666, 55668.00
1489.704, 56144.00
1490.743, 56151.00
1491.781, 56243.00
1492.819, 56238.00
1493.856, 55966.00
1494.894, 56762.00
1495.931, 56410.00
1496.968, 56898.00
1498.005, 57087.00
1499.042, 57051.00
1500.079, 57136.00
1501.115, 57525.00
1502.152, 57278.00
1503.188, 57566.00
1504.224, 57766.00
1505.260, 57650.00
1506.296, 57663.00
1507.331, 57744.00
1508.367, 58148.00
1509.402, 58142.00
1510.437, 58446.86
1511.472, 58606.13
1512.507, 58963.00
1513.541, 58868.00
1514.576, 59139.00
1515.610, 59161.00
1516.644, 59263.00
1517.678, 59367.00
1518.712, 59976.00
1519.746, 59890.00
1520.779, 60129.00
1521.813, 59911.00
1522.846, 60089.00
1523.879, 60212.00
1524.912, 60186.00
1525.944, 60523.00
1526.977, 60557.00
1528.009, 60710.00
1529.041, 60839.00
1530.073, 61184.00
1531.105, 61021.00
1532.137, 61040.00
1533.168, 61413.00
1534.200, 61548.00
1535.231, 61609.00
1536.262, 62092.00
1537.293, 61789.00
1538.324, 62202.00
1539.354, 62217.00
1540.385, 62046.00
1541.415, 62262.00
1542.445, 62293.00
1543.475, 62491.00
1544.505, 62873.00
1545.534, 62987.00
1546.564, 62999.00
1547.593, 63278.72
1548.622, 63399.00
1549.651, 63683.00
1550.680, 63618.00
1551.708, 63922.00
1552.737, 63509.00
1553.765, 64076.00
1554.793, 63922.00
1555.821, 64213.00
1556.849, 64198.00
1557.877, 63953.00
1558.904, 64403.00
1559.932, 64284.00
1560.959, 64729.00
1561.986, 64340.00
1563.013, 64975.00
1564.039, 64982.00
1565.066, 65107.00
1566.092, 65346.73
1567.119, 65378.66
1568.145, 65520.00
1569.170, 65550.00
1570.196, 65558.00
1571.222, 65566.00
1572.247, 65851.00
1573.272, 65969.00
1574.297, 66037.00
1575.322, 66305.00
1576.347, 66428.00
1577.372, 66325.00
##END=



