##NAMES=Fayalite
##RRUFFID=R070157
##IDEAL CHEMISTRY=Fe^2+^_2_SiO_4_
##LOCALITY=Coso Hot Springs, Inyo County, California, USA
##OWNER=RRUFF
##SOURCE=James Shigley
##DESCRIPTION=Brown transparent tabular crystals associated with fine grained quartz
##STATUS=The identification of this mineral is confirmed by single-crystal X-ray diffraction and chemical analysis.
##URL=rruff.info/R070157
##MEASURED CHEMISTRY=(Fe^2+^_1.88_Mn_0.11_Zn_0.01_)_Î£=2_Si_1.00_O_4_ ; trace amounts of Mg
##PIN_ID=M00908
##ORIENTATION=Laser parallel to -b* (0 -1 0). Fiducial mark perpendicular to laser is parallel to c [0 0 1]
142.5560, 29055.00
143.7880, 28754.04
145.0190, 28721.26
146.2510, 28638.83
147.4820, 28512.81
148.7130, 28042.76
149.9440, 28146.26
151.1750, 28098.97
152.4050, 28099.55
153.6360, 28445.11
154.8660, 28315.29
156.0960, 28768.89
157.3260, 29068.45
158.5560, 29520.64
159.7850, 29820.32
161.0150, 30241.06
162.2440, 31131.00
163.4730, 32902.00
164.7020, 35171.00
165.9310, 37811.00
167.1590, 40082.00
168.3880, 42726.00
169.6160, 45266.00
170.8440, 45770.00
172.0720, 45665.00
173.3000, 44944.00
174.5280, 43839.00
175.7550, 40677.00
176.9820, 37100.00
178.2100, 33892.00
179.4370, 30659.00
180.6630, 28782.00
181.8900, 27159.00
183.1170, 26409.00
184.3430, 26223.00
185.5690, 25604.00
186.7950, 25345.00
188.0210, 25509.00
189.2470, 25320.00
190.4720, 24903.00
191.6970, 24285.00
192.9230, 24348.00
194.1480, 24089.00
195.3730, 24628.00
196.5970, 24566.00
197.8220, 24846.00
199.0460, 24565.00
200.2700, 24118.00
201.4940, 24164.00
202.7180, 23908.00
203.9420, 23864.00
205.1660, 23115.00
206.3890, 22799.00
207.6120, 22742.00
208.8350, 22914.00
210.0580, 22973.00
211.2810, 23168.75
212.5040, 24170.00
213.7260, 23681.00
214.9480, 23761.00
216.1700, 24102.00
217.3920, 23679.00
218.6140, 24088.00
219.8360, 24085.00
221.0570, 24709.00
222.2790, 24968.00
223.5000, 25043.00
224.7210, 25866.00
225.9410, 25849.00
227.1620, 26706.00
228.3820, 27219.00
229.6030, 28412.00
230.8230, 29554.00
232.0430, 30995.00
233.2630, 32864.00
234.4820, 34212.00
235.7020, 35153.00
236.9210, 36227.00
238.1400, 37244.00
239.3590, 37402.00
240.5780, 36769.00
241.7970, 36066.00
243.0150, 35076.00
244.2340, 33547.00
245.4520, 32330.00
246.6700, 31058.00
247.8880, 29913.00
249.1060, 28535.00
250.3230, 27921.00
251.5400, 27160.00
252.7580, 26219.00
253.9750, 25800.00
255.1920, 25190.00
256.4080, 25852.00
257.6250, 25830.00
258.8410, 25144.00
260.0580, 24932.00
261.2740, 24990.00
262.4900, 24497.00
263.7050, 24487.00
264.9210, 24329.00
266.1360, 24123.00
267.3520, 24440.00
268.5670, 24766.00
269.7820, 24676.00
270.9960, 25164.00
272.2110, 25429.00
273.4250, 25839.00
274.6400, 26363.00
275.8540, 26998.77
277.0680, 27800.00
278.2810, 28675.00
279.4950, 29713.12
280.7090, 30604.00
281.9220, 32129.00
283.1350, 33699.00
284.3480, 35188.00
285.5610, 36403.00
286.7730, 37909.00
287.9860, 38730.00
289.1980, 39378.00
290.4100, 40186.00
291.6220, 39905.00
292.8340, 39037.00
294.0460, 37734.00
295.2570, 36325.00
296.4690, 34379.00
297.6800, 32719.00
298.8910, 31199.00
300.1020, 30062.00
301.3120, 28790.00
302.5230, 28183.00
303.7330, 27479.00
304.9440, 26752.00
306.1540, 26472.00
307.3630, 25828.49
308.5730, 25726.00
309.7830, 24951.00
310.9920, 24579.00
312.2010, 24305.00
313.4100, 23277.00
314.6190, 23022.00
315.8280, 22542.00
317.0370, 22022.00
318.2450, 21582.00
319.4530, 21117.00
320.6610, 20755.00
321.8690, 20558.00
323.0770, 20291.00
324.2850, 20162.00
325.4920, 19680.00
326.6990, 19557.00
327.9060, 19370.00
329.1130, 19382.00
330.3200, 19056.00
331.5270, 19207.00
332.7330, 18958.00
333.9390, 18795.00
335.1450, 18726.00
336.3510, 18566.00
337.5570, 18441.00
338.7630, 18406.00
339.9680, 18540.00
341.1740, 18596.00
342.3790, 18487.00
343.5840, 18459.00
344.7890, 18432.00
345.9930, 18456.00
347.1980, 18283.00
348.4020, 18610.00
349.6060, 18794.00
350.8100, 18864.00
352.0140, 19266.00
353.2180, 19323.00
354.4210, 20065.00
355.6250, 20079.35
356.8280, 20723.00
358.0310, 20457.00
359.2340, 21054.00
360.4360, 21458.00
361.6390, 22012.00
362.8410, 22541.00
364.0430, 22918.00
365.2450, 23260.00
366.4470, 23830.00
367.6490, 24011.00
368.8510, 24548.00
370.0520, 25085.00
371.2530, 24851.00
372.4540, 24916.00
373.6550, 24842.00
374.8560, 24231.00
376.0560, 23778.00
377.2570, 23421.00
378.4570, 23085.00
379.6570, 22440.00
380.8570, 22162.00
382.0570, 22016.00
383.2560, 21264.00
384.4560, 20833.00
385.6550, 20767.00
386.8540, 20591.00
388.0530, 20172.00
389.2520, 19969.00
390.4510, 19700.00
391.6490, 19495.00
392.8470, 19429.00
394.0450, 19452.00
395.2430, 19358.00
396.4410, 19257.00
397.6390, 19318.00
398.8360, 19149.00
400.0340, 19172.00
401.2310, 19086.00
402.4280, 19030.58
403.6250, 19166.00
404.8210, 18935.00
406.0180, 18941.00
407.2140, 18871.00
408.4100, 18691.00
409.6060, 18488.00
410.8020, 18519.00
411.9980, 18226.00
413.1930, 18107.00
414.3890, 17795.00
415.5840, 17665.76
416.7790, 17623.00
417.9740, 17411.00
419.1680, 17426.00
420.3630, 17383.00
421.5570, 17301.00
422.7510, 17230.00
423.9450, 16965.00
425.1390, 16826.00
426.3330, 16432.00
427.5270, 16591.00
428.7200, 16353.00
429.9130, 16406.00
431.1060, 16492.00
432.2990, 16041.00
433.4920, 16295.00
434.6840, 16182.00
435.8770, 16215.00
437.0690, 15962.00
438.2610, 15965.00
439.4530, 15919.00
440.6450, 15912.00
441.8360, 15929.00
443.0280, 15925.00
444.2190, 15912.00
445.4100, 15905.00
446.6010, 15724.00
447.7920, 15745.00
448.9820, 15706.00
450.1730, 15812.00
451.3630, 15735.48
452.5530, 15834.00
453.7430, 15728.00
454.9330, 15679.00
456.1230, 15863.00
457.3120, 15998.00
458.5010, 15734.00
459.6910, 15762.00
460.8800, 15637.00
462.0680, 15582.00
463.2570, 15562.55
464.4460, 15551.39
465.6340, 15544.00
466.8220, 15578.00
468.0100, 15668.00
469.1980, 15611.00
470.3860, 15587.00
471.5730, 15782.00
472.7600, 15592.00
473.9480, 15857.00
475.1350, 15697.00
476.3210, 15836.00
477.5080, 15724.00
478.6950, 15826.00
479.8810, 15765.00
481.0670, 15670.00
482.2530, 15698.00
483.4390, 15634.12
484.6250, 15869.00
485.8100, 15678.00
486.9960, 15709.00
488.1810, 15940.00
489.3660, 15955.00
490.5510, 16003.00
491.7360, 15946.00
492.9200, 15955.00
494.1050, 16034.00
495.2890, 16018.00
496.4730, 16258.00
497.6570, 16413.00
498.8400, 16486.00
500.0240, 16656.00
501.2070, 16727.00
502.3910, 16896.00
503.5740, 16982.00
504.7570, 16922.00
505.9400, 16940.00
507.1220, 16928.97
508.3050, 16969.00
509.4870, 16878.00
510.6690, 16867.00
511.8510, 16839.00
513.0330, 16595.00
514.2140, 16595.00
515.3960, 16546.00
516.5770, 16320.00
517.7580, 16480.00
518.9390, 16466.00
520.1200, 16409.00
521.3010, 16296.00
522.4810, 16313.00
523.6610, 16325.00
524.8420, 16311.00
526.0220, 16166.00
527.2010, 16310.00
528.3810, 16516.00
529.5610, 16288.00
530.7400, 16326.00
531.9190, 16403.00
533.0980, 16378.00
534.2770, 16524.00
535.4560, 16534.00
536.6340, 16655.00
537.8120, 16962.00
538.9910, 16922.00
540.1690, 17278.00
541.3460, 17486.00
542.5240, 17505.00
543.7020, 17748.00
544.8790, 17980.00
546.0560, 18484.00
547.2330, 18801.00
548.4100, 18885.00
549.5870, 19339.00
550.7630, 19487.00
551.9400, 19757.00
553.1160, 20077.00
554.2920, 20240.00
555.4680, 20323.00
556.6440, 20380.00
557.8190, 20058.00
558.9950, 20127.00
560.1700, 20250.00
561.3450, 19885.00
562.5200, 19996.00
563.6950, 19959.00
564.8690, 19865.00
566.0440, 19789.00
567.2180, 19602.00
568.3920, 19337.00
569.5660, 19217.00
570.7400, 18748.00
571.9130, 18496.00
573.0870, 18465.00
574.2600, 18119.00
575.4330, 17980.00
576.6060, 17565.00
577.7790, 17389.00
578.9520, 17023.00
580.1240, 16830.00
581.2960, 16830.00
582.4690, 16575.00
583.6410, 16368.00
584.8120, 16340.00
585.9840, 16210.00
587.1560, 16191.00
588.3270, 16192.00
589.4980, 15913.00
590.6690, 15944.00
591.8400, 15786.00
593.0110, 15609.00
594.1810, 15687.00
595.3510, 15543.00
596.5220, 15577.00
597.6920, 15468.00
598.8610, 15463.00
600.0310, 15428.54
601.2010, 15299.00
602.3700, 15353.00
603.5390, 15213.00
604.7080, 15151.00
605.8770, 15077.00
607.0460, 14985.00
608.2140, 14988.00
609.3830, 14789.00
610.5510, 14810.00
611.7190, 14613.00
612.8870, 14776.00
614.0550, 14760.00
615.2220, 14723.00
616.3900, 14690.00
617.5570, 14563.00
618.7240, 14670.00
619.8910, 14532.00
621.0580, 14618.00
622.2240, 14500.00
623.3910, 14614.00
624.5570, 14526.00
625.7230, 14581.00
626.8890, 14687.00
628.0550, 14583.00
629.2200, 14601.00
630.3860, 14679.00
631.5510, 14691.00
632.7160, 14635.00
633.8810, 14570.00
635.0460, 14668.00
636.2100, 14744.00
637.3750, 14617.00
638.5390, 14725.00
639.7030, 14677.00
640.8670, 14654.00
642.0310, 14564.00
643.1950, 14675.00
644.3580, 14562.00
645.5210, 14694.00
646.6850, 14718.00
647.8480, 14604.00
649.0100, 14676.00
650.1730, 14717.00
651.3350, 14640.78
652.4980, 14751.00
653.6600, 14626.00
654.8220, 14649.00
655.9840, 14806.00
657.1450, 14706.00
658.3070, 14678.00
659.4680, 14798.00
660.6300, 14952.00
661.7910, 14923.00
662.9510, 14802.00
664.1120, 14826.00
665.2730, 14785.00
666.4330, 14783.00
667.5930, 14890.00
668.7530, 14855.00
669.9130, 14837.00
671.0730, 14764.00
672.2320, 14814.00
673.3920, 14843.00
674.5510, 14876.37
675.7100, 15050.00
676.8690, 15027.00
678.0280, 15191.00
679.1860, 15321.00
680.3450, 15312.00
681.5030, 15486.00
682.6610, 15296.00
683.8190, 15429.00
684.9770, 15475.00
686.1340, 15504.00
687.2920, 15468.00
688.4490, 15525.00
689.6060, 15435.00
690.7630, 15382.00
691.9200, 15460.00
693.0760, 15447.00
694.2330, 15299.00
695.3890, 15497.00
696.5450, 15278.00
697.7010, 15457.00
698.8570, 15541.00
700.0130, 15442.00
701.1680, 15396.00
702.3230, 15498.00
703.4780, 15364.00
704.6330, 15736.00
705.7880, 15614.00
706.9430, 15575.00
708.0970, 15546.00
709.2520, 15799.00
710.4060, 15752.00
711.5600, 15878.00
712.7140, 15863.00
713.8670, 16036.00
715.0210, 16109.00
716.1740, 16360.00
717.3270, 16203.00
718.4800, 16112.00
719.6330, 16335.00
720.7860, 16395.00
721.9380, 16608.00
723.0910, 16519.00
724.2430, 16466.00
725.3950, 16682.00
726.5470, 16823.00
727.6980, 16845.00
728.8500, 16966.00
730.0010, 16955.00
731.1530, 17179.00
732.3040, 17346.00
733.4550, 17646.00
734.6050, 17769.00
735.7560, 17806.00
736.9060, 18019.00
738.0560, 18346.00
739.2060, 18500.00
740.3560, 18874.00
741.5060, 18772.00
742.6560, 18815.00
743.8050, 19049.00
744.9540, 19102.00
746.1030, 18858.00
747.2520, 18841.00
748.4010, 18893.00
749.5500, 18612.00
750.6980, 18348.00
751.8460, 18263.00
752.9950, 18136.00
754.1420, 18099.00
755.2900, 17968.00
756.4380, 18037.00
757.5850, 18097.00
758.7330, 18026.00
759.8800, 18047.00
761.0270, 18128.00
762.1730, 18261.00
763.3200, 18390.00
764.4670, 18503.00
765.6130, 18472.00
766.7590, 18685.00
767.9050, 18716.00
769.0510, 18919.00
770.1960, 18925.00
771.3420, 19198.00
772.4870, 19306.00
773.6320, 19348.00
774.7770, 19657.00
775.9220, 19841.00
777.0670, 20223.00
778.2110, 20349.00
779.3560, 20817.00
780.5000, 21027.00
781.6440, 21303.00
782.7880, 21601.00
783.9320, 22178.00
785.0750, 22769.00
786.2180, 23268.00
787.3620, 23816.00
788.5050, 24729.00
789.6480, 25163.00
790.7900, 26403.00
791.9330, 27417.00
793.0750, 28478.00
794.2170, 29902.00
795.3590, 31266.00
796.5010, 33204.00
797.6430, 35566.00
798.7850, 38016.00
799.9260, 41879.00
801.0670, 44969.00
802.2080, 49240.00
803.3490, 54625.00
804.4900, 61436.00
805.6310, 68868.00
806.7710, 77312.00
807.9110, 86966.00
809.0510, 96474.00
810.1910, 106048.0
811.3310, 114591.0
812.4710, 120570.0
813.6100, 124221.4
814.7490, 126503.0
815.8880, 125168.0
817.0270, 121990.0
818.1660, 116624.0
819.3050, 111055.0
820.4430, 106344.0
821.5820, 100312.0
822.7200, 96241.00
823.8580, 92786.00
824.9950, 90293.00
826.1330, 88836.00
827.2710, 87727.00
828.4080, 87761.00
829.5450, 87824.00
830.6820, 89376.00
831.8190, 89925.00
832.9560, 92173.00
834.0920, 93606.00
835.2280, 95859.00
836.3650, 97679.00
837.5010, 98961.00
838.6360, 100491.0
839.7720, 100222.0
840.9080, 99950.00
842.0430, 98738.00
843.1780, 96818.00
844.3130, 94240.00
845.4480, 90881.00
846.5830, 87243.00
847.7170, 83265.00
848.8520, 79083.00
849.9860, 75005.00
851.1200, 70875.00
852.2540, 66779.00
853.3870, 62943.00
854.5210, 59707.00
855.6540, 56606.00
856.7880, 53650.38
857.9210, 51113.00
859.0540, 48526.00
860.1860, 46636.00
861.3190, 44602.00
862.4510, 42828.00
863.5840, 41157.00
864.7160, 39572.00
865.8480, 38241.00
866.9790, 36738.00
868.1110, 35555.00
869.2420, 34297.00
870.3740, 33451.00
871.5050, 32591.00
872.6360, 31907.00
873.7660, 31272.00
874.8970, 30579.00
876.0280, 30041.00
877.1580, 29526.00
878.2880, 29193.00
879.4180, 28509.00
880.5480, 28017.00
881.6770, 27856.00
882.8070, 27673.00
883.9360, 27495.00
885.0650, 27309.00
886.1940, 26986.00
887.3230, 26967.00
888.4520, 26721.00
889.5800, 26641.00
890.7090, 26413.00
891.8370, 26309.00
892.9650, 26500.00
894.0930, 26297.00
895.2200, 26450.00
896.3480, 26250.00
897.4750, 26246.00
898.6020, 26177.00
899.7290, 26217.00
900.8560, 26163.00
901.9830, 26155.96
903.1090, 26069.00
904.2360, 26176.00
905.3620, 26249.00
906.4880, 26358.00
907.6140, 26306.00
908.7400, 26566.00
909.8650, 26455.00
910.9900, 26582.00
912.1160, 26758.00
913.2410, 26960.00
914.3660, 26952.00
915.4900, 27368.00
916.6150, 27239.00
917.7390, 27431.00
918.8640, 27505.00
919.9880, 27571.00
921.1120, 27479.00
922.2350, 27558.00
923.3590, 27315.00
924.4820, 27253.00
925.6060, 27292.00
926.7290, 26898.00
927.8520, 26859.00
928.9740, 26435.00
930.0970, 25904.00
931.2190, 26204.00
932.3420, 25586.00
933.4640, 25374.00
934.5860, 24692.00
935.7080, 24365.00
936.8290, 24192.00
937.9510, 23959.00
939.0720, 23376.00
940.1930, 23132.00
941.3140, 22802.00
942.4350, 22445.00
943.5560, 22212.00
944.6760, 22124.00
945.7960, 21779.00
946.9170, 21697.00
948.0370, 21443.00
949.1560, 21341.00
950.2760, 21120.00
951.3960, 21234.00
952.5150, 21132.00
953.6340, 20946.00
954.7530, 20779.00
955.8720, 20723.00
956.9910, 20641.00
958.1090, 20542.00
959.2280, 20360.00
960.3460, 20370.00
961.4640, 20340.00
962.5820, 20265.00
963.6990, 20293.00
964.8170, 19867.00
965.9340, 20044.00
967.0510, 19880.00
968.1690, 19973.00
969.2850, 19830.00
970.4020, 19727.00
971.5190, 19581.00
972.6350, 19554.00
973.7510, 19595.00
974.8670, 19486.00
975.9830, 19472.00
977.0990, 19364.00
978.2150, 19451.00
979.3300, 19551.00
980.4450, 19623.00
981.5600, 19527.00
982.6750, 19483.00
983.7900, 19245.00
984.9050, 19270.00
986.0190, 19401.00
987.1340, 19215.93
988.2480, 19238.72
989.3620, 19147.00
990.4750, 19051.00
991.5890, 19231.00
992.7020, 19067.00
993.8160, 18983.00
994.9290, 19065.00
996.0420, 19028.00
997.1550, 18952.00
998.2670, 18859.00
999.3800, 18910.00
1000.492, 18873.34
1001.604, 18905.00
1002.716, 18900.00
1003.828, 18860.00
1004.940, 18848.00
1006.051, 18771.00
1007.163, 18829.00
1008.274, 18644.00
1009.385, 18802.00
1010.496, 18769.00
1011.606, 18723.01
1012.717, 18515.00
1013.827, 18686.00
1014.937, 18589.00
1016.047, 18606.00
1017.157, 18658.00
1018.267, 18661.00
1019.377, 18505.00
1020.486, 18519.00
1021.595, 18430.00
1022.704, 18465.00
1023.813, 18469.33
1024.922, 18636.00
1026.030, 18480.00
1027.139, 18607.00
1028.247, 18524.89
1029.355, 18571.00
1030.463, 18558.00
1031.571, 18506.00
1032.678, 18611.00
1033.786, 18540.00
1034.893, 18567.00
1036.000, 18499.00
1037.107, 18502.00
1038.214, 18588.00
1039.321, 18409.00
1040.427, 18552.00
1041.533, 18737.00
1042.639, 18342.00
1043.745, 18643.00
1044.851, 18696.00
1045.957, 18781.00
1047.062, 18606.00
1048.168, 18533.00
1049.273, 18698.00
1050.378, 18705.00
1051.482, 18584.00
1052.587, 18604.00
1053.692, 18778.00
1054.796, 18671.00
1055.900, 18721.00
1057.004, 18911.00
1058.108, 18873.00
1059.212, 18699.00
1060.315, 18998.00
1061.418, 18761.00
1062.522, 18972.00
1063.625, 18971.00
1064.728, 19016.00
1065.830, 18752.00
1066.933, 18925.00
1068.035, 18954.00
1069.137, 19045.00
1070.239, 19053.00
1071.341, 19018.00
1072.443, 19450.00
1073.545, 19310.16
1074.646, 18781.00
1075.747, 19258.00
1076.848, 19166.00
1077.949, 18997.00
1079.050, 19281.00
1080.150, 19032.00
1081.251, 19189.00
1082.351, 19292.00
1083.451, 19463.00
1084.551, 19454.00
1085.651, 19314.00
1086.750, 19300.00
1087.850, 19257.00
1088.949, 19290.00
1090.048, 19376.00
1091.147, 19506.00
1092.246, 19531.00
1093.345, 19621.52
1094.443, 19604.70
1095.541, 19699.00
1096.639, 19583.00
1097.737, 19510.00
1098.835, 19590.00
1099.933, 19531.00
1101.030, 19655.00
1102.128, 19619.96
1103.225, 19635.04
1104.322, 19623.00
1105.419, 19613.86
1106.515, 19621.00
1107.612, 19606.88
1108.708, 19611.00
1109.804, 19617.00
1110.900, 19703.00
1111.996, 19671.00
1113.092, 19650.00
1114.187, 19797.00
1115.283, 19684.00
1116.378, 19791.00
1117.473, 19805.00
1118.568, 19649.00
1119.662, 19682.00
1120.757, 19951.00
1121.851, 19832.00
1122.946, 19813.00
1124.040, 19938.00
1125.134, 19773.00
1126.227, 20054.00
1127.321, 20189.00
1128.414, 20189.00
1129.508, 20199.00
1130.601, 20265.00
1131.693, 20124.00
1132.786, 20155.00
1133.879, 20078.00
1134.971, 20149.00
1136.064, 20188.00
1137.156, 20232.00
1138.248, 20234.06
1139.339, 20160.00
1140.431, 20214.00
1141.522, 20180.00
1142.614, 20174.00
1143.705, 20023.00
1144.796, 20034.39
1145.887, 20208.00
1146.977, 19986.00
1148.068, 20053.00
1149.158, 20065.00
1150.248, 20323.00
1151.338, 20218.00
1152.428, 20231.49
1153.518, 20058.00
1154.607, 20090.00
1155.696, 20126.00
1156.785, 20060.00
1157.874, 19966.00
1158.963, 19905.00
1160.052, 19881.00
1161.141, 19940.00
1162.229, 19888.35
1163.317, 19916.00
1164.405, 19843.00
1165.493, 19866.00
1166.581, 19801.00
1167.668, 19673.00
1168.756, 19874.00
1169.843, 19949.00
1170.930, 20029.00
1172.017, 19671.00
1173.103, 19727.00
1174.190, 19735.00
1175.276, 19812.00
1176.363, 19707.00
1177.449, 19654.00
1178.535, 19760.00
1179.620, 19767.00
1180.706, 19783.00
1181.791, 19601.00
1182.877, 19693.00
1183.962, 19728.00
1185.047, 19724.00
1186.131, 19880.00
1187.216, 19744.00
1188.300, 19751.00
1189.385, 19623.00
1190.469, 19537.00
1191.553, 19599.00
1192.637, 19605.00
1193.720, 19585.00
1194.804, 19448.00
1195.887, 19648.00
1196.970, 19678.00
1198.053, 19560.00
1199.136, 19695.00
1200.219, 19452.00
1201.301, 19563.00
1202.383, 19576.00
1203.465, 19577.00
1204.547, 19525.00
1205.629, 19645.00
1206.711, 19698.00
1207.792, 19709.00
1208.874, 19572.00
1209.955, 19716.00
1211.036, 19600.00
1212.117, 19530.00
1213.198, 19744.00
1214.278, 19673.00
1215.359, 19691.00
1216.439, 19671.00
1217.519, 19612.06
1218.599, 19750.00
1219.678, 19531.00
1220.758, 19559.00
1221.837, 19579.00
1222.917, 19723.00
1223.996, 19712.00
1225.075, 19673.00
1226.153, 19847.00
1227.232, 19836.00
1228.310, 19786.00
1229.389, 19659.00
1230.467, 19857.00
1231.545, 19638.02
1232.622, 19889.69
1233.700, 20035.43
1234.777, 20080.93
1235.855, 19725.97
1236.932, 19888.12
1238.009, 19843.03
1239.086, 19789.45
1240.162, 20024.37
1241.239, 19991.00
1242.315, 19921.00
1243.391, 20002.00
1244.467, 19974.00
1245.543, 20017.00
1246.619, 20037.00
1247.694, 20026.00
1248.769, 20187.00
1249.844, 20192.00
1250.919, 20101.00
1251.994, 20061.00
1253.069, 20197.00
1254.144, 19987.00
1255.218, 20199.00
1256.292, 20126.00
1257.366, 20215.00
1258.440, 20262.73
1259.514, 20239.15
1260.587, 20309.00
1261.661, 20225.00
1262.734, 20218.00
1263.807, 20176.00
1264.880, 20165.00
1265.952, 20271.00
1267.025, 20440.00
1268.097, 20446.00
1269.170, 20384.00
1270.242, 20200.00
1271.314, 20249.00
1272.385, 20385.00
1273.457, 20442.00
1274.528, 20464.00
1275.600, 20530.00
1276.671, 20506.00
1277.742, 20561.00
1278.812, 20608.00
1279.883, 20627.29
1280.954, 20610.00
1282.024, 20684.00
1283.094, 20824.00
1284.164, 20819.00
1285.234, 20714.00
1286.303, 20526.00
1287.373, 20572.00
1288.442, 20690.00
1289.511, 20740.00
1290.580, 20779.00
1291.649, 20884.00
1292.718, 20855.00
1293.786, 20920.97
1294.855, 20893.00
1295.923, 20931.00
1296.991, 20974.00
1298.059, 20858.00
1299.126, 20983.00
1300.194, 20842.00
1301.261, 20814.00
1302.328, 20876.47
1303.395, 20990.00
1304.462, 20943.00
1305.529, 21085.00
1306.596, 21092.00
1307.662, 21075.00
1308.728, 21188.00
1309.794, 21154.00
1310.860, 21216.00
1311.926, 21086.00
1312.991, 21127.00
1314.057, 21196.00
1315.122, 21133.00
1316.187, 21306.00
1317.252, 21360.00
1318.317, 21329.00
1319.381, 21307.00
1320.446, 21081.00
1321.510, 21414.00
1322.574, 21182.00
1323.638, 21288.00
1324.702, 21294.98
1325.766, 21341.00
1326.829, 21286.00
1327.892, 21311.00
1328.956, 21403.00
1330.019, 21199.00
1331.081, 21286.00
1332.144, 21359.00
1333.206, 21488.00
1334.269, 21360.00
1335.331, 21392.00
1336.393, 21488.00
1337.455, 21428.00
1338.516, 21523.00
1339.578, 21320.00
1340.639, 21451.00
1341.701, 21391.00
1342.762, 21590.00
1343.822, 21591.00
1344.883, 21512.00
1345.944, 21578.00
1347.004, 21615.00
1348.064, 21662.00
1349.124, 21616.00
1350.184, 21507.00
1351.244, 21570.00
1352.304, 21572.00
1353.363, 21687.00
1354.422, 21727.00
1355.481, 21851.00
1356.540, 21623.00
1357.599, 21721.00
1358.657, 21623.00
1359.716, 21678.00
1360.774, 21749.00
1361.832, 21725.00
1362.890, 21709.00
1363.948, 21850.00
1365.006, 21734.00
1366.063, 21952.00
1367.120, 21797.00
1368.178, 21638.00
1369.234, 21812.00
1370.291, 21666.00
1371.348, 21819.00
1372.404, 21728.00
1373.461, 21921.00
1374.517, 22011.00
1375.573, 21906.00
1376.629, 21826.00
1377.684, 21790.00
1378.740, 21983.00
1379.795, 22087.00
1380.850, 21883.00
1381.905, 22049.00
1382.960, 21907.00
1384.015, 22121.00
1385.070, 22070.00
1386.124, 21978.00
1387.178, 22036.00
1388.232, 21982.00
1389.286, 22085.00
1390.340, 22331.00
1391.393, 22059.00
1392.447, 22231.00
1393.500, 22131.00
1394.553, 22141.00
1395.606, 22221.00
1396.659, 22324.00
1397.711, 22099.00
1398.764, 22356.00
1399.816, 22340.00
1400.868, 22508.66
1401.920, 22430.97
1402.972, 22420.34
1404.023, 22256.00
1405.075, 22397.00
1406.126, 22419.00
1407.177, 22634.00
1408.228, 22490.44
1409.279, 22362.00
1410.330, 22245.00
1411.380, 22441.00
1412.431, 22389.00
1413.481, 22478.00
1414.531, 22381.00
1415.580, 22435.00
1416.630, 22516.00
1417.680, 22457.00
1418.729, 22560.00
1419.778, 22583.00
1420.827, 22494.00
1421.876, 22709.00
1422.925, 22471.00
1423.973, 22860.00
1425.022, 22725.00
1426.070, 22540.00
1427.118, 22887.00
1428.166, 22646.00
1429.214, 22563.00
1430.261, 22702.00
1431.309, 22506.00
1432.356, 22685.00
1433.403, 22965.00
1434.450, 22636.00
1435.497, 22639.00
1436.543, 22657.00
1437.590, 22803.00
1438.636, 22589.00
1439.682, 22861.00
1440.728, 22636.00
1441.774, 22745.00
1442.819, 22744.00
1443.865, 22729.00
1444.910, 22692.00
1445.955, 22692.00
1447.000, 22824.00
1448.045, 22866.00
1449.090, 22847.00
1450.134, 22911.00
1451.178, 22939.00
1452.223, 22822.00
1453.267, 22913.00
1454.310, 23027.00
1455.354, 22926.00
1456.398, 22763.00
1457.441, 22943.00
1458.484, 22913.00
1459.527, 22987.00
1460.570, 22884.00
1461.613, 22923.00
1462.655, 22872.00
1463.698, 22755.00
1464.740, 23142.00
1465.782, 22977.00
1466.824, 23237.00
1467.866, 22760.00
1468.907, 23190.00
1469.948, 23040.00
1470.990, 23200.00
1472.031, 23219.00
1473.072, 23110.00
1474.112, 23087.00
1475.153, 22919.00
1476.194, 23080.00
1477.234, 23124.00
1478.274, 22967.00
1479.314, 22846.00
1480.354, 23084.00
1481.393, 23075.00
1482.433, 23101.00
1483.472, 23159.00
1484.511, 23170.00
1485.550, 23012.00
1486.589, 23086.00
1487.628, 23019.00
1488.666, 23022.00
1489.704, 23035.00
1490.743, 22890.00
1491.781, 22986.00
1492.819, 23093.00
1493.856, 23148.00
1494.894, 23078.00
1495.931, 23124.00
1496.968, 23128.00
1498.005, 23013.00
1499.042, 22980.00
1500.079, 22987.00
1501.115, 23083.00
1502.152, 22955.00
1503.188, 22972.00
1504.224, 23080.00
1505.260, 23040.00
1506.296, 22875.00
1507.331, 22911.00
1508.367, 22785.00
1509.402, 23062.00
1510.437, 23078.00
1511.472, 22894.00
1512.507, 23006.00
1513.541, 22908.00
1514.576, 22967.46
1515.610, 23144.00
1516.644, 23117.00
1517.678, 23190.00
1518.712, 23269.00
1519.746, 23179.00
1520.779, 23252.00
1521.813, 23095.00
1522.846, 23215.00
1523.879, 23021.00
1524.912, 23343.00
1525.944, 23473.00
1526.977, 23151.00
1528.009, 23491.00
1529.041, 23319.00
1530.073, 23389.00
1531.105, 23154.00
1532.137, 23422.00
1533.168, 23318.00
1534.200, 23288.00
1535.231, 23422.00
1536.262, 23448.00
1537.293, 23494.35
1538.324, 23301.00
1539.354, 23497.00
1540.385, 23417.00
1541.415, 23199.00
1542.445, 23417.00
1543.475, 23233.00
1544.505, 23266.00
1545.534, 23306.00
1546.564, 23220.00
1547.593, 23283.75
1548.622, 23319.00
1549.651, 23341.00
1550.680, 23328.00
1551.708, 23380.00
1552.737, 23405.00
1553.765, 23450.00
1554.793, 23413.84
1555.821, 23381.00
1556.849, 23318.00
1557.877, 23241.00
1558.904, 23180.00
1559.932, 23375.00
1560.959, 23062.00
1561.986, 23242.00
1563.013, 22993.00
1564.039, 23212.00
1565.066, 23340.00
1566.092, 23324.00
1567.119, 23119.00
1568.145, 23326.00
1569.170, 23213.00
1570.196, 22966.00
1571.222, 23135.00
1572.247, 22893.00
1573.272, 22926.00
1574.297, 23311.00
1575.322, 23272.00
1576.347, 23205.00
1577.372, 23039.00
##END=



