##NAMES=Fayalite
##RRUFFID=R070157
##IDEAL CHEMISTRY=Fe^2+^_2_SiO_4_
##LOCALITY=Coso Hot Springs, Inyo County, California, USA
##OWNER=RRUFF
##SOURCE=James Shigley
##DESCRIPTION=Brown transparent tabular crystals associated with fine grained quartz
##STATUS=The identification of this mineral is confirmed by single-crystal X-ray diffraction and chemical analysis.
##URL=rruff.info/R070157
##MEASURED CHEMISTRY=(Fe^2+^_1.88_Mn_0.11_Zn_0.01_)_Î£=2_Si_1.00_O_4_ ; trace amounts of Mg
##PIN_ID=M01877
##ORIENTATION=Laser parallel to c* (0 0 1). Fiducial mark perpendicular to laser is parallel to a [1 0 0]
96.86900, 12765.00
98.10600, 13004.00
99.34400, 12991.00
100.5810, 12858.00
101.8190, 12980.00
103.0560, 13015.00
104.2930, 13343.00
105.5290, 14153.00
106.7660, 14924.00
108.0020, 14955.00
109.2390, 14170.00
110.4750, 13876.00
111.7110, 13939.00
112.9460, 14012.00
114.1820, 14541.00
115.4170, 15023.00
116.6530, 15407.00
117.8880, 15707.00
119.1230, 15615.00
120.3580, 15669.19
121.5920, 15199.00
122.8270, 15194.00
124.0610, 14971.00
125.2950, 14352.00
126.5290, 13867.00
127.7630, 13891.00
128.9970, 13660.00
130.2300, 13588.00
131.4640, 13856.00
132.6970, 13664.84
133.9300, 13697.00
135.1630, 13774.00
136.3950, 14081.00
137.6280, 14515.00
138.8600, 14873.00
140.0920, 15418.00
141.3240, 16264.00
142.5560, 17387.00
143.7880, 18797.00
145.0190, 20665.00
146.2510, 22796.00
147.4820, 25749.00
148.7130, 29832.00
149.9440, 34585.00
151.1750, 39828.00
152.4050, 43931.00
153.6360, 46420.00
154.8660, 46700.00
156.0960, 44419.00
157.3260, 38984.00
158.5560, 34114.00
159.7850, 28856.00
161.0150, 24150.00
162.2440, 20503.00
163.4730, 18118.00
164.7020, 16681.00
165.9310, 15316.00
167.1590, 14545.00
168.3880, 14260.00
169.6160, 14011.00
170.8440, 14077.00
172.0720, 13843.00
173.3000, 13565.00
174.5280, 13598.00
175.7550, 13074.00
176.9820, 12983.00
178.2100, 13147.00
179.4370, 12872.88
180.6630, 13033.00
181.8900, 12867.00
183.1170, 13064.00
184.3430, 13321.00
185.5690, 13652.00
186.7950, 14214.20
188.0210, 14909.00
189.2470, 15609.00
190.4720, 16494.00
191.6970, 17422.00
192.9230, 18170.00
194.1480, 18717.00
195.3730, 18463.00
196.5970, 18093.00
197.8220, 17324.00
199.0460, 16337.00
200.2700, 15386.00
201.4940, 14494.00
202.7180, 13666.00
203.9420, 13053.00
205.1660, 12437.00
206.3890, 12106.00
207.6120, 11933.00
208.8350, 11666.00
210.0580, 11824.00
211.2810, 11686.00
212.5040, 11620.00
213.7260, 11504.00
214.9480, 11453.00
216.1700, 11543.00
217.3920, 11590.00
218.6140, 11639.00
219.8360, 11495.00
221.0570, 11702.00
222.2790, 11652.00
223.5000, 11641.00
224.7210, 11763.00
225.9410, 11736.00
227.1620, 11843.00
228.3820, 11861.00
229.6030, 12082.00
230.8230, 12176.00
232.0430, 12153.00
233.2630, 12352.00
234.4820, 12632.00
235.7020, 12504.00
236.9210, 12727.00
238.1400, 12743.00
239.3590, 12826.00
240.5780, 12762.00
241.7970, 12720.00
243.0150, 12681.00
244.2340, 12649.00
245.4520, 12618.00
246.6700, 12406.00
247.8880, 12303.00
249.1060, 12318.00
250.3230, 12379.00
251.5400, 12370.00
252.7580, 12352.00
253.9750, 12527.00
255.1920, 12459.00
256.4080, 12745.00
257.6250, 12864.00
258.8410, 13111.00
260.0580, 12787.00
261.2740, 12869.00
262.4900, 12982.00
263.7050, 13172.00
264.9210, 13318.00
266.1360, 13509.00
267.3520, 13705.00
268.5670, 14038.00
269.7820, 14201.00
270.9960, 14569.00
272.2110, 14824.00
273.4250, 15152.00
274.6400, 15560.00
275.8540, 16243.00
277.0680, 16747.00
278.2810, 17414.00
279.4950, 18300.00
280.7090, 18951.00
281.9220, 19777.00
283.1350, 20597.00
284.3480, 21725.00
285.5610, 22655.00
286.7730, 23349.00
287.9860, 24081.00
289.1980, 24551.00
290.4100, 24847.00
291.6220, 24728.00
292.8340, 24545.00
294.0460, 24064.00
295.2570, 23565.00
296.4690, 23024.00
297.6800, 22571.00
298.8910, 22084.00
300.1020, 21638.00
301.3120, 21588.00
302.5230, 21579.00
303.7330, 21625.00
304.9440, 21950.00
306.1540, 22829.00
307.3630, 22698.95
308.5730, 22698.00
309.7830, 22892.00
310.9920, 22786.00
312.2010, 22805.00
313.4100, 22287.00
314.6190, 22006.00
315.8280, 21013.00
317.0370, 20529.00
318.2450, 19815.00
319.4530, 18931.00
320.6610, 18067.00
321.8690, 17711.00
323.0770, 17027.00
324.2850, 16385.00
325.4920, 16084.00
326.6990, 15633.00
327.9060, 15389.00
329.1130, 15124.00
330.3200, 14844.00
331.5270, 14567.00
332.7330, 14439.93
333.9390, 14258.00
335.1450, 14251.00
336.3510, 14283.00
337.5570, 14274.00
338.7630, 14275.00
339.9680, 14377.00
341.1740, 14435.00
342.3790, 14542.00
343.5840, 14754.00
344.7890, 14796.00
345.9930, 14963.00
347.1980, 15102.00
348.4020, 15437.00
349.6060, 15702.00
350.8100, 16127.00
352.0140, 16465.00
353.2180, 16809.00
354.4210, 17279.82
355.6250, 17720.00
356.8280, 18285.00
358.0310, 18778.00
359.2340, 19462.00
360.4360, 20158.00
361.6390, 20969.00
362.8410, 21740.00
364.0430, 22624.00
365.2450, 23279.00
366.4470, 24325.00
367.6490, 25112.00
368.8510, 25850.00
370.0520, 26467.00
371.2530, 27131.00
372.4540, 27704.00
373.6550, 28188.00
374.8560, 28797.00
376.0560, 28866.00
377.2570, 29259.00
378.4570, 29148.00
379.6570, 29419.00
380.8570, 29260.00
382.0570, 29354.00
383.2560, 28935.00
384.4560, 28336.00
385.6550, 27864.00
386.8540, 27236.00
388.0530, 26555.00
389.2520, 25723.00
390.4510, 24935.00
391.6490, 23932.00
392.8470, 22981.00
394.0450, 22323.00
395.2430, 21172.00
396.4410, 20648.00
397.6390, 19774.00
398.8360, 19081.00
400.0340, 18338.00
401.2310, 17676.00
402.4280, 17204.00
403.6250, 16759.00
404.8210, 16095.00
406.0180, 15748.00
407.2140, 15329.00
408.4100, 15143.00
409.6060, 14836.00
410.8020, 14585.00
411.9980, 14016.00
413.1930, 14038.00
414.3890, 13716.00
415.5840, 13641.00
416.7790, 13478.00
417.9740, 13348.00
419.1680, 13081.00
420.3630, 13043.00
421.5570, 12786.00
422.7510, 12873.00
423.9450, 12628.00
425.1390, 12664.00
426.3330, 12485.00
427.5270, 12543.00
428.7200, 12293.00
429.9130, 12377.00
431.1060, 12201.00
432.2990, 12201.00
433.4920, 12222.00
434.6840, 12037.00
435.8770, 12278.00
437.0690, 12036.00
438.2610, 12127.00
439.4530, 11991.00
440.6450, 12052.00
441.8360, 12164.00
443.0280, 12021.00
444.2190, 11875.00
445.4100, 12126.00
446.6010, 11928.00
447.7920, 11822.00
448.9820, 11746.00
450.1730, 11854.00
451.3630, 11776.00
452.5530, 11818.00
453.7430, 11903.00
454.9330, 11862.00
456.1230, 11745.00
457.3120, 11834.00
458.5010, 11773.00
459.6910, 11793.00
460.8800, 11840.00
462.0680, 11771.00
463.2570, 11871.00
464.4460, 11742.00
465.6340, 11736.00
466.8220, 11807.00
468.0100, 11766.00
469.1980, 11753.00
470.3860, 11848.00
471.5730, 11839.00
472.7600, 11844.00
473.9480, 11871.69
475.1350, 11827.00
476.3210, 11849.00
477.5080, 11972.00
478.6950, 11910.00
479.8810, 11769.00
481.0670, 11910.00
482.2530, 12028.00
483.4390, 11886.00
484.6250, 12154.00
485.8100, 12132.00
486.9960, 12143.00
488.1810, 12245.00
489.3660, 12305.00
490.5510, 12340.00
491.7360, 12544.00
492.9200, 12513.00
494.1050, 12897.00
495.2890, 12921.00
496.4730, 13305.00
497.6570, 13438.00
498.8400, 13743.00
500.0240, 14151.00
501.2070, 14282.00
502.3910, 14677.00
503.5740, 15063.00
504.7570, 15243.00
505.9400, 15475.00
507.1220, 15316.00
508.3050, 15392.00
509.4870, 15113.00
510.6690, 14897.00
511.8510, 14689.00
513.0330, 14465.14
514.2140, 14257.00
515.3960, 14033.00
516.5770, 13928.00
517.7580, 13655.00
518.9390, 13350.00
520.1200, 13300.00
521.3010, 13344.00
522.4810, 13321.00
523.6610, 13025.00
524.8420, 12932.00
526.0220, 12983.00
527.2010, 12856.00
528.3810, 13013.00
529.5610, 13018.00
530.7400, 12965.00
531.9190, 13005.00
533.0980, 13036.00
534.2770, 12962.00
535.4560, 13124.00
536.6340, 13195.00
537.8120, 13333.00
538.9910, 13293.00
540.1690, 13470.00
541.3460, 13383.00
542.5240, 13543.00
543.7020, 13622.00
544.8790, 13824.00
546.0560, 13875.00
547.2330, 14016.00
548.4100, 14052.00
549.5870, 14275.00
550.7630, 14449.18
551.9400, 14631.88
553.1160, 14930.00
554.2920, 15065.00
555.4680, 15360.00
556.6440, 15560.00
557.8190, 15743.00
558.9950, 15952.00
560.1700, 16157.00
561.3450, 16382.00
562.5200, 16588.00
563.6950, 16536.00
564.8690, 16696.00
566.0440, 16868.00
567.2180, 16737.00
568.3920, 16581.00
569.5660, 16420.00
570.7400, 16359.00
571.9130, 16244.00
573.0870, 16057.00
574.2600, 15749.00
575.4330, 15563.00
576.6060, 15547.00
577.7790, 15125.00
578.9520, 15053.00
580.1240, 15083.00
581.2960, 14750.00
582.4690, 14567.00
583.6410, 14373.00
584.8120, 14155.00
585.9840, 14065.00
587.1560, 13783.00
588.3270, 13733.00
589.4980, 13459.00
590.6690, 13470.00
591.8400, 13242.00
593.0110, 13087.00
594.1810, 13032.00
595.3510, 12963.00
596.5220, 12901.00
597.6920, 12781.00
598.8610, 12722.00
600.0310, 12556.00
601.2010, 12400.00
602.3700, 12362.00
603.5390, 12224.00
604.7080, 12171.00
605.8770, 12226.00
607.0460, 12099.00
608.2140, 12033.00
609.3830, 11847.00
610.5510, 11793.00
611.7190, 11689.00
612.8870, 11833.00
614.0550, 11765.00
615.2220, 11712.00
616.3900, 11641.00
617.5570, 11564.00
618.7240, 11590.00
619.8910, 11554.00
621.0580, 11353.00
622.2240, 11539.00
623.3910, 11409.00
624.5570, 11295.00
625.7230, 11392.00
626.8890, 11366.00
628.0550, 11369.00
629.2200, 11532.00
630.3860, 11479.00
631.5510, 11551.00
632.7160, 11552.00
633.8810, 11486.00
635.0460, 11552.00
636.2100, 11495.00
637.3750, 11586.00
638.5390, 11660.00
639.7030, 11656.00
640.8670, 11516.00
642.0310, 11571.00
643.1950, 11581.00
644.3580, 11420.00
645.5210, 11492.00
646.6850, 11472.85
647.8480, 11483.00
649.0100, 11516.00
650.1730, 11557.00
651.3350, 11552.00
652.4980, 11567.00
653.6600, 11611.00
654.8220, 11541.00
655.9840, 11624.00
657.1450, 11540.00
658.3070, 11621.00
659.4680, 11659.00
660.6300, 11666.00
661.7910, 11459.00
662.9510, 11612.00
664.1120, 11684.00
665.2730, 11596.00
666.4330, 11800.00
667.5930, 11978.00
668.7530, 11550.00
669.9130, 11793.00
671.0730, 11863.00
672.2320, 11797.00
673.3920, 11944.00
674.5510, 11950.00
675.7100, 11930.00
676.8690, 12120.00
678.0280, 12134.00
679.1860, 12181.00
680.3450, 12104.00
681.5030, 12396.00
682.6610, 12381.00
683.8190, 12519.00
684.9770, 12331.00
686.1340, 12330.00
687.2920, 12389.00
688.4490, 12366.00
689.6060, 12562.00
690.7630, 12467.00
691.9200, 12492.00
693.0760, 12424.00
694.2330, 12426.00
695.3890, 12450.00
696.5450, 12470.00
697.7010, 12513.00
698.8570, 12420.00
700.0130, 12408.00
701.1680, 12548.00
702.3230, 12417.00
703.4780, 12575.00
704.6330, 12538.00
705.7880, 12587.00
706.9430, 12649.00
708.0970, 12736.00
709.2520, 12757.00
710.4060, 12853.00
711.5600, 12907.00
712.7140, 12949.00
713.8670, 13061.00
715.0210, 13129.00
716.1740, 13155.00
717.3270, 13205.00
718.4800, 13144.00
719.6330, 13318.00
720.7860, 13224.00
721.9380, 13546.00
723.0910, 13432.00
724.2430, 13513.00
725.3950, 13637.00
726.5470, 13656.00
727.6980, 13651.00
728.8500, 13642.00
730.0010, 13786.00
731.1530, 13802.00
732.3040, 14006.00
733.4550, 13973.00
734.6050, 13987.00
735.7560, 14196.00
736.9060, 14132.00
738.0560, 14489.00
739.2060, 14513.00
740.3560, 14577.00
741.5060, 14835.00
742.6560, 14827.00
743.8050, 15021.00
744.9540, 15059.00
746.1030, 14905.00
747.2520, 14986.00
748.4010, 14739.00
749.5500, 14651.00
750.6980, 14754.00
751.8460, 14786.00
752.9950, 14790.00
754.1420, 14725.00
755.2900, 14720.00
756.4380, 14670.00
757.5850, 14726.00
758.7330, 14706.00
759.8800, 14770.54
761.0270, 14826.83
762.1730, 14950.00
763.3200, 15034.00
764.4670, 15197.00
765.6130, 15444.00
766.7590, 15526.00
767.9050, 15699.00
769.0510, 15723.00
770.1960, 15786.00
771.3420, 15885.00
772.4870, 16026.43
773.6320, 16198.00
774.7770, 16408.00
775.9220, 16658.00
777.0670, 16911.00
778.2110, 17237.00
779.3560, 17424.00
780.5000, 17801.00
781.6440, 18043.00
782.7880, 18643.00
783.9320, 19117.00
785.0750, 19736.00
786.2180, 20271.00
787.3620, 20663.00
788.5050, 21732.00
789.6480, 22419.00
790.7900, 23444.00
791.9330, 24452.00
793.0750, 25858.00
794.2170, 26781.00
795.3590, 28717.00
796.5010, 30592.00
797.6430, 32728.00
798.7850, 35359.00
799.9260, 38600.00
801.0670, 42424.00
802.2080, 47167.00
803.3490, 52930.00
804.4900, 59633.00
805.6310, 66954.00
806.7710, 76063.00
807.9110, 85792.00
809.0510, 95587.00
810.1910, 105409.0
811.3310, 114001.0
812.4710, 120164.0
813.6100, 123941.0
814.7490, 124068.0
815.8880, 123135.0
817.0270, 119183.0
818.1660, 113505.0
819.3050, 107932.0
820.4430, 101827.0
821.5820, 95987.00
822.7200, 91171.00
823.8580, 86495.00
824.9950, 83052.00
826.1330, 80302.00
827.2710, 78282.00
828.4080, 76408.00
829.5450, 75467.00
830.6820, 74859.00
831.8190, 74217.00
832.9560, 73993.00
834.0920, 74067.00
835.2280, 74393.00
836.3650, 74741.00
837.5010, 73970.00
838.6360, 73516.00
839.7720, 72379.00
840.9080, 71169.00
842.0430, 69468.00
843.1780, 67173.00
844.3130, 64453.00
845.4480, 61295.00
846.5830, 57927.00
847.7170, 54432.00
848.8520, 51677.00
849.9860, 48187.00
851.1200, 44661.00
852.2540, 41891.00
853.3870, 39546.00
854.5210, 36912.00
855.6540, 34622.00
856.7880, 32699.00
857.9210, 31090.00
859.0540, 29226.00
860.1860, 27817.00
861.3190, 26501.00
862.4510, 25415.00
863.5840, 24248.00
864.7160, 23468.00
865.8480, 22684.00
866.9790, 21933.00
868.1110, 21447.00
869.2420, 20838.00
870.3740, 20356.00
871.5050, 19878.00
872.6360, 19485.64
873.7660, 19273.00
874.8970, 18898.00
876.0280, 18763.00
877.1580, 18672.00
878.2880, 18414.00
879.4180, 18284.00
880.5480, 18051.00
881.6770, 17783.00
882.8070, 17696.00
883.9360, 17635.00
885.0650, 17670.00
886.1940, 17494.00
887.3230, 17405.00
888.4520, 17472.00
889.5800, 17406.00
890.7090, 17256.00
891.8370, 17288.00
892.9650, 17421.00
894.0930, 17362.00
895.2200, 17315.00
896.3480, 17203.00
897.4750, 17237.00
898.6020, 17220.00
899.7290, 17155.00
900.8560, 17162.00
901.9830, 17074.00
903.1090, 17079.83
904.2360, 17210.00
905.3620, 17067.00
906.4880, 17067.00
907.6140, 17057.00
908.7400, 16957.00
909.8650, 17108.00
910.9900, 17023.00
912.1160, 16970.00
913.2410, 17067.00
914.3660, 17154.94
915.4900, 17287.17
916.6150, 17573.00
917.7390, 17653.00
918.8640, 18013.00
919.9880, 18209.00
921.1120, 18392.00
922.2350, 18467.00
923.3590, 18768.00
924.4820, 18983.00
925.6060, 19139.00
926.7290, 19299.00
927.8520, 19573.00
928.9740, 19697.00
930.0970, 19856.14
931.2190, 19912.00
932.3420, 20043.00
933.4640, 20002.00
934.5860, 19937.00
935.7080, 19983.00
936.8290, 20008.00
937.9510, 19949.00
939.0720, 19890.00
940.1930, 19760.00
941.3140, 19783.00
942.4350, 19718.00
943.5560, 19740.00
944.6760, 19739.00
945.7960, 19451.00
946.9170, 19384.00
948.0370, 19608.00
949.1560, 19310.00
950.2760, 19275.00
951.3960, 19230.19
952.5150, 19059.00
953.6340, 19017.00
954.7530, 19083.00
955.8720, 18916.00
956.9910, 19009.00
958.1090, 18901.00
959.2280, 18872.00
960.3460, 18872.00
961.4640, 18829.00
962.5820, 18826.00
963.6990, 18780.00
964.8170, 18765.00
965.9340, 18544.00
967.0510, 18508.00
968.1690, 18400.00
969.2850, 18464.00
970.4020, 18436.00
971.5190, 18458.00
972.6350, 18425.00
973.7510, 18330.00
974.8670, 18231.00
975.9830, 18208.96
977.0990, 18215.00
978.2150, 18150.00
979.3300, 18235.00
980.4450, 18239.00
981.5600, 18078.00
982.6750, 18103.00
983.7900, 18135.00
984.9050, 18100.00
986.0190, 18161.00
987.1340, 18116.00
988.2480, 17960.00
989.3620, 18021.00
990.4750, 17884.00
991.5890, 18015.00
992.7020, 17987.00
993.8160, 18098.00
994.9290, 17887.00
996.0420, 17827.00
997.1550, 17803.00
998.2670, 17756.00
999.3800, 17769.00
1000.492, 17785.00
1001.604, 17857.00
1002.716, 17677.00
1003.828, 17742.00
1004.940, 17708.62
1006.051, 17614.00
1007.163, 17714.00
1008.274, 17456.00
1009.385, 17484.00
1010.496, 17506.00
1011.606, 17386.00
1012.717, 17352.00
1013.827, 17383.00
1014.937, 17371.00
1016.047, 17286.00
1017.157, 17358.00
1018.267, 17437.00
1019.377, 17380.00
1020.486, 17271.00
1021.595, 17296.00
1022.704, 17263.00
1023.813, 17337.00
1024.922, 17222.00
1026.030, 17210.00
1027.139, 17261.00
1028.247, 17252.00
1029.355, 17160.00
1030.463, 17100.00
1031.571, 17226.00
1032.678, 17146.00
1033.786, 17199.00
1034.893, 17083.00
1036.000, 17285.00
1037.107, 17251.00
1038.214, 17284.00
1039.321, 17299.00
1040.427, 17230.17
1041.533, 17234.60
1042.639, 17134.00
1043.745, 17189.00
1044.851, 17228.00
1045.957, 17259.00
1047.062, 17203.00
1048.168, 17297.00
1049.273, 17353.00
1050.378, 17209.00
1051.482, 17267.00
1052.587, 17339.00
1053.692, 17305.00
1054.796, 17484.00
1055.900, 17268.00
1057.004, 17333.00
1058.108, 17411.00
1059.212, 17339.00
1060.315, 17341.00
1061.418, 17424.00
1062.522, 17339.00
1063.625, 17513.00
1064.728, 17322.00
1065.830, 17517.00
1066.933, 17475.00
1068.035, 17529.00
1069.137, 17616.00
1070.239, 17573.00
1071.341, 17697.00
1072.443, 17460.00
1073.545, 17471.00
1074.646, 17473.00
1075.747, 17693.00
1076.848, 17528.00
1077.949, 17571.00
1079.050, 17760.00
1080.150, 17620.00
1081.251, 17702.00
1082.351, 17806.00
1083.451, 17575.00
1084.551, 17605.00
1085.651, 17617.00
1086.750, 17631.00
1087.850, 17657.00
1088.949, 17680.00
1090.048, 17808.00
1091.147, 17705.00
1092.246, 17813.00
1093.345, 17841.00
1094.443, 17749.00
1095.541, 17767.00
1096.639, 17853.00
1097.737, 17902.00
1098.835, 17686.00
1099.933, 17660.00
1101.030, 17777.00
1102.128, 17762.00
1103.225, 17830.00
1104.322, 17926.00
1105.419, 17921.00
1106.515, 17944.00
1107.612, 17916.00
1108.708, 17956.00
1109.804, 18068.00
1110.900, 17928.00
1111.996, 18075.00
1113.092, 17990.00
1114.187, 18109.00
1115.283, 18027.00
1116.378, 18029.00
1117.473, 18142.00
1118.568, 18123.00
1119.662, 18179.00
1120.757, 18263.00
1121.851, 18303.00
1122.946, 18326.86
1124.040, 18467.00
1125.134, 18374.00
1126.227, 18399.00
1127.321, 18485.00
1128.414, 18398.00
1129.508, 18525.00
1130.601, 18492.00
1131.693, 18669.00
1132.786, 18701.00
1133.879, 18658.00
1134.971, 18623.00
1136.064, 18694.00
1137.156, 18714.00
1138.248, 18522.00
1139.339, 18538.00
1140.431, 18635.00
1141.522, 18787.00
1142.614, 18798.00
1143.705, 18707.00
1144.796, 18800.00
1145.887, 18678.00
1146.977, 18914.00
1148.068, 18709.00
1149.158, 18683.00
1150.248, 18766.00
1151.338, 18650.00
1152.428, 18728.00
1153.518, 18574.00
1154.607, 18582.00
1155.696, 18681.00
1156.785, 18602.00
1157.874, 18642.00
1158.963, 18702.00
1160.052, 18577.00
1161.141, 18677.00
1162.229, 18636.00
1163.317, 18782.00
1164.405, 18546.00
1165.493, 18484.00
1166.581, 18512.00
1167.668, 18556.00
1168.756, 18570.00
1169.843, 18547.00
1170.930, 18574.06
1172.017, 18414.00
1173.103, 18567.00
1174.190, 18527.00
1175.276, 18483.00
1176.363, 18633.00
1177.449, 18542.00
1178.535, 18485.00
1179.620, 18481.00
1180.706, 18473.00
1181.791, 18535.00
1182.877, 18493.00
1183.962, 18519.88
1185.047, 18664.00
1186.131, 18490.00
1187.216, 18547.00
1188.300, 18441.00
1189.385, 18411.00
1190.469, 18414.00
1191.553, 18458.00
1192.637, 18482.00
1193.720, 18508.00
1194.804, 18545.00
1195.887, 18550.84
1196.970, 18610.00
1198.053, 18529.00
1199.136, 18562.00
1200.219, 18472.00
1201.301, 18727.00
1202.383, 18530.00
1203.465, 18795.00
1204.547, 18784.00
1205.629, 18757.00
1206.711, 18786.29
1207.792, 18774.00
1208.874, 18688.00
1209.955, 18738.00
1211.036, 18760.00
1212.117, 18749.00
1213.198, 18892.00
1214.278, 18798.00
1215.359, 18743.00
1216.439, 18901.00
1217.519, 18861.00
1218.599, 19016.00
1219.678, 18662.00
1220.758, 18880.00
1221.837, 18774.00
1222.917, 18859.00
1223.996, 18963.00
1225.075, 18939.00
1226.153, 18928.00
1227.232, 18999.00
1228.310, 19059.00
1229.389, 19018.00
1230.467, 19151.00
1231.545, 19055.00
1232.622, 19179.00
1233.700, 19193.00
1234.777, 19134.00
1235.855, 19166.00
1236.932, 19267.00
1238.009, 19339.00
1239.086, 19315.00
1240.162, 19300.00
1241.239, 19130.00
1242.315, 19403.00
1243.391, 19474.00
1244.467, 19339.00
1245.543, 19454.00
1246.619, 19554.00
1247.694, 19341.00
1248.769, 19658.00
1249.844, 19380.00
1250.919, 19593.00
1251.994, 19659.00
1253.069, 19572.00
1254.144, 19700.00
1255.218, 19676.00
1256.292, 19744.00
1257.366, 19755.00
1258.440, 19725.07
1259.514, 19824.00
1260.587, 19662.00
1261.661, 19705.00
1262.734, 19685.00
1263.807, 19846.00
1264.880, 19925.00
1265.952, 19984.00
1267.025, 20090.00
1268.097, 20111.00
1269.170, 20126.00
1270.242, 20072.00
1271.314, 19974.00
1272.385, 20064.00
1273.457, 19924.00
1274.528, 20017.00
1275.600, 20010.00
1276.671, 20187.00
1277.742, 20284.00
1278.812, 20084.00
1279.883, 20322.00
1280.954, 20292.00
1282.024, 20454.00
1283.094, 20363.00
1284.164, 20282.00
1285.234, 20487.00
1286.303, 20421.28
1287.373, 20482.00
1288.442, 20493.00
1289.511, 20502.00
1290.580, 20494.00
1291.649, 20527.00
1292.718, 20762.00
1293.786, 20861.00
1294.855, 20840.00
1295.923, 20602.00
1296.991, 20653.00
1298.059, 20697.00
1299.126, 20760.00
1300.194, 20822.00
1301.261, 20936.00
1302.328, 20676.00
1303.395, 20891.00
1304.462, 20756.00
1305.529, 20919.00
1306.596, 20962.00
1307.662, 21070.00
1308.728, 21215.00
1309.794, 21207.00
1310.860, 21381.00
1311.926, 21168.00
1312.991, 21050.00
1314.057, 21210.00
1315.122, 21167.00
1316.187, 21244.00
1317.252, 21197.00
1318.317, 21525.00
1319.381, 21501.00
1320.446, 21344.00
1321.510, 21262.00
1322.574, 21559.00
1323.638, 21455.00
1324.702, 21539.00
1325.766, 21549.00
1326.829, 21522.00
1327.892, 21492.00
1328.956, 21447.00
1330.019, 21593.00
1331.081, 21544.00
1332.144, 21645.00
1333.206, 21758.00
1334.269, 21738.00
1335.331, 21780.00
1336.393, 21856.00
1337.455, 21700.00
1338.516, 21756.00
1339.578, 21740.00
1340.639, 21794.00
1341.701, 21939.00
1342.762, 21903.00
1343.822, 21671.00
1344.883, 22017.00
1345.944, 21893.00
1347.004, 21974.00
1348.064, 22193.00
1349.124, 22113.00
1350.184, 22214.00
1351.244, 22174.00
1352.304, 22146.00
1353.363, 22172.00
1354.422, 22073.00
1355.481, 22217.00
1356.540, 22308.00
1357.599, 22102.00
1358.657, 22499.00
1359.716, 22452.00
1360.774, 22243.00
1361.832, 22569.00
1362.890, 22599.00
1363.948, 22616.00
1365.006, 22647.00
1366.063, 22545.00
1367.120, 22419.00
1368.178, 22527.00
1369.234, 22712.00
1370.291, 22658.00
1371.348, 22806.00
1372.404, 22903.00
1373.461, 22582.00
1374.517, 22633.00
1375.573, 22784.00
1376.629, 22914.00
1377.684, 22845.29
1378.740, 22946.32
1379.795, 23028.62
1380.850, 23093.24
1381.905, 23087.23
1382.960, 23172.43
1384.015, 23221.08
1385.070, 23268.22
1386.124, 23366.21
1387.178, 23089.00
1388.232, 23120.00
1389.286, 23452.00
1390.340, 23441.00
1391.393, 23516.05
1392.447, 23570.34
1393.500, 23493.00
1394.553, 23535.00
1395.606, 23408.00
1396.659, 23391.00
1397.711, 23511.00
1398.764, 23630.00
1399.816, 23730.00
1400.868, 23818.00
1401.920, 23734.00
1402.972, 23702.00
1404.023, 23683.00
1405.075, 23741.00
1406.126, 23641.00
1407.177, 23988.00
1408.228, 24007.00
1409.279, 23844.00
1410.330, 23724.00
1411.380, 24030.00
1412.431, 23973.00
1413.481, 23943.00
1414.531, 23988.00
1415.580, 24092.00
1416.630, 24048.76
1417.680, 24149.00
1418.729, 24051.00
1419.778, 24123.00
1420.827, 24168.00
1421.876, 24130.00
1422.925, 24314.00
1423.973, 24275.00
1425.022, 24296.00
1426.070, 24514.00
1427.118, 24354.00
1428.166, 24687.00
1429.214, 24594.00
1430.261, 24368.00
1431.309, 24439.00
1432.356, 24370.00
1433.403, 24383.94
1434.450, 24534.00
1435.497, 24474.00
1436.543, 24588.00
1437.590, 24600.00
1438.636, 24660.00
1439.682, 24695.47
1440.728, 24838.00
1441.774, 24750.00
1442.819, 24868.00
1443.865, 24925.00
1444.910, 24751.00
1445.955, 24848.00
1447.000, 25136.00
1448.045, 24812.00
1449.090, 24968.00
1450.134, 25149.00
1451.178, 25062.00
1452.223, 25313.00
1453.267, 25131.00
1454.310, 25262.00
1455.354, 25412.00
1456.398, 25319.00
1457.441, 25491.00
1458.484, 25401.17
1459.527, 25378.00
1460.570, 25313.00
1461.613, 25341.17
1462.655, 25626.00
1463.698, 25422.00
1464.740, 25521.00
1465.782, 25562.00
1466.824, 25514.00
1467.866, 25630.00
1468.907, 25577.00
1469.948, 25651.00
1470.990, 25658.00
1472.031, 25803.00
1473.072, 25846.00
1474.112, 25913.00
1475.153, 25905.00
1476.194, 25689.00
1477.234, 26022.00
1478.274, 25885.00
1479.314, 25687.00
1480.354, 25942.00
1481.393, 26049.00
1482.433, 26081.00
1483.472, 26177.00
1484.511, 26188.00
1485.550, 25997.00
1486.589, 26162.00
1487.628, 25977.00
1488.666, 26198.00
1489.704, 26141.00
1490.743, 26087.00
1491.781, 26295.00
1492.819, 26250.00
1493.856, 26278.00
1494.894, 26424.00
1495.931, 26352.00
1496.968, 26328.00
1498.005, 26402.68
1499.042, 26299.00
1500.079, 26475.00
1501.115, 26433.00
1502.152, 26453.00
1503.188, 26553.00
1504.224, 26545.00
1505.260, 26639.00
1506.296, 26503.00
1507.331, 26822.00
1508.367, 26767.00
1509.402, 27025.00
1510.437, 26898.00
1511.472, 26801.00
1512.507, 26847.00
1513.541, 26812.00
1514.576, 26838.00
1515.610, 26882.00
1516.644, 26972.00
1517.678, 26983.00
1518.712, 26775.00
1519.746, 26969.00
1520.779, 27154.00
1521.813, 26972.14
1522.846, 27065.25
1523.879, 27139.69
1524.912, 27196.44
1525.944, 27182.51
1526.977, 27259.85
1528.009, 27137.00
1529.041, 27319.00
1530.073, 27279.00
1531.105, 27376.00
1532.137, 27602.00
1533.168, 27493.00
1534.200, 27621.00
1535.231, 27638.00
1536.262, 27528.00
1537.293, 27637.00
1538.324, 27605.00
1539.354, 27847.00
1540.385, 27737.00
1541.415, 27696.00
1542.445, 27800.00
1543.475, 27705.00
1544.505, 27723.00
1545.534, 27858.00
1546.564, 28014.00
1547.593, 28084.78
1548.622, 28321.00
1549.651, 28274.00
1550.680, 28335.00
1551.708, 28362.00
1552.737, 28178.00
1553.765, 28233.00
1554.793, 28507.00
1555.821, 28371.00
1556.849, 28296.00
1557.877, 28100.00
1558.904, 28277.00
1559.932, 28407.00
1560.959, 28359.00
1561.986, 28424.00
1563.013, 28576.00
1564.039, 28461.00
1565.066, 28471.00
1566.092, 28242.00
1567.119, 28344.00
1568.145, 28665.00
1569.170, 28508.00
1570.196, 28577.00
1571.222, 28454.00
1572.247, 28661.00
1573.272, 28565.00
1574.297, 28732.00
1575.322, 28953.00
1576.347, 28669.00
1577.372, 28938.00
##END=



