##NAMES=Fayalite
##RRUFFID=R070157
##IDEAL CHEMISTRY=Fe^2+^_2_SiO_4_
##LOCALITY=Coso Hot Springs, Inyo County, California, USA
##OWNER=RRUFF
##SOURCE=James Shigley
##DESCRIPTION=Brown transparent tabular crystals associated with fine grained quartz
##STATUS=The identification of this mineral is confirmed by single-crystal X-ray diffraction and chemical analysis.
##URL=rruff.info/R070157
##MEASURED CHEMISTRY=(Fe^2+^_1.88_Mn_0.11_Zn_0.01_)_Î£=2_Si_1.00_O_4_ ; trace amounts of Mg
##PIN_ID=M00908
##ORIENTATION=Laser parallel to -b* (0 -1 0). Fiducial mark perpendicular to laser is parallel to c [0 0 1]
142.5560, 19626.00
143.7880, 19941.00
145.0190, 20147.00
146.2510, 20051.00
147.4820, 19958.00
148.7130, 20363.00
149.9440, 20777.00
151.1750, 20377.00
152.4050, 20474.00
153.6360, 20594.00
154.8660, 20883.00
156.0960, 20685.00
157.3260, 20126.00
158.5560, 20234.00
159.7850, 19734.00
161.0150, 19513.00
162.2440, 19307.00
163.4730, 19099.77
164.7020, 19117.00
165.9310, 18984.00
167.1590, 18899.00
168.3880, 19053.00
169.6160, 19351.00
170.8440, 19706.00
172.0720, 19439.00
173.3000, 19414.00
174.5280, 19438.00
175.7550, 19059.00
176.9820, 19052.79
178.2100, 18800.33
179.4370, 18663.00
180.6630, 18412.00
181.8900, 17985.00
183.1170, 17940.00
184.3430, 18683.00
185.5690, 19236.00
186.7950, 18650.00
188.0210, 18151.00
189.2470, 18599.00
190.4720, 19042.00
191.6970, 18552.00
192.9230, 18067.00
194.1480, 17704.00
195.3730, 17984.00
196.5970, 18172.00
197.8220, 18398.00
199.0460, 18390.00
200.2700, 17742.00
201.4940, 17688.00
202.7180, 17670.00
203.9420, 17505.00
205.1660, 17262.00
206.3890, 17258.00
207.6120, 16937.00
208.8350, 17083.00
210.0580, 17219.00
211.2810, 17377.00
212.5040, 17166.00
213.7260, 17177.00
214.9480, 17487.00
216.1700, 17999.00
217.3920, 17796.00
218.6140, 17963.00
219.8360, 17389.00
221.0570, 17452.00
222.2790, 17503.00
223.5000, 17408.00
224.7210, 17269.00
225.9410, 17300.58
227.1620, 17455.00
228.3820, 17297.00
229.6030, 17578.00
230.8230, 17668.00
232.0430, 17406.00
233.2630, 17509.00
234.4820, 17508.00
235.7020, 17658.00
236.9210, 17326.00
238.1400, 17682.00
239.3590, 17703.00
240.5780, 17332.00
241.7970, 17560.00
243.0150, 17739.00
244.2340, 17842.00
245.4520, 18036.00
246.6700, 17950.00
247.8880, 17988.24
249.1060, 17819.00
250.3230, 17892.00
251.5400, 18024.00
252.7580, 18020.00
253.9750, 18318.00
255.1920, 18525.00
256.4080, 19031.00
257.6250, 19174.00
258.8410, 19560.00
260.0580, 19285.00
261.2740, 19212.00
262.4900, 19467.00
263.7050, 19862.00
264.9210, 20100.00
266.1360, 20426.00
267.3520, 20757.00
268.5670, 21188.00
269.7820, 21857.00
270.9960, 22293.00
272.2110, 23234.00
273.4250, 24328.00
274.6400, 25532.00
275.8540, 26498.00
277.0680, 28021.00
278.2810, 29844.00
279.4950, 32116.00
280.7090, 33728.00
281.9220, 36359.00
283.1350, 38848.00
284.3480, 41459.00
285.5610, 44258.00
286.7730, 46561.00
287.9860, 48568.00
289.1980, 50005.00
290.4100, 50359.00
291.6220, 49950.00
292.8340, 48241.00
294.0460, 46257.00
295.2570, 43450.00
296.4690, 40947.00
297.6800, 37776.00
298.8910, 34991.00
300.1020, 32449.00
301.3120, 30278.06
302.5230, 28243.00
303.7330, 26865.00
304.9440, 25448.00
306.1540, 24499.91
307.3630, 23913.00
308.5730, 23020.00
309.7830, 22378.00
310.9920, 21874.00
312.2010, 21477.00
313.4100, 21147.00
314.6190, 20508.00
315.8280, 20293.00
317.0370, 19984.00
318.2450, 19598.00
319.4530, 19402.00
320.6610, 19331.00
321.8690, 19045.00
323.0770, 18882.00
324.2850, 18847.00
325.4920, 18604.00
326.6990, 18395.00
327.9060, 18292.62
329.1130, 18186.01
330.3200, 18022.00
331.5270, 18172.00
332.7330, 18087.00
333.9390, 18230.00
335.1450, 18209.00
336.3510, 18381.00
337.5570, 18404.00
338.7630, 18538.00
339.9680, 18520.00
341.1740, 18668.00
342.3790, 18804.75
343.5840, 18916.00
344.7890, 19168.00
345.9930, 19420.00
347.1980, 19671.00
348.4020, 19936.00
349.6060, 20426.00
350.8100, 20797.00
352.0140, 21447.00
353.2180, 21987.22
354.4210, 22566.00
355.6250, 23397.00
356.8280, 24045.00
358.0310, 25093.00
359.2340, 25738.00
360.4360, 26879.00
361.6390, 28002.00
362.8410, 29322.00
364.0430, 30090.00
365.2450, 31216.00
366.4470, 32474.00
367.6490, 32973.00
368.8510, 33332.00
370.0520, 33894.00
371.2530, 34122.00
372.4540, 34124.00
373.6550, 33735.00
374.8560, 33006.00
376.0560, 32328.00
377.2570, 31688.00
378.4570, 30622.00
379.6570, 29675.00
380.8570, 28899.00
382.0570, 28113.00
383.2560, 27115.00
384.4560, 26178.00
385.6550, 25443.00
386.8540, 24814.00
388.0530, 24338.00
389.2520, 23580.00
390.4510, 23064.00
391.6490, 22406.00
392.8470, 21947.01
394.0450, 21386.00
395.2430, 21132.00
396.4410, 20784.00
397.6390, 20452.00
398.8360, 20090.00
400.0340, 19954.00
401.2310, 19892.00
402.4280, 19327.00
403.6250, 19313.00
404.8210, 19047.00
406.0180, 18720.00
407.2140, 18720.00
408.4100, 18553.00
409.6060, 18294.00
410.8020, 18298.00
411.9980, 17908.00
413.1930, 17982.00
414.3890, 17822.00
415.5840, 17640.00
416.7790, 17621.00
417.9740, 17576.00
419.1680, 17518.00
420.3630, 17402.00
421.5570, 17163.00
422.7510, 17203.00
423.9450, 17198.00
425.1390, 16938.00
426.3330, 17100.00
427.5270, 17022.00
428.7200, 16782.00
429.9130, 16609.00
431.1060, 16912.00
432.2990, 16787.00
433.4920, 16920.00
434.6840, 16790.00
435.8770, 17070.00
437.0690, 16848.00
438.2610, 16714.00
439.4530, 16869.00
440.6450, 16811.00
441.8360, 16657.00
443.0280, 16921.00
444.2190, 16674.00
445.4100, 16689.00
446.6010, 16726.00
447.7920, 16764.00
448.9820, 16693.00
450.1730, 16603.00
451.3630, 16706.00
452.5530, 16867.00
453.7430, 16656.00
454.9330, 16695.00
456.1230, 16779.00
457.3120, 16677.00
458.5010, 16906.00
459.6910, 16759.00
460.8800, 16857.77
462.0680, 16985.89
463.2570, 16754.00
464.4460, 17295.00
465.6340, 16833.00
466.8220, 17049.00
468.0100, 16955.36
469.1980, 17003.00
470.3860, 16731.00
471.5730, 16730.00
472.7600, 16707.00
473.9480, 16774.00
475.1350, 16736.39
476.3210, 16911.00
477.5080, 16736.00
478.6950, 16726.00
479.8810, 16783.00
481.0670, 16936.00
482.2530, 17114.00
483.4390, 17032.00
484.6250, 17030.00
485.8100, 16966.00
486.9960, 17055.00
488.1810, 16977.00
489.3660, 17023.00
490.5510, 17155.00
491.7360, 17113.00
492.9200, 17131.00
494.1050, 17178.00
495.2890, 17261.00
496.4730, 17244.00
497.6570, 17330.00
498.8400, 17367.00
500.0240, 17303.00
501.2070, 17374.00
502.3910, 17558.00
503.5740, 17599.00
504.7570, 17547.00
505.9400, 17671.78
507.1220, 17597.00
508.3050, 17715.00
509.4870, 17675.00
510.6690, 17553.00
511.8510, 17719.00
513.0330, 17672.00
514.2140, 17670.00
515.3960, 17825.00
516.5770, 17572.00
517.7580, 17662.00
518.9390, 17731.00
520.1200, 17542.00
521.3010, 17815.00
522.4810, 17596.00
523.6610, 17654.00
524.8420, 17548.00
526.0220, 17691.00
527.2010, 17875.00
528.3810, 17805.00
529.5610, 17910.00
530.7400, 17872.00
531.9190, 17995.00
533.0980, 18121.00
534.2770, 18139.00
535.4560, 18346.00
536.6340, 18430.00
537.8120, 18298.00
538.9910, 18550.00
540.1690, 18710.00
541.3460, 19073.00
542.5240, 19291.00
543.7020, 19530.00
544.8790, 19674.00
546.0560, 20027.00
547.2330, 20432.00
548.4100, 20790.00
549.5870, 21247.56
550.7630, 21777.00
551.9400, 22156.00
553.1160, 22696.00
554.2920, 23114.00
555.4680, 23871.00
556.6440, 24535.00
557.8190, 24973.00
558.9950, 25450.00
560.1700, 25813.37
561.3450, 26062.56
562.5200, 26304.00
563.6950, 26337.00
564.8690, 26356.00
566.0440, 26247.00
567.2180, 26060.00
568.3920, 25683.00
569.5660, 25387.00
570.7400, 24739.00
571.9130, 24110.00
573.0870, 23712.00
574.2600, 23211.00
575.4330, 22465.00
576.6060, 22115.00
577.7790, 21615.00
578.9520, 21160.00
580.1240, 20867.00
581.2960, 20397.16
582.4690, 19990.00
583.6410, 19695.00
584.8120, 19469.00
585.9840, 19328.00
587.1560, 19002.00
588.3270, 18794.00
589.4980, 18769.00
590.6690, 18646.00
591.8400, 18486.00
593.0110, 18436.72
594.1810, 18327.00
595.3510, 18231.00
596.5220, 18107.00
597.6920, 17930.00
598.8610, 18062.00
600.0310, 18075.00
601.2010, 17894.96
602.3700, 17940.05
603.5390, 17514.00
604.7080, 17811.00
605.8770, 17531.00
607.0460, 17437.00
608.2140, 17436.00
609.3830, 17313.00
610.5510, 17279.02
611.7190, 17224.28
612.8870, 17174.00
614.0550, 17103.00
615.2220, 17048.00
616.3900, 16958.00
617.5570, 16922.00
618.7240, 16933.00
619.8910, 17070.00
621.0580, 16876.00
622.2240, 17056.00
623.3910, 17110.00
624.5570, 16956.00
625.7230, 16979.00
626.8890, 16954.00
628.0550, 16999.00
629.2200, 17024.00
630.3860, 16988.00
631.5510, 17035.00
632.7160, 17208.00
633.8810, 17248.00
635.0460, 17273.11
636.2100, 17306.00
637.3750, 17250.00
638.5390, 17350.00
639.7030, 17301.00
640.8670, 17352.00
642.0310, 17152.00
643.1950, 17475.00
644.3580, 17172.00
645.5210, 17521.00
646.6850, 17374.00
647.8480, 17376.00
649.0100, 17344.00
650.1730, 17408.00
651.3350, 17381.00
652.4980, 17358.00
653.6600, 17464.00
654.8220, 17430.00
655.9840, 17365.00
657.1450, 17524.00
658.3070, 17530.00
659.4680, 17603.00
660.6300, 17505.00
661.7910, 17670.00
662.9510, 17687.00
664.1120, 17769.00
665.2730, 17852.00
666.4330, 17820.00
667.5930, 17742.00
668.7530, 17866.00
669.9130, 18081.00
671.0730, 18227.00
672.2320, 18185.00
673.3920, 18321.68
674.5510, 18205.00
675.7100, 18394.00
676.8690, 18518.00
678.0280, 18532.00
679.1860, 18597.00
680.3450, 18814.00
681.5030, 18841.00
682.6610, 18978.00
683.8190, 19188.00
684.9770, 19062.00
686.1340, 19441.00
687.2920, 19244.00
688.4490, 19341.00
689.6060, 19142.00
690.7630, 19121.00
691.9200, 19372.00
693.0760, 19482.00
694.2330, 19475.00
695.3890, 19254.00
696.5450, 19361.00
697.7010, 19279.00
698.8570, 19396.00
700.0130, 19584.00
701.1680, 19561.00
702.3230, 19641.00
703.4780, 19604.00
704.6330, 19622.00
705.7880, 19705.00
706.9430, 19831.00
708.0970, 19857.00
709.2520, 19988.00
710.4060, 20122.00
711.5600, 20333.00
712.7140, 20387.00
713.8670, 20316.00
715.0210, 20504.00
716.1740, 20606.00
717.3270, 20795.00
718.4800, 20935.32
719.6330, 21054.45
720.7860, 21182.00
721.9380, 21334.00
723.0910, 21349.00
724.2430, 21559.00
725.3950, 21563.00
726.5470, 21573.00
727.6980, 21937.00
728.8500, 22083.00
730.0010, 22332.00
731.1530, 22809.00
732.3040, 22764.00
733.4550, 23185.00
734.6050, 23329.00
735.7560, 23740.00
736.9060, 23932.00
738.0560, 24277.00
739.2060, 24730.00
740.3560, 24699.00
741.5060, 25131.00
742.6560, 25190.00
743.8050, 25357.00
744.9540, 25555.00
746.1030, 25492.00
747.2520, 25139.00
748.4010, 25220.00
749.5500, 24913.00
750.6980, 24664.00
751.8460, 24364.00
752.9950, 24298.00
754.1420, 24223.00
755.2900, 24152.94
756.4380, 24171.94
757.5850, 24219.00
758.7330, 24272.00
759.8800, 24433.00
761.0270, 24581.00
762.1730, 24516.00
763.3200, 24735.00
764.4670, 24957.00
765.6130, 25267.00
766.7590, 25272.00
767.9050, 25505.00
769.0510, 25693.00
770.1960, 25904.89
771.3420, 26287.00
772.4870, 26565.00
773.6320, 26794.00
774.7770, 27384.00
775.9220, 27806.00
777.0670, 28338.00
778.2110, 28973.00
779.3560, 29490.25
780.5000, 29907.00
781.6440, 30710.00
782.7880, 31570.00
783.9320, 32287.00
785.0750, 33356.00
786.2180, 34482.00
787.3620, 35918.00
788.5050, 37298.00
789.6480, 38808.00
790.7900, 40455.00
791.9330, 42608.00
793.0750, 44886.00
794.2170, 47460.00
795.3590, 50655.00
796.5010, 54328.00
797.6430, 58527.00
798.7850, 63671.00
799.9260, 70137.00
801.0670, 77450.00
802.2080, 86301.00
803.3490, 97133.00
804.4900, 109401.0
805.6310, 124232.0
806.7710, 140837.0
807.9110, 158208.0
809.0510, 175802.0
810.1910, 193371.0
811.3310, 207778.0
812.4710, 219014.0
813.6100, 224723.0
814.7490, 224276.0
815.8880, 221075.0
817.0270, 212041.0
818.1660, 201464.0
819.3050, 188755.0
820.4430, 176815.0
821.5820, 164866.0
822.7200, 155936.0
823.8580, 147489.0
824.9950, 140596.0
826.1330, 135105.0
827.2710, 131031.0
828.4080, 128279.0
829.5450, 126401.0
830.6820, 125924.0
831.8190, 125515.0
832.9560, 125562.0
834.0920, 125747.0
835.2280, 126743.0
836.3650, 127079.0
837.5010, 126864.0
838.6360, 126419.0
839.7720, 124842.0
840.9080, 122720.0
842.0430, 119295.0
843.1780, 115659.0
844.3130, 110675.0
845.4480, 105373.0
846.5830, 100040.0
847.7170, 93924.00
848.8520, 88424.00
849.9860, 82700.00
851.1200, 77434.00
852.2540, 72173.00
853.3870, 67506.00
854.5210, 63518.00
855.6540, 59419.00
856.7880, 55985.00
857.9210, 52704.00
859.0540, 50078.00
860.1860, 47283.00
861.3190, 45015.00
862.4510, 43143.00
863.5840, 41099.00
864.7160, 39523.00
865.8480, 38117.00
866.9790, 36553.00
868.1110, 35271.00
869.2420, 34389.00
870.3740, 33155.00
871.5050, 32343.00
872.6360, 31600.00
873.7660, 31068.00
874.8970, 30532.00
876.0280, 29980.00
877.1580, 29568.92
878.2880, 29065.00
879.4180, 28801.00
880.5480, 28405.00
881.6770, 28101.00
882.8070, 27721.00
883.9360, 27544.00
885.0650, 27208.00
886.1940, 27105.00
887.3230, 26712.00
888.4520, 26659.00
889.5800, 26423.00
890.7090, 26241.00
891.8370, 26191.00
892.9650, 26073.00
894.0930, 26008.00
895.2200, 25899.84
896.3480, 25607.00
897.4750, 25684.00
898.6020, 25339.00
899.7290, 25220.00
900.8560, 25069.00
901.9830, 24931.00
903.1090, 25004.00
904.2360, 24871.00
905.3620, 24863.00
906.4880, 24858.00
907.6140, 24784.00
908.7400, 24827.00
909.8650, 24765.00
910.9900, 24738.00
912.1160, 24857.00
913.2410, 24865.00
914.3660, 24947.80
915.4900, 24954.00
916.6150, 25152.00
917.7390, 25264.00
918.8640, 25438.00
919.9880, 25486.00
921.1120, 25869.00
922.2350, 25949.00
923.3590, 26357.00
924.4820, 26363.00
925.6060, 26525.00
926.7290, 26699.00
927.8520, 26909.00
928.9740, 27034.60
930.0970, 27090.00
931.2190, 27369.00
932.3420, 27324.00
933.4640, 27606.00
934.5860, 27608.00
935.7080, 27670.00
936.8290, 27818.00
937.9510, 27702.00
939.0720, 27524.00
940.1930, 27748.00
941.3140, 27677.00
942.4350, 27801.00
943.5560, 27813.00
944.6760, 27831.00
945.7960, 27665.00
946.9170, 27765.00
948.0370, 27626.00
949.1560, 27461.00
950.2760, 27421.00
951.3960, 27621.00
952.5150, 27716.00
953.6340, 27568.00
954.7530, 27689.00
955.8720, 27365.00
956.9910, 27546.00
958.1090, 27391.00
959.2280, 27213.00
960.3460, 27318.00
961.4640, 27070.00
962.5820, 27137.00
963.6990, 27288.00
964.8170, 27051.00
965.9340, 27187.00
967.0510, 26976.00
968.1690, 26952.00
969.2850, 26946.00
970.4020, 27085.00
971.5190, 26952.00
972.6350, 26913.00
973.7510, 26665.00
974.8670, 26822.00
975.9830, 26607.00
977.0990, 26780.00
978.2150, 26940.00
979.3300, 26886.00
980.4450, 26888.00
981.5600, 26763.00
982.6750, 26877.00
983.7900, 26754.00
984.9050, 26885.00
986.0190, 26763.00
987.1340, 26685.00
988.2480, 26702.00
989.3620, 26766.00
990.4750, 26714.00
991.5890, 26747.00
992.7020, 26772.24
993.8160, 26662.00
994.9290, 26829.00
996.0420, 26717.00
997.1550, 26736.00
998.2670, 26733.00
999.3800, 26549.00
1000.492, 26494.00
1001.604, 26783.00
1002.716, 26669.00
1003.828, 26477.00
1004.940, 26701.00
1006.051, 26653.00
1007.163, 26680.00
1008.274, 26559.00
1009.385, 26595.00
1010.496, 26505.00
1011.606, 26419.00
1012.717, 26553.00
1013.827, 26517.00
1014.937, 26352.00
1016.047, 26415.00
1017.157, 26259.00
1018.267, 26399.00
1019.377, 26487.00
1020.486, 26319.00
1021.595, 26363.00
1022.704, 26331.00
1023.813, 26385.00
1024.922, 26544.00
1026.030, 26493.00
1027.139, 26689.00
1028.247, 26433.00
1029.355, 26431.00
1030.463, 26482.00
1031.571, 26582.00
1032.678, 26783.00
1033.786, 26834.00
1034.893, 26795.00
1036.000, 26485.00
1037.107, 26699.00
1038.214, 26664.00
1039.321, 26692.00
1040.427, 26763.00
1041.533, 26747.00
1042.639, 26736.00
1043.745, 26747.00
1044.851, 26956.00
1045.957, 26763.00
1047.062, 26970.00
1048.168, 26911.00
1049.273, 27097.00
1050.378, 26973.00
1051.482, 27301.00
1052.587, 27086.00
1053.692, 27123.00
1054.796, 27213.00
1055.900, 27216.00
1057.004, 27234.00
1058.108, 27183.00
1059.212, 27413.00
1060.315, 27463.00
1061.418, 27408.00
1062.522, 27434.00
1063.625, 27421.00
1064.728, 27616.00
1065.830, 27566.00
1066.933, 27621.00
1068.035, 27873.00
1069.137, 27678.00
1070.239, 27838.00
1071.341, 27869.00
1072.443, 28003.00
1073.545, 28031.00
1074.646, 28051.00
1075.747, 28027.00
1076.848, 27922.00
1077.949, 28039.00
1079.050, 28023.00
1080.150, 28254.00
1081.251, 28242.00
1082.351, 28086.00
1083.451, 28301.00
1084.551, 28183.00
1085.651, 28403.00
1086.750, 28359.00
1087.850, 28428.00
1088.949, 28536.00
1090.048, 28471.00
1091.147, 28626.00
1092.246, 28496.00
1093.345, 28663.00
1094.443, 28699.00
1095.541, 28667.00
1096.639, 28786.00
1097.737, 28815.00
1098.835, 28696.00
1099.933, 29040.00
1101.030, 28669.00
1102.128, 29031.00
1103.225, 29055.00
1104.322, 29146.00
1105.419, 29088.00
1106.515, 29259.00
1107.612, 29279.00
1108.708, 29129.00
1109.804, 29266.00
1110.900, 29395.00
1111.996, 29493.00
1113.092, 29585.00
1114.187, 29550.00
1115.283, 29695.00
1116.378, 29698.00
1117.473, 29783.00
1118.568, 29684.00
1119.662, 29893.00
1120.757, 30151.00
1121.851, 29938.00
1122.946, 30155.00
1124.040, 30106.00
1125.134, 30065.00
1126.227, 30321.00
1127.321, 30333.00
1128.414, 30735.00
1129.508, 30643.00
1130.601, 30626.00
1131.693, 30497.00
1132.786, 30758.00
1133.879, 30707.00
1134.971, 30840.00
1136.064, 30764.00
1137.156, 30761.00
1138.248, 31029.00
1139.339, 30797.00
1140.431, 31173.00
1141.522, 31048.00
1142.614, 31176.00
1143.705, 31216.00
1144.796, 31109.00
1145.887, 31294.00
1146.977, 31124.00
1148.068, 31051.00
1149.158, 31112.00
1150.248, 31068.00
1151.338, 31217.00
1152.428, 31149.00
1153.518, 31021.00
1154.607, 31077.00
1155.696, 30987.65
1156.785, 31033.00
1157.874, 30902.00
1158.963, 31050.00
1160.052, 30995.00
1161.141, 31174.00
1162.229, 31222.00
1163.317, 31161.00
1164.405, 31453.00
1165.493, 31216.00
1166.581, 31365.00
1167.668, 31401.00
1168.756, 31049.00
1169.843, 31297.00
1170.930, 31049.00
1172.017, 31307.00
1173.103, 31220.00
1174.190, 31053.00
1175.276, 31338.00
1176.363, 31223.00
1177.449, 31266.00
1178.535, 31180.00
1179.620, 31324.00
1180.706, 31499.00
1181.791, 31362.00
1182.877, 31263.00
1183.962, 31511.00
1185.047, 31427.00
1186.131, 31460.00
1187.216, 31481.00
1188.300, 31547.00
1189.385, 31394.00
1190.469, 31605.00
1191.553, 31511.00
1192.637, 31554.00
1193.720, 31633.00
1194.804, 31569.06
1195.887, 31590.00
1196.970, 31566.00
1198.053, 31535.00
1199.136, 31605.00
1200.219, 31637.00
1201.301, 31693.00
1202.383, 31808.00
1203.465, 31613.00
1204.547, 31903.00
1205.629, 31750.00
1206.711, 31731.00
1207.792, 31807.00
1208.874, 31965.00
1209.955, 31687.00
1211.036, 31888.00
1212.117, 32133.00
1213.198, 31934.00
1214.278, 32194.00
1215.359, 32101.00
1216.439, 32114.00
1217.519, 32189.00
1218.599, 32086.00
1219.678, 32257.00
1220.758, 32181.00
1221.837, 32195.00
1222.917, 32570.00
1223.996, 32311.00
1225.075, 32344.00
1226.153, 32589.00
1227.232, 32626.00
1228.310, 32592.00
1229.389, 32555.00
1230.467, 32697.00
1231.545, 32615.00
1232.622, 32736.00
1233.700, 32788.00
1234.777, 32732.00
1235.855, 32997.00
1236.932, 32887.00
1238.009, 32937.00
1239.086, 32892.00
1240.162, 33079.00
1241.239, 33098.00
1242.315, 33183.36
1243.391, 33342.00
1244.467, 33302.00
1245.543, 33391.00
1246.619, 33329.00
1247.694, 33345.00
1248.769, 33552.00
1249.844, 33629.00
1250.919, 33611.00
1251.994, 33759.00
1253.069, 33616.00
1254.144, 33723.00
1255.218, 33694.00
1256.292, 34018.00
1257.366, 33446.00
1258.440, 33725.00
1259.514, 33908.00
1260.587, 33765.00
1261.661, 34016.00
1262.734, 33916.00
1263.807, 33903.00
1264.880, 34187.00
1265.952, 34067.00
1267.025, 34378.00
1268.097, 34257.00
1269.170, 34205.00
1270.242, 34505.00
1271.314, 34150.00
1272.385, 34404.00
1273.457, 34621.00
1274.528, 34535.00
1275.600, 34374.00
1276.671, 34665.00
1277.742, 34782.00
1278.812, 34615.00
1279.883, 34648.00
1280.954, 34948.00
1282.024, 34886.00
1283.094, 34984.00
1284.164, 35029.00
1285.234, 35050.00
1286.303, 34953.00
1287.373, 35174.00
1288.442, 35313.00
1289.511, 35223.00
1290.580, 35212.00
1291.649, 35184.00
1292.718, 35148.00
1293.786, 35216.66
1294.855, 35448.00
1295.923, 35395.00
1296.991, 35426.00
1298.059, 35584.00
1299.126, 35347.00
1300.194, 35616.00
1301.261, 35591.00
1302.328, 35921.00
1303.395, 35881.00
1304.462, 35703.00
1305.529, 35667.00
1306.596, 36005.00
1307.662, 36124.00
1308.728, 36065.00
1309.794, 35848.00
1310.860, 36132.00
1311.926, 36159.00
1312.991, 36052.00
1314.057, 36164.00
1315.122, 36281.00
1316.187, 36110.00
1317.252, 36228.00
1318.317, 36607.00
1319.381, 36324.00
1320.446, 36211.00
1321.510, 36625.00
1322.574, 36695.00
1323.638, 36495.00
1324.702, 36691.00
1325.766, 36461.00
1326.829, 36699.00
1327.892, 36546.00
1328.956, 36715.00
1330.019, 37104.00
1331.081, 37012.00
1332.144, 36961.00
1333.206, 36844.00
1334.269, 36974.00
1335.331, 37043.00
1336.393, 36907.00
1337.455, 37072.00
1338.516, 37170.00
1339.578, 37286.00
1340.639, 37191.00
1341.701, 37331.00
1342.762, 37911.00
1343.822, 37798.00
1344.883, 38149.00
1345.944, 38072.00
1347.004, 37709.00
1348.064, 38210.00
1349.124, 38418.00
1350.184, 37953.00
1351.244, 38025.00
1352.304, 38092.00
1353.363, 38182.00
1354.422, 38232.00
1355.481, 38125.79
1356.540, 37752.00
1357.599, 37915.00
1358.657, 37777.00
1359.716, 37812.00
1360.774, 38142.00
1361.832, 38000.00
1362.890, 38124.00
1363.948, 38298.00
1365.006, 38099.00
1366.063, 38072.00
1367.120, 38250.00
1368.178, 38186.00
1369.234, 38447.00
1370.291, 38236.00
1371.348, 38352.00
1372.404, 38438.00
1373.461, 38517.00
1374.517, 38565.00
1375.573, 38448.00
1376.629, 38548.00
1377.684, 38203.00
1378.740, 38818.00
1379.795, 38694.00
1380.850, 38574.00
1381.905, 38894.00
1382.960, 38745.00
1384.015, 39142.00
1385.070, 38884.00
1386.124, 38932.00
1387.178, 39078.00
1388.232, 38933.00
1389.286, 38988.00
1390.340, 39147.00
1391.393, 38907.00
1392.447, 39064.00
1393.500, 39110.00
1394.553, 39209.00
1395.606, 39314.00
1396.659, 39369.00
1397.711, 39338.00
1398.764, 39244.00
1399.816, 39368.00
1400.868, 39411.00
1401.920, 39572.00
1402.972, 39486.00
1404.023, 39574.00
1405.075, 39372.45
1406.126, 39648.55
1407.177, 39818.72
1408.228, 39888.65
1409.279, 39558.12
1410.330, 39744.69
1411.380, 39724.00
1412.431, 39694.85
1413.481, 39954.18
1414.531, 39681.86
1415.580, 39936.58
1416.630, 39980.93
1417.680, 40121.59
1418.729, 40053.68
1419.778, 40050.18
1420.827, 40255.27
1421.876, 40242.00
1422.925, 40229.00
1423.973, 40324.00
1425.022, 40340.00
1426.070, 40394.00
1427.118, 40413.00
1428.166, 40365.00
1429.214, 40489.00
1430.261, 40551.00
1431.309, 40621.00
1432.356, 40308.00
1433.403, 40416.00
1434.450, 40581.00
1435.497, 40205.00
1436.543, 40701.00
1437.590, 40892.00
1438.636, 40797.00
1439.682, 40652.00
1440.728, 40822.00
1441.774, 40763.00
1442.819, 40673.00
1443.865, 40752.00
1444.910, 40812.00
1445.955, 40873.00
1447.000, 40851.00
1448.045, 40973.00
1449.090, 41072.00
1450.134, 41354.00
1451.178, 41194.00
1452.223, 41335.00
1453.267, 41193.00
1454.310, 41276.74
1455.354, 41123.00
1456.398, 41388.00
1457.441, 41365.00
1458.484, 41342.00
1459.527, 41339.00
1460.570, 41246.00
1461.613, 41238.00
1462.655, 41198.00
1463.698, 41309.00
1464.740, 41265.00
1465.782, 41364.00
1466.824, 41398.00
1467.866, 41426.00
1468.907, 41380.00
1469.948, 41376.00
1470.990, 41628.00
1472.031, 41582.00
1473.072, 41751.00
1474.112, 41399.00
1475.153, 41676.00
1476.194, 41727.00
1477.234, 41703.00
1478.274, 41834.00
1479.314, 41686.00
1480.354, 41591.00
1481.393, 41839.00
1482.433, 41803.00
1483.472, 41625.00
1484.511, 41394.00
1485.550, 41729.00
1486.589, 42019.00
1487.628, 41706.00
1488.666, 41812.00
1489.704, 42135.00
1490.743, 41777.00
1491.781, 42098.00
1492.819, 41968.00
1493.856, 42102.00
1494.894, 41970.00
1495.931, 41800.00
1496.968, 42123.00
1498.005, 41880.00
1499.042, 42141.00
1500.079, 42082.00
1501.115, 41733.00
1502.152, 42137.00
1503.188, 42269.00
1504.224, 41766.00
1505.260, 42125.00
1506.296, 42143.00
1507.331, 42443.00
1508.367, 42046.00
1509.402, 42284.00
1510.437, 42264.00
1511.472, 42199.00
1512.507, 42366.00
1513.541, 42127.00
1514.576, 42289.00
1515.610, 42440.00
1516.644, 42441.00
1517.678, 42576.05
1518.712, 42323.00
1519.746, 42711.00
1520.779, 42606.00
1521.813, 42631.00
1522.846, 42781.00
1523.879, 42741.00
1524.912, 42764.00
1525.944, 42771.68
1526.977, 42720.00
1528.009, 42756.00
1529.041, 42692.00
1530.073, 42760.00
1531.105, 42815.00
1532.137, 42678.00
1533.168, 42782.00
1534.200, 42904.00
1535.231, 42865.00
1536.262, 43209.00
1537.293, 42928.00
1538.324, 43249.00
1539.354, 42799.00
1540.385, 43304.00
1541.415, 43083.00
1542.445, 43238.00
1543.475, 43447.00
1544.505, 43145.00
1545.534, 43242.00
1546.564, 43136.00
1547.593, 43159.00
1548.622, 43347.00
1549.651, 43429.00
1550.680, 43303.00
1551.708, 43312.00
1552.737, 43430.00
1553.765, 43347.00
1554.793, 43437.00
1555.821, 43186.00
1556.849, 43265.00
1557.877, 43129.00
1558.904, 43408.00
1559.932, 43248.00
1560.959, 43250.00
1561.986, 43295.00
1563.013, 43326.00
1564.039, 43274.67
1565.066, 43481.00
1566.092, 43162.00
1567.119, 43390.00
1568.145, 43349.00
1569.170, 43700.00
1570.196, 43233.00
1571.222, 43065.00
1572.247, 43418.00
1573.272, 43466.00
1574.297, 43571.00
1575.322, 43515.00
1576.347, 43703.00
1577.372, 43461.00
##END=



