##NAMES=Fayalite
##RRUFFID=R070374
##IDEAL CHEMISTRY=Fe^2+^_2_SiO_4_
##LOCALITY=Little Lake, Lake County, California, USA
##OWNER=RRUFF
##SOURCE=Michael Scott
##DESCRIPTION=Large dark brown crystal fragment
##STATUS=The identification of this mineral has been confirmed by X-ray diffraction and chemical analysis
##URL=rruff.info/R070374
##MEASURED CHEMISTRY=(Fe^2+^_1.89_Mn^2+^_0.11_)_Î£=2_Si_1.00_O_4_ ; trace amounts of Mg
##PIN_ID=M01315
##ORIENTATION=Laser parallel to c* (0 0 1). Fiducial mark perpendicular to laser is parallel to a [1 0 0]
69.59800, 37495.00
70.83900, 37055.00
72.08000, 36532.00
73.32100, 37667.00
74.56200, 38430.00
75.80300, 36582.00
77.04300, 35591.00
78.28300, 34087.00
79.52300, 33295.00
80.76300, 33728.00
82.00300, 32429.82
83.24300, 32529.20
84.48300, 30533.00
85.72200, 31935.00
86.96100, 29976.00
88.20000, 29006.00
89.43900, 28485.00
90.67800, 28269.00
91.91600, 27708.21
93.15500, 28777.00
94.39300, 27696.00
95.63100, 26734.00
96.86900, 27945.00
98.10600, 27283.00
99.34400, 27386.00
100.5810, 27321.00
101.8190, 28266.00
103.0560, 26902.00
104.2930, 26105.00
105.5290, 28269.00
106.7660, 27197.00
108.0020, 27464.00
109.2390, 27247.00
110.4750, 27211.00
111.7110, 26299.00
112.9460, 25361.00
114.1820, 25683.00
115.4170, 26023.00
116.6530, 25171.00
117.8880, 24000.00
119.1230, 23966.00
120.3580, 24020.00
121.5920, 25681.00
122.8270, 25983.00
124.0610, 24528.00
125.2950, 23780.00
126.5290, 23694.00
127.7630, 23131.00
128.9970, 23737.00
130.2300, 24636.00
131.4640, 23660.00
132.6970, 22605.00
133.9300, 23420.00
135.1630, 23302.00
136.3950, 22676.00
137.6280, 22242.00
138.8600, 22165.00
140.0920, 22264.00
141.3240, 21980.00
142.5560, 21755.00
143.7880, 22052.00
145.0190, 22056.00
146.2510, 22825.00
147.4820, 22525.00
148.7130, 22338.00
149.9440, 21692.00
151.1750, 21860.00
152.4050, 22655.00
153.6360, 21513.00
154.8660, 22242.00
156.0960, 21220.00
157.3260, 21170.00
158.5560, 20557.00
159.7850, 21556.00
161.0150, 21019.00
162.2440, 20560.00
163.4730, 21571.00
164.7020, 21181.00
165.9310, 20020.00
167.1590, 20162.00
168.3880, 19902.66
169.6160, 20636.00
170.8440, 20416.00
172.0720, 20586.00
173.3000, 20534.40
174.5280, 20244.68
175.7550, 20263.00
176.9820, 19542.00
178.2100, 19654.00
179.4370, 19117.12
180.6630, 19090.42
181.8900, 19250.00
183.1170, 19042.00
184.3430, 19879.00
185.5690, 19851.00
186.7950, 20350.00
188.0210, 19926.00
189.2470, 19925.00
190.4720, 19940.00
191.6970, 19458.00
192.9230, 20002.00
194.1480, 20080.00
195.3730, 19926.00
196.5970, 19666.00
197.8220, 19572.00
199.0460, 19071.00
200.2700, 19282.00
201.4940, 19090.00
202.7180, 17897.00
203.9420, 17400.00
205.1660, 17790.00
206.3890, 17396.00
207.6120, 17303.00
208.8350, 17691.00
210.0580, 17175.00
211.2810, 17354.00
212.5040, 17679.00
213.7260, 17005.00
214.9480, 16901.00
216.1700, 16305.00
217.3920, 16220.00
218.6140, 16149.86
219.8360, 16099.00
221.0570, 16326.00
222.2790, 16287.00
223.5000, 16655.00
224.7210, 16119.00
225.9410, 15816.00
227.1620, 16174.00
228.3820, 16929.00
229.6030, 16797.00
230.8230, 17073.00
232.0430, 16916.00
233.2630, 16512.00
234.4820, 16832.00
235.7020, 17175.00
236.9210, 16673.00
238.1400, 17391.00
239.3590, 17500.00
240.5780, 17692.00
241.7970, 16802.00
243.0150, 16173.00
244.2340, 16182.00
245.4520, 15537.65
246.6700, 16025.00
247.8880, 15167.00
249.1060, 15032.00
250.3230, 15453.00
251.5400, 15045.00
252.7580, 14690.00
253.9750, 15104.00
255.1920, 14727.00
256.4080, 14709.00
257.6250, 14717.00
258.8410, 14561.00
260.0580, 14298.00
261.2740, 14670.00
262.4900, 14452.00
263.7050, 14316.00
264.9210, 14448.00
266.1360, 14373.00
267.3520, 14029.00
268.5670, 14307.00
269.7820, 14128.00
270.9960, 14078.00
272.2110, 13457.00
273.4250, 13192.00
274.6400, 13744.00
275.8540, 13508.00
277.0680, 13934.00
278.2810, 13908.00
279.4950, 13855.00
280.7090, 13728.00
281.9220, 13776.00
283.1350, 13666.04
284.3480, 13396.00
285.5610, 13574.00
286.7730, 13425.00
287.9860, 13465.00
289.1980, 13319.00
290.4100, 12987.00
291.6220, 13266.00
292.8340, 13288.00
294.0460, 14258.00
295.2570, 14496.00
296.4690, 12439.00
297.6800, 13158.00
298.8910, 12991.00
300.1020, 12797.00
301.3120, 12667.00
302.5230, 12698.00
303.7330, 12472.00
304.9440, 12756.00
306.1540, 12593.00
307.3630, 12772.00
308.5730, 12694.00
309.7830, 12634.00
310.9920, 12627.11
312.2010, 12242.00
313.4100, 12550.00
314.6190, 12264.00
315.8280, 12372.00
317.0370, 11769.00
318.2450, 11902.00
319.4530, 11969.00
320.6610, 11797.00
321.8690, 12109.00
323.0770, 12211.00
324.2850, 11918.00
325.4920, 11922.00
326.6990, 11598.00
327.9060, 11555.00
329.1130, 11518.00
330.3200, 11395.04
331.5270, 11417.00
332.7330, 11370.00
333.9390, 11308.00
335.1450, 11399.00
336.3510, 11404.00
337.5570, 11601.00
338.7630, 11634.00
339.9680, 11529.00
341.1740, 11449.00
342.3790, 11703.00
343.5840, 11625.00
344.7890, 11561.00
345.9930, 12071.00
347.1980, 11711.00
348.4020, 11480.00
349.6060, 11642.00
350.8100, 11869.00
352.0140, 12064.00
353.2180, 12072.00
354.4210, 12324.00
355.6250, 12394.00
356.8280, 12637.86
358.0310, 12760.94
359.2340, 13053.00
360.4360, 13148.00
361.6390, 13131.00
362.8410, 13569.00
364.0430, 13594.00
365.2450, 13766.00
366.4470, 13450.00
367.6490, 13497.00
368.8510, 13549.00
370.0520, 13484.00
371.2530, 13464.00
372.4540, 13245.00
373.6550, 13098.00
374.8560, 12579.00
376.0560, 12574.00
377.2570, 12519.00
378.4570, 11959.00
379.6570, 11414.00
380.8570, 11434.00
382.0570, 11281.00
383.2560, 11254.00
384.4560, 10822.00
385.6550, 10892.00
386.8540, 10857.00
388.0530, 10188.00
389.2520, 10165.00
390.4510, 10025.00
391.6490, 10082.00
392.8470, 10036.00
394.0450, 9950.000
395.2430, 9736.000
396.4410, 9482.000
397.6390, 9411.000
398.8360, 9384.000
400.0340, 9177.000
401.2310, 9061.000
402.4280, 9079.000
403.6250, 8936.000
404.8210, 9048.000
406.0180, 9368.000
407.2140, 8993.000
408.4100, 9050.000
409.6060, 9100.000
410.8020, 8863.000
411.9980, 8869.000
413.1930, 8753.000
414.3890, 8690.000
415.5840, 8682.000
416.7790, 8617.838
417.9740, 8587.699
419.1680, 8603.000
420.3630, 8584.000
421.5570, 8658.000
422.7510, 8809.000
423.9450, 9081.000
425.1390, 8664.000
426.3330, 8668.000
427.5270, 9029.000
428.7200, 8937.000
429.9130, 9042.000
431.1060, 8897.000
432.2990, 8650.000
433.4920, 8571.000
434.6840, 8497.000
435.8770, 8380.000
437.0690, 8412.000
438.2610, 8435.000
439.4530, 8333.000
440.6450, 8486.000
441.8360, 8532.000
443.0280, 8541.000
444.2190, 8433.000
445.4100, 8542.000
446.6010, 8589.000
447.7920, 8437.000
448.9820, 8769.000
450.1730, 8872.000
451.3630, 9290.000
452.5530, 8924.000
453.7430, 8888.000
454.9330, 8899.000
456.1230, 8900.000
457.3120, 8787.000
458.5010, 8689.000
459.6910, 8661.826
460.8800, 8483.000
462.0680, 8547.000
463.2570, 8350.000
464.4460, 8243.000
465.6340, 8575.000
466.8220, 8553.000
468.0100, 8307.000
469.1980, 8313.000
470.3860, 8051.000
471.5730, 8149.000
472.7600, 7939.000
473.9480, 8266.000
475.1350, 8278.000
476.3210, 8093.000
477.5080, 8329.000
478.6950, 8131.000
479.8810, 8037.000
481.0670, 8151.000
482.2530, 8389.000
483.4390, 8523.000
484.6250, 8391.000
485.8100, 8301.000
486.9960, 8826.000
488.1810, 8653.658
489.3660, 8957.077
490.5510, 8673.000
491.7360, 9334.000
492.9200, 9184.000
494.1050, 9196.000
495.2890, 9566.000
496.4730, 10047.00
497.6570, 10333.00
498.8400, 10709.00
500.0240, 11019.00
501.2070, 11195.00
502.3910, 11326.00
503.5740, 11250.00
504.7570, 11216.00
505.9400, 11440.00
507.1220, 11341.00
508.3050, 11026.00
509.4870, 10548.00
510.6690, 10227.00
511.8510, 9883.000
513.0330, 9669.000
514.2140, 9345.000
515.3960, 9296.000
516.5770, 9153.000
517.7580, 9219.000
518.9390, 9112.000
520.1200, 9012.000
521.3010, 9168.000
522.4810, 9011.000
523.6610, 9027.000
524.8420, 8939.000
526.0220, 8820.000
527.2010, 8791.000
528.3810, 8677.000
529.5610, 8616.000
530.7400, 8554.000
531.9190, 8435.000
533.0980, 8282.000
534.2770, 8394.000
535.4560, 8436.000
536.6340, 8750.000
537.8120, 8492.000
538.9910, 8856.000
540.1690, 8741.000
541.3460, 8893.000
542.5240, 8970.000
543.7020, 8681.000
544.8790, 8721.000
546.0560, 8712.000
547.2330, 8705.000
548.4100, 8846.000
549.5870, 8849.000
550.7630, 8926.000
551.9400, 9407.000
553.1160, 9220.000
554.2920, 9362.000
555.4680, 9187.000
556.6440, 9241.000
557.8190, 9213.000
558.9950, 9378.000
560.1700, 9282.000
561.3450, 9609.000
562.5200, 9611.000
563.6950, 9589.000
564.8690, 9909.000
566.0440, 10059.00
567.2180, 9942.000
568.3920, 9737.000
569.5660, 9540.000
570.7400, 8987.000
571.9130, 8731.000
573.0870, 8338.000
574.2600, 8034.000
575.4330, 8072.000
576.6060, 8042.000
577.7790, 8136.000
578.9520, 7907.000
580.1240, 7783.000
581.2960, 7723.000
582.4690, 7685.000
583.6410, 7377.000
584.8120, 7191.000
585.9840, 7249.000
587.1560, 7105.000
588.3270, 7247.000
589.4980, 7147.000
590.6690, 7058.000
591.8400, 7013.000
593.0110, 7025.000
594.1810, 6718.000
595.3510, 6802.000
596.5220, 7006.000
597.6920, 6957.000
598.8610, 6739.000
600.0310, 6761.000
601.2010, 6722.000
602.3700, 6772.000
603.5390, 6800.000
604.7080, 6613.000
605.8770, 6531.000
607.0460, 6602.000
608.2140, 6615.000
609.3830, 6483.000
610.5510, 6447.000
611.7190, 6501.000
612.8870, 6474.000
614.0550, 6485.000
615.2220, 6572.000
616.3900, 6399.000
617.5570, 6517.000
618.7240, 6480.000
619.8910, 6604.000
621.0580, 6511.000
622.2240, 6454.000
623.3910, 6404.000
624.5570, 6390.000
625.7230, 6482.000
626.8890, 6376.000
628.0550, 6465.000
629.2200, 6563.000
630.3860, 6490.000
631.5510, 6468.000
632.7160, 6416.000
633.8810, 6405.911
635.0460, 6477.000
636.2100, 6426.000
637.3750, 6488.000
638.5390, 6558.000
639.7030, 6405.000
640.8670, 6460.000
642.0310, 6566.000
643.1950, 6355.000
644.3580, 6363.000
645.5210, 6400.000
646.6850, 6364.000
647.8480, 6389.562
649.0100, 6317.000
650.1730, 6408.000
651.3350, 6442.000
652.4980, 6464.000
653.6600, 6339.000
654.8220, 6412.000
655.9840, 6381.000
657.1450, 6468.000
658.3070, 6519.000
659.4680, 6301.000
660.6300, 6359.000
661.7910, 6396.000
662.9510, 6502.000
664.1120, 6419.000
665.2730, 6291.000
666.4330, 6436.000
667.5930, 6407.000
668.7530, 6422.000
669.9130, 6285.000
671.0730, 6391.000
672.2320, 6317.000
673.3920, 6348.000
674.5510, 6401.000
675.7100, 6445.000
676.8690, 6532.000
678.0280, 6416.000
679.1860, 6373.000
680.3450, 6401.000
681.5030, 6443.000
682.6610, 6468.000
683.8190, 6470.000
684.9770, 6437.000
686.1340, 6416.000
687.2920, 6371.000
688.4490, 6592.000
689.6060, 6563.000
690.7630, 6579.000
691.9200, 6474.000
693.0760, 6447.000
694.2330, 6546.000
695.3890, 6440.000
696.5450, 6506.000
697.7010, 6519.000
698.8570, 6359.000
700.0130, 6519.000
701.1680, 6489.000
702.3230, 6554.000
703.4780, 6473.000
704.6330, 6705.000
705.7880, 6513.000
706.9430, 6527.000
708.0970, 6680.000
709.2520, 6468.000
710.4060, 6706.000
711.5600, 6587.416
712.7140, 6530.000
713.8670, 6521.000
715.0210, 6534.000
716.1740, 6541.967
717.3270, 6559.537
718.4800, 6616.000
719.6330, 6624.000
720.7860, 6670.000
721.9380, 6741.000
723.0910, 6620.000
724.2430, 6552.000
725.3950, 6649.000
726.5470, 6559.000
727.6980, 6685.000
728.8500, 6757.000
730.0010, 6662.000
731.1530, 6623.000
732.3040, 6656.000
733.4550, 6807.000
734.6050, 6731.000
735.7560, 6831.000
736.9060, 6820.000
738.0560, 6870.000
739.2060, 6915.747
740.3560, 6890.000
741.5060, 6991.000
742.6560, 6937.862
743.8050, 6964.000
744.9540, 6879.000
746.1030, 7079.000
747.2520, 6963.000
748.4010, 6959.000
749.5500, 6876.000
750.6980, 7006.000
751.8460, 7007.000
752.9950, 7104.000
754.1420, 7157.000
755.2900, 7297.000
756.4380, 7106.000
757.5850, 7125.000
758.7330, 7163.000
759.8800, 7202.000
761.0270, 7262.000
762.1730, 7229.000
763.3200, 7335.000
764.4670, 7222.000
765.6130, 7277.000
766.7590, 7327.000
767.9050, 7343.000
769.0510, 7460.000
770.1960, 7377.000
771.3420, 7499.000
772.4870, 7384.000
773.6320, 7496.000
774.7770, 7523.000
775.9220, 7639.000
777.0670, 7619.000
778.2110, 7627.000
779.3560, 7777.000
780.5000, 7919.000
781.6440, 7909.000
782.7880, 8038.000
783.9320, 8177.000
785.0750, 8299.000
786.2180, 8475.000
787.3620, 8686.000
788.5050, 8655.000
789.6480, 9139.000
790.7900, 9229.000
791.9330, 9548.000
793.0750, 9901.000
794.2170, 10418.00
795.3590, 10973.00
796.5010, 11654.00
797.6430, 12410.00
798.7850, 13353.00
799.9260, 14661.00
801.0670, 16062.00
802.2080, 18088.00
803.3490, 20124.00
804.4900, 22898.00
805.6310, 26218.00
806.7710, 29438.00
807.9110, 32977.00
809.0510, 36447.00
810.1910, 39935.00
811.3310, 42615.00
812.4710, 44961.00
813.6100, 45924.00
814.7490, 46324.00
815.8880, 45683.00
817.0270, 44205.00
818.1660, 42599.00
819.3050, 40075.00
820.4430, 38246.00
821.5820, 36396.00
822.7200, 34596.00
823.8580, 33100.00
824.9950, 31930.00
826.1330, 30868.00
827.2710, 30127.00
828.4080, 29254.00
829.5450, 28807.00
830.6820, 28268.00
831.8190, 27952.00
832.9560, 27390.00
834.0920, 26982.00
835.2280, 26683.00
836.3650, 25890.00
837.5010, 25210.00
838.6360, 24598.00
839.7720, 23468.00
840.9080, 22583.00
842.0430, 21820.00
843.1780, 20656.00
844.3130, 19632.00
845.4480, 18478.00
846.5830, 17332.00
847.7170, 16315.00
848.8520, 15450.00
849.9860, 14543.00
851.1200, 13583.00
852.2540, 12950.00
853.3870, 12260.00
854.5210, 11692.00
855.6540, 11191.00
856.7880, 10706.00
857.9210, 10314.00
859.0540, 10052.00
860.1860, 9655.000
861.3190, 9441.000
862.4510, 9171.000
863.5840, 8850.000
864.7160, 8657.000
865.8480, 8574.000
866.9790, 9105.000
868.1110, 8653.326
869.2420, 9005.000
870.3740, 8199.000
871.5050, 8094.000
872.6360, 7909.000
873.7660, 7767.000
874.8970, 7832.000
876.0280, 7792.000
877.1580, 7728.000
878.2880, 7733.000
879.4180, 7744.000
880.5480, 7758.000
881.6770, 7642.000
882.8070, 7803.000
883.9360, 7606.000
885.0650, 7667.000
886.1940, 7693.000
887.3230, 7785.000
888.4520, 7790.000
889.5800, 7895.000
890.7090, 7804.000
891.8370, 7948.000
892.9650, 7865.000
894.0930, 8021.000
895.2200, 8146.000
896.3480, 8079.000
897.4750, 8089.000
898.6020, 8137.000
899.7290, 8131.000
900.8560, 8170.372
901.9830, 8285.000
903.1090, 8237.000
904.2360, 8240.000
905.3620, 8281.000
906.4880, 8155.000
907.6140, 8232.000
908.7400, 8257.000
909.8650, 8214.000
910.9900, 8275.000
912.1160, 8300.000
913.2410, 8395.000
914.3660, 8478.000
915.4900, 8564.000
916.6150, 8713.000
917.7390, 8899.000
918.8640, 8893.000
919.9880, 8956.000
921.1120, 9108.000
922.2350, 9287.000
923.3590, 9425.000
924.4820, 9493.000
925.6060, 9537.000
926.7290, 9711.000
927.8520, 9745.000
928.9740, 9818.000
930.0970, 9940.000
931.2190, 10164.00
932.3420, 10076.00
933.4640, 9986.000
934.5860, 10142.00
935.7080, 10005.00
936.8290, 9975.000
937.9510, 9994.000
939.0720, 9923.000
940.1930, 10005.00
941.3140, 9951.000
942.4350, 9800.000
943.5560, 9858.000
944.6760, 9793.000
945.7960, 9839.000
946.9170, 9836.000
948.0370, 9664.000
949.1560, 9577.000
950.2760, 9617.000
951.3960, 9597.000
952.5150, 9442.000
953.6340, 9453.000
954.7530, 9381.000
955.8720, 9416.000
956.9910, 9400.812
958.1090, 9322.000
959.2280, 9417.000
960.3460, 9351.000
961.4640, 9371.000
962.5820, 9111.000
963.6990, 9249.000
964.8170, 9170.000
965.9340, 9110.000
967.0510, 9170.000
968.1690, 9077.000
969.2850, 9012.000
970.4020, 9088.000
971.5190, 8970.000
972.6350, 8986.000
973.7510, 8908.000
974.8670, 8913.000
975.9830, 8911.000
977.0990, 8864.141
978.2150, 8913.000
979.3300, 8828.000
980.4450, 8765.000
981.5600, 8788.000
982.6750, 8781.000
983.7900, 8825.000
984.9050, 8861.000
986.0190, 8785.000
987.1340, 8706.000
988.2480, 8627.000
989.3620, 8639.000
990.4750, 8630.000
991.5890, 8646.000
992.7020, 8625.000
993.8160, 8477.000
994.9290, 8525.000
996.0420, 8370.000
997.1550, 8407.000
998.2670, 8619.000
999.3800, 8475.000
1000.492, 8462.000
1001.604, 8368.000
1002.716, 8470.000
1003.828, 8475.000
1004.940, 8448.000
1006.051, 8436.000
1007.163, 8462.000
1008.274, 8470.000
1009.385, 8352.000
1010.496, 8413.000
1011.606, 8262.000
1012.717, 8183.000
1013.827, 8214.000
1014.937, 8281.000
1016.047, 8286.000
1017.157, 8260.000
1018.267, 8245.000
1019.377, 8088.000
1020.486, 8185.000
1021.595, 8249.000
1022.704, 8158.000
1023.813, 8016.000
1024.922, 8111.000
1026.030, 8041.000
1027.139, 8083.000
1028.247, 8034.000
1029.355, 8016.000
1030.463, 8079.000
1031.571, 8139.000
1032.678, 7962.000
1033.786, 8030.000
1034.893, 8017.000
1036.000, 8156.000
1037.107, 8060.000
1038.214, 8051.000
1039.321, 7998.000
1040.427, 8000.000
1041.533, 8052.000
1042.639, 8104.000
1043.745, 8101.000
1044.851, 8050.000
1045.957, 8030.000
1047.062, 8044.000
1048.168, 8006.327
1049.273, 8015.000
1050.378, 7966.000
1051.482, 8029.000
1052.587, 8002.000
1053.692, 7960.000
1054.796, 7929.000
1055.900, 7919.000
1057.004, 7920.809
1058.108, 7945.000
1059.212, 7960.000
1060.315, 8025.000
1061.418, 8058.000
1062.522, 8071.322
1063.625, 8026.000
1064.728, 8052.000
1065.830, 8037.000
1066.933, 7934.000
1068.035, 7879.000
1069.137, 7887.000
1070.239, 7913.000
1071.341, 7977.000
1072.443, 8071.000
1073.545, 7926.000
1074.646, 8016.000
1075.747, 7972.000
1076.848, 7915.000
1077.949, 7818.000
1079.050, 7958.000
1080.150, 7899.000
1081.251, 7910.000
1082.351, 7965.000
1083.451, 7959.000
1084.551, 7957.616
1085.651, 7857.000
1086.750, 7912.000
1087.850, 7850.000
1088.949, 7796.000
1090.048, 7844.000
1091.147, 7906.000
1092.246, 7886.000
1093.345, 7915.000
1094.443, 7844.000
1095.541, 7861.000
1096.639, 7726.000
1097.737, 7826.000
1098.835, 7851.000
1099.933, 7776.000
1101.030, 7886.000
1102.128, 7813.000
1103.225, 7921.000
1104.322, 7826.000
1105.419, 7832.000
1106.515, 7860.000
1107.612, 7847.000
1108.708, 7799.000
1109.804, 7868.000
1110.900, 7845.000
1111.996, 7863.043
1113.092, 7718.000
1114.187, 7910.000
1115.283, 7759.000
1116.378, 7798.000
1117.473, 7897.000
1118.568, 7830.000
1119.662, 8002.000
1120.757, 7794.000
1121.851, 7945.000
1122.946, 7927.000
1124.040, 7891.000
1125.134, 7999.000
1126.227, 7944.000
1127.321, 7906.000
1128.414, 7913.000
1129.508, 8017.000
1130.601, 7875.000
1131.693, 7974.000
1132.786, 7936.000
1133.879, 8032.000
1134.971, 7842.000
1136.064, 7914.000
1137.156, 7884.000
1138.248, 7978.000
1139.339, 7912.000
1140.431, 8021.000
1141.522, 8063.000
1142.614, 7918.000
1143.705, 7923.000
1144.796, 7940.000
1145.887, 7918.000
1146.977, 7943.557
1148.068, 7958.000
1149.158, 7953.000
1150.248, 7975.000
1151.338, 7931.000
1152.428, 7874.000
1153.518, 7841.000
1154.607, 7945.000
1155.696, 7823.000
1156.785, 7777.000
1157.874, 7918.000
1158.963, 7816.000
1160.052, 7960.000
1161.141, 7837.000
1162.229, 7739.000
1163.317, 7858.000
1164.405, 7832.000
1165.493, 7801.000
1166.581, 7922.000
1167.668, 7706.000
1168.756, 7686.000
1169.843, 7767.000
1170.930, 7724.000
1172.017, 7859.000
1173.103, 7788.000
1174.190, 7810.000
1175.276, 7816.000
1176.363, 7703.000
1177.449, 7693.000
1178.535, 7732.000
1179.620, 7776.000
1180.706, 7709.000
1181.791, 7780.000
1182.877, 7777.000
1183.962, 7683.000
1185.047, 7695.000
1186.131, 7766.000
1187.216, 7715.000
1188.300, 7700.000
1189.385, 7701.000
1190.469, 7719.000
1191.553, 7717.000
1192.637, 7771.000
1193.720, 7685.000
1194.804, 7674.000
1195.887, 7701.000
1196.970, 7645.000
1198.053, 7667.000
1199.136, 7676.000
1200.219, 7740.000
1201.301, 7769.000
1202.383, 7727.000
1203.465, 7708.000
1204.547, 7697.000
1205.629, 7726.000
1206.711, 7702.270
1207.792, 7615.000
1208.874, 7688.000
1209.955, 7680.000
1211.036, 7676.000
1212.117, 7732.000
1213.198, 7754.000
1214.278, 7687.000
1215.359, 7646.000
1216.439, 7679.000
1217.519, 7869.000
1218.599, 7845.000
1219.678, 7761.000
1220.758, 7784.000
1221.837, 7710.000
1222.917, 7659.000
1223.996, 7818.000
1225.075, 7793.000
1226.153, 7760.000
1227.232, 7769.000
1228.310, 7765.000
1229.389, 7754.698
1230.467, 7761.587
1231.545, 7748.000
1232.622, 7762.000
1233.700, 7761.000
1234.777, 7755.000
1235.855, 7770.000
1236.932, 7708.000
1238.009, 7802.000
1239.086, 7737.000
1240.162, 7760.000
1241.239, 7808.000
1242.315, 7783.845
1243.391, 7812.000
1244.467, 7790.000
1245.543, 7751.000
1246.619, 7727.000
1247.694, 7774.000
1248.769, 7801.000
1249.844, 7862.000
1250.919, 7824.000
1251.994, 7884.000
1253.069, 7837.000
1254.144, 7852.000
1255.218, 7847.012
1256.292, 7835.000
1257.366, 7835.000
1258.440, 7866.000
1259.514, 7891.000
1260.587, 7763.000
1261.661, 7789.000
1262.734, 7922.000
1263.807, 7798.000
1264.880, 7716.000
1265.952, 7987.000
1267.025, 7898.000
1268.097, 7844.000
1269.170, 7866.000
1270.242, 7916.000
1271.314, 7880.000
1272.385, 7926.000
1273.457, 7909.000
1274.528, 7930.000
1275.600, 7877.000
1276.671, 7965.000
1277.742, 8024.000
1278.812, 7905.000
1279.883, 7900.000
1280.954, 7960.000
1282.024, 7923.000
1283.094, 8017.000
1284.164, 8045.000
1285.234, 7888.000
1286.303, 8043.000
1287.373, 8014.000
1288.442, 7893.000
1289.511, 7914.000
1290.580, 7948.000
1291.649, 7993.000
1292.718, 8002.000
1293.786, 8024.000
1294.855, 8044.138
1295.923, 7992.000
1296.991, 8057.000
1298.059, 8054.000
1299.126, 8025.000
1300.194, 7930.000
1301.261, 8024.000
1302.328, 7961.000
1303.395, 8027.000
1304.462, 8109.000
1305.529, 7971.000
1306.596, 7974.000
1307.662, 8100.000
1308.728, 8051.000
1309.794, 8098.000
1310.860, 8080.000
1311.926, 8024.000
1312.991, 8058.000
1314.057, 7997.000
1315.122, 8046.000
1316.187, 8051.460
1317.252, 8064.000
1318.317, 8101.000
1319.381, 8151.000
1320.446, 8186.000
1321.510, 8178.000
1322.574, 8199.000
1323.638, 8177.973
1324.702, 8263.000
1325.766, 8177.000
1326.829, 8092.000
1327.892, 8197.000
1328.956, 8202.000
1330.019, 8205.000
1331.081, 8198.000
1332.144, 8208.000
1333.206, 8220.451
1334.269, 8183.000
1335.331, 8253.000
1336.393, 8254.000
1337.455, 8262.000
1338.516, 8203.000
1339.578, 8262.000
1340.639, 8228.877
1341.701, 8190.000
1342.762, 8197.000
1343.822, 8221.000
1344.883, 8176.000
1345.944, 8293.000
1347.004, 8307.000
1348.064, 8387.000
1349.124, 8368.000
1350.184, 8350.000
1351.244, 8286.000
1352.304, 8346.000
1353.363, 8304.000
1354.422, 8330.000
1355.481, 8363.000
1356.540, 8312.000
1357.599, 8424.000
1358.657, 8301.000
1359.716, 8360.000
1360.774, 8384.000
1361.832, 8330.000
1362.890, 8312.000
1363.948, 8328.000
1365.006, 8476.000
1366.063, 8313.000
1367.120, 8358.000
1368.178, 8475.000
1369.234, 8323.000
1370.291, 8443.000
1371.348, 8343.000
1372.404, 8459.000
1373.461, 8359.000
1374.517, 8352.000
1375.573, 8379.000
1376.629, 8324.000
1377.684, 8278.000
1378.740, 8323.040
1379.795, 8405.000
1380.850, 8357.000
1381.905, 8422.000
1382.960, 8370.000
1384.015, 8333.000
1385.070, 8604.000
1386.124, 8354.000
1387.178, 8469.000
1388.232, 8499.000
1389.286, 8427.000
1390.340, 8508.000
1391.393, 8481.000
1392.447, 8358.000
1393.500, 8441.000
1394.553, 8465.000
1395.606, 8528.000
1396.659, 8431.000
1397.711, 8597.000
1398.764, 8475.000
1399.816, 8552.000
1400.868, 8508.000
1401.920, 8429.000
1402.972, 8599.000
1404.023, 8602.000
1405.075, 8536.000
1406.126, 8522.000
1407.177, 8573.000
1408.228, 8496.000
1409.279, 8514.000
1410.330, 8549.000
1411.380, 8504.000
1412.431, 8498.000
1413.481, 8579.000
1414.531, 8538.000
1415.580, 8494.000
1416.630, 8558.000
1417.680, 8647.000
1418.729, 8569.000
1419.778, 8606.000
1420.827, 8529.000
1421.876, 8476.000
1422.925, 8585.000
1423.973, 8543.000
1425.022, 8561.000
1426.070, 8607.000
1427.118, 8594.000
1428.166, 8594.000
1429.214, 8633.000
1430.261, 8551.000
1431.309, 8573.000
1432.356, 8612.000
1433.403, 8642.000
1434.450, 8625.000
1435.497, 8675.281
1436.543, 8670.000
1437.590, 8712.000
1438.636, 8650.000
1439.682, 8600.000
1440.728, 8729.000
1441.774, 8628.000
1442.819, 8582.000
1443.865, 8684.000
1444.910, 8773.000
1445.955, 8656.000
1447.000, 8787.000
1448.045, 8616.000
1449.090, 8737.000
1450.134, 8803.000
1451.178, 8708.000
1452.223, 8736.000
1453.267, 8806.000
1454.310, 8640.000
1455.354, 8717.000
1456.398, 8814.000
1457.441, 8680.000
1458.484, 8613.000
1459.527, 8754.000
1460.570, 8812.000
1461.613, 8697.000
1462.655, 8715.000
1463.698, 8834.000
1464.740, 8624.000
1465.782, 8771.000
1466.824, 8691.000
1467.866, 8759.000
1468.907, 8661.000
1469.948, 8745.000
1470.990, 8786.000
1472.031, 8751.000
1473.072, 8763.000
1474.112, 8751.158
1475.153, 8749.764
1476.194, 8723.000
1477.234, 8768.000
1478.274, 8771.000
1479.314, 8803.000
1480.354, 8742.000
1481.393, 8701.000
1482.433, 8766.000
1483.472, 8771.000
1484.511, 8665.000
1485.550, 8783.000
1486.589, 8771.000
1487.628, 8730.000
1488.666, 8772.000
1489.704, 8677.000
1490.743, 8822.000
1491.781, 8756.000
1492.819, 8724.000
1493.856, 8797.000
1494.894, 8769.000
1495.931, 8823.000
1496.968, 8844.000
1498.005, 8842.000
1499.042, 8689.000
1500.079, 8790.000
1501.115, 8755.000
1502.152, 8818.000
1503.188, 8843.000
1504.224, 8849.000
1505.260, 8899.000
1506.296, 8866.000
1507.331, 8860.000
1508.367, 8864.000
1509.402, 8848.421
1510.437, 8777.000
1511.472, 8818.000
1512.507, 8824.000
1513.541, 8762.000
1514.576, 8923.000
1515.610, 8846.000
1516.644, 8922.000
1517.678, 8790.000
1518.712, 9008.000
1519.746, 8829.000
1520.779, 8887.431
1521.813, 8770.000
1522.846, 8906.000
1523.879, 8940.000
1524.912, 8957.000
1525.944, 9005.000
1526.977, 9000.000
1528.009, 8922.000
1529.041, 8943.000
1530.073, 8892.000
1531.105, 8842.000
1532.137, 8837.000
1533.168, 8961.000
1534.200, 8880.000
1535.231, 8878.000
1536.262, 9016.000
1537.293, 8917.000
1538.324, 8954.000
1539.354, 8894.000
1540.385, 8959.000
1541.415, 8919.000
1542.445, 9052.000
1543.475, 8990.000
1544.505, 9105.000
1545.534, 8961.000
1546.564, 8898.000
1547.593, 8988.000
1548.622, 8926.000
1549.651, 8930.000
1550.680, 8964.000
1551.708, 9050.000
1552.737, 8894.000
1553.765, 9028.000
1554.793, 9004.000
1555.821, 8948.000
1556.849, 8953.000
1557.877, 8999.000
1558.904, 8988.000
1559.932, 8949.000
1560.959, 8931.000
1561.986, 8879.000
1563.013, 9095.000
1564.039, 8986.000
1565.066, 8965.000
1566.092, 8991.000
1567.119, 8898.000
1568.145, 8838.000
1569.170, 9004.000
1570.196, 8824.000
1571.222, 9028.000
1572.247, 9081.000
1573.272, 8959.000
1574.297, 8975.000
1575.322, 9068.000
1576.347, 9090.000
##END=



