##NAMES=Fayalite
##RRUFFID=R070293
##IDEAL CHEMISTRY=Fe^2+^_2_SiO_4_
##LOCALITY=Pike's Peak, Teller County, Colorado, USA
##OWNER=RRUFF
##SOURCE=Michael Scott
##DESCRIPTION=Black single crystal fragment with internal hints of red and green
##STATUS=The identification of this mineral has been confirmed by X-ray diffraction and chemical analysis
##URL=rruff.info/R070293
##MEASURED CHEMISTRY=(Fe^2+^_1.87_Mn^2+^_0.13_)_Î£=2_Si_1.00_O_4_ ; trace amounts of Mg
##PIN_ID=L01546
##ORIENTATION=Laser parallel to c* (0 0 1). Fiducial mark perpendicular to laser is parallel to a [1 0 0]
99.34400, 10239.00
100.5810, 10214.00
101.8190, 10178.00
103.0560, 10077.00
104.2930, 10224.00
105.5290, 10209.84
106.7660, 10441.00
108.0020, 10331.00
109.2390, 10453.00
110.4750, 10491.00
111.7110, 10291.00
112.9460, 10433.00
114.1820, 10445.00
115.4170, 10443.00
116.6530, 10522.00
117.8880, 10530.00
119.1230, 10377.00
120.3580, 10392.00
121.5920, 10394.00
122.8270, 10456.00
124.0610, 10540.00
125.2950, 10210.00
126.5290, 10135.00
127.7630, 10220.00
128.9970, 10277.00
130.2300, 10374.00
131.4640, 10338.32
132.6970, 10180.00
133.9300, 10248.00
135.1630, 10206.00
136.3950, 10147.00
137.6280, 10156.00
138.8600, 10320.00
140.0920, 10276.00
141.3240, 10451.00
142.5560, 10366.00
143.7880, 10460.00
145.0190, 10408.00
146.2510, 10590.00
147.4820, 10684.00
148.7130, 10911.00
149.9440, 11109.00
151.1750, 11238.00
152.4050, 11453.00
153.6360, 11628.00
154.8660, 11773.00
156.0960, 11505.00
157.3260, 11450.00
158.5560, 11012.00
159.7850, 10591.00
161.0150, 10526.00
162.2440, 10452.00
163.4730, 10527.00
164.7020, 10475.00
165.9310, 10465.15
167.1590, 10457.52
168.3880, 10435.00
169.6160, 10392.00
170.8440, 10387.00
172.0720, 10339.00
173.3000, 10381.00
174.5280, 10356.00
175.7550, 10278.00
176.9820, 10298.00
178.2100, 10199.00
179.4370, 10225.00
180.6630, 10291.00
181.8900, 10303.00
183.1170, 10396.00
184.3430, 10417.05
185.5690, 10483.00
186.7950, 10478.00
188.0210, 10469.00
189.2470, 10480.00
190.4720, 10592.00
191.6970, 10551.00
192.9230, 10448.00
194.1480, 10591.00
195.3730, 10695.00
196.5970, 10536.00
197.8220, 10656.00
199.0460, 10607.00
200.2700, 10488.00
201.4940, 10519.00
202.7180, 10399.00
203.9420, 10291.00
205.1660, 10178.00
206.3890, 10185.03
207.6120, 10081.00
208.8350, 10276.00
210.0580, 10139.00
211.2810, 10264.00
212.5040, 10256.00
213.7260, 10232.00
214.9480, 10306.00
216.1700, 10195.00
217.3920, 10300.00
218.6140, 10198.00
219.8360, 10181.00
221.0570, 10154.00
222.2790, 10320.00
223.5000, 10263.00
224.7210, 10248.00
225.9410, 10162.00
227.1620, 10133.00
228.3820, 10295.00
229.6030, 10336.00
230.8230, 10355.00
232.0430, 10259.00
233.2630, 10192.00
234.4820, 10415.00
235.7020, 10466.00
236.9210, 10323.00
238.1400, 10554.00
239.3590, 10527.00
240.5780, 10637.00
241.7970, 10542.00
243.0150, 10522.00
244.2340, 10391.00
245.4520, 10497.00
246.6700, 10484.00
247.8880, 10408.00
249.1060, 10459.00
250.3230, 10339.00
251.5400, 10388.00
252.7580, 10412.00
253.9750, 10298.00
255.1920, 10363.00
256.4080, 10337.00
257.6250, 10343.00
258.8410, 10379.00
260.0580, 10456.00
261.2740, 10548.00
262.4900, 10609.00
263.7050, 10499.00
264.9210, 10331.00
266.1360, 10584.00
267.3520, 10560.00
268.5670, 10710.00
269.7820, 10632.00
270.9960, 10756.00
272.2110, 10674.00
273.4250, 10739.00
274.6400, 10827.00
275.8540, 10859.00
277.0680, 10979.00
278.2810, 10954.00
279.4950, 11167.00
280.7090, 11225.00
281.9220, 11342.00
283.1350, 11517.00
284.3480, 11631.00
285.5610, 11675.00
286.7730, 11808.00
287.9860, 11813.00
289.1980, 11892.00
290.4100, 12036.00
291.6220, 12025.00
292.8340, 11972.00
294.0460, 11760.00
295.2570, 11793.00
296.4690, 11737.00
297.6800, 11490.00
298.8910, 11475.00
300.1020, 11387.00
301.3120, 11418.00
302.5230, 11239.00
303.7330, 11452.00
304.9440, 11207.00
306.1540, 11373.00
307.3630, 11442.00
308.5730, 11394.00
309.7830, 11295.00
310.9920, 11508.00
312.2010, 11431.00
313.4100, 11337.00
314.6190, 11417.00
315.8280, 11426.00
317.0370, 11305.00
318.2450, 11060.00
319.4530, 11242.00
320.6610, 11072.00
321.8690, 10961.00
323.0770, 10997.00
324.2850, 11125.00
325.4920, 10991.00
326.6990, 11000.00
327.9060, 10881.00
329.1130, 11039.00
330.3200, 11004.00
331.5270, 10894.00
332.7330, 10984.00
333.9390, 10779.00
335.1450, 10851.00
336.3510, 10891.00
337.5570, 10971.00
338.7630, 10915.00
339.9680, 10845.00
341.1740, 11043.00
342.3790, 10970.00
343.5840, 11049.00
344.7890, 11050.00
345.9930, 11066.00
347.1980, 11173.00
348.4020, 11169.00
349.6060, 11225.70
350.8100, 11310.00
352.0140, 11298.00
353.2180, 11345.00
354.4210, 11367.00
355.6250, 11500.00
356.8280, 11580.00
358.0310, 11577.00
359.2340, 11730.00
360.4360, 11897.00
361.6390, 11909.00
362.8410, 11913.00
364.0430, 12115.00
365.2450, 12226.00
366.4470, 12264.00
367.6490, 12200.00
368.8510, 12311.00
370.0520, 12336.00
371.2530, 12370.00
372.4540, 12380.00
373.6550, 12458.00
374.8560, 12404.00
376.0560, 12310.00
377.2570, 12357.00
378.4570, 12333.00
379.6570, 12311.00
380.8570, 12229.00
382.0570, 12152.00
383.2560, 12198.00
384.4560, 12143.00
385.6550, 11895.00
386.8540, 11920.00
388.0530, 11868.00
389.2520, 11958.00
390.4510, 11743.00
391.6490, 11749.41
392.8470, 11757.00
394.0450, 11646.00
395.2430, 11513.00
396.4410, 11533.00
397.6390, 11598.00
398.8360, 11350.00
400.0340, 11518.00
401.2310, 11222.00
402.4280, 11466.00
403.6250, 11301.00
404.8210, 11448.00
406.0180, 11237.00
407.2140, 11283.00
408.4100, 11276.00
409.6060, 11204.00
410.8020, 11305.00
411.9980, 11379.00
413.1930, 11331.00
414.3890, 11359.00
415.5840, 11382.00
416.7790, 11265.00
417.9740, 11281.00
419.1680, 11404.00
420.3630, 11197.00
421.5570, 11419.00
422.7510, 11362.00
423.9450, 11305.00
425.1390, 11322.00
426.3330, 11364.00
427.5270, 11329.00
428.7200, 11261.00
429.9130, 11327.00
431.1060, 11340.00
432.2990, 11413.00
433.4920, 11410.00
434.6840, 11406.00
435.8770, 11321.00
437.0690, 11299.00
438.2610, 11317.00
439.4530, 11236.00
440.6450, 11437.00
441.8360, 11294.00
443.0280, 11509.00
444.2190, 11429.00
445.4100, 11354.00
446.6010, 11514.00
447.7920, 11288.00
448.9820, 11485.00
450.1730, 11474.00
451.3630, 11448.00
452.5530, 11383.00
453.7430, 11441.00
454.9330, 11353.00
456.1230, 11377.00
457.3120, 11433.00
458.5010, 11544.00
459.6910, 11423.00
460.8800, 11497.00
462.0680, 11513.00
463.2570, 11482.00
464.4460, 11479.00
465.6340, 11485.00
466.8220, 11480.65
468.0100, 11411.00
469.1980, 11502.00
470.3860, 11492.00
471.5730, 11512.00
472.7600, 11589.00
473.9480, 11465.00
475.1350, 11426.00
476.3210, 11523.00
477.5080, 11646.00
478.6950, 11695.00
479.8810, 11615.00
481.0670, 11627.00
482.2530, 11608.00
483.4390, 11670.00
484.6250, 11626.00
485.8100, 11786.00
486.9960, 11720.00
488.1810, 11670.00
489.3660, 11863.00
490.5510, 11770.00
491.7360, 11828.00
492.9200, 11836.00
494.1050, 11761.00
495.2890, 11969.00
496.4730, 12029.00
497.6570, 12025.00
498.8400, 12187.00
500.0240, 12078.00
501.2070, 12366.00
502.3910, 12247.00
503.5740, 12342.00
504.7570, 12400.00
505.9400, 12495.00
507.1220, 12314.00
508.3050, 12356.00
509.4870, 12311.00
510.6690, 12314.00
511.8510, 12172.00
513.0330, 12288.00
514.2140, 12187.00
515.3960, 12309.00
516.5770, 12149.00
517.7580, 12139.00
518.9390, 12127.00
520.1200, 12173.00
521.3010, 12142.00
522.4810, 12101.00
523.6610, 12280.00
524.8420, 12132.00
526.0220, 12142.00
527.2010, 12255.00
528.3810, 12332.00
529.5610, 12238.00
530.7400, 12225.00
531.9190, 12214.00
533.0980, 12193.09
534.2770, 12200.77
535.4560, 12224.00
536.6340, 12222.00
537.8120, 12278.00
538.9910, 12308.00
540.1690, 12417.00
541.3460, 12452.00
542.5240, 12497.00
543.7020, 12435.00
544.8790, 12551.00
546.0560, 12487.00
547.2330, 12606.00
548.4100, 12683.00
549.5870, 12640.00
550.7630, 12744.00
551.9400, 12792.00
553.1160, 12930.00
554.2920, 12910.00
555.4680, 13122.00
556.6440, 13147.00
557.8190, 13077.00
558.9950, 13233.00
560.1700, 13265.00
561.3450, 13399.00
562.5200, 13483.00
563.6950, 13561.00
564.8690, 13692.00
566.0440, 13632.00
567.2180, 13524.00
568.3920, 13495.00
569.5660, 13580.00
570.7400, 13484.00
571.9130, 13485.00
573.0870, 13287.00
574.2600, 13527.00
575.4330, 13289.00
576.6060, 13156.00
577.7790, 13388.00
578.9520, 13287.00
580.1240, 13057.00
581.2960, 13197.00
582.4690, 13296.00
583.6410, 13025.00
584.8120, 13233.00
585.9840, 13150.00
587.1560, 13111.00
588.3270, 13067.00
589.4980, 13089.00
590.6690, 13038.00
591.8400, 13142.00
593.0110, 12968.00
594.1810, 12983.00
595.3510, 13062.00
596.5220, 12967.00
597.6920, 13014.00
598.8610, 12965.00
600.0310, 12889.00
601.2010, 12945.00
602.3700, 12915.00
603.5390, 12955.00
604.7080, 12903.00
605.8770, 13114.00
607.0460, 12894.00
608.2140, 13087.00
609.3830, 12895.00
610.5510, 12970.00
611.7190, 12940.00
612.8870, 13010.00
614.0550, 12946.00
615.2220, 13018.00
616.3900, 12830.00
617.5570, 12880.00
618.7240, 12904.00
619.8910, 13017.00
621.0580, 13087.00
622.2240, 12921.00
623.3910, 12965.00
624.5570, 13124.00
625.7230, 12992.00
626.8890, 13236.00
628.0550, 13010.00
629.2200, 13076.00
630.3860, 13003.00
631.5510, 13289.00
632.7160, 13074.00
633.8810, 13161.00
635.0460, 13134.00
636.2100, 13133.00
637.3750, 13193.00
638.5390, 13165.22
639.7030, 13139.00
640.8670, 13179.00
642.0310, 13119.00
643.1950, 13150.00
644.3580, 13207.00
645.5210, 13276.00
646.6850, 13311.00
647.8480, 13247.00
649.0100, 13249.00
650.1730, 13142.00
651.3350, 13269.00
652.4980, 13281.00
653.6600, 13140.00
654.8220, 13342.00
655.9840, 13236.00
657.1450, 13438.00
658.3070, 13254.00
659.4680, 13378.00
660.6300, 13221.00
661.7910, 13282.00
662.9510, 13247.00
664.1120, 13375.00
665.2730, 13262.00
666.4330, 13336.00
667.5930, 13355.00
668.7530, 13378.00
669.9130, 13418.60
671.0730, 13389.00
672.2320, 13446.00
673.3920, 13497.00
674.5510, 13458.00
675.7100, 13511.22
676.8690, 13525.00
678.0280, 13491.00
679.1860, 13573.00
680.3450, 13447.00
681.5030, 13566.00
682.6610, 13509.00
683.8190, 13634.00
684.9770, 13568.00
686.1340, 13572.00
687.2920, 13615.00
688.4490, 13654.00
689.6060, 13649.00
690.7630, 13540.00
691.9200, 13670.00
693.0760, 13636.00
694.2330, 13796.00
695.3890, 13602.00
696.5450, 13860.00
697.7010, 13719.00
698.8570, 13640.00
700.0130, 13850.00
701.1680, 13858.00
702.3230, 13657.00
703.4780, 13715.00
704.6330, 13747.00
705.7880, 13741.00
706.9430, 13646.00
708.0970, 13863.00
709.2520, 13930.00
710.4060, 13701.00
711.5600, 13828.00
712.7140, 13813.00
713.8670, 13950.00
715.0210, 13924.00
716.1740, 13945.00
717.3270, 13921.00
718.4800, 13980.00
719.6330, 14062.00
720.7860, 13927.00
721.9380, 13926.00
723.0910, 14077.00
724.2430, 14068.00
725.3950, 14029.00
726.5470, 13987.00
727.6980, 14010.00
728.8500, 14121.00
730.0010, 14073.00
731.1530, 14066.00
732.3040, 14214.00
733.4550, 14169.00
734.6050, 14069.00
735.7560, 14146.00
736.9060, 14179.00
738.0560, 14310.00
739.2060, 14183.00
740.3560, 14317.00
741.5060, 14323.00
742.6560, 14414.00
743.8050, 14365.00
744.9540, 14185.00
746.1030, 14303.00
747.2520, 14155.00
748.4010, 14305.00
749.5500, 14253.00
750.6980, 14443.00
751.8460, 14474.00
752.9950, 14499.00
754.1420, 14537.00
755.2900, 14372.00
756.4380, 14496.00
757.5850, 14413.00
758.7330, 14595.00
759.8800, 14515.00
761.0270, 14516.00
762.1730, 14527.00
763.3200, 14666.00
764.4670, 14594.00
765.6130, 14602.00
766.7590, 14727.00
767.9050, 14704.00
769.0510, 14745.00
770.1960, 14538.00
771.3420, 14802.00
772.4870, 14836.00
773.6320, 14593.00
774.7770, 14844.00
775.9220, 14848.00
777.0670, 15022.00
778.2110, 14933.00
779.3560, 15092.00
780.5000, 15033.00
781.6440, 15174.00
782.7880, 15393.00
783.9320, 15383.00
785.0750, 15344.00
786.2180, 15265.00
787.3620, 15552.00
788.5050, 15655.00
789.6480, 15849.00
790.7900, 15858.00
791.9330, 16110.00
793.0750, 16252.00
794.2170, 16550.00
795.3590, 16637.00
796.5010, 16920.00
797.6430, 17238.00
798.7850, 17599.00
799.9260, 18117.00
801.0670, 18655.00
802.2080, 19569.00
803.3490, 20490.00
804.4900, 21376.00
805.6310, 22373.00
806.7710, 23637.00
807.9110, 25241.00
809.0510, 26572.00
810.1910, 27680.00
811.3310, 28872.00
812.4710, 29468.00
813.6100, 30159.00
814.7490, 29925.00
815.8880, 29935.00
817.0270, 29134.00
818.1660, 28277.00
819.3050, 27374.00
820.4430, 26486.00
821.5820, 25728.00
822.7200, 25196.00
823.8580, 24628.00
824.9950, 24072.00
826.1330, 23777.00
827.2710, 23599.00
828.4080, 23253.00
829.5450, 23385.00
830.6820, 22959.00
831.8190, 23047.00
832.9560, 22994.00
834.0920, 22938.00
835.2280, 22720.00
836.3650, 22913.00
837.5010, 22378.00
838.6360, 22514.00
839.7720, 22233.00
840.9080, 22033.00
842.0430, 21543.00
843.1780, 21325.00
844.3130, 20689.00
845.4480, 20656.00
846.5830, 20019.00
847.7170, 19765.00
848.8520, 19529.00
849.9860, 19012.00
851.1200, 18650.00
852.2540, 18486.00
853.3870, 18029.00
854.5210, 17946.00
855.6540, 17643.00
856.7880, 17603.00
857.9210, 17306.00
859.0540, 17257.00
860.1860, 17131.00
861.3190, 16836.00
862.4510, 16775.00
863.5840, 16692.00
864.7160, 16732.00
865.8480, 16416.00
866.9790, 16304.00
868.1110, 16299.00
869.2420, 16328.00
870.3740, 16258.00
871.5050, 16372.00
872.6360, 16280.00
873.7660, 16325.00
874.8970, 16286.00
876.0280, 16293.00
877.1580, 16156.00
878.2880, 16254.00
879.4180, 16159.00
880.5480, 16185.00
881.6770, 16277.00
882.8070, 16168.00
883.9360, 16134.00
885.0650, 16199.00
886.1940, 16355.00
887.3230, 16220.00
888.4520, 16381.00
889.5800, 16312.00
890.7090, 16167.00
891.8370, 16509.00
892.9650, 16328.00
894.0930, 16332.00
895.2200, 16486.00
896.3480, 16368.00
897.4750, 16494.00
898.6020, 16476.00
899.7290, 16674.00
900.8560, 16629.00
901.9830, 16579.00
903.1090, 16561.00
904.2360, 16550.93
905.3620, 16634.00
906.4880, 16571.00
907.6140, 16566.00
908.7400, 16596.00
909.8650, 16436.00
910.9900, 16669.00
912.1160, 16636.00
913.2410, 16537.00
914.3660, 16553.00
915.4900, 16529.00
916.6150, 16596.68
917.7390, 16690.00
918.8640, 16740.00
919.9880, 16827.00
921.1120, 16786.00
922.2350, 16868.00
923.3590, 16843.00
924.4820, 17090.00
925.6060, 17139.00
926.7290, 17106.00
927.8520, 17064.00
928.9740, 17148.00
930.0970, 17047.00
931.2190, 17161.00
932.3420, 17119.00
933.4640, 17116.00
934.5860, 17056.00
935.7080, 17034.03
936.8290, 17040.39
937.9510, 17009.00
939.0720, 17073.00
940.1930, 17154.00
941.3140, 17204.00
942.4350, 17229.00
943.5560, 17247.00
944.6760, 17256.00
945.7960, 17114.00
946.9170, 16902.00
948.0370, 17158.00
949.1560, 17200.00
950.2760, 17319.00
951.3960, 17190.00
952.5150, 17069.00
953.6340, 17313.00
954.7530, 17245.00
955.8720, 17200.00
956.9910, 17407.00
958.1090, 17307.00
959.2280, 17408.00
960.3460, 17263.00
961.4640, 17261.00
962.5820, 17254.00
963.6990, 17240.00
964.8170, 17385.00
965.9340, 17386.00
967.0510, 17215.00
968.1690, 17432.00
969.2850, 17206.00
970.4020, 17188.00
971.5190, 17131.00
972.6350, 17182.00
973.7510, 17166.89
974.8670, 17025.00
975.9830, 17241.00
977.0990, 17267.00
978.2150, 17390.00
979.3300, 17330.00
980.4450, 17378.00
981.5600, 17427.00
982.6750, 17481.00
983.7900, 17423.00
984.9050, 17345.00
986.0190, 17285.00
987.1340, 17325.00
988.2480, 17466.00
989.3620, 17337.00
990.4750, 17495.00
991.5890, 17459.00
992.7020, 17416.00
993.8160, 17337.00
994.9290, 17325.00
996.0420, 17331.96
997.1550, 17393.00
998.2670, 17400.00
999.3800, 17437.00
1000.492, 17486.00
1001.604, 17551.00
1002.716, 17482.00
1003.828, 17425.00
1004.940, 17466.00
1006.051, 17505.00
1007.163, 17495.75
1008.274, 17552.04
1009.385, 17516.00
1010.496, 17598.00
1011.606, 17587.10
1012.717, 17533.00
1013.827, 17507.00
1014.937, 17521.28
1016.047, 17510.00
1017.157, 17552.00
1018.267, 17630.00
1019.377, 17635.00
1020.486, 17570.00
1021.595, 17655.00
1022.704, 17644.00
1023.813, 17551.00
1024.922, 17710.00
1026.030, 17585.00
1027.139, 17730.00
1028.247, 17571.00
1029.355, 17541.00
1030.463, 17744.00
1031.571, 17549.00
1032.678, 17658.00
1033.786, 17590.00
1034.893, 17698.00
1036.000, 17735.00
1037.107, 17891.00
1038.214, 17735.00
1039.321, 17585.00
1040.427, 17789.00
1041.533, 17815.00
1042.639, 17931.00
1043.745, 17814.00
1044.851, 17728.00
1045.957, 17891.00
1047.062, 17698.00
1048.168, 17778.00
1049.273, 18036.00
1050.378, 17960.00
1051.482, 18003.00
1052.587, 18046.00
1053.692, 17906.00
1054.796, 17968.00
1055.900, 17821.00
1057.004, 18026.00
1058.108, 17966.00
1059.212, 17977.00
1060.315, 18170.00
1061.418, 17947.00
1062.522, 18069.00
1063.625, 17996.00
1064.728, 17954.00
1065.830, 18243.00
1066.933, 18081.00
1068.035, 18093.00
1069.137, 18156.00
1070.239, 17995.00
1071.341, 18242.00
1072.443, 18242.00
1073.545, 18301.00
1074.646, 18300.00
1075.747, 18020.00
1076.848, 18089.00
1077.949, 18130.00
1079.050, 18185.00
1080.150, 18235.00
1081.251, 18248.14
1082.351, 18267.00
1083.451, 18321.00
1084.551, 18358.00
1085.651, 18507.00
1086.750, 18348.00
1087.850, 18465.00
1088.949, 18552.00
1090.048, 18259.00
1091.147, 18299.00
1092.246, 18468.00
1093.345, 18338.00
1094.443, 18405.00
1095.541, 18445.00
1096.639, 18452.00
1097.737, 18657.00
1098.835, 18548.00
1099.933, 18541.00
1101.030, 18745.00
1102.128, 18596.45
1103.225, 18632.19
1104.322, 18514.00
1105.419, 18565.00
1106.515, 18589.00
1107.612, 18613.00
1108.708, 18616.00
1109.804, 18494.00
1110.900, 18531.00
1111.996, 18526.00
1113.092, 18757.00
1114.187, 18620.00
1115.283, 18510.00
1116.378, 18802.00
1117.473, 18734.00
1118.568, 18788.00
1119.662, 18746.00
1120.757, 18731.00
1121.851, 18765.40
1122.946, 18913.00
1124.040, 18845.00
1125.134, 18870.00
1126.227, 18986.00
1127.321, 18951.00
1128.414, 18940.00
1129.508, 18956.00
1130.601, 18965.00
1131.693, 18949.01
1132.786, 18957.98
1133.879, 18930.00
1134.971, 18962.00
1136.064, 18974.00
1137.156, 18997.00
1138.248, 18972.00
1139.339, 19098.00
1140.431, 19161.00
1141.522, 19011.00
1142.614, 19121.00
1143.705, 19319.00
1144.796, 19118.00
1145.887, 19253.00
1146.977, 19163.00
1148.068, 19369.00
1149.158, 19248.00
1150.248, 19164.00
1151.338, 19038.00
1152.428, 19255.00
1153.518, 19287.00
1154.607, 19315.00
1155.696, 19265.00
1156.785, 19190.00
1157.874, 19400.00
1158.963, 19508.00
1160.052, 19386.00
1161.141, 19246.00
1162.229, 19241.00
1163.317, 19445.00
1164.405, 19375.00
1165.493, 19387.00
1166.581, 19339.00
1167.668, 19371.20
1168.756, 19406.00
1169.843, 19453.00
1170.930, 19455.00
1172.017, 19497.00
1173.103, 19472.00
1174.190, 19482.05
1175.276, 19435.00
1176.363, 19490.00
1177.449, 19445.00
1178.535, 19486.00
1179.620, 19407.00
1180.706, 19690.00
1181.791, 19624.00
1182.877, 19666.00
1183.962, 19483.00
1185.047, 19444.00
1186.131, 19624.00
1187.216, 19612.00
1188.300, 19638.00
1189.385, 19552.00
1190.469, 19659.00
1191.553, 19829.00
1192.637, 19567.00
1193.720, 19626.00
1194.804, 19720.00
1195.887, 19601.00
1196.970, 19562.00
1198.053, 19849.00
1199.136, 19708.00
1200.219, 20027.00
1201.301, 19938.00
1202.383, 19914.00
1203.465, 19853.00
1204.547, 19851.00
1205.629, 19796.00
1206.711, 19886.00
1207.792, 20003.00
1208.874, 19924.00
1209.955, 19864.00
1211.036, 19716.00
1212.117, 19732.00
1213.198, 19902.00
1214.278, 19892.00
1215.359, 20044.00
1216.439, 19993.00
1217.519, 20050.00
1218.599, 20038.00
1219.678, 20036.00
1220.758, 20158.00
1221.837, 20185.00
1222.917, 20112.00
1223.996, 20065.00
1225.075, 20083.00
1226.153, 20077.00
1227.232, 20103.00
1228.310, 20051.00
1229.389, 20368.00
1230.467, 20110.00
1231.545, 20121.00
1232.622, 20339.00
1233.700, 20199.00
1234.777, 20357.00
1235.855, 20295.00
1236.932, 20191.00
1238.009, 20261.00
1239.086, 20553.00
1240.162, 20338.00
1241.239, 20299.00
1242.315, 20474.00
1243.391, 20350.00
1244.467, 20414.00
1245.543, 20442.00
1246.619, 20277.00
1247.694, 20590.00
1248.769, 20497.00
1249.844, 20463.00
1250.919, 20492.00
1251.994, 20608.00
1253.069, 20647.00
1254.144, 20679.00
1255.218, 20622.00
1256.292, 20777.00
1257.366, 20505.00
1258.440, 20721.00
1259.514, 20562.00
1260.587, 20671.00
1261.661, 20674.00
1262.734, 20788.00
1263.807, 20593.00
1264.880, 20529.00
1265.952, 20699.00
1267.025, 20720.00
1268.097, 20791.00
1269.170, 20703.00
1270.242, 20803.00
1271.314, 20692.00
1272.385, 20835.00
1273.457, 20798.00
1274.528, 20923.00
1275.600, 21017.00
1276.671, 21007.00
1277.742, 20880.00
1278.812, 20924.00
1279.883, 20944.00
1280.954, 20958.00
1282.024, 20761.00
1283.094, 20775.00
1284.164, 20907.00
1285.234, 21096.00
1286.303, 21081.00
1287.373, 21016.00
1288.442, 21103.00
1289.511, 20927.00
1290.580, 20998.00
1291.649, 21225.00
1292.718, 21099.00
1293.786, 21112.00
1294.855, 21224.00
1295.923, 21026.00
1296.991, 21127.00
1298.059, 21165.00
1299.126, 21140.00
1300.194, 21093.00
1301.261, 21306.00
1302.328, 21331.00
1303.395, 21128.00
1304.462, 21306.00
1305.529, 21372.00
1306.596, 21184.00
1307.662, 21317.00
1308.728, 21317.00
1309.794, 21243.00
1310.860, 21145.00
1311.926, 21561.00
1312.991, 21355.00
1314.057, 21486.00
1315.122, 21703.00
1316.187, 21621.00
1317.252, 21415.00
1318.317, 21588.00
1319.381, 21570.00
1320.446, 21645.00
1321.510, 21681.00
1322.574, 21733.00
1323.638, 21608.00
1324.702, 21558.00
1325.766, 21494.00
1326.829, 21504.27
1327.892, 21762.00
1328.956, 21600.00
1330.019, 21682.00
1331.081, 21777.00
1332.144, 21669.00
1333.206, 21821.00
1334.269, 21708.00
1335.331, 21783.00
1336.393, 21797.00
1337.455, 21735.00
1338.516, 21582.00
1339.578, 21680.91
1340.639, 21750.00
1341.701, 21789.00
1342.762, 21904.00
1343.822, 21936.00
1344.883, 21808.00
1345.944, 22063.00
1347.004, 21944.00
1348.064, 21790.00
1349.124, 22243.00
1350.184, 22098.00
1351.244, 22008.00
1352.304, 22125.00
1353.363, 22051.00
1354.422, 22137.00
1355.481, 21938.00
1356.540, 21948.00
1357.599, 22201.00
1358.657, 22427.00
1359.716, 21918.00
1360.774, 22197.00
1361.832, 22229.00
1362.890, 21995.00
1363.948, 22045.00
1365.006, 22227.00
1366.063, 22232.00
1367.120, 22199.00
1368.178, 22409.00
1369.234, 22265.00
1370.291, 22264.00
1371.348, 22345.00
1372.404, 22207.00
1373.461, 22374.00
1374.517, 22367.00
1375.573, 22251.00
1376.629, 22396.00
1377.684, 22375.00
1378.740, 22333.00
1379.795, 22351.00
1380.850, 22353.00
1381.905, 22333.00
1382.960, 22259.00
1384.015, 22490.00
1385.070, 22337.00
1386.124, 22401.00
1387.178, 22641.00
1388.232, 22470.00
1389.286, 22406.00
1390.340, 22686.00
1391.393, 22539.00
1392.447, 22458.00
1393.500, 22554.00
1394.553, 22601.00
1395.606, 22549.00
1396.659, 22658.00
1397.711, 22567.00
1398.764, 22724.00
1399.816, 22602.00
1400.868, 22552.00
1401.920, 22702.00
1402.972, 22613.00
1404.023, 22693.00
1405.075, 22765.00
1406.126, 22907.00
1407.177, 22806.00
1408.228, 22684.00
1409.279, 22512.00
1410.330, 22567.00
1411.380, 22636.00
1412.431, 22826.00
1413.481, 22653.00
1414.531, 22856.00
1415.580, 22850.00
1416.630, 22709.00
1417.680, 22719.00
1418.729, 22846.00
1419.778, 22892.00
1420.827, 23013.00
1421.876, 23100.00
1422.925, 22921.00
1423.973, 22770.00
1425.022, 22978.00
1426.070, 23009.00
1427.118, 22847.00
1428.166, 22918.00
1429.214, 22888.00
1430.261, 23107.00
1431.309, 22990.00
1432.356, 22971.00
1433.403, 23157.00
1434.450, 23044.00
1435.497, 23063.00
1436.543, 23276.00
1437.590, 23219.00
1438.636, 23261.00
1439.682, 23020.00
1440.728, 23290.00
1441.774, 23277.00
1442.819, 23034.00
1443.865, 23454.00
1444.910, 23300.00
1445.955, 23297.00
1447.000, 23450.00
1448.045, 23173.00
1449.090, 23193.00
1450.134, 23298.00
1451.178, 23291.00
1452.223, 23266.00
1453.267, 23308.00
1454.310, 23330.11
1455.354, 23374.00
1456.398, 23418.00
1457.441, 23538.00
1458.484, 23575.54
1459.527, 23576.36
1460.570, 23597.00
1461.613, 23550.00
1462.655, 23500.00
1463.698, 23511.00
1464.740, 23442.00
1465.782, 23342.00
1466.824, 23427.00
1467.866, 23579.00
1468.907, 23542.00
1469.948, 23629.79
1470.990, 23647.40
1472.031, 23690.00
1473.072, 23643.00
1474.112, 23658.00
1475.153, 23614.00
1476.194, 23534.00
1477.234, 23548.00
1478.274, 23564.36
1479.314, 23611.00
1480.354, 23677.00
1481.393, 23662.00
1482.433, 23734.00
1483.472, 23763.00
1484.511, 23693.00
1485.550, 23757.00
1486.589, 23694.00
1487.628, 23818.00
1488.666, 23971.00
1489.704, 23681.00
1490.743, 23945.00
1491.781, 23913.00
1492.819, 23891.00
1493.856, 23940.00
1494.894, 23983.00
1495.931, 23877.00
1496.968, 24054.00
1498.005, 24039.00
1499.042, 24106.00
1500.079, 23896.00
1501.115, 24054.00
1502.152, 24180.00
1503.188, 24112.00
1504.224, 23839.00
1505.260, 24226.00
1506.296, 23895.00
1507.331, 24020.00
1508.367, 23989.00
1509.402, 24122.00
1510.437, 24161.00
1511.472, 24279.00
1512.507, 24254.00
1513.541, 24275.00
1514.576, 24231.00
1515.610, 24212.00
1516.644, 24161.00
1517.678, 24170.00
1518.712, 24046.00
1519.746, 24261.00
1520.779, 24553.00
1521.813, 24259.00
1522.846, 24242.00
1523.879, 24065.00
1524.912, 24249.00
1525.944, 24289.00
1526.977, 24500.00
1528.009, 24547.00
1529.041, 24470.00
1530.073, 24467.00
1531.105, 24482.00
1532.137, 24449.00
1533.168, 24410.00
1534.200, 24478.00
1535.231, 24576.00
1536.262, 24439.00
1537.293, 24599.00
1538.324, 24482.00
1539.354, 24601.00
1540.385, 24675.00
1541.415, 24707.00
1542.445, 24602.00
1543.475, 24659.00
1544.505, 24626.00
1545.534, 24686.52
1546.564, 24691.34
1547.593, 24811.00
1548.622, 24679.00
1549.651, 24640.00
1550.680, 24542.00
1551.708, 24734.00
1552.737, 24900.00
1553.765, 24815.00
1554.793, 24773.00
1555.821, 24923.00
1556.849, 24697.00
1557.877, 24651.00
1558.904, 24801.00
1559.932, 24715.00
1560.959, 24791.00
1561.986, 24690.00
1563.013, 24699.00
1564.039, 24777.00
1565.066, 24715.00
1566.092, 24683.00
1567.119, 24869.00
1568.145, 24835.00
1569.170, 24887.00
1570.196, 24948.00
1571.222, 24778.00
1572.247, 24804.00
1573.272, 24933.00
1574.297, 24864.00
1575.322, 24923.00
1576.347, 25000.00
##END=



