##NAMES=Fayalite
##RRUFFID=R070157
##IDEAL CHEMISTRY=Fe^2+^_2_SiO_4_
##LOCALITY=Coso Hot Springs, Inyo County, California, USA
##OWNER=RRUFF
##SOURCE=James Shigley
##DESCRIPTION=Brown transparent tabular crystals associated with fine grained quartz
##STATUS=The identification of this mineral is confirmed by single-crystal X-ray diffraction and chemical analysis.
##URL=rruff.info/R070157
##MEASURED CHEMISTRY=(Fe^2+^_1.88_Mn_0.11_Zn_0.01_)_Î£=2_Si_1.00_O_4_ ; trace amounts of Mg
##PIN_ID=M01877
##ORIENTATION=Laser parallel to c* (0 0 1). Fiducial mark perpendicular to laser is parallel to a [1 0 0]
96.86900, 17206.00
98.10600, 16809.00
99.34400, 16595.00
100.5810, 16865.00
101.8190, 16668.00
103.0560, 16531.00
104.2930, 16683.00
105.5290, 17150.00
106.7660, 18017.00
108.0020, 18290.00
109.2390, 17462.00
110.4750, 16818.00
111.7110, 16761.00
112.9460, 16910.00
114.1820, 17090.00
115.4170, 17330.00
116.6530, 17187.00
117.8880, 17427.00
119.1230, 17196.00
120.3580, 16788.00
121.5920, 16698.00
122.8270, 16775.00
124.0610, 16809.00
125.2950, 16042.00
126.5290, 15758.00
127.7630, 15857.00
128.9970, 15588.00
130.2300, 15598.00
131.4640, 15699.00
132.6970, 15552.00
133.9300, 15560.08
135.1630, 14967.00
136.3950, 15504.00
137.6280, 15466.00
138.8600, 15599.00
140.0920, 16014.00
141.3240, 15690.00
142.5560, 15358.00
143.7880, 15450.00
145.0190, 15624.00
146.2510, 15586.00
147.4820, 15833.00
148.7130, 16190.00
149.9440, 16852.00
151.1750, 17347.00
152.4050, 17668.00
153.6360, 17890.00
154.8660, 17586.00
156.0960, 17084.00
157.3260, 16802.00
158.5560, 16520.00
159.7850, 15946.00
161.0150, 15469.00
162.2440, 15473.00
163.4730, 15500.00
164.7020, 15473.00
165.9310, 15705.00
167.1590, 15890.00
168.3880, 16684.00
169.6160, 17089.00
170.8440, 17385.00
172.0720, 17472.00
173.3000, 17114.00
174.5280, 16800.00
175.7550, 16501.00
176.9820, 16018.00
178.2100, 15504.00
179.4370, 15096.00
180.6630, 15047.00
181.8900, 14602.00
183.1170, 14643.00
184.3430, 14343.00
185.5690, 14368.00
186.7950, 14705.00
188.0210, 14900.00
189.2470, 14788.00
190.4720, 14932.00
191.6970, 14913.00
192.9230, 15259.00
194.1480, 15111.00
195.3730, 14980.00
196.5970, 15136.00
197.8220, 15009.00
199.0460, 14817.00
200.2700, 14709.00
201.4940, 14536.73
202.7180, 14443.00
203.9420, 14144.00
205.1660, 14086.00
206.3890, 13744.00
207.6120, 13692.00
208.8350, 13684.00
210.0580, 13820.00
211.2810, 13743.71
212.5040, 13987.00
213.7260, 13745.00
214.9480, 13928.00
216.1700, 14021.00
217.3920, 14087.00
218.6140, 14037.00
219.8360, 14296.00
221.0570, 14351.00
222.2790, 14241.00
223.5000, 14374.00
224.7210, 14528.54
225.9410, 14762.00
227.1620, 15042.00
228.3820, 15628.00
229.6030, 16060.00
230.8230, 16431.00
232.0430, 16878.00
233.2630, 17492.00
234.4820, 17978.00
235.7020, 18464.00
236.9210, 18709.00
238.1400, 18802.00
239.3590, 18709.00
240.5780, 18398.00
241.7970, 18230.00
243.0150, 17758.00
244.2340, 17391.00
245.4520, 16749.00
246.6700, 16448.00
247.8880, 15876.00
249.1060, 15684.00
250.3230, 15463.00
251.5400, 14966.00
252.7580, 14566.00
253.9750, 14489.00
255.1920, 14331.00
256.4080, 14339.00
257.6250, 14621.00
258.8410, 14385.00
260.0580, 14349.00
261.2740, 13951.00
262.4900, 14070.00
263.7050, 13916.00
264.9210, 13626.00
266.1360, 13933.00
267.3520, 13982.00
268.5670, 13758.00
269.7820, 13857.00
270.9960, 13920.00
272.2110, 13717.00
273.4250, 13887.00
274.6400, 13991.00
275.8540, 14243.00
277.0680, 14339.00
278.2810, 14430.00
279.4950, 14691.00
280.7090, 14726.00
281.9220, 14996.00
283.1350, 15361.00
284.3480, 15162.00
285.5610, 15533.00
286.7730, 15662.00
287.9860, 15644.00
289.1980, 15752.00
290.4100, 15765.00
291.6220, 15918.00
292.8340, 15627.00
294.0460, 15587.00
295.2570, 15539.00
296.4690, 15166.00
297.6800, 15156.00
298.8910, 14920.00
300.1020, 15095.00
301.3120, 14904.00
302.5230, 14873.00
303.7330, 14942.00
304.9440, 14825.00
306.1540, 14936.00
307.3630, 14901.00
308.5730, 14764.00
309.7830, 14872.00
310.9920, 14894.00
312.2010, 14886.00
313.4100, 14897.00
314.6190, 14693.00
315.8280, 14785.00
317.0370, 14648.00
318.2450, 14625.00
319.4530, 14543.00
320.6610, 14465.00
321.8690, 14487.71
323.0770, 14402.00
324.2850, 14520.00
325.4920, 14572.00
326.6990, 14584.00
327.9060, 14613.00
329.1130, 14465.00
330.3200, 14668.00
331.5270, 14614.00
332.7330, 14623.00
333.9390, 14760.00
335.1450, 14785.00
336.3510, 14907.00
337.5570, 15057.00
338.7630, 15209.00
339.9680, 15304.00
341.1740, 15600.00
342.3790, 15692.00
343.5840, 15836.00
344.7890, 16154.00
345.9930, 16352.00
347.1980, 16754.00
348.4020, 16770.00
349.6060, 17365.00
350.8100, 17566.00
352.0140, 18050.00
353.2180, 18650.00
354.4210, 18917.00
355.6250, 19537.00
356.8280, 20198.00
358.0310, 20924.00
359.2340, 21586.00
360.4360, 22235.00
361.6390, 22777.00
362.8410, 23616.00
364.0430, 24019.00
365.2450, 24851.00
366.4470, 25093.00
367.6490, 25600.00
368.8510, 25600.00
370.0520, 25839.00
371.2530, 25660.00
372.4540, 25074.00
373.6550, 24582.00
374.8560, 24088.00
376.0560, 23333.00
377.2570, 22579.00
378.4570, 21589.00
379.6570, 20839.00
380.8570, 20216.00
382.0570, 19493.00
383.2560, 18635.00
384.4560, 17897.00
385.6550, 17336.00
386.8540, 16760.00
388.0530, 16204.00
389.2520, 15710.00
390.4510, 15255.92
391.6490, 14811.00
392.8470, 14468.00
394.0450, 14205.00
395.2430, 13899.00
396.4410, 13533.00
397.6390, 13302.00
398.8360, 12841.00
400.0340, 12836.00
401.2310, 12668.00
402.4280, 12325.00
403.6250, 12352.00
404.8210, 12188.00
406.0180, 11998.00
407.2140, 11885.00
408.4100, 11801.00
409.6060, 11708.00
410.8020, 11652.00
411.9980, 11718.00
413.1930, 11527.00
414.3890, 11408.00
415.5840, 11486.00
416.7790, 11228.00
417.9740, 11344.00
419.1680, 11332.00
420.3630, 11453.00
421.5570, 11255.00
422.7510, 11241.00
423.9450, 11124.00
425.1390, 11168.00
426.3330, 11356.00
427.5270, 11064.00
428.7200, 11172.00
429.9130, 11160.00
431.1060, 11020.00
432.2990, 11127.00
433.4920, 11168.00
434.6840, 11144.00
435.8770, 11239.00
437.0690, 11241.62
438.2610, 11282.18
439.4530, 11273.00
440.6450, 11308.00
441.8360, 11270.00
443.0280, 11164.00
444.2190, 11106.00
445.4100, 11241.00
446.6010, 11445.00
447.7920, 11233.00
448.9820, 11305.00
450.1730, 11269.00
451.3630, 11162.00
452.5530, 11252.00
453.7430, 11347.00
454.9330, 11281.00
456.1230, 11362.40
457.3120, 11438.00
458.5010, 11366.00
459.6910, 11408.00
460.8800, 11326.00
462.0680, 11347.00
463.2570, 11509.00
464.4460, 11501.00
465.6340, 11490.00
466.8220, 11644.00
468.0100, 11705.00
469.1980, 11735.00
470.3860, 11678.00
471.5730, 11671.00
472.7600, 11715.92
473.9480, 11726.21
475.1350, 11801.00
476.3210, 11883.00
477.5080, 11908.00
478.6950, 12113.00
479.8810, 12038.00
481.0670, 12149.00
482.2530, 12404.00
483.4390, 12467.00
484.6250, 12779.00
485.8100, 12638.00
486.9960, 13050.00
488.1810, 13246.00
489.3660, 13699.00
490.5510, 13748.00
491.7360, 14224.00
492.9200, 14684.00
494.1050, 15302.00
495.2890, 16033.00
496.4730, 16758.00
497.6570, 17815.00
498.8400, 18740.00
500.0240, 20145.00
501.2070, 21487.00
502.3910, 22744.00
503.5740, 24024.00
504.7570, 24992.00
505.9400, 25672.00
507.1220, 25891.00
508.3050, 25319.00
509.4870, 24843.00
510.6690, 23915.00
511.8510, 22654.00
513.0330, 21567.00
514.2140, 20529.00
515.3960, 19450.00
516.5770, 18746.00
517.7580, 17911.00
518.9390, 17308.00
520.1200, 16548.00
521.3010, 16252.00
522.4810, 15934.00
523.6610, 15415.00
524.8420, 15274.00
526.0220, 15031.00
527.2010, 14993.00
528.3810, 14813.00
529.5610, 14705.00
530.7400, 14504.00
531.9190, 14398.00
533.0980, 14434.00
534.2770, 14282.00
535.4560, 14292.00
536.6340, 14331.21
537.8120, 14232.00
538.9910, 14467.00
540.1690, 14507.00
541.3460, 14604.00
542.5240, 14621.00
543.7020, 14681.00
544.8790, 14777.00
546.0560, 14972.00
547.2330, 15094.29
548.4100, 15362.00
549.5870, 15444.00
550.7630, 15590.00
551.9400, 15765.00
553.1160, 16122.00
554.2920, 16248.00
555.4680, 16630.00
556.6440, 16541.00
557.8190, 16843.00
558.9950, 17252.00
560.1700, 17116.00
561.3450, 17210.00
562.5200, 17301.00
563.6950, 17227.00
564.8690, 17061.00
566.0440, 17093.00
567.2180, 16859.00
568.3920, 16341.00
569.5660, 16129.00
570.7400, 15916.00
571.9130, 15772.00
573.0870, 15528.00
574.2600, 15070.00
575.4330, 14779.00
576.6060, 14546.00
577.7790, 14313.00
578.9520, 14052.00
580.1240, 13920.00
581.2960, 13723.00
582.4690, 13436.00
583.6410, 13385.00
584.8120, 13215.00
585.9840, 12954.00
587.1560, 12759.00
588.3270, 12825.00
589.4980, 12572.00
590.6690, 12507.00
591.8400, 12572.00
593.0110, 12420.00
594.1810, 12368.00
595.3510, 12367.00
596.5220, 12327.00
597.6920, 12357.00
598.8610, 12244.00
600.0310, 12104.00
601.2010, 12214.00
602.3700, 12102.00
603.5390, 12035.00
604.7080, 11885.00
605.8770, 11818.00
607.0460, 11805.00
608.2140, 11768.00
609.3830, 11587.00
610.5510, 11480.00
611.7190, 11586.00
612.8870, 11362.00
614.0550, 11465.00
615.2220, 11427.00
616.3900, 11283.00
617.5570, 11300.00
618.7240, 11331.00
619.8910, 11297.00
621.0580, 11190.00
622.2240, 11253.00
623.3910, 11212.00
624.5570, 10979.00
625.7230, 11241.00
626.8890, 11175.00
628.0550, 11032.00
629.2200, 11220.00
630.3860, 11349.00
631.5510, 11250.00
632.7160, 11252.00
633.8810, 11098.00
635.0460, 11212.00
636.2100, 11339.00
637.3750, 11191.00
638.5390, 11288.00
639.7030, 11180.00
640.8670, 11194.00
642.0310, 11225.00
643.1950, 11320.00
644.3580, 11347.00
645.5210, 11302.00
646.6850, 11313.00
647.8480, 11299.00
649.0100, 11251.99
650.1730, 11236.00
651.3350, 11173.00
652.4980, 11180.00
653.6600, 11168.17
654.8220, 11178.71
655.9840, 11261.00
657.1450, 11247.00
658.3070, 11295.00
659.4680, 11360.00
660.6300, 11349.00
661.7910, 11259.00
662.9510, 11411.00
664.1120, 11464.00
665.2730, 11297.00
666.4330, 11453.00
667.5930, 11517.00
668.7530, 11540.00
669.9130, 11720.00
671.0730, 11665.00
672.2320, 11601.00
673.3920, 11785.00
674.5510, 11792.00
675.7100, 11791.00
676.8690, 11886.00
678.0280, 11750.00
679.1860, 11827.00
680.3450, 11937.00
681.5030, 12034.00
682.6610, 12159.00
683.8190, 12241.00
684.9770, 12065.00
686.1340, 12121.00
687.2920, 12215.00
688.4490, 12152.00
689.6060, 12192.00
690.7630, 12353.00
691.9200, 12261.00
693.0760, 12315.00
694.2330, 12180.00
695.3890, 12436.00
696.5450, 12287.00
697.7010, 12368.00
698.8570, 12395.00
700.0130, 12322.04
701.1680, 12222.00
702.3230, 12361.00
703.4780, 12194.00
704.6330, 12439.00
705.7880, 12533.00
706.9430, 12528.00
708.0970, 12510.00
709.2520, 12621.00
710.4060, 12636.00
711.5600, 12734.00
712.7140, 12831.00
713.8670, 12909.00
715.0210, 13027.00
716.1740, 13063.00
717.3270, 13036.00
718.4800, 13171.00
719.6330, 13168.00
720.7860, 13245.00
721.9380, 13253.00
723.0910, 13280.00
724.2430, 13281.00
725.3950, 13386.00
726.5470, 13432.00
727.6980, 13476.00
728.8500, 13431.00
730.0010, 13752.00
731.1530, 13871.00
732.3040, 13785.00
733.4550, 13967.00
734.6050, 14023.00
735.7560, 14310.00
736.9060, 14219.00
738.0560, 14482.00
739.2060, 14545.00
740.3560, 14560.00
741.5060, 14734.00
742.6560, 14888.00
743.8050, 14843.00
744.9540, 14797.00
746.1030, 14949.00
747.2520, 15019.00
748.4010, 14794.00
749.5500, 14879.00
750.6980, 14869.00
751.8460, 14822.00
752.9950, 14939.00
754.1420, 14983.00
755.2900, 14912.00
756.4380, 15003.00
757.5850, 15025.00
758.7330, 15011.00
759.8800, 15107.00
761.0270, 15175.00
762.1730, 15203.00
763.3200, 15411.00
764.4670, 15471.00
765.6130, 15696.00
766.7590, 15682.00
767.9050, 15735.00
769.0510, 15957.00
770.1960, 16051.00
771.3420, 16164.00
772.4870, 16389.00
773.6320, 16680.00
774.7770, 16885.00
775.9220, 17057.00
777.0670, 17349.00
778.2110, 17526.00
779.3560, 18053.00
780.5000, 18113.00
781.6440, 18744.00
782.7880, 19051.00
783.9320, 19672.00
785.0750, 20071.00
786.2180, 20806.00
787.3620, 21380.00
788.5050, 22313.00
789.6480, 23180.00
790.7900, 24450.00
791.9330, 25567.00
793.0750, 26758.00
794.2170, 28732.00
795.3590, 30606.00
796.5010, 32652.00
797.6430, 35628.00
798.7850, 38657.00
799.9260, 42905.00
801.0670, 47653.00
802.2080, 53375.00
803.3490, 61003.00
804.4900, 69489.00
805.6310, 80514.00
806.7710, 92567.00
807.9110, 106508.0
809.0510, 120190.0
810.1910, 135048.0
811.3310, 147601.0
812.4710, 157822.0
813.6100, 164683.0
814.7490, 166539.0
815.8880, 166511.0
817.0270, 162010.0
818.1660, 155910.0
819.3050, 147732.0
820.4430, 140687.0
821.5820, 132215.0
822.7200, 125474.0
823.8580, 119330.0
824.9950, 114375.0
826.1330, 110178.0
827.2710, 106918.0
828.4080, 104442.0
829.5450, 102336.0
830.6820, 100860.0
831.8190, 100448.0
832.9560, 99392.00
834.0920, 98537.00
835.2280, 98285.00
836.3650, 97515.00
837.5010, 96148.00
838.6360, 94477.61
839.7720, 92965.00
840.9080, 89702.00
842.0430, 86289.00
843.1780, 82898.00
844.3130, 78188.00
845.4480, 73572.00
846.5830, 69387.00
847.7170, 64551.00
848.8520, 59594.00
849.9860, 55442.00
851.1200, 50818.00
852.2540, 47364.00
853.3870, 43640.00
854.5210, 40648.00
855.6540, 37857.00
856.7880, 35464.00
857.9210, 32976.00
859.0540, 31304.00
860.1860, 29350.00
861.3190, 27756.00
862.4510, 26498.00
863.5840, 25272.00
864.7160, 24358.00
865.8480, 23364.00
866.9790, 22649.00
868.1110, 21744.00
869.2420, 21423.00
870.3740, 20699.00
871.5050, 20460.00
872.6360, 20131.00
873.7660, 19734.00
874.8970, 19425.00
876.0280, 19369.00
877.1580, 19028.00
878.2880, 19017.00
879.4180, 18580.00
880.5480, 18663.00
881.6770, 18611.00
882.8070, 18461.00
883.9360, 18387.00
885.0650, 18273.00
886.1940, 18429.00
887.3230, 18444.00
888.4520, 18505.00
889.5800, 18433.00
890.7090, 18470.00
891.8370, 18565.00
892.9650, 18596.00
894.0930, 18619.84
895.2200, 18688.21
896.3480, 18659.00
897.4750, 18782.00
898.6020, 18850.00
899.7290, 18889.00
900.8560, 19025.00
901.9830, 18985.00
903.1090, 19127.00
904.2360, 19070.00
905.3620, 19241.00
906.4880, 19011.00
907.6140, 19245.00
908.7400, 19412.00
909.8650, 19523.00
910.9900, 19779.00
912.1160, 19980.71
913.2410, 19999.00
914.3660, 20555.00
915.4900, 20756.00
916.6150, 21206.00
917.7390, 21718.00
918.8640, 22166.00
919.9880, 22836.00
921.1120, 23170.00
922.2350, 23605.00
923.3590, 24311.00
924.4820, 24920.00
925.6060, 25387.78
926.7290, 25946.00
927.8520, 26280.00
928.9740, 26615.00
930.0970, 26851.00
931.2190, 26854.00
932.3420, 27122.00
933.4640, 27237.00
934.5860, 27437.00
935.7080, 27371.00
936.8290, 27140.00
937.9510, 26962.00
939.0720, 26903.00
940.1930, 26848.00
941.3140, 26554.00
942.4350, 26491.00
943.5560, 25981.00
944.6760, 25989.00
945.7960, 25738.00
946.9170, 25512.00
948.0370, 25359.00
949.1560, 25110.00
950.2760, 24815.00
951.3960, 24673.00
952.5150, 24420.00
953.6340, 24625.00
954.7530, 24412.00
955.8720, 24375.00
956.9910, 23915.00
958.1090, 24030.00
959.2280, 23741.00
960.3460, 23394.00
961.4640, 23380.00
962.5820, 23179.00
963.6990, 23163.00
964.8170, 23276.00
965.9340, 22869.00
967.0510, 22712.00
968.1690, 22496.00
969.2850, 22600.00
970.4020, 22497.00
971.5190, 22287.00
972.6350, 22236.09
973.7510, 22128.50
974.8670, 21966.00
975.9830, 21974.00
977.0990, 21929.00
978.2150, 21829.00
979.3300, 21668.00
980.4450, 21683.00
981.5600, 21366.00
982.6750, 21448.00
983.7900, 21634.00
984.9050, 21355.00
986.0190, 21164.00
987.1340, 21175.56
988.2480, 21038.96
989.3620, 21021.00
990.4750, 20934.00
991.5890, 20842.00
992.7020, 20668.00
993.8160, 20565.00
994.9290, 20550.00
996.0420, 20484.00
997.1550, 20561.00
998.2670, 20413.00
999.3800, 20486.00
1000.492, 20288.00
1001.604, 20236.00
1002.716, 19858.00
1003.828, 20157.00
1004.940, 19968.00
1006.051, 20062.00
1007.163, 19937.00
1008.274, 19819.00
1009.385, 19648.00
1010.496, 19586.33
1011.606, 19532.00
1012.717, 19461.00
1013.827, 19468.00
1014.937, 19451.12
1016.047, 19451.00
1017.157, 19377.00
1018.267, 19221.00
1019.377, 19119.00
1020.486, 19184.00
1021.595, 19138.00
1022.704, 19120.00
1023.813, 18987.00
1024.922, 19007.00
1026.030, 18776.00
1027.139, 18800.00
1028.247, 18760.00
1029.355, 18889.00
1030.463, 18726.00
1031.571, 18798.00
1032.678, 18846.00
1033.786, 18761.00
1034.893, 18813.00
1036.000, 18678.00
1037.107, 18700.00
1038.214, 18622.00
1039.321, 18610.00
1040.427, 18677.00
1041.533, 18531.00
1042.639, 18407.00
1043.745, 18572.00
1044.851, 18561.00
1045.957, 18507.00
1047.062, 18446.00
1048.168, 18319.00
1049.273, 18406.00
1050.378, 18489.00
1051.482, 18326.00
1052.587, 18423.00
1053.692, 18589.00
1054.796, 18318.00
1055.900, 18402.00
1057.004, 18552.00
1058.108, 18204.00
1059.212, 18396.00
1060.315, 18412.00
1061.418, 18461.00
1062.522, 18341.00
1063.625, 18499.00
1064.728, 18263.00
1065.830, 18292.00
1066.933, 18283.00
1068.035, 18272.00
1069.137, 18290.00
1070.239, 18463.00
1071.341, 18283.00
1072.443, 18358.00
1073.545, 18335.00
1074.646, 18178.00
1075.747, 18274.00
1076.848, 18397.00
1077.949, 18115.00
1079.050, 18181.00
1080.150, 18073.00
1081.251, 18110.00
1082.351, 18121.00
1083.451, 18089.00
1084.551, 18101.00
1085.651, 18104.00
1086.750, 18055.00
1087.850, 18018.00
1088.949, 18017.00
1090.048, 17915.00
1091.147, 17934.00
1092.246, 17937.00
1093.345, 17710.00
1094.443, 17758.00
1095.541, 17763.00
1096.639, 17805.00
1097.737, 17778.00
1098.835, 17780.95
1099.933, 17785.32
1101.030, 17782.00
1102.128, 17781.00
1103.225, 17850.00
1104.322, 17860.00
1105.419, 17947.00
1106.515, 17762.00
1107.612, 17643.00
1108.708, 17727.00
1109.804, 17827.00
1110.900, 17628.00
1111.996, 17726.00
1113.092, 17730.00
1114.187, 17705.97
1115.283, 17881.00
1116.378, 17745.00
1117.473, 17863.00
1118.568, 17868.00
1119.662, 17889.00
1120.757, 17909.00
1121.851, 17730.00
1122.946, 17800.00
1124.040, 17715.00
1125.134, 17798.87
1126.227, 17874.05
1127.321, 18004.00
1128.414, 18029.00
1129.508, 18087.00
1130.601, 18037.00
1131.693, 18157.00
1132.786, 18145.00
1133.879, 18151.00
1134.971, 18013.00
1136.064, 18139.00
1137.156, 18163.00
1138.248, 18091.00
1139.339, 18206.00
1140.431, 17958.00
1141.522, 17989.00
1142.614, 18007.00
1143.705, 18075.00
1144.796, 18000.00
1145.887, 18011.31
1146.977, 18015.98
1148.068, 17943.00
1149.158, 17946.00
1150.248, 17906.00
1151.338, 17891.39
1152.428, 17915.00
1153.518, 17843.00
1154.607, 17860.00
1155.696, 17766.00
1156.785, 17729.77
1157.874, 17709.06
1158.963, 17573.00
1160.052, 17581.00
1161.141, 17405.00
1162.229, 17170.00
1163.317, 17312.00
1164.405, 17269.00
1165.493, 17069.00
1166.581, 17249.00
1167.668, 17329.00
1168.756, 17112.00
1169.843, 17113.00
1170.930, 16971.00
1172.017, 17052.00
1173.103, 16943.00
1174.190, 16870.00
1175.276, 16914.00
1176.363, 16748.00
1177.449, 16859.00
1178.535, 16739.00
1179.620, 16674.00
1180.706, 16773.00
1181.791, 16734.00
1182.877, 16874.00
1183.962, 16821.00
1185.047, 16607.00
1186.131, 16645.00
1187.216, 16567.00
1188.300, 16591.00
1189.385, 16481.00
1190.469, 16470.00
1191.553, 16410.04
1192.637, 16439.93
1193.720, 16346.00
1194.804, 16523.00
1195.887, 16638.00
1196.970, 16649.00
1198.053, 16438.00
1199.136, 16350.00
1200.219, 16503.00
1201.301, 16312.00
1202.383, 16328.00
1203.465, 16522.00
1204.547, 16597.00
1205.629, 16434.00
1206.711, 16426.00
1207.792, 16459.00
1208.874, 16405.00
1209.955, 16359.00
1211.036, 16346.00
1212.117, 16346.00
1213.198, 16327.59
1214.278, 16318.00
1215.359, 16289.00
1216.439, 16344.00
1217.519, 16261.00
1218.599, 16347.00
1219.678, 16192.00
1220.758, 16308.00
1221.837, 16414.00
1222.917, 16438.00
1223.996, 16309.00
1225.075, 16414.00
1226.153, 16401.00
1227.232, 16456.00
1228.310, 16218.00
1229.389, 16425.00
1230.467, 16481.39
1231.545, 16890.00
1232.622, 16650.00
1233.700, 16748.57
1234.777, 16500.63
1235.855, 16444.00
1236.932, 16340.00
1238.009, 16385.00
1239.086, 16308.00
1240.162, 16333.00
1241.239, 16306.00
1242.315, 16204.00
1243.391, 16402.00
1244.467, 16328.00
1245.543, 16284.00
1246.619, 16427.00
1247.694, 16456.00
1248.769, 16399.00
1249.844, 16502.00
1250.919, 16312.00
1251.994, 16470.00
1253.069, 16291.00
1254.144, 16304.00
1255.218, 16382.00
1256.292, 16337.00
1257.366, 16382.00
1258.440, 16331.00
1259.514, 16613.00
1260.587, 16506.00
1261.661, 16434.00
1262.734, 16312.00
1263.807, 16632.00
1264.880, 16421.00
1265.952, 16529.00
1267.025, 16384.00
1268.097, 16335.00
1269.170, 16346.00
1270.242, 16512.00
1271.314, 16431.00
1272.385, 16456.00
1273.457, 16491.00
1274.528, 16499.00
1275.600, 16544.89
1276.671, 16530.00
1277.742, 16596.00
1278.812, 16589.00
1279.883, 16546.00
1280.954, 16504.00
1282.024, 16507.00
1283.094, 16458.34
1284.164, 16451.25
1285.234, 16427.00
1286.303, 16448.00
1287.373, 16509.00
1288.442, 16560.00
1289.511, 16708.00
1290.580, 16665.00
1291.649, 16638.00
1292.718, 16611.00
1293.786, 16498.00
1294.855, 16501.00
1295.923, 16473.00
1296.991, 16430.00
1298.059, 16499.98
1299.126, 16568.00
1300.194, 16655.00
1301.261, 16643.00
1302.328, 16761.00
1303.395, 16676.00
1304.462, 16691.00
1305.529, 16823.00
1306.596, 16564.00
1307.662, 16792.00
1308.728, 16710.00
1309.794, 16728.00
1310.860, 16699.00
1311.926, 16889.00
1312.991, 16854.00
1314.057, 16778.00
1315.122, 16861.00
1316.187, 16797.00
1317.252, 16938.00
1318.317, 16801.00
1319.381, 16872.00
1320.446, 16849.00
1321.510, 16756.00
1322.574, 16777.00
1323.638, 16787.00
1324.702, 16937.00
1325.766, 16838.00
1326.829, 17059.00
1327.892, 16969.00
1328.956, 17007.00
1330.019, 16967.00
1331.081, 17098.00
1332.144, 16961.00
1333.206, 17040.00
1334.269, 17065.00
1335.331, 16861.00
1336.393, 16954.00
1337.455, 17189.00
1338.516, 17011.00
1339.578, 17103.00
1340.639, 16853.00
1341.701, 17087.00
1342.762, 17176.00
1343.822, 17238.00
1344.883, 17391.00
1345.944, 17132.00
1347.004, 17126.00
1348.064, 17029.00
1349.124, 17100.00
1350.184, 17132.00
1351.244, 17013.00
1352.304, 17248.00
1353.363, 17166.00
1354.422, 17162.00
1355.481, 17247.00
1356.540, 17273.00
1357.599, 17299.00
1358.657, 17115.00
1359.716, 17265.00
1360.774, 17113.00
1361.832, 17143.00
1362.890, 17230.00
1363.948, 17348.00
1365.006, 17246.00
1366.063, 17201.00
1367.120, 17305.00
1368.178, 17293.00
1369.234, 17221.00
1370.291, 17381.00
1371.348, 17383.00
1372.404, 17318.00
1373.461, 17356.00
1374.517, 17175.00
1375.573, 17341.00
1376.629, 17284.00
1377.684, 17432.00
1378.740, 17328.00
1379.795, 17385.00
1380.850, 17250.00
1381.905, 17376.00
1382.960, 17509.00
1384.015, 17402.00
1385.070, 17454.00
1386.124, 17437.00
1387.178, 17387.00
1388.232, 17496.00
1389.286, 17409.00
1390.340, 17406.00
1391.393, 17246.00
1392.447, 17486.00
1393.500, 17511.00
1394.553, 17620.00
1395.606, 17573.00
1396.659, 17525.00
1397.711, 17701.00
1398.764, 17559.00
1399.816, 17548.00
1400.868, 17534.00
1401.920, 17444.00
1402.972, 17446.00
1404.023, 17412.00
1405.075, 17482.00
1406.126, 17581.00
1407.177, 17595.00
1408.228, 17675.00
1409.279, 17781.00
1410.330, 17590.00
1411.380, 17667.00
1412.431, 17703.00
1413.481, 17758.00
1414.531, 17659.00
1415.580, 17599.00
1416.630, 17627.00
1417.680, 17670.00
1418.729, 17722.00
1419.778, 17632.00
1420.827, 17681.00
1421.876, 17688.00
1422.925, 17728.00
1423.973, 17688.17
1425.022, 17713.00
1426.070, 17605.00
1427.118, 17436.00
1428.166, 17409.63
1429.214, 17377.75
1430.261, 17438.00
1431.309, 17446.00
1432.356, 17565.00
1433.403, 17677.00
1434.450, 17833.00
1435.497, 17864.00
1436.543, 17696.00
1437.590, 17737.00
1438.636, 17560.00
1439.682, 17662.00
1440.728, 17591.00
1441.774, 17662.00
1442.819, 17673.00
1443.865, 17696.00
1444.910, 17697.00
1445.955, 17686.00
1447.000, 17615.00
1448.045, 17670.00
1449.090, 17611.00
1450.134, 17730.00
1451.178, 17688.00
1452.223, 17583.00
1453.267, 17829.00
1454.310, 17659.02
1455.354, 17577.00
1456.398, 17518.00
1457.441, 17551.00
1458.484, 17484.00
1459.527, 17561.00
1460.570, 17545.00
1461.613, 17641.00
1462.655, 17612.00
1463.698, 17758.00
1464.740, 17773.00
1465.782, 17671.00
1466.824, 17764.00
1467.866, 17480.00
1468.907, 17677.00
1469.948, 17617.00
1470.990, 17700.00
1472.031, 17843.00
1473.072, 17585.00
1474.112, 17652.00
1475.153, 17617.00
1476.194, 17857.00
1477.234, 17785.00
1478.274, 17715.00
1479.314, 17545.00
1480.354, 17540.00
1481.393, 17474.89
1482.433, 17685.00
1483.472, 17474.00
1484.511, 17582.00
1485.550, 17694.00
1486.589, 17568.00
1487.628, 17750.00
1488.666, 17640.00
1489.704, 17869.00
1490.743, 17519.00
1491.781, 17733.00
1492.819, 17547.00
1493.856, 17623.00
1494.894, 17613.00
1495.931, 17687.00
1496.968, 17600.00
1498.005, 17471.00
1499.042, 17572.00
1500.079, 17558.00
1501.115, 17643.00
1502.152, 17639.00
1503.188, 17671.00
1504.224, 17778.00
1505.260, 17645.00
1506.296, 17629.00
1507.331, 17639.00
1508.367, 17510.00
1509.402, 17638.00
1510.437, 17478.00
1511.472, 17670.00
1512.507, 17590.15
1513.541, 17636.00
1514.576, 17578.00
1515.610, 17570.00
1516.644, 17692.00
1517.678, 17725.00
1518.712, 17814.00
1519.746, 17624.00
1520.779, 17602.00
1521.813, 17484.00
1522.846, 17564.00
1523.879, 17630.00
1524.912, 17402.00
1525.944, 17658.00
1526.977, 17614.00
1528.009, 17654.00
1529.041, 17762.00
1530.073, 17942.00
1531.105, 17794.85
1532.137, 17777.00
1533.168, 17645.00
1534.200, 17568.00
1535.231, 17734.00
1536.262, 17579.00
1537.293, 17394.00
1538.324, 17602.00
1539.354, 17599.00
1540.385, 17680.00
1541.415, 17996.00
1542.445, 17728.00
1543.475, 17879.00
1544.505, 17732.00
1545.534, 17863.00
1546.564, 17716.00
1547.593, 17604.00
1548.622, 17614.00
1549.651, 17453.00
1550.680, 17522.00
1551.708, 17673.00
1552.737, 17688.00
1553.765, 17727.00
1554.793, 17742.90
1555.821, 17695.80
1556.849, 17685.00
1557.877, 17555.00
1558.904, 17480.33
1559.932, 17357.75
1560.959, 17354.00
1561.986, 17254.00
1563.013, 17234.00
1564.039, 17285.00
1565.066, 17458.00
1566.092, 17389.00
1567.119, 17489.00
1568.145, 17663.00
1569.170, 17472.00
1570.196, 17615.00
1571.222, 17612.00
1572.247, 17569.00
1573.272, 17411.00
1574.297, 17378.00
1575.322, 17367.00
1576.347, 17190.00
1577.372, 17339.00
##END=



