##NAMES=Fayalite
##RRUFFID=R070293
##IDEAL CHEMISTRY=Fe^2+^_2_SiO_4_
##LOCALITY=Pike's Peak, Teller County, Colorado, USA
##OWNER=RRUFF
##SOURCE=Michael Scott
##DESCRIPTION=Black single crystal fragment with internal hints of red and green
##STATUS=The identification of this mineral has been confirmed by X-ray diffraction and chemical analysis
##URL=rruff.info/R070293
##MEASURED CHEMISTRY=(Fe^2+^_1.87_Mn^2+^_0.13_)_Î£=2_Si_1.00_O_4_ ; trace amounts of Mg
##PIN_ID=L01491
##ORIENTATION=Laser parallel to a* (1 0 0). Fiducial mark perpendicular to laser is parallel to b [0 1 0]
59.13700, 1701.000
60.37200, 2068.000
61.60700, 2060.000
62.84200, 1696.000
64.07700, 1598.000
65.31200, 1512.000
66.54600, 1553.000
67.78100, 1538.750
69.01500, 1728.000
70.24900, 1685.000
71.48300, 1766.000
72.71700, 1959.000
73.95100, 1895.000
75.18500, 1859.000
76.41800, 2006.000
77.65100, 1834.000
78.88500, 1684.000
80.11800, 1655.000
81.35100, 1663.000
82.58300, 1786.000
83.81600, 1926.000
85.04900, 1931.000
86.28100, 1767.000
87.51300, 1672.000
88.74500, 1673.000
89.97700, 1741.000
91.20900, 1809.000
92.44100, 2007.000
93.67200, 1971.117
94.90400, 2017.000
96.13500, 1971.000
97.36600, 1915.000
98.59700, 1914.000
99.82800, 1978.000
101.0590, 2053.000
102.2900, 2037.000
103.5200, 2051.000
104.7500, 2173.000
105.9810, 2314.000
107.2110, 2491.000
108.4410, 2452.000
109.6700, 2319.000
110.9000, 2224.000
112.1300, 2198.000
113.3590, 2193.000
114.5880, 2197.575
115.8170, 2232.701
117.0460, 2277.000
118.2750, 2330.000
119.5040, 2373.000
120.7320, 2412.000
121.9610, 2433.000
123.1890, 2405.000
124.4170, 2295.000
125.6450, 1900.000
126.8730, 1813.000
128.1010, 1754.000
129.3280, 1740.000
130.5560, 1759.000
131.7830, 1652.000
133.0100, 1645.000
134.2380, 1599.000
135.4640, 1573.000
136.6910, 1605.000
137.9180, 1659.000
139.1440, 1726.000
140.3710, 1729.000
141.5970, 1680.000
142.8230, 1600.000
144.0490, 1646.000
145.2750, 1585.000
146.5000, 1632.000
147.7260, 1656.000
148.9510, 1686.000
150.1770, 1730.433
151.4020, 1767.308
152.6270, 1810.000
153.8520, 1862.000
155.0760, 1895.000
156.3010, 1951.000
157.5250, 2005.000
158.7500, 2152.000
159.9740, 2366.000
161.1980, 2682.000
162.4220, 3228.000
163.6450, 3788.000
164.8690, 4254.000
166.0920, 4487.000
167.3160, 4769.000
168.5390, 5463.000
169.7620, 6593.000
170.9850, 8027.000
172.2080, 8954.000
173.4300, 8805.000
174.6530, 7522.000
175.8750, 5867.000
177.0970, 4275.000
178.3190, 3353.000
179.5410, 2729.000
180.7630, 2319.000
181.9850, 2078.000
183.2060, 1954.000
184.4270, 1875.000
185.6490, 1869.000
186.8700, 1775.000
188.0910, 1729.000
189.3110, 1687.000
190.5320, 1690.000
191.7530, 1699.000
192.9730, 1728.000
194.1930, 1711.000
195.4130, 1736.000
196.6330, 1671.000
197.8530, 1741.000
199.0730, 1730.000
200.2920, 1812.000
201.5120, 1770.000
202.7310, 1736.000
203.9500, 1618.000
205.1690, 1538.000
206.3880, 1545.000
207.6070, 1512.000
208.8250, 1568.000
210.0440, 1563.000
211.2620, 1620.000
212.4800, 1639.000
213.6980, 1701.000
214.9160, 1712.000
216.1340, 1781.000
217.3510, 1820.000
218.5690, 1875.000
219.7860, 1974.000
221.0030, 2050.000
222.2200, 2151.000
223.4370, 2268.000
224.6540, 2444.000
225.8700, 2660.000
227.0870, 2907.210
228.3030, 3200.458
229.5190, 3530.000
230.7350, 3903.000
231.9510, 4310.000
233.1670, 4767.992
234.3820, 5269.695
235.5980, 5735.000
236.8130, 6282.000
238.0280, 6808.000
239.2430, 7151.000
240.4580, 7244.000
241.6730, 7232.000
242.8880, 6673.000
244.1020, 6138.000
245.3160, 5520.000
246.5300, 4981.671
247.7450, 4483.037
248.9580, 4065.653
250.1720, 3617.000
251.3860, 3390.000
252.5990, 3187.000
253.8130, 2961.000
255.0260, 2908.000
256.2390, 2760.000
257.4520, 2689.000
258.6640, 2618.000
259.8770, 2590.000
261.0890, 2527.000
262.3020, 2545.000
263.5140, 2370.000
264.7260, 2433.000
265.9380, 2336.000
267.1500, 2357.000
268.3610, 2424.000
269.5730, 2407.000
270.7840, 2425.000
271.9950, 2417.000
273.2060, 2468.000
274.4170, 2568.000
275.6280, 2693.000
276.8390, 2725.000
278.0490, 2822.000
279.2590, 3031.000
280.4690, 3202.000
281.6800, 3233.000
282.8890, 3414.000
284.0990, 3617.000
285.3090, 3758.000
286.5180, 3875.000
287.7280, 3995.000
288.9370, 4126.000
290.1460, 4235.000
291.3550, 4103.000
292.5630, 4063.000
293.7720, 3910.000
294.9800, 3714.000
296.1890, 3411.000
297.3970, 3226.000
298.6050, 2972.000
299.8130, 2904.000
301.0200, 2771.000
302.2280, 2779.000
303.4360, 2769.000
304.6430, 2734.000
305.8500, 2738.000
307.0570, 2673.000
308.2640, 2654.000
309.4710, 2589.000
310.6770, 2496.000
311.8840, 2443.000
313.0900, 2307.000
314.2960, 2224.000
315.5020, 2133.000
316.7080, 2017.000
317.9140, 1953.000
319.1190, 1859.000
320.3250, 1797.028
321.5300, 1788.000
322.7350, 1696.000
323.9400, 1667.000
325.1450, 1640.000
326.3500, 1594.000
327.5540, 1565.000
328.7580, 1547.000
329.9630, 1558.000
331.1670, 1521.000
332.3710, 1519.000
333.5750, 1486.000
334.7780, 1489.000
335.9820, 1506.000
337.1850, 1505.000
338.3880, 1496.465
339.5920, 1496.234
340.7950, 1471.000
341.9970, 1473.000
343.2000, 1466.000
344.4030, 1443.000
345.6050, 1454.000
346.8070, 1420.000
348.0090, 1485.000
349.2110, 1434.000
350.4130, 1461.000
351.6150, 1383.000
352.8160, 1464.000
354.0170, 1447.000
355.2190, 1458.000
356.4200, 1486.000
357.6210, 1458.000
358.8210, 1497.000
360.0220, 1500.000
361.2220, 1457.000
362.4230, 1510.000
363.6230, 1503.000
364.8230, 1499.000
366.0230, 1491.000
367.2230, 1484.000
368.4220, 1479.498
369.6220, 1479.535
370.8210, 1474.000
372.0200, 1481.000
373.2190, 1489.000
374.4180, 1484.000
375.6170, 1483.000
376.8150, 1476.000
378.0140, 1515.000
379.2120, 1450.000
380.4100, 1488.000
381.6080, 1450.000
382.8060, 1460.000
384.0040, 1480.000
385.2010, 1449.000
386.3980, 1431.000
387.5960, 1473.000
388.7930, 1478.000
389.9900, 1483.000
391.1870, 1510.000
392.3830, 1526.000
393.5800, 1517.000
394.7760, 1586.000
395.9720, 1562.000
397.1680, 1569.000
398.3640, 1608.000
399.5600, 1613.000
400.7560, 1615.000
401.9510, 1691.000
403.1460, 1678.000
404.3420, 1706.000
405.5370, 1669.000
406.7320, 1674.000
407.9260, 1628.000
409.1210, 1680.000
410.3150, 1667.000
411.5100, 1614.000
412.7040, 1605.000
413.8980, 1571.000
415.0920, 1566.000
416.2850, 1526.000
417.4790, 1520.000
418.6720, 1499.000
419.8650, 1518.000
421.0590, 1465.000
422.2510, 1437.000
423.4440, 1416.000
424.6370, 1449.000
425.8290, 1416.000
427.0220, 1429.000
428.2140, 1343.000
429.4060, 1409.000
430.5980, 1358.000
431.7900, 1339.000
432.9810, 1369.000
434.1730, 1322.000
435.3640, 1370.000
436.5550, 1363.000
437.7460, 1363.000
438.9370, 1363.000
440.1280, 1351.000
441.3190, 1360.000
442.5090, 1327.000
443.6990, 1359.000
444.8890, 1344.000
446.0790, 1349.000
447.2690, 1366.000
448.4590, 1334.000
449.6480, 1324.000
450.8380, 1363.000
452.0270, 1357.000
453.2160, 1371.000
454.4050, 1333.000
455.5940, 1340.000
456.7820, 1337.000
457.9710, 1390.000
459.1590, 1357.000
460.3470, 1379.000
461.5350, 1372.000
462.7230, 1387.000
463.9110, 1366.000
465.0990, 1376.000
466.2860, 1373.000
467.4730, 1374.691
468.6600, 1379.000
469.8470, 1388.000
471.0340, 1397.000
472.2210, 1406.000
473.4070, 1412.000
474.5940, 1430.000
475.7800, 1406.000
476.9660, 1403.000
478.1520, 1391.000
479.3380, 1405.000
480.5230, 1404.000
481.7090, 1412.353
482.8940, 1451.000
484.0790, 1437.000
485.2650, 1471.000
486.4490, 1492.000
487.6340, 1473.000
488.8190, 1490.000
490.0030, 1485.000
491.1870, 1501.000
492.3720, 1522.000
493.5550, 1573.000
494.7390, 1646.000
495.9230, 1643.000
497.1060, 1640.000
498.2900, 1692.000
499.4730, 1693.000
500.6560, 1732.000
501.8390, 1777.000
503.0220, 1842.000
504.2040, 1859.000
505.3870, 1857.000
506.5690, 1831.000
507.7510, 1860.000
508.9330, 1843.000
510.1150, 1814.000
511.2970, 1785.000
512.4780, 1719.000
513.6600, 1682.000
514.8410, 1657.000
516.0220, 1663.000
517.2030, 1620.130
518.3840, 1585.000
519.5650, 1567.000
520.7450, 1541.000
521.9250, 1528.000
523.1060, 1533.000
524.2860, 1545.000
525.4660, 1539.000
526.6450, 1532.000
527.8250, 1536.000
529.0040, 1538.000
530.1840, 1541.000
531.3630, 1545.185
532.5420, 1535.000
533.7200, 1557.000
534.8990, 1545.000
536.0780, 1557.000
537.2560, 1566.000
538.4340, 1576.000
539.6120, 1601.000
540.7900, 1623.221
541.9680, 1643.000
543.1460, 1692.000
544.3230, 1761.000
545.5000, 1819.000
546.6770, 1832.000
547.8540, 1927.000
549.0310, 1880.000
550.2080, 1968.000
551.3840, 1921.000
552.5610, 1935.000
553.7370, 1927.000
554.9130, 1868.000
556.0890, 1805.000
557.2650, 1760.000
558.4400, 1735.000
559.6160, 1691.000
560.7910, 1628.000
561.9660, 1631.000
563.1410, 1569.000
564.3160, 1563.000
565.4910, 1572.000
566.6650, 1553.000
567.8400, 1561.000
569.0140, 1568.000
570.1880, 1573.049
571.3620, 1573.000
572.5360, 1610.000
573.7090, 1616.000
574.8830, 1656.000
576.0560, 1650.000
577.2290, 1650.000
578.4020, 1686.000
579.5750, 1707.000
580.7480, 1633.000
581.9200, 1714.000
583.0930, 1686.000
584.2650, 1744.000
585.4370, 1711.000
586.6090, 1752.000
587.7810, 1732.000
588.9520, 1768.000
590.1240, 1735.000
591.2950, 1772.000
592.4660, 1758.000
593.6370, 1725.000
594.8080, 1738.000
595.9790, 1742.000
597.1500, 1720.000
598.3200, 1697.000
599.4900, 1669.000
600.6600, 1638.000
601.8300, 1611.913
603.0000, 1574.000
604.1700, 1555.000
605.3390, 1559.000
606.5080, 1534.000
607.6770, 1439.000
608.8460, 1457.000
610.0150, 1407.000
611.1840, 1437.000
612.3520, 1427.000
613.5210, 1367.000
614.6890, 1369.000
615.8570, 1333.000
617.0250, 1368.000
618.1930, 1319.000
619.3600, 1334.000
620.5280, 1368.000
621.6950, 1337.000
622.8620, 1302.000
624.0290, 1342.000
625.1960, 1339.000
626.3630, 1348.000
627.5290, 1358.238
628.6960, 1318.000
629.8620, 1344.000
631.0280, 1361.000
632.1940, 1316.000
633.3600, 1343.000
634.5250, 1326.000
635.6910, 1369.000
636.8560, 1303.000
638.0210, 1340.000
639.1860, 1294.000
640.3510, 1296.000
641.5150, 1317.000
642.6800, 1299.000
643.8440, 1315.000
645.0080, 1318.000
646.1720, 1335.000
647.3360, 1329.624
648.5000, 1347.000
649.6640, 1316.000
650.8270, 1311.000
651.9900, 1299.000
653.1530, 1318.000
654.3160, 1321.000
655.4790, 1321.000
656.6420, 1329.728
657.8040, 1329.315
658.9660, 1336.000
660.1290, 1331.000
661.2910, 1334.000
662.4520, 1331.000
663.6140, 1328.000
664.7760, 1327.399
665.9370, 1329.680
667.0980, 1323.000
668.2590, 1330.000
669.4200, 1329.000
670.5810, 1313.000
671.7420, 1322.000
672.9020, 1325.104
674.0620, 1363.000
675.2220, 1350.000
676.3820, 1361.000
677.5420, 1385.000
678.7020, 1321.000
679.8610, 1351.000
681.0210, 1327.000
682.1800, 1349.000
683.3390, 1371.000
684.4980, 1364.000
685.6560, 1367.000
686.8150, 1376.000
687.9730, 1342.000
689.1320, 1364.000
690.2900, 1350.000
691.4480, 1388.000
692.6050, 1332.000
693.7630, 1399.000
694.9200, 1420.000
696.0780, 1423.000
697.2350, 1364.000
698.3920, 1410.000
699.5490, 1407.000
700.7050, 1429.000
701.8620, 1390.000
703.0180, 1402.000
704.1740, 1440.000
705.3300, 1389.000
706.4860, 1368.000
707.6420, 1425.000
708.7970, 1386.000
709.9530, 1425.000
711.1080, 1433.000
712.2630, 1454.000
713.4180, 1411.000
714.5730, 1421.000
715.7280, 1435.000
716.8820, 1452.000
718.0360, 1449.000
719.1900, 1461.000
720.3440, 1457.000
721.4980, 1462.000
722.6520, 1455.000
723.8050, 1474.000
724.9590, 1486.000
726.1120, 1504.000
727.2650, 1512.630
728.4180, 1505.000
729.5700, 1519.000
730.7230, 1525.000
731.8750, 1507.000
733.0280, 1571.000
734.1800, 1547.000
735.3320, 1605.000
736.4830, 1594.000
737.6350, 1605.000
738.7860, 1638.000
739.9380, 1633.000
741.0890, 1657.000
742.2400, 1631.000
743.3910, 1651.625
744.5410, 1664.000
745.6920, 1665.000
746.8420, 1682.657
747.9920, 1693.000
749.1420, 1704.000
750.2920, 1719.000
751.4420, 1727.000
752.5910, 1676.000
753.7410, 1722.000
754.8900, 1708.000
756.0390, 1750.000
757.1880, 1769.000
758.3370, 1748.000
759.4850, 1797.000
760.6340, 1795.000
761.7820, 1758.000
762.9300, 1826.000
764.0780, 1848.000
765.2260, 1853.000
766.3730, 1872.000
767.5210, 1902.000
768.6680, 1907.000
769.8150, 1920.000
770.9620, 1979.000
772.1090, 2001.000
773.2560, 1995.000
774.4020, 2095.000
775.5490, 2079.621
776.6950, 2125.365
777.8410, 2124.000
778.9870, 2183.000
780.1330, 2247.000
781.2780, 2267.000
782.4230, 2345.000
783.5690, 2393.000
784.7140, 2453.846
785.8590, 2587.000
787.0030, 2612.000
788.1480, 2724.000
789.2920, 2859.000
790.4370, 2956.000
791.5810, 3103.000
792.7250, 3197.000
793.8690, 3445.000
795.0120, 3637.000
796.1560, 3943.000
797.2990, 4184.000
798.4420, 4548.000
799.5850, 4903.000
800.7280, 5473.000
801.8710, 6010.000
803.0130, 6851.000
804.1550, 7846.000
805.2980, 8985.000
806.4400, 10286.00
807.5810, 11640.00
808.7230, 13300.00
809.8650, 14886.00
811.0060, 16545.00
812.1470, 17957.00
813.2880, 19179.00
814.4290, 19766.00
815.5700, 19841.00
816.7110, 19612.00
817.8510, 19035.00
818.9910, 18235.00
820.1310, 17519.00
821.2710, 16980.00
822.4110, 16610.00
823.5510, 16356.00
824.6900, 16239.00
825.8290, 16163.90
826.9680, 16246.00
828.1070, 16352.00
829.2460, 16736.00
830.3850, 17104.00
831.5230, 17610.00
832.6620, 18080.87
833.8000, 18580.00
834.9380, 19127.00
836.0760, 19728.00
837.2130, 20229.00
838.3510, 20345.00
839.4880, 20545.00
840.6250, 20519.00
841.7620, 20327.89
842.8990, 20079.00
844.0360, 19564.00
845.1720, 18972.00
846.3090, 18198.00
847.4450, 17401.00
848.5810, 16433.00
849.7170, 15578.00
850.8530, 14763.00
851.9880, 14061.00
853.1240, 13333.00
854.2590, 12364.00
855.3940, 11807.00
856.5290, 11155.00
857.6640, 10451.00
858.7980, 10119.00
859.9330, 9542.000
861.0670, 9176.000
862.2010, 8621.000
863.3350, 8267.000
864.4690, 8029.000
865.6030, 7740.000
866.7360, 7239.000
867.8690, 7039.000
869.0020, 6776.000
870.1350, 6615.000
871.2680, 6283.000
872.4010, 6147.000
873.5330, 5931.000
874.6660, 5797.000
875.7980, 5595.000
876.9300, 5433.000
878.0620, 5388.000
879.1930, 5208.000
880.3250, 5216.000
881.4560, 5141.000
882.5870, 5087.000
883.7180, 5024.000
884.8490, 5028.000
885.9800, 4869.000
887.1100, 4933.000
888.2410, 4807.000
889.3710, 4810.000
890.5010, 4896.000
891.6310, 4813.000
892.7610, 4798.000
893.8900, 4831.000
895.0200, 4947.000
896.1490, 4942.000
897.2780, 5077.000
898.4070, 5093.266
899.5360, 5099.000
900.6640, 5149.000
901.7920, 5169.000
902.9210, 5185.000
904.0490, 5105.000
905.1770, 5156.000
906.3040, 4998.000
907.4320, 4993.000
908.5600, 4835.000
909.6870, 4816.000
910.8140, 4706.000
911.9410, 4661.000
913.0680, 4750.000
914.1940, 4660.000
915.3210, 4646.000
916.4470, 4521.000
917.5730, 4614.000
918.6990, 4569.000
919.8250, 4518.000
920.9500, 4475.000
922.0760, 4395.000
923.2010, 4287.000
924.3260, 4245.000
925.4510, 4222.000
926.5760, 4151.000
927.7010, 4027.000
928.8250, 4012.000
929.9500, 3877.000
931.0740, 3648.000
932.1980, 3582.000
933.3220, 3482.000
934.4450, 3398.000
935.5690, 3209.000
936.6920, 3083.000
937.8150, 3023.000
938.9380, 2979.000
940.0610, 2918.000
941.1840, 2814.000
942.3060, 2767.000
943.4290, 2745.000
944.5510, 2646.000
945.6730, 2637.000
946.7950, 2544.000
947.9160, 2566.000
949.0380, 2564.000
950.1590, 2546.000
951.2800, 2419.000
952.4010, 2410.000
953.5220, 2459.000
954.6430, 2375.000
955.7630, 2416.000
956.8840, 2373.000
958.0040, 2342.000
959.1240, 2414.000
960.2440, 2302.000
961.3640, 2314.000
962.4830, 2270.000
963.6030, 2248.000
964.7220, 2247.000
965.8410, 2230.449
966.9600, 2227.000
968.0780, 2240.000
969.1970, 2210.000
970.3150, 2236.000
971.4340, 2166.000
972.5520, 2160.000
973.6700, 2199.000
974.7870, 2110.000
975.9050, 2189.000
977.0220, 2141.000
978.1390, 2156.000
979.2560, 2165.000
980.3730, 2087.000
981.4900, 2082.000
982.6070, 2002.000
983.7230, 2106.000
984.8390, 2077.000
985.9550, 2044.000
987.0710, 2075.000
988.1870, 2059.000
989.3030, 2001.000
990.4180, 2012.000
991.5330, 2018.000
992.6480, 1972.000
993.7630, 1985.000
994.8780, 1970.000
995.9930, 1966.000
997.1070, 1923.000
998.2210, 1985.000
999.3350, 1976.000
1000.449, 1928.000
1001.563, 1936.000
1002.677, 1891.000
1003.790, 1894.000
1004.903, 1923.000
1006.016, 1917.000
1007.129, 1918.165
1008.242, 1919.539
1009.355, 1904.000
1010.467, 1897.000
1011.579, 1888.000
1012.691, 1857.000
1013.803, 1888.000
1014.915, 1839.000
1016.027, 1842.000
1017.138, 1851.000
1018.249, 1860.000
1019.360, 1859.000
1020.471, 1874.000
1021.582, 1876.000
1022.693, 1811.000
1023.803, 1782.000
1024.913, 1791.000
1026.023, 1842.000
1027.133, 1861.000
1028.243, 1768.000
1029.353, 1872.000
1030.462, 1784.000
1031.571, 1776.000
1032.680, 1837.000
1033.789, 1866.000
1034.898, 1852.698
1036.007, 1794.000
1037.115, 1821.000
1038.223, 1789.000
1039.331, 1753.000
1040.439, 1808.000
1041.547, 1767.000
1042.655, 1875.000
1043.762, 1826.000
1044.869, 1796.000
1045.976, 1787.000
1047.083, 1761.000
1048.190, 1802.000
1049.297, 1788.000
1050.403, 1835.000
1051.509, 1874.000
1052.615, 1833.000
1053.721, 1837.000
1054.827, 1775.000
1055.933, 1800.000
1057.038, 1830.000
1058.143, 1870.000
1059.248, 1779.000
1060.353, 1861.000
1061.458, 1804.000
1062.563, 1831.000
1063.667, 1809.000
1064.771, 1864.000
1065.875, 1825.000
1066.979, 1832.000
1068.083, 1840.000
1069.186, 1867.000
1070.290, 1854.000
1071.393, 1857.000
1072.496, 1878.000
1073.599, 1821.000
1074.702, 1811.000
1075.804, 1829.000
1076.907, 1821.000
1078.009, 1856.000
1079.111, 1790.000
1080.213, 1887.000
1081.315, 1830.000
1082.416, 1844.000
1083.517, 1879.000
1084.619, 1839.000
1085.720, 1855.000
1086.821, 1838.000
1087.921, 1866.000
1089.022, 1861.000
1090.122, 1868.094
1091.222, 1872.151
1092.322, 1880.000
1093.422, 1870.000
1094.522, 1869.000
1095.622, 1869.000
1096.721, 1865.000
1097.820, 1881.000
1098.919, 1863.000
1100.018, 1897.000
1101.117, 1882.000
1102.215, 1886.541
1103.314, 1928.000
1104.412, 1880.000
1105.510, 1884.000
1106.608, 1867.000
1107.705, 1881.000
1108.803, 1850.000
1109.900, 1840.000
1110.997, 1876.000
1112.094, 1892.000
1113.191, 1875.000
1114.288, 1836.000
1115.384, 1851.000
1116.481, 1912.000
1117.577, 1855.000
1118.673, 1870.000
1119.769, 1836.000
1120.864, 1889.000
1121.960, 1881.000
1123.055, 1920.000
1124.150, 1878.000
1125.245, 1897.000
1126.340, 1910.000
1127.434, 1923.000
1128.529, 1891.000
1129.623, 1933.000
1130.717, 1910.000
1131.811, 1923.000
1132.905, 1869.000
1133.999, 1911.000
1135.092, 1973.000
1136.185, 1931.000
1137.279, 1922.000
1138.371, 1934.000
1139.464, 1899.000
1140.557, 1895.000
1141.649, 1889.847
1142.742, 1920.000
1143.834, 1883.000
1144.926, 1892.000
1146.017, 1899.000
1147.109, 1891.000
1148.200, 1854.000
1149.292, 1854.000
1150.383, 1878.000
1151.474, 1822.000
1152.564, 1832.000
1153.655, 1860.000
1154.745, 1812.000
1155.835, 1806.000
1156.925, 1839.000
1158.015, 1788.000
1159.105, 1820.000
1160.195, 1792.000
1161.284, 1747.000
1162.373, 1794.000
1163.462, 1767.000
1164.551, 1785.000
1165.640, 1761.000
1166.728, 1704.000
1167.817, 1763.000
1168.905, 1705.000
1169.993, 1705.000
1171.081, 1721.000
1172.168, 1739.000
1173.256, 1659.000
1174.343, 1677.000
1175.430, 1716.000
1176.517, 1627.000
1177.604, 1666.000
1178.691, 1728.000
1179.777, 1648.000
1180.864, 1675.000
1181.950, 1603.000
1183.036, 1627.000
1184.121, 1655.000
1185.207, 1621.000
1186.293, 1610.000
1187.378, 1638.000
1188.463, 1626.000
1189.548, 1590.000
1190.633, 1646.000
1191.717, 1607.000
1192.802, 1592.000
1193.886, 1603.000
1194.970, 1595.000
1196.054, 1611.000
1197.138, 1588.000
1198.221, 1556.000
1199.305, 1586.000
1200.388, 1598.000
1201.471, 1560.000
1202.554, 1552.000
1203.637, 1542.000
1204.719, 1579.000
1205.801, 1539.000
1206.884, 1560.000
1207.966, 1537.000
1209.048, 1521.000
1210.129, 1597.000
1211.211, 1538.000
1212.292, 1573.000
1213.373, 1510.000
1214.454, 1572.000
1215.535, 1533.000
1216.616, 1536.000
1217.696, 1522.000
1218.777, 1516.000
1219.857, 1521.000
1220.937, 1561.000
1222.017, 1557.000
1223.096, 1488.000
1224.176, 1522.000
1225.255, 1556.000
1226.334, 1507.000
1227.413, 1533.000
1228.492, 1569.000
1229.570, 1510.000
1230.649, 1516.000
1231.727, 1509.000
1232.805, 1533.000
1233.883, 1515.000
1234.961, 1528.000
1236.038, 1512.000
1237.116, 1482.000
1238.193, 1536.000
1239.270, 1542.000
1240.347, 1561.000
1241.424, 1535.000
1242.500, 1488.000
1243.577, 1571.000
1244.653, 1517.000
1245.729, 1496.000
1246.805, 1550.000
1247.880, 1478.000
1248.956, 1561.000
1250.031, 1534.000
1251.106, 1511.000
1252.181, 1574.000
1253.256, 1520.000
1254.331, 1525.000
1255.405, 1528.000
1256.480, 1507.000
1257.554, 1488.000
1258.628, 1530.000
1259.701, 1493.000
1260.775, 1530.000
1261.849, 1506.000
1262.922, 1525.000
1263.995, 1540.000
1265.068, 1547.000
1266.141, 1563.000
1267.213, 1502.000
1268.286, 1551.000
1269.358, 1535.000
1270.430, 1542.000
1271.502, 1561.000
1272.573, 1518.000
1273.645, 1555.000
1274.716, 1483.000
1275.788, 1533.000
1276.859, 1515.000
1277.929, 1573.000
1279.000, 1541.000
1280.071, 1518.000
1281.141, 1572.000
1282.211, 1534.000
1283.281, 1539.000
1284.351, 1568.000
1285.421, 1567.000
1286.490, 1539.000
1287.559, 1560.000
1288.628, 1534.000
1289.697, 1552.000
1290.766, 1579.000
1291.835, 1518.000
1292.903, 1525.000
1293.972, 1562.000
1295.040, 1610.000
1296.108, 1607.000
1297.175, 1582.000
1298.243, 1563.000
1299.310, 1572.000
1300.377, 1578.000
1301.444, 1571.000
1302.511, 1583.904
1303.578, 1603.000
1304.645, 1594.000
1305.711, 1604.656
1306.777, 1549.000
1307.843, 1597.000
1308.909, 1558.000
1309.975, 1529.000
1311.040, 1554.000
1312.105, 1584.000
1313.171, 1548.000
1314.235, 1559.000
1315.300, 1579.000
1316.365, 1571.000
1317.429, 1586.000
1318.494, 1586.000
1319.558, 1548.000
1320.622, 1578.000
1321.685, 1593.000
1322.749, 1539.000
1323.812, 1587.000
1324.876, 1579.000
1325.939, 1572.000
1327.001, 1558.000
1328.064, 1556.000
1329.127, 1571.000
1330.189, 1582.000
1331.251, 1586.000
1332.313, 1589.000
1333.375, 1586.925
1334.437, 1611.000
1335.498, 1567.000
1336.560, 1560.000
1337.621, 1531.000
1338.682, 1565.000
1339.742, 1538.000
1340.803, 1554.000
1341.863, 1525.000
1342.924, 1580.000
1343.984, 1573.000
1345.044, 1537.000
1346.104, 1602.000
1347.163, 1587.000
1348.222, 1554.000
1349.282, 1595.000
1350.341, 1526.000
1351.400, 1536.000
1352.458, 1542.000
1353.517, 1574.000
1354.575, 1626.000
1355.633, 1551.000
1356.691, 1581.000
1357.749, 1520.000
1358.807, 1512.000
1359.864, 1592.000
1360.922, 1555.000
1361.979, 1576.000
1363.036, 1588.000
1364.092, 1562.000
1365.149, 1576.130
1366.205, 1541.000
1367.262, 1576.000
1368.318, 1549.000
1369.374, 1558.000
1370.429, 1575.000
1371.485, 1613.000
1372.540, 1584.296
1373.596, 1538.000
1374.651, 1528.000
1375.705, 1607.000
1376.760, 1570.000
1377.815, 1581.000
1378.869, 1575.000
1379.923, 1570.000
1380.977, 1538.000
1382.031, 1540.000
1383.085, 1549.000
1384.138, 1513.000
1385.191, 1576.000
1386.244, 1551.000
1387.297, 1552.000
1388.350, 1566.000
1389.403, 1576.000
1390.455, 1561.000
1391.507, 1591.000
1392.559, 1601.000
1393.611, 1540.000
1394.663, 1591.000
1395.714, 1579.000
1396.766, 1603.000
1397.817, 1556.000
1398.868, 1538.000
1399.919, 1578.000
1400.969, 1605.000
1402.020, 1570.000
1403.070, 1540.000
1404.120, 1555.000
1405.170, 1595.000
1406.220, 1601.000
1407.270, 1564.000
1408.319, 1547.000
1409.368, 1561.000
1410.417, 1576.000
1411.466, 1570.000
1412.515, 1564.000
1413.563, 1541.000
1414.612, 1562.000
1415.660, 1545.000
1416.708, 1548.000
1417.756, 1602.000
1418.803, 1609.000
1419.851, 1599.000
1420.898, 1601.000
1421.945, 1582.000
1422.992, 1548.000
1424.039, 1584.000
1425.086, 1565.000
1426.132, 1574.000
1427.178, 1581.779
1428.225, 1583.000
1429.270, 1580.000
1430.316, 1561.000
1431.362, 1540.738
1432.407, 1569.000
1433.452, 1545.000
1434.497, 1568.000
1435.542, 1609.000
1436.587, 1578.000
1437.631, 1581.000
1438.676, 1574.000
1439.720, 1581.000
1440.764, 1612.000
1441.807, 1587.000
1442.851, 1595.000
1443.895, 1646.000
1444.938, 1586.000
1445.981, 1640.000
1447.024, 1608.000
1448.066, 1590.000
1449.109, 1623.000
1450.151, 1591.000
1451.194, 1585.000
1452.236, 1582.000
1453.277, 1580.286
1454.319, 1582.950
1455.361, 1593.000
1456.402, 1593.000
1457.443, 1589.000
1458.484, 1594.000
1459.525, 1582.000
1460.565, 1606.000
1461.606, 1595.000
1462.646, 1595.000
1463.686, 1571.000
1464.726, 1603.000
1465.766, 1600.000
1466.805, 1576.000
1467.845, 1573.000
1468.884, 1619.000
1469.923, 1605.000
1470.962, 1594.000
1472.000, 1538.000
1473.039, 1614.000
1474.077, 1637.000
1475.115, 1593.000
1476.153, 1566.000
1477.191, 1557.000
1478.229, 1586.000
1479.266, 1607.000
1480.303, 1612.000
1481.340, 1607.000
1482.377, 1594.000
1483.414, 1569.000
1484.451, 1549.000
1485.487, 1549.000
1486.523, 1580.000
1487.559, 1579.000
1488.595, 1603.000
1489.631, 1536.000
1490.666, 1571.000
1491.701, 1563.000
1492.736, 1538.000
1493.771, 1543.000
1494.806, 1567.000
1495.841, 1552.000
1496.875, 1519.000
1497.909, 1519.000
1498.943, 1549.000
1499.977, 1516.000
1501.011, 1541.000
1502.045, 1553.000
1503.078, 1563.000
1504.111, 1517.000
1505.144, 1528.000
1506.177, 1537.000
1507.209, 1561.000
1508.242, 1517.000
1509.274, 1522.000
1510.306, 1533.000
1511.338, 1505.000
1512.370, 1549.000
1513.402, 1571.000
1514.433, 1499.000
1515.464, 1511.000
1516.495, 1542.000
1517.526, 1510.000
1518.557, 1548.000
1519.587, 1505.000
1520.617, 1500.000
1521.648, 1515.000
1522.678, 1521.000
1523.707, 1504.000
1524.737, 1532.000
1525.766, 1558.000
1526.796, 1529.000
1527.825, 1535.000
1528.854, 1509.000
1529.882, 1543.000
1530.911, 1484.000
1531.939, 1639.000
1532.967, 1561.241
1533.995, 1674.000
1535.023, 1512.000
1536.051, 1495.000
1537.078, 1503.000
1538.106, 1533.000
1539.133, 1516.000
1540.160, 1472.000
1541.186, 1513.000
1542.213, 1501.000
1543.239, 1499.000
1544.266, 1539.000
1545.292, 1471.000
1546.318, 1500.000
1547.343, 1534.000
1548.369, 1481.000
1549.394, 1538.000
1550.419, 1549.000
1551.444, 1563.000
1552.469, 1610.000
1553.494, 1596.000
1554.518, 1603.000
1555.542, 1485.000
1556.566, 1462.000
1557.590, 1455.000
1558.614, 1472.000
1559.638, 1483.000
1560.661, 1451.000
1561.684, 1441.000
1562.707, 1425.000
1563.730, 1419.000
1564.753, 1423.000
1565.775, 1443.000
1566.797, 1435.000
1567.819, 1450.000
1568.841, 1450.000
1569.863, 1493.000
1570.885, 1450.000
1571.906, 1424.000
1572.927, 1474.000
1573.948, 1406.000
1574.969, 1412.000
1575.990, 1500.000
##END=



