##NAMES=Ferberite
##RRUFFID=R050090
##IDEAL CHEMISTRY=Fe^2+^W^6+^O_4_
##LOCALITY=Yaogangxian mine, Cheng Zhu City, South Hunan, China
##OWNER=RRUFF
##SOURCE=Rock Currier
##DESCRIPTION=Dark gray tabular crystal
##STATUS=The identification of this mineral has been confirmed by X-ray diffraction and chemical analysis
##URL=rruff.info/R050090
##MEASURED CHEMISTRY=(Fe^2+^_0.56_Mn_0.44_)W_1.00_O_4_
##PIN_ID=L01753
##ORIENTATION=Laser parallel to a* (1 0 0). Fiducial mark perpendicular to laser is parallel to b [0 1 0]
98.41600, 7181.000
99.64900, 7157.000
100.8830, 7243.000
102.1160, 7324.000
103.3490, 6995.912
104.5820, 7222.039
105.8150, 7401.729
107.0470, 7537.378
108.2800, 7497.572
109.5120, 7684.360
110.7440, 7780.300
111.9760, 7872.514
113.2080, 8091.208
114.4400, 8313.000
115.6710, 8799.000
116.9030, 9349.000
118.1340, 9694.000
119.3650, 10080.00
120.5960, 10591.00
121.8270, 11190.00
123.0580, 11887.00
124.2880, 12392.00
125.5190, 12295.00
126.7490, 11903.00
127.9790, 11480.00
129.2090, 11021.00
130.4390, 10336.00
131.6680, 9690.000
132.8980, 8929.000
134.1270, 8468.000
135.3560, 8080.000
136.5850, 7790.400
137.8140, 7691.192
139.0430, 7493.000
140.2710, 7591.000
141.5000, 7429.000
142.7280, 7159.000
143.9560, 7075.000
145.1840, 6876.000
146.4120, 7024.000
147.6390, 6967.000
148.8670, 7010.000
150.0940, 6956.000
151.3210, 6981.000
152.5490, 7200.000
153.7750, 7330.000
155.0020, 7132.000
156.2290, 7070.000
157.4550, 6926.000
158.6810, 6895.000
159.9080, 6956.000
161.1340, 7018.000
162.3590, 6976.000
163.5850, 7067.000
164.8110, 7215.000
166.0360, 7396.000
167.2610, 7352.000
168.4860, 7346.000
169.7110, 7350.000
170.9360, 7353.990
172.1610, 7475.000
173.3850, 7417.000
174.6100, 7346.000
175.8340, 7412.000
177.0580, 7317.000
178.2820, 7385.000
179.5050, 7511.000
180.7290, 7303.000
181.9520, 7363.000
183.1760, 7459.000
184.3990, 7382.000
185.6220, 7522.000
186.8450, 7704.000
188.0670, 7788.000
189.2900, 7911.000
190.5120, 7999.000
191.7340, 8085.000
192.9560, 8330.000
194.1780, 8528.000
195.4000, 8641.000
196.6220, 8994.000
197.8430, 9262.000
199.0640, 9390.000
200.2860, 9676.000
201.5070, 10075.00
202.7270, 10079.00
203.9480, 10282.00
205.1690, 9744.000
206.3890, 9126.000
207.6090, 8593.000
208.8290, 8289.000
210.0490, 8107.000
211.2690, 7801.000
212.4890, 7761.000
213.7080, 7695.000
214.9280, 7543.000
216.1470, 7320.000
217.3660, 7198.000
218.5850, 7101.000
219.8030, 7092.000
221.0220, 7019.000
222.2400, 7018.000
223.4590, 7029.000
224.6770, 6989.794
225.8950, 6965.856
227.1120, 6945.000
228.3300, 6900.000
229.5480, 6846.000
230.7650, 6855.000
231.9820, 6858.000
233.1990, 6857.000
234.4160, 6875.000
235.6330, 6924.000
236.8490, 6886.000
238.0660, 6912.000
239.2820, 6788.000
240.4980, 6879.000
241.7140, 6918.000
242.9300, 6792.000
244.1460, 6929.000
245.3610, 6938.000
246.5770, 6887.000
247.7920, 6916.000
249.0070, 6991.000
250.2220, 7063.000
251.4370, 7079.000
252.6510, 7095.000
253.8660, 7125.000
255.0800, 7287.000
256.2940, 7212.000
257.5080, 7360.000
258.7220, 7556.000
259.9360, 7616.643
261.1490, 7618.440
262.3630, 7785.000
263.5760, 7525.000
264.7890, 7329.000
266.0020, 7314.000
267.2150, 7460.000
268.4270, 7408.000
269.6400, 7321.000
270.8520, 7238.000
272.0640, 7235.000
273.2760, 7222.000
274.4880, 7094.000
275.7000, 7173.000
276.9120, 7202.000
278.1230, 7191.000
279.3340, 7017.000
280.5450, 7121.000
281.7560, 7115.000
282.9670, 7154.000
284.1780, 7241.000
285.3880, 7222.000
286.5980, 7284.000
287.8090, 7315.000
289.0190, 7365.000
290.2290, 7382.588
291.4380, 7349.000
292.6480, 7408.000
293.8570, 7442.000
295.0670, 7457.000
296.2760, 7581.000
297.4850, 7578.000
298.6930, 7525.000
299.9020, 7581.000
301.1110, 7486.000
302.3190, 7617.000
303.5270, 7730.000
304.7350, 7753.000
305.9430, 8016.000
307.1510, 7925.000
308.3580, 8100.000
309.5660, 8345.000
310.7730, 8595.000
311.9800, 8646.000
313.1870, 9051.000
314.3940, 9075.000
315.6010, 9435.000
316.8070, 9616.000
318.0130, 9758.000
319.2200, 10010.00
320.4260, 10144.00
321.6310, 10258.00
322.8370, 10220.00
324.0430, 10387.00
325.2480, 10322.00
326.4540, 10048.00
327.6590, 9995.000
328.8640, 9761.000
330.0680, 9597.000
331.2730, 9315.000
332.4780, 9230.000
333.6820, 8920.000
334.8860, 9026.000
336.0900, 8624.000
337.2940, 8655.000
338.4980, 8455.000
339.7010, 8254.000
340.9050, 8167.000
342.1080, 8129.000
343.3110, 8108.000
344.5140, 7994.000
345.7170, 7987.000
346.9200, 8007.000
348.1220, 7938.000
349.3240, 7959.000
350.5270, 7804.000
351.7290, 7745.000
352.9310, 7845.000
354.1320, 7718.000
355.3340, 7744.000
356.5350, 7631.000
357.7370, 7593.000
358.9380, 7561.000
360.1390, 7593.000
361.3400, 7538.000
362.5400, 7533.000
363.7410, 7563.000
364.9410, 7461.000
366.1410, 7553.000
367.3410, 7514.000
368.5410, 7390.000
369.7410, 7592.000
370.9400, 7421.000
372.1400, 7456.000
373.3390, 7487.000
374.5380, 7446.000
375.7370, 7389.000
376.9360, 7412.000
378.1350, 7365.000
379.3330, 7489.000
380.5310, 7525.000
381.7300, 7488.000
382.9280, 7584.000
384.1260, 7545.000
385.3230, 7532.000
386.5210, 7731.000
387.7180, 7759.000
388.9160, 7863.000
390.1130, 8058.000
391.3100, 8156.000
392.5060, 8262.000
393.7030, 8324.979
394.9000, 8302.000
396.0960, 8315.000
397.2920, 8265.000
398.4880, 8107.000
399.6840, 8079.000
400.8800, 7977.000
402.0750, 7845.000
403.2710, 7778.000
404.4660, 7692.000
405.6610, 7585.000
406.8560, 7755.000
408.0510, 7590.000
409.2450, 7596.000
410.4400, 7514.000
411.6340, 7512.000
412.8280, 7471.000
414.0220, 7425.000
415.2160, 7382.000
416.4100, 7447.000
417.6030, 7395.000
418.7970, 7436.000
419.9900, 7423.000
421.1830, 7534.000
422.3760, 7438.000
423.5690, 7438.953
424.7610, 7459.765
425.9540, 7355.000
427.1460, 7439.000
428.3380, 7435.000
429.5300, 7369.000
430.7220, 7381.000
431.9140, 7485.000
433.1050, 7439.000
434.2970, 7475.000
435.4880, 7450.000
436.6790, 7558.000
437.8700, 7518.000
439.0610, 7519.000
440.2510, 7460.000
441.4420, 7472.000
442.6320, 7478.255
443.8220, 7613.000
445.0120, 7511.000
446.2020, 7562.000
447.3910, 7562.000
448.5810, 7548.582
449.7700, 7680.000
450.9600, 7622.000
452.1490, 7411.000
453.3370, 7541.000
454.5260, 7500.000
455.7150, 7524.000
456.9030, 7641.000
458.0910, 7643.000
459.2800, 7535.000
460.4670, 7671.000
461.6550, 7601.000
462.8430, 7627.000
464.0300, 7580.000
465.2180, 7626.000
466.4050, 7645.148
467.5920, 7524.000
468.7790, 7733.000
469.9650, 7664.000
471.1520, 7726.000
472.3380, 7651.000
473.5250, 7725.000
474.7110, 7705.000
475.8970, 7800.000
477.0820, 7745.000
478.2680, 7837.000
479.4540, 7639.000
480.6390, 7775.000
481.8240, 7671.000
483.0090, 7693.000
484.1940, 7816.000
485.3780, 7772.000
486.5630, 7780.000
487.7470, 7856.000
488.9320, 7830.000
490.1160, 7890.000
491.3000, 7896.000
492.4830, 7859.000
493.6670, 7920.000
494.8500, 8043.000
496.0340, 8114.000
497.2170, 8080.000
498.4000, 8062.000
499.5820, 8095.000
500.7650, 8110.000
501.9480, 8185.000
503.1300, 8113.000
504.3120, 8205.000
505.4940, 8180.000
506.6760, 8239.000
507.8580, 8220.000
509.0390, 8265.000
510.2210, 8371.000
511.4020, 8293.000
512.5830, 8294.000
513.7640, 8212.000
514.9450, 8300.000
516.1250, 8324.000
517.3060, 8277.000
518.4860, 8391.000
519.6660, 8295.000
520.8460, 8306.000
522.0260, 8347.000
523.2060, 8360.000
524.3850, 8460.000
525.5650, 8411.000
526.7440, 8481.000
527.9230, 8555.000
529.1020, 8422.000
530.2810, 8571.000
531.4590, 8679.000
532.6380, 8601.000
533.8160, 8629.000
534.9940, 8666.000
536.1720, 8640.000
537.3500, 8554.000
538.5270, 8607.000
539.7050, 8571.000
540.8820, 8617.000
542.0590, 8537.000
543.2360, 8579.000
544.4130, 8437.000
545.5900, 8385.000
546.7660, 8304.000
547.9430, 8370.000
549.1190, 8330.000
550.2950, 8213.000
551.4710, 8243.000
552.6470, 8183.000
553.8220, 8253.000
554.9980, 8080.000
556.1730, 8014.000
557.3480, 8040.000
558.5230, 8036.000
559.6980, 8030.000
560.8730, 8013.000
562.0470, 7945.000
563.2220, 7883.000
564.3960, 7970.000
565.5700, 7860.000
566.7440, 7947.000
567.9170, 8030.000
569.0910, 7865.000
570.2640, 7964.000
571.4380, 7906.000
572.6110, 7785.000
573.7840, 7906.000
574.9570, 7935.000
576.1290, 7951.000
577.3020, 7850.000
578.4740, 7818.000
579.6460, 7989.000
580.8180, 7725.000
581.9900, 7850.000
583.1620, 7809.775
584.3330, 7772.000
585.5040, 7825.000
586.6760, 7733.000
587.8470, 7822.000
589.0180, 7715.000
590.1880, 7793.000
591.3590, 7755.000
592.5290, 7859.000
593.7000, 7735.000
594.8700, 7798.000
596.0400, 7710.000
597.2090, 7776.000
598.3790, 7791.000
599.5490, 7720.000
600.7180, 7832.000
601.8870, 7781.000
603.0560, 7863.000
604.2250, 7837.000
605.3940, 7892.000
606.5620, 7915.000
607.7300, 7878.000
608.8990, 7906.000
610.0670, 7826.000
611.2350, 7809.000
612.4020, 7763.000
613.5700, 8010.000
614.7370, 7860.000
615.9050, 7934.000
617.0720, 7980.000
618.2390, 7919.000
619.4060, 7930.000
620.5720, 8013.000
621.7390, 7885.000
622.9050, 7916.000
624.0710, 8038.000
625.2370, 7993.000
626.4030, 7968.000
627.5690, 7984.000
628.7340, 7955.000
629.9000, 8059.000
631.0650, 8066.000
632.2300, 7964.000
633.3950, 8139.000
634.5600, 8038.000
635.7240, 8110.000
636.8890, 8140.000
638.0530, 8131.000
639.2170, 8088.000
640.3810, 8180.000
641.5450, 8046.000
642.7080, 8154.000
643.8720, 8142.000
645.0350, 8054.000
646.1980, 8195.000
647.3610, 8186.000
648.5240, 8154.000
649.6870, 8267.000
650.8490, 8230.000
652.0120, 8262.000
653.1740, 8285.000
654.3360, 8337.000
655.4980, 8261.000
656.6600, 8212.000
657.8210, 8242.000
658.9830, 8410.000
660.1440, 8422.000
661.3050, 8429.000
662.4660, 8502.000
663.6270, 8406.000
664.7870, 8554.000
665.9480, 8552.000
667.1080, 8712.000
668.2680, 8687.000
669.4280, 8657.000
670.5880, 8937.000
671.7480, 8769.000
672.9070, 8954.000
674.0670, 9108.000
675.2260, 9095.000
676.3850, 9192.000
677.5440, 9193.457
678.7030, 9284.000
679.8610, 9154.000
681.0200, 9394.000
682.1780, 9361.000
683.3360, 9344.000
684.4940, 9599.000
685.6520, 9628.000
686.8090, 9680.000
687.9670, 9671.000
689.1240, 9722.000
690.2810, 9647.000
691.4380, 9775.000
692.5950, 9723.000
693.7520, 9725.000
694.9080, 9572.000
696.0650, 9525.000
697.2210, 9462.000
698.3770, 9608.000
699.5330, 9459.000
700.6880, 9407.000
701.8440, 9262.000
702.9990, 9300.000
704.1550, 9148.000
705.3100, 9063.000
706.4650, 9201.000
707.6190, 8886.000
708.7740, 8794.000
709.9290, 9004.000
711.0830, 8794.000
712.2370, 8729.000
713.3910, 8737.000
714.5450, 8612.000
715.6980, 8686.000
716.8520, 8607.000
718.0050, 8545.000
719.1580, 8554.000
720.3110, 8581.000
721.4640, 8492.000
722.6170, 8499.000
723.7700, 8438.000
724.9220, 8495.000
726.0740, 8472.000
727.2260, 8353.000
728.3780, 8468.000
729.5300, 8379.000
730.6810, 8353.000
731.8330, 8414.000
732.9840, 8457.000
734.1350, 8408.000
735.2860, 8464.306
736.4370, 8409.000
737.5880, 8489.000
738.7380, 8479.000
739.8880, 8465.000
741.0390, 8420.000
742.1890, 8477.000
743.3380, 8407.000
744.4880, 8540.000
745.6380, 8408.000
746.7870, 8400.000
747.9360, 8514.000
749.0850, 8548.000
750.2340, 8618.000
751.3830, 8686.000
752.5310, 8553.000
753.6800, 8572.000
754.8280, 8609.000
755.9760, 8669.000
757.1240, 8688.000
758.2720, 8708.157
759.4190, 8668.000
760.5670, 8748.000
761.7140, 8719.000
762.8610, 8788.553
764.0080, 8810.000
765.1550, 8825.000
766.3020, 8847.000
767.4480, 8800.000
768.5950, 8876.000
769.7410, 8974.000
770.8870, 9008.000
772.0330, 8960.000
773.1780, 8909.000
774.3240, 8881.000
775.4690, 8779.000
776.6140, 8876.000
777.7590, 8917.000
778.9040, 8886.000
780.0490, 8983.000
781.1940, 8877.000
782.3380, 8861.000
783.4820, 8882.000
784.6260, 8842.000
785.7700, 8969.000
786.9140, 8891.000
788.0580, 8901.000
789.2010, 8828.000
790.3450, 8789.000
791.4880, 8857.000
792.6310, 8916.000
793.7730, 8892.000
794.9160, 8801.000
796.0590, 8730.000
797.2010, 8838.000
798.3430, 8918.000
799.4850, 8912.000
800.6270, 8790.000
801.7690, 8885.000
802.9100, 8838.000
804.0520, 8967.000
805.1930, 8907.000
806.3340, 9032.000
807.4750, 8909.000
808.6160, 8981.000
809.7560, 8873.000
810.8970, 8946.000
812.0370, 8954.000
813.1770, 9081.000
814.3170, 9008.000
815.4570, 8966.000
816.5960, 9131.000
817.7360, 9100.000
818.8750, 9078.000
820.0140, 9153.000
821.1530, 9085.000
822.2920, 9179.000
823.4310, 9259.000
824.5690, 9181.000
825.7070, 9240.000
826.8460, 9298.000
827.9840, 9365.000
829.1220, 9377.000
830.2590, 9322.000
831.3970, 9482.000
832.5340, 9538.000
833.6710, 9495.000
834.8080, 9572.000
835.9450, 9621.000
837.0820, 9762.000
838.2190, 9735.000
839.3550, 9899.000
840.4910, 10055.00
841.6270, 10041.00
842.7630, 10244.00
843.8990, 10283.00
845.0350, 10367.00
846.1700, 10576.00
847.3060, 10651.00
848.4410, 10747.00
849.5760, 11013.00
850.7100, 11200.00
851.8450, 11376.00
852.9800, 11745.00
854.1140, 11929.00
855.2480, 12301.00
856.3820, 12702.00
857.5160, 13020.00
858.6500, 13514.00
859.7830, 14031.00
860.9170, 14603.00
862.0500, 15211.00
863.1830, 16083.00
864.3160, 16658.00
865.4480, 17991.00
866.5810, 18803.00
867.7130, 20036.00
868.8460, 21422.00
869.9780, 22613.00
871.1100, 24448.00
872.2410, 26325.00
873.3730, 27682.00
874.5050, 29231.00
875.6360, 30561.00
876.7670, 31658.00
877.8980, 32183.00
879.0290, 32148.00
880.1590, 32187.00
881.2900, 31096.00
882.4200, 29950.00
883.5500, 28267.00
884.6800, 26737.00
885.8100, 24823.00
886.9400, 22943.00
888.0690, 21168.00
889.1990, 19699.00
890.3280, 18218.00
891.4570, 16893.00
892.5860, 15767.00
893.7140, 14806.00
894.8430, 14121.00
895.9710, 13494.00
897.1000, 12794.00
898.2280, 12444.00
899.3560, 11878.00
900.4830, 11709.00
901.6110, 11270.00
902.7380, 10959.00
903.8660, 10728.00
904.9930, 10640.00
906.1200, 10440.00
907.2460, 10291.00
908.3730, 10185.00
909.5000, 10053.00
910.6260, 10049.00
911.7520, 9841.000
912.8780, 9770.000
914.0040, 9705.000
915.1290, 9759.000
916.2550, 9595.000
917.3800, 9580.000
918.5050, 9371.000
919.6300, 9443.000
920.7550, 9277.000
921.8800, 9390.000
923.0040, 9364.000
924.1290, 9308.000
925.2530, 9243.000
926.3770, 9269.000
927.5010, 9259.000
928.6250, 9233.000
929.7480, 9217.000
930.8720, 9216.000
931.9950, 9147.000
933.1180, 9086.000
934.2410, 9176.000
935.3640, 9028.000
936.4860, 8935.000
937.6090, 9048.000
938.7310, 9054.000
939.8530, 9003.000
940.9750, 9142.000
942.0970, 9077.000
943.2180, 8946.000
944.3400, 8968.000
945.4610, 8968.000
946.5820, 9007.000
947.7030, 8994.000
948.8240, 8986.000
949.9450, 8999.000
951.0650, 8986.000
952.1860, 8945.000
953.3060, 9013.000
954.4260, 8934.000
955.5460, 8979.000
956.6650, 8943.000
957.7850, 9070.000
958.9040, 8974.000
960.0230, 8939.000
961.1420, 9044.000
962.2610, 8929.000
963.3800, 8955.000
964.4990, 8976.000
965.6170, 8999.000
966.7350, 8962.000
967.8530, 8874.000
968.9710, 8940.000
970.0890, 8873.721
971.2070, 8963.000
972.3240, 8867.000
973.4410, 8902.000
974.5580, 8990.000
975.6750, 8835.000
976.7920, 8905.000
977.9090, 8945.000
979.0250, 9002.000
980.1410, 9005.000
981.2580, 8965.000
982.3740, 8894.000
983.4890, 8978.000
984.6050, 9059.000
985.7200, 8846.000
986.8360, 8961.000
987.9510, 8913.000
989.0660, 8994.000
990.1810, 9013.000
991.2950, 9082.000
992.4100, 8955.000
993.5240, 9001.000
994.6390, 8981.000
995.7530, 8932.000
996.8660, 9061.000
997.9800, 8955.000
999.0940, 9088.000
1000.207, 9005.000
1001.320, 9069.000
1002.433, 8996.000
1003.546, 9037.000
1004.659, 9016.000
1005.772, 9105.000
1006.884, 9110.000
1007.996, 9093.048
1009.108, 8951.000
1010.220, 9056.000
1011.332, 8969.000
1012.444, 8972.000
1013.555, 9065.000
1014.666, 9054.000
1015.777, 9200.000
1016.888, 8972.000
1017.999, 9094.000
1019.110, 8991.000
1020.220, 9151.000
1021.331, 9136.000
1022.441, 9144.000
1023.551, 9163.000
1024.661, 9084.000
1025.770, 9151.000
1026.880, 8995.000
1027.989, 9087.000
1029.098, 9104.000
1030.207, 9132.000
1031.316, 9158.000
1032.425, 9132.000
1033.533, 9221.000
1034.642, 9177.000
1035.750, 9107.000
1036.858, 9272.000
1037.966, 9244.000
1039.073, 9172.000
1040.181, 9125.000
1041.288, 9132.000
1042.396, 9188.000
1043.503, 9168.000
1044.610, 9165.633
1045.716, 9325.000
1046.823, 9150.000
1047.929, 9283.000
1049.036, 9347.000
1050.142, 9249.000
1051.248, 9288.000
1052.353, 9245.000
1053.459, 9347.000
1054.564, 9273.000
1055.670, 9245.000
1056.775, 9206.000
1057.880, 9269.000
1058.985, 9219.000
1060.089, 9263.000
1061.194, 9231.000
1062.298, 9271.000
1063.402, 9322.000
1064.506, 9307.000
1065.610, 9259.000
1066.713, 9302.000
1067.817, 9357.000
1068.920, 9269.000
1070.023, 9306.000
1071.126, 9336.000
1072.229, 9317.000
1073.332, 9230.000
1074.435, 9309.000
1075.537, 9593.000
1076.639, 9478.606
1077.741, 9437.000
1078.843, 9469.000
1079.945, 9337.000
1081.046, 9334.000
1082.148, 9340.000
1083.249, 9342.000
1084.350, 9406.000
1085.451, 9296.000
1086.551, 9210.000
1087.652, 9396.000
1088.752, 9352.000
1089.853, 9426.000
1090.953, 9318.000
1092.053, 9512.000
1093.152, 9426.909
1094.252, 9368.000
1095.351, 9338.000
1096.451, 9445.000
1097.550, 9355.000
1098.649, 9372.000
1099.748, 9371.000
1100.846, 9363.000
1101.945, 9347.000
1103.043, 9345.000
1104.141, 9472.000
1105.239, 9491.000
1106.337, 9410.000
1107.434, 9248.445
1108.532, 9361.530
1109.629, 9428.171
1110.726, 9450.869
1111.823, 9298.014
1112.920, 9371.850
1114.017, 9354.838
1115.113, 9334.095
1116.210, 9439.836
1117.306, 9312.509
1118.402, 9416.238
1119.498, 9427.734
1120.593, 9481.437
1121.689, 9443.736
1122.784, 9434.264
1123.879, 9516.229
1124.974, 9547.563
1126.069, 9499.335
1127.164, 9555.720
1128.259, 9425.193
1129.353, 9458.679
1130.447, 9562.931
1131.541, 9519.291
1132.635, 9577.342
1133.729, 9596.663
1134.822, 9439.971
1135.916, 9589.380
1137.009, 9606.406
1138.102, 9391.000
1139.195, 9432.000
1140.288, 9436.000
1141.380, 9411.000
1142.473, 9551.000
1143.565, 9443.000
1144.657, 9397.000
1145.749, 9391.000
1146.841, 9493.000
1147.932, 9424.000
1149.024, 9455.000
1150.115, 9433.000
1151.206, 9474.000
1152.297, 9442.000
1153.388, 9464.000
1154.479, 9476.000
1155.569, 9389.000
1156.659, 9621.000
1157.750, 9555.000
1158.839, 9544.000
1159.929, 9475.000
1161.019, 9521.000
1162.108, 9467.000
1163.198, 9525.000
1164.287, 9570.000
1165.376, 9488.000
1166.465, 9492.000
1167.553, 9603.000
1168.642, 9481.000
1169.730, 9491.000
1170.818, 9390.000
1171.906, 9503.000
1172.994, 9562.000
1174.082, 9566.000
1175.170, 9546.000
1176.257, 9565.000
1177.344, 9542.000
1178.431, 9435.000
1179.518, 9556.000
1180.605, 9645.000
1181.691, 9567.000
1182.778, 9659.000
1183.864, 9552.000
1184.950, 9577.000
1186.036, 9632.000
1187.122, 9590.000
1188.207, 9625.421
1189.292, 9604.000
1190.378, 9622.000
1191.463, 9703.000
1192.548, 9670.000
1193.632, 9611.000
1194.717, 9671.000
1195.801, 9604.000
1196.886, 9691.000
1197.970, 9720.000
1199.054, 9737.000
1200.137, 9614.000
1201.221, 9766.000
1202.305, 9584.000
1203.388, 9825.000
1204.471, 9712.670
1205.554, 9866.000
1206.637, 9671.000
1207.719, 9676.000
1208.802, 9821.000
1209.884, 9664.000
1210.966, 9816.000
1212.048, 9773.000
1213.130, 9746.000
1214.212, 9672.000
1215.293, 9614.000
1216.374, 9754.000
1217.456, 9845.000
1218.536, 9745.000
1219.617, 9790.000
1220.698, 9817.000
1221.778, 9656.000
1222.859, 9875.000
1223.939, 9889.000
1225.019, 9884.000
1226.099, 9743.000
1227.178, 9916.000
1228.258, 9833.000
1229.337, 9793.000
1230.417, 9909.000
1231.496, 9898.000
1232.574, 9884.000
1233.653, 9807.000
1234.732, 9883.000
1235.810, 9966.000
1236.888, 9902.000
1237.966, 9932.000
1239.044, 9854.000
1240.122, 9845.000
1241.199, 9968.000
1242.277, 9936.052
1243.354, 10077.00
1244.431, 10054.00
1245.508, 9924.000
1246.585, 10063.00
1247.661, 10103.00
1248.738, 9932.000
1249.814, 10071.00
1250.890, 10082.00
1251.966, 9986.000
1253.042, 10041.00
1254.117, 9896.000
1255.193, 9935.000
1256.268, 9812.000
1257.343, 9833.000
1258.418, 10082.00
1259.493, 9994.000
1260.567, 10007.00
1261.642, 9973.000
1262.716, 9986.218
1263.790, 10142.00
1264.864, 10033.00
1265.938, 10144.00
1267.011, 10148.00
1268.085, 10195.00
1269.158, 10044.00
1270.231, 10011.00
1271.304, 10057.00
1272.377, 10098.00
1273.450, 10196.00
1274.522, 10582.00
1275.594, 10389.42
1276.666, 10657.00
1277.738, 10225.00
1278.810, 10202.00
1279.882, 10219.00
1280.953, 10224.00
1282.025, 10205.00
1283.096, 10354.00
1284.167, 10285.00
1285.238, 10381.00
1286.308, 10337.00
1287.379, 10284.00
1288.449, 10208.00
1289.519, 10294.00
1290.589, 10315.00
1291.659, 10357.00
1292.729, 10376.00
1293.798, 10252.00
1294.868, 10388.00
1295.937, 10503.00
1297.006, 10495.00
1298.075, 10541.35
1299.143, 10399.00
1300.212, 10533.00
1301.280, 10435.44
1302.348, 10470.00
1303.416, 10445.00
1304.484, 10467.00
1305.552, 10571.00
1306.620, 10394.00
1307.687, 10459.00
1308.754, 10497.00
1309.821, 10315.00
1310.888, 10464.00
1311.955, 10514.00
1313.021, 10365.00
1314.088, 10459.00
1315.154, 10497.00
1316.220, 10623.00
1317.286, 10675.00
1318.352, 10582.00
1319.417, 10596.00
1320.483, 10600.00
1321.548, 10536.00
1322.613, 10582.00
1323.678, 10607.00
1324.743, 10636.00
1325.807, 10612.00
1326.872, 10646.00
1327.936, 10613.00
1329.000, 10747.00
1330.064, 10502.00
1331.128, 10617.00
1332.191, 10435.00
1333.255, 10673.00
1334.318, 10612.00
1335.381, 10659.00
1336.444, 10600.00
1337.507, 10615.00
1338.569, 10708.00
1339.632, 10689.00
1340.694, 10642.00
1341.756, 10676.00
1342.818, 10691.00
1343.880, 10690.00
1344.941, 10783.00
1346.003, 10829.00
1347.064, 10768.00
1348.125, 10855.00
1349.186, 10626.00
1350.247, 10608.00
1351.308, 10674.00
1352.368, 10668.00
1353.428, 10803.00
1354.489, 10806.00
1355.549, 10792.00
1356.608, 10733.00
1357.668, 10805.00
1358.727, 10792.00
1359.787, 10865.00
1360.846, 10808.00
1361.905, 10923.00
1362.964, 10866.00
1364.022, 10734.00
1365.081, 10710.00
1366.139, 10841.00
1367.197, 10857.00
1368.255, 10877.00
1369.313, 10912.76
1370.371, 10812.00
1371.428, 10885.00
1372.486, 10879.00
1373.543, 10799.00
1374.600, 10846.00
1375.657, 10873.00
1376.713, 10876.00
1377.770, 10835.00
1378.826, 10952.00
1379.882, 10842.00
1380.938, 10906.00
1381.994, 10914.12
1383.050, 10817.00
1384.106, 10899.00
1385.161, 10881.00
1386.216, 10788.00
1387.271, 10810.00
1388.326, 10869.00
1389.381, 10867.00
1390.435, 10817.00
1391.490, 10958.00
1392.544, 10902.00
1393.598, 11022.00
1394.652, 10881.00
1395.705, 10942.00
1396.759, 10894.00
1397.812, 10841.00
1398.866, 10799.00
1399.919, 10782.00
1400.972, 10825.00
1402.024, 10805.00
1403.077, 10787.00
1404.129, 10907.00
1405.181, 10808.00
1406.233, 10828.00
1407.285, 10808.00
1408.337, 10933.00
1409.389, 10990.00
1410.440, 10884.00
1411.491, 10809.00
1412.542, 10885.00
1413.593, 10839.00
1414.644, 10869.00
1415.695, 10818.00
1416.745, 11036.00
1417.795, 10794.00
1418.845, 11054.00
1419.895, 11023.00
1420.945, 10920.00
1421.995, 10866.00
1423.044, 10950.00
1424.093, 10847.00
1425.142, 10895.00
1426.191, 10844.00
1427.240, 10846.00
1428.289, 10854.44
1429.337, 10905.00
1430.385, 10861.00
1431.433, 10908.00
1432.481, 10918.00
1433.529, 10898.00
1434.577, 10982.00
1435.624, 10997.00
1436.672, 10985.00
1437.719, 11063.00
1438.766, 10937.00
1439.812, 11000.00
1440.859, 10997.00
1441.905, 10907.00
1442.952, 10906.00
1443.998, 10898.00
1445.044, 10944.00
1446.090, 10962.00
1447.135, 10846.00
1448.181, 10868.00
1449.226, 10927.00
1450.271, 10961.00
1451.316, 10995.00
1452.361, 10946.00
1453.405, 10942.00
1454.450, 10946.00
1455.494, 10972.00
1456.538, 10980.00
1457.582, 10877.00
1458.626, 11032.00
1459.670, 11051.00
1460.713, 10961.00
1461.757, 10919.00
1462.800, 10885.00
1463.843, 11004.00
1464.886, 10926.00
1465.928, 10945.00
1466.971, 11017.00
1468.013, 10961.00
1469.055, 10966.00
1470.097, 10977.00
1471.139, 11044.00
1472.181, 10987.00
1473.222, 11081.00
1474.263, 11126.00
1475.305, 11062.00
1476.346, 10997.00
1477.386, 11045.00
1478.427, 11167.00
1479.468, 11053.00
1480.508, 11123.00
1481.548, 11082.00
1482.588, 11050.00
1483.628, 11075.86
1484.668, 11041.20
1485.707, 11033.00
1486.747, 11129.00
1487.786, 11021.00
1488.825, 11290.00
1489.864, 11168.00
1490.902, 11207.00
1491.941, 11196.00
1492.979, 11110.00
1494.017, 11186.00
1495.055, 11236.00
1496.093, 11185.00
1497.131, 11208.00
1498.168, 11071.00
1499.206, 11281.00
1500.243, 11203.00
1501.280, 11360.00
1502.317, 11177.00
1503.354, 11259.00
1504.390, 11297.00
1505.426, 11298.00
1506.463, 11307.99
1507.499, 11316.00
1508.535, 11300.00
1509.570, 11317.00
1510.606, 11393.00
1511.641, 11461.00
1512.676, 11426.00
1513.711, 11480.00
1514.746, 11507.00
1515.781, 11461.00
1516.816, 11376.00
1517.850, 11531.00
1518.884, 11398.00
1519.918, 11328.00
1520.952, 11419.00
1521.986, 11391.00
1523.019, 11482.00
1524.053, 11630.00
1525.086, 11478.00
1526.119, 11535.00
1527.152, 11558.00
1528.185, 11484.00
1529.217, 11539.00
1530.250, 11649.00
1531.282, 11579.00
1532.314, 11722.00
1533.346, 11677.00
1534.377, 11546.00
1535.409, 11731.00
1536.440, 11752.00
1537.472, 11616.00
1538.503, 11717.00
1539.534, 11674.00
1540.564, 11784.00
1541.595, 11820.00
1542.625, 11664.79
1543.656, 11783.54
1544.686, 11855.84
1545.716, 11884.20
1546.745, 11737.00
1547.775, 11816.50
1548.804, 11805.13
1549.834, 11790.06
1550.863, 11901.45
1551.892, 11779.78
1552.920, 11889.15
1553.949, 11906.30
1554.977, 11965.66
1556.006, 11933.61
1557.034, 11929.79
1558.062, 12017.41
1559.089, 12054.38
1560.117, 12011.80
1561.144, 12073.83
1562.172, 11948.95
1563.199, 11988.08
1564.226, 12097.97
1565.252, 12003.00
1566.279, 12230.00
1567.305, 12128.00
1568.332, 12063.00
1569.358, 12218.00
1570.384, 12045.00
1571.409, 12058.00
1572.435, 12261.00
##END=



