##NAMES=Ferberite
##RRUFFID=R050632
##IDEAL CHEMISTRY=Fe^2+^W^6+^O_4_
##LOCALITY=Chance mine, Boulder, Colorado, USA
##OWNER=RRUFF
##SOURCE=University of Arizona Mineral Museum
##DESCRIPTION=Dark brown rectangular prismatic crystals
##STATUS=The identification of this mineral has been confirmed by X-ray diffraction and chemical analysis
##URL=rruff.info/R050632
##MEASURED CHEMISTRY=Fe^2+^_1.00_WO_4_
##PIN_ID=M00360
##ORIENTATION=Laser parallel to -a* (-1 0 0). Fiducial mark perpendicular to laser is parallel to b [0 1 0]
157.4550, 19169.00
158.6810, 18959.00
159.9080, 18954.00
161.1340, 19309.00
162.3590, 19338.00
163.5850, 19785.00
164.8110, 19974.00
166.0360, 19842.00
167.2610, 19920.00
168.4860, 20024.00
169.7110, 20228.00
170.9360, 20308.00
172.1610, 20105.00
173.3850, 20125.00
174.6100, 20193.00
175.8340, 20335.00
177.0580, 20085.00
178.2820, 20363.00
179.5050, 20368.00
180.7290, 20277.00
181.9520, 20508.00
183.1760, 20434.00
184.3990, 20612.00
185.6220, 20763.00
186.8450, 20954.00
188.0670, 21108.00
189.2900, 21291.00
190.5120, 21256.00
191.7340, 21697.00
192.9560, 21900.00
194.1780, 22498.00
195.4000, 22767.00
196.6220, 23289.00
197.8430, 23705.00
199.0640, 24538.00
200.2860, 25466.00
201.5070, 26742.00
202.7270, 27604.00
203.9480, 28195.00
205.1690, 28359.00
206.3890, 28540.00
207.6090, 27997.00
208.8290, 27561.00
210.0490, 26697.00
211.2690, 25794.00
212.4890, 24494.00
213.7080, 24017.00
214.9280, 23004.00
216.1470, 22383.00
217.3660, 21701.00
218.5850, 21155.00
219.8030, 20761.28
221.0220, 20696.00
222.2400, 20244.00
223.4590, 20235.00
224.6770, 20297.00
225.8950, 20191.00
227.1120, 20020.00
228.3300, 20116.00
229.5480, 19804.00
230.7650, 19879.00
231.9820, 19884.00
233.1990, 19882.00
234.4160, 19816.00
235.6330, 19728.00
236.8490, 19730.05
238.0660, 19869.00
239.2820, 19734.00
240.4980, 19787.00
241.7140, 19884.00
242.9300, 19825.00
244.1460, 19865.00
245.3610, 19907.00
246.5770, 19954.00
247.7920, 20044.00
249.0070, 20065.45
250.2220, 20069.00
251.4370, 20116.00
252.6510, 20481.00
253.8660, 20405.18
255.0800, 20683.84
256.2940, 20915.44
257.5080, 21102.52
258.7220, 21111.69
259.9360, 21350.59
261.1490, 21497.28
262.3630, 21640.34
263.5760, 21911.43
264.7890, 21946.34
266.0020, 21922.00
267.2150, 22332.00
268.4270, 22208.00
269.6400, 22130.00
270.8520, 22121.00
272.0640, 21926.00
273.2760, 21667.00
274.4880, 21422.00
275.7000, 21301.00
276.9120, 21178.00
278.1230, 21027.00
279.3340, 20812.00
280.5450, 20720.86
281.7560, 20598.00
282.9670, 20484.00
284.1780, 20538.00
285.3880, 20426.00
286.5980, 20538.00
287.8090, 20578.00
289.0190, 20732.00
290.2290, 20915.00
291.4380, 20705.00
292.6480, 21090.00
293.8570, 21202.09
295.0670, 21396.00
296.2760, 21630.00
297.4850, 21741.38
298.6930, 21824.00
299.9020, 21686.00
301.1110, 21797.00
302.3190, 21691.00
303.5270, 21889.00
304.7350, 22165.00
305.9430, 22251.00
307.1510, 22563.00
308.3580, 22741.00
309.5660, 23362.00
310.7730, 23559.00
311.9800, 24149.00
313.1870, 24699.00
314.3940, 25302.00
315.6010, 26182.00
316.8070, 26979.00
318.0130, 27691.00
319.2200, 28972.00
320.4260, 30197.00
321.6310, 31303.00
322.8370, 32473.00
324.0430, 33361.00
325.2480, 33970.00
326.4540, 34522.00
327.6590, 34212.00
328.8640, 33653.00
330.0680, 32708.00
331.2730, 31894.00
332.4780, 30593.00
333.6820, 29464.00
334.8860, 28787.00
336.0900, 27873.00
337.2940, 26980.00
338.4980, 26458.00
339.7010, 26018.00
340.9050, 25493.00
342.1080, 25093.00
343.3110, 24783.00
344.5140, 24478.00
345.7170, 24058.00
346.9200, 23966.00
348.1220, 23650.00
349.3240, 23619.00
350.5270, 23435.00
351.7290, 23393.00
352.9310, 23037.00
354.1320, 22928.00
355.3340, 22895.00
356.5350, 22840.00
357.7370, 22582.00
358.9380, 22469.00
360.1390, 22565.00
361.3400, 22287.00
362.5400, 22336.00
363.7410, 22469.00
364.9410, 22207.00
366.1410, 22085.00
367.3410, 22002.00
368.5410, 21993.00
369.7410, 22158.00
370.9400, 22020.00
372.1400, 21922.00
373.3390, 22062.00
374.5380, 21932.00
375.7370, 21892.00
376.9360, 21836.00
378.1350, 21782.00
379.3330, 21657.00
380.5310, 21739.77
381.7300, 21761.01
382.9280, 21886.00
384.1260, 21898.00
385.3230, 21960.00
386.5210, 21921.00
387.7180, 22105.00
388.9160, 21932.00
390.1130, 21956.00
391.3100, 22208.00
392.5060, 22235.00
393.7030, 22283.00
394.9000, 22252.00
396.0960, 22244.00
397.2920, 22544.00
398.4880, 22615.00
399.6840, 22576.00
400.8800, 22522.00
402.0750, 22298.00
403.2710, 22299.00
404.4660, 22164.00
405.6610, 22211.00
406.8560, 22139.00
408.0510, 21999.00
409.2450, 22158.00
410.4400, 22012.00
411.6340, 21917.00
412.8280, 22244.00
414.0220, 22053.00
415.2160, 21953.00
416.4100, 22191.00
417.6030, 22095.00
418.7970, 22114.00
419.9900, 22157.00
421.1830, 22010.00
422.3760, 22147.00
423.5690, 22321.00
424.7610, 22167.78
425.9540, 22582.00
427.1460, 22064.00
428.3380, 22157.00
429.5300, 22247.00
430.7220, 22223.00
431.9140, 22166.00
433.1050, 22395.00
434.2970, 22172.00
435.4880, 22339.00
436.6790, 22288.00
437.8700, 22362.00
439.0610, 22100.00
440.2510, 22288.00
441.4420, 22331.00
442.6320, 22182.00
443.8220, 22439.00
445.0120, 22331.00
446.2020, 22442.00
447.3910, 22324.00
448.5810, 22237.00
449.7700, 22360.00
450.9600, 22394.00
452.1490, 22519.00
453.3370, 22396.00
454.5260, 22365.00
455.7150, 22626.00
456.9030, 22665.00
458.0910, 22454.00
459.2800, 22322.00
460.4670, 22278.00
461.6550, 22441.00
462.8430, 22413.39
464.0300, 22478.27
465.2180, 22567.00
466.4050, 22560.00
467.5920, 22614.00
468.7790, 22612.00
469.9650, 22674.00
471.1520, 22702.20
472.3380, 22723.00
473.5250, 22804.00
474.7110, 22898.00
475.8970, 23013.00
477.0820, 22733.00
478.2680, 22810.00
479.4540, 22786.00
480.6390, 23011.00
481.8240, 22954.67
483.0090, 22982.33
484.1940, 23114.00
485.3780, 22862.00
486.5630, 23270.00
487.7470, 23067.00
488.9320, 23202.00
490.1160, 23262.00
491.3000, 23176.00
492.4830, 23308.00
493.6670, 23145.00
494.8500, 23420.00
496.0340, 23290.00
497.2170, 23385.00
498.4000, 23377.71
499.5820, 23647.00
500.7650, 23367.00
501.9480, 23537.00
503.1300, 23713.00
504.3120, 23532.00
505.4940, 23732.00
506.6760, 23690.00
507.8580, 23749.00
509.0390, 23470.00
510.2210, 23933.00
511.4020, 23742.00
512.5830, 23705.00
513.7640, 23858.00
514.9450, 23828.00
516.1250, 23771.45
517.3060, 23805.63
518.4860, 23718.00
519.6660, 23733.00
520.8460, 23975.00
522.0260, 23928.00
523.2060, 23916.00
524.3850, 23868.00
525.5650, 23891.42
526.7440, 23966.00
527.9230, 23982.00
529.1020, 24004.29
530.2810, 24048.00
531.4590, 24007.00
532.6380, 23985.00
533.8160, 23942.00
534.9940, 24111.00
536.1720, 23806.00
537.3500, 23915.00
538.5270, 23810.00
539.7050, 23958.00
540.8820, 24073.00
542.0590, 24049.00
543.2360, 23887.00
544.4130, 23920.00
545.5900, 24121.00
546.7660, 23964.00
547.9430, 24078.00
549.1190, 24041.00
550.2950, 24035.26
551.4710, 24137.00
552.6470, 24087.00
553.8220, 24023.00
554.9980, 24095.00
556.1730, 23965.00
557.3480, 24143.00
558.5230, 24201.00
559.6980, 24383.00
560.8730, 24148.00
562.0470, 24126.00
563.2220, 24161.00
564.3960, 24215.00
565.5700, 24418.00
566.7440, 24148.00
567.9170, 24466.00
569.0910, 24278.00
570.2640, 24337.00
571.4380, 24094.00
572.6110, 24127.00
573.7840, 24012.00
574.9570, 24213.00
576.1290, 23770.00
577.3020, 24038.00
578.4740, 24003.00
579.6460, 23974.00
580.8180, 23584.00
581.9900, 23789.00
583.1620, 23558.00
584.3330, 23511.00
585.5040, 23589.00
586.6760, 23610.00
587.8470, 23518.00
589.0180, 23520.00
590.1880, 23638.00
591.3590, 23460.00
592.5290, 23599.00
593.7000, 23637.00
594.8700, 23306.00
596.0400, 23536.00
597.2090, 23495.00
598.3790, 23665.00
599.5490, 23497.00
600.7180, 23560.00
601.8870, 23651.00
603.0560, 23631.00
604.2250, 23597.00
605.3940, 23677.00
606.5620, 23657.00
607.7300, 23737.00
608.8990, 23719.00
610.0670, 23756.00
611.2350, 23693.00
612.4020, 23639.00
613.5700, 23770.00
614.7370, 23668.00
615.9050, 23636.00
617.0720, 23788.00
618.2390, 23805.00
619.4060, 23849.52
620.5720, 23800.00
621.7390, 23882.00
622.9050, 23881.00
624.0710, 23782.00
625.2370, 23924.00
626.4030, 24050.00
627.5690, 23873.00
628.7340, 23771.00
629.9000, 24039.00
631.0650, 24120.00
632.2300, 23827.00
633.3950, 24057.00
634.5600, 24289.00
635.7240, 24027.00
636.8890, 24191.00
638.0530, 24015.00
639.2170, 23963.00
640.3810, 24204.00
641.5450, 24175.00
642.7080, 24175.00
643.8720, 24191.00
645.0350, 24202.00
646.1980, 24257.00
647.3610, 24307.00
648.5240, 24317.80
649.6870, 24353.50
650.8490, 24348.00
652.0120, 24343.31
653.1740, 24546.35
654.3360, 24702.33
655.4980, 24813.78
656.6600, 24747.32
657.8210, 24910.51
658.9830, 24981.72
660.1440, 25049.07
661.3050, 25244.59
662.4660, 25203.94
663.6270, 25397.42
664.7870, 25497.36
665.9480, 25640.16
667.1080, 25690.24
668.2680, 25768.94
669.4280, 26153.00
670.5880, 26411.00
671.7480, 26620.00
672.9070, 26961.49
674.0670, 27073.04
675.2260, 27528.00
676.3850, 27498.00
677.5440, 27719.00
678.7030, 28284.00
679.8610, 28505.00
681.0200, 28639.00
682.1780, 29325.00
683.3360, 29443.00
684.4940, 29533.00
685.6520, 29532.00
686.8090, 29610.00
687.9670, 29682.00
689.1240, 29533.00
690.2810, 29153.00
691.4380, 29156.00
692.5950, 28477.00
693.7520, 28310.00
694.9080, 27853.00
696.0650, 27589.00
697.2210, 27417.00
698.3770, 27145.00
699.5330, 26844.35
700.6880, 26432.00
701.8440, 26300.00
702.9990, 25946.00
704.1550, 25890.00
705.3100, 25499.00
706.4650, 25642.00
707.6190, 25443.00
708.7740, 25294.00
709.9290, 25224.00
711.0830, 25221.00
712.2370, 24963.00
713.3910, 24947.00
714.5450, 24899.00
715.6980, 24720.00
716.8520, 24767.74
718.0050, 24733.32
719.1580, 24835.00
720.3110, 24687.00
721.4640, 24849.00
722.6170, 24635.00
723.7700, 24248.00
724.9220, 24507.00
726.0740, 24385.00
727.2260, 24562.00
728.3780, 24369.00
729.5300, 24312.00
730.6810, 24712.00
731.8330, 24571.00
732.9840, 24534.00
734.1350, 24614.00
735.2860, 24534.00
736.4370, 24386.00
737.5880, 24335.00
738.7380, 24409.53
739.8880, 24462.00
741.0390, 24581.79
742.1890, 24654.51
743.3380, 24682.69
744.4880, 24532.98
745.6380, 24613.00
746.7870, 24600.94
747.9360, 24585.10
749.0850, 24697.43
750.2340, 24573.59
751.3830, 24683.89
752.5310, 24700.71
753.6800, 24760.32
754.8280, 24727.29
755.9760, 24722.88
757.1240, 24811.11
758.2720, 24892.00
759.4190, 24692.00
760.5670, 24848.00
761.7140, 24853.00
762.8610, 24582.00
764.0080, 24614.00
765.1550, 24828.00
766.3020, 24876.00
767.4480, 24896.90
768.5950, 24756.00
769.7410, 24881.00
770.8870, 24730.00
772.0330, 24694.00
773.1780, 24720.71
774.3240, 24684.00
775.4690, 24795.00
776.6140, 24792.00
777.7590, 24794.26
778.9040, 24825.00
780.0490, 24749.00
781.1940, 24798.00
782.3380, 24702.00
783.4820, 24841.00
784.6260, 25049.00
785.7700, 24731.00
786.9140, 24701.00
788.0580, 24583.00
789.2010, 24695.00
790.3450, 24730.00
791.4880, 24792.00
792.6310, 24885.00
793.7730, 24918.00
794.9160, 24826.00
796.0590, 24847.00
797.2010, 24769.00
798.3430, 24660.00
799.4850, 24660.00
800.6270, 24732.00
801.7690, 24914.00
802.9100, 24688.00
804.0520, 24905.00
805.1930, 24858.00
806.3340, 25131.00
807.4750, 24990.00
808.6160, 25196.00
809.7560, 25061.00
810.8970, 25009.00
812.0370, 25193.00
813.1770, 25002.00
814.3170, 25038.00
815.4570, 25190.00
816.5960, 25177.00
817.7360, 25259.00
818.8750, 25134.00
820.0140, 25305.00
821.1530, 25272.00
822.2920, 25317.00
823.4310, 25297.00
824.5690, 25412.00
825.7070, 25420.00
826.8460, 25340.00
827.9840, 25564.00
829.1220, 25597.00
830.2590, 25730.00
831.3970, 25656.00
832.5340, 25857.00
833.6710, 25833.00
834.8080, 26015.00
835.9450, 26177.00
837.0820, 26264.41
838.2190, 26207.00
839.3550, 26534.00
840.4910, 26569.00
841.6270, 26687.00
842.7630, 26895.00
843.8990, 26960.00
845.0350, 27093.00
846.1700, 27487.00
847.3060, 28015.00
848.4410, 28059.00
849.5760, 28465.00
850.7100, 28873.00
851.8450, 29188.00
852.9800, 29704.00
854.1140, 30226.00
855.2480, 30739.00
856.3820, 31280.00
857.5160, 32321.00
858.6500, 33156.00
859.7830, 34312.00
860.9170, 35695.00
862.0500, 36886.00
863.1830, 38633.00
864.3160, 40620.00
865.4480, 42941.00
866.5810, 45605.00
867.7130, 48379.00
868.8460, 51618.00
869.9780, 55350.00
871.1100, 58922.00
872.2410, 61458.00
873.3730, 63655.00
874.5050, 64949.00
875.6360, 64785.00
876.7670, 63994.00
877.8980, 61692.00
879.0290, 58888.00
880.1590, 55871.00
881.2900, 52245.00
882.4200, 49275.00
883.5500, 46215.00
884.6800, 43543.00
885.8100, 41237.00
886.9400, 39468.00
888.0690, 37606.00
889.1990, 36195.00
890.3280, 35037.00
891.4570, 33803.00
892.5860, 32984.00
893.7140, 31894.00
894.8430, 31539.00
895.9710, 31031.00
897.1000, 30247.00
898.2280, 29984.00
899.3560, 29518.00
900.4830, 29295.00
901.6110, 28986.00
902.7380, 28614.00
903.8660, 28452.00
904.9930, 28279.00
906.1200, 27978.00
907.2460, 27974.00
908.3730, 27747.59
909.5000, 27708.00
910.6260, 27448.00
911.7520, 27264.00
912.8780, 27111.00
914.0040, 27074.00
915.1290, 27102.00
916.2550, 26920.00
917.3800, 27051.00
918.5050, 26868.27
919.6300, 26789.00
920.7550, 26578.00
921.8800, 26584.00
923.0040, 26416.00
924.1290, 26640.00
925.2530, 26524.00
926.3770, 26382.00
927.5010, 26599.00
928.6250, 26562.00
929.7480, 26627.00
930.8720, 26396.00
931.9950, 26319.00
933.1180, 26443.00
934.2410, 26403.00
935.3640, 26558.00
936.4860, 26363.00
937.6090, 26610.00
938.7310, 26348.00
939.8530, 26354.00
940.9750, 26443.00
942.0970, 26308.00
943.2180, 26450.00
944.3400, 26470.00
945.4610, 26308.00
946.5820, 26397.00
947.7030, 26430.00
948.8240, 26136.00
949.9450, 26324.00
951.0650, 26395.00
952.1860, 26433.00
953.3060, 26342.00
954.4260, 26279.00
955.5460, 26284.00
956.6650, 26311.00
957.7850, 26280.94
958.9040, 26260.15
960.0230, 26260.00
961.1420, 26239.00
962.2610, 26198.00
963.3800, 26316.00
964.4990, 26269.00
965.6170, 26286.65
966.7350, 26252.00
967.8530, 26303.00
968.9710, 26295.00
970.0890, 26351.00
971.2070, 26186.00
972.3240, 26440.00
973.4410, 26175.00
974.5580, 26107.00
975.6750, 26293.00
976.7920, 26319.00
977.9090, 26246.00
979.0250, 26305.00
980.1410, 26170.00
981.2580, 26552.00
982.3740, 26302.00
983.4890, 26549.00
984.6050, 26355.00
985.7200, 26352.00
986.8360, 26483.00
987.9510, 26371.00
989.0660, 26474.75
990.1810, 26573.00
991.2950, 26575.00
992.4100, 26381.00
993.5240, 26389.00
994.6390, 26461.00
995.7530, 26439.00
996.8660, 26466.00
997.9800, 26494.00
999.0940, 26500.00
1000.207, 26522.00
1001.320, 26567.47
1002.433, 26572.00
1003.546, 26661.00
1004.659, 26635.00
1005.772, 26665.59
1006.884, 26645.93
1007.996, 26627.00
1009.108, 26568.00
1010.220, 26646.00
1011.332, 26605.00
1012.444, 26506.00
1013.555, 26376.00
1014.666, 26662.00
1015.777, 26486.00
1016.888, 26549.00
1017.999, 26507.00
1019.110, 26738.00
1020.220, 26589.00
1021.331, 26895.00
1022.441, 26552.00
1023.551, 26572.00
1024.661, 26466.00
1025.770, 26541.00
1026.880, 26623.00
1027.989, 26691.00
1029.098, 26540.00
1030.207, 26412.00
1031.316, 26567.00
1032.425, 26596.00
1033.533, 26515.00
1034.642, 26566.00
1035.750, 26715.00
1036.858, 26494.00
1037.966, 26885.00
1039.073, 26576.56
1040.181, 26682.50
1041.288, 26741.39
1042.396, 26755.75
1043.503, 26592.21
1044.610, 26658.39
1045.716, 26632.51
1046.823, 26602.85
1047.929, 26701.36
1049.036, 26563.70
1050.142, 26660.18
1051.248, 26663.19
1052.353, 26708.98
1053.459, 26662.14
1054.564, 26643.92
1055.670, 26718.35
1056.775, 26960.00
1057.880, 26837.00
1058.985, 26915.00
1060.089, 26905.00
1061.194, 26919.00
1062.298, 26930.00
1063.402, 26836.00
1064.506, 27014.00
1065.610, 27037.00
1066.713, 27015.00
1067.817, 26853.00
1068.920, 26926.00
1070.023, 26998.00
1071.126, 27007.00
1072.229, 27009.00
1073.332, 26993.27
1074.435, 27016.00
1075.537, 26925.00
1076.639, 27008.00
1077.741, 27020.00
1078.843, 26928.00
1079.945, 26863.00
1081.046, 26737.00
1082.148, 26920.00
1083.249, 26820.00
1084.350, 26948.00
1085.451, 27006.00
1086.551, 26979.00
1087.652, 26834.00
1088.752, 26841.02
1089.853, 26800.30
1090.953, 26785.00
1092.053, 26750.00
1093.152, 26864.00
1094.252, 26787.00
1095.351, 26841.00
1096.451, 26587.00
1097.550, 26609.00
1098.649, 26775.00
1099.748, 26706.00
1100.846, 26986.00
1101.945, 26849.00
1103.043, 26575.00
1104.141, 26734.00
1105.239, 26882.00
1106.337, 26672.00
1107.434, 26851.00
1108.532, 26552.00
1109.629, 26712.00
1110.726, 26855.00
1111.823, 26862.00
1112.920, 26660.00
1114.017, 26746.00
1115.113, 26962.00
1116.210, 27166.00
1117.306, 27270.65
1118.402, 27393.00
1119.498, 27454.00
1120.593, 27562.00
1121.689, 27490.00
1122.784, 27707.00
1123.879, 27953.00
1124.974, 27841.81
1126.069, 27673.00
1127.164, 27730.00
1128.259, 27090.00
1129.353, 26940.00
1130.447, 26838.84
1131.541, 26776.00
1132.635, 26624.00
1133.729, 26634.00
1134.822, 26434.00
1135.916, 26508.00
1137.009, 26650.00
1138.102, 26444.00
1139.195, 26448.00
1140.288, 26466.72
1141.380, 26433.90
1142.473, 26486.00
1143.565, 26508.00
1144.657, 26522.00
1145.749, 26553.00
1146.841, 26439.00
1147.932, 26291.00
1149.024, 26304.00
1150.115, 26360.00
1151.206, 26447.00
1152.297, 26448.89
1153.388, 26475.00
1154.479, 26479.00
1155.569, 26438.00
1156.659, 26423.00
1157.750, 26316.00
1158.839, 26532.00
1159.929, 26448.00
1161.019, 26377.00
1162.108, 26252.00
1163.198, 26348.00
1164.287, 26249.00
1165.376, 26448.00
1166.465, 26239.00
1167.553, 26346.00
1168.642, 26468.00
1169.730, 26311.00
1170.818, 26231.00
1171.906, 26284.00
1172.994, 26411.00
1174.082, 26286.00
1175.170, 26459.00
1176.257, 26498.00
1177.344, 26450.00
1178.431, 26580.00
1179.518, 26390.00
1180.605, 26475.00
1181.691, 26192.00
1182.778, 26207.00
1183.864, 26521.00
1184.950, 26431.00
1186.036, 26233.00
1187.122, 26515.00
1188.207, 26174.00
1189.292, 26329.00
1190.378, 26374.00
1191.463, 26301.00
1192.548, 26432.00
1193.632, 26360.00
1194.717, 26446.00
1195.801, 26462.00
1196.886, 26445.00
1197.970, 26260.00
1199.054, 26227.00
1200.137, 26338.00
1201.221, 26482.00
1202.305, 26461.00
1203.388, 26460.00
1204.471, 26493.40
1205.554, 26355.00
1206.637, 26457.00
1207.719, 26365.00
1208.802, 26293.00
1209.884, 26395.00
1210.966, 26521.00
1212.048, 26417.00
1213.130, 26516.02
1214.212, 26651.00
1215.293, 26524.00
1216.374, 26497.00
1217.456, 26435.00
1218.536, 26387.00
1219.617, 26436.00
1220.698, 26392.00
1221.778, 26267.00
1222.859, 26525.00
1223.939, 26514.00
1225.019, 26379.00
1226.099, 26451.00
1227.178, 26264.00
1228.258, 26485.00
1229.337, 26521.00
1230.417, 26538.00
1231.496, 26364.00
1232.574, 26330.00
1233.653, 26355.15
1234.732, 26471.00
1235.810, 26400.00
1236.888, 26367.00
1237.966, 26314.53
1239.044, 26285.00
1240.122, 26336.00
1241.199, 26431.00
1242.277, 26397.00
1243.354, 26418.00
1244.431, 26289.00
1245.508, 26407.00
1246.585, 26405.00
1247.661, 26360.00
1248.738, 26422.00
1249.814, 26332.00
1250.890, 26440.00
1251.966, 26369.78
1253.042, 26569.00
1254.117, 26264.00
1255.193, 26234.00
1256.268, 26149.00
1257.343, 26497.00
1258.418, 26294.00
1259.493, 26456.00
1260.567, 26289.00
1261.642, 26495.00
1262.716, 26388.00
1263.790, 26360.00
1264.864, 26453.00
1265.938, 26283.00
1267.011, 26479.00
1268.085, 26292.00
1269.158, 26265.00
1270.231, 26226.00
1271.304, 26331.00
1272.377, 26511.00
1273.450, 26631.00
1274.522, 26582.10
1275.594, 26459.00
1276.666, 26474.00
1277.738, 26388.00
1278.810, 26423.00
1279.882, 26386.65
1280.953, 26392.16
1282.025, 26359.00
1283.096, 26422.00
1284.167, 26437.00
1285.238, 26448.45
1286.308, 26441.00
1287.379, 26364.00
1288.449, 26440.00
1289.519, 26291.00
1290.589, 26375.00
1291.659, 26615.00
1292.729, 26380.00
1293.798, 26397.00
1294.868, 26345.00
1295.937, 26243.00
1297.006, 26383.00
1298.075, 26234.00
1299.143, 26447.00
1300.212, 26503.00
1301.280, 26283.00
1302.348, 26518.00
1303.416, 26533.00
1304.484, 26540.00
1305.552, 26353.00
1306.620, 26269.00
1307.687, 26351.00
1308.754, 26397.00
1309.821, 26499.00
1310.888, 26497.00
1311.955, 26457.00
1313.021, 26343.00
1314.088, 26339.00
1315.154, 26416.00
1316.220, 26396.12
1317.286, 26473.00
1318.352, 26476.00
1319.417, 26553.00
1320.483, 26575.00
1321.548, 26489.00
1322.613, 26454.00
1323.678, 26551.00
1324.743, 26649.00
1325.807, 26373.00
1326.872, 26498.00
1327.936, 26440.00
1329.000, 26416.00
1330.064, 26505.00
1331.128, 26482.00
1332.191, 26504.00
1333.255, 26375.00
1334.318, 26424.00
1335.381, 26208.00
1336.444, 26632.00
1337.507, 26601.00
1338.569, 26444.00
1339.632, 26507.00
1340.694, 26448.00
1341.756, 26313.00
1342.818, 26551.00
1343.880, 26466.00
1344.941, 26662.00
1346.003, 26613.00
1347.064, 26518.00
1348.125, 26549.00
1349.186, 26596.00
1350.247, 26534.00
1351.308, 26365.00
1352.368, 26425.00
1353.428, 26517.00
1354.489, 26777.00
1355.549, 26705.00
1356.608, 26639.00
1357.668, 26582.00
1358.727, 26615.00
1359.787, 26441.00
1360.846, 26590.00
1361.905, 26611.00
1362.964, 26490.00
1364.022, 26615.00
1365.081, 26540.00
1366.139, 26455.00
1367.197, 26498.00
1368.255, 26829.00
1369.313, 26768.00
1370.371, 26677.00
1371.428, 26667.00
1372.486, 26562.15
1373.543, 26617.00
1374.600, 26410.00
1375.657, 26441.00
1376.713, 26420.00
1377.770, 26670.00
1378.826, 26476.00
1379.882, 26645.00
1380.938, 26660.00
1381.994, 26719.00
1383.050, 26632.00
1384.106, 26600.00
1385.161, 26777.00
1386.216, 26707.00
1387.271, 26539.00
1388.326, 26576.00
1389.381, 26684.00
1390.435, 26734.00
1391.490, 26417.00
1392.544, 26686.00
1393.598, 26762.00
1394.652, 26533.00
1395.705, 26805.00
1396.759, 26713.00
1397.812, 26690.00
1398.866, 26569.00
1399.919, 26666.00
1400.972, 26679.24
1402.024, 26674.09
1403.077, 26785.00
1404.129, 26730.00
1405.181, 26663.00
1406.233, 26702.00
1407.285, 26577.00
1408.337, 26582.02
1409.389, 26633.00
1410.440, 26606.00
1411.491, 26560.00
1412.542, 26727.00
1413.593, 26599.13
1414.644, 26634.00
1415.695, 26490.00
1416.745, 26694.00
1417.795, 26710.00
1418.845, 26622.00
1419.895, 26963.00
1420.945, 26774.00
1421.995, 26727.00
1423.044, 26670.00
1424.093, 26560.00
1425.142, 26569.43
1426.191, 26475.00
1427.240, 26572.00
1428.289, 26690.00
1429.337, 26729.00
1430.385, 26693.00
1431.433, 26663.00
1432.481, 26734.65
1433.529, 26734.00
1434.577, 26817.13
1435.624, 26824.48
1436.672, 26770.00
1437.719, 26717.00
1438.766, 26724.00
1439.812, 26545.00
1440.859, 26744.00
1441.905, 26684.00
1442.952, 26514.00
1443.998, 26636.00
1445.044, 26690.00
1446.090, 26840.00
1447.135, 26596.00
1448.181, 26834.00
1449.226, 26817.00
1450.271, 26630.00
1451.316, 26691.00
1452.361, 26680.00
1453.405, 26607.00
1454.450, 26659.00
1455.494, 26751.00
1456.538, 26669.00
1457.582, 26732.00
1458.626, 26962.00
1459.670, 26938.00
1460.713, 26518.00
1461.757, 26722.00
1462.800, 26651.00
1463.843, 26887.00
1464.886, 26547.00
1465.928, 26773.00
1466.971, 26688.00
1468.013, 26669.00
1469.055, 26496.00
1470.097, 26584.00
1471.139, 26745.00
1472.181, 26743.00
1473.222, 26635.00
1474.263, 26639.00
1475.305, 26642.00
1476.346, 26778.00
1477.386, 26762.00
1478.427, 26615.00
1479.468, 26898.00
1480.508, 26674.00
1481.548, 26688.00
1482.588, 26858.00
1483.628, 26853.00
1484.668, 26717.00
1485.707, 26598.00
1486.747, 26711.00
1487.786, 26946.00
1488.825, 26710.00
1489.864, 26848.00
1490.902, 26778.00
1491.941, 26917.00
1492.979, 26894.00
1494.017, 26909.00
1495.055, 26864.00
1496.093, 26654.00
1497.131, 26852.00
1498.168, 26758.00
1499.206, 26760.00
1500.243, 26926.00
1501.280, 26830.00
1502.317, 26903.00
1503.354, 26846.00
1504.390, 26867.00
1505.426, 26835.00
1506.463, 26755.00
1507.499, 26980.00
1508.535, 26953.00
1509.570, 26951.31
1510.606, 26965.42
1511.641, 26877.00
1512.676, 26870.00
1513.711, 26769.00
1514.746, 26750.00
1515.781, 26805.00
1516.816, 26926.00
1517.850, 26937.00
1518.884, 26927.00
1519.918, 26913.00
1520.952, 26915.00
1521.986, 26942.00
1523.019, 26918.92
1524.053, 26957.15
1525.086, 26925.00
1526.119, 26925.00
1527.152, 26992.00
1528.185, 26784.00
1529.217, 27010.00
1530.250, 26893.00
1531.282, 27134.00
1532.314, 26783.00
1533.346, 27064.00
1534.377, 26704.00
1535.409, 26604.00
1536.440, 26916.00
1537.472, 27015.00
1538.503, 26904.00
1539.534, 26987.00
1540.564, 26904.00
1541.595, 26970.00
1542.625, 26995.00
1543.656, 26959.00
1544.686, 27072.00
1545.716, 26966.00
1546.745, 27015.00
1547.775, 27072.00
1548.804, 27225.00
1549.834, 27238.00
1550.863, 27390.00
1551.892, 27505.00
1552.920, 27751.00
1553.949, 27863.00
1554.977, 27848.00
1556.006, 27469.00
1557.034, 26893.00
1558.062, 26952.00
1559.089, 26910.00
1560.117, 27071.00
1561.144, 26994.00
1562.172, 27147.00
1563.199, 26944.00
1564.226, 27030.00
1565.252, 27095.00
1566.279, 26867.00
1567.305, 27117.00
1568.332, 27125.00
1569.358, 27325.00
1570.384, 27057.00
1571.409, 27232.00
##END=



