##NAMES=Ferberite
##RRUFFID=R050090
##IDEAL CHEMISTRY=Fe^2+^W^6+^O_4_
##LOCALITY=Yaogangxian mine, Cheng Zhu City, South Hunan, China
##OWNER=RRUFF
##SOURCE=Rock Currier
##DESCRIPTION=Dark gray tabular crystal
##STATUS=The identification of this mineral has been confirmed by X-ray diffraction and chemical analysis
##URL=rruff.info/R050090
##MEASURED CHEMISTRY=(Fe^2+^_0.56_Mn_0.44_)W_1.00_O_4_
##PIN_ID=L01590
##ORIENTATION=Laser parallel to (1 0 1). Fiducial mark perpendicular to laser is parallel to b [0 1 0]
98.41600, 2928.000
99.64900, 2673.000
100.8830, 2813.000
102.1160, 2924.734
103.3490, 3042.395
104.5820, 3113.618
105.8150, 3140.899
107.0470, 2992.616
108.2800, 3071.035
109.5120, 3058.596
110.7440, 3042.432
111.9760, 3152.747
113.2080, 3029.998
114.4400, 3138.307
115.6710, 3154.373
116.9030, 3212.661
118.1340, 3179.531
119.3650, 3174.635
120.5960, 3261.176
121.8270, 3297.088
123.0580, 3253.435
124.2880, 3403.000
125.5190, 3404.058
126.7490, 3980.000
127.9790, 4313.000
129.2090, 5293.000
130.4390, 6822.000
131.6680, 8013.000
132.8980, 7695.000
134.1270, 6251.000
135.3560, 4812.000
136.5850, 4058.000
137.8140, 3639.000
139.0430, 3393.000
140.2710, 3316.000
141.5000, 3498.000
142.7280, 3226.000
143.9560, 3010.000
145.1840, 2810.000
146.4120, 2755.000
147.6390, 2645.000
148.8670, 2628.451
150.0940, 2788.000
151.3210, 2710.000
152.5490, 2897.000
153.7750, 3057.000
155.0020, 2834.000
156.2290, 2756.000
157.4550, 2716.000
158.6810, 2600.000
159.9080, 2518.000
161.1340, 2500.000
162.3590, 2512.000
163.5850, 2494.000
164.8110, 2733.000
166.0360, 3030.000
167.2610, 3168.000
168.4860, 3122.000
169.7110, 3248.000
170.9360, 3253.000
172.1610, 3289.000
173.3850, 3214.000
174.6100, 3082.000
175.8340, 2953.000
177.0580, 2971.000
178.2820, 2983.000
179.5050, 3011.000
180.7290, 2995.000
181.9520, 3038.000
183.1760, 2994.000
184.3990, 2964.000
185.6220, 3021.000
186.8450, 3094.000
188.0670, 3168.000
189.2900, 3333.000
190.5120, 3323.000
191.7340, 3332.000
192.9560, 3730.000
194.1780, 4062.000
195.4000, 3780.000
196.6220, 3746.000
197.8430, 3807.000
199.0640, 3885.000
200.2860, 3898.000
201.5070, 4988.000
202.7270, 5805.000
203.9480, 4643.000
205.1690, 4365.000
206.3890, 3520.000
207.6090, 2936.000
208.8290, 2589.000
210.0490, 2488.000
211.2690, 2462.000
212.4890, 2436.000
213.7080, 2432.000
214.9280, 2377.923
216.1470, 2341.156
217.3660, 2319.000
218.5850, 2254.000
219.8030, 2309.000
221.0220, 2311.000
222.2400, 2352.000
223.4590, 2336.000
224.6770, 2336.100
225.8950, 2328.000
227.1120, 2315.000
228.3300, 2294.000
229.5480, 2294.000
230.7650, 2368.000
231.9820, 2334.000
233.1990, 2366.000
234.4160, 2330.000
235.6330, 2337.000
236.8490, 2319.000
238.0660, 2312.602
239.2820, 2365.000
240.4980, 2324.000
241.7140, 2321.000
242.9300, 2364.000
244.1460, 2341.000
245.3610, 2356.000
246.5770, 2360.000
247.7920, 2370.000
249.0070, 2376.000
250.2220, 2374.000
251.4370, 2424.587
252.6510, 2364.000
253.8660, 2518.000
255.0800, 2350.753
256.2940, 2481.129
257.5080, 2565.066
258.7220, 2605.062
259.9360, 2469.504
261.1490, 2560.617
262.3630, 2560.903
263.5760, 2557.443
264.7890, 2680.462
266.0020, 2570.418
267.2150, 2691.431
268.4270, 2666.000
269.6400, 2616.000
270.8520, 2619.000
272.0640, 2504.000
273.2760, 2559.000
274.4880, 2511.000
275.7000, 2515.000
276.9120, 2540.000
278.1230, 2580.000
279.3340, 2584.000
280.5450, 2485.000
281.7560, 2459.000
282.9670, 2463.000
284.1780, 2439.000
285.3880, 2458.000
286.5980, 2440.000
287.8090, 2446.000
289.0190, 2443.614
290.2290, 2442.000
291.4380, 2439.000
292.6480, 2431.000
293.8570, 2435.000
295.0670, 2413.000
296.2760, 2399.000
297.4850, 2475.000
298.6930, 2425.000
299.9020, 2498.000
301.1110, 2477.000
302.3190, 2467.000
303.5270, 2433.000
304.7350, 2489.000
305.9430, 2488.000
307.1510, 2492.000
308.3580, 2494.000
309.5660, 2563.000
310.7730, 2584.000
311.9800, 2641.000
313.1870, 2588.000
314.3940, 2645.000
315.6010, 2628.000
316.8070, 2695.000
318.0130, 2748.000
319.2200, 2853.000
320.4260, 2910.000
321.6310, 2948.000
322.8370, 3066.000
324.0430, 3201.000
325.2480, 3323.000
326.4540, 3344.000
327.6590, 3417.000
328.8640, 3475.000
330.0680, 3424.000
331.2730, 3354.000
332.4780, 3287.000
333.6820, 3217.000
334.8860, 3144.067
336.0900, 3083.440
337.2940, 3007.000
338.4980, 2957.000
339.7010, 2913.000
340.9050, 2844.000
342.1080, 2863.000
343.3110, 2744.000
344.5140, 2859.000
345.7170, 2800.000
346.9200, 2798.000
348.1220, 2764.000
349.3240, 2740.000
350.5270, 2794.000
351.7290, 2751.000
352.9310, 2712.000
354.1320, 2710.000
355.3340, 2773.000
356.5350, 2737.000
357.7370, 2770.000
358.9380, 2773.000
360.1390, 2770.000
361.3400, 2776.000
362.5400, 2778.943
363.7410, 2741.000
364.9410, 2778.000
366.1410, 2807.000
367.3410, 2785.000
368.5410, 2841.000
369.7410, 2744.000
370.9400, 2827.000
372.1400, 2808.000
373.3390, 2826.000
374.5380, 2768.000
375.7370, 2814.000
376.9360, 2809.000
378.1350, 2764.000
379.3330, 2735.000
380.5310, 2831.000
381.7300, 2833.000
382.9280, 2876.000
384.1260, 2838.000
385.3230, 2884.000
386.5210, 2875.000
387.7180, 2972.000
388.9160, 3051.000
390.1130, 3164.000
391.3100, 3333.000
392.5060, 3520.000
393.7030, 3772.000
394.9000, 4058.000
396.0960, 4552.000
397.2920, 5089.000
398.4880, 5429.000
399.6840, 5641.000
400.8800, 5578.000
402.0750, 5205.000
403.2710, 4698.000
404.4660, 4392.000
405.6610, 4067.349
406.8560, 3790.617
408.0510, 3559.000
409.2450, 3411.000
410.4400, 3243.000
411.6340, 3156.000
412.8280, 3033.000
414.0220, 3008.000
415.2160, 2962.000
416.4100, 2914.000
417.6030, 2866.000
418.7970, 2828.719
419.9900, 2764.000
421.1830, 2745.000
422.3760, 2749.000
423.5690, 2688.000
424.7610, 2622.000
425.9540, 2684.000
427.1460, 2684.000
428.3380, 2623.000
429.5300, 2622.000
430.7220, 2603.000
431.9140, 2568.000
433.1050, 2587.000
434.2970, 2618.000
435.4880, 2575.000
436.6790, 2628.000
437.8700, 2616.000
439.0610, 2582.000
440.2510, 2602.000
441.4420, 2575.000
442.6320, 2601.000
443.8220, 2626.000
445.0120, 2610.000
446.2020, 2647.000
447.3910, 2696.000
448.5810, 2687.081
449.7700, 2682.931
450.9600, 2673.000
452.1490, 2666.000
453.3370, 2596.000
454.5260, 2669.000
455.7150, 2658.000
456.9030, 2712.000
458.0910, 2675.000
459.2800, 2665.000
460.4670, 2671.000
461.6550, 2699.000
462.8430, 2658.000
464.0300, 2648.000
465.2180, 2702.000
466.4050, 2670.000
467.5920, 2700.000
468.7790, 2732.000
469.9650, 2664.000
471.1520, 2706.000
472.3380, 2738.000
473.5250, 2731.000
474.7110, 2740.000
475.8970, 2732.000
477.0820, 2730.000
478.2680, 2726.439
479.4540, 2698.000
480.6390, 2645.596
481.8240, 2750.325
483.0090, 2808.617
484.1940, 2822.966
485.3780, 2661.762
486.5630, 2727.249
487.7470, 2701.890
488.9320, 2672.803
490.1160, 2770.198
491.3000, 2634.528
492.4830, 2729.917
493.6670, 2733.072
494.8500, 2778.440
496.0340, 2732.399
497.2170, 2714.592
498.4000, 2788.223
499.5820, 2811.226
500.7650, 2720.000
501.9480, 2735.000
503.1300, 2752.000
504.3120, 2774.307
505.4940, 2705.000
506.6760, 2759.000
507.8580, 2778.000
509.0390, 2716.000
510.2210, 2740.000
511.4020, 2724.000
512.5830, 2729.000
513.7640, 2720.000
514.9450, 2723.000
516.1250, 2718.072
517.3060, 2722.000
518.4860, 2714.000
519.6660, 2720.000
520.8460, 2730.000
522.0260, 2762.000
523.2060, 2701.000
524.3850, 2781.000
525.5650, 2702.000
526.7440, 2733.000
527.9230, 2720.000
529.1020, 2724.000
530.2810, 2775.000
531.4590, 2775.000
532.6380, 2780.000
533.8160, 2783.000
534.9940, 2745.000
536.1720, 2702.000
537.3500, 2834.000
538.5270, 2776.000
539.7050, 2811.000
540.8820, 2794.000
542.0590, 2768.000
543.2360, 2874.000
544.4130, 2815.000
545.5900, 2826.000
546.7660, 2742.000
547.9430, 2787.000
549.1190, 2712.000
550.2950, 2747.000
551.4710, 2746.000
552.6470, 2732.000
553.8220, 2719.000
554.9980, 2745.000
556.1730, 2718.015
557.3480, 2704.000
558.5230, 2688.000
559.6980, 2714.000
560.8730, 2698.000
562.0470, 2700.000
563.2220, 2737.000
564.3960, 2712.000
565.5700, 2669.000
566.7440, 2677.000
567.9170, 2688.000
569.0910, 2733.000
570.2640, 2704.000
571.4380, 2671.000
572.6110, 2653.000
573.7840, 2711.000
574.9570, 2662.000
576.1290, 2674.000
577.3020, 2605.000
578.4740, 2647.000
579.6460, 2642.000
580.8180, 2592.000
581.9900, 2645.000
583.1620, 2622.000
584.3330, 2651.000
585.5040, 2634.000
586.6760, 2624.000
587.8470, 2660.000
589.0180, 2660.000
590.1880, 2665.655
591.3590, 2687.000
592.5290, 2672.000
593.7000, 2668.272
594.8700, 2668.000
596.0400, 2657.000
597.2090, 2662.000
598.3790, 2667.000
599.5490, 2680.000
600.7180, 2675.000
601.8870, 2674.000
603.0560, 2705.000
604.2250, 2636.000
605.3940, 2667.000
606.5620, 2668.000
607.7300, 2736.000
608.8990, 2704.000
610.0670, 2779.000
611.2350, 2700.000
612.4020, 2715.000
613.5700, 2740.000
614.7370, 2749.000
615.9050, 2757.000
617.0720, 2774.540
618.2390, 2733.000
619.4060, 2783.000
620.5720, 2772.000
621.7390, 2737.000
622.9050, 2791.000
624.0710, 2754.000
625.2370, 2718.000
626.4030, 2771.000
627.5690, 2914.000
628.7340, 2832.118
629.9000, 2831.000
631.0650, 2726.000
632.2300, 2799.000
633.3950, 2682.000
634.5600, 2784.000
635.7240, 2754.000
636.8890, 2716.000
638.0530, 2713.000
639.2170, 2722.894
640.3810, 2725.653
641.5450, 2769.000
642.7080, 2755.000
643.8720, 2761.000
645.0350, 2752.000
646.1980, 2734.000
647.3610, 2810.000
648.5240, 2764.000
649.6870, 2772.000
650.8490, 2814.000
652.0120, 2778.000
653.1740, 2824.000
654.3360, 2815.000
655.4980, 2842.000
656.6600, 2817.000
657.8210, 2880.000
658.9830, 2860.000
660.1440, 2877.000
661.3050, 2879.000
662.4660, 2970.000
663.6270, 2944.000
664.7870, 2974.000
665.9480, 2909.000
667.1080, 2947.000
668.2680, 2990.000
669.4280, 3029.000
670.5880, 3024.000
671.7480, 3016.000
672.9070, 3042.000
674.0670, 3076.805
675.2260, 3150.000
676.3850, 3207.000
677.5440, 3223.000
678.7030, 3342.000
679.8610, 3329.000
681.0200, 3365.000
682.1780, 3417.000
683.3360, 3395.000
684.4940, 3537.000
685.6520, 3564.000
686.8090, 3679.000
687.9670, 3667.000
689.1240, 3652.000
690.2810, 3747.000
691.4380, 3670.000
692.5950, 3753.000
693.7520, 3763.000
694.9080, 3701.000
696.0650, 3734.000
697.2210, 3762.000
698.3770, 3696.000
699.5330, 3687.000
700.6880, 3545.000
701.8440, 3559.000
702.9990, 3468.000
704.1550, 3351.000
705.3100, 3384.000
706.4650, 3296.000
707.6190, 3253.000
708.7740, 3198.000
709.9290, 3125.650
711.0830, 3097.000
712.2370, 3002.000
713.3910, 2961.000
714.5450, 2917.000
715.6980, 2936.000
716.8520, 2915.188
718.0050, 2889.125
719.1580, 2914.000
720.3110, 2849.000
721.4640, 2821.000
722.6170, 2824.000
723.7700, 2792.000
724.9220, 2804.000
726.0740, 2754.000
727.2260, 2748.000
728.3780, 2777.000
729.5300, 2752.000
730.6810, 2747.000
731.8330, 2798.000
732.9840, 2757.000
734.1350, 2741.000
735.2860, 2754.000
736.4370, 2779.000
737.5880, 2758.146
738.7380, 2811.000
739.8880, 2739.000
741.0390, 2803.000
742.1890, 2806.000
743.3380, 2788.000
744.4880, 2801.000
745.6380, 2821.127
746.7870, 2842.000
747.9360, 2854.000
749.0850, 2862.000
750.2340, 2821.000
751.3830, 2888.000
752.5310, 2869.000
753.6800, 2835.000
754.8280, 3001.000
755.9760, 2960.000
757.1240, 2942.000
758.2720, 2972.000
759.4190, 2974.000
760.5670, 2983.000
761.7140, 3034.000
762.8610, 3076.000
764.0080, 3070.000
765.1550, 3214.000
766.3020, 3263.000
767.4480, 3326.000
768.5950, 3307.000
769.7410, 3356.603
770.8870, 3357.318
772.0330, 3397.000
773.1780, 3366.000
774.3240, 3373.000
775.4690, 3391.000
776.6140, 3356.000
777.7590, 3302.000
778.9040, 3383.000
780.0490, 3309.000
781.1940, 3363.000
782.3380, 3291.000
783.4820, 3175.000
784.6260, 3254.000
785.7700, 3303.000
786.9140, 3256.458
788.0580, 3354.000
789.2010, 3221.000
790.3450, 3202.000
791.4880, 3144.000
792.6310, 3127.000
793.7730, 3188.000
794.9160, 3195.000
796.0590, 3166.000
797.2010, 3203.000
798.3430, 3153.000
799.4850, 3188.000
800.6270, 3165.000
801.7690, 3141.000
802.9100, 3219.000
804.0520, 3177.000
805.1930, 3115.000
806.3340, 3123.000
807.4750, 3161.000
808.6160, 3104.000
809.7560, 3084.000
810.8970, 3169.000
812.0370, 3137.000
813.1770, 3204.000
814.3170, 3215.000
815.4570, 3191.000
816.5960, 3226.000
817.7360, 3152.000
818.8750, 3155.000
820.0140, 3185.000
821.1530, 3221.000
822.2920, 3204.000
823.4310, 3225.000
824.5690, 3255.000
825.7070, 3282.000
826.8460, 3257.000
827.9840, 3298.000
829.1220, 3334.000
830.2590, 3300.000
831.3970, 3407.000
832.5340, 3370.000
833.6710, 3383.000
834.8080, 3440.000
835.9450, 3496.000
837.0820, 3536.000
838.2190, 3575.000
839.3550, 3575.000
840.4910, 3624.000
841.6270, 3690.000
842.7630, 3758.000
843.8990, 3804.000
845.0350, 3826.000
846.1700, 3862.000
847.3060, 3964.877
848.4410, 4135.000
849.5760, 4167.000
850.7100, 4366.000
851.8450, 4435.000
852.9800, 4716.000
854.1140, 4840.000
855.2480, 5097.000
856.3820, 5286.000
857.5160, 5566.224
858.6500, 5871.206
859.7830, 6118.000
860.9170, 6650.000
862.0500, 6832.000
863.1830, 7460.000
864.3160, 7965.000
865.4480, 8516.000
866.5810, 9170.000
867.7130, 10107.00
868.8460, 10903.00
869.9780, 11863.00
871.1100, 13144.00
872.2410, 14517.00
873.3730, 16098.00
874.5050, 18113.00
875.6360, 20203.00
876.7670, 22839.00
877.8980, 25245.00
879.0290, 28096.00
880.1590, 30499.00
881.2900, 32476.00
882.4200, 34273.00
883.5500, 34824.00
884.6800, 34210.00
885.8100, 32507.00
886.9400, 30177.00
888.0690, 27136.00
889.1990, 24164.00
890.3280, 21194.00
891.4570, 18406.00
892.5860, 15985.00
893.7140, 13920.00
894.8430, 12251.00
895.9710, 10794.00
897.1000, 9651.000
898.2280, 8740.000
899.3560, 7949.000
900.4830, 7183.000
901.6110, 6674.000
902.7380, 6164.000
903.8660, 5798.070
904.9930, 5602.000
906.1200, 5300.000
907.2460, 5017.000
908.3730, 4824.000
909.5000, 4655.000
910.6260, 4563.000
911.7520, 4366.000
912.8780, 4237.000
914.0040, 4178.000
915.1290, 4050.000
916.2550, 3977.000
917.3800, 3923.000
918.5050, 3868.000
919.6300, 3760.000
920.7550, 3686.000
921.8800, 3693.000
923.0040, 3631.000
924.1290, 3636.000
925.2530, 3493.000
926.3770, 3536.000
927.5010, 3460.000
928.6250, 3423.000
929.7480, 3418.000
930.8720, 3435.000
931.9950, 3400.000
933.1180, 3353.000
934.2410, 3349.000
935.3640, 3307.000
936.4860, 3314.000
937.6090, 3288.000
938.7310, 3199.000
939.8530, 3265.000
940.9750, 3323.000
942.0970, 3217.000
943.2180, 3178.000
944.3400, 3214.000
945.4610, 3276.000
946.5820, 3220.000
947.7030, 3237.000
948.8240, 3192.000
949.9450, 3249.000
951.0650, 3099.000
952.1860, 3191.000
953.3060, 3204.000
954.4260, 3158.000
955.5460, 3197.000
956.6650, 3186.000
957.7850, 3173.000
958.9040, 3186.000
960.0230, 3154.000
961.1420, 3193.000
962.2610, 3132.000
963.3800, 3177.000
964.4990, 3135.000
965.6170, 3072.000
966.7350, 3140.000
967.8530, 3188.000
968.9710, 3167.000
970.0890, 3128.000
971.2070, 3189.000
972.3240, 3152.000
973.4410, 3102.000
974.5580, 3065.000
975.6750, 3155.000
976.7920, 3171.000
977.9090, 3124.000
979.0250, 3096.000
980.1410, 3131.000
981.2580, 3114.000
982.3740, 3162.000
983.4890, 3149.000
984.6050, 3135.000
985.7200, 3195.000
986.8360, 3145.000
987.9510, 3121.000
989.0660, 3202.000
990.1810, 3187.000
991.2950, 3143.000
992.4100, 3173.000
993.5240, 3175.000
994.6390, 3117.000
995.7530, 3173.000
996.8660, 3157.000
997.9800, 3161.000
999.0940, 3192.000
1000.207, 3169.000
1001.320, 3157.000
1002.433, 3062.000
1003.546, 3141.000
1004.659, 3101.000
1005.772, 3117.000
1006.884, 3147.000
1007.996, 3140.000
1009.108, 3131.000
1010.220, 3121.000
1011.332, 3135.000
1012.444, 3155.000
1013.555, 3145.000
1014.666, 3148.000
1015.777, 3128.000
1016.888, 3173.000
1017.999, 3144.000
1019.110, 3143.000
1020.220, 3117.000
1021.331, 3126.000
1022.441, 3060.000
1023.551, 3120.000
1024.661, 3143.000
1025.770, 3138.000
1026.880, 3089.000
1027.989, 3078.000
1029.098, 3087.771
1030.207, 3123.000
1031.316, 3145.000
1032.425, 3173.000
1033.533, 3254.000
1034.642, 3210.265
1035.750, 3095.000
1036.858, 3162.000
1037.966, 3141.000
1039.073, 3148.000
1040.181, 3129.000
1041.288, 3148.000
1042.396, 3172.000
1043.503, 3151.000
1044.610, 3165.000
1045.716, 3106.000
1046.823, 3219.000
1047.929, 3171.000
1049.036, 3219.000
1050.142, 3211.000
1051.248, 3183.000
1052.353, 3221.000
1053.459, 3147.000
1054.564, 3213.000
1055.670, 3131.000
1056.775, 3154.000
1057.880, 3218.000
1058.985, 3171.000
1060.089, 3214.000
1061.194, 3200.000
1062.298, 3152.000
1063.402, 3222.000
1064.506, 3267.000
1065.610, 3186.000
1066.713, 3180.000
1067.817, 3245.000
1068.920, 3249.000
1070.023, 3168.449
1071.126, 3270.810
1072.229, 3326.733
1073.332, 3338.714
1074.435, 3175.141
1075.537, 3238.264
1076.639, 3210.538
1077.741, 3179.088
1078.843, 3274.115
1079.945, 3136.080
1081.046, 3229.106
1082.148, 3229.894
1083.249, 3272.899
1084.350, 3224.495
1085.451, 3204.324
1086.551, 3275.595
1087.652, 3296.232
1088.752, 3237.309
1089.853, 3282.997
1090.953, 3141.775
1092.053, 3164.573
1093.152, 3258.140
1094.252, 3203.813
1095.351, 3251.179
1096.451, 3259.812
1097.550, 3092.442
1098.649, 3231.166
1099.748, 3237.514
1100.846, 3107.945
1101.945, 3236.181
1103.043, 3125.350
1104.141, 3099.852
1105.239, 3138.573
1106.337, 3110.348
1107.434, 3187.676
1108.532, 3163.317
1109.629, 3129.876
1110.726, 3136.083
1111.823, 3029.943
1112.920, 3132.228
1114.017, 3092.142
1115.113, 3122.828
1116.210, 3169.553
1117.306, 3093.455
1118.402, 3147.390
1119.498, 2999.675
1120.593, 3020.691
1121.689, 3023.535
1122.784, 3134.229
1123.879, 2987.501
1124.974, 3003.829
1126.069, 3089.585
1127.164, 3078.196
1128.259, 3107.423
1129.353, 3016.411
1130.447, 3038.359
1131.541, 3029.170
1132.635, 3127.573
1133.729, 3141.037
1134.822, 3052.069
1135.916, 2963.532
1137.009, 3069.681
1138.102, 2991.307
1139.195, 3012.482
1140.288, 2930.844
1141.380, 2937.980
1142.473, 2917.000
1143.565, 3011.000
1144.657, 2885.000
1145.749, 2937.000
1146.841, 2895.000
1147.932, 2908.000
1149.024, 2928.000
1150.115, 2943.000
1151.206, 2950.371
1152.297, 2887.000
1153.388, 2949.000
1154.479, 2901.000
1155.569, 2866.000
1156.659, 2914.000
1157.750, 2946.000
1158.839, 2891.000
1159.929, 2942.000
1161.019, 2971.000
1162.108, 2931.000
1163.198, 2866.000
1164.287, 2893.000
1165.376, 2872.000
1166.465, 2857.000
1167.553, 2885.000
1168.642, 2950.000
1169.730, 2850.000
1170.818, 2934.000
1171.906, 2858.000
1172.994, 2877.000
1174.082, 2822.000
1175.170, 2899.000
1176.257, 2843.000
1177.344, 2839.000
1178.431, 2806.000
1179.518, 2875.000
1180.605, 2842.000
1181.691, 2815.000
1182.778, 2898.000
1183.864, 2911.000
1184.950, 2816.000
1186.036, 2810.000
1187.122, 2831.000
1188.207, 2840.000
1189.292, 2882.000
1190.378, 2857.801
1191.463, 2866.885
1192.548, 2830.000
1193.632, 2845.000
1194.717, 2861.000
1195.801, 2842.000
1196.886, 2837.000
1197.970, 2897.000
1199.054, 2807.000
1200.137, 2828.000
1201.221, 2780.000
1202.305, 2844.000
1203.388, 2835.000
1204.471, 2852.000
1205.554, 2844.000
1206.637, 2843.000
1207.719, 2886.246
1208.802, 2872.990
1209.884, 2958.000
1210.966, 2882.000
1212.048, 2873.000
1213.130, 2879.000
1214.212, 2783.000
1215.293, 2811.988
1216.374, 2805.230
1217.456, 2824.000
1218.536, 2819.000
1219.617, 2854.000
1220.698, 2820.000
1221.778, 2813.000
1222.859, 2888.000
1223.939, 2849.000
1225.019, 2850.000
1226.099, 2780.000
1227.178, 2795.000
1228.258, 2802.000
1229.337, 2814.000
1230.417, 2820.267
1231.496, 2819.000
1232.574, 2821.000
1233.653, 2791.000
1234.732, 2767.000
1235.810, 2807.000
1236.888, 2847.000
1237.966, 2810.475
1239.044, 2911.218
1240.122, 2965.523
1241.199, 2975.892
1242.277, 2810.701
1243.354, 2872.206
1244.431, 2842.864
1245.508, 2809.797
1246.585, 2903.209
1247.661, 2763.562
1248.738, 2854.968
1249.814, 2854.145
1250.890, 2895.535
1251.966, 2845.517
1253.042, 2823.731
1254.117, 2893.389
1255.193, 2912.412
1256.268, 2851.876
1257.343, 2895.954
1258.418, 2753.119
1259.493, 2876.000
1260.567, 2779.000
1261.642, 2811.000
1262.716, 2779.000
1263.790, 2860.000
1264.864, 2814.904
1265.938, 2837.755
1267.011, 2761.000
1268.085, 2828.000
1269.158, 2806.000
1270.231, 2750.000
1271.304, 2727.000
1272.377, 2803.000
1273.450, 2770.000
1274.522, 2808.000
1275.594, 2764.000
1276.666, 2789.000
1277.738, 2749.000
1278.810, 2814.000
1279.882, 2786.000
1280.953, 2794.000
1282.025, 2825.000
1283.096, 2784.000
1284.167, 2776.000
1285.238, 2773.000
1286.308, 2753.000
1287.379, 2738.000
1288.449, 2738.000
1289.519, 2754.000
1290.589, 2788.000
1291.659, 2773.000
1292.729, 2725.000
1293.798, 2740.000
1294.868, 2712.000
1295.937, 2773.000
1297.006, 2765.000
1298.075, 2759.000
1299.143, 2799.000
1300.212, 2751.000
1301.280, 2748.000
1302.348, 2759.000
1303.416, 2755.000
1304.484, 2765.000
1305.552, 2798.000
1306.620, 2755.000
1307.687, 2789.298
1308.754, 2754.000
1309.821, 2812.000
1310.888, 2767.000
1311.955, 2762.000
1313.021, 2747.000
1314.088, 2899.000
1315.154, 2822.204
1316.220, 2839.000
1317.286, 2742.000
1318.352, 2797.000
1319.417, 2704.000
1320.483, 2761.000
1321.548, 2776.000
1322.613, 2766.000
1323.678, 2731.000
1324.743, 2744.000
1325.807, 2797.000
1326.872, 2710.000
1327.936, 2701.000
1329.000, 2789.000
1330.064, 2718.000
1331.128, 2778.000
1332.191, 2685.000
1333.255, 2774.000
1334.318, 2776.000
1335.381, 2687.000
1336.444, 2675.000
1337.507, 2763.000
1338.569, 2729.000
1339.632, 2713.000
1340.694, 2709.000
1341.756, 2777.000
1342.818, 2747.000
1343.880, 2745.000
1344.941, 2811.000
1346.003, 2760.000
1347.064, 2769.000
1348.125, 2809.000
1349.186, 2667.000
1350.247, 2734.000
1351.308, 2759.000
1352.368, 2768.000
1353.428, 2703.000
1354.489, 2710.000
1355.549, 2702.056
1356.608, 2711.796
1357.668, 2712.000
1358.727, 2762.000
1359.787, 2787.000
1360.846, 2797.000
1361.905, 2751.000
1362.964, 2736.000
1364.022, 2731.000
1365.081, 2768.000
1366.139, 2738.000
1367.197, 2774.000
1368.255, 2770.000
1369.313, 2754.000
1370.371, 2765.000
1371.428, 2758.711
1372.486, 2753.053
1373.543, 2759.000
1374.600, 2739.000
1375.657, 2734.000
1376.713, 2719.000
1377.770, 2717.000
1378.826, 2720.859
1379.882, 2729.000
1380.938, 2737.000
1381.994, 2750.000
1383.050, 2760.000
1384.106, 2739.000
1385.161, 2753.000
1386.216, 2745.000
1387.271, 2705.000
1388.326, 2691.000
1389.381, 2700.000
1390.435, 2663.083
1391.490, 2726.000
1392.544, 2651.000
1393.598, 2699.000
1394.652, 2770.000
1395.705, 2679.000
1396.759, 2770.000
1397.812, 2762.000
1398.866, 2785.000
1399.919, 2754.000
1400.972, 2768.317
1402.024, 2768.623
1403.077, 2761.000
1404.129, 2760.000
1405.181, 2725.000
1406.233, 2686.000
1407.285, 2749.000
1408.337, 2698.000
1409.389, 2746.000
1410.440, 2772.000
1411.491, 2729.000
1412.542, 2707.000
1413.593, 2698.000
1414.644, 2769.000
1415.695, 2779.000
1416.745, 2774.000
1417.795, 2789.000
1418.845, 2724.000
1419.895, 2761.000
1420.945, 2703.000
1421.995, 2750.000
1423.044, 2721.000
1424.093, 2689.000
1425.142, 2741.000
1426.191, 2733.333
1427.240, 2727.735
1428.289, 2763.000
1429.337, 2751.000
1430.385, 2761.128
1431.433, 2806.000
1432.481, 2759.000
1433.529, 2748.000
1434.577, 2728.000
1435.624, 2708.857
1436.672, 2699.000
1437.719, 2695.000
1438.766, 2706.000
1439.812, 2720.561
1440.859, 2736.000
1441.905, 2740.000
1442.952, 2728.000
1443.998, 2721.000
1445.044, 2793.000
1446.090, 2761.000
1447.135, 2764.000
1448.181, 2680.000
1449.226, 2749.000
1450.271, 2716.000
1451.316, 2743.000
1452.361, 2761.000
1453.405, 2751.000
1454.450, 2779.000
1455.494, 2734.000
1456.538, 2742.238
1457.582, 2681.000
1458.626, 2724.000
1459.670, 2719.000
1460.713, 2708.000
1461.757, 2706.000
1462.800, 2766.000
1463.843, 2824.000
1464.886, 2720.000
1465.928, 2792.000
1466.971, 2748.000
1468.013, 2712.000
1469.055, 2739.000
1470.097, 2729.000
1471.139, 2741.000
1472.181, 2712.000
1473.222, 2769.000
1474.263, 2717.000
1475.305, 2748.000
1476.346, 2730.000
1477.386, 2698.000
1478.427, 2741.000
1479.468, 2769.000
1480.508, 2756.000
1481.548, 2767.000
1482.588, 2741.000
1483.628, 2741.000
1484.668, 2731.000
1485.707, 2726.000
1486.747, 2728.358
1487.786, 2717.000
1488.825, 2728.000
1489.864, 2747.000
1490.902, 2737.000
1491.941, 2711.000
1492.979, 2689.000
1494.017, 2694.029
1495.055, 2711.583
1496.093, 2705.000
1497.131, 2768.000
1498.168, 2780.000
1499.206, 2782.000
1500.243, 2782.000
1501.280, 2717.000
1502.317, 2729.000
1503.354, 2776.000
1504.390, 2706.000
1505.426, 2719.000
1506.463, 2765.000
1507.499, 2781.000
1508.535, 2797.000
1509.570, 2785.000
1510.606, 2782.000
1511.641, 2764.000
1512.676, 2763.000
1513.711, 2760.000
1514.746, 2773.000
1515.781, 2793.000
1516.816, 2783.000
1517.850, 2745.000
1518.884, 2755.000
1519.918, 2859.000
1520.952, 2825.000
1521.986, 2837.000
1523.019, 2782.000
1524.053, 2784.040
1525.086, 2784.000
1526.119, 2761.000
1527.152, 2796.000
1528.185, 2776.000
1529.217, 2851.000
1530.250, 2778.000
1531.282, 2748.000
1532.314, 2805.000
1533.346, 2876.000
1534.377, 2785.000
1535.409, 2815.000
1536.440, 2814.000
1537.472, 2764.000
1538.503, 2792.000
1539.534, 2828.000
1540.564, 2773.000
1541.595, 2812.192
1542.625, 2769.000
1543.656, 2832.000
1544.686, 2775.000
1545.716, 2785.000
1546.745, 2792.000
1547.775, 2844.000
1548.804, 2685.765
1549.834, 2795.146
1550.863, 2858.087
1551.892, 2877.085
1552.920, 2720.527
1553.949, 2790.663
1554.977, 2769.948
1556.006, 2745.511
1557.034, 2847.550
1558.062, 2716.524
1559.089, 2816.554
1560.117, 2824.353
1561.144, 2874.362
1562.172, 2832.965
1563.199, 2819.798
1564.226, 2898.070
1565.252, 2925.708
1566.279, 2793.000
1567.305, 2835.000
1568.332, 2805.000
1569.358, 2841.000
1570.384, 2810.000
1571.409, 2817.000
1572.435, 2877.000
##END=



