##NAMES=Ferberite
##RRUFFID=R050632
##IDEAL CHEMISTRY=Fe^2+^W^6+^O_4_
##LOCALITY=Chance mine, Boulder, Colorado, USA
##OWNER=RRUFF
##SOURCE=University of Arizona Mineral Museum
##DESCRIPTION=Dark brown rectangular prismatic crystals
##STATUS=The identification of this mineral has been confirmed by X-ray diffraction and chemical analysis
##URL=rruff.info/R050632
##MEASURED CHEMISTRY=Fe^2+^_1.00_WO_4_
##PIN_ID=M00317
##ORIENTATION=Laser parallel to (1 0 1). Fiducial mark perpendicular to laser is parallel to b [0 1 0]
234.4160, 21353.00
235.6330, 21337.00
236.8490, 21358.00
238.0660, 21299.00
239.2820, 21521.00
240.4980, 21235.00
241.7140, 21230.00
242.9300, 21356.00
244.1460, 21222.00
245.3610, 21367.00
246.5770, 21282.00
247.7920, 21472.00
249.0070, 21687.00
250.2220, 21620.00
251.4370, 21416.00
252.6510, 21725.00
253.8660, 21778.00
255.0800, 21645.41
256.2940, 21992.24
257.5080, 22229.25
258.7220, 22362.37
259.9360, 22080.37
261.1490, 22334.32
262.3630, 22373.54
263.5760, 22403.86
264.7890, 22733.26
266.0020, 22782.00
267.2150, 22724.00
268.4270, 22846.00
269.6400, 23061.00
270.8520, 23066.00
272.0640, 23064.00
273.2760, 22828.00
274.4880, 22871.00
275.7000, 22800.00
276.9120, 22831.00
278.1230, 22697.00
279.3340, 22275.00
280.5450, 22228.00
281.7560, 22185.00
282.9670, 21876.00
284.1780, 21809.00
285.3880, 21758.25
286.5980, 21796.00
287.8090, 21719.00
289.0190, 21773.00
290.2290, 21748.84
291.4380, 22047.00
292.6480, 21957.00
293.8570, 22038.00
295.0670, 22088.00
296.2760, 22074.00
297.4850, 22148.00
298.6930, 22029.00
299.9020, 22228.00
301.1110, 21971.00
302.3190, 22014.00
303.5270, 22262.00
304.7350, 22117.88
305.9430, 22127.00
307.1510, 22147.00
308.3580, 22174.00
309.5660, 22218.00
310.7730, 22445.00
311.9800, 22549.00
313.1870, 22806.00
314.3940, 22689.00
315.6010, 22706.00
316.8070, 23030.00
318.0130, 23161.00
319.2200, 23345.00
320.4260, 23663.00
321.6310, 23646.00
322.8370, 23947.00
324.0430, 23916.00
325.2480, 23990.00
326.4540, 24212.00
327.6590, 24023.00
328.8640, 24474.00
330.0680, 24337.00
331.2730, 24345.00
332.4780, 23948.00
333.6820, 23711.00
334.8860, 23522.00
336.0900, 23604.00
337.2940, 23513.00
338.4980, 23310.00
339.7010, 23042.00
340.9050, 23038.00
342.1080, 23052.00
343.3110, 22952.00
344.5140, 22886.00
345.7170, 22705.00
346.9200, 22643.00
348.1220, 22612.00
349.3240, 22843.00
350.5270, 22554.00
351.7290, 22694.00
352.9310, 22629.00
354.1320, 22494.00
355.3340, 22403.00
356.5350, 22607.00
357.7370, 22569.00
358.9380, 22530.00
360.1390, 22232.00
361.3400, 22589.00
362.5400, 22415.00
363.7410, 22573.00
364.9410, 22393.00
366.1410, 22263.00
367.3410, 22487.00
368.5410, 22395.00
369.7410, 22422.00
370.9400, 22432.66
372.1400, 22518.00
373.3390, 22462.00
374.5380, 22474.64
375.7370, 22423.00
376.9360, 22402.00
378.1350, 22346.00
379.3330, 22254.00
380.5310, 22338.00
381.7300, 22240.00
382.9280, 22511.00
384.1260, 22431.00
385.3230, 22299.00
386.5210, 22660.00
387.7180, 22413.00
388.9160, 22555.00
390.1130, 22594.00
391.3100, 22627.00
392.5060, 22812.00
393.7030, 22649.00
394.9000, 22928.00
396.0960, 23190.00
397.2920, 23432.00
398.4880, 23393.00
399.6840, 23487.59
400.8800, 23354.00
402.0750, 23430.00
403.2710, 23349.31
404.4660, 23342.00
405.6610, 23097.00
406.8560, 22806.00
408.0510, 23095.00
409.2450, 22868.48
410.4400, 22902.83
411.6340, 22852.00
412.8280, 22868.00
414.0220, 22909.00
415.2160, 22800.00
416.4100, 22797.00
417.6030, 22746.00
418.7970, 22748.00
419.9900, 22709.00
421.1830, 22606.00
422.3760, 22818.00
423.5690, 22797.00
424.7610, 22849.00
425.9540, 22707.00
427.1460, 22887.00
428.3380, 22912.00
429.5300, 22750.00
430.7220, 22934.00
431.9140, 22891.00
433.1050, 22816.00
434.2970, 22989.00
435.4880, 23170.00
436.6790, 23011.00
437.8700, 23093.62
439.0610, 23383.00
440.2510, 22949.00
441.4420, 23135.00
442.6320, 23000.00
443.8220, 23499.00
445.0120, 23649.00
446.2020, 23134.00
447.3910, 23092.00
448.5810, 23042.00
449.7700, 23166.00
450.9600, 23236.00
452.1490, 23073.00
453.3370, 23124.00
454.5260, 23049.00
455.7150, 23400.00
456.9030, 23206.00
458.0910, 23338.00
459.2800, 23180.00
460.4670, 23259.90
461.6550, 23359.00
462.8430, 23326.00
464.0300, 23462.00
465.2180, 23322.00
466.4050, 23339.00
467.5920, 23521.00
468.7790, 23648.00
469.9650, 23290.00
471.1520, 23731.00
472.3380, 23542.00
473.5250, 23690.00
474.7110, 23621.00
475.8970, 23703.00
477.0820, 23737.00
478.2680, 23778.00
479.4540, 23821.00
480.6390, 23641.00
481.8240, 23876.00
483.0090, 23997.00
484.1940, 24035.00
485.3780, 24335.00
486.5630, 24106.00
487.7470, 24467.00
488.9320, 24246.00
490.1160, 24330.00
491.3000, 24259.00
492.4830, 24404.00
493.6670, 24412.00
494.8500, 24633.00
496.0340, 24772.00
497.2170, 24751.00
498.4000, 24770.00
499.5820, 24842.00
500.7650, 25106.00
501.9480, 25008.00
503.1300, 25274.00
504.3120, 25230.00
505.4940, 25413.00
506.6760, 25293.00
507.8580, 25658.00
509.0390, 25520.00
510.2210, 25654.00
511.4020, 25561.00
512.5830, 25585.00
513.7640, 25370.00
514.9450, 25884.00
516.1250, 25714.00
517.3060, 25718.00
518.4860, 25428.00
519.6660, 25845.00
520.8460, 25853.00
522.0260, 25795.00
523.2060, 25810.00
524.3850, 25724.00
525.5650, 25920.00
526.7440, 25975.00
527.9230, 25991.21
529.1020, 25681.00
530.2810, 26078.00
531.4590, 25792.00
532.6380, 25843.00
533.8160, 25864.00
534.9940, 25837.00
536.1720, 25904.00
537.3500, 26043.00
538.5270, 25908.00
539.7050, 25985.00
540.8820, 25847.00
542.0590, 25996.00
543.2360, 25873.64
544.4130, 25815.00
545.5900, 25692.00
546.7660, 25671.84
547.9430, 25689.00
549.1190, 25649.00
550.2950, 25689.00
551.4710, 25710.00
552.6470, 25643.00
553.8220, 25763.00
554.9980, 25491.00
556.1730, 25497.00
557.3480, 25488.00
558.5230, 25587.00
559.6980, 25548.00
560.8730, 25471.00
562.0470, 25483.00
563.2220, 25689.00
564.3960, 25328.00
565.5700, 25541.00
566.7440, 25293.00
567.9170, 25404.00
569.0910, 25510.00
570.2640, 25399.00
571.4380, 25307.00
572.6110, 25285.00
573.7840, 25289.00
574.9570, 25139.00
576.1290, 25082.15
577.3020, 24890.00
578.4740, 24807.00
579.6460, 24664.00
580.8180, 24571.51
581.9900, 24445.00
583.1620, 24383.00
584.3330, 24285.00
585.5040, 24126.00
586.6760, 24167.00
587.8470, 24002.00
589.0180, 23886.00
590.1880, 24009.00
591.3590, 23899.00
592.5290, 23840.00
593.7000, 23854.00
594.8700, 23896.00
596.0400, 23718.00
597.2090, 23769.00
598.3790, 23903.00
599.5490, 23830.00
600.7180, 23921.00
601.8870, 23921.76
603.0560, 23897.00
604.2250, 23905.00
605.3940, 23906.00
606.5620, 23854.00
607.7300, 24019.00
608.8990, 24013.00
610.0670, 24085.00
611.2350, 23786.00
612.4020, 24029.00
613.5700, 23969.00
614.7370, 23908.00
615.9050, 24183.00
617.0720, 23842.00
618.2390, 23840.00
619.4060, 23930.00
620.5720, 23824.00
621.7390, 23941.00
622.9050, 23964.00
624.0710, 24103.00
625.2370, 24015.00
626.4030, 23996.00
627.5690, 24093.00
628.7340, 23914.00
629.9000, 23838.00
631.0650, 24084.00
632.2300, 24063.00
633.3950, 24338.00
634.5600, 24248.00
635.7240, 24188.00
636.8890, 24064.00
638.0530, 24121.03
639.2170, 24160.00
640.3810, 24250.00
641.5450, 24302.00
642.7080, 24393.00
643.8720, 24348.78
645.0350, 24320.00
646.1980, 24336.00
647.3610, 24291.00
648.5240, 24288.87
649.6870, 24257.59
650.8490, 24284.00
652.0120, 24263.00
653.1740, 24301.00
654.3360, 24467.00
655.4980, 24491.00
656.6600, 24640.00
657.8210, 24643.00
658.9830, 24546.00
660.1440, 24661.00
661.3050, 24679.00
662.4660, 24741.00
663.6270, 24806.82
664.7870, 24903.00
665.9480, 24876.00
667.1080, 24865.00
668.2680, 24803.00
669.4280, 24989.00
670.5880, 24982.00
671.7480, 25671.00
672.9070, 25772.00
674.0670, 25693.00
675.2260, 25603.00
676.3850, 25574.00
677.5440, 25707.00
678.7030, 25642.00
679.8610, 25820.00
681.0200, 25975.00
682.1780, 26027.00
683.3360, 26140.00
684.4940, 26317.00
685.6520, 26213.00
686.8090, 26348.00
687.9670, 25983.07
689.1240, 26179.85
690.2810, 26266.83
691.4380, 26249.90
692.5950, 25817.86
693.7520, 25921.85
694.9080, 25811.07
696.0650, 25691.43
697.2210, 25870.91
698.3770, 25499.29
699.5330, 25802.00
700.6880, 25625.00
701.8440, 25436.00
702.9990, 25483.00
704.1550, 25063.00
705.3100, 25257.00
706.4650, 25142.00
707.6190, 25080.77
708.7740, 25157.15
709.9290, 25189.60
711.0830, 25180.51
712.2370, 25005.38
713.3910, 25044.66
714.5450, 24998.01
715.6980, 24947.87
716.8520, 25017.33
718.0050, 24972.00
719.1580, 24835.00
720.3110, 24955.00
721.4640, 24910.00
722.6170, 24954.00
723.7700, 24678.00
724.9220, 24653.00
726.0740, 24702.00
727.2260, 24978.00
728.3780, 24962.00
729.5300, 25150.00
730.6810, 24945.00
731.8330, 24800.00
732.9840, 24988.00
734.1350, 24848.00
735.2860, 24956.00
736.4370, 25050.57
737.5880, 25397.00
738.7380, 25231.00
739.8880, 25189.00
741.0390, 25196.00
742.1890, 25739.00
743.3380, 25372.00
744.4880, 25646.82
745.6380, 25374.00
746.7870, 25551.00
747.9360, 25598.13
749.0850, 25858.00
750.2340, 25590.00
751.3830, 25838.00
752.5310, 25525.00
753.6800, 25855.00
754.8280, 25666.00
755.9760, 25967.00
757.1240, 25954.00
758.2720, 26097.00
759.4190, 26032.00
760.5670, 26319.00
761.7140, 26551.00
762.8610, 26505.00
764.0080, 26569.00
765.1550, 26466.00
766.3020, 26713.00
767.4480, 26731.00
768.5950, 26834.00
769.7410, 26984.00
770.8870, 26892.00
772.0330, 26958.00
773.1780, 26994.00
774.3240, 26861.00
775.4690, 26945.00
776.6140, 26947.00
777.7590, 26873.00
778.9040, 26945.00
780.0490, 26948.00
781.1940, 26855.00
782.3380, 27159.00
783.4820, 27228.00
784.6260, 27135.00
785.7700, 26895.00
786.9140, 26728.00
788.0580, 26781.00
789.2010, 26748.00
790.3450, 26566.00
791.4880, 26529.00
792.6310, 26524.00
793.7730, 26414.00
794.9160, 26562.00
796.0590, 26479.16
797.2010, 26143.00
798.3430, 26451.00
799.4850, 26235.00
800.6270, 26225.00
801.7690, 26298.00
802.9100, 26164.00
804.0520, 26288.00
805.1930, 26105.00
806.3340, 26091.00
807.4750, 26109.00
808.6160, 26119.00
809.7560, 26181.00
810.8970, 26091.00
812.0370, 25956.00
813.1770, 26153.00
814.3170, 26072.00
815.4570, 26153.00
816.5960, 26069.00
817.7360, 26346.00
818.8750, 25995.00
820.0140, 26172.57
821.1530, 26426.00
822.2920, 26255.00
823.4310, 26320.00
824.5690, 26312.00
825.7070, 26578.00
826.8460, 26518.00
827.9840, 26539.00
829.1220, 26500.00
830.2590, 26588.00
831.3970, 26662.00
832.5340, 26841.00
833.6710, 26929.75
834.8080, 27041.89
835.9450, 27149.00
837.0820, 27220.00
838.2190, 27260.00
839.3550, 27274.00
840.4910, 27450.40
841.6270, 27527.00
842.7630, 27836.00
843.8990, 27850.00
845.0350, 28111.00
846.1700, 28411.00
847.3060, 28617.00
848.4410, 28999.68
849.5760, 29329.00
850.7100, 29660.58
851.8450, 30067.73
852.9800, 30426.00
854.1140, 30877.00
855.2480, 31346.00
856.3820, 31776.00
857.5160, 32325.00
858.6500, 33134.00
859.7830, 33978.00
860.9170, 34670.00
862.0500, 35775.00
863.1830, 36874.00
864.3160, 38113.00
865.4480, 39714.52
866.5810, 41337.64
867.7130, 43329.00
868.8460, 45275.00
869.9780, 47497.00
871.1100, 49994.00
872.2410, 52218.00
873.3730, 54836.00
874.5050, 57160.00
875.6360, 59029.00
876.7670, 60114.00
877.8980, 60967.00
879.0290, 60879.00
880.1590, 60297.00
881.2900, 58929.00
882.4200, 57214.00
883.5500, 54969.00
884.6800, 52916.80
885.8100, 50371.00
886.9400, 48075.00
888.0690, 46130.00
889.1990, 43687.00
890.3280, 42098.00
891.4570, 40189.00
892.5860, 38550.00
893.7140, 37144.00
894.8430, 36126.00
895.9710, 35099.00
897.1000, 33937.00
898.2280, 33407.00
899.3560, 32655.00
900.4830, 31957.00
901.6110, 31676.00
902.7380, 31171.00
903.8660, 30824.00
904.9930, 30323.00
906.1200, 30052.00
907.2460, 29611.00
908.3730, 29595.00
909.5000, 29190.00
910.6260, 29226.00
911.7520, 28722.00
912.8780, 28710.00
914.0040, 28504.00
915.1290, 28472.00
916.2550, 28309.00
917.3800, 28204.00
918.5050, 28140.00
919.6300, 28067.05
920.7550, 28052.58
921.8800, 27974.00
923.0040, 28065.00
924.1290, 27977.00
925.2530, 27993.00
926.3770, 27752.00
927.5010, 27793.00
928.6250, 27790.00
929.7480, 27930.00
930.8720, 27821.00
931.9950, 27605.00
933.1180, 27889.00
934.2410, 27610.00
935.3640, 27428.00
936.4860, 27464.00
937.6090, 27457.00
938.7310, 27601.00
939.8530, 27612.00
940.9750, 27648.00
942.0970, 27464.00
943.2180, 27605.00
944.3400, 27494.00
945.4610, 27560.00
946.5820, 27599.00
947.7030, 27418.00
948.8240, 27595.00
949.9450, 27492.00
951.0650, 27336.00
952.1860, 27231.00
953.3060, 27402.00
954.4260, 27312.00
955.5460, 27312.00
956.6650, 27370.00
957.7850, 27247.00
958.9040, 27436.00
960.0230, 27164.00
961.1420, 27019.00
962.2610, 27121.00
963.3800, 27147.00
964.4990, 27119.00
965.6170, 26937.00
966.7350, 26840.00
967.8530, 26750.00
968.9710, 26964.00
970.0890, 26861.00
971.2070, 27025.00
972.3240, 27046.00
973.4410, 26930.00
974.5580, 27095.00
975.6750, 26815.00
976.7920, 26942.00
977.9090, 26995.00
979.0250, 26775.00
980.1410, 26852.00
981.2580, 26997.00
982.3740, 26812.15
983.4890, 26861.00
984.6050, 26715.00
985.7200, 26880.00
986.8360, 27047.00
987.9510, 26876.00
989.0660, 26904.00
990.1810, 26771.00
991.2950, 26817.00
992.4100, 26894.00
993.5240, 26649.00
994.6390, 26741.00
995.7530, 26763.00
996.8660, 26819.00
997.9800, 26826.50
999.0940, 26851.00
1000.207, 26792.00
1001.320, 26792.00
1002.433, 26723.00
1003.546, 26692.00
1004.659, 26723.40
1005.772, 26688.00
1006.884, 26775.00
1007.996, 26818.00
1009.108, 26804.27
1010.220, 27043.00
1011.332, 26813.00
1012.444, 26816.00
1013.555, 26649.00
1014.666, 26824.00
1015.777, 26745.00
1016.888, 26520.00
1017.999, 26838.00
1019.110, 26871.00
1020.220, 26666.00
1021.331, 26670.00
1022.441, 26804.00
1023.551, 26619.00
1024.661, 26674.00
1025.770, 26824.00
1026.880, 26748.00
1027.989, 26576.00
1029.098, 26783.00
1030.207, 26617.00
1031.316, 26643.00
1032.425, 26929.00
1033.533, 26904.00
1034.642, 26636.00
1035.750, 26908.00
1036.858, 26777.00
1037.966, 26852.00
1039.073, 26810.00
1040.181, 26833.00
1041.288, 27001.00
1042.396, 26798.00
1043.503, 26882.00
1044.610, 27009.00
1045.716, 27012.00
1046.823, 26914.00
1047.929, 26778.00
1049.036, 26928.00
1050.142, 26861.00
1051.248, 27079.00
1052.353, 27144.00
1053.459, 27093.00
1054.564, 27195.00
1055.670, 27186.16
1056.775, 27213.00
1057.880, 27214.00
1058.985, 27292.00
1060.089, 27309.00
1061.194, 27347.64
1062.298, 27348.49
1063.402, 27384.00
1064.506, 27331.00
1065.610, 27262.00
1066.713, 27269.00
1067.817, 27230.82
1068.920, 27220.65
1070.023, 27232.00
1071.126, 27229.00
1072.229, 27282.00
1073.332, 27324.75
1074.435, 27287.00
1075.537, 27309.00
1076.639, 27258.00
1077.741, 27141.00
1078.843, 27343.00
1079.945, 27206.00
1081.046, 27291.00
1082.148, 27466.00
1083.249, 27331.00
1084.350, 27190.00
1085.451, 27250.00
1086.551, 27122.00
1087.652, 27252.00
1088.752, 27088.00
1089.853, 27226.00
1090.953, 27064.00
1092.053, 26891.00
1093.152, 27169.00
1094.252, 26922.00
1095.351, 27359.00
1096.451, 27076.00
1097.550, 26929.00
1098.649, 26966.00
1099.748, 26935.00
1100.846, 26927.99
1101.945, 27100.00
1103.043, 26964.00
1104.141, 27011.00
1105.239, 27007.00
1106.337, 26807.00
1107.434, 26628.00
1108.532, 26975.00
1109.629, 26918.00
1110.726, 27154.00
1111.823, 26787.00
1112.920, 26994.00
1114.017, 26819.00
1115.113, 26766.00
1116.210, 26785.00
1117.306, 27007.00
1118.402, 26871.00
1119.498, 27067.84
1120.593, 27136.00
1121.689, 27145.00
1122.784, 27312.48
1123.879, 26967.65
1124.974, 27108.00
1126.069, 27005.00
1127.164, 26824.00
1128.259, 26731.00
1129.353, 26676.00
1130.447, 26718.00
1131.541, 26708.00
1132.635, 26459.00
1133.729, 26467.00
1134.822, 26589.00
1135.916, 26482.00
1137.009, 26556.00
1138.102, 26763.00
1139.195, 26623.00
1140.288, 26633.00
1141.380, 26643.00
1142.473, 26692.00
1143.565, 26591.00
1144.657, 26609.00
1145.749, 26573.93
1146.841, 26618.00
1147.932, 26507.30
1149.024, 26487.93
1150.115, 26453.00
1151.206, 26503.00
1152.297, 26368.00
1153.388, 26501.00
1154.479, 26391.00
1155.569, 26386.00
1156.659, 26547.00
1157.750, 26451.00
1158.839, 26580.00
1159.929, 26381.00
1161.019, 26385.00
1162.108, 26404.00
1163.198, 26434.00
1164.287, 26494.00
1165.376, 26562.00
1166.465, 26335.00
1167.553, 26344.00
1168.642, 26453.00
1169.730, 26219.00
1170.818, 26401.00
1171.906, 26243.00
1172.994, 26136.00
1174.082, 26242.00
1175.170, 26436.00
1176.257, 26265.00
1177.344, 26348.00
1178.431, 26231.00
1179.518, 26420.00
1180.605, 26171.00
1181.691, 26228.00
1182.778, 26470.00
1183.864, 26234.00
1184.950, 26301.00
1186.036, 26256.00
1187.122, 26277.00
1188.207, 26322.00
1189.292, 26272.00
1190.378, 26350.00
1191.463, 26422.00
1192.548, 26011.00
1193.632, 26257.00
1194.717, 26133.00
1195.801, 26279.00
1196.886, 26379.00
1197.970, 26269.00
1199.054, 26223.00
1200.137, 26083.00
1201.221, 26162.00
1202.305, 26325.00
1203.388, 26275.00
1204.471, 26295.00
1205.554, 26409.00
1206.637, 26266.00
1207.719, 26466.00
1208.802, 26468.00
1209.884, 26491.00
1210.966, 26508.00
1212.048, 26281.00
1213.130, 26253.00
1214.212, 26363.00
1215.293, 26170.00
1216.374, 26268.00
1217.456, 26272.00
1218.536, 26427.00
1219.617, 26258.00
1220.698, 26236.00
1221.778, 26313.00
1222.859, 26079.00
1223.939, 26184.00
1225.019, 26309.00
1226.099, 26316.00
1227.178, 26385.00
1228.258, 26319.00
1229.337, 26242.00
1230.417, 26472.00
1231.496, 26252.00
1232.574, 26500.00
1233.653, 26353.93
1234.732, 26340.88
1235.810, 26180.00
1236.888, 26342.00
1237.966, 26392.00
1239.044, 26556.00
1240.122, 26343.00
1241.199, 26411.00
1242.277, 26325.00
1243.354, 26311.00
1244.431, 26384.00
1245.508, 26440.00
1246.585, 26509.00
1247.661, 26278.00
1248.738, 26319.00
1249.814, 26449.00
1250.890, 26371.00
1251.966, 26483.00
1253.042, 26405.00
1254.117, 26365.00
1255.193, 26293.00
1256.268, 26246.00
1257.343, 26229.00
1258.418, 26353.00
1259.493, 26162.00
1260.567, 26249.00
1261.642, 26277.00
1262.716, 26133.00
1263.790, 26340.00
1264.864, 26254.00
1265.938, 26410.00
1267.011, 26409.54
1268.085, 26576.00
1269.158, 26347.00
1270.231, 26455.00
1271.304, 26289.00
1272.377, 26306.00
1273.450, 26321.00
1274.522, 26512.00
1275.594, 26276.00
1276.666, 26413.00
1277.738, 26331.00
1278.810, 26367.00
1279.882, 26413.00
1280.953, 26152.00
1282.025, 26344.00
1283.096, 26341.00
1284.167, 26445.00
1285.238, 26304.00
1286.308, 26199.00
1287.379, 26343.00
1288.449, 26410.00
1289.519, 26318.00
1290.589, 26397.68
1291.659, 26343.33
1292.729, 26183.15
1293.798, 26439.21
1294.868, 26585.46
1295.937, 26627.80
1297.006, 26255.04
1298.075, 26418.30
1299.143, 26366.74
1300.212, 26306.38
1301.280, 26545.08
1302.348, 26232.69
1303.416, 26466.65
1304.484, 26482.51
1305.552, 26598.20
1306.620, 26497.73
1307.687, 26464.03
1308.754, 26646.53
1309.821, 26709.32
1310.888, 26583.97
1311.955, 26705.99
1313.021, 26386.04
1314.088, 26453.92
1315.154, 26689.14
1316.220, 26574.65
1317.286, 26513.00
1318.352, 26479.00
1319.417, 26607.00
1320.483, 26470.00
1321.548, 26551.00
1322.613, 26450.00
1323.678, 26476.00
1324.743, 26484.00
1325.807, 26568.00
1326.872, 26535.00
1327.936, 26491.00
1329.000, 26395.00
1330.064, 26747.00
1331.128, 26477.00
1332.191, 26604.00
1333.255, 26440.00
1334.318, 26600.00
1335.381, 26347.00
1336.444, 26577.00
1337.507, 26544.00
1338.569, 26475.00
1339.632, 26497.00
1340.694, 26721.00
1341.756, 26570.00
1342.818, 26656.00
1343.880, 26448.00
1344.941, 26477.00
1346.003, 26671.00
1347.064, 26529.00
1348.125, 26638.00
1349.186, 26605.00
1350.247, 26428.00
1351.308, 26587.00
1352.368, 26652.00
1353.428, 26660.00
1354.489, 26544.00
1355.549, 26682.59
1356.608, 26808.63
1357.668, 26879.77
1358.727, 26898.95
1359.787, 26710.58
1360.846, 26790.23
1361.905, 26762.46
1362.964, 26730.29
1364.022, 26847.66
1365.081, 26689.48
1366.139, 26804.47
1367.197, 26556.00
1368.255, 26679.00
1369.313, 26598.00
1370.371, 26716.00
1371.428, 26653.00
1372.486, 26654.00
1373.543, 26662.00
1374.600, 26620.00
1375.657, 26718.00
1376.713, 26522.00
1377.770, 26919.00
1378.826, 26652.00
1379.882, 26682.79
1380.938, 26898.00
1381.994, 26622.00
1383.050, 26597.00
1384.106, 26712.00
1385.161, 26705.00
1386.216, 26865.00
1387.271, 26842.00
1388.326, 26820.00
1389.381, 26690.00
1390.435, 26596.00
1391.490, 26758.00
1392.544, 26543.00
1393.598, 26625.00
1394.652, 26673.00
1395.705, 26685.00
1396.759, 26713.46
1397.812, 26712.13
1398.866, 26721.00
1399.919, 26697.00
1400.972, 26709.00
1402.024, 26709.00
1403.077, 26636.00
1404.129, 26583.00
1405.181, 26793.00
1406.233, 26689.00
1407.285, 26768.00
1408.337, 26774.00
1409.389, 26748.00
1410.440, 26818.00
1411.491, 26696.00
1412.542, 26816.00
1413.593, 26461.56
1414.644, 26719.67
1415.695, 26867.98
1416.745, 26912.37
1417.795, 26541.65
1418.845, 26706.97
1419.895, 26657.46
1420.945, 26599.15
1421.995, 26839.91
1423.044, 26529.56
1424.093, 26765.57
1425.142, 26783.48
1426.191, 26901.21
1427.240, 26802.80
1428.289, 26771.14
1429.337, 26955.70
1430.385, 27020.53
1431.433, 26897.22
1432.481, 27021.29
1433.529, 26703.39
1434.577, 26773.32
1435.624, 26815.00
1436.672, 26857.00
1437.719, 26765.00
1438.766, 26750.00
1439.812, 26734.00
1440.859, 26942.00
1441.905, 26514.00
1442.952, 26880.00
1443.998, 26822.00
1445.044, 26551.00
1446.090, 26821.00
1447.135, 26586.00
1448.181, 26644.00
1449.226, 26905.00
1450.271, 26700.00
1451.316, 26959.00
1452.361, 26719.00
1453.405, 26781.00
1454.450, 26897.00
1455.494, 26763.00
1456.538, 26762.00
1457.582, 26887.00
1458.626, 26913.00
1459.670, 26867.00
1460.713, 26923.56
1461.757, 26883.00
1462.800, 26971.00
1463.843, 26724.00
1464.886, 26825.00
1465.928, 26800.00
1466.971, 26875.00
1468.013, 27107.00
1469.055, 26784.00
1470.097, 26932.00
1471.139, 26985.00
1472.181, 26781.00
1473.222, 26940.00
1474.263, 26951.00
1475.305, 26926.00
1476.346, 26964.98
1477.386, 26980.00
1478.427, 26701.15
1479.468, 26951.27
1480.508, 27091.58
1481.548, 27127.99
1482.588, 26749.28
1483.628, 26906.61
1484.668, 26849.12
1485.707, 26782.82
1486.747, 27015.59
1487.786, 26697.27
1488.825, 26925.30
1489.864, 26935.23
1490.902, 27044.98
1491.941, 26938.59
1492.979, 26898.95
1494.017, 27075.53
1495.055, 27132.39
1496.093, 27001.12
1497.131, 27117.22
1498.168, 26791.34
1499.206, 26853.30
1500.243, 27082.59
1501.280, 26962.19
1502.317, 27082.24
1503.354, 27110.71
1504.390, 26722.99
1505.426, 27059.06
1506.463, 27082.12
1507.499, 26783.78
1508.535, 27084.00
1509.570, 27219.00
1510.606, 27019.00
1511.641, 27004.00
1512.676, 27017.83
1513.711, 27004.08
1514.746, 27061.00
1515.781, 27036.00
1516.816, 27158.00
1517.850, 26996.00
1518.884, 27203.00
1519.918, 26918.00
1520.952, 27088.00
1521.986, 27111.00
1523.019, 27327.00
1524.053, 27185.00
1525.086, 27080.00
1526.119, 27143.00
1527.152, 27024.00
1528.185, 27045.00
1529.217, 27145.00
1530.250, 27388.00
1531.282, 27131.00
1532.314, 26974.00
1533.346, 27181.00
1534.377, 27232.00
1535.409, 27248.00
1536.440, 27212.00
1537.472, 27329.00
1538.503, 27201.00
1539.534, 27199.00
1540.564, 27027.09
1541.595, 27270.62
1542.625, 27404.36
1543.656, 27434.18
1544.686, 27048.90
1545.716, 27199.65
1546.745, 27135.59
1547.775, 27062.71
1548.804, 27288.91
1549.834, 26964.00
1550.863, 27185.46
1551.892, 27188.82
1552.920, 27292.01
1553.949, 27179.04
1554.977, 27132.85
1556.006, 27302.86
1557.034, 27353.15
1558.062, 27215.31
1559.089, 27324.85
1560.117, 26992.41
1561.144, 27047.81
1562.172, 27270.54
1563.199, 27143.57
1564.226, 27257.06
1565.252, 27278.98
1566.279, 26884.70
1567.305, 27214.22
1568.332, 27230.72
1569.358, 27000.00
1570.384, 27209.00
1571.409, 27259.00
##END=



