##NAMES=Ferberite
##RRUFFID=R050632
##IDEAL CHEMISTRY=Fe^2+^W^6+^O_4_
##LOCALITY=Chance mine, Boulder, Colorado, USA
##OWNER=RRUFF
##SOURCE=University of Arizona Mineral Museum
##DESCRIPTION=Dark brown rectangular prismatic crystals
##STATUS=The identification of this mineral has been confirmed by X-ray diffraction and chemical analysis
##URL=rruff.info/R050632
##MEASURED CHEMISTRY=Fe^2+^_1.00_WO_4_
##PIN_ID=M00360
##ORIENTATION=Laser parallel to -a* (-1 0 0). Fiducial mark perpendicular to laser is parallel to b [0 1 0]
157.4550, 19110.00
158.6810, 19151.00
159.9080, 19108.00
161.1340, 18983.00
162.3590, 19149.00
163.5850, 19080.00
164.8110, 19589.00
166.0360, 19781.00
167.2610, 19624.00
168.4860, 20377.00
169.7110, 20064.00
170.9360, 20181.00
172.1610, 20322.00
173.3850, 20328.00
174.6100, 20495.00
175.8340, 20817.00
177.0580, 20846.00
178.2820, 20964.00
179.5050, 20797.00
180.7290, 20515.00
181.9520, 20179.00
183.1760, 20199.00
184.3990, 20042.00
185.6220, 20257.00
186.8450, 20498.00
188.0670, 20511.00
189.2900, 20598.00
190.5120, 20680.00
191.7340, 20798.00
192.9560, 21000.03
194.1780, 21471.00
195.4000, 21601.00
196.6220, 21971.00
197.8430, 22590.00
199.0640, 22928.00
200.2860, 23943.00
201.5070, 24844.00
202.7270, 25448.00
203.9480, 26028.00
205.1690, 25621.00
206.3890, 25305.00
207.6090, 25188.00
208.8290, 24649.00
210.0490, 24127.00
211.2690, 23254.00
212.4890, 22654.00
213.7080, 21986.00
214.9280, 21350.00
216.1470, 20825.00
217.3660, 20454.00
218.5850, 20092.76
219.8030, 19933.00
221.0220, 19686.00
222.2400, 19506.00
223.4590, 19493.00
224.6770, 19333.00
225.8950, 19332.00
227.1120, 19131.00
228.3300, 19145.00
229.5480, 19080.00
230.7650, 19175.00
231.9820, 19126.63
233.1990, 19010.00
234.4160, 19132.00
235.6330, 19077.00
236.8490, 19145.00
238.0660, 19238.00
239.2820, 19306.00
240.4980, 19171.00
241.7140, 19089.00
242.9300, 19162.00
244.1460, 19200.00
245.3610, 18973.00
246.5770, 19298.00
247.7920, 19305.00
249.0070, 19171.00
250.2220, 19352.00
251.4370, 19409.00
252.6510, 19517.00
253.8660, 19569.00
255.0800, 19574.58
256.2940, 19825.73
257.5080, 20029.82
258.7220, 20189.38
259.9360, 20171.05
261.1490, 20382.31
262.3630, 20501.63
263.5760, 20617.06
264.7890, 20860.66
266.0020, 21011.00
267.2150, 21034.00
268.4270, 20899.00
269.6400, 20949.00
270.8520, 20750.00
272.0640, 20655.00
273.2760, 20589.19
274.4880, 20477.35
275.7000, 20378.00
276.9120, 20327.00
278.1230, 20173.00
279.3340, 20062.00
280.5450, 19954.00
281.7560, 19888.00
282.9670, 19854.00
284.1780, 19876.00
285.3880, 19804.00
286.5980, 19831.00
287.8090, 19948.00
289.0190, 19932.33
290.2290, 20137.00
291.4380, 20050.00
292.6480, 20178.00
293.8570, 20302.00
295.0670, 20353.00
296.2760, 20493.00
297.4850, 20627.11
298.6930, 20673.00
299.9020, 20856.00
301.1110, 20852.00
302.3190, 20787.00
303.5270, 20660.00
304.7350, 20787.00
305.9430, 21040.00
307.1510, 21075.00
308.3580, 21654.00
309.5660, 21119.00
310.7730, 21729.00
311.9800, 21698.00
313.1870, 21853.00
314.3940, 22218.00
315.6010, 22801.00
316.8070, 23120.00
318.0130, 23605.00
319.2200, 24204.00
320.4260, 24734.00
321.6310, 25338.00
322.8370, 26050.00
324.0430, 26683.00
325.2480, 27234.00
326.4540, 27027.00
327.6590, 26729.00
328.8640, 26568.00
330.0680, 26284.00
331.2730, 25760.00
332.4780, 25272.00
333.6820, 24795.00
334.8860, 24233.00
336.0900, 23710.00
337.2940, 23602.00
338.4980, 23414.00
339.7010, 23225.00
340.9050, 22796.00
342.1080, 22723.00
343.3110, 22406.00
344.5140, 22679.00
345.7170, 22360.00
346.9200, 22324.00
348.1220, 22118.00
349.3240, 22070.00
350.5270, 22101.00
351.7290, 22010.00
352.9310, 21839.00
354.1320, 21779.00
355.3340, 21766.00
356.5350, 21537.00
357.7370, 21747.00
358.9380, 21483.00
360.1390, 21484.00
361.3400, 21248.00
362.5400, 21324.00
363.7410, 21265.00
364.9410, 21174.00
366.1410, 21238.00
367.3410, 21082.00
368.5410, 21225.00
369.7410, 21145.00
370.9400, 21321.00
372.1400, 20972.00
373.3390, 20997.00
374.5380, 21168.00
375.7370, 21299.00
376.9360, 20957.00
378.1350, 21094.00
379.3330, 21089.00
380.5310, 21141.00
381.7300, 21114.00
382.9280, 21234.00
384.1260, 21318.00
385.3230, 21393.00
386.5210, 21491.00
387.7180, 21369.00
388.9160, 21725.00
390.1130, 21614.00
391.3100, 21955.00
392.5060, 22131.00
393.7030, 22199.00
394.9000, 22431.00
396.0960, 22728.00
397.2920, 23011.00
398.4880, 23289.00
399.6840, 23056.00
400.8800, 24609.00
402.0750, 23741.54
403.2710, 23777.00
404.4660, 22984.00
405.6610, 22052.00
406.8560, 21969.00
408.0510, 21523.00
409.2450, 21561.00
410.4400, 21497.00
411.6340, 21543.00
412.8280, 21433.00
414.0220, 21536.00
415.2160, 21293.00
416.4100, 21268.00
417.6030, 21272.00
418.7970, 21239.44
419.9900, 21612.00
421.1830, 21340.00
422.3760, 21509.00
423.5690, 21571.00
424.7610, 21330.00
425.9540, 21442.75
427.1460, 21358.00
428.3380, 21400.00
429.5300, 21459.00
430.7220, 21476.00
431.9140, 21430.00
433.1050, 21568.00
434.2970, 21682.00
435.4880, 21464.00
436.6790, 21681.00
437.8700, 21492.00
439.0610, 21688.00
440.2510, 21675.00
441.4420, 21557.00
442.6320, 21662.00
443.8220, 21662.00
445.0120, 21492.00
446.2020, 21801.00
447.3910, 21654.00
448.5810, 21747.00
449.7700, 21704.00
450.9600, 21636.00
452.1490, 21793.00
453.3370, 21832.00
454.5260, 21811.00
455.7150, 21819.00
456.9030, 21830.00
458.0910, 21890.00
459.2800, 21946.52
460.4670, 21984.88
461.6550, 22098.00
462.8430, 22056.00
464.0300, 22097.00
465.2180, 22067.00
466.4050, 21881.00
467.5920, 22078.00
468.7790, 21955.00
469.9650, 22166.00
471.1520, 22005.00
472.3380, 22107.00
473.5250, 22262.00
474.7110, 22141.00
475.8970, 22186.00
477.0820, 22352.00
478.2680, 22201.00
479.4540, 22325.00
480.6390, 22258.00
481.8240, 22496.00
483.0090, 22393.00
484.1940, 22436.00
485.3780, 22282.00
486.5630, 22664.00
487.7470, 22502.00
488.9320, 22679.00
490.1160, 22672.00
491.3000, 22815.00
492.4830, 22793.00
493.6670, 22938.00
494.8500, 22905.00
496.0340, 23066.00
497.2170, 23714.00
498.4000, 23759.00
499.5820, 24435.00
500.7650, 24276.00
501.9480, 23998.00
503.1300, 24073.00
504.3120, 23710.00
505.4940, 23668.00
506.6760, 23932.00
507.8580, 23694.00
509.0390, 23767.00
510.2210, 23823.00
511.4020, 23988.00
512.5830, 23733.00
513.7640, 24027.00
514.9450, 23947.00
516.1250, 23788.00
517.3060, 24106.00
518.4860, 23897.00
519.6660, 24187.00
520.8460, 24228.00
522.0260, 24156.00
523.2060, 24411.00
524.3850, 24214.00
525.5650, 24304.00
526.7440, 24254.00
527.9230, 24219.00
529.1020, 24155.00
530.2810, 24298.00
531.4590, 24287.00
532.6380, 24321.00
533.8160, 24300.00
534.9940, 24199.00
536.1720, 24147.00
537.3500, 23955.00
538.5270, 24270.00
539.7050, 24039.00
540.8820, 23959.00
542.0590, 24225.00
543.2360, 24002.77
544.4130, 23865.00
545.5900, 23815.00
546.7660, 23944.00
547.9430, 23729.00
549.1190, 23545.00
550.2950, 23732.00
551.4710, 23650.00
552.6470, 23630.00
553.8220, 23454.00
554.9980, 23567.00
556.1730, 23502.00
557.3480, 23594.00
558.5230, 23592.38
559.6980, 23481.00
560.8730, 23559.00
562.0470, 23509.00
563.2220, 23394.00
564.3960, 23383.00
565.5700, 23448.00
566.7440, 23390.00
567.9170, 23411.00
569.0910, 23405.00
570.2640, 23478.00
571.4380, 23484.00
572.6110, 23504.00
573.7840, 23338.00
574.9570, 23223.00
576.1290, 23523.00
577.3020, 23413.00
578.4740, 23182.00
579.6460, 23162.00
580.8180, 22982.00
581.9900, 22972.00
583.1620, 23094.00
584.3330, 22758.00
585.5040, 22750.00
586.6760, 22830.00
587.8470, 22988.00
589.0180, 22826.00
590.1880, 22856.00
591.3590, 22638.00
592.5290, 22813.00
593.7000, 22928.00
594.8700, 22783.00
596.0400, 22939.00
597.2090, 22986.00
598.3790, 22794.00
599.5490, 22819.00
600.7180, 22794.00
601.8870, 22853.00
603.0560, 23020.00
604.2250, 22900.00
605.3940, 23026.00
606.5620, 23071.00
607.7300, 22882.00
608.8990, 22972.00
610.0670, 22815.00
611.2350, 22803.00
612.4020, 22876.15
613.5700, 22854.64
614.7370, 23048.00
615.9050, 22924.00
617.0720, 23046.00
618.2390, 22990.00
619.4060, 23012.00
620.5720, 23126.00
621.7390, 23128.00
622.9050, 23163.00
624.0710, 23062.00
625.2370, 23116.00
626.4030, 23183.00
627.5690, 23060.00
628.7340, 23226.00
629.9000, 23392.00
631.0650, 23202.00
632.2300, 23344.00
633.3950, 23335.00
634.5600, 23403.00
635.7240, 23273.00
636.8890, 23489.00
638.0530, 23137.00
639.2170, 23468.00
640.3810, 23239.00
641.5450, 23489.00
642.7080, 23530.00
643.8720, 23422.00
645.0350, 23569.00
646.1980, 23326.00
647.3610, 23523.00
648.5240, 23821.00
649.6870, 23771.00
650.8490, 23704.00
652.0120, 23802.00
653.1740, 23733.00
654.3360, 23850.00
655.4980, 23809.00
656.6600, 23959.00
657.8210, 24157.00
658.9830, 24190.00
660.1440, 24276.00
661.3050, 24232.00
662.4660, 24389.00
663.6270, 24370.00
664.7870, 24376.00
665.9480, 24450.00
667.1080, 24538.30
668.2680, 24701.00
669.4280, 24866.00
670.5880, 24936.00
671.7480, 25230.00
672.9070, 25537.00
674.0670, 25631.00
675.2260, 25808.00
676.3850, 25844.00
677.5440, 26331.00
678.7030, 26346.00
679.8610, 26684.00
681.0200, 26869.00
682.1780, 26935.00
683.3360, 27250.00
684.4940, 27282.00
685.6520, 27489.00
686.8090, 27560.00
687.9670, 27423.00
689.1240, 27339.00
690.2810, 27156.00
691.4380, 26937.00
692.5950, 26976.00
693.7520, 26575.00
694.9080, 26243.00
696.0650, 26337.00
697.2210, 26019.00
698.3770, 25741.00
699.5330, 25585.00
700.6880, 25425.00
701.8440, 25424.00
702.9990, 25160.00
704.1550, 25163.00
705.3100, 24906.00
706.4650, 25157.00
707.6190, 24656.00
708.7740, 24755.00
709.9290, 24757.00
711.0830, 24577.00
712.2370, 24619.00
713.3910, 24563.00
714.5450, 24526.39
715.6980, 24299.00
716.8520, 24531.00
718.0050, 24405.00
719.1580, 24445.00
720.3110, 25100.00
721.4640, 24693.00
722.6170, 24814.00
723.7700, 24570.00
724.9220, 24317.00
726.0740, 24142.00
727.2260, 24226.00
728.3780, 24257.00
729.5300, 24250.00
730.6810, 24075.00
731.8330, 24239.00
732.9840, 24020.00
734.1350, 24208.00
735.2860, 24260.00
736.4370, 23951.00
737.5880, 24193.00
738.7380, 24113.00
739.8880, 24366.00
741.0390, 24209.00
742.1890, 24545.10
743.3380, 24380.68
744.4880, 25010.00
745.6380, 24322.00
746.7870, 24156.00
747.9360, 24509.00
749.0850, 24189.00
750.2340, 24510.00
751.3830, 24979.00
752.5310, 25078.00
753.6800, 25168.75
754.8280, 25124.50
755.9760, 25084.00
757.1240, 24748.00
758.2720, 24691.00
759.4190, 24516.00
760.5670, 24574.00
761.7140, 24716.00
762.8610, 24984.00
764.0080, 24856.00
765.1550, 24935.00
766.3020, 24736.00
767.4480, 24934.00
768.5950, 25010.00
769.7410, 24830.00
770.8870, 24932.00
772.0330, 24787.00
773.1780, 24826.00
774.3240, 24910.00
775.4690, 24951.00
776.6140, 24818.00
777.7590, 24948.00
778.9040, 24771.00
780.0490, 24886.00
781.1940, 24823.00
782.3380, 24824.00
783.4820, 24726.00
784.6260, 24609.00
785.7700, 24733.00
786.9140, 24795.00
788.0580, 24648.00
789.2010, 24735.00
790.3450, 24663.00
791.4880, 24765.00
792.6310, 24847.00
793.7730, 24716.00
794.9160, 24757.00
796.0590, 24717.00
797.2010, 24712.00
798.3430, 24741.36
799.4850, 24777.00
800.6270, 24786.00
801.7690, 24813.18
802.9100, 24867.00
804.0520, 24843.05
805.1930, 24834.00
806.3340, 24832.00
807.4750, 24790.00
808.6160, 24904.00
809.7560, 24849.00
810.8970, 24889.00
812.0370, 25064.00
813.1770, 24893.00
814.3170, 25135.00
815.4570, 25163.00
816.5960, 24997.00
817.7360, 25151.00
818.8750, 25209.00
820.0140, 24991.00
821.1530, 25248.00
822.2920, 25216.00
823.4310, 25305.00
824.5690, 25435.00
825.7070, 25423.50
826.8460, 25415.00
827.9840, 25458.00
829.1220, 25500.00
830.2590, 25458.00
831.3970, 26010.00
832.5340, 25875.00
833.6710, 26089.00
834.8080, 26090.00
835.9450, 26087.00
837.0820, 26261.00
838.2190, 26372.00
839.3550, 26521.00
840.4910, 26571.00
841.6270, 26908.00
842.7630, 27010.00
843.8990, 27248.00
845.0350, 27683.00
846.1700, 27639.00
847.3060, 28032.00
848.4410, 28266.00
849.5760, 28862.00
850.7100, 29262.00
851.8450, 29628.00
852.9800, 29890.00
854.1140, 30505.00
855.2480, 31220.00
856.3820, 31972.00
857.5160, 32603.00
858.6500, 33692.00
859.7830, 34993.00
860.9170, 35903.00
862.0500, 37594.00
863.1830, 39245.00
864.3160, 41221.00
865.4480, 43447.00
866.5810, 46254.00
867.7130, 49257.00
868.8460, 52176.00
869.9780, 55482.00
871.1100, 58688.00
872.2410, 61517.00
873.3730, 63256.00
874.5050, 64244.00
875.6360, 64320.00
876.7670, 63323.00
877.8980, 60318.00
879.0290, 57219.00
880.1590, 53949.00
881.2900, 50405.00
882.4200, 46975.00
883.5500, 44405.00
884.6800, 41723.00
885.8100, 39565.00
886.9400, 37701.00
888.0690, 36029.00
889.1990, 34571.00
890.3280, 33480.00
891.4570, 32187.00
892.5860, 31870.00
893.7140, 30917.00
894.8430, 30148.00
895.9710, 29880.00
897.1000, 29329.00
898.2280, 28733.00
899.3560, 28453.00
900.4830, 28105.00
901.6110, 27742.00
902.7380, 27688.00
903.8660, 27389.00
904.9930, 27136.00
906.1200, 26999.00
907.2460, 26858.00
908.3730, 26883.00
909.5000, 26639.00
910.6260, 26576.00
911.7520, 26617.00
912.8780, 26398.00
914.0040, 26657.00
915.1290, 26434.00
916.2550, 26467.00
917.3800, 26223.00
918.5050, 26201.00
919.6300, 26099.00
920.7550, 26021.03
921.8800, 25978.46
923.0040, 26074.75
924.1290, 26123.98
925.2530, 26128.68
926.3770, 25955.49
927.5010, 26012.02
928.6250, 25976.49
929.7480, 25937.19
930.8720, 26026.05
931.9950, 25878.74
933.1180, 25965.58
934.2410, 25958.95
935.3640, 25995.10
936.4860, 25938.63
937.6090, 25910.76
938.7310, 25975.55
939.8530, 25735.00
940.9750, 25678.00
942.0970, 25836.00
943.2180, 25842.00
944.3400, 25875.00
945.4610, 26072.00
946.5820, 25863.00
947.7030, 25953.00
948.8240, 25909.00
949.9450, 25978.00
951.0650, 25721.00
952.1860, 25884.00
953.3060, 25851.00
954.4260, 25968.00
955.5460, 25828.00
956.6650, 25865.00
957.7850, 25883.00
958.9040, 25862.32
960.0230, 25857.97
961.1420, 25908.00
962.2610, 25851.00
963.3800, 25862.00
964.4990, 25966.00
965.6170, 25725.00
966.7350, 26095.00
967.8530, 25899.00
968.9710, 26093.00
970.0890, 25828.00
971.2070, 26022.00
972.3240, 25773.00
973.4410, 25976.00
974.5580, 26082.00
975.6750, 25954.00
976.7920, 25806.00
977.9090, 25893.00
979.0250, 26285.00
980.1410, 26029.00
981.2580, 26115.00
982.3740, 26246.00
983.4890, 26106.00
984.6050, 26376.00
985.7200, 26094.00
986.8360, 26050.00
987.9510, 26044.00
989.0660, 26048.00
990.1810, 26231.00
991.2950, 26337.00
992.4100, 26054.00
993.5240, 26351.00
994.6390, 26151.00
995.7530, 26297.00
996.8660, 26341.00
997.9800, 26314.00
999.0940, 26455.00
1000.207, 26585.00
1001.320, 26534.97
1002.433, 26502.00
1003.546, 26535.00
1004.659, 26330.00
1005.772, 26410.00
1006.884, 26217.00
1007.996, 26117.00
1009.108, 26255.00
1010.220, 26306.00
1011.332, 26411.00
1012.444, 26392.00
1013.555, 26446.00
1014.666, 26352.00
1015.777, 26366.96
1016.888, 26393.00
1017.999, 26354.00
1019.110, 26367.00
1020.220, 26423.00
1021.331, 26358.00
1022.441, 26408.00
1023.551, 26596.00
1024.661, 26400.00
1025.770, 26417.00
1026.880, 26599.00
1027.989, 26599.00
1029.098, 26492.00
1030.207, 26585.00
1031.316, 26698.00
1032.425, 26504.00
1033.533, 26704.00
1034.642, 26474.00
1035.750, 26633.00
1036.858, 26665.00
1037.966, 26538.00
1039.073, 26624.00
1040.181, 26807.00
1041.288, 26649.00
1042.396, 26703.00
1043.503, 26663.00
1044.610, 26780.00
1045.716, 26846.00
1046.823, 26747.00
1047.929, 26867.00
1049.036, 26933.00
1050.142, 26929.00
1051.248, 27029.00
1052.353, 26854.00
1053.459, 26872.00
1054.564, 26786.00
1055.670, 27040.00
1056.775, 26878.00
1057.880, 26993.00
1058.985, 26924.00
1060.089, 26721.00
1061.194, 26862.00
1062.298, 27017.00
1063.402, 26968.00
1064.506, 26935.00
1065.610, 27100.00
1066.713, 26804.00
1067.817, 27184.00
1068.920, 26841.00
1070.023, 27152.00
1071.126, 27050.00
1072.229, 27062.00
1073.332, 27137.00
1074.435, 27050.00
1075.537, 27031.00
1076.639, 27075.00
1077.741, 26945.00
1078.843, 26972.94
1079.945, 26900.00
1081.046, 27026.00
1082.148, 26902.00
1083.249, 27108.00
1084.350, 26882.00
1085.451, 27025.00
1086.551, 26866.00
1087.652, 26990.00
1088.752, 26866.00
1089.853, 27188.00
1090.953, 26850.00
1092.053, 26899.00
1093.152, 27091.00
1094.252, 27031.00
1095.351, 27040.00
1096.451, 27056.00
1097.550, 27020.00
1098.649, 27035.99
1099.748, 26923.00
1100.846, 27073.00
1101.945, 26993.00
1103.043, 27088.00
1104.141, 27012.00
1105.239, 27016.00
1106.337, 26841.00
1107.434, 26815.00
1108.532, 26813.78
1109.629, 26892.00
1110.726, 26873.00
1111.823, 26927.00
1112.920, 27017.00
1114.017, 27130.37
1115.113, 27513.00
1116.210, 27477.00
1117.306, 27665.00
1118.402, 27904.00
1119.498, 27934.00
1120.593, 28014.00
1121.689, 28197.00
1122.784, 28066.00
1123.879, 28184.00
1124.974, 28065.00
1126.069, 27921.00
1127.164, 27858.00
1128.259, 27587.00
1129.353, 27499.00
1130.447, 27271.00
1131.541, 26937.00
1132.635, 26929.00
1133.729, 26845.00
1134.822, 26790.76
1135.916, 26910.00
1137.009, 26811.00
1138.102, 26964.00
1139.195, 26941.00
1140.288, 26826.00
1141.380, 27037.00
1142.473, 26755.00
1143.565, 26729.00
1144.657, 26831.00
1145.749, 26900.00
1146.841, 26808.00
1147.932, 26970.00
1149.024, 26873.00
1150.115, 26908.00
1151.206, 26896.00
1152.297, 26797.00
1153.388, 26836.00
1154.479, 26847.00
1155.569, 26808.00
1156.659, 26870.00
1157.750, 26779.00
1158.839, 26883.00
1159.929, 26839.00
1161.019, 27033.00
1162.108, 26978.18
1163.198, 26790.00
1164.287, 26979.00
1165.376, 26892.00
1166.465, 26963.00
1167.553, 26914.00
1168.642, 26864.30
1169.730, 26854.00
1170.818, 26873.00
1171.906, 26617.00
1172.994, 26866.00
1174.082, 26811.00
1175.170, 26716.00
1176.257, 26878.00
1177.344, 26852.00
1178.431, 26742.00
1179.518, 26963.00
1180.605, 26906.00
1181.691, 26959.00
1182.778, 27085.00
1183.864, 27060.00
1184.950, 26869.00
1186.036, 26875.00
1187.122, 26825.00
1188.207, 26894.00
1189.292, 26819.00
1190.378, 26951.00
1191.463, 26910.00
1192.548, 26762.00
1193.632, 27055.00
1194.717, 27150.00
1195.801, 27130.14
1196.886, 27092.00
1197.970, 27060.00
1199.054, 27222.00
1200.137, 26988.00
1201.221, 26869.00
1202.305, 26894.00
1203.388, 27112.00
1204.471, 27132.00
1205.554, 27120.00
1206.637, 27144.00
1207.719, 27217.00
1208.802, 27199.72
1209.884, 27227.83
1210.966, 27219.00
1212.048, 27201.00
1213.130, 27217.00
1214.212, 27124.00
1215.293, 26998.00
1216.374, 27103.00
1217.456, 27138.00
1218.536, 26955.00
1219.617, 27154.00
1220.698, 27192.00
1221.778, 27089.00
1222.859, 27237.00
1223.939, 27094.00
1225.019, 27278.00
1226.099, 27014.00
1227.178, 27393.00
1228.258, 27137.00
1229.337, 27039.00
1230.417, 27158.00
1231.496, 27202.00
1232.574, 27120.00
1233.653, 27201.00
1234.732, 27160.00
1235.810, 27254.00
1236.888, 27372.00
1237.966, 27051.00
1239.044, 27159.00
1240.122, 27045.00
1241.199, 27272.00
1242.277, 27099.00
1243.354, 27482.00
1244.431, 26981.00
1245.508, 27102.00
1246.585, 27437.00
1247.661, 27330.00
1248.738, 27330.00
1249.814, 27313.00
1250.890, 27258.00
1251.966, 27218.00
1253.042, 27156.00
1254.117, 27287.00
1255.193, 27347.00
1256.268, 27280.00
1257.343, 27316.00
1258.418, 27233.00
1259.493, 27339.00
1260.567, 27254.13
1261.642, 27249.00
1262.716, 27170.00
1263.790, 27227.00
1264.864, 27249.00
1265.938, 27316.00
1267.011, 27243.00
1268.085, 27180.00
1269.158, 27286.00
1270.231, 27153.00
1271.304, 27343.00
1272.377, 26992.00
1273.450, 27125.00
1274.522, 27674.00
1275.594, 27179.00
1276.666, 27391.00
1277.738, 27502.00
1278.810, 27474.00
1279.882, 27292.00
1280.953, 27562.00
1282.025, 27461.00
1283.096, 27326.00
1284.167, 27350.00
1285.238, 27314.00
1286.308, 27372.00
1287.379, 27262.00
1288.449, 27531.00
1289.519, 27921.00
1290.589, 27608.00
1291.659, 27577.00
1292.729, 27274.00
1293.798, 27245.00
1294.868, 27298.94
1295.937, 27286.00
1297.006, 27633.00
1298.075, 27792.00
1299.143, 28208.00
1300.212, 27469.00
1301.280, 27340.00
1302.348, 27626.00
1303.416, 27547.00
1304.484, 27646.00
1305.552, 27326.00
1306.620, 27582.00
1307.687, 27429.00
1308.754, 27441.00
1309.821, 27448.00
1310.888, 27484.00
1311.955, 27439.00
1313.021, 27492.00
1314.088, 27513.92
1315.154, 27443.00
1316.220, 27644.00
1317.286, 27569.00
1318.352, 27733.00
1319.417, 27666.00
1320.483, 27457.00
1321.548, 27512.00
1322.613, 27785.00
1323.678, 27638.00
1324.743, 27673.00
1325.807, 27638.00
1326.872, 27571.00
1327.936, 27597.52
1329.000, 27578.00
1330.064, 27575.00
1331.128, 27548.00
1332.191, 27490.00
1333.255, 27528.30
1334.318, 27678.00
1335.381, 27588.00
1336.444, 27667.00
1337.507, 27713.00
1338.569, 27678.63
1339.632, 27819.00
1340.694, 27772.00
1341.756, 27741.00
1342.818, 28005.00
1343.880, 27635.00
1344.941, 27710.00
1346.003, 27646.00
1347.064, 27808.00
1348.125, 27702.00
1349.186, 27608.00
1350.247, 27741.00
1351.308, 27724.00
1352.368, 27721.00
1353.428, 28037.00
1354.489, 27828.00
1355.549, 28014.00
1356.608, 27751.00
1357.668, 27897.00
1358.727, 27913.00
1359.787, 27694.00
1360.846, 27995.00
1361.905, 27778.00
1362.964, 27718.00
1364.022, 27816.00
1365.081, 27844.00
1366.139, 27960.00
1367.197, 27744.00
1368.255, 28011.00
1369.313, 27866.00
1370.371, 27796.00
1371.428, 27898.00
1372.486, 27894.00
1373.543, 28008.00
1374.600, 27843.00
1375.657, 27934.00
1376.713, 28013.00
1377.770, 27765.00
1378.826, 28043.00
1379.882, 27955.00
1380.938, 28121.00
1381.994, 28260.00
1383.050, 27903.00
1384.106, 27991.00
1385.161, 27922.00
1386.216, 28072.00
1387.271, 27958.00
1388.326, 27816.00
1389.381, 28028.00
1390.435, 28016.00
1391.490, 27970.00
1392.544, 28141.00
1393.598, 27911.00
1394.652, 28140.00
1395.705, 28047.00
1396.759, 28005.00
1397.812, 28197.00
1398.866, 27952.00
1399.919, 28165.00
1400.972, 27959.00
1402.024, 27860.00
1403.077, 28143.00
1404.129, 27922.00
1405.181, 27983.00
1406.233, 28140.00
1407.285, 28015.00
1408.337, 28061.00
1409.389, 28064.00
1410.440, 28156.00
1411.491, 27976.00
1412.542, 28041.00
1413.593, 28249.00
1414.644, 28056.00
1415.695, 28193.00
1416.745, 27938.00
1417.795, 28283.00
1418.845, 28098.00
1419.895, 27929.00
1420.945, 28011.00
1421.995, 27911.00
1423.044, 28182.00
1424.093, 28284.00
1425.142, 28192.00
1426.191, 27969.00
1427.240, 28106.00
1428.289, 28287.00
1429.337, 28096.00
1430.385, 28136.00
1431.433, 27968.00
1432.481, 28126.00
1433.529, 27937.00
1434.577, 27984.00
1435.624, 28204.00
1436.672, 28060.00
1437.719, 28114.00
1438.766, 28276.00
1439.812, 28230.00
1440.859, 28095.00
1441.905, 28142.00
1442.952, 28050.00
1443.998, 28044.00
1445.044, 28032.00
1446.090, 28020.31
1447.135, 28220.00
1448.181, 28102.00
1449.226, 28133.00
1450.271, 28290.00
1451.316, 28124.00
1452.361, 28316.00
1453.405, 28125.00
1454.450, 28141.00
1455.494, 27978.00
1456.538, 28069.00
1457.582, 28076.00
1458.626, 28110.00
1459.670, 28136.00
1460.713, 28038.00
1461.757, 28141.00
1462.800, 28247.00
1463.843, 28469.00
1464.886, 28168.00
1465.928, 28305.00
1466.971, 28068.00
1468.013, 27932.00
1469.055, 28076.00
1470.097, 28254.00
1471.139, 28361.00
1472.181, 28330.00
1473.222, 28478.02
1474.263, 28232.00
1475.305, 28557.00
1476.346, 28500.00
1477.386, 28361.00
1478.427, 28496.00
1479.468, 28265.00
1480.508, 28256.00
1481.548, 28301.00
1482.588, 28396.00
1483.628, 28238.00
1484.668, 28120.00
1485.707, 28202.00
1486.747, 28547.00
1487.786, 28302.00
1488.825, 28339.00
1489.864, 28520.00
1490.902, 28393.00
1491.941, 28527.00
1492.979, 28391.00
1494.017, 29082.00
1495.055, 28724.66
1496.093, 28702.42
1497.131, 28532.00
1498.168, 28253.00
1499.206, 28460.00
1500.243, 28272.00
1501.280, 28494.00
1502.317, 28566.00
1503.354, 28579.00
1504.390, 28458.00
1505.426, 28418.00
1506.463, 28466.00
1507.499, 28480.00
1508.535, 28474.10
1509.570, 28641.00
1510.606, 28515.00
1511.641, 28546.00
1512.676, 28639.00
1513.711, 28485.00
1514.746, 28711.00
1515.781, 28704.00
1516.816, 28338.00
1517.850, 28800.00
1518.884, 28604.00
1519.918, 28751.00
1520.952, 28720.00
1521.986, 28688.00
1523.019, 28799.00
1524.053, 28773.30
1525.086, 28854.00
1526.119, 28778.00
1527.152, 28879.00
1528.185, 28779.00
1529.217, 28708.00
1530.250, 28845.00
1531.282, 28871.00
1532.314, 28903.00
1533.346, 28760.00
1534.377, 28845.00
1535.409, 28700.00
1536.440, 28769.95
1537.472, 28806.53
1538.503, 28826.00
1539.534, 28961.00
1540.564, 28863.00
1541.595, 28990.00
1542.625, 28980.00
1543.656, 29080.00
1544.686, 28955.00
1545.716, 28983.00
1546.745, 28827.00
1547.775, 29060.00
1548.804, 29140.00
1549.834, 29029.00
1550.863, 29117.00
1551.892, 29516.00
1552.920, 29520.00
1553.949, 29588.44
1554.977, 29578.68
1556.006, 29536.00
1557.034, 29324.00
1558.062, 29237.00
1559.089, 29078.00
1560.117, 29187.00
1561.144, 28884.00
1562.172, 28905.00
1563.199, 29097.00
1564.226, 29156.00
1565.252, 29161.58
1566.279, 29073.00
1567.305, 29186.00
1568.332, 29090.00
1569.358, 29191.00
1570.384, 29215.00
1571.409, 29229.00
##END=



