##NAMES=Ferberite
##RRUFFID=R050632
##IDEAL CHEMISTRY=Fe^2+^W^6+^O_4_
##LOCALITY=Chance mine, Boulder, Colorado, USA
##OWNER=RRUFF
##SOURCE=University of Arizona Mineral Museum
##DESCRIPTION=Dark brown rectangular prismatic crystals
##STATUS=The identification of this mineral has been confirmed by X-ray diffraction and chemical analysis
##URL=rruff.info/R050632
##MEASURED CHEMISTRY=Fe^2+^_1.00_WO_4_
##PIN_ID=L00968
##ORIENTATION=Laser parallel to c* (0 0 1). Fiducial mark perpendicular to laser is parallel to a [1 0 0]
156.2290, 7535.974
157.4550, 7262.022
158.6810, 7299.124
159.9080, 7234.000
161.1340, 7309.000
162.3590, 7410.000
163.5850, 7597.000
164.8110, 7820.000
166.0360, 7872.000
167.2610, 8004.305
168.4860, 8047.000
169.7110, 8144.000
170.9360, 8307.000
172.1610, 8386.000
173.3850, 8460.894
174.6100, 8480.000
175.8340, 8602.000
177.0580, 8602.000
178.2820, 8736.000
179.5050, 8573.577
180.7290, 8381.000
181.9520, 8237.000
183.1760, 8295.000
184.3990, 8171.000
185.6220, 8221.000
186.8450, 8251.000
188.0670, 8320.000
189.2900, 8239.000
190.5120, 8420.000
191.7340, 8497.000
192.9560, 8725.000
194.1780, 8817.425
195.4000, 9006.000
196.6220, 9067.000
197.8430, 9228.000
199.0640, 9396.000
200.2860, 9784.000
201.5070, 10395.00
202.7270, 10482.47
203.9480, 10327.41
205.1690, 10588.00
206.3890, 9661.000
207.6090, 8965.000
208.8290, 8768.000
210.0490, 8668.000
211.2690, 8430.000
212.4890, 8326.000
213.7080, 8226.000
214.9280, 7984.000
216.1470, 7746.000
217.3660, 7584.000
218.5850, 7434.696
219.8030, 7439.000
221.0220, 7251.000
222.2400, 7284.074
223.4590, 7276.000
224.6770, 7178.000
225.8950, 7156.700
227.1120, 7093.616
228.3300, 7094.000
229.5480, 7000.000
230.7650, 7132.000
231.9820, 7159.000
233.1990, 7017.000
234.4160, 6998.000
235.6330, 7127.000
236.8490, 6852.653
238.0660, 7088.698
239.2820, 7236.129
240.4980, 7299.736
241.7140, 7028.451
242.9300, 7189.609
244.1460, 7177.463
245.3610, 7158.184
246.5770, 7380.206
247.7920, 7157.603
249.0070, 7375.771
250.2220, 7417.992
251.4370, 7540.739
252.6510, 7489.085
253.8660, 7491.317
255.0800, 7667.952
256.2940, 7748.003
257.5080, 7676.276
258.7220, 7804.114
259.9360, 7575.393
261.1490, 7659.529
262.3630, 7878.692
263.5760, 7815.704
264.7890, 7946.704
266.0020, 7890.000
267.2150, 7976.000
268.4270, 8012.000
269.6400, 8118.421
270.8520, 8144.722
272.0640, 8207.000
273.2760, 8236.000
274.4880, 8099.000
275.7000, 8178.000
276.9120, 8213.000
278.1230, 8040.836
279.3340, 7956.731
280.5450, 7788.000
281.7560, 7616.000
282.9670, 7581.000
284.1780, 7510.000
285.3880, 7514.000
286.5980, 7473.000
287.8090, 7487.000
289.0190, 7497.000
290.2290, 7517.000
291.4380, 7544.712
292.6480, 7559.553
293.8570, 7599.000
295.0670, 7620.000
296.2760, 7624.000
297.4850, 7695.000
298.6930, 7792.000
299.9020, 7756.000
301.1110, 7677.000
302.3190, 7575.000
303.5270, 7485.000
304.7350, 7437.747
305.9430, 7392.557
307.1510, 7370.000
308.3580, 7391.000
309.5660, 7404.000
310.7730, 7427.849
311.9800, 7420.000
313.1870, 7518.007
314.3940, 7553.111
315.6010, 7638.000
316.8070, 7672.000
318.0130, 7696.000
319.2200, 7754.000
320.4260, 7831.000
321.6310, 7904.000
322.8370, 7843.000
324.0430, 7882.000
325.2480, 8009.000
326.4540, 8139.000
327.6590, 8106.013
328.8640, 8130.000
330.0680, 8029.000
331.2730, 8087.000
332.4780, 7988.000
333.6820, 7967.000
334.8860, 7864.000
336.0900, 7914.000
337.2940, 7744.000
338.4980, 7886.000
339.7010, 7809.000
340.9050, 7818.000
342.1080, 7796.000
343.3110, 7875.000
344.5140, 7717.467
345.7170, 7905.011
346.9200, 8003.969
348.1220, 8019.114
349.3240, 7699.367
350.5270, 7812.052
351.7290, 7751.445
352.9310, 7683.731
354.1320, 7857.305
355.3340, 7586.268
356.5350, 7787.000
357.7370, 7784.000
358.9380, 7677.000
360.1390, 7663.000
361.3400, 7614.000
362.5400, 7690.000
363.7410, 7660.000
364.9410, 7570.000
366.1410, 7627.000
367.3410, 7484.000
368.5410, 7652.000
369.7410, 7621.000
370.9400, 7564.000
372.1400, 7639.000
373.3390, 7631.000
374.5380, 7594.000
375.7370, 7616.000
376.9360, 7664.000
378.1350, 7662.000
379.3330, 7752.000
380.5310, 7559.000
381.7300, 7670.000
382.9280, 7576.000
384.1260, 7684.000
385.3230, 7805.000
386.5210, 7892.000
387.7180, 8005.000
388.9160, 8116.047
390.1130, 8207.000
391.3100, 8367.000
392.5060, 8461.000
393.7030, 8641.000
394.9000, 8779.000
396.0960, 8902.000
397.2920, 9118.000
398.4880, 9195.000
399.6840, 9165.000
400.8800, 8878.000
402.0750, 8847.000
403.2710, 8664.000
404.4660, 8530.000
405.6610, 8268.000
406.8560, 8180.000
408.0510, 7960.000
409.2450, 7988.000
410.4400, 7835.000
411.6340, 7792.000
412.8280, 7783.000
414.0220, 7712.000
415.2160, 7646.000
416.4100, 7728.000
417.6030, 7694.000
418.7970, 7649.000
419.9900, 7725.000
421.1830, 7599.000
422.3760, 7617.000
423.5690, 7673.000
424.7610, 7538.000
425.9540, 7624.000
427.1460, 7672.000
428.3380, 7619.000
429.5300, 7584.000
430.7220, 7631.000
431.9140, 7615.000
433.1050, 7514.000
434.2970, 7528.000
435.4880, 7557.000
436.6790, 7507.000
437.8700, 7707.000
439.0610, 7579.000
440.2510, 7596.000
441.4420, 7503.000
442.6320, 7661.000
443.8220, 7591.000
445.0120, 7651.000
446.2020, 7667.000
447.3910, 7687.000
448.5810, 7488.000
449.7700, 7618.000
450.9600, 7580.000
452.1490, 7682.000
453.3370, 7632.000
454.5260, 7618.000
455.7150, 7574.000
456.9030, 7597.000
458.0910, 7669.000
459.2800, 7713.000
460.4670, 7602.000
461.6550, 7670.000
462.8430, 7640.000
464.0300, 7659.000
465.2180, 7699.000
466.4050, 7677.000
467.5920, 7691.000
468.7790, 7711.000
469.9650, 7694.000
471.1520, 7597.000
472.3380, 7690.000
473.5250, 7638.000
474.7110, 7811.000
475.8970, 7728.000
477.0820, 7816.000
478.2680, 7838.000
479.4540, 7680.000
480.6390, 7815.000
481.8240, 7734.112
483.0090, 8024.000
484.1940, 7718.000
485.3780, 7806.000
486.5630, 7870.000
487.7470, 7730.000
488.9320, 7781.000
490.1160, 7889.000
491.3000, 7848.000
492.4830, 7881.000
493.6670, 7831.000
494.8500, 7906.000
496.0340, 7981.000
497.2170, 8009.000
498.4000, 8064.000
499.5820, 7960.000
500.7650, 8021.000
501.9480, 7961.000
503.1300, 8087.000
504.3120, 8013.000
505.4940, 8118.000
506.6760, 8095.000
507.8580, 8147.000
509.0390, 8165.000
510.2210, 8166.000
511.4020, 8169.000
512.5830, 8094.000
513.7640, 8098.806
514.9450, 8221.000
516.1250, 8085.000
517.3060, 8160.000
518.4860, 8231.000
519.6660, 8214.000
520.8460, 8281.000
522.0260, 8377.000
523.2060, 8195.000
524.3850, 8371.000
525.5650, 8319.376
526.7440, 8358.155
527.9230, 8334.000
529.1020, 8439.000
530.2810, 8466.000
531.4590, 8435.000
532.6380, 8425.000
533.8160, 8495.000
534.9940, 8444.000
536.1720, 8524.000
537.3500, 8413.000
538.5270, 8428.000
539.7050, 8437.000
540.8820, 8412.000
542.0590, 8420.000
543.2360, 8333.000
544.4130, 8385.000
545.5900, 8424.000
546.7660, 8396.000
547.9430, 8323.000
549.1190, 8445.000
550.2950, 8287.000
551.4710, 8360.000
552.6470, 8383.000
553.8220, 8292.000
554.9980, 8343.000
556.1730, 8283.000
557.3480, 8263.903
558.5230, 8351.000
559.6980, 8260.000
560.8730, 8195.000
562.0470, 8274.000
563.2220, 8277.000
564.3960, 8306.000
565.5700, 8310.000
566.7440, 8386.000
567.9170, 8285.000
569.0910, 8305.000
570.2640, 8364.000
571.4380, 8256.000
572.6110, 8195.000
573.7840, 8219.000
574.9570, 8115.000
576.1290, 8155.000
577.3020, 8195.000
578.4740, 8246.000
579.6460, 8147.000
580.8180, 8036.000
581.9900, 8175.000
583.1620, 8249.000
584.3330, 8106.000
585.5040, 8055.000
586.6760, 8207.000
587.8470, 8133.000
589.0180, 8232.000
590.1880, 8160.000
591.3590, 8031.000
592.5290, 8106.000
593.7000, 8100.000
594.8700, 8109.964
596.0400, 8095.000
597.2090, 8180.000
598.3790, 8247.000
599.5490, 8264.000
600.7180, 8172.000
601.8870, 8203.000
603.0560, 8223.000
604.2250, 8198.022
605.3940, 8227.920
606.5620, 8218.000
607.7300, 8224.000
608.8990, 8256.000
610.0670, 8201.000
611.2350, 8209.000
612.4020, 8254.000
613.5700, 8274.000
614.7370, 8402.000
615.9050, 8251.000
617.0720, 8386.000
618.2390, 8411.000
619.4060, 8311.000
620.5720, 8370.000
621.7390, 8416.000
622.9050, 8421.000
624.0710, 8406.000
625.2370, 8444.731
626.4030, 8405.000
627.5690, 8502.000
628.7340, 8378.000
629.9000, 8423.000
631.0650, 8511.000
632.2300, 8447.000
633.3950, 8468.000
634.5600, 8473.000
635.7240, 8430.000
636.8890, 8591.000
638.0530, 8533.000
639.2170, 8601.000
640.3810, 8600.000
641.5450, 8580.000
642.7080, 8620.000
643.8720, 8703.000
645.0350, 8783.000
646.1980, 8708.000
647.3610, 8831.000
648.5240, 8835.000
649.6870, 9070.000
650.8490, 8867.000
652.0120, 9043.000
653.1740, 9035.000
654.3360, 9095.000
655.4980, 9152.000
656.6600, 9267.000
657.8210, 9245.000
658.9830, 9301.000
660.1440, 9417.000
661.3050, 9585.000
662.4660, 9707.000
663.6270, 9726.000
664.7870, 9871.000
665.9480, 9938.000
667.1080, 10025.00
668.2680, 10129.00
669.4280, 10420.00
670.5880, 10447.00
671.7480, 10733.00
672.9070, 10760.00
674.0670, 10922.00
675.2260, 11226.00
676.3850, 11568.00
677.5440, 11569.00
678.7030, 11974.00
679.8610, 12189.00
681.0200, 12467.00
682.1780, 12818.00
683.3360, 12969.00
684.4940, 13171.00
685.6520, 13074.00
686.8090, 13134.00
687.9670, 13228.00
689.1240, 13135.00
690.2810, 13110.00
691.4380, 12831.00
692.5950, 12584.00
693.7520, 12482.00
694.9080, 12317.00
696.0650, 12003.00
697.2210, 11781.00
698.3770, 11462.00
699.5330, 11303.00
700.6880, 11078.45
701.8440, 10800.00
702.9990, 10741.00
704.1550, 10650.00
705.3100, 10562.00
706.4650, 10360.00
707.6190, 10183.00
708.7740, 10222.00
709.9290, 9970.000
711.0830, 9972.000
712.2370, 9904.000
713.3910, 9756.000
714.5450, 9801.000
715.6980, 9658.000
716.8520, 9690.000
718.0050, 9579.000
719.1580, 9630.000
720.3110, 9423.000
721.4640, 9491.000
722.6170, 9149.901
723.7700, 9344.580
724.9220, 9450.680
726.0740, 9472.954
727.2260, 9160.337
728.3780, 9280.163
729.5300, 9226.685
730.6810, 9166.107
731.8330, 9346.797
732.9840, 9234.000
734.1350, 9159.000
735.2860, 9150.000
736.4370, 9089.000
737.5880, 9172.000
738.7380, 9091.000
739.8880, 9170.000
741.0390, 9128.000
742.1890, 9027.000
743.3380, 8969.000
744.4880, 8982.000
745.6380, 8989.146
746.7870, 9190.000
747.9360, 9087.000
749.0850, 9183.000
750.2340, 9205.000
751.3830, 9097.000
752.5310, 9087.000
753.6800, 9207.000
754.8280, 9224.000
755.9760, 9332.000
757.1240, 9346.000
758.2720, 9311.000
759.4190, 9250.000
760.5670, 9313.000
761.7140, 9318.000
762.8610, 9345.000
764.0080, 9338.000
765.1550, 9386.496
766.3020, 9404.243
767.4480, 9425.000
768.5950, 9485.000
769.7410, 9391.000
770.8870, 9465.000
772.0330, 9551.000
773.1780, 9400.000
774.3240, 9447.000
775.4690, 9374.000
776.6140, 9361.000
777.7590, 9377.000
778.9040, 9339.000
780.0490, 9453.000
781.1940, 9349.000
782.3380, 9475.000
783.4820, 9384.000
784.6260, 9379.000
785.7700, 9338.000
786.9140, 9409.000
788.0580, 9271.000
789.2010, 9250.000
790.3450, 9361.000
791.4880, 9369.000
792.6310, 9343.000
793.7730, 9384.000
794.9160, 9367.000
796.0590, 9421.000
797.2010, 9289.000
798.3430, 9265.000
799.4850, 9330.000
800.6270, 9327.000
801.7690, 9396.000
802.9100, 9428.000
804.0520, 9388.000
805.1930, 9440.183
806.3340, 9418.536
807.4750, 9480.000
808.6160, 9405.000
809.7560, 9435.000
810.8970, 9442.000
812.0370, 9425.000
813.1770, 9495.000
814.3170, 9439.000
815.4570, 9500.000
816.5960, 9462.000
817.7360, 9525.000
818.8750, 9506.000
820.0140, 9614.000
821.1530, 9577.000
822.2920, 9648.000
823.4310, 9597.000
824.5690, 9694.000
825.7070, 9655.000
826.8460, 9780.000
827.9840, 9697.000
829.1220, 9829.000
830.2590, 10005.00
831.3970, 10063.00
832.5340, 10076.00
833.6710, 10175.00
834.8080, 10234.84
835.9450, 10324.00
837.0820, 10398.00
838.2190, 10466.00
839.3550, 10542.00
840.4910, 10670.00
841.6270, 10767.00
842.7630, 10965.00
843.8990, 11290.00
845.0350, 12025.00
846.1700, 11874.32
847.3060, 12142.00
848.4410, 11929.00
849.5760, 12131.00
850.7100, 12366.00
851.8450, 12714.00
852.9800, 13057.00
854.1140, 13383.00
855.2480, 13754.00
856.3820, 14369.00
857.5160, 14943.00
858.6500, 15480.00
859.7830, 16215.00
860.9170, 16879.00
862.0500, 17867.00
863.1830, 18765.00
864.3160, 19845.00
865.4480, 21299.00
866.5810, 22754.00
867.7130, 24045.00
868.8460, 25612.00
869.9780, 26947.00
871.1100, 28244.00
872.2410, 29570.00
873.3730, 30081.00
874.5050, 30395.00
875.6360, 29947.00
876.7670, 29088.00
877.8980, 27884.00
879.0290, 26141.00
880.1590, 24381.00
881.2900, 22806.00
882.4200, 21300.00
883.5500, 19675.00
884.6800, 18469.00
885.8100, 17330.00
886.9400, 16341.00
888.0690, 15485.67
889.1990, 14777.00
890.3280, 14149.00
891.4570, 13593.00
892.5860, 13083.28
893.7140, 12639.94
894.8430, 12247.00
895.9710, 11921.00
897.1000, 11611.42
898.2280, 11380.51
899.3560, 11178.00
900.4830, 11022.00
901.6110, 10806.00
902.7380, 10543.00
903.8660, 10649.00
904.9930, 10503.00
906.1200, 10187.00
907.2460, 10296.00
908.3730, 10109.00
909.5000, 10158.00
910.6260, 10115.00
911.7520, 9969.000
912.8780, 9883.000
914.0040, 9961.000
915.1290, 9720.000
916.2550, 9924.000
917.3800, 9759.000
918.5050, 9726.000
919.6300, 9618.000
920.7550, 9483.009
921.8800, 9687.691
923.0040, 9803.786
924.1290, 9836.058
925.2530, 9533.436
926.3770, 9663.257
927.5010, 9619.774
928.6250, 9569.186
929.7480, 9759.869
930.8720, 9505.956
931.9950, 9692.813
933.1180, 9703.723
934.2410, 9795.159
935.3640, 9712.222
936.4860, 9683.141
937.6090, 9828.491
938.7310, 9577.000
939.8530, 9585.000
940.9750, 9718.000
942.0970, 9611.000
943.2180, 9494.000
944.3400, 9701.000
945.4610, 9596.000
946.5820, 9563.000
947.7030, 9562.000
948.8240, 9634.000
949.9450, 9540.000
951.0650, 9562.000
952.1860, 9397.000
953.3060, 9407.000
954.4260, 9474.000
955.5460, 9428.000
956.6650, 9434.000
957.7850, 9322.000
958.9040, 9446.000
960.0230, 9264.000
961.1420, 9164.000
962.2610, 9183.000
963.3800, 9303.000
964.4990, 9277.000
965.6170, 9312.000
966.7350, 9226.000
967.8530, 9299.000
968.9710, 9377.000
970.0890, 9229.000
971.2070, 9325.000
972.3240, 9165.000
973.4410, 9225.000
974.5580, 9187.000
975.6750, 9271.000
976.7920, 9280.000
977.9090, 9313.000
979.0250, 9363.000
980.1410, 9245.000
981.2580, 9284.000
982.3740, 9167.000
983.4890, 9250.000
984.6050, 9403.000
985.7200, 9287.000
986.8360, 9240.000
987.9510, 9331.000
989.0660, 9235.000
990.1810, 9449.000
991.2950, 9420.000
992.4100, 9400.000
993.5240, 9422.000
994.6390, 9439.000
995.7530, 9353.000
996.8660, 9389.000
997.9800, 9308.000
999.0940, 9397.000
1000.207, 9411.000
1001.320, 9386.000
1002.433, 9394.000
1003.546, 9727.448
1004.659, 9523.043
1005.772, 9530.050
1006.884, 9410.000
1007.996, 9250.000
1009.108, 9374.000
1010.220, 9190.000
1011.332, 9212.000
1012.444, 9330.000
1013.555, 9320.000
1014.666, 9446.000
1015.777, 9380.000
1016.888, 9297.000
1017.999, 9330.000
1019.110, 9324.000
1020.220, 9226.000
1021.331, 9304.000
1022.441, 9337.000
1023.551, 9329.000
1024.661, 9521.000
1025.770, 9316.000
1026.880, 9429.000
1027.989, 9265.000
1029.098, 9429.000
1030.207, 9395.000
1031.316, 9447.000
1032.425, 9383.000
1033.533, 9378.000
1034.642, 9436.000
1035.750, 9390.000
1036.858, 9294.000
1037.966, 9466.000
1039.073, 9452.000
1040.181, 9396.000
1041.288, 9528.000
1042.396, 9459.000
1043.503, 9488.000
1044.610, 9330.000
1045.716, 9301.000
1046.823, 9404.000
1047.929, 9473.000
1049.036, 9444.000
1050.142, 9511.000
1051.248, 9431.000
1052.353, 9471.000
1053.459, 9480.000
1054.564, 9574.000
1055.670, 9357.000
1056.775, 9479.121
1057.880, 9418.000
1058.985, 9537.000
1060.089, 9515.000
1061.194, 9496.000
1062.298, 9428.000
1063.402, 9574.000
1064.506, 9457.000
1065.610, 9573.000
1066.713, 9481.000
1067.817, 9600.000
1068.920, 9493.000
1070.023, 9506.000
1071.126, 9589.000
1072.229, 9485.000
1073.332, 9572.000
1074.435, 9488.000
1075.537, 9630.000
1076.639, 9512.000
1077.741, 9496.000
1078.843, 9519.000
1079.945, 9496.000
1081.046, 9454.000
1082.148, 9456.000
1083.249, 9446.000
1084.350, 9472.000
1085.451, 9423.000
1086.551, 9539.000
1087.652, 9495.000
1088.752, 9454.000
1089.853, 9437.000
1090.953, 9398.000
1092.053, 9511.000
1093.152, 9286.000
1094.252, 9505.000
1095.351, 9443.688
1096.451, 9522.000
1097.550, 9513.000
1098.649, 9349.000
1099.748, 9470.000
1100.846, 9416.000
1101.945, 9361.000
1103.043, 9403.000
1104.141, 9332.000
1105.239, 9372.000
1106.337, 9317.000
1107.434, 9373.000
1108.532, 9320.461
1109.629, 9516.233
1110.726, 9623.420
1111.823, 9646.781
1112.920, 9335.251
1114.017, 9456.164
1115.113, 9403.779
1116.210, 9344.282
1117.306, 9526.065
1118.402, 9263.250
1119.498, 9441.207
1120.593, 9443.223
1121.689, 9525.759
1122.784, 9433.926
1123.879, 9395.953
1124.974, 9532.410
1126.069, 9572.283
1127.164, 9460.379
1128.259, 9548.039
1129.353, 9279.145
1130.447, 9323.138
1131.541, 9502.128
1132.635, 9398.996
1133.729, 9489.852
1134.822, 9506.832
1135.916, 9188.049
1137.009, 9453.188
1138.102, 9465.802
1139.195, 9349.000
1140.288, 9260.000
1141.380, 9263.000
1142.473, 9169.000
1143.565, 9222.000
1144.657, 9141.000
1145.749, 9135.000
1146.841, 9093.000
1147.932, 9216.000
1149.024, 9223.000
1150.115, 9139.000
1151.206, 9213.000
1152.297, 9177.000
1153.388, 9089.000
1154.479, 9293.000
1155.569, 9208.000
1156.659, 9153.000
1157.750, 9256.000
1158.839, 9169.000
1159.929, 9167.000
1161.019, 9259.000
1162.108, 9129.000
1163.198, 9158.000
1164.287, 9141.000
1165.376, 9092.000
1166.465, 9131.000
1167.553, 9124.000
1168.642, 9118.000
1169.730, 9021.000
1170.818, 9162.000
1171.906, 9084.000
1172.994, 9181.000
1174.082, 9165.000
1175.170, 9095.000
1176.257, 9286.000
1177.344, 9278.000
1178.431, 9233.000
1179.518, 9120.000
1180.605, 9091.000
1181.691, 9200.000
1182.778, 9144.000
1183.864, 9171.000
1184.950, 9230.000
1186.036, 9123.000
1187.122, 9261.000
1188.207, 9249.000
1189.292, 9177.000
1190.378, 9127.000
1191.463, 9170.000
1192.548, 9256.000
1193.632, 9147.000
1194.717, 9253.000
1195.801, 9191.721
1196.886, 9177.760
1197.970, 9143.000
1199.054, 9120.000
1200.137, 9167.000
1201.221, 9103.000
1202.305, 9133.000
1203.388, 9141.000
1204.471, 9057.000
1205.554, 9207.000
1206.637, 9180.000
1207.719, 9237.000
1208.802, 9186.000
1209.884, 9260.000
1210.966, 9106.000
1212.048, 9222.000
1213.130, 9260.000
1214.212, 9146.000
1215.293, 9071.000
1216.374, 9201.000
1217.456, 9216.000
1218.536, 9132.000
1219.617, 9203.000
1220.698, 9136.000
1221.778, 9207.000
1222.859, 9190.000
1223.939, 9286.000
1225.019, 9325.000
1226.099, 9238.000
1227.178, 9247.000
1228.258, 9286.000
1229.337, 9274.000
1230.417, 9282.000
1231.496, 9234.000
1232.574, 9193.000
1233.653, 9149.000
1234.732, 9310.000
1235.810, 9137.000
1236.888, 9212.000
1237.966, 9301.000
1239.044, 9161.000
1240.122, 9333.000
1241.199, 9263.000
1242.277, 9254.000
1243.354, 9299.000
1244.431, 9190.000
1245.508, 9263.000
1246.585, 9265.000
1247.661, 9298.000
1248.738, 9265.000
1249.814, 9273.829
1250.890, 9219.000
1251.966, 9254.000
1253.042, 9231.000
1254.117, 9213.000
1255.193, 9206.000
1256.268, 9318.000
1257.343, 9104.000
1258.418, 9270.000
1259.493, 9292.000
1260.567, 9198.000
1261.642, 9255.000
1262.716, 9194.000
1263.790, 9124.000
1264.864, 9349.000
1265.938, 9196.277
1267.011, 9490.000
1268.085, 9095.000
1269.158, 9231.000
1270.231, 9224.000
1271.304, 9169.000
1272.377, 9236.000
1273.450, 9196.000
1274.522, 9231.000
1275.594, 9186.000
1276.666, 9181.000
1277.738, 9106.000
1278.810, 9225.000
1279.882, 9150.000
1280.953, 9128.000
1282.025, 9262.000
1283.096, 9241.000
1284.167, 9238.000
1285.238, 9289.000
1286.308, 9232.000
1287.379, 9232.000
1288.449, 9295.000
1289.519, 9220.000
1290.589, 9272.000
1291.659, 9225.000
1292.729, 9342.000
1293.798, 9370.000
1294.868, 9294.000
1295.937, 9285.000
1297.006, 9285.000
1298.075, 9257.000
1299.143, 9319.000
1300.212, 9293.000
1301.280, 9279.000
1302.348, 9360.000
1303.416, 9296.000
1304.484, 9276.000
1305.552, 9293.000
1306.620, 9141.000
1307.687, 9199.000
1308.754, 9440.000
1309.821, 9259.000
1310.888, 9404.000
1311.955, 9366.000
1313.021, 9231.000
1314.088, 9299.000
1315.154, 9301.000
1316.220, 9332.000
1317.286, 9337.036
1318.352, 9330.600
1319.417, 9318.000
1320.483, 9327.000
1321.548, 9303.000
1322.613, 9340.000
1323.678, 9393.000
1324.743, 9314.000
1325.807, 9368.666
1326.872, 9418.387
1327.936, 9367.700
1329.000, 9415.000
1330.064, 9366.807
1331.128, 9400.000
1332.191, 9370.000
1333.255, 9371.149
1334.318, 9392.000
1335.381, 9381.000
1336.444, 9392.681
1337.507, 9416.000
1338.569, 9388.000
1339.632, 9388.062
1340.694, 9402.923
1341.756, 9444.000
1342.818, 9356.000
1343.880, 9486.000
1344.941, 9488.000
1346.003, 9462.000
1347.064, 9230.000
1348.125, 9429.000
1349.186, 9404.000
1350.247, 9442.000
1351.308, 9508.000
1352.368, 9431.000
1353.428, 9439.000
1354.489, 9527.000
1355.549, 9517.000
1356.608, 9335.000
1357.668, 9415.000
1358.727, 9353.000
1359.787, 9478.000
1360.846, 9386.000
1361.905, 9391.163
1362.964, 9629.000
1364.022, 9368.000
1365.081, 9487.000
1366.139, 9558.000
1367.197, 9448.000
1368.255, 9318.000
1369.313, 9440.000
1370.371, 9460.000
1371.428, 9491.000
1372.486, 9484.000
1373.543, 9551.000
1374.600, 9420.000
1375.657, 9506.000
1376.713, 9418.000
1377.770, 9518.000
1378.826, 9429.000
1379.882, 9429.000
1380.938, 9526.000
1381.994, 9484.000
1383.050, 9488.000
1384.106, 9599.000
1385.161, 9432.000
1386.216, 9459.000
1387.271, 9415.000
1388.326, 9384.000
1389.381, 9356.000
1390.435, 9428.000
1391.490, 9370.000
1392.544, 9450.000
1393.598, 9599.000
1394.652, 9396.000
1395.705, 9356.000
1396.759, 9486.000
1397.812, 9488.000
1398.866, 9455.000
1399.919, 9496.000
1400.972, 9471.562
1402.024, 9489.796
1403.077, 9475.000
1404.129, 9482.000
1405.181, 9525.000
1406.233, 9439.000
1407.285, 9485.000
1408.337, 9563.000
1409.389, 9486.000
1410.440, 9365.000
1411.491, 9457.739
1412.542, 9451.274
1413.593, 9548.000
1414.644, 9497.000
1415.695, 9529.000
1416.745, 9514.146
1417.795, 9454.000
1418.845, 9482.000
1419.895, 9448.000
1420.945, 9486.000
1421.995, 9463.000
1423.044, 9431.000
1424.093, 9510.000
1425.142, 9436.000
1426.191, 9508.000
1427.240, 9442.000
1428.289, 9395.000
1429.337, 9445.000
1430.385, 9511.000
1431.433, 9455.000
1432.481, 9446.000
1433.529, 9389.000
1434.577, 9392.000
1435.624, 9493.000
1436.672, 9494.000
1437.719, 9546.000
1438.766, 9472.000
1439.812, 9425.000
1440.859, 9513.000
1441.905, 9509.000
1442.952, 9439.000
1443.998, 9469.000
1445.044, 9430.000
1446.090, 9503.000
1447.135, 9399.000
1448.181, 9589.000
1449.226, 9531.035
1450.271, 9467.000
1451.316, 9505.000
1452.361, 9476.000
1453.405, 9415.000
1454.450, 9630.000
1455.494, 9415.000
1456.538, 9519.000
1457.582, 9514.000
1458.626, 9424.219
1459.670, 9486.413
1460.713, 9409.000
1461.757, 9400.000
1462.800, 9570.000
1463.843, 9343.000
1464.886, 9455.000
1465.928, 9691.000
1466.971, 9570.000
1468.013, 9598.000
1469.055, 9405.000
1470.097, 9557.000
1471.139, 9451.000
1472.181, 9500.000
1473.222, 9532.000
1474.263, 9537.000
1475.305, 9610.000
1476.346, 9603.782
1477.386, 9609.328
1478.427, 9611.000
1479.468, 9554.000
1480.508, 9531.000
1481.548, 9425.000
1482.588, 9657.000
1483.628, 9646.000
1484.668, 9554.000
1485.707, 9551.000
1486.747, 9459.000
1487.786, 9627.000
1488.825, 9528.000
1489.864, 9531.000
1490.902, 9694.000
1491.941, 9565.000
1492.979, 9493.000
1494.017, 9449.000
1495.055, 9520.000
1496.093, 9621.000
1497.131, 9552.000
1498.168, 9580.000
1499.206, 9531.000
1500.243, 9564.000
1501.280, 9615.309
1502.317, 9622.864
1503.354, 9659.000
1504.390, 9713.000
1505.426, 9533.000
1506.463, 9588.000
1507.499, 9599.000
1508.535, 9550.000
1509.570, 9727.000
1510.606, 9639.000
1511.641, 9638.000
1512.676, 9565.000
1513.711, 9655.000
1514.746, 9626.000
1515.781, 9694.000
1516.816, 9649.000
1517.850, 9703.000
1518.884, 9793.000
1519.918, 9753.589
1520.952, 9741.909
1521.986, 9729.000
1523.019, 9664.000
1524.053, 9615.000
1525.086, 9669.000
1526.119, 9568.000
1527.152, 9696.000
1528.185, 9659.000
1529.217, 9679.000
1530.250, 9654.000
1531.282, 9599.000
1532.314, 9698.000
1533.346, 9551.000
1534.377, 9725.000
1535.409, 9541.000
1536.440, 9618.000
1537.472, 9752.000
1538.503, 9710.000
1539.534, 9732.000
1540.564, 9726.000
1541.595, 9741.715
1542.625, 9574.194
1543.656, 9779.634
1544.686, 9896.484
1545.716, 9929.509
1546.745, 9627.640
1547.775, 9758.216
1548.804, 9715.485
1549.834, 9665.652
1550.863, 9857.091
1551.892, 9603.930
1552.920, 9791.539
1553.949, 9803.202
1554.977, 9895.391
1556.006, 9813.207
1557.034, 9784.880
1558.062, 9930.981
1559.089, 9980.497
1560.117, 9878.238
1561.144, 9975.542
1562.172, 9716.287
1563.199, 9769.917
1564.226, 9958.543
1565.252, 9865.045
1566.279, 9965.537
1567.305, 9992.145
1568.332, 9682.998
1569.358, 9957.765
1570.384, 9980.007
1571.409, 9742.958
##END=



