##NAMES=Ferberite
##RRUFFID=R050090
##IDEAL CHEMISTRY=Fe^2+^W^6+^O_4_
##LOCALITY=Yaogangxian mine, Cheng Zhu City, South Hunan, China
##OWNER=RRUFF
##SOURCE=Rock Currier
##DESCRIPTION=Dark gray tabular crystal
##STATUS=The identification of this mineral has been confirmed by X-ray diffraction and chemical analysis
##URL=rruff.info/R050090
##MEASURED CHEMISTRY=(Fe^2+^_0.56_Mn_0.44_)W_1.00_O_4_
##PIN_ID=L01753
##ORIENTATION=Laser parallel to a* (1 0 0). Fiducial mark perpendicular to laser is parallel to b [0 1 0]
98.41600, 7649.000
99.64900, 7726.000
100.8830, 7816.000
102.1160, 7584.449
103.3490, 7773.871
104.5820, 7916.855
105.8150, 8015.896
107.0470, 7939.315
108.2800, 8089.494
109.5120, 8148.757
110.7440, 8204.295
111.9760, 8386.311
113.2080, 8335.264
114.4400, 8561.000
115.6710, 8858.000
116.9030, 9466.000
118.1340, 9742.000
119.3650, 9786.000
120.5960, 9869.000
121.8270, 10083.00
123.0580, 10311.00
124.2880, 10503.00
125.5190, 10346.00
126.7490, 9890.000
127.9790, 9816.000
129.2090, 9661.000
130.4390, 9513.000
131.6680, 9113.000
132.8980, 8827.000
134.1270, 8476.000
135.3560, 8101.000
136.5850, 8150.000
137.8140, 7978.000
139.0430, 8036.000
140.2710, 8082.000
141.5000, 7980.000
142.7280, 7687.000
143.9560, 7593.000
145.1840, 7616.000
146.4120, 7478.000
147.6390, 7637.000
148.8670, 7517.000
150.0940, 7394.000
151.3210, 7502.000
152.5490, 7478.230
153.7750, 7737.000
155.0020, 7565.000
156.2290, 7539.000
157.4550, 7446.000
158.6810, 7277.000
159.9080, 7320.000
161.1340, 7162.000
162.3590, 7324.000
163.5850, 7348.000
164.8110, 7579.000
166.0360, 7791.000
167.2610, 7694.000
168.4860, 7768.000
169.7110, 7775.000
170.9360, 7933.000
172.1610, 7812.000
173.3850, 7842.000
174.6100, 7845.000
175.8340, 7819.000
177.0580, 7799.000
178.2820, 7906.000
179.5050, 7897.250
180.7290, 7958.988
181.9520, 7978.000
183.1760, 8093.000
184.3990, 8134.000
185.6220, 8249.000
186.8450, 8413.000
188.0670, 8554.000
189.2900, 8601.000
190.5120, 8805.000
191.7340, 9068.000
192.9560, 9365.000
194.1780, 9705.000
195.4000, 10012.00
196.6220, 10422.00
197.8430, 10869.00
199.0640, 10966.00
200.2860, 11083.00
201.5070, 11500.00
202.7270, 11835.00
203.9480, 11918.00
205.1690, 11396.00
206.3890, 11710.00
207.6090, 10050.00
208.8290, 9681.000
210.0490, 9221.000
211.2690, 8966.000
212.4890, 8671.473
213.7080, 8432.904
214.9280, 8242.000
216.1470, 8129.000
217.3660, 7981.000
218.5850, 7964.000
219.8030, 7802.000
221.0220, 7775.000
222.2400, 7502.000
223.4590, 7539.000
224.6770, 7499.000
225.8950, 7450.000
227.1120, 7516.000
228.3300, 7539.000
229.5480, 7495.000
230.7650, 7333.000
231.9820, 7480.000
233.1990, 7318.000
234.4160, 7425.000
235.6330, 7433.000
236.8490, 7357.000
238.0660, 7415.000
239.2820, 7396.000
240.4980, 7384.000
241.7140, 7467.000
242.9300, 7462.000
244.1460, 7508.000
245.3610, 7500.000
246.5770, 7527.005
247.7920, 7497.000
249.0070, 7568.000
250.2220, 7546.000
251.4370, 7558.000
252.6510, 7639.000
253.8660, 7697.000
255.0800, 7764.000
256.2940, 7728.000
257.5080, 7840.000
258.7220, 8197.000
259.9360, 8150.710
261.1490, 8134.776
262.3630, 8243.000
263.5760, 7899.000
264.7890, 7792.000
266.0020, 7731.000
267.2150, 7686.000
268.4270, 7665.000
269.6400, 7577.000
270.8520, 7538.000
272.0640, 7537.000
273.2760, 7629.000
274.4880, 7524.000
275.7000, 7482.000
276.9120, 7654.000
278.1230, 7648.000
279.3340, 7599.000
280.5450, 7498.000
281.7560, 7544.000
282.9670, 7553.000
284.1780, 7561.974
285.3880, 7607.204
286.5980, 7646.000
287.8090, 7717.000
289.0190, 7772.000
290.2290, 7903.000
291.4380, 7890.000
292.6480, 7965.406
293.8570, 7969.000
295.0670, 8064.000
296.2760, 8231.000
297.4850, 8329.000
298.6930, 8353.000
299.9020, 8399.000
301.1110, 8519.000
302.3190, 8647.174
303.5270, 8736.000
304.7350, 9023.000
305.9430, 9219.528
307.1510, 9472.000
308.3580, 9684.000
309.5660, 10162.00
310.7730, 10324.00
311.9800, 10837.00
313.1870, 11323.00
314.3940, 11714.00
315.6010, 12157.00
316.8070, 12579.00
318.0130, 12937.00
319.2200, 13347.00
320.4260, 13624.00
321.6310, 13877.00
322.8370, 13977.00
324.0430, 13951.77
325.2480, 13995.00
326.4540, 13629.00
327.6590, 13409.00
328.8640, 13084.00
330.0680, 12696.00
331.2730, 12323.00
332.4780, 11959.59
333.6820, 11561.73
334.8860, 11178.00
336.0900, 10841.00
337.2940, 10389.00
338.4980, 10161.00
339.7010, 9798.000
340.9050, 9609.173
342.1080, 9636.000
343.3110, 9303.000
344.5140, 9228.000
345.7170, 9108.000
346.9200, 9015.000
348.1220, 8902.000
349.3240, 8802.000
350.5270, 8662.000
351.7290, 8651.000
352.9310, 8685.000
354.1320, 8456.000
355.3340, 8474.000
356.5350, 8461.000
357.7370, 8247.000
358.9380, 8250.000
360.1390, 8233.000
361.3400, 8167.059
362.5400, 8158.239
363.7410, 8140.000
364.9410, 8116.000
366.1410, 8085.000
367.3410, 8113.000
368.5410, 8027.000
369.7410, 8026.000
370.9400, 7836.000
372.1400, 7827.000
373.3390, 7830.000
374.5380, 7815.000
375.7370, 7850.000
376.9360, 7855.000
378.1350, 7820.000
379.3330, 7894.000
380.5310, 7922.000
381.7300, 7808.000
382.9280, 7879.465
384.1260, 7850.005
385.3230, 7893.000
386.5210, 7845.000
387.7180, 7837.000
388.9160, 7812.000
390.1130, 7804.509
391.3100, 7909.161
392.5060, 7967.375
393.7030, 7981.647
394.9000, 7820.364
396.0960, 7885.775
397.2920, 7860.337
398.4880, 7831.174
399.6840, 7928.490
400.8800, 7792.743
402.0750, 7888.054
403.2710, 7891.130
404.4660, 7936.420
405.6610, 7890.302
406.8560, 7872.417
408.0510, 7945.970
409.2450, 7968.894
410.4400, 7912.252
411.6340, 7960.228
412.8280, 7821.289
414.0220, 7846.369
415.2160, 7742.198
416.4100, 7776.000
417.6030, 7819.000
418.7970, 7870.000
419.9900, 7866.000
421.1830, 7774.000
422.3760, 7820.000
423.5690, 7833.000
424.7610, 7823.000
425.9540, 7882.000
427.1460, 7935.000
428.3380, 7710.000
429.5300, 7844.000
430.7220, 7858.000
431.9140, 8033.000
433.1050, 8039.000
434.2970, 7992.000
435.4880, 7969.000
436.6790, 7927.000
437.8700, 7989.000
439.0610, 8068.000
440.2510, 7975.000
441.4420, 8058.000
442.6320, 8030.000
443.8220, 8017.574
445.0120, 8064.269
446.2020, 8086.000
447.3910, 8016.000
448.5810, 8221.000
449.7700, 8002.000
450.9600, 8022.000
452.1490, 7873.000
453.3370, 8087.000
454.5260, 8024.012
455.7150, 8169.000
456.9030, 8039.000
458.0910, 8199.000
459.2800, 8139.000
460.4670, 7987.000
461.6550, 8131.000
462.8430, 8102.000
464.0300, 8073.000
465.2180, 8101.000
466.4050, 8136.000
467.5920, 8095.000
468.7790, 8130.000
469.9650, 8103.000
471.1520, 8128.000
472.3380, 8221.000
473.5250, 8170.000
474.7110, 8179.000
475.8970, 8126.000
477.0820, 8175.000
478.2680, 8104.000
479.4540, 8235.000
480.6390, 8191.000
481.8240, 8200.000
483.0090, 8158.000
484.1940, 8084.000
485.3780, 8152.000
486.5630, 8179.000
487.7470, 8138.000
488.9320, 8299.000
490.1160, 8215.000
491.3000, 8204.000
492.4830, 8199.000
493.6670, 8118.000
494.8500, 8124.000
496.0340, 8201.000
497.2170, 8378.000
498.4000, 8196.000
499.5820, 8170.000
500.7650, 8336.000
501.9480, 8164.000
503.1300, 8320.000
504.3120, 8353.000
505.4940, 8337.000
506.6760, 8250.000
507.8580, 8313.000
509.0390, 8274.000
510.2210, 8293.000
511.4020, 8231.000
512.5830, 8337.000
513.7640, 8371.000
514.9450, 8377.000
516.1250, 8422.000
517.3060, 8250.000
518.4860, 8304.000
519.6660, 8279.000
520.8460, 8303.000
522.0260, 8376.000
523.2060, 8324.000
524.3850, 8412.000
525.5650, 8342.000
526.7440, 8344.000
527.9230, 8404.000
529.1020, 8499.000
530.2810, 8482.000
531.4590, 8478.000
532.6380, 8423.000
533.8160, 8397.000
534.9940, 8430.000
536.1720, 8572.000
537.3500, 8479.000
538.5270, 8518.000
539.7050, 8527.000
540.8820, 8501.000
542.0590, 8406.000
543.2360, 8582.000
544.4130, 8484.144
545.5900, 8759.000
546.7660, 8388.000
547.9430, 8430.000
549.1190, 8271.000
550.2950, 8396.000
551.4710, 8284.000
552.6470, 8347.000
553.8220, 8325.000
554.9980, 8225.000
556.1730, 8277.000
557.3480, 8362.000
558.5230, 8263.000
559.6980, 8269.000
560.8730, 8235.000
562.0470, 8301.000
563.2220, 8214.000
564.3960, 8361.000
565.5700, 8355.000
566.7440, 8333.000
567.9170, 8318.000
569.0910, 8337.000
570.2640, 8273.000
571.4380, 8171.000
572.6110, 8215.000
573.7840, 8173.000
574.9570, 8232.000
576.1290, 8212.000
577.3020, 8242.000
578.4740, 8353.000
579.6460, 8243.000
580.8180, 8170.000
581.9900, 8355.000
583.1620, 8238.662
584.3330, 8146.000
585.5040, 8210.000
586.6760, 8216.000
587.8470, 8202.000
589.0180, 8192.000
590.1880, 8215.210
591.3590, 8233.000
592.5290, 8244.000
593.7000, 8247.000
594.8700, 8224.000
596.0400, 8145.000
597.2090, 8285.000
598.3790, 8302.000
599.5490, 8217.000
600.7180, 8394.000
601.8870, 8308.374
603.0560, 8265.000
604.2250, 8245.000
605.3940, 8293.000
606.5620, 8229.000
607.7300, 8325.000
608.8990, 8307.000
610.0670, 8329.000
611.2350, 8315.000
612.4020, 8339.000
613.5700, 8264.000
614.7370, 8275.000
615.9050, 8342.000
617.0720, 8334.000
618.2390, 8470.000
619.4060, 8344.000
620.5720, 8440.000
621.7390, 8459.000
622.9050, 8353.000
624.0710, 8311.000
625.2370, 8331.000
626.4030, 8473.000
627.5690, 8496.000
628.7340, 8455.000
629.9000, 8459.000
631.0650, 8472.000
632.2300, 8482.000
633.3950, 8419.000
634.5600, 8493.000
635.7240, 8434.000
636.8890, 8577.000
638.0530, 8447.000
639.2170, 8428.000
640.3810, 8362.000
641.5450, 8490.000
642.7080, 8621.000
643.8720, 8708.000
645.0350, 8692.168
646.1980, 8567.000
647.3610, 8620.000
648.5240, 8556.000
649.6870, 8577.000
650.8490, 8664.000
652.0120, 8707.000
653.1740, 8714.352
654.3360, 8724.000
655.4980, 8730.000
656.6600, 8798.000
657.8210, 8832.000
658.9830, 8817.000
660.1440, 9005.000
661.3050, 8907.000
662.4660, 9044.000
663.6270, 9021.000
664.7870, 8984.000
665.9480, 9044.000
667.1080, 9102.000
668.2680, 9298.000
669.4280, 9309.000
670.5880, 9453.000
671.7480, 9411.000
672.9070, 9515.000
674.0670, 9676.000
675.2260, 9783.000
676.3850, 9806.000
677.5440, 9839.000
678.7030, 9910.000
679.8610, 10041.21
681.0200, 10298.00
682.1780, 10356.00
683.3360, 10567.00
684.4940, 10713.00
685.6520, 10627.00
686.8090, 10881.00
687.9670, 10902.00
689.1240, 10913.00
690.2810, 10876.00
691.4380, 10830.00
692.5950, 10815.26
693.7520, 10774.85
694.9080, 10763.00
696.0650, 10699.00
697.2210, 10692.00
698.3770, 10627.00
699.5330, 10592.00
700.6880, 10408.00
701.8440, 10267.00
702.9990, 10133.00
704.1550, 10029.00
705.3100, 9825.000
706.4650, 9802.000
707.6190, 9647.000
708.7740, 9655.000
709.9290, 9523.000
711.0830, 9426.000
712.2370, 9510.000
713.3910, 9324.000
714.5450, 9250.000
715.6980, 9287.000
716.8520, 9183.000
718.0050, 9074.000
719.1580, 9153.000
720.3110, 9150.000
721.4640, 8939.000
722.6170, 8915.000
723.7700, 8840.000
724.9220, 8950.000
726.0740, 8867.000
727.2260, 8909.000
728.3780, 8904.000
729.5300, 8883.000
730.6810, 8853.000
731.8330, 8894.000
732.9840, 8779.000
734.1350, 8809.000
735.2860, 8833.000
736.4370, 8752.000
737.5880, 8838.000
738.7380, 8795.000
739.8880, 8680.000
741.0390, 8663.000
742.1890, 8650.464
743.3380, 8671.000
744.4880, 8719.000
745.6380, 8665.000
746.7870, 8786.000
747.9360, 8759.000
749.0850, 8735.000
750.2340, 8782.000
751.3830, 8867.000
752.5310, 8837.000
753.6800, 8819.000
754.8280, 8902.000
755.9760, 8792.000
757.1240, 8731.000
758.2720, 8819.000
759.4190, 8820.000
760.5670, 8943.000
761.7140, 8978.000
762.8610, 8995.714
764.0080, 9049.612
765.1550, 8996.000
766.3020, 9053.000
767.4480, 9004.000
768.5950, 8919.000
769.7410, 9026.000
770.8870, 8952.000
772.0330, 8930.000
773.1780, 8969.000
774.3240, 8960.000
775.4690, 9032.000
776.6140, 8978.000
777.7590, 8919.000
778.9040, 9012.000
780.0490, 9050.000
781.1940, 9040.000
782.3380, 8958.000
783.4820, 8932.000
784.6260, 8902.000
785.7700, 8911.000
786.9140, 8935.000
788.0580, 8948.693
789.2010, 9000.926
790.3450, 8989.000
791.4880, 9107.000
792.6310, 9080.000
793.7730, 9109.000
794.9160, 9085.000
796.0590, 9071.000
797.2010, 9052.256
798.3430, 9055.045
799.4850, 8986.000
800.6270, 9058.000
801.7690, 9029.000
802.9100, 9006.000
804.0520, 9219.000
805.1930, 9108.000
806.3340, 9119.000
807.4750, 9285.000
808.6160, 9120.000
809.7560, 9274.000
810.8970, 9187.000
812.0370, 9170.000
813.1770, 9224.000
814.3170, 9292.000
815.4570, 9221.000
816.5960, 9263.000
817.7360, 9223.000
818.8750, 9272.000
820.0140, 9194.159
821.1530, 9335.186
822.2920, 9429.773
823.4310, 9480.420
824.5690, 9355.479
825.7070, 9457.230
826.8460, 9468.167
827.9840, 9475.347
829.1220, 9488.382
830.2590, 9425.000
831.3970, 9567.000
832.5340, 9614.000
833.6710, 9630.000
834.8080, 9725.000
835.9450, 9688.904
837.0820, 9879.946
838.2190, 10024.55
839.3550, 10125.14
840.4910, 10050.18
841.6270, 10201.91
842.7630, 10262.79
843.8990, 10319.94
845.0350, 10503.57
846.1700, 10454.07
847.3060, 10635.70
848.4410, 10730.00
849.5760, 11009.00
850.7100, 11174.00
851.8450, 11299.00
852.9800, 11667.00
854.1140, 11967.00
855.2480, 12295.00
856.3820, 12564.00
857.5160, 12994.00
858.6500, 13415.99
859.7830, 14037.00
860.9170, 14460.00
862.0500, 14971.00
863.1830, 15670.00
864.3160, 16540.00
865.4480, 17460.00
866.5810, 18670.00
867.7130, 19698.00
868.8460, 21111.00
869.9780, 22260.00
871.1100, 24106.00
872.2410, 25771.00
873.3730, 27177.00
874.5050, 28711.00
875.6360, 29941.00
876.7670, 30800.00
877.8980, 31650.00
879.0290, 31691.00
880.1590, 31403.00
881.2900, 30552.00
882.4200, 29513.00
883.5500, 27710.00
884.6800, 26236.00
885.8100, 24441.55
886.9400, 23180.32
888.0690, 21873.91
889.1990, 20522.32
890.3280, 18996.36
891.4570, 17697.17
892.5860, 16307.07
893.7140, 14914.51
894.8430, 14141.00
895.9710, 13626.00
897.1000, 12897.00
898.2280, 12487.00
899.3560, 12037.00
900.4830, 11820.00
901.6110, 11447.00
902.7380, 11323.00
903.8660, 10968.00
904.9930, 10791.00
906.1200, 10737.00
907.2460, 10434.00
908.3730, 10521.00
909.5000, 10296.00
910.6260, 10223.00
911.7520, 10164.34
912.8780, 10131.00
914.0040, 10001.00
915.1290, 9938.000
916.2550, 9874.000
917.3800, 9752.000
918.5050, 9739.000
919.6300, 9610.037
920.7550, 9636.000
921.8800, 9546.000
923.0040, 9473.000
924.1290, 9501.104
925.2530, 9430.832
926.3770, 9523.000
927.5010, 9391.000
928.6250, 9391.000
929.7480, 9403.000
930.8720, 9360.000
931.9950, 9428.000
933.1180, 9357.000
934.2410, 9310.000
935.3640, 9342.000
936.4860, 9324.000
937.6090, 9354.000
938.7310, 9304.000
939.8530, 9210.000
940.9750, 9249.000
942.0970, 9169.000
943.2180, 9266.000
944.3400, 9281.000
945.4610, 9317.000
946.5820, 9309.000
947.7030, 9164.000
948.8240, 9212.000
949.9450, 9241.000
951.0650, 9183.000
952.1860, 9244.832
953.3060, 9207.000
954.4260, 9327.000
955.5460, 9160.000
956.6650, 9243.000
957.7850, 9153.000
958.9040, 9167.000
960.0230, 9275.000
961.1420, 9227.000
962.2610, 9180.000
963.3800, 9011.000
964.4990, 9189.000
965.6170, 9115.678
966.7350, 9138.000
967.8530, 9152.000
968.9710, 9163.000
970.0890, 9144.000
971.2070, 9039.000
972.3240, 9154.000
973.4410, 8996.000
974.5580, 8995.000
975.6750, 9055.000
976.7920, 9141.000
977.9090, 9135.000
979.0250, 9171.000
980.1410, 9135.000
981.2580, 9182.000
982.3740, 9224.000
983.4890, 9232.000
984.6050, 9045.000
985.7200, 9069.000
986.8360, 9141.000
987.9510, 8951.000
989.0660, 9017.000
990.1810, 9187.000
991.2950, 9220.000
992.4100, 9132.000
993.5240, 9095.000
994.6390, 9179.000
995.7530, 9110.000
996.8660, 9080.000
997.9800, 9151.000
999.0940, 8995.000
1000.207, 9206.000
1001.320, 9050.000
1002.433, 9239.000
1003.546, 9136.000
1004.659, 9149.000
1005.772, 9071.000
1006.884, 9199.000
1007.996, 9167.000
1009.108, 9157.000
1010.220, 9229.000
1011.332, 9217.000
1012.444, 9122.000
1013.555, 9159.000
1014.666, 9136.000
1015.777, 9123.000
1016.888, 9207.000
1017.999, 9187.000
1019.110, 9144.000
1020.220, 9139.000
1021.331, 9091.000
1022.441, 9233.000
1023.551, 9113.000
1024.661, 9189.000
1025.770, 9181.000
1026.880, 9170.000
1027.989, 9255.000
1029.098, 9195.000
1030.207, 9046.000
1031.316, 9219.000
1032.425, 9160.000
1033.533, 9242.000
1034.642, 9201.000
1035.750, 9122.000
1036.858, 9194.000
1037.966, 9218.000
1039.073, 9201.000
1040.181, 9292.000
1041.288, 9312.000
1042.396, 9202.000
1043.503, 9105.000
1044.610, 9215.000
1045.716, 9233.000
1046.823, 9231.000
1047.929, 9131.000
1049.036, 9192.000
1050.142, 9171.000
1051.248, 9293.000
1052.353, 9255.000
1053.459, 9327.000
1054.564, 9281.000
1055.670, 9292.918
1056.775, 9327.000
1057.880, 9302.000
1058.985, 9270.000
1060.089, 9303.000
1061.194, 9209.000
1062.298, 9227.000
1063.402, 9399.000
1064.506, 9324.000
1065.610, 9254.000
1066.713, 9331.000
1067.817, 9266.000
1068.920, 9255.000
1070.023, 9263.000
1071.126, 9283.000
1072.229, 9415.000
1073.332, 9295.000
1074.435, 9425.000
1075.537, 9238.000
1076.639, 9199.000
1077.741, 9318.000
1078.843, 9295.000
1079.945, 9226.000
1081.046, 9343.000
1082.148, 9276.000
1083.249, 9387.000
1084.350, 9251.000
1085.451, 9381.000
1086.551, 9350.000
1087.652, 9411.000
1088.752, 9287.000
1089.853, 9312.000
1090.953, 9276.000
1092.053, 9357.000
1093.152, 9379.000
1094.252, 9182.000
1095.351, 9317.000
1096.451, 9285.000
1097.550, 9258.000
1098.649, 9380.000
1099.748, 9317.000
1100.846, 9198.000
1101.945, 9161.000
1103.043, 9238.000
1104.141, 9216.000
1105.239, 9224.000
1106.337, 9248.000
1107.434, 9254.000
1108.532, 9293.000
1109.629, 9302.168
1110.726, 9282.000
1111.823, 9322.000
1112.920, 9307.188
1114.017, 9305.609
1115.113, 9323.000
1116.210, 9300.000
1117.306, 9347.000
1118.402, 9367.000
1119.498, 9430.000
1120.593, 9400.000
1121.689, 9435.000
1122.784, 9427.000
1123.879, 9382.000
1124.974, 9409.000
1126.069, 9523.000
1127.164, 9462.000
1128.259, 9473.000
1129.353, 9322.000
1130.447, 9326.000
1131.541, 9223.000
1132.635, 9300.000
1133.729, 9188.000
1134.822, 9181.000
1135.916, 9348.000
1137.009, 9220.000
1138.102, 9127.000
1139.195, 9290.000
1140.288, 9189.000
1141.380, 9216.000
1142.473, 9141.000
1143.565, 9208.000
1144.657, 9197.000
1145.749, 9069.000
1146.841, 9243.000
1147.932, 9128.000
1149.024, 9171.000
1150.115, 9240.000
1151.206, 9228.000
1152.297, 9149.000
1153.388, 9150.000
1154.479, 9185.000
1155.569, 9244.000
1156.659, 9226.472
1157.750, 9227.000
1158.839, 9227.000
1159.929, 9236.092
1161.019, 9235.049
1162.108, 9238.000
1163.198, 9248.000
1164.287, 9184.000
1165.376, 9204.000
1166.465, 9198.000
1167.553, 9113.000
1168.642, 9167.000
1169.730, 9258.000
1170.818, 9126.000
1171.906, 9280.000
1172.994, 9233.000
1174.082, 9245.000
1175.170, 9088.000
1176.257, 9270.000
1177.344, 9257.000
1178.431, 9196.000
1179.518, 9265.000
1180.605, 9371.000
1181.691, 9163.000
1182.778, 9208.000
1183.864, 9120.000
1184.950, 9293.000
1186.036, 9198.000
1187.122, 9187.000
1188.207, 9218.000
1189.292, 9113.000
1190.378, 9217.000
1191.463, 9213.000
1192.548, 9288.000
1193.632, 9343.000
1194.717, 9321.148
1195.801, 9329.527
1196.886, 9285.000
1197.970, 9252.000
1199.054, 9220.000
1200.137, 9155.000
1201.221, 9150.000
1202.305, 9257.000
1203.388, 9231.000
1204.471, 9201.000
1205.554, 9185.000
1206.637, 9346.000
1207.719, 9179.000
1208.802, 9328.000
1209.884, 9126.000
1210.966, 9023.000
1212.048, 9273.000
1213.130, 9237.000
1214.212, 9159.000
1215.293, 9247.000
1216.374, 9193.000
1217.456, 9229.845
1218.536, 9219.393
1219.617, 9232.000
1220.698, 9269.000
1221.778, 9133.000
1222.859, 9334.000
1223.939, 9229.000
1225.019, 9267.000
1226.099, 9335.000
1227.178, 9175.000
1228.258, 9238.000
1229.337, 9229.000
1230.417, 9189.000
1231.496, 9282.000
1232.574, 9344.000
1233.653, 9282.000
1234.732, 9384.000
1235.810, 9378.000
1236.888, 9361.212
1237.966, 9359.000
1239.044, 9332.000
1240.122, 9325.000
1241.199, 9322.000
1242.277, 9269.000
1243.354, 9301.000
1244.431, 9253.000
1245.508, 9340.000
1246.585, 9331.000
1247.661, 9341.000
1248.738, 9320.000
1249.814, 9374.000
1250.890, 9133.000
1251.966, 9374.000
1253.042, 9252.000
1254.117, 9254.000
1255.193, 9369.000
1256.268, 9306.000
1257.343, 9376.000
1258.418, 9343.000
1259.493, 9231.000
1260.567, 9256.000
1261.642, 9310.000
1262.716, 9429.000
1263.790, 9325.000
1264.864, 9378.000
1265.938, 9393.000
1267.011, 9263.000
1268.085, 9343.000
1269.158, 9314.000
1270.231, 9331.000
1271.304, 9335.750
1272.377, 9338.702
1273.450, 9323.000
1274.522, 9332.000
1275.594, 9313.367
1276.666, 9275.000
1277.738, 9282.142
1278.810, 9274.887
1279.882, 9262.000
1280.953, 9288.000
1282.025, 9335.000
1283.096, 9366.000
1284.167, 9363.000
1285.238, 9460.000
1286.308, 9383.000
1287.379, 9373.000
1288.449, 9459.000
1289.519, 9300.000
1290.589, 9362.000
1291.659, 9413.000
1292.729, 9426.000
1293.798, 9466.158
1294.868, 9432.000
1295.937, 9509.000
1297.006, 9495.000
1298.075, 9515.000
1299.143, 9390.000
1300.212, 9542.000
1301.280, 9458.000
1302.348, 9455.000
1303.416, 9590.000
1304.484, 9467.000
1305.552, 9591.000
1306.620, 9508.000
1307.687, 9482.000
1308.754, 9465.000
1309.821, 9439.000
1310.888, 9346.000
1311.955, 9458.000
1313.021, 9478.000
1314.088, 9536.000
1315.154, 9456.000
1316.220, 9426.000
1317.286, 9485.000
1318.352, 9537.000
1319.417, 9509.000
1320.483, 9407.000
1321.548, 9462.000
1322.613, 9414.000
1323.678, 9512.000
1324.743, 9581.000
1325.807, 9634.000
1326.872, 9546.000
1327.936, 9489.000
1329.000, 9527.000
1330.064, 9586.000
1331.128, 9441.000
1332.191, 9492.000
1333.255, 9400.000
1334.318, 9536.000
1335.381, 9527.000
1336.444, 9462.000
1337.507, 9540.000
1338.569, 9544.000
1339.632, 9517.000
1340.694, 9499.000
1341.756, 9682.000
1342.818, 9508.000
1343.880, 9622.000
1344.941, 9673.000
1346.003, 9604.000
1347.064, 9615.000
1348.125, 9609.000
1349.186, 9556.000
1350.247, 9534.000
1351.308, 9578.000
1352.368, 9624.000
1353.428, 9717.000
1354.489, 9646.000
1355.549, 9552.000
1356.608, 9485.000
1357.668, 9673.000
1358.727, 9471.000
1359.787, 9584.000
1360.846, 9395.000
1361.905, 9554.000
1362.964, 9589.000
1364.022, 9668.000
1365.081, 9592.000
1366.139, 9638.097
1367.197, 9637.489
1368.255, 9642.000
1369.313, 9623.000
1370.371, 9635.000
1371.428, 9587.000
1372.486, 9601.000
1373.543, 9455.000
1374.600, 9587.000
1375.657, 9512.000
1376.713, 9570.000
1377.770, 9631.000
1378.826, 9618.000
1379.882, 9636.000
1380.938, 9633.000
1381.994, 9673.000
1383.050, 9575.000
1384.106, 9772.000
1385.161, 9709.404
1386.216, 9639.000
1387.271, 9700.000
1388.326, 9616.000
1389.381, 9562.000
1390.435, 9627.000
1391.490, 9678.000
1392.544, 9597.000
1393.598, 9604.000
1394.652, 9589.000
1395.705, 9657.000
1396.759, 9833.000
1397.812, 9646.000
1398.866, 9697.000
1399.919, 9536.000
1400.972, 9591.000
1402.024, 9548.000
1403.077, 9547.000
1404.129, 9655.000
1405.181, 9648.000
1406.233, 9495.000
1407.285, 9509.000
1408.337, 9598.000
1409.389, 9690.000
1410.440, 9682.000
1411.491, 9521.000
1412.542, 9578.000
1413.593, 9615.000
1414.644, 9543.000
1415.695, 9592.000
1416.745, 9610.000
1417.795, 9718.000
1418.845, 9712.000
1419.895, 9665.000
1420.945, 9682.000
1421.995, 9595.000
1423.044, 9732.000
1424.093, 9569.000
1425.142, 9687.000
1426.191, 9565.000
1427.240, 9619.000
1428.289, 9637.000
1429.337, 9556.000
1430.385, 9588.000
1431.433, 9708.000
1432.481, 9716.000
1433.529, 9699.000
1434.577, 9614.000
1435.624, 9622.000
1436.672, 9614.000
1437.719, 9652.000
1438.766, 9667.000
1439.812, 9621.000
1440.859, 9589.000
1441.905, 9645.000
1442.952, 9608.000
1443.998, 9585.000
1445.044, 9680.000
1446.090, 9653.000
1447.135, 9680.000
1448.181, 9761.000
1449.226, 9572.000
1450.271, 9596.000
1451.316, 9649.000
1452.361, 9584.000
1453.405, 9757.000
1454.450, 9656.000
1455.494, 9699.000
1456.538, 9667.000
1457.582, 9691.000
1458.626, 9751.000
1459.670, 9603.000
1460.713, 9686.000
1461.757, 9635.000
1462.800, 9678.000
1463.843, 9678.000
1464.886, 9592.000
1465.928, 9790.000
1466.971, 9684.000
1468.013, 9586.000
1469.055, 9575.000
1470.097, 9723.000
1471.139, 9657.000
1472.181, 9719.000
1473.222, 9801.000
1474.263, 9692.000
1475.305, 9676.000
1476.346, 9810.000
1477.386, 9681.000
1478.427, 9792.000
1479.468, 9610.000
1480.508, 9838.000
1481.548, 9680.000
1482.588, 9758.000
1483.628, 9693.000
1484.668, 9626.000
1485.707, 9739.000
1486.747, 9729.000
1487.786, 9803.000
1488.825, 9763.000
1489.864, 9766.000
1490.902, 9724.000
1491.941, 9837.000
1492.979, 9772.000
1494.017, 9661.000
1495.055, 9670.000
1496.093, 9844.000
1497.131, 9901.000
1498.168, 9760.000
1499.206, 9802.000
1500.243, 9733.000
1501.280, 9738.000
1502.317, 9832.000
1503.354, 9718.000
1504.390, 9732.000
1505.426, 9874.000
1506.463, 9735.000
1507.499, 9789.000
1508.535, 9797.000
1509.570, 9783.240
1510.606, 9903.000
1511.641, 9802.000
1512.676, 9915.000
1513.711, 9865.000
1514.746, 9896.000
1515.781, 9881.000
1516.816, 9750.000
1517.850, 10066.00
1518.884, 9841.000
1519.918, 9956.000
1520.952, 9942.000
1521.986, 9901.000
1523.019, 10027.00
1524.053, 9863.000
1525.086, 9953.000
1526.119, 10004.00
1527.152, 10049.00
1528.185, 10024.00
1529.217, 9995.000
1530.250, 9972.000
1531.282, 9923.000
1532.314, 10031.00
1533.346, 9984.000
1534.377, 9874.000
1535.409, 10105.00
1536.440, 10043.00
1537.472, 10019.00
1538.503, 10092.00
1539.534, 9932.103
1540.564, 10048.14
1541.595, 10117.74
1542.625, 10143.40
1543.656, 9993.509
1544.686, 10070.30
1545.716, 10056.25
1546.745, 10038.46
1547.775, 10147.16
1548.804, 10022.78
1549.834, 10129.47
1550.863, 10143.92
1551.892, 10200.58
1552.920, 10165.83
1553.949, 10159.31
1554.977, 10244.23
1556.006, 10278.52
1557.034, 10233.24
1558.062, 10292.58
1559.089, 10164.99
1560.117, 10201.43
1561.144, 10308.63
1562.172, 10267.95
1563.199, 10328.95
1564.226, 10351.21
1565.252, 10295.00
1566.279, 10143.00
1567.305, 10199.00
1568.332, 10145.00
1569.358, 10200.00
1570.384, 10203.00
1571.409, 10389.00
1572.435, 10245.00
##END=



