##NAMES=Ferberite
##RRUFFID=R050632
##IDEAL CHEMISTRY=Fe^2+^W^6+^O_4_
##LOCALITY=Chance mine, Boulder, Colorado, USA
##OWNER=RRUFF
##SOURCE=University of Arizona Mineral Museum
##DESCRIPTION=Dark brown rectangular prismatic crystals
##STATUS=The identification of this mineral has been confirmed by X-ray diffraction and chemical analysis
##URL=rruff.info/R050632
##MEASURED CHEMISTRY=Fe^2+^_1.00_WO_4_
##PIN_ID=M00317
##ORIENTATION=Laser parallel to (1 0 1). Fiducial mark perpendicular to laser is parallel to b [0 1 0]
234.4160, 14089.00
235.6330, 14259.00
236.8490, 14247.00
238.0660, 14048.00
239.2820, 14248.00
240.4980, 14188.00
241.7140, 14032.00
242.9300, 13964.00
244.1460, 13995.00
245.3610, 13973.37
246.5770, 13976.66
247.7920, 14096.00
249.0070, 14053.00
250.2220, 14154.00
251.4370, 14306.00
252.6510, 14391.00
253.8660, 14535.03
255.0800, 14708.56
256.2940, 14832.56
257.5080, 14909.69
258.7220, 14799.57
259.9360, 14931.25
261.1490, 14965.98
262.3630, 14996.78
263.5760, 15162.44
264.7890, 15186.00
266.0020, 15181.00
267.2150, 15216.00
268.4270, 15414.00
269.6400, 15389.00
270.8520, 15408.00
272.0640, 15415.00
273.2760, 15423.44
274.4880, 15333.00
275.7000, 15430.00
276.9120, 15423.00
278.1230, 15364.00
279.3340, 15127.00
280.5450, 15247.00
281.7560, 15131.00
282.9670, 14985.93
284.1780, 15065.00
285.3880, 14760.00
286.5980, 14796.00
287.8090, 14844.00
289.0190, 14848.00
290.2290, 14934.00
291.4380, 14849.00
292.6480, 15031.00
293.8570, 15165.00
295.0670, 15053.00
296.2760, 15171.00
297.4850, 15259.00
298.6930, 15201.00
299.9020, 15306.00
301.1110, 15147.00
302.3190, 15233.00
303.5270, 15322.00
304.7350, 15454.00
305.9430, 15346.00
307.1510, 15656.00
308.3580, 15683.00
309.5660, 15998.00
310.7730, 15922.00
311.9800, 16164.00
313.1870, 16143.00
314.3940, 16248.00
315.6010, 16586.00
316.8070, 16726.00
318.0130, 17154.00
319.2200, 17156.00
320.4260, 17506.00
321.6310, 17950.00
322.8370, 18134.00
324.0430, 18359.00
325.2480, 18528.94
326.4540, 18721.00
327.6590, 18677.00
328.8640, 18370.00
330.0680, 18313.00
331.2730, 18137.00
332.4780, 17962.00
333.6820, 17816.00
334.8860, 17534.00
336.0900, 17313.00
337.2940, 17092.00
338.4980, 16895.00
339.7010, 16758.00
340.9050, 16560.00
342.1080, 16442.98
343.3110, 16388.00
344.5140, 16237.00
345.7170, 16176.00
346.9200, 16138.00
348.1220, 16018.27
349.3240, 15981.30
350.5270, 15818.00
351.7290, 15864.00
352.9310, 15726.00
354.1320, 15664.00
355.3340, 15817.00
356.5350, 15501.00
357.7370, 15678.00
358.9380, 15505.00
360.1390, 15654.00
361.3400, 15532.00
362.5400, 15396.00
363.7410, 15581.00
364.9410, 15449.71
366.1410, 15401.00
367.3410, 15431.00
368.5410, 15420.00
369.7410, 15442.00
370.9400, 15280.00
372.1400, 15371.00
373.3390, 15381.00
374.5380, 15305.00
375.7370, 15380.00
376.9360, 15126.00
378.1350, 15310.00
379.3330, 15438.00
380.5310, 15216.00
381.7300, 15464.00
382.9280, 15273.00
384.1260, 15476.00
385.3230, 15497.00
386.5210, 15417.00
387.7180, 15702.00
388.9160, 15676.00
390.1130, 15790.00
391.3100, 15958.00
392.5060, 16251.00
393.7030, 16376.00
394.9000, 17329.00
396.0960, 17367.87
397.2920, 17330.00
398.4880, 17897.00
399.6840, 17815.00
400.8800, 17990.00
402.0750, 17888.00
403.2710, 17542.00
404.4660, 17097.00
405.6610, 16876.00
406.8560, 16764.00
408.0510, 16613.00
409.2450, 16359.31
410.4400, 16133.00
411.6340, 15918.00
412.8280, 15742.00
414.0220, 15652.00
415.2160, 15519.00
416.4100, 15462.00
417.6030, 15392.05
418.7970, 15427.00
419.9900, 15322.00
421.1830, 15330.00
422.3760, 15356.00
423.5690, 15316.00
424.7610, 15342.45
425.9540, 15410.00
427.1460, 15389.00
428.3380, 15417.00
429.5300, 15507.00
430.7220, 15510.00
431.9140, 15512.71
433.1050, 15462.43
434.2970, 15486.00
435.4880, 15306.00
436.6790, 15307.00
437.8700, 15270.00
439.0610, 15245.00
440.2510, 15343.00
441.4420, 15312.93
442.6320, 15316.00
443.8220, 15348.00
445.0120, 15473.00
446.2020, 15494.00
447.3910, 15553.31
448.5810, 15459.00
449.7700, 15571.00
450.9600, 15587.00
452.1490, 15445.00
453.3370, 15394.00
454.5260, 15529.00
455.7150, 15419.00
456.9030, 15529.00
458.0910, 15675.00
459.2800, 15521.00
460.4670, 15621.00
461.6550, 15672.00
462.8430, 15556.00
464.0300, 15601.00
465.2180, 15725.00
466.4050, 15588.00
467.5920, 15634.00
468.7790, 15680.00
469.9650, 15656.00
471.1520, 15831.00
472.3380, 15832.68
473.5250, 15878.25
474.7110, 15887.00
475.8970, 15932.00
477.0820, 15838.00
478.2680, 15835.00
479.4540, 16112.00
480.6390, 16006.00
481.8240, 15935.00
483.0090, 16091.00
484.1940, 15931.00
485.3780, 16047.00
486.5630, 16136.00
487.7470, 16121.00
488.9320, 16167.00
490.1160, 16191.00
491.3000, 16157.00
492.4830, 16241.00
493.6670, 16338.00
494.8500, 16466.00
496.0340, 16553.00
497.2170, 16472.00
498.4000, 16540.00
499.5820, 16587.90
500.7650, 16538.00
501.9480, 16690.00
503.1300, 16797.00
504.3120, 16799.00
505.4940, 16840.00
506.6760, 16926.00
507.8580, 16836.00
509.0390, 16993.00
510.2210, 17080.00
511.4020, 16924.00
512.5830, 17143.00
513.7640, 17021.00
514.9450, 17213.00
516.1250, 17017.00
517.3060, 17143.84
518.4860, 17149.41
519.6660, 17222.00
520.8460, 17254.00
522.0260, 17115.12
523.2060, 17287.00
524.3850, 17358.00
525.5650, 17357.00
526.7440, 17591.60
527.9230, 17544.49
529.1020, 17897.00
530.2810, 17543.00
531.4590, 17468.00
532.6380, 17413.00
533.8160, 17640.00
534.9940, 17386.00
536.1720, 17539.00
537.3500, 17557.00
538.5270, 17556.00
539.7050, 17419.00
540.8820, 17689.00
542.0590, 17480.00
543.2360, 17472.00
544.4130, 17230.00
545.5900, 17329.00
546.7660, 17351.00
547.9430, 17293.00
549.1190, 17379.00
550.2950, 17303.00
551.4710, 17293.00
552.6470, 17271.00
553.8220, 17148.00
554.9980, 17215.00
556.1730, 17025.00
557.3480, 17023.00
558.5230, 17147.00
559.6980, 17024.00
560.8730, 16906.00
562.0470, 16935.00
563.2220, 16924.00
564.3960, 16902.00
565.5700, 16932.92
566.7440, 16799.00
567.9170, 16937.00
569.0910, 16848.00
570.2640, 16769.00
571.4380, 16864.00
572.6110, 16765.00
573.7840, 16855.00
574.9570, 16496.00
576.1290, 16475.00
577.3020, 16609.00
578.4740, 16407.00
579.6460, 16428.00
580.8180, 16342.00
581.9900, 16286.00
583.1620, 16151.00
584.3330, 16150.00
585.5040, 16028.00
586.6760, 16075.00
587.8470, 16023.80
589.0180, 15894.00
590.1880, 16032.00
591.3590, 16019.00
592.5290, 16127.00
593.7000, 16111.78
594.8700, 16093.00
596.0400, 16029.00
597.2090, 16132.00
598.3790, 16014.00
599.5490, 16111.00
600.7180, 16053.00
601.8870, 16076.00
603.0560, 16165.00
604.2250, 16009.00
605.3940, 16115.00
606.5620, 16229.00
607.7300, 16203.00
608.8990, 16207.00
610.0670, 16148.00
611.2350, 16108.61
612.4020, 16074.00
613.5700, 16062.00
614.7370, 16121.00
615.9050, 16257.00
617.0720, 16203.00
618.2390, 16140.00
619.4060, 16242.00
620.5720, 16098.00
621.7390, 16111.00
622.9050, 16190.00
624.0710, 16195.00
625.2370, 16207.00
626.4030, 16336.00
627.5690, 16208.00
628.7340, 16099.00
629.9000, 16263.00
631.0650, 16272.00
632.2300, 16405.00
633.3950, 16482.00
634.5600, 16345.00
635.7240, 16414.00
636.8890, 16386.00
638.0530, 16326.00
639.2170, 16396.00
640.3810, 16403.00
641.5450, 16413.00
642.7080, 16387.00
643.8720, 16323.00
645.0350, 16537.00
646.1980, 16467.00
647.3610, 16559.00
648.5240, 16659.00
649.6870, 16530.00
650.8490, 16585.00
652.0120, 16581.00
653.1740, 16725.00
654.3360, 16769.00
655.4980, 16681.00
656.6600, 16870.00
657.8210, 16694.00
658.9830, 16889.00
660.1440, 17030.00
661.3050, 17022.00
662.4660, 16969.00
663.6270, 17121.00
664.7870, 17191.00
665.9480, 17082.00
667.1080, 17256.00
668.2680, 17388.00
669.4280, 17704.00
670.5880, 17575.00
671.7480, 17461.00
672.9070, 17687.41
674.0670, 17962.00
675.2260, 17957.00
676.3850, 17976.00
677.5440, 18128.00
678.7030, 18142.00
679.8610, 18272.00
681.0200, 18303.00
682.1780, 18367.00
683.3360, 18443.00
684.4940, 18636.00
685.6520, 18701.00
686.8090, 18761.72
687.9670, 18715.00
689.1240, 18824.00
690.2810, 18777.00
691.4380, 18782.00
692.5950, 18765.00
693.7520, 18720.88
694.9080, 18487.00
696.0650, 18591.00
697.2210, 18394.00
698.3770, 18214.00
699.5330, 18264.00
700.6880, 18069.00
701.8440, 18034.00
702.9990, 17989.00
704.1550, 17953.00
705.3100, 17731.00
706.4650, 17548.00
707.6190, 17470.00
708.7740, 17505.00
709.9290, 17465.00
711.0830, 17415.00
712.2370, 17325.00
713.3910, 17444.00
714.5450, 17394.00
715.6980, 17219.00
716.8520, 17370.00
718.0050, 17304.00
719.1580, 17310.00
720.3110, 17193.00
721.4640, 17145.00
722.6170, 17138.00
723.7700, 17152.00
724.9220, 17213.00
726.0740, 17088.00
727.2260, 17204.00
728.3780, 17143.00
729.5300, 17183.00
730.6810, 17312.00
731.8330, 17191.00
732.9840, 17206.00
734.1350, 17142.00
735.2860, 17224.00
736.4370, 17141.00
737.5880, 17282.00
738.7380, 17285.64
739.8880, 17275.00
741.0390, 17407.00
742.1890, 17467.00
743.3380, 17607.00
744.4880, 17589.47
745.6380, 17546.00
746.7870, 17550.00
747.9360, 17578.00
749.0850, 17571.00
750.2340, 17729.14
751.3830, 17723.94
752.5310, 17768.85
753.6800, 17840.00
754.8280, 17824.00
755.9760, 17935.00
757.1240, 17980.00
758.2720, 18086.00
759.4190, 18184.00
760.5670, 18227.00
761.7140, 18195.00
762.8610, 18282.00
764.0080, 18437.00
765.1550, 18339.00
766.3020, 18454.00
767.4480, 18592.00
768.5950, 18588.00
769.7410, 18771.30
770.8870, 18951.00
772.0330, 19045.00
773.1780, 18733.00
774.3240, 18800.00
775.4690, 18865.00
776.6140, 18721.00
777.7590, 18775.00
778.9040, 18911.00
780.0490, 18728.00
781.1940, 18627.00
782.3380, 18702.00
783.4820, 18896.00
784.6260, 18718.00
785.7700, 18655.00
786.9140, 18705.00
788.0580, 18573.00
789.2010, 18492.00
790.3450, 18613.00
791.4880, 18470.00
792.6310, 18578.00
793.7730, 18995.00
794.9160, 18468.00
796.0590, 18496.00
797.2010, 18670.00
798.3430, 18383.00
799.4850, 18547.00
800.6270, 18398.00
801.7690, 18255.00
802.9100, 18351.00
804.0520, 18212.00
805.1930, 18409.00
806.3340, 18302.00
807.4750, 18285.77
808.6160, 18445.00
809.7560, 18227.00
810.8970, 18314.00
812.0370, 18357.00
813.1770, 18348.00
814.3170, 18288.00
815.4570, 18348.00
816.5960, 18384.00
817.7360, 18431.16
818.8750, 18405.26
820.0140, 18571.00
821.1530, 18434.00
822.2920, 18457.00
823.4310, 18699.00
824.5690, 18628.00
825.7070, 19020.00
826.8460, 19070.00
827.9840, 18880.00
829.1220, 18924.00
830.2590, 18834.00
831.3970, 19024.00
832.5340, 19229.00
833.6710, 19256.00
834.8080, 19410.00
835.9450, 19439.00
837.0820, 19527.00
838.2190, 19706.00
839.3550, 19791.80
840.4910, 20065.00
841.6270, 20091.00
842.7630, 20318.00
843.8990, 20521.00
845.0350, 20577.00
846.1700, 21012.00
847.3060, 21151.00
848.4410, 21470.00
849.5760, 21787.00
850.7100, 22099.00
851.8450, 22427.00
852.9800, 22924.00
854.1140, 23207.00
855.2480, 23865.00
856.3820, 24347.23
857.5160, 25081.66
858.6500, 25604.00
859.7830, 26671.00
860.9170, 27570.00
862.0500, 28332.46
863.1830, 29886.00
864.3160, 31008.00
865.4480, 32355.00
866.5810, 34043.00
867.7130, 36065.00
868.8460, 38008.00
869.9780, 40457.00
871.1100, 42920.00
872.2410, 45570.00
873.3730, 48161.00
874.5050, 50817.00
875.6360, 53020.00
876.7670, 54237.59
877.8980, 55206.00
879.0290, 55275.00
880.1590, 54514.00
881.2900, 53305.00
882.4200, 51565.00
883.5500, 49546.00
884.6800, 47117.00
885.8100, 44270.00
886.9400, 41433.00
888.0690, 39235.00
889.1990, 37131.00
890.3280, 35166.00
891.4570, 33405.42
892.5860, 31720.17
893.7140, 30332.00
894.8430, 28895.00
895.9710, 27793.00
897.1000, 26910.00
898.2280, 26022.00
899.3560, 25224.00
900.4830, 24516.00
901.6110, 24153.00
902.7380, 23534.00
903.8660, 23060.00
904.9930, 22872.00
906.1200, 22345.00
907.2460, 22013.00
908.3730, 21889.00
909.5000, 21688.00
910.6260, 21155.00
911.7520, 21233.00
912.8780, 20943.00
914.0040, 20904.00
915.1290, 20783.39
916.2550, 20825.00
917.3800, 20592.00
918.5050, 20467.00
919.6300, 20514.00
920.7550, 20169.00
921.8800, 20106.00
923.0040, 20181.00
924.1290, 19996.00
925.2530, 20097.00
926.3770, 20180.00
927.5010, 20056.00
928.6250, 19955.00
929.7480, 19943.00
930.8720, 19943.00
931.9950, 19863.00
933.1180, 19764.00
934.2410, 19851.00
935.3640, 19954.00
936.4860, 19641.00
937.6090, 19629.00
938.7310, 19576.00
939.8530, 19684.28
940.9750, 19676.86
942.0970, 19975.00
943.2180, 19826.00
944.3400, 19670.00
945.4610, 19857.00
946.5820, 19573.00
947.7030, 20019.00
948.8240, 19791.01
949.9450, 19586.00
951.0650, 19608.00
952.1860, 19582.00
953.3060, 19567.00
954.4260, 19402.00
955.5460, 19315.00
956.6650, 19442.00
957.7850, 19309.00
958.9040, 19084.00
960.0230, 19126.00
961.1420, 19190.00
962.2610, 19036.00
963.3800, 19127.00
964.4990, 19100.00
965.6170, 19098.00
966.7350, 19034.00
967.8530, 19031.00
968.9710, 19010.00
970.0890, 19172.00
971.2070, 19126.00
972.3240, 19149.00
973.4410, 19018.00
974.5580, 19003.38
975.6750, 19049.00
976.7920, 18927.00
977.9090, 18983.00
979.0250, 19019.00
980.1410, 19005.00
981.2580, 18966.00
982.3740, 18970.02
983.4890, 18958.00
984.6050, 18950.00
985.7200, 19012.00
986.8360, 19050.00
987.9510, 19038.00
989.0660, 19051.00
990.1810, 18989.00
991.2950, 19064.00
992.4100, 18899.00
993.5240, 18886.00
994.6390, 18970.00
995.7530, 19015.00
996.8660, 19034.00
997.9800, 19009.76
999.0940, 18985.19
1000.207, 18909.00
1001.320, 18900.00
1002.433, 18876.00
1003.546, 18888.00
1004.659, 18807.00
1005.772, 18913.00
1006.884, 18791.00
1007.996, 18769.00
1009.108, 18843.00
1010.220, 18771.00
1011.332, 18749.00
1012.444, 18611.00
1013.555, 18692.00
1014.666, 18737.00
1015.777, 18879.00
1016.888, 18716.00
1017.999, 18708.00
1019.110, 18760.00
1020.220, 18884.00
1021.331, 18680.00
1022.441, 18772.00
1023.551, 18660.00
1024.661, 18701.00
1025.770, 18791.00
1026.880, 18832.00
1027.989, 18928.00
1029.098, 18848.00
1030.207, 18716.00
1031.316, 18782.00
1032.425, 18806.00
1033.533, 18923.00
1034.642, 18780.00
1035.750, 18805.00
1036.858, 18922.00
1037.966, 18869.00
1039.073, 18928.00
1040.181, 18922.00
1041.288, 18814.00
1042.396, 18736.00
1043.503, 18932.00
1044.610, 18808.00
1045.716, 19033.00
1046.823, 18943.00
1047.929, 19018.00
1049.036, 18905.00
1050.142, 19053.00
1051.248, 19046.00
1052.353, 18875.00
1053.459, 19059.00
1054.564, 19042.00
1055.670, 19009.00
1056.775, 19043.00
1057.880, 19044.00
1058.985, 19053.00
1060.089, 19105.73
1061.194, 19110.34
1062.298, 19257.00
1063.402, 19118.00
1064.506, 19282.00
1065.610, 19216.00
1066.713, 19118.00
1067.817, 19035.00
1068.920, 19028.73
1070.023, 19015.00
1071.126, 19014.00
1072.229, 19072.00
1073.332, 19037.00
1074.435, 19073.54
1075.537, 19189.00
1076.639, 19138.00
1077.741, 19175.91
1078.843, 19097.00
1079.945, 19173.00
1081.046, 19117.00
1082.148, 19136.00
1083.249, 19054.00
1084.350, 18922.00
1085.451, 19033.00
1086.551, 19162.00
1087.652, 19016.00
1088.752, 18975.00
1089.853, 18949.00
1090.953, 18831.00
1092.053, 19031.00
1093.152, 19061.00
1094.252, 19039.00
1095.351, 19007.00
1096.451, 18985.00
1097.550, 18963.73
1098.649, 18927.00
1099.748, 18913.00
1100.846, 18919.00
1101.945, 18870.82
1103.043, 18846.76
1104.141, 18754.00
1105.239, 18786.00
1106.337, 18779.00
1107.434, 18798.00
1108.532, 18874.00
1109.629, 18704.00
1110.726, 18771.00
1111.823, 18823.00
1112.920, 18946.00
1114.017, 18922.00
1115.113, 19036.00
1116.210, 19255.00
1117.306, 19163.00
1118.402, 19291.00
1119.498, 19749.00
1120.593, 19647.00
1121.689, 19845.00
1122.784, 19821.00
1123.879, 19767.00
1124.974, 19626.00
1126.069, 19419.00
1127.164, 19350.00
1128.259, 19154.00
1129.353, 19154.00
1130.447, 18836.00
1131.541, 18811.00
1132.635, 18681.00
1133.729, 18694.00
1134.822, 18544.00
1135.916, 18540.00
1137.009, 18631.00
1138.102, 18614.00
1139.195, 18668.00
1140.288, 18744.00
1141.380, 18570.00
1142.473, 18382.00
1143.565, 18673.00
1144.657, 18464.00
1145.749, 18582.00
1146.841, 18701.00
1147.932, 18550.00
1149.024, 18581.00
1150.115, 18525.00
1151.206, 18463.00
1152.297, 18433.00
1153.388, 18584.00
1154.479, 18407.00
1155.569, 18592.00
1156.659, 18395.00
1157.750, 18329.00
1158.839, 18583.00
1159.929, 18267.00
1161.019, 18446.00
1162.108, 18514.00
1163.198, 18439.00
1164.287, 18490.91
1165.376, 18549.00
1166.465, 18351.00
1167.553, 18561.00
1168.642, 18384.00
1169.730, 18532.00
1170.818, 18443.00
1171.906, 18403.00
1172.994, 18422.00
1174.082, 18385.00
1175.170, 18400.00
1176.257, 18545.00
1177.344, 18356.00
1178.431, 18320.00
1179.518, 18411.00
1180.605, 18630.00
1181.691, 18410.00
1182.778, 18582.00
1183.864, 18499.00
1184.950, 18448.00
1186.036, 18416.00
1187.122, 18456.00
1188.207, 18527.00
1189.292, 18410.00
1190.378, 18333.00
1191.463, 18501.00
1192.548, 18476.00
1193.632, 18306.00
1194.717, 18416.00
1195.801, 18343.00
1196.886, 18479.00
1197.970, 18565.00
1199.054, 18425.00
1200.137, 18505.00
1201.221, 18492.00
1202.305, 18435.00
1203.388, 18479.00
1204.471, 18415.00
1205.554, 18502.00
1206.637, 18362.00
1207.719, 18492.00
1208.802, 18492.00
1209.884, 18611.00
1210.966, 18484.00
1212.048, 18564.00
1213.130, 18413.00
1214.212, 18476.54
1215.293, 18548.00
1216.374, 18555.00
1217.456, 18676.00
1218.536, 18697.00
1219.617, 18696.00
1220.698, 18690.00
1221.778, 18696.63
1222.859, 18544.00
1223.939, 18724.00
1225.019, 18674.00
1226.099, 18749.00
1227.178, 18500.00
1228.258, 18602.00
1229.337, 18620.00
1230.417, 18684.00
1231.496, 18630.00
1232.574, 18476.00
1233.653, 18536.00
1234.732, 18627.00
1235.810, 18540.00
1236.888, 18639.00
1237.966, 18687.00
1239.044, 18625.00
1240.122, 18698.00
1241.199, 18814.00
1242.277, 18661.00
1243.354, 18681.00
1244.431, 18757.00
1245.508, 18707.00
1246.585, 18719.37
1247.661, 18640.00
1248.738, 18707.00
1249.814, 18629.00
1250.890, 18693.00
1251.966, 18557.00
1253.042, 18556.00
1254.117, 18598.00
1255.193, 18603.00
1256.268, 18650.00
1257.343, 18731.00
1258.418, 18685.00
1259.493, 18545.00
1260.567, 18728.00
1261.642, 18998.00
1262.716, 18643.00
1263.790, 18741.00
1264.864, 18575.00
1265.938, 18733.00
1267.011, 18645.00
1268.085, 18572.00
1269.158, 18653.00
1270.231, 18602.00
1271.304, 18655.00
1272.377, 18601.00
1273.450, 18758.00
1274.522, 18759.52
1275.594, 18720.00
1276.666, 18852.00
1277.738, 18773.00
1278.810, 18788.00
1279.882, 18693.00
1280.953, 18606.00
1282.025, 18621.61
1283.096, 18565.85
1284.167, 18707.00
1285.238, 18548.00
1286.308, 18778.00
1287.379, 18799.00
1288.449, 18596.00
1289.519, 18818.00
1290.589, 18647.00
1291.659, 18715.00
1292.729, 18688.00
1293.798, 18739.53
1294.868, 18915.00
1295.937, 18858.00
1297.006, 18863.00
1298.075, 18766.00
1299.143, 18796.00
1300.212, 19001.00
1301.280, 18979.00
1302.348, 18941.00
1303.416, 18724.00
1304.484, 18847.00
1305.552, 18720.00
1306.620, 18907.00
1307.687, 18768.00
1308.754, 18911.00
1309.821, 18855.00
1310.888, 18711.00
1311.955, 18927.00
1313.021, 18848.00
1314.088, 18828.00
1315.154, 19107.00
1316.220, 18889.00
1317.286, 18743.00
1318.352, 18855.00
1319.417, 18740.00
1320.483, 18902.00
1321.548, 18815.00
1322.613, 18831.00
1323.678, 18821.00
1324.743, 18844.00
1325.807, 18845.16
1326.872, 18863.69
1327.936, 18895.00
1329.000, 18896.00
1330.064, 19001.00
1331.128, 19004.00
1332.191, 19043.00
1333.255, 19050.75
1334.318, 19058.00
1335.381, 19046.00
1336.444, 19019.00
1337.507, 19058.00
1338.569, 19213.00
1339.632, 18957.00
1340.694, 18821.00
1341.756, 19013.00
1342.818, 19002.00
1343.880, 18926.00
1344.941, 19088.00
1346.003, 18974.00
1347.064, 19024.00
1348.125, 18977.00
1349.186, 19006.00
1350.247, 18944.00
1351.308, 19029.00
1352.368, 19009.44
1353.428, 19091.00
1354.489, 19018.00
1355.549, 19084.00
1356.608, 19069.00
1357.668, 19171.00
1358.727, 19028.00
1359.787, 19024.00
1360.846, 18993.00
1361.905, 19029.00
1362.964, 19041.00
1364.022, 19143.00
1365.081, 19081.00
1366.139, 19194.00
1367.197, 18937.00
1368.255, 19128.00
1369.313, 19145.00
1370.371, 18992.00
1371.428, 19061.00
1372.486, 19057.00
1373.543, 19135.00
1374.600, 19128.59
1375.657, 18980.00
1376.713, 19055.00
1377.770, 19201.00
1378.826, 19022.00
1379.882, 19176.00
1380.938, 19053.00
1381.994, 18954.00
1383.050, 19003.00
1384.106, 19002.00
1385.161, 19145.00
1386.216, 19285.00
1387.271, 19188.00
1388.326, 19105.00
1389.381, 19136.00
1390.435, 19027.00
1391.490, 19071.00
1392.544, 19003.00
1393.598, 19046.01
1394.652, 19164.00
1395.705, 19056.00
1396.759, 19230.00
1397.812, 19042.00
1398.866, 19137.00
1399.919, 19135.00
1400.972, 18907.00
1402.024, 19063.00
1403.077, 19273.00
1404.129, 18988.00
1405.181, 18928.00
1406.233, 19043.30
1407.285, 19155.26
1408.337, 19217.70
1409.389, 19233.27
1410.440, 19061.58
1411.491, 19131.70
1412.542, 19104.91
1413.593, 19074.14
1414.644, 19178.29
1415.695, 19033.84
1416.745, 19135.85
1417.795, 19139.47
1418.845, 19188.13
1419.895, 19139.28
1420.945, 19120.55
1421.995, 19199.35
1423.044, 19224.14
1424.093, 19164.08
1425.142, 19033.00
1426.191, 19074.00
1427.240, 19156.00
1428.289, 19079.00
1429.337, 19175.95
1430.385, 18991.00
1431.433, 19276.00
1432.481, 19076.00
1433.529, 19089.00
1434.577, 19141.00
1435.624, 19059.00
1436.672, 19304.00
1437.719, 19045.00
1438.766, 18957.00
1439.812, 19294.00
1440.859, 19027.00
1441.905, 19187.00
1442.952, 19153.00
1443.998, 19189.00
1445.044, 19092.00
1446.090, 19138.00
1447.135, 18998.00
1448.181, 19240.00
1449.226, 19063.00
1450.271, 19204.00
1451.316, 19067.00
1452.361, 19207.00
1453.405, 19029.00
1454.450, 19107.00
1455.494, 19077.00
1456.538, 19233.00
1457.582, 19166.00
1458.626, 19103.00
1459.670, 19082.00
1460.713, 19115.00
1461.757, 19095.00
1462.800, 19210.00
1463.843, 19233.00
1464.886, 19091.00
1465.928, 19013.00
1466.971, 19209.00
1468.013, 19131.00
1469.055, 19154.00
1470.097, 19298.00
1471.139, 19248.00
1472.181, 19185.00
1473.222, 19245.00
1474.263, 19225.00
1475.305, 19214.00
1476.346, 19370.00
1477.386, 19172.00
1478.427, 19113.00
1479.468, 19330.00
1480.508, 19289.00
1481.548, 19411.00
1482.588, 19321.00
1483.628, 19308.50
1484.668, 19355.00
1485.707, 19177.00
1486.747, 19404.00
1487.786, 19310.00
1488.825, 19303.00
1489.864, 19354.00
1490.902, 19215.00
1491.941, 19308.00
1492.979, 19297.94
1494.017, 19292.00
1495.055, 19309.00
1496.093, 19386.00
1497.131, 19296.00
1498.168, 19157.00
1499.206, 19277.00
1500.243, 19282.00
1501.280, 19125.00
1502.317, 19362.00
1503.354, 19291.00
1504.390, 19463.00
1505.426, 19524.00
1506.463, 19481.00
1507.499, 19451.00
1508.535, 19472.49
1509.570, 19409.96
1510.606, 19556.00
1511.641, 19338.00
1512.676, 19541.00
1513.711, 19557.00
1514.746, 19456.00
1515.781, 19554.00
1516.816, 19451.00
1517.850, 19682.00
1518.884, 19435.00
1519.918, 19637.00
1520.952, 19489.00
1521.986, 19718.00
1523.019, 19670.00
1524.053, 19736.00
1525.086, 19632.00
1526.119, 19757.00
1527.152, 19678.00
1528.185, 19563.00
1529.217, 19626.13
1530.250, 19749.16
1531.282, 19822.65
1532.314, 19849.27
1533.346, 19688.64
1534.377, 19769.79
1535.409, 19754.06
1536.440, 19734.34
1537.472, 19849.54
1538.503, 19716.14
1539.534, 19829.18
1540.564, 19843.84
1541.595, 19903.54
1542.625, 19865.72
1543.656, 19858.03
1544.686, 19947.86
1545.716, 19983.69
1546.745, 19934.64
1547.775, 19997.19
1548.804, 19860.36
1549.834, 19898.49
1550.863, 20012.09
1551.892, 19967.94
1552.920, 20032.25
1553.949, 20055.26
1554.977, 19890.53
1556.006, 20052.29
1557.034, 20072.86
1558.062, 19948.44
1559.089, 20099.00
1560.117, 19994.57
1561.144, 19981.15
1562.172, 20036.23
1563.199, 20019.90
1564.226, 20116.15
1565.252, 20103.94
1566.279, 20082.04
1567.305, 20102.42
1568.332, 20002.98
1569.358, 20125.85
1570.384, 19994.00
1571.409, 20037.00
##END=



