##NAMES=Ferberite
##RRUFFID=R050632
##IDEAL CHEMISTRY=Fe^2+^W^6+^O_4_
##LOCALITY=Chance mine, Boulder, Colorado, USA
##OWNER=RRUFF
##SOURCE=University of Arizona Mineral Museum
##DESCRIPTION=Dark brown rectangular prismatic crystals
##STATUS=The identification of this mineral has been confirmed by X-ray diffraction and chemical analysis
##URL=rruff.info/R050632
##MEASURED CHEMISTRY=Fe^2+^_1.00_WO_4_
##PIN_ID=M00360
##ORIENTATION=Laser parallel to -a* (-1 0 0). Fiducial mark perpendicular to laser is parallel to b [0 1 0]
157.4550, 15238.00
158.6810, 15189.00
159.9080, 15068.00
161.1340, 15130.00
162.3590, 15357.00
163.5850, 15447.00
164.8110, 15566.00
166.0360, 15734.00
167.2610, 15641.00
168.4860, 15726.00
169.7110, 16132.00
170.9360, 16391.00
172.1610, 16918.00
173.3850, 17189.45
174.6100, 17198.00
175.8340, 17747.00
177.0580, 17460.00
178.2820, 17497.00
179.5050, 17136.00
180.7290, 16701.00
181.9520, 16240.00
183.1760, 16288.00
184.3990, 16261.00
185.6220, 16572.00
186.8450, 16451.00
188.0670, 16508.00
189.2900, 16557.00
190.5120, 16662.31
191.7340, 16839.00
192.9560, 17113.00
194.1780, 17373.19
195.4000, 17768.00
196.6220, 18095.00
197.8430, 18511.00
199.0640, 19009.00
200.2860, 19883.00
201.5070, 20831.00
202.7270, 21703.00
203.9480, 22142.00
205.1690, 21965.00
206.3890, 21777.00
207.6090, 21431.00
208.8290, 21011.00
210.0490, 20218.00
211.2690, 19588.00
212.4890, 18648.00
213.7080, 17923.00
214.9280, 17431.00
216.1470, 16997.00
217.3660, 16513.51
218.5850, 16104.00
219.8030, 15820.00
221.0220, 15648.00
222.2400, 15475.47
223.4590, 15353.00
224.6770, 15228.00
225.8950, 15132.00
227.1120, 15028.28
228.3300, 14976.22
229.5480, 14899.00
230.7650, 14905.00
231.9820, 14962.00
233.1990, 14952.00
234.4160, 14794.00
235.6330, 14913.00
236.8490, 14943.00
238.0660, 14784.00
239.2820, 14911.00
240.4980, 14961.00
241.7140, 14858.00
242.9300, 14822.00
244.1460, 15015.00
245.3610, 14944.79
246.5770, 15007.13
247.7920, 15006.00
249.0070, 15059.00
250.2220, 15083.00
251.4370, 15114.00
252.6510, 15343.00
253.8660, 15463.00
255.0800, 15559.00
256.2940, 15743.00
257.5080, 16286.00
258.7220, 16462.35
259.9360, 16567.69
261.1490, 17064.00
262.3630, 16721.00
263.5760, 16807.00
264.7890, 17071.00
266.0020, 17156.00
267.2150, 17299.00
268.4270, 17051.00
269.6400, 17134.00
270.8520, 16771.00
272.0640, 16589.00
273.2760, 16470.00
274.4880, 17160.00
275.7000, 17253.00
276.9120, 16678.00
278.1230, 16797.00
279.3340, 16372.00
280.5450, 16800.00
281.7560, 15599.00
282.9670, 15410.00
284.1780, 15455.00
285.3880, 15470.00
286.5980, 15487.00
287.8090, 15428.00
289.0190, 15549.64
290.2290, 15580.00
291.4380, 15756.00
292.6480, 15686.00
293.8570, 15756.00
295.0670, 16028.00
296.2760, 16205.00
297.4850, 16335.00
298.6930, 16364.63
299.9020, 16387.16
301.1110, 16267.00
302.3190, 16274.00
303.5270, 16183.00
304.7350, 16068.00
305.9430, 16241.00
307.1510, 16080.00
308.3580, 16176.00
309.5660, 16245.00
310.7730, 16489.00
311.9800, 16406.00
313.1870, 16757.00
314.3940, 16785.54
315.6010, 16959.00
316.8070, 17001.00
318.0130, 17588.00
319.2200, 17795.00
320.4260, 18209.00
321.6310, 18659.00
322.8370, 18893.00
324.0430, 19206.00
325.2480, 19359.32
326.4540, 19331.00
327.6590, 19442.00
328.8640, 19369.00
330.0680, 19143.00
331.2730, 18953.00
332.4780, 18605.00
333.6820, 18189.00
334.8860, 18114.00
336.0900, 17873.00
337.2940, 17753.00
338.4980, 17747.00
339.7010, 17653.00
340.9050, 17464.00
342.1080, 17483.00
343.3110, 17502.00
344.5140, 17516.00
345.7170, 17579.00
346.9200, 17356.00
348.1220, 17330.00
349.3240, 17372.00
350.5270, 17388.00
351.7290, 17146.00
352.9310, 17084.00
354.1320, 16880.00
355.3340, 17046.00
356.5350, 16889.00
357.7370, 16727.00
358.9380, 16906.00
360.1390, 16509.00
361.3400, 16808.00
362.5400, 16599.00
363.7410, 16636.00
364.9410, 16659.00
366.1410, 16784.00
367.3410, 16651.00
368.5410, 16591.00
369.7410, 16301.00
370.9400, 16391.00
372.1400, 16500.00
373.3390, 16403.00
374.5380, 16471.00
375.7370, 16328.00
376.9360, 16432.00
378.1350, 16337.00
379.3330, 16465.00
380.5310, 16295.00
381.7300, 16244.00
382.9280, 16267.00
384.1260, 16323.00
385.3230, 16366.00
386.5210, 16548.00
387.7180, 16591.72
388.9160, 16830.00
390.1130, 16784.00
391.3100, 16786.00
392.5060, 16897.00
393.7030, 17037.00
394.9000, 17091.00
396.0960, 17294.00
397.2920, 17466.00
398.4880, 17297.00
399.6840, 17429.00
400.8800, 17386.00
402.0750, 17059.00
403.2710, 16994.00
404.4660, 16961.00
405.6610, 16867.00
406.8560, 16807.00
408.0510, 16486.00
409.2450, 16467.00
410.4400, 16376.00
411.6340, 16343.00
412.8280, 16624.00
414.0220, 16460.00
415.2160, 16479.73
416.4100, 16563.00
417.6030, 16435.00
418.7970, 16315.00
419.9900, 16507.00
421.1830, 16416.00
422.3760, 16529.00
423.5690, 16710.00
424.7610, 16593.00
425.9540, 16491.00
427.1460, 16495.00
428.3380, 16482.00
429.5300, 16634.00
430.7220, 16475.00
431.9140, 16513.00
433.1050, 16660.00
434.2970, 16592.00
435.4880, 16614.00
436.6790, 16459.00
437.8700, 16641.00
439.0610, 16572.45
440.2510, 16626.18
441.4420, 16594.00
442.6320, 16706.00
443.8220, 16737.00
445.0120, 16701.00
446.2020, 16767.00
447.3910, 16781.00
448.5810, 16637.00
449.7700, 16573.00
450.9600, 16605.00
452.1490, 16693.00
453.3370, 16644.00
454.5260, 16787.00
455.7150, 16771.00
456.9030, 16821.00
458.0910, 16751.00
459.2800, 16713.00
460.4670, 16761.50
461.6550, 16897.00
462.8430, 16878.00
464.0300, 16862.00
465.2180, 17014.00
466.4050, 16997.00
467.5920, 16972.00
468.7790, 17064.00
469.9650, 17081.00
471.1520, 17083.00
472.3380, 16974.00
473.5250, 17147.00
474.7110, 17133.00
475.8970, 17030.00
477.0820, 17062.00
478.2680, 18016.00
479.4540, 18193.00
480.6390, 18294.00
481.8240, 18296.00
483.0090, 18365.00
484.1940, 17905.00
485.3780, 18379.00
486.5630, 18880.00
487.7470, 18572.00
488.9320, 18981.00
490.1160, 18480.00
491.3000, 18616.00
492.4830, 18558.00
493.6670, 18523.00
494.8500, 18691.00
496.0340, 18181.00
497.2170, 18244.00
498.4000, 18317.00
499.5820, 18252.00
500.7650, 18414.00
501.9480, 18471.00
503.1300, 18578.00
504.3120, 18780.00
505.4940, 18884.00
506.6760, 18873.00
507.8580, 18919.97
509.0390, 18880.00
510.2210, 18829.00
511.4020, 18727.00
512.5830, 18633.00
513.7640, 18648.00
514.9450, 18605.00
516.1250, 18570.00
517.3060, 18711.00
518.4860, 18503.00
519.6660, 18753.00
520.8460, 18999.00
522.0260, 18859.71
523.2060, 18744.00
524.3850, 18783.00
525.5650, 18764.00
526.7440, 18723.00
527.9230, 18728.00
529.1020, 18688.00
530.2810, 18633.00
531.4590, 18887.00
532.6380, 18876.00
533.8160, 18860.00
534.9940, 18474.00
536.1720, 18585.00
537.3500, 18511.00
538.5270, 18491.00
539.7050, 18539.00
540.8820, 18514.00
542.0590, 18603.00
543.2360, 18214.00
544.4130, 18249.00
545.5900, 18153.00
546.7660, 18118.00
547.9430, 18216.00
549.1190, 18183.00
550.2950, 18262.00
551.4710, 18274.00
552.6470, 18215.00
553.8220, 18123.00
554.9980, 18031.00
556.1730, 18059.00
557.3480, 18093.00
558.5230, 17956.00
559.6980, 17903.00
560.8730, 18026.00
562.0470, 17884.00
563.2220, 18015.00
564.3960, 18051.00
565.5700, 18060.00
566.7440, 18098.00
567.9170, 17959.00
569.0910, 17832.00
570.2640, 17968.00
571.4380, 18048.00
572.6110, 18023.00
573.7840, 18016.00
574.9570, 17775.00
576.1290, 17842.00
577.3020, 17721.00
578.4740, 17581.00
579.6460, 17761.00
580.8180, 17723.00
581.9900, 17631.00
583.1620, 17613.00
584.3330, 17375.00
585.5040, 17571.00
586.6760, 17371.00
587.8470, 17496.00
589.0180, 17367.00
590.1880, 17556.00
591.3590, 17284.00
592.5290, 17451.00
593.7000, 17500.00
594.8700, 17518.00
596.0400, 17522.00
597.2090, 17563.54
598.3790, 17579.74
599.5490, 17588.00
600.7180, 17613.00
601.8870, 17553.00
603.0560, 17518.00
604.2250, 17464.00
605.3940, 17452.00
606.5620, 17555.00
607.7300, 17625.00
608.8990, 17518.00
610.0670, 17718.00
611.2350, 17678.00
612.4020, 17733.00
613.5700, 17658.00
614.7370, 17638.00
615.9050, 17660.00
617.0720, 17824.00
618.2390, 17789.54
619.4060, 17842.00
620.5720, 17800.00
621.7390, 17779.45
622.9050, 17851.00
624.0710, 17716.00
625.2370, 17756.00
626.4030, 17748.00
627.5690, 17866.00
628.7340, 17853.00
629.9000, 17819.00
631.0650, 17918.00
632.2300, 17926.00
633.3950, 17890.00
634.5600, 17956.00
635.7240, 17975.00
636.8890, 18004.86
638.0530, 18027.00
639.2170, 18110.00
640.3810, 18113.00
641.5450, 18208.00
642.7080, 18133.00
643.8720, 18102.00
645.0350, 18136.00
646.1980, 18208.00
647.3610, 18140.00
648.5240, 18186.00
649.6870, 18456.00
650.8490, 18320.00
652.0120, 18432.00
653.1740, 18502.00
654.3360, 18374.00
655.4980, 18761.00
656.6600, 18751.00
657.8210, 18713.00
658.9830, 18957.00
660.1440, 18891.00
661.3050, 19018.00
662.4660, 19309.00
663.6270, 19195.00
664.7870, 19218.00
665.9480, 19375.00
667.1080, 19563.00
668.2680, 19668.00
669.4280, 19713.00
670.5880, 19998.00
671.7480, 20134.00
672.9070, 20109.00
674.0670, 20592.00
675.2260, 20787.00
676.3850, 20814.00
677.5440, 21037.00
678.7030, 21351.00
679.8610, 21554.00
681.0200, 21684.00
682.1780, 22074.00
683.3360, 22169.00
684.4940, 22403.00
685.6520, 22415.00
686.8090, 22397.00
687.9670, 22505.00
689.1240, 22247.00
690.2810, 22117.00
691.4380, 22121.00
692.5950, 21810.00
693.7520, 21559.00
694.9080, 21278.00
696.0650, 21062.00
697.2210, 20817.00
698.3770, 20630.00
699.5330, 20453.00
700.6880, 20400.00
701.8440, 20118.21
702.9990, 20074.08
704.1550, 19648.00
705.3100, 19760.00
706.4650, 19601.00
707.6190, 19135.00
708.7740, 19308.00
709.9290, 19331.00
711.0830, 19097.00
712.2370, 18931.00
713.3910, 18973.00
714.5450, 18867.00
715.6980, 18855.00
716.8520, 18757.00
718.0050, 18766.00
719.1580, 18703.23
720.3110, 18702.00
721.4640, 18634.00
722.6170, 18586.00
723.7700, 18606.00
724.9220, 18629.00
726.0740, 18673.00
727.2260, 18646.34
728.3780, 18627.00
729.5300, 18618.00
730.6810, 18515.00
731.8330, 18537.00
732.9840, 18674.00
734.1350, 18506.00
735.2860, 18557.00
736.4370, 18728.00
737.5880, 18720.00
738.7380, 18585.00
739.8880, 18789.00
741.0390, 18797.00
742.1890, 18613.00
743.3380, 18633.00
744.4880, 18546.00
745.6380, 18707.00
746.7870, 18784.00
747.9360, 18647.00
749.0850, 18601.00
750.2340, 18866.00
751.3830, 18676.00
752.5310, 18916.00
753.6800, 18816.00
754.8280, 18887.00
755.9760, 18969.00
757.1240, 18877.00
758.2720, 19719.00
759.4190, 19189.00
760.5670, 19137.00
761.7140, 19688.00
762.8610, 19190.00
764.0080, 18807.00
765.1550, 18965.00
766.3020, 19186.00
767.4480, 19134.00
768.5950, 19214.00
769.7410, 19205.00
770.8870, 19200.03
772.0330, 19384.00
773.1780, 19135.00
774.3240, 19046.00
775.4690, 18887.00
776.6140, 18958.00
777.7590, 19022.00
778.9040, 19004.00
780.0490, 18912.00
781.1940, 18870.00
782.3380, 18731.00
783.4820, 18842.00
784.6260, 18893.00
785.7700, 18776.00
786.9140, 18809.00
788.0580, 18902.00
789.2010, 18907.00
790.3450, 18915.00
791.4880, 18925.00
792.6310, 18808.00
793.7730, 19028.00
794.9160, 18888.00
796.0590, 18816.00
797.2010, 18679.00
798.3430, 18737.00
799.4850, 18739.00
800.6270, 18791.00
801.7690, 18818.92
802.9100, 18829.58
804.0520, 18876.00
805.1930, 18876.15
806.3340, 18891.32
807.4750, 18958.00
808.6160, 18873.00
809.7560, 18764.00
810.8970, 18843.00
812.0370, 18786.20
813.1770, 19033.00
814.3170, 18816.00
815.4570, 19029.00
816.5960, 19076.00
817.7360, 19076.00
818.8750, 19076.00
820.0140, 19044.00
821.1530, 19133.00
822.2920, 19379.00
823.4310, 19297.00
824.5690, 19495.00
825.7070, 19347.00
826.8460, 19417.00
827.9840, 19486.00
829.1220, 19374.00
830.2590, 19572.00
831.3970, 19767.00
832.5340, 19703.00
833.6710, 19755.00
834.8080, 19935.00
835.9450, 20106.00
837.0820, 20200.00
838.2190, 20210.00
839.3550, 20607.00
840.4910, 20625.00
841.6270, 20675.00
842.7630, 20891.00
843.8990, 21208.00
845.0350, 21213.00
846.1700, 21553.00
847.3060, 21842.00
848.4410, 22095.00
849.5760, 22513.00
850.7100, 22900.00
851.8450, 22998.00
852.9800, 23654.00
854.1140, 24139.00
855.2480, 24837.00
856.3820, 25442.00
857.5160, 26303.81
858.6500, 27128.00
859.7830, 28260.00
860.9170, 29357.36
862.0500, 30603.00
863.1830, 32253.00
864.3160, 34190.00
865.4480, 36489.00
866.5810, 38789.00
867.7130, 41673.00
868.8460, 44732.00
869.9780, 47914.00
871.1100, 50997.00
872.2410, 53594.00
873.3730, 55651.00
874.5050, 56531.00
875.6360, 56135.00
876.7670, 54967.00
877.8980, 52919.00
879.0290, 49423.00
880.1590, 46642.00
881.2900, 42865.00
882.4200, 40083.00
883.5500, 37272.00
884.6800, 34946.00
885.8100, 32911.00
886.9400, 30938.00
888.0690, 29272.00
889.1990, 28252.00
890.3280, 26785.00
891.4570, 25943.00
892.5860, 25162.00
893.7140, 24303.00
894.8430, 23969.00
895.9710, 23315.00
897.1000, 22947.00
898.2280, 22560.00
899.3560, 22243.00
900.4830, 21983.00
901.6110, 21676.00
902.7380, 21454.88
903.8660, 21263.30
904.9930, 21041.00
906.1200, 20936.00
907.2460, 20771.00
908.3730, 20595.00
909.5000, 20557.00
910.6260, 20286.00
911.7520, 20220.00
912.8780, 20380.00
914.0040, 20154.00
915.1290, 20108.00
916.2550, 20001.00
917.3800, 20023.00
918.5050, 20058.00
919.6300, 19814.00
920.7550, 19957.00
921.8800, 19815.00
923.0040, 19641.00
924.1290, 19806.00
925.2530, 19562.00
926.3770, 19681.00
927.5010, 19682.00
928.6250, 19500.00
929.7480, 19666.00
930.8720, 19609.00
931.9950, 19590.00
933.1180, 19597.00
934.2410, 19684.00
935.3640, 19670.00
936.4860, 19651.00
937.6090, 19463.00
938.7310, 19472.00
939.8530, 19442.48
940.9750, 19511.00
942.0970, 19434.00
943.2180, 19475.00
944.3400, 19425.00
945.4610, 19472.00
946.5820, 19458.00
947.7030, 19455.00
948.8240, 19598.00
949.9450, 19381.00
951.0650, 19547.00
952.1860, 19474.00
953.3060, 19382.00
954.4260, 19554.00
955.5460, 19548.00
956.6650, 19511.00
957.7850, 19434.00
958.9040, 19615.00
960.0230, 19584.00
961.1420, 19438.00
962.2610, 19678.00
963.3800, 19423.00
964.4990, 19628.00
965.6170, 19725.00
966.7350, 19475.57
967.8530, 19727.00
968.9710, 19522.00
970.0890, 19546.00
971.2070, 19578.33
972.3240, 19636.00
973.4410, 19578.00
974.5580, 19649.00
975.6750, 19676.00
976.7920, 19489.00
977.9090, 19628.00
979.0250, 19690.00
980.1410, 19475.00
981.2580, 19695.00
982.3740, 19638.00
983.4890, 19624.00
984.6050, 19770.00
985.7200, 19799.00
986.8360, 19892.00
987.9510, 19850.00
989.0660, 19572.00
990.1810, 19690.00
991.2950, 19499.00
992.4100, 19742.00
993.5240, 19763.00
994.6390, 19882.00
995.7530, 19892.00
996.8660, 19958.00
997.9800, 19874.00
999.0940, 19787.00
1000.207, 19961.00
1001.320, 19927.00
1002.433, 19713.00
1003.546, 19967.00
1004.659, 19823.00
1005.772, 19963.00
1006.884, 19696.00
1007.996, 20021.00
1009.108, 19949.00
1010.220, 19679.00
1011.332, 19847.00
1012.444, 20026.00
1013.555, 19855.00
1014.666, 19923.00
1015.777, 19963.00
1016.888, 19863.00
1017.999, 19976.00
1019.110, 20122.00
1020.220, 20074.00
1021.331, 19989.00
1022.441, 20036.00
1023.551, 19971.00
1024.661, 19871.00
1025.770, 20170.00
1026.880, 19977.00
1027.989, 20030.00
1029.098, 19937.00
1030.207, 19990.00
1031.316, 20043.00
1032.425, 20076.00
1033.533, 19946.00
1034.642, 19983.00
1035.750, 19852.00
1036.858, 20057.00
1037.966, 19779.00
1039.073, 19973.00
1040.181, 20172.00
1041.288, 19957.00
1042.396, 20216.00
1043.503, 20005.00
1044.610, 20082.00
1045.716, 19984.00
1046.823, 20008.00
1047.929, 20112.00
1049.036, 20092.89
1050.142, 20126.20
1051.248, 20228.00
1052.353, 20095.00
1053.459, 20241.00
1054.564, 20147.00
1055.670, 20157.73
1056.775, 20264.00
1057.880, 20115.00
1058.985, 20178.00
1060.089, 20080.00
1061.194, 20040.00
1062.298, 20090.00
1063.402, 20384.00
1064.506, 20290.00
1065.610, 20195.00
1066.713, 20373.00
1067.817, 20166.00
1068.920, 20165.00
1070.023, 20261.00
1071.126, 20152.00
1072.229, 20227.59
1073.332, 20406.00
1074.435, 20271.00
1075.537, 20261.00
1076.639, 20246.00
1077.741, 20274.00
1078.843, 20285.00
1079.945, 20276.51
1081.046, 20266.00
1082.148, 20247.00
1083.249, 20225.88
1084.350, 20254.00
1085.451, 20195.00
1086.551, 20158.00
1087.652, 20188.00
1088.752, 20041.00
1089.853, 20325.00
1090.953, 20220.00
1092.053, 20232.00
1093.152, 19998.00
1094.252, 20122.00
1095.351, 20208.00
1096.451, 20132.00
1097.550, 20254.00
1098.649, 19918.00
1099.748, 20064.00
1100.846, 20230.00
1101.945, 19945.00
1103.043, 20009.00
1104.141, 20078.00
1105.239, 20085.00
1106.337, 20142.00
1107.434, 20029.00
1108.532, 20053.00
1109.629, 20131.00
1110.726, 19942.00
1111.823, 20035.00
1112.920, 20040.00
1114.017, 20140.00
1115.113, 20207.00
1116.210, 20415.00
1117.306, 20634.00
1118.402, 20518.00
1119.498, 20982.00
1120.593, 21082.00
1121.689, 21149.00
1122.784, 21134.00
1123.879, 21261.00
1124.974, 21083.30
1126.069, 21170.00
1127.164, 20816.00
1128.259, 20404.00
1129.353, 20419.00
1130.447, 20318.00
1131.541, 20097.00
1132.635, 19920.00
1133.729, 19987.00
1134.822, 19756.00
1135.916, 19905.00
1137.009, 19919.00
1138.102, 19887.00
1139.195, 19760.00
1140.288, 19875.00
1141.380, 19667.00
1142.473, 19808.00
1143.565, 19795.00
1144.657, 19749.00
1145.749, 19891.00
1146.841, 19834.00
1147.932, 19722.00
1149.024, 19792.00
1150.115, 19890.00
1151.206, 19864.00
1152.297, 19748.00
1153.388, 19807.00
1154.479, 19771.04
1155.569, 19881.00
1156.659, 19772.00
1157.750, 19731.00
1158.839, 19691.00
1159.929, 19709.00
1161.019, 19715.59
1162.108, 19776.00
1163.198, 19823.00
1164.287, 19658.00
1165.376, 19778.00
1166.465, 19716.00
1167.553, 19649.00
1168.642, 19774.00
1169.730, 19565.00
1170.818, 19704.00
1171.906, 19766.00
1172.994, 19872.00
1174.082, 19894.22
1175.170, 19896.09
1176.257, 19882.00
1177.344, 19839.00
1178.431, 19769.00
1179.518, 19733.00
1180.605, 19739.47
1181.691, 19915.00
1182.778, 19760.00
1183.864, 19795.00
1184.950, 19766.00
1186.036, 19671.00
1187.122, 19622.00
1188.207, 19745.00
1189.292, 19742.00
1190.378, 19769.00
1191.463, 19727.00
1192.548, 19833.00
1193.632, 19766.00
1194.717, 19675.00
1195.801, 19907.00
1196.886, 19692.00
1197.970, 19580.00
1199.054, 19954.00
1200.137, 19754.00
1201.221, 19713.00
1202.305, 19726.00
1203.388, 19755.00
1204.471, 19672.00
1205.554, 19650.00
1206.637, 19701.65
1207.719, 19597.00
1208.802, 19827.00
1209.884, 19714.00
1210.966, 19800.00
1212.048, 19852.00
1213.130, 19759.00
1214.212, 19822.00
1215.293, 19796.66
1216.374, 19651.00
1217.456, 19834.00
1218.536, 19729.00
1219.617, 19851.00
1220.698, 19810.00
1221.778, 19733.00
1222.859, 19878.00
1223.939, 19563.00
1225.019, 19762.00
1226.099, 19751.00
1227.178, 19783.00
1228.258, 19777.00
1229.337, 19753.88
1230.417, 19772.79
1231.496, 19725.00
1232.574, 19773.00
1233.653, 19831.00
1234.732, 19823.00
1235.810, 19956.00
1236.888, 19811.00
1237.966, 19889.00
1239.044, 19678.00
1240.122, 19774.00
1241.199, 19743.00
1242.277, 19754.00
1243.354, 19882.00
1244.431, 19746.00
1245.508, 19773.00
1246.585, 19889.00
1247.661, 19830.00
1248.738, 19612.00
1249.814, 19787.00
1250.890, 19802.00
1251.966, 19630.00
1253.042, 19943.00
1254.117, 19742.00
1255.193, 19791.00
1256.268, 19797.00
1257.343, 19695.00
1258.418, 19888.00
1259.493, 19700.00
1260.567, 19759.00
1261.642, 19734.00
1262.716, 19873.00
1263.790, 19768.00
1264.864, 19757.00
1265.938, 19790.00
1267.011, 19623.00
1268.085, 19815.00
1269.158, 19707.00
1270.231, 19706.00
1271.304, 19731.00
1272.377, 19708.00
1273.450, 19833.00
1274.522, 19729.00
1275.594, 19836.00
1276.666, 19705.00
1277.738, 19787.00
1278.810, 19671.00
1279.882, 19788.00
1280.953, 19821.00
1282.025, 19915.00
1283.096, 19782.00
1284.167, 19797.00
1285.238, 19780.00
1286.308, 19791.00
1287.379, 19834.00
1288.449, 19805.00
1289.519, 19810.67
1290.589, 19840.28
1291.659, 19779.00
1292.729, 19886.00
1293.798, 19877.00
1294.868, 19667.66
1295.937, 19919.61
1297.006, 20058.62
1298.075, 20090.76
1299.143, 19695.94
1300.212, 19852.45
1301.280, 19788.02
1302.348, 19714.53
1303.416, 19948.63
1304.484, 19615.92
1305.552, 19845.16
1306.620, 19850.07
1307.687, 19957.65
1308.754, 19842.93
1309.821, 19796.87
1310.888, 19973.19
1311.955, 20026.37
1313.021, 19886.06
1314.088, 20000.17
1315.154, 19659.71
1316.220, 19718.14
1317.286, 19785.00
1318.352, 19942.00
1319.417, 19921.00
1320.483, 19821.00
1321.548, 19896.00
1322.613, 19888.00
1323.678, 19833.00
1324.743, 19768.00
1325.807, 19834.00
1326.872, 19868.00
1327.936, 19769.60
1329.000, 19842.88
1330.064, 19690.00
1331.128, 19805.00
1332.191, 19774.55
1333.255, 20032.68
1334.318, 20177.87
1335.381, 20216.19
1336.444, 19827.55
1337.507, 19990.24
1338.569, 19931.98
1339.632, 19864.66
1340.694, 20104.95
1341.756, 19778.41
1342.818, 20013.82
1343.880, 20024.90
1344.941, 20138.66
1346.003, 20030.10
1347.064, 19990.21
1348.125, 20172.70
1349.186, 20232.05
1350.247, 20097.90
1351.308, 20218.18
1352.368, 19883.88
1353.428, 19948.47
1354.489, 20185.18
1355.549, 20062.21
1356.608, 20186.55
1357.668, 20216.71
1358.727, 19818.80
1359.787, 20165.33
1360.846, 20189.91
1361.905, 19883.93
1362.964, 20204.96
1364.022, 19944.54
1365.081, 19891.67
1366.139, 19994.98
1367.197, 19935.48
1368.255, 20132.67
1369.313, 20082.56
1370.371, 20010.37
1371.428, 20034.59
1372.486, 19785.58
1373.543, 20043.48
1374.600, 19955.11
1375.657, 20038.87
1376.713, 20161.63
1377.770, 19985.68
1378.826, 20125.97
1379.882, 19775.84
1380.938, 19836.07
1381.994, 19852.11
1383.050, 20130.44
1384.106, 19782.70
1385.161, 19831.52
1386.216, 20049.20
1387.271, 20030.61
1388.326, 20110.80
1389.381, 19898.56
1390.435, 19961.05
1391.490, 19947.80
1392.544, 20196.23
1393.598, 20238.08
1394.652, 20030.80
1395.705, 19824.58
1396.759, 20050.00
1397.812, 20050.00
1398.866, 20095.00
1399.919, 20071.00
1400.972, 19970.00
1402.024, 19982.00
1403.077, 19893.00
1404.129, 20022.00
1405.181, 19939.00
1406.233, 19951.00
1407.285, 19946.00
1408.337, 20056.00
1409.389, 19979.00
1410.440, 20012.00
1411.491, 20027.00
1412.542, 20019.00
1413.593, 19939.00
1414.644, 20002.33
1415.695, 20012.00
1416.745, 20083.00
1417.795, 20107.00
1418.845, 20155.92
1419.895, 20165.39
1420.945, 20070.00
1421.995, 20169.00
1423.044, 20036.00
1424.093, 20029.00
1425.142, 19996.00
1426.191, 19973.00
1427.240, 20142.00
1428.289, 20113.00
1429.337, 19953.00
1430.385, 20106.00
1431.433, 19951.00
1432.481, 19920.00
1433.529, 20096.00
1434.577, 20043.00
1435.624, 20075.00
1436.672, 20209.00
1437.719, 20168.00
1438.766, 20104.00
1439.812, 20075.00
1440.859, 20089.00
1441.905, 20124.00
1442.952, 20091.00
1443.998, 20127.00
1445.044, 20134.00
1446.090, 20074.00
1447.135, 19929.00
1448.181, 20128.00
1449.226, 19953.00
1450.271, 20262.00
1451.316, 20157.00
1452.361, 19987.00
1453.405, 20080.00
1454.450, 20059.00
1455.494, 20213.00
1456.538, 20096.00
1457.582, 20177.00
1458.626, 20158.00
1459.670, 20194.00
1460.713, 20076.00
1461.757, 20006.00
1462.800, 20175.00
1463.843, 20195.00
1464.886, 20071.00
1465.928, 20253.00
1466.971, 20254.00
1468.013, 20130.00
1469.055, 20148.00
1470.097, 19994.00
1471.139, 20253.00
1472.181, 20213.00
1473.222, 20168.00
1474.263, 20275.00
1475.305, 20016.00
1476.346, 20076.00
1477.386, 20183.00
1478.427, 20267.00
1479.468, 20331.01
1480.508, 20326.10
1481.548, 20443.00
1482.588, 20217.27
1483.628, 20207.00
1484.668, 20055.00
1485.707, 20180.00
1486.747, 20182.00
1487.786, 20450.00
1488.825, 19979.00
1489.864, 20238.00
1490.902, 20122.00
1491.941, 20186.00
1492.979, 20169.00
1494.017, 20166.00
1495.055, 20202.00
1496.093, 20096.00
1497.131, 20148.00
1498.168, 20309.00
1499.206, 20224.59
1500.243, 20295.97
1501.280, 20182.00
1502.317, 20308.00
1503.354, 20244.00
1504.390, 20246.04
1505.426, 20249.00
1506.463, 20237.48
1507.499, 20245.24
1508.535, 20247.00
1509.570, 20244.00
1510.606, 20229.00
1511.641, 20210.00
1512.676, 20197.00
1513.711, 20331.00
1514.746, 20054.00
1515.781, 20379.00
1516.816, 20155.00
1517.850, 20480.00
1518.884, 20256.00
1519.918, 20580.00
1520.952, 20433.83
1521.986, 20322.00
1523.019, 20272.00
1524.053, 20220.00
1525.086, 20297.00
1526.119, 20278.00
1527.152, 20329.00
1528.185, 20260.00
1529.217, 20434.00
1530.250, 20192.00
1531.282, 20320.00
1532.314, 20230.00
1533.346, 20344.00
1534.377, 20228.00
1535.409, 20345.00
1536.440, 20288.11
1537.472, 20257.00
1538.503, 20284.00
1539.534, 20211.00
1540.564, 20368.00
1541.595, 20125.75
1542.625, 20383.15
1543.656, 20527.61
1544.686, 20565.20
1545.716, 20175.83
1546.745, 20337.79
1547.775, 20278.80
1548.804, 20210.75
1549.834, 20450.31
1550.863, 20123.04
1551.892, 20357.72
1552.920, 20368.08
1553.949, 20481.11
1554.977, 20371.82
1556.006, 20331.20
1557.034, 20512.96
1558.062, 20571.59
1559.089, 20436.71
1560.117, 20556.26
1561.144, 20221.23
1562.172, 20285.10
1563.199, 20521.08
1564.226, 20422.00
1565.252, 20485.00
1566.279, 20383.00
1567.305, 20506.00
1568.332, 20492.00
1569.358, 20474.00
1570.384, 20435.00
1571.409, 20394.00
##END=



