##NAMES=Ferberite
##RRUFFID=R040044
##IDEAL CHEMISTRY=Fe^2+^W^6+^O_4_
##LOCALITY=Chocote, Bolivia
##OWNER=RRUFF
##SOURCE=University of Arizona Mineral Museum
##DESCRIPTION=Black tabular single crystal
##STATUS=The identification of this mineral has been confirmed by X-ray diffraction and chemical analysis
##URL=rruff.info/R040044
##MEASURED CHEMISTRY=(Fe_0.82_Mn_0.08_Mg_0.07_Pb_0.03_)_Î£=1_W_1.00_O_4_
##PIN_ID=M00030
##ORIENTATION=Laser parallel to -c* (0 0 -1). Fiducial mark perpendicular to laser is parallel to a [1 0 0]
164.8110, 32908.00
166.0360, 32825.00
167.2610, 32716.00
168.4860, 32790.00
169.7110, 33100.00
170.9360, 32928.00
172.1610, 33395.00
173.3850, 32982.00
174.6100, 32701.00
175.8340, 32770.00
177.0580, 32589.00
178.2820, 32415.00
179.5050, 32349.00
180.7290, 32473.33
181.9520, 32779.00
183.1760, 32814.00
184.3990, 32907.00
185.6220, 32922.00
186.8450, 33160.00
188.0670, 33090.00
189.2900, 33371.00
190.5120, 33583.00
191.7340, 33926.00
192.9560, 33924.00
194.1780, 34473.00
195.4000, 34319.00
196.6220, 34388.00
197.8430, 34869.00
199.0640, 34947.00
200.2860, 35393.00
201.5070, 35594.00
202.7270, 35364.00
203.9480, 34488.00
205.1690, 34118.00
206.3890, 33806.00
207.6090, 33486.00
208.8290, 33322.00
210.0490, 33476.00
211.2690, 33408.70
212.4890, 33298.39
213.7080, 33267.82
214.9280, 33091.00
216.1470, 32976.00
217.3660, 32941.00
218.5850, 32672.00
219.8030, 32620.00
221.0220, 32351.00
222.2400, 32453.00
223.4590, 32326.00
224.6770, 32243.25
225.8950, 32229.00
227.1120, 32227.00
228.3300, 32008.00
229.5480, 32240.00
230.7650, 32208.00
231.9820, 32289.00
233.1990, 32465.00
234.4160, 32351.00
235.6330, 32034.00
236.8490, 32242.00
238.0660, 32078.00
239.2820, 31916.00
240.4980, 32115.00
241.7140, 32132.00
242.9300, 32178.00
244.1460, 32167.00
245.3610, 31924.00
246.5770, 32293.00
247.7920, 32214.00
249.0070, 32040.00
250.2220, 32332.00
251.4370, 32026.00
252.6510, 32614.01
253.8660, 32732.86
255.0800, 32808.11
256.2940, 32842.13
257.5080, 32711.41
258.7220, 32793.42
259.9360, 32790.18
261.1490, 32783.42
262.3630, 32895.36
263.5760, 32788.59
264.7890, 32898.64
266.0020, 33045.00
267.2150, 32965.00
268.4270, 33151.00
269.6400, 32812.00
270.8520, 32679.00
272.0640, 32710.00
273.2760, 32854.00
274.4880, 33024.00
275.7000, 33025.00
276.9120, 32854.00
278.1230, 32865.00
279.3340, 32834.00
280.5450, 32964.00
281.7560, 32873.00
282.9670, 32602.00
284.1780, 32842.00
285.3880, 32765.00
286.5980, 32881.00
287.8090, 32745.00
289.0190, 32946.00
290.2290, 32869.00
291.4380, 33290.00
292.6480, 33101.00
293.8570, 33230.00
295.0670, 33063.00
296.2760, 33077.00
297.4850, 33462.00
298.6930, 33440.00
299.9020, 33304.00
301.1110, 33430.00
302.3190, 33406.00
303.5270, 33514.00
304.7350, 33538.00
305.9430, 33836.00
307.1510, 33905.00
308.3580, 34180.00
309.5660, 34270.34
310.7730, 34338.11
311.9800, 34469.00
313.1870, 34531.00
314.3940, 34655.00
315.6010, 34992.00
316.8070, 35324.00
318.0130, 35652.00
319.2200, 35984.00
320.4260, 36317.00
321.6310, 36193.00
322.8370, 36561.00
324.0430, 36947.00
325.2480, 36834.00
326.4540, 37189.00
327.6590, 37037.00
328.8640, 36955.00
330.0680, 36871.00
331.2730, 36618.00
332.4780, 36510.00
333.6820, 36311.46
334.8860, 36173.00
336.0900, 35911.00
337.2940, 35774.00
338.4980, 35553.24
339.7010, 35401.00
340.9050, 35253.00
342.1080, 35233.00
343.3110, 35112.00
344.5140, 35124.00
345.7170, 35045.00
346.9200, 35222.00
348.1220, 34811.00
349.3240, 34842.00
350.5270, 34546.00
351.7290, 34518.00
352.9310, 34647.00
354.1320, 34513.00
355.3340, 34696.00
356.5350, 34534.00
357.7370, 34230.00
358.9380, 34484.00
360.1390, 34500.00
361.3400, 34510.00
362.5400, 34672.00
363.7410, 34557.00
364.9410, 34668.00
366.1410, 34597.00
367.3410, 34518.00
368.5410, 34474.00
369.7410, 34662.00
370.9400, 34513.00
372.1400, 34929.00
373.3390, 34793.00
374.5380, 34572.00
375.7370, 34758.00
376.9360, 34633.00
378.1350, 34877.00
379.3330, 34723.00
380.5310, 34883.00
381.7300, 34930.00
382.9280, 35164.00
384.1260, 35278.00
385.3230, 35554.00
386.5210, 35521.00
387.7180, 35827.00
388.9160, 36332.00
390.1130, 36164.00
391.3100, 36714.00
392.5060, 37004.00
393.7030, 37144.00
394.9000, 37454.00
396.0960, 37698.00
397.2920, 37902.00
398.4880, 37642.00
399.6840, 37449.00
400.8800, 37223.00
402.0750, 36822.00
403.2710, 36877.00
404.4660, 36393.00
405.6610, 36212.00
406.8560, 36107.00
408.0510, 36102.00
409.2450, 35666.00
410.4400, 35790.00
411.6340, 35464.00
412.8280, 35346.00
414.0220, 35610.00
415.2160, 35271.00
416.4100, 35201.00
417.6030, 35387.00
418.7970, 35329.00
419.9900, 35527.00
421.1830, 35299.00
422.3760, 35342.00
423.5690, 35370.00
424.7610, 35434.00
425.9540, 35317.00
427.1460, 35476.00
428.3380, 35325.00
429.5300, 35516.00
430.7220, 35569.37
431.9140, 35568.29
433.1050, 35703.00
434.2970, 35698.00
435.4880, 35603.00
436.6790, 35773.00
437.8700, 35479.00
439.0610, 35842.00
440.2510, 35753.00
441.4420, 35793.00
442.6320, 35914.00
443.8220, 35662.00
445.0120, 35565.00
446.2020, 35759.00
447.3910, 35983.00
448.5810, 35642.00
449.7700, 35663.00
450.9600, 35920.00
452.1490, 35924.00
453.3370, 35995.00
454.5260, 35908.00
455.7150, 35754.00
456.9030, 35844.16
458.0910, 36103.00
459.2800, 35974.00
460.4670, 36039.00
461.6550, 36234.00
462.8430, 36003.00
464.0300, 36276.00
465.2180, 36266.00
466.4050, 36226.00
467.5920, 36170.00
468.7790, 36164.00
469.9650, 36194.00
471.1520, 36205.55
472.3380, 36301.41
473.5250, 36252.00
474.7110, 36471.00
475.8970, 36421.00
477.0820, 36387.00
478.2680, 36771.00
479.4540, 36705.00
480.6390, 36688.00
481.8240, 36820.00
483.0090, 36562.00
484.1940, 36936.00
485.3780, 37249.00
486.5630, 37007.00
487.7470, 37153.00
488.9320, 37061.00
490.1160, 36899.00
491.3000, 37095.00
492.4830, 37220.00
493.6670, 37277.00
494.8500, 37348.00
496.0340, 37204.00
497.2170, 37369.00
498.4000, 37149.00
499.5820, 37251.00
500.7650, 37265.00
501.9480, 37609.00
503.1300, 37764.00
504.3120, 37707.00
505.4940, 37946.00
506.6760, 38089.00
507.8580, 38108.07
509.0390, 38107.00
510.2210, 38169.00
511.4020, 38200.00
512.5830, 38126.00
513.7640, 38388.00
514.9450, 38352.00
516.1250, 38618.00
517.3060, 38730.00
518.4860, 38490.00
519.6660, 38707.00
520.8460, 38903.00
522.0260, 39138.00
523.2060, 39069.00
524.3850, 39358.00
525.5650, 39293.00
526.7440, 39347.00
527.9230, 39481.00
529.1020, 39567.00
530.2810, 39314.00
531.4590, 39385.00
532.6380, 39409.00
533.8160, 39185.00
534.9940, 39444.00
536.1720, 39608.00
537.3500, 39329.00
538.5270, 39264.00
539.7050, 39249.00
540.8820, 39082.00
542.0590, 39137.00
543.2360, 39207.00
544.4130, 39193.55
545.5900, 39260.26
546.7660, 39390.00
547.9430, 39307.00
549.1190, 39568.00
550.2950, 39537.00
551.4710, 38771.00
552.6470, 38592.00
553.8220, 38798.00
554.9980, 38827.00
556.1730, 38482.00
557.3480, 38748.00
558.5230, 38312.00
559.6980, 38315.00
560.8730, 38376.00
562.0470, 38252.00
563.2220, 38318.00
564.3960, 38324.00
565.5700, 38225.00
566.7440, 38201.00
567.9170, 38190.00
569.0910, 38252.00
570.2640, 38395.00
571.4380, 38201.00
572.6110, 38216.00
573.7840, 37721.00
574.9570, 37857.00
576.1290, 37775.00
577.3020, 37959.00
578.4740, 37446.00
579.6460, 37635.00
580.8180, 37287.00
581.9900, 37416.00
583.1620, 37273.00
584.3330, 37214.00
585.5040, 37396.00
586.6760, 37325.00
587.8470, 37181.00
589.0180, 37121.00
590.1880, 36988.00
591.3590, 37091.00
592.5290, 37208.00
593.7000, 37151.00
594.8700, 37176.00
596.0400, 36891.00
597.2090, 36943.00
598.3790, 36953.82
599.5490, 36946.11
600.7180, 37126.00
601.8870, 37107.00
603.0560, 37256.00
604.2250, 37336.00
605.3940, 37031.00
606.5620, 37213.00
607.7300, 37203.00
608.8990, 37295.00
610.0670, 37293.00
611.2350, 37453.00
612.4020, 37221.00
613.5700, 37140.00
614.7370, 37115.00
615.9050, 37307.00
617.0720, 37351.00
618.2390, 37262.00
619.4060, 37218.00
620.5720, 37523.00
621.7390, 37543.00
622.9050, 37400.00
624.0710, 37325.00
625.2370, 37322.00
626.4030, 37303.00
627.5690, 37554.00
628.7340, 37358.00
629.9000, 37216.00
631.0650, 37426.00
632.2300, 37622.00
633.3950, 37700.00
634.5600, 37708.00
635.7240, 37551.00
636.8890, 37466.00
638.0530, 37319.00
639.2170, 37357.00
640.3810, 37350.46
641.5450, 38115.00
642.7080, 37631.00
643.8720, 37357.00
645.0350, 37817.00
646.1980, 37362.00
647.3610, 37363.00
648.5240, 37475.00
649.6870, 37605.00
650.8490, 37663.00
652.0120, 37614.57
653.1740, 37587.00
654.3360, 37638.80
655.4980, 37775.00
656.6600, 37750.00
657.8210, 37747.00
658.9830, 37880.00
660.1440, 37699.00
661.3050, 37754.00
662.4660, 37881.00
663.6270, 37740.00
664.7870, 37785.00
665.9480, 37881.00
667.1080, 37514.00
668.2680, 37665.00
669.4280, 37733.00
670.5880, 37819.00
671.7480, 37914.73
672.9070, 37950.00
674.0670, 38064.00
675.2260, 38022.00
676.3850, 38071.00
677.5440, 38149.04
678.7030, 38494.00
679.8610, 38305.00
681.0200, 38521.00
682.1780, 38624.00
683.3360, 38658.00
684.4940, 38813.00
685.6520, 38866.00
686.8090, 39007.00
687.9670, 39091.00
689.1240, 39127.00
690.2810, 38953.00
691.4380, 38888.00
692.5950, 38915.00
693.7520, 39107.00
694.9080, 38786.00
696.0650, 38673.00
697.2210, 38873.00
698.3770, 38656.00
699.5330, 38779.00
700.6880, 38696.00
701.8440, 38587.00
702.9990, 38836.00
704.1550, 38238.00
705.3100, 38441.00
706.4650, 38480.00
707.6190, 38363.00
708.7740, 38209.00
709.9290, 38478.00
711.0830, 38359.00
712.2370, 38166.00
713.3910, 38285.00
714.5450, 38268.00
715.6980, 38256.00
716.8520, 38282.00
718.0050, 38210.50
719.1580, 38261.60
720.3110, 38130.00
721.4640, 38252.00
722.6170, 38326.00
723.7700, 38172.00
724.9220, 38372.00
726.0740, 38304.00
727.2260, 38127.00
728.3780, 38092.00
729.5300, 38076.63
730.6810, 38104.00
731.8330, 38172.00
732.9840, 38198.00
734.1350, 38359.00
735.2860, 38364.79
736.4370, 38467.00
737.5880, 38405.00
738.7380, 38322.00
739.8880, 38250.00
741.0390, 38329.00
742.1890, 38476.00
743.3380, 38687.00
744.4880, 38548.00
745.6380, 38499.00
746.7870, 38439.00
747.9360, 38351.00
749.0850, 38488.00
750.2340, 38430.04
751.3830, 38467.00
752.5310, 38464.00
753.6800, 38579.00
754.8280, 38592.00
755.9760, 38685.00
757.1240, 38606.00
758.2720, 38715.00
759.4190, 38794.00
760.5670, 38671.00
761.7140, 38815.00
762.8610, 38496.00
764.0080, 39261.00
765.1550, 39021.12
766.3020, 38715.00
767.4480, 39099.00
768.5950, 38890.00
769.7410, 39004.00
770.8870, 38939.00
772.0330, 39231.00
773.1780, 39078.00
774.3240, 39334.00
775.4690, 39876.00
776.6140, 39737.00
777.7590, 39744.72
778.9040, 39090.00
780.0490, 39316.00
781.1940, 39111.00
782.3380, 38907.00
783.4820, 39330.00
784.6260, 38954.00
785.7700, 39233.00
786.9140, 38962.00
788.0580, 39235.00
789.2010, 39030.00
790.3450, 39187.62
791.4880, 39151.32
792.6310, 39545.00
793.7730, 39025.00
794.9160, 39281.00
796.0590, 39144.00
797.2010, 39363.00
798.3430, 39363.00
799.4850, 39269.00
800.6270, 39713.00
801.7690, 39145.00
802.9100, 39501.00
804.0520, 39224.00
805.1930, 39428.00
806.3340, 39516.00
807.4750, 39384.00
808.6160, 39355.00
809.7560, 39772.00
810.8970, 39499.00
812.0370, 39565.00
813.1770, 39906.00
814.3170, 39739.00
815.4570, 39798.00
816.5960, 39855.00
817.7360, 39985.00
818.8750, 39863.00
820.0140, 39719.00
821.1530, 39476.00
822.2920, 39927.00
823.4310, 39660.00
824.5690, 40232.00
825.7070, 39994.00
826.8460, 40039.00
827.9840, 40111.00
829.1220, 40152.00
830.2590, 40033.00
831.3970, 40451.00
832.5340, 40221.00
833.6710, 40566.00
834.8080, 40425.00
835.9450, 40481.00
837.0820, 40660.00
838.2190, 40810.00
839.3550, 40816.00
840.4910, 41210.00
841.6270, 41149.00
842.7630, 41327.00
843.8990, 41466.00
845.0350, 41515.00
846.1700, 41756.00
847.3060, 41836.00
848.4410, 42307.00
849.5760, 42708.00
850.7100, 42716.00
851.8450, 43127.00
852.9800, 43170.00
854.1140, 43908.00
855.2480, 44308.00
856.3820, 44568.00
857.5160, 45419.00
858.6500, 46025.00
859.7830, 46660.00
860.9170, 47458.00
862.0500, 48056.00
863.1830, 49257.00
864.3160, 50453.00
865.4480, 51488.00
866.5810, 53151.00
867.7130, 54809.00
868.8460, 56268.00
869.9780, 58062.00
871.1100, 59517.00
872.2410, 60750.00
873.3730, 61801.00
874.5050, 62406.00
875.6360, 62836.80
876.7670, 62872.00
877.8980, 62796.00
879.0290, 62046.00
880.1590, 61322.00
881.2900, 60002.00
882.4200, 58857.00
883.5500, 57539.85
884.6800, 55861.00
885.8100, 54728.00
886.9400, 53186.00
888.0690, 51964.00
889.1990, 50848.00
890.3280, 49604.00
891.4570, 48576.00
892.5860, 47583.00
893.7140, 46844.00
894.8430, 45755.00
895.9710, 45174.00
897.1000, 44721.00
898.2280, 44313.00
899.3560, 43538.00
900.4830, 43114.00
901.6110, 42674.00
902.7380, 42578.00
903.8660, 41866.00
904.9930, 42149.00
906.1200, 41857.00
907.2460, 41541.00
908.3730, 41197.00
909.5000, 41394.00
910.6260, 41223.00
911.7520, 41162.00
912.8780, 40767.00
914.0040, 40864.00
915.1290, 40672.00
916.2550, 40758.00
917.3800, 40581.00
918.5050, 40871.00
919.6300, 40547.00
920.7550, 40707.00
921.8800, 40507.00
923.0040, 40225.00
924.1290, 40482.00
925.2530, 40574.00
926.3770, 40504.00
927.5010, 40644.00
928.6250, 40667.00
929.7480, 40467.00
930.8720, 40399.00
931.9950, 40486.00
933.1180, 40521.00
934.2410, 40592.00
935.3640, 40383.00
936.4860, 40639.00
937.6090, 40425.00
938.7310, 40474.00
939.8530, 40607.00
940.9750, 40628.00
942.0970, 40400.00
943.2180, 40305.00
944.3400, 40461.00
945.4610, 40609.00
946.5820, 40530.00
947.7030, 40673.00
948.8240, 40672.00
949.9450, 40741.00
951.0650, 40641.00
952.1860, 40593.00
953.3060, 40389.00
954.4260, 40798.00
955.5460, 40664.00
956.6650, 40616.00
957.7850, 40781.00
958.9040, 40736.00
960.0230, 40527.00
961.1420, 40574.00
962.2610, 40548.54
963.3800, 40482.06
964.4990, 40600.00
965.6170, 40533.00
966.7350, 40498.00
967.8530, 40727.00
968.9710, 40602.00
970.0890, 40649.00
971.2070, 40637.00
972.3240, 40505.00
973.4410, 40776.00
974.5580, 40771.00
975.6750, 40924.00
976.7920, 40782.00
977.9090, 40614.00
979.0250, 40826.00
980.1410, 40887.00
981.2580, 40776.00
982.3740, 40757.00
983.4890, 40836.00
984.6050, 40733.00
985.7200, 40688.00
986.8360, 40736.00
987.9510, 40880.00
989.0660, 40854.00
990.1810, 40969.00
991.2950, 40955.00
992.4100, 40999.00
993.5240, 41016.00
994.6390, 41144.00
995.7530, 41006.00
996.8660, 40900.00
997.9800, 41159.00
999.0940, 40953.00
1000.207, 41184.00
1001.320, 40922.00
1002.433, 41016.00
1003.546, 40941.00
1004.659, 41169.00
1005.772, 40978.00
1006.884, 40986.00
1007.996, 41204.00
1009.108, 41204.00
1010.220, 41192.00
1011.332, 41159.00
1012.444, 41364.00
1013.555, 40913.00
1014.666, 41276.00
1015.777, 41148.00
1016.888, 41328.00
1017.999, 41275.00
1019.110, 41039.00
1020.220, 41139.00
1021.331, 41255.00
1022.441, 41241.00
1023.551, 41138.00
1024.661, 41224.00
1025.770, 41292.00
1026.880, 41380.00
1027.989, 41458.00
1029.098, 41249.00
1030.207, 41338.00
1031.316, 41418.00
1032.425, 41185.00
1033.533, 41426.00
1034.642, 41236.00
1035.750, 41522.00
1036.858, 41721.00
1037.966, 41509.00
1039.073, 41522.00
1040.181, 41489.00
1041.288, 41482.48
1042.396, 41501.82
1043.503, 41584.00
1044.610, 41582.00
1045.716, 41636.00
1046.823, 41763.00
1047.929, 41743.00
1049.036, 41913.00
1050.142, 41578.00
1051.248, 42040.00
1052.353, 41374.00
1053.459, 41821.00
1054.564, 41874.00
1055.670, 41931.00
1056.775, 41672.00
1057.880, 41773.00
1058.985, 41744.00
1060.089, 41767.00
1061.194, 41694.00
1062.298, 41875.00
1063.402, 42085.00
1064.506, 41943.00
1065.610, 42128.00
1066.713, 41896.00
1067.817, 42061.00
1068.920, 41978.00
1070.023, 41851.00
1071.126, 42036.00
1072.229, 41962.00
1073.332, 42018.00
1074.435, 42010.00
1075.537, 41871.00
1076.639, 42035.00
1077.741, 41969.00
1078.843, 42119.29
1079.945, 42236.00
1081.046, 42419.12
1082.148, 42150.00
1083.249, 42201.00
1084.350, 41961.00
1085.451, 41988.00
1086.551, 42126.00
1087.652, 42012.00
1088.752, 42079.00
1089.853, 42129.00
1090.953, 41890.00
1092.053, 42094.00
1093.152, 41790.00
1094.252, 42033.00
1095.351, 42177.00
1096.451, 41872.00
1097.550, 41887.00
1098.649, 41910.00
1099.748, 42040.00
1100.846, 41880.00
1101.945, 41925.00
1103.043, 41777.00
1104.141, 42103.00
1105.239, 41673.00
1106.337, 41607.00
1107.434, 42099.00
1108.532, 42263.00
1109.629, 41814.00
1110.726, 41760.00
1111.823, 41705.00
1112.920, 41798.00
1114.017, 41748.00
1115.113, 41955.00
1116.210, 41874.00
1117.306, 42118.00
1118.402, 41999.00
1119.498, 41767.00
1120.593, 41795.00
1121.689, 41885.00
1122.784, 41796.00
1123.879, 41805.34
1124.974, 41639.00
1126.069, 41687.00
1127.164, 41756.00
1128.259, 41652.00
1129.353, 41701.00
1130.447, 41626.00
1131.541, 41693.00
1132.635, 41624.00
1133.729, 41500.00
1134.822, 41316.00
1135.916, 41445.00
1137.009, 41471.00
1138.102, 41457.00
1139.195, 41722.00
1140.288, 41423.00
1141.380, 41261.00
1142.473, 41402.00
1143.565, 41538.00
1144.657, 41505.00
1145.749, 41329.00
1146.841, 41355.00
1147.932, 41399.00
1149.024, 41171.00
1150.115, 41432.00
1151.206, 41403.00
1152.297, 41384.00
1153.388, 41311.00
1154.479, 41387.00
1155.569, 41302.00
1156.659, 41300.76
1157.750, 41379.00
1158.839, 41258.00
1159.929, 41266.00
1161.019, 41245.04
1162.108, 41367.00
1163.198, 41279.00
1164.287, 41327.00
1165.376, 41279.00
1166.465, 41309.00
1167.553, 41458.00
1168.642, 41482.00
1169.730, 41276.00
1170.818, 41453.00
1171.906, 41339.00
1172.994, 41286.00
1174.082, 41335.00
1175.170, 41275.00
1176.257, 41159.00
1177.344, 41212.00
1178.431, 41467.00
1179.518, 41089.00
1180.605, 41108.00
1181.691, 41293.00
1182.778, 41135.00
1183.864, 41439.00
1184.950, 41274.00
1186.036, 41429.00
1187.122, 40953.00
1188.207, 41420.00
1189.292, 41084.00
1190.378, 41397.00
1191.463, 41551.00
1192.548, 41854.00
1193.632, 41232.00
1194.717, 41313.00
1195.801, 41300.00
1196.886, 41295.00
1197.970, 41073.00
1199.054, 41214.00
1200.137, 41230.84
1201.221, 41165.00
1202.305, 41414.93
1203.388, 41306.27
1204.471, 41307.00
1205.554, 40991.00
1206.637, 41376.00
1207.719, 41195.00
1208.802, 41298.00
1209.884, 41269.00
1210.966, 41297.00
1212.048, 41469.00
1213.130, 41385.00
1214.212, 41468.00
1215.293, 41402.00
1216.374, 41538.00
1217.456, 41396.50
1218.536, 41661.00
1219.617, 41177.00
1220.698, 41186.00
1221.778, 41157.00
1222.859, 41254.00
1223.939, 41244.55
1225.019, 41256.00
1226.099, 41318.00
1227.178, 41258.00
1228.258, 41329.00
1229.337, 41359.00
1230.417, 41344.98
1231.496, 41402.00
1232.574, 41376.00
1233.653, 41238.00
1234.732, 41292.00
1235.810, 41485.00
1236.888, 41216.00
1237.966, 41433.00
1239.044, 41591.00
1240.122, 41252.00
1241.199, 41426.00
1242.277, 41036.00
1243.354, 41370.00
1244.431, 41475.00
1245.508, 41419.00
1246.585, 41455.00
1247.661, 41298.00
1248.738, 41332.00
1249.814, 41394.00
1250.890, 41225.00
1251.966, 41345.00
1253.042, 41393.00
1254.117, 41252.00
1255.193, 41021.00
1256.268, 41266.00
1257.343, 41316.00
1258.418, 41121.00
1259.493, 41294.00
1260.567, 41310.00
1261.642, 41473.00
1262.716, 41651.32
1263.790, 41619.37
1264.864, 41857.00
1265.938, 41683.00
1267.011, 41334.00
1268.085, 41481.00
1269.158, 41094.00
1270.231, 41454.00
1271.304, 41213.00
1272.377, 41305.00
1273.450, 41291.00
1274.522, 40930.00
1275.594, 41256.00
1276.666, 41185.00
1277.738, 41256.00
1278.810, 41238.00
1279.882, 41510.00
1280.953, 41387.00
1282.025, 41291.00
1283.096, 41185.00
1284.167, 41547.00
1285.238, 41526.00
1286.308, 41444.00
1287.379, 41515.00
1288.449, 41538.00
1289.519, 41469.91
1290.589, 41244.00
1291.659, 41397.00
1292.729, 41356.00
1293.798, 41389.00
1294.868, 41472.00
1295.937, 41343.00
1297.006, 41375.00
1298.075, 41459.00
1299.143, 41540.00
1300.212, 41427.00
1301.280, 41882.00
1302.348, 41212.00
1303.416, 41482.00
1304.484, 41629.00
1305.552, 41405.00
1306.620, 41792.00
1307.687, 41158.00
1308.754, 41415.00
1309.821, 41548.00
1310.888, 41265.00
1311.955, 41530.00
1313.021, 41283.00
1314.088, 41284.00
1315.154, 41354.00
1316.220, 41634.00
1317.286, 41402.00
1318.352, 41575.00
1319.417, 41762.00
1320.483, 41404.00
1321.548, 41705.00
1322.613, 41443.00
1323.678, 41148.00
1324.743, 41517.00
1325.807, 41606.00
1326.872, 41489.00
1327.936, 41656.00
1329.000, 41466.00
1330.064, 41498.00
1331.128, 41662.00
1332.191, 41421.00
1333.255, 41654.00
1334.318, 41358.00
1335.381, 41686.00
1336.444, 41554.00
1337.507, 41551.00
1338.569, 41449.00
1339.632, 41594.00
1340.694, 41483.00
1341.756, 41620.00
1342.818, 41638.00
1343.880, 41387.00
1344.941, 41473.00
1346.003, 41595.00
1347.064, 41780.00
1348.125, 41823.00
1349.186, 41838.00
1350.247, 41722.00
1351.308, 41660.61
1352.368, 41707.00
1353.428, 41482.00
1354.489, 41542.00
1355.549, 41638.00
1356.608, 41674.00
1357.668, 41501.00
1358.727, 41390.00
1359.787, 41562.00
1360.846, 41459.00
1361.905, 41518.00
1362.964, 41625.00
1364.022, 41723.00
1365.081, 41658.00
1366.139, 41593.00
1367.197, 41827.00
1368.255, 41508.00
1369.313, 41643.00
1370.371, 41588.00
1371.428, 41511.93
1372.486, 41660.00
1373.543, 41497.00
1374.600, 41562.00
1375.657, 41623.00
1376.713, 41581.00
1377.770, 41517.00
1378.826, 41663.00
1379.882, 41600.00
1380.938, 41446.00
1381.994, 41672.00
1383.050, 41610.00
1384.106, 41574.00
1385.161, 41711.00
1386.216, 41740.00
1387.271, 41734.00
1388.326, 41754.00
1389.381, 41565.00
1390.435, 41742.00
1391.490, 41509.00
1392.544, 41802.00
1393.598, 41642.00
1394.652, 41697.00
1395.705, 41710.00
1396.759, 41822.00
1397.812, 41818.00
1398.866, 41740.00
1399.919, 41544.00
1400.972, 41638.00
1402.024, 41715.00
1403.077, 41562.00
1404.129, 41884.00
1405.181, 41641.00
1406.233, 41892.00
1407.285, 41606.00
1408.337, 41616.00
1409.389, 41787.00
1410.440, 41783.00
1411.491, 41960.00
1412.542, 41676.00
1413.593, 41823.36
1414.644, 41873.25
1415.695, 41841.00
1416.745, 42020.00
1417.795, 41936.00
1418.845, 41888.00
1419.895, 41919.00
1420.945, 41882.00
1421.995, 41852.95
1423.044, 41838.00
1424.093, 41842.00
1425.142, 41795.00
1426.191, 41917.00
1427.240, 41774.00
1428.289, 41983.00
1429.337, 41655.00
1430.385, 41641.00
1431.433, 41758.00
1432.481, 41647.00
1433.529, 41701.00
1434.577, 41813.00
1435.624, 41794.00
1436.672, 41837.00
1437.719, 41847.00
1438.766, 41645.00
1439.812, 41783.00
1440.859, 41959.00
1441.905, 41550.00
1442.952, 41750.00
1443.998, 41970.00
1445.044, 41958.00
1446.090, 41855.00
1447.135, 41952.00
1448.181, 42156.00
1449.226, 41872.00
1450.271, 41665.00
1451.316, 41827.00
1452.361, 41947.00
1453.405, 42074.00
1454.450, 42119.00
1455.494, 41978.00
1456.538, 41907.00
1457.582, 41944.00
1458.626, 42039.00
1459.670, 42180.00
1460.713, 41821.00
1461.757, 42143.00
1462.800, 41793.00
1463.843, 42036.00
1464.886, 41989.00
1465.928, 42099.00
1466.971, 42122.00
1468.013, 41998.00
1469.055, 41952.00
1470.097, 41750.00
1471.139, 42065.00
1472.181, 41980.00
1473.222, 41918.00
1474.263, 42195.00
1475.305, 42041.00
1476.346, 42006.00
1477.386, 41990.00
1478.427, 42076.00
1479.468, 42028.00
1480.508, 41985.00
1481.548, 42246.00
1482.588, 41971.00
1483.628, 42254.00
1484.668, 41917.00
1485.707, 41978.00
1486.747, 41874.00
1487.786, 41868.00
1488.825, 42029.00
1489.864, 42216.00
1490.902, 42326.00
1491.941, 41808.00
1492.979, 42229.00
1494.017, 41908.00
1495.055, 41920.00
1496.093, 42006.00
1497.131, 41900.00
1498.168, 42080.00
1499.206, 41812.00
1500.243, 42043.00
1501.280, 41764.00
1502.317, 42092.00
1503.354, 42203.00
1504.390, 41854.00
1505.426, 42091.00
1506.463, 42023.00
1507.499, 41949.00
1508.535, 42429.00
1509.570, 42469.00
1510.606, 41916.00
1511.641, 42149.00
1512.676, 41980.00
1513.711, 42253.00
1514.746, 41989.00
1515.781, 42273.00
1516.816, 42221.00
1517.850, 42172.00
1518.884, 42034.00
1519.918, 42094.00
1520.952, 42192.00
1521.986, 42066.00
1523.019, 42047.00
1524.053, 42089.66
1525.086, 42053.36
1526.119, 42203.00
1527.152, 42085.00
1528.185, 42248.00
1529.217, 42258.00
1530.250, 42174.00
1531.282, 42329.00
1532.314, 42204.89
1533.346, 42225.00
1534.377, 42173.00
1535.409, 42049.00
1536.440, 42269.00
1537.472, 42030.00
1538.503, 42084.00
1539.534, 42265.00
1540.564, 42319.00
1541.595, 42216.03
1542.625, 42322.94
1543.656, 42386.29
1544.686, 42408.39
1545.716, 42265.76
1546.745, 42335.84
1547.775, 42320.68
1548.804, 42302.02
1549.834, 42402.05
1550.863, 42283.37
1551.892, 42381.51
1552.920, 42393.09
1553.949, 42444.30
1554.977, 42409.71
1556.006, 42401.64
1557.034, 42479.36
1558.062, 42509.56
1559.089, 42465.10
1560.117, 42518.81
1561.144, 42397.12
1562.172, 42429.36
1563.199, 42527.98
1564.226, 42487.84
1565.252, 42543.10
1566.279, 42562.04
1567.305, 42415.80
1568.332, 42556.80
1569.358, 42573.58
1570.384, 42462.82
1571.409, 42593.96
1572.435, 43442.00
##END=



