##NAMES=Ferberite
##RRUFFID=R040044
##IDEAL CHEMISTRY=Fe^2+^W^6+^O_4_
##LOCALITY=Chocote, Bolivia
##OWNER=RRUFF
##SOURCE=University of Arizona Mineral Museum
##DESCRIPTION=Black tabular single crystal
##STATUS=The identification of this mineral has been confirmed by X-ray diffraction and chemical analysis
##URL=rruff.info/R040044
##MEASURED CHEMISTRY=(Fe_0.82_Mn_0.08_Mg_0.07_Pb_0.03_)_Î£=1_W_1.00_O_4_
##PIN_ID=M00030
##ORIENTATION=Laser parallel to -c* (0 0 -1). Fiducial mark perpendicular to laser is parallel to a [1 0 0]
164.8110, 36531.00
166.0360, 35600.00
167.2610, 35440.00
168.4860, 35550.00
169.7110, 35563.00
170.9360, 35510.76
172.1610, 35585.00
173.3850, 35607.00
174.6100, 35753.00
175.8340, 36101.00
177.0580, 36303.00
178.2820, 36326.00
179.5050, 35961.00
180.7290, 36307.00
181.9520, 36182.00
183.1760, 35410.00
184.3990, 35683.00
185.6220, 35600.00
186.8450, 35699.00
188.0670, 35388.00
189.2900, 35269.00
190.5120, 35586.00
191.7340, 35736.00
192.9560, 35884.00
194.1780, 36108.00
195.4000, 35956.00
196.6220, 36036.00
197.8430, 35954.00
199.0640, 36335.00
200.2860, 36591.00
201.5070, 36815.00
202.7270, 36693.00
203.9480, 36042.00
205.1690, 35534.00
206.3890, 34847.00
207.6090, 34298.54
208.8290, 34701.28
210.0490, 34912.29
211.2690, 34941.88
212.4890, 34246.61
213.7080, 34487.36
214.9280, 34352.98
216.1470, 34203.25
217.3660, 34575.73
218.5850, 33985.93
219.8030, 34350.15
221.0220, 34333.53
222.2400, 34133.00
223.4590, 34100.68
224.6770, 34134.00
225.8950, 34068.00
227.1120, 33989.00
228.3300, 34119.00
229.5480, 34072.00
230.7650, 34076.20
231.9820, 33911.00
233.1990, 34051.00
234.4160, 34023.00
235.6330, 33987.00
236.8490, 34003.00
238.0660, 34081.00
239.2820, 34192.00
240.4980, 34069.00
241.7140, 34020.00
242.9300, 34423.00
244.1460, 33699.00
245.3610, 33928.00
246.5770, 33593.00
247.7920, 34106.00
249.0070, 34779.00
250.2220, 34688.00
251.4370, 34055.00
252.6510, 33782.17
253.8660, 34315.93
255.0800, 34657.89
256.2940, 34818.41
257.5080, 34254.09
258.7220, 34625.75
259.9360, 34622.31
261.1490, 34603.41
262.3630, 35106.80
263.5760, 34647.83
264.7890, 35142.87
266.0020, 35257.08
267.2150, 35105.00
268.4270, 35264.00
269.6400, 34907.00
270.8520, 34870.00
272.0640, 34713.00
273.2760, 34881.00
274.4880, 35079.00
275.7000, 35252.00
276.9120, 35139.00
278.1230, 34884.00
279.3340, 34752.00
280.5450, 34769.00
281.7560, 34652.52
282.9670, 34981.00
284.1780, 34679.00
285.3880, 34760.00
286.5980, 34917.00
287.8090, 34776.80
289.0190, 34887.00
290.2290, 34703.00
291.4380, 34891.00
292.6480, 34766.00
293.8570, 35124.00
295.0670, 35400.00
296.2760, 35012.00
297.4850, 35602.00
298.6930, 35446.00
299.9020, 35749.00
301.1110, 35492.00
302.3190, 35483.00
303.5270, 35251.00
304.7350, 35227.15
305.9430, 35288.00
307.1510, 35286.00
308.3580, 35202.00
309.5660, 35462.00
310.7730, 35352.00
311.9800, 35480.00
313.1870, 35430.00
314.3940, 35493.00
315.6010, 35728.00
316.8070, 35464.00
318.0130, 35726.00
319.2200, 35869.00
320.4260, 36111.00
321.6310, 36210.00
322.8370, 36325.00
324.0430, 36345.00
325.2480, 36677.00
326.4540, 36905.00
327.6590, 36995.00
328.8640, 37327.00
330.0680, 37095.00
331.2730, 37355.00
332.4780, 37025.00
333.6820, 37248.00
334.8860, 36928.00
336.0900, 36882.00
337.2940, 36641.00
338.4980, 36758.00
339.7010, 36781.00
340.9050, 36673.00
342.1080, 36694.00
343.3110, 36494.00
344.5140, 36806.00
345.7170, 36634.00
346.9200, 36588.00
348.1220, 36261.00
349.3240, 36458.00
350.5270, 36271.00
351.7290, 36304.00
352.9310, 36363.00
354.1320, 36541.00
355.3340, 36464.00
356.5350, 36287.00
357.7370, 36335.00
358.9380, 36222.00
360.1390, 36187.00
361.3400, 36268.00
362.5400, 36398.00
363.7410, 36458.00
364.9410, 36475.23
366.1410, 36323.00
367.3410, 36391.00
368.5410, 36281.00
369.7410, 36316.22
370.9400, 36430.00
372.1400, 36371.00
373.3390, 36383.00
374.5380, 36360.00
375.7370, 36505.00
376.9360, 36447.00
378.1350, 36602.00
379.3330, 36555.00
380.5310, 36209.00
381.7300, 36749.00
382.9280, 36350.00
384.1260, 36671.00
385.3230, 36496.00
386.5210, 36655.00
387.7180, 36673.00
388.9160, 36895.00
390.1130, 36974.25
391.3100, 37044.89
392.5060, 37205.00
393.7030, 37181.00
394.9000, 37284.00
396.0960, 37361.00
397.2920, 37979.00
398.4880, 37910.00
399.6840, 38219.00
400.8800, 38160.00
402.0750, 38416.00
403.2710, 38200.00
404.4660, 38002.00
405.6610, 38157.00
406.8560, 37789.00
408.0510, 37623.00
409.2450, 37397.00
410.4400, 37201.00
411.6340, 37396.00
412.8280, 37234.00
414.0220, 37179.00
415.2160, 37393.00
416.4100, 37379.00
417.6030, 37334.74
418.7970, 37041.00
419.9900, 37215.00
421.1830, 37054.00
422.3760, 37037.00
423.5690, 36916.00
424.7610, 37157.00
425.9540, 37144.00
427.1460, 37469.00
428.3380, 37145.00
429.5300, 37187.00
430.7220, 37340.00
431.9140, 37537.00
433.1050, 37438.00
434.2970, 37230.00
435.4880, 37295.00
436.6790, 37258.00
437.8700, 37216.00
439.0610, 37407.00
440.2510, 37173.00
441.4420, 37360.00
442.6320, 37439.00
443.8220, 37323.00
445.0120, 37333.00
446.2020, 37373.00
447.3910, 37675.00
448.5810, 37402.00
449.7700, 37319.00
450.9600, 37655.00
452.1490, 37544.00
453.3370, 37661.00
454.5260, 37568.00
455.7150, 37627.00
456.9030, 37520.00
458.0910, 37873.00
459.2800, 37551.00
460.4670, 37577.00
461.6550, 37976.00
462.8430, 37695.00
464.0300, 37684.00
465.2180, 37846.00
466.4050, 37889.00
467.5920, 37834.00
468.7790, 38050.00
469.9650, 37877.00
471.1520, 38009.00
472.3380, 37932.00
473.5250, 37869.00
474.7110, 37983.00
475.8970, 37907.00
477.0820, 38075.00
478.2680, 38065.00
479.4540, 37991.00
480.6390, 38271.00
481.8240, 38080.00
483.0090, 38403.00
484.1940, 38189.00
485.3780, 38366.00
486.5630, 38409.00
487.7470, 38210.00
488.9320, 38183.00
490.1160, 38235.00
491.3000, 38372.00
492.4830, 38556.00
493.6670, 38585.00
494.8500, 38690.00
496.0340, 38555.00
497.2170, 38681.00
498.4000, 38915.00
499.5820, 38677.00
500.7650, 38857.00
501.9480, 38702.00
503.1300, 38859.00
504.3120, 38901.00
505.4940, 39011.00
506.6760, 39054.00
507.8580, 39146.00
509.0390, 39067.00
510.2210, 39249.00
511.4020, 39203.00
512.5830, 39483.00
513.7640, 39092.00
514.9450, 39367.00
516.1250, 39397.00
517.3060, 39313.00
518.4860, 39524.00
519.6660, 39369.00
520.8460, 39424.00
522.0260, 39616.00
523.2060, 39478.00
524.3850, 39587.00
525.5650, 39486.00
526.7440, 39698.00
527.9230, 39911.00
529.1020, 39901.00
530.2810, 39757.00
531.4590, 39905.00
532.6380, 39646.00
533.8160, 39848.00
534.9940, 39540.00
536.1720, 39998.00
537.3500, 39784.00
538.5270, 39851.00
539.7050, 39719.00
540.8820, 39787.00
542.0590, 39862.00
543.2360, 40107.00
544.4130, 39872.00
545.5900, 39729.00
546.7660, 40016.00
547.9430, 39782.00
549.1190, 39905.00
550.2950, 39846.00
551.4710, 39864.00
552.6470, 39799.00
553.8220, 39658.00
554.9980, 39704.00
556.1730, 39683.00
557.3480, 39743.00
558.5230, 39666.00
559.6980, 39809.00
560.8730, 39765.64
562.0470, 39645.00
563.2220, 39818.00
564.3960, 39973.00
565.5700, 40139.00
566.7440, 39519.00
567.9170, 39917.00
569.0910, 39493.00
570.2640, 39450.00
571.4380, 39661.00
572.6110, 39695.00
573.7840, 39518.00
574.9570, 39355.00
576.1290, 39373.00
577.3020, 39299.00
578.4740, 39212.00
579.6460, 39192.00
580.8180, 39089.19
581.9900, 39012.44
583.1620, 38937.00
584.3330, 38858.00
585.5040, 38817.63
586.6760, 38809.00
587.8470, 38811.00
589.0180, 38900.00
590.1880, 38928.00
591.3590, 38925.75
592.5290, 38976.00
593.7000, 38897.00
594.8700, 38978.00
596.0400, 38941.00
597.2090, 38943.00
598.3790, 38942.00
599.5490, 38927.00
600.7180, 38907.00
601.8870, 38799.00
603.0560, 38970.00
604.2250, 39340.00
605.3940, 39030.00
606.5620, 39199.00
607.7300, 38938.00
608.8990, 38670.00
610.0670, 39170.00
611.2350, 39016.00
612.4020, 38898.00
613.5700, 39030.00
614.7370, 39036.00
615.9050, 39230.00
617.0720, 39258.36
618.2390, 39364.00
619.4060, 39322.00
620.5720, 39175.00
621.7390, 39074.00
622.9050, 39315.00
624.0710, 39263.00
625.2370, 39447.00
626.4030, 39206.00
627.5690, 39240.00
628.7340, 39329.00
629.9000, 39502.00
631.0650, 39538.00
632.2300, 39332.00
633.3950, 39144.00
634.5600, 39394.00
635.7240, 39640.00
636.8890, 39522.00
638.0530, 39633.00
639.2170, 39574.00
640.3810, 39440.00
641.5450, 39331.00
642.7080, 39395.00
643.8720, 39449.00
645.0350, 39408.00
646.1980, 39361.00
647.3610, 39582.00
648.5240, 39533.00
649.6870, 39886.00
650.8490, 39592.00
652.0120, 39596.00
653.1740, 39465.00
654.3360, 39838.00
655.4980, 39680.00
656.6600, 39708.00
657.8210, 39531.00
658.9830, 39690.00
660.1440, 39881.00
661.3050, 40002.00
662.4660, 39964.00
663.6270, 39708.00
664.7870, 40224.00
665.9480, 40158.00
667.1080, 39772.00
668.2680, 39895.00
669.4280, 40021.00
670.5880, 39989.00
671.7480, 40080.00
672.9070, 40334.00
674.0670, 40460.00
675.2260, 40670.00
676.3850, 40397.00
677.5440, 40552.00
678.7030, 40978.00
679.8610, 41254.00
681.0200, 40911.00
682.1780, 41213.00
683.3360, 41122.00
684.4940, 41164.00
685.6520, 41045.00
686.8090, 41169.43
687.9670, 41339.00
689.1240, 41451.00
690.2810, 41412.00
691.4380, 41630.00
692.5950, 41796.00
693.7520, 41452.00
694.9080, 41591.00
696.0650, 41787.00
697.2210, 41708.00
698.3770, 41434.00
699.5330, 41263.00
700.6880, 41340.00
701.8440, 41239.00
702.9990, 41037.00
704.1550, 41084.00
705.3100, 41037.00
706.4650, 40904.00
707.6190, 40920.00
708.7740, 40690.00
709.9290, 40629.00
711.0830, 40702.00
712.2370, 40575.00
713.3910, 40626.00
714.5450, 40705.00
715.6980, 40532.00
716.8520, 40414.00
718.0050, 40087.00
719.1580, 40152.00
720.3110, 40256.00
721.4640, 40446.00
722.6170, 40291.00
723.7700, 40355.00
724.9220, 40575.00
726.0740, 40355.00
727.2260, 40205.00
728.3780, 40362.00
729.5300, 40184.00
730.6810, 40207.00
731.8330, 40210.00
732.9840, 40443.00
734.1350, 40091.00
735.2860, 40376.00
736.4370, 40148.00
737.5880, 40438.00
738.7380, 40205.00
739.8880, 40348.00
741.0390, 40092.00
742.1890, 40237.00
743.3380, 40341.00
744.4880, 40305.00
745.6380, 40357.00
746.7870, 40301.57
747.9360, 40398.00
749.0850, 40264.00
750.2340, 40500.00
751.3830, 40735.00
752.5310, 40724.00
753.6800, 40466.00
754.8280, 40499.00
755.9760, 40644.00
757.1240, 40862.00
758.2720, 40698.00
759.4190, 40743.00
760.5670, 40792.00
761.7140, 40865.00
762.8610, 40893.00
764.0080, 40877.00
765.1550, 41145.00
766.3020, 41172.00
767.4480, 41149.84
768.5950, 41148.00
769.7410, 41179.00
770.8870, 41094.00
772.0330, 41397.00
773.1780, 41432.00
774.3240, 41391.00
775.4690, 41398.00
776.6140, 41360.00
777.7590, 41377.00
778.9040, 41207.00
780.0490, 41401.00
781.1940, 41095.00
782.3380, 41366.00
783.4820, 41491.00
784.6260, 41222.00
785.7700, 41318.00
786.9140, 41499.00
788.0580, 41309.00
789.2010, 41352.00
790.3450, 41455.00
791.4880, 41234.00
792.6310, 41670.00
793.7730, 41217.00
794.9160, 41718.00
796.0590, 41509.00
797.2010, 41518.00
798.3430, 41574.00
799.4850, 41519.00
800.6270, 41539.00
801.7690, 41669.00
802.9100, 41493.00
804.0520, 41530.00
805.1930, 41551.00
806.3340, 41196.00
807.4750, 41515.00
808.6160, 41356.00
809.7560, 41536.00
810.8970, 41631.00
812.0370, 41371.00
813.1770, 41541.00
814.3170, 41815.00
815.4570, 41560.00
816.5960, 41442.00
817.7360, 41658.00
818.8750, 41656.00
820.0140, 41454.00
821.1530, 41563.00
822.2920, 41585.00
823.4310, 41858.00
824.5690, 41698.00
825.7070, 41839.00
826.8460, 41560.00
827.9840, 41883.00
829.1220, 41860.00
830.2590, 41685.00
831.3970, 41631.00
832.5340, 41761.00
833.6710, 41879.00
834.8080, 41893.00
835.9450, 41820.00
837.0820, 42028.00
838.2190, 42269.00
839.3550, 42228.00
840.4910, 42155.00
841.6270, 42644.00
842.7630, 42563.00
843.8990, 42763.00
845.0350, 42607.00
846.1700, 42790.93
847.3060, 42919.00
848.4410, 43023.00
849.5760, 43251.00
850.7100, 43255.00
851.8450, 43667.00
852.9800, 43742.00
854.1140, 44057.00
855.2480, 44175.00
856.3820, 44523.00
857.5160, 44702.00
858.6500, 45235.00
859.7830, 45671.00
860.9170, 46126.00
862.0500, 46729.00
863.1830, 47152.00
864.3160, 47972.00
865.4480, 48781.00
866.5810, 49973.00
867.7130, 50433.00
868.8460, 51664.00
869.9780, 53007.00
871.1100, 53946.00
872.2410, 55365.00
873.3730, 56517.00
874.5050, 57814.00
875.6360, 59044.00
876.7670, 59971.00
877.8980, 60711.00
879.0290, 60814.00
880.1590, 60879.34
881.2900, 60247.00
882.4200, 60045.00
883.5500, 58785.00
884.6800, 57864.00
885.8100, 56679.00
886.9400, 55837.00
888.0690, 54621.00
889.1990, 53600.00
890.3280, 52580.00
891.4570, 51290.00
892.5860, 50319.00
893.7140, 49453.00
894.8430, 48803.00
895.9710, 48029.34
897.1000, 47398.00
898.2280, 46821.00
899.3560, 46232.55
900.4830, 45737.54
901.6110, 45266.00
902.7380, 44835.00
903.8660, 44496.70
904.9930, 44140.00
906.1200, 44120.00
907.2460, 43752.00
908.3730, 43991.00
909.5000, 43688.00
910.6260, 43414.00
911.7520, 43424.00
912.8780, 43046.00
914.0040, 43099.00
915.1290, 43275.00
916.2550, 42956.00
917.3800, 42826.00
918.5050, 42821.00
919.6300, 42805.17
920.7550, 42875.00
921.8800, 42855.00
923.0040, 42850.00
924.1290, 42510.00
925.2530, 42517.00
926.3770, 42530.00
927.5010, 42759.00
928.6250, 42376.00
929.7480, 42526.41
930.8720, 42609.23
931.9950, 42463.00
933.1180, 42740.00
934.2410, 42657.00
935.3640, 42405.00
936.4860, 42695.00
937.6090, 42739.00
938.7310, 42544.00
939.8530, 42809.00
940.9750, 42605.00
942.0970, 42694.00
943.2180, 42702.00
944.3400, 42707.00
945.4610, 42690.00
946.5820, 42499.00
947.7030, 42575.00
948.8240, 42586.00
949.9450, 42398.00
951.0650, 42523.00
952.1860, 42807.00
953.3060, 42465.00
954.4260, 42662.00
955.5460, 42768.00
956.6650, 42700.00
957.7850, 42511.00
958.9040, 42569.00
960.0230, 42825.00
961.1420, 42673.00
962.2610, 42847.00
963.3800, 42671.00
964.4990, 42768.00
965.6170, 42941.00
966.7350, 42723.00
967.8530, 42980.00
968.9710, 42789.00
970.0890, 42726.00
971.2070, 42821.00
972.3240, 42784.00
973.4410, 42908.00
974.5580, 43038.00
975.6750, 43039.00
976.7920, 42913.00
977.9090, 42816.00
979.0250, 42900.00
980.1410, 42815.00
981.2580, 42876.00
982.3740, 42885.00
983.4890, 43055.00
984.6050, 43284.00
985.7200, 43030.00
986.8360, 43019.00
987.9510, 43085.00
989.0660, 43235.00
990.1810, 43009.00
991.2950, 43030.00
992.4100, 43246.00
993.5240, 43123.00
994.6390, 43135.00
995.7530, 43209.00
996.8660, 43047.00
997.9800, 43208.00
999.0940, 43224.00
1000.207, 43204.00
1001.320, 43427.00
1002.433, 43382.00
1003.546, 43202.00
1004.659, 43510.00
1005.772, 43542.00
1006.884, 43133.00
1007.996, 43279.00
1009.108, 43511.00
1010.220, 43446.00
1011.332, 43188.00
1012.444, 43431.00
1013.555, 43605.00
1014.666, 43232.00
1015.777, 43590.00
1016.888, 43330.00
1017.999, 43450.00
1019.110, 43172.00
1020.220, 43215.00
1021.331, 43149.00
1022.441, 43265.00
1023.551, 43425.00
1024.661, 43394.00
1025.770, 43482.28
1026.880, 43581.00
1027.989, 43426.00
1029.098, 43497.00
1030.207, 43529.21
1031.316, 43389.00
1032.425, 43652.00
1033.533, 43602.00
1034.642, 43682.00
1035.750, 43390.00
1036.858, 43635.00
1037.966, 43712.00
1039.073, 43539.00
1040.181, 43755.00
1041.288, 43670.00
1042.396, 43769.00
1043.503, 43650.00
1044.610, 43540.00
1045.716, 43831.00
1046.823, 43984.00
1047.929, 43837.00
1049.036, 43901.00
1050.142, 43863.00
1051.248, 43814.00
1052.353, 43928.00
1053.459, 43902.00
1054.564, 43947.00
1055.670, 43885.00
1056.775, 43861.00
1057.880, 43725.00
1058.985, 43952.00
1060.089, 43943.00
1061.194, 43870.00
1062.298, 44050.00
1063.402, 44027.00
1064.506, 44001.00
1065.610, 44193.00
1066.713, 44330.00
1067.817, 43945.00
1068.920, 44149.00
1070.023, 43937.00
1071.126, 44267.00
1072.229, 44127.00
1073.332, 44062.00
1074.435, 43936.00
1075.537, 44091.00
1076.639, 43884.00
1077.741, 44159.00
1078.843, 44227.00
1079.945, 43750.00
1081.046, 44008.00
1082.148, 43853.00
1083.249, 44064.00
1084.350, 44040.89
1085.451, 44100.00
1086.551, 44043.00
1087.652, 44040.00
1088.752, 44083.00
1089.853, 44212.00
1090.953, 44209.00
1092.053, 43922.00
1093.152, 43991.00
1094.252, 44056.00
1095.351, 44305.00
1096.451, 43912.00
1097.550, 43932.00
1098.649, 43863.00
1099.748, 43978.00
1100.846, 43864.00
1101.945, 44039.00
1103.043, 43948.00
1104.141, 43907.00
1105.239, 44039.00
1106.337, 43966.00
1107.434, 44038.00
1108.532, 44043.54
1109.629, 44015.14
1110.726, 44061.00
1111.823, 43960.00
1112.920, 43994.00
1114.017, 43927.00
1115.113, 44222.00
1116.210, 44636.00
1117.306, 44415.00
1118.402, 44701.00
1119.498, 44861.00
1120.593, 44843.00
1121.689, 44644.00
1122.784, 44899.00
1123.879, 44695.00
1124.974, 45029.00
1126.069, 45010.00
1127.164, 44587.00
1128.259, 44442.00
1129.353, 43970.00
1130.447, 43865.00
1131.541, 43756.00
1132.635, 43592.00
1133.729, 43414.00
1134.822, 43337.00
1135.916, 43545.00
1137.009, 43759.00
1138.102, 43838.00
1139.195, 43396.00
1140.288, 43340.00
1141.380, 43269.00
1142.473, 43193.00
1143.565, 43230.52
1144.657, 43716.00
1145.749, 43388.00
1146.841, 43448.00
1147.932, 43675.00
1149.024, 43156.00
1150.115, 43315.00
1151.206, 43422.00
1152.297, 43461.00
1153.388, 43308.00
1154.479, 43349.00
1155.569, 43574.00
1156.659, 43329.00
1157.750, 43513.00
1158.839, 43312.00
1159.929, 43325.00
1161.019, 43483.00
1162.108, 43341.00
1163.198, 43459.25
1164.287, 43410.00
1165.376, 43480.00
1166.465, 43586.00
1167.553, 43429.00
1168.642, 43153.00
1169.730, 43239.00
1170.818, 42712.90
1171.906, 43148.41
1172.994, 43392.18
1174.082, 43454.52
1175.170, 42792.03
1176.257, 43065.51
1177.344, 42963.90
1178.431, 42846.90
1179.518, 43252.12
1180.605, 42695.05
1181.691, 43091.99
1182.778, 43108.11
1183.864, 43298.52
1184.950, 43111.52
1186.036, 43041.08
1187.122, 43348.18
1188.207, 43446.24
1189.292, 43215.79
1190.378, 43417.28
1191.463, 42847.03
1192.548, 42953.99
1193.632, 43353.14
1194.717, 43307.00
1195.801, 43040.00
1196.886, 43269.00
1197.970, 43215.00
1199.054, 43289.00
1200.137, 43495.00
1201.221, 43401.00
1202.305, 43449.30
1203.388, 43417.11
1204.471, 43400.00
1205.554, 43227.00
1206.637, 43251.00
1207.719, 43064.00
1208.802, 43100.00
1209.884, 43103.78
1210.966, 43214.00
1212.048, 43164.00
1213.130, 43202.00
1214.212, 43189.00
1215.293, 43165.84
1216.374, 43171.00
1217.456, 43151.00
1218.536, 43116.00
1219.617, 43163.00
1220.698, 43185.00
1221.778, 43124.00
1222.859, 43194.00
1223.939, 43241.00
1225.019, 43083.00
1226.099, 43194.00
1227.178, 43216.00
1228.258, 43247.77
1229.337, 43289.44
1230.417, 43356.00
1231.496, 43296.00
1232.574, 43234.00
1233.653, 43167.00
1234.732, 43352.00
1235.810, 43515.00
1236.888, 43366.00
1237.966, 43425.00
1239.044, 43376.00
1240.122, 43365.00
1241.199, 43195.00
1242.277, 43221.00
1243.354, 43341.00
1244.431, 43512.00
1245.508, 43161.00
1246.585, 43172.00
1247.661, 43320.00
1248.738, 43380.00
1249.814, 43247.00
1250.890, 43405.00
1251.966, 43096.00
1253.042, 43097.00
1254.117, 43198.00
1255.193, 43556.00
1256.268, 43124.00
1257.343, 43263.00
1258.418, 43201.00
1259.493, 43271.00
1260.567, 43298.00
1261.642, 43371.00
1262.716, 43358.00
1263.790, 43192.00
1264.864, 43436.00
1265.938, 43202.00
1267.011, 43415.00
1268.085, 43640.00
1269.158, 43398.00
1270.231, 43263.00
1271.304, 43455.00
1272.377, 43496.00
1273.450, 43455.00
1274.522, 43366.00
1275.594, 43181.00
1276.666, 43300.00
1277.738, 43288.00
1278.810, 43396.00
1279.882, 43341.00
1280.953, 43265.00
1282.025, 43453.00
1283.096, 43435.00
1284.167, 43420.00
1285.238, 43321.00
1286.308, 43618.00
1287.379, 43479.00
1288.449, 43596.00
1289.519, 43775.00
1290.589, 43563.00
1291.659, 43662.00
1292.729, 43622.03
1293.798, 43509.37
1294.868, 43564.00
1295.937, 43295.00
1297.006, 43265.00
1298.075, 43077.00
1299.143, 43617.00
1300.212, 43491.00
1301.280, 43453.00
1302.348, 43241.00
1303.416, 43639.00
1304.484, 43587.00
1305.552, 43525.00
1306.620, 43684.00
1307.687, 43465.00
1308.754, 43583.00
1309.821, 43701.00
1310.888, 43733.00
1311.955, 43740.16
1313.021, 43692.93
1314.088, 43621.00
1315.154, 43513.00
1316.220, 43358.00
1317.286, 43285.00
1318.352, 43312.80
1319.417, 43632.00
1320.483, 43537.00
1321.548, 43495.00
1322.613, 43797.00
1323.678, 43678.00
1324.743, 43554.00
1325.807, 43581.00
1326.872, 43496.00
1327.936, 43693.00
1329.000, 43694.00
1330.064, 43767.00
1331.128, 43662.00
1332.191, 43499.00
1333.255, 43652.00
1334.318, 43677.00
1335.381, 43700.00
1336.444, 44019.00
1337.507, 43422.00
1338.569, 43649.00
1339.632, 43407.00
1340.694, 43582.00
1341.756, 43902.00
1342.818, 43785.32
1343.880, 43938.98
1344.941, 43766.00
1346.003, 43916.00
1347.064, 43707.00
1348.125, 43544.00
1349.186, 43998.00
1350.247, 43693.14
1351.308, 43869.00
1352.368, 43592.00
1353.428, 43527.00
1354.489, 43600.00
1355.549, 43851.00
1356.608, 43766.00
1357.668, 43788.00
1358.727, 43708.00
1359.787, 43590.00
1360.846, 43816.00
1361.905, 43792.00
1362.964, 43450.00
1364.022, 43734.00
1365.081, 43663.00
1366.139, 43852.00
1367.197, 43767.00
1368.255, 43577.00
1369.313, 43664.80
1370.371, 43635.38
1371.428, 43654.00
1372.486, 43725.00
1373.543, 43792.00
1374.600, 43778.00
1375.657, 43977.00
1376.713, 43790.00
1377.770, 43913.00
1378.826, 43784.00
1379.882, 43787.00
1380.938, 44170.00
1381.994, 43708.00
1383.050, 43726.00
1384.106, 43950.00
1385.161, 43726.00
1386.216, 44007.00
1387.271, 43981.00
1388.326, 43770.00
1389.381, 43959.00
1390.435, 43950.00
1391.490, 44017.00
1392.544, 44081.79
1393.598, 43814.00
1394.652, 44191.00
1395.705, 43835.00
1396.759, 43935.00
1397.812, 43819.00
1398.866, 43858.00
1399.919, 43717.00
1400.972, 43755.00
1402.024, 43812.00
1403.077, 43754.00
1404.129, 43929.00
1405.181, 43727.00
1406.233, 44010.00
1407.285, 43853.00
1408.337, 44128.00
1409.389, 43947.00
1410.440, 43739.00
1411.491, 43656.00
1412.542, 43664.82
1413.593, 43884.00
1414.644, 43829.00
1415.695, 43882.00
1416.745, 43999.00
1417.795, 43919.00
1418.845, 44314.00
1419.895, 44159.71
1420.945, 44099.11
1421.995, 44052.00
1423.044, 43787.00
1424.093, 43714.10
1425.142, 43596.16
1426.191, 43722.00
1427.240, 43731.00
1428.289, 43974.00
1429.337, 43848.00
1430.385, 44111.00
1431.433, 43967.00
1432.481, 43902.00
1433.529, 43870.00
1434.577, 44163.00
1435.624, 44039.00
1436.672, 44077.00
1437.719, 43899.00
1438.766, 44123.00
1439.812, 44217.00
1440.859, 44187.00
1441.905, 43885.00
1442.952, 44302.00
1443.998, 44097.00
1445.044, 44028.00
1446.090, 44142.00
1447.135, 44101.00
1448.181, 43951.00
1449.226, 44084.00
1450.271, 43908.00
1451.316, 44318.00
1452.361, 44097.00
1453.405, 43925.00
1454.450, 44207.00
1455.494, 44087.00
1456.538, 44224.00
1457.582, 43958.00
1458.626, 43993.00
1459.670, 44358.00
1460.713, 44054.00
1461.757, 44108.00
1462.800, 44046.00
1463.843, 44101.00
1464.886, 44122.00
1465.928, 44089.00
1466.971, 44206.00
1468.013, 44037.00
1469.055, 44184.00
1470.097, 44201.00
1471.139, 44061.00
1472.181, 44089.00
1473.222, 44109.00
1474.263, 44062.04
1475.305, 44069.39
1476.346, 44045.00
1477.386, 44047.00
1478.427, 44017.00
1479.468, 44050.00
1480.508, 44098.96
1481.548, 44143.00
1482.588, 44231.00
1483.628, 44208.00
1484.668, 44242.00
1485.707, 44243.00
1486.747, 44323.00
1487.786, 44260.00
1488.825, 44180.00
1489.864, 44335.00
1490.902, 44214.00
1491.941, 44256.00
1492.979, 44209.00
1494.017, 44425.00
1495.055, 44429.00
1496.093, 44191.00
1497.131, 44444.00
1498.168, 44400.00
1499.206, 44326.00
1500.243, 43950.00
1501.280, 44091.00
1502.317, 44122.00
1503.354, 44618.00
1504.390, 44227.00
1505.426, 44222.00
1506.463, 44046.00
1507.499, 44516.00
1508.535, 44504.00
1509.570, 44357.00
1510.606, 44303.00
1511.641, 44287.00
1512.676, 44174.00
1513.711, 44485.00
1514.746, 44349.00
1515.781, 44372.00
1516.816, 44415.00
1517.850, 44312.00
1518.884, 44425.00
1519.918, 44432.00
1520.952, 44353.00
1521.986, 44571.00
1523.019, 44508.00
1524.053, 44308.00
1525.086, 44495.00
1526.119, 44452.00
1527.152, 44756.00
1528.185, 44625.00
1529.217, 44503.00
1530.250, 44603.00
1531.282, 44720.00
1532.314, 44550.00
1533.346, 44655.66
1534.377, 44456.00
1535.409, 44626.00
1536.440, 44549.00
1537.472, 44448.00
1538.503, 44471.00
1539.534, 44766.00
1540.564, 44728.00
1541.595, 44475.00
1542.625, 44270.34
1543.656, 44707.43
1544.686, 44952.78
1545.716, 45016.70
1546.745, 44355.77
1547.775, 44630.83
1548.804, 44530.79
1549.834, 44415.37
1550.863, 44822.16
1551.892, 44266.66
1552.920, 44665.18
1553.949, 44682.86
1554.977, 44874.84
1556.006, 44689.41
1557.034, 44620.54
1558.062, 44929.21
1559.089, 45028.84
1560.117, 44765.00
1561.144, 44863.00
1562.172, 44754.63
1563.199, 45085.00
1564.226, 44714.00
1565.252, 44499.00
1566.279, 44684.00
1567.305, 44836.00
1568.332, 44709.00
1569.358, 44793.00
1570.384, 44758.00
1571.409, 44805.00
1572.435, 44899.00
##END=



