##NAMES=Ferberite
##RRUFFID=R050632
##IDEAL CHEMISTRY=Fe^2+^W^6+^O_4_
##LOCALITY=Chance mine, Boulder, Colorado, USA
##OWNER=RRUFF
##SOURCE=University of Arizona Mineral Museum
##DESCRIPTION=Dark brown rectangular prismatic crystals
##STATUS=The identification of this mineral has been confirmed by X-ray diffraction and chemical analysis
##URL=rruff.info/R050632
##MEASURED CHEMISTRY=Fe^2+^_1.00_WO_4_
##PIN_ID=M00461
##ORIENTATION=Laser parallel to b* (0 1 0). Fiducial mark perpendicular to laser is parallel to c [0 0 1]
157.4550, 40679.00
158.6810, 40341.00
159.9080, 40522.00
161.1340, 40444.00
162.3590, 40493.00
163.5850, 41021.00
164.8110, 41263.00
166.0360, 41107.00
167.2610, 41101.00
168.4860, 41174.92
169.7110, 40964.00
170.9360, 41231.00
172.1610, 41123.00
173.3850, 41149.00
174.6100, 40964.00
175.8340, 40960.00
177.0580, 41100.00
178.2820, 41108.00
179.5050, 41294.00
180.7290, 41235.00
181.9520, 41355.23
183.1760, 41247.00
184.3990, 41490.00
185.6220, 41466.00
186.8450, 41468.00
188.0670, 41973.00
189.2900, 42137.00
190.5120, 41994.00
191.7340, 42317.00
192.9560, 42383.00
194.1780, 42427.00
195.4000, 42735.00
196.6220, 42842.00
197.8430, 42656.00
199.0640, 42773.00
200.2860, 43589.00
201.5070, 44090.00
202.7270, 43812.00
203.9480, 43303.00
205.1690, 42563.00
206.3890, 41938.00
207.6090, 41691.00
208.8290, 41834.00
210.0490, 41840.00
211.2690, 41686.00
212.4890, 41884.00
213.7080, 41803.00
214.9280, 41533.00
216.1470, 41588.00
217.3660, 41262.00
218.5850, 41129.00
219.8030, 41421.00
221.0220, 41124.00
222.2400, 41526.00
223.4590, 41326.00
224.6770, 41232.00
225.8950, 40934.00
227.1120, 41165.00
228.3300, 40964.00
229.5480, 41099.00
230.7650, 40831.00
231.9820, 41110.00
233.1990, 41170.00
234.4160, 41254.00
235.6330, 41203.00
236.8490, 41345.00
238.0660, 41369.00
239.2820, 41059.00
240.4980, 41584.00
241.7140, 41077.00
242.9300, 41044.00
244.1460, 41177.00
245.3610, 41142.00
246.5770, 41270.80
247.7920, 41264.00
249.0070, 41447.00
250.2220, 41530.00
251.4370, 41390.57
252.6510, 41587.70
253.8660, 41737.85
255.0800, 41843.39
256.2940, 41771.04
257.5080, 41928.40
258.7220, 41993.70
259.9360, 42055.23
261.1490, 42244.85
262.3630, 42198.37
263.5760, 42385.95
264.7890, 42480.08
266.0020, 42616.98
267.2150, 42727.00
268.4270, 42605.00
269.6400, 42382.00
270.8520, 42603.00
272.0640, 42728.00
273.2760, 42657.00
274.4880, 42637.00
275.7000, 42795.00
276.9120, 42617.00
278.1230, 42624.00
279.3340, 42492.00
280.5450, 42492.40
281.7560, 42454.00
282.9670, 42502.00
284.1780, 42425.00
285.3880, 42401.00
286.5980, 42529.00
287.8090, 42252.00
289.0190, 42522.00
290.2290, 42559.00
291.4380, 42385.00
292.6480, 42322.00
293.8570, 42274.00
295.0670, 42717.00
296.2760, 42717.00
297.4850, 42597.00
298.6930, 42750.00
299.9020, 42719.00
301.1110, 42831.00
302.3190, 42606.00
303.5270, 43084.00
304.7350, 43194.00
305.9430, 43018.00
307.1510, 42898.00
308.3580, 43267.00
309.5660, 43234.00
310.7730, 43593.00
311.9800, 43323.00
313.1870, 43208.00
314.3940, 43663.00
315.6010, 43600.00
316.8070, 43565.00
318.0130, 43890.00
319.2200, 44184.00
320.4260, 44176.00
321.6310, 44040.00
322.8370, 44410.00
324.0430, 44440.00
325.2480, 44949.00
326.4540, 44813.00
327.6590, 45263.00
328.8640, 45120.00
330.0680, 45164.00
331.2730, 44926.00
332.4780, 44910.00
333.6820, 44757.00
334.8860, 44600.00
336.0900, 44780.00
337.2940, 44559.00
338.4980, 44574.00
339.7010, 44551.00
340.9050, 44462.00
342.1080, 44557.00
343.3110, 44174.00
344.5140, 44218.54
345.7170, 44469.00
346.9200, 44170.00
348.1220, 44197.00
349.3240, 44409.00
350.5270, 44476.00
351.7290, 44429.00
352.9310, 44364.00
354.1320, 44453.00
355.3340, 44440.00
356.5350, 44827.00
357.7370, 44387.00
358.9380, 44805.22
360.1390, 44713.43
361.3400, 45151.00
362.5400, 44739.00
363.7410, 44528.00
364.9410, 44603.00
366.1410, 44422.00
367.3410, 44792.00
368.5410, 44723.00
369.7410, 44657.00
370.9400, 44450.00
372.1400, 44628.00
373.3390, 44839.00
374.5380, 44649.00
375.7370, 44754.00
376.9360, 44795.00
378.1350, 45055.00
379.3330, 44716.00
380.5310, 45028.00
381.7300, 44829.00
382.9280, 44818.00
384.1260, 44806.00
385.3230, 44875.00
386.5210, 45021.00
387.7180, 45272.00
388.9160, 45369.00
390.1130, 45070.00
391.3100, 45514.00
392.5060, 46479.00
393.7030, 45644.00
394.9000, 46082.00
396.0960, 45652.00
397.2920, 46087.00
398.4880, 45955.00
399.6840, 46292.00
400.8800, 46249.00
402.0750, 46274.00
403.2710, 46081.00
404.4660, 46119.00
405.6610, 45916.00
406.8560, 46135.00
408.0510, 45758.00
409.2450, 45905.00
410.4400, 45837.00
411.6340, 45746.00
412.8280, 45584.00
414.0220, 45731.00
415.2160, 45633.29
416.4100, 45821.00
417.6030, 45766.00
418.7970, 45806.00
419.9900, 46155.00
421.1830, 46070.00
422.3760, 45996.00
423.5690, 46276.00
424.7610, 46206.00
425.9540, 46119.00
427.1460, 46045.00
428.3380, 46053.00
429.5300, 46227.00
430.7220, 46134.00
431.9140, 46480.00
433.1050, 46185.00
434.2970, 46322.00
435.4880, 46297.00
436.6790, 46464.00
437.8700, 46160.00
439.0610, 46378.00
440.2510, 46618.00
441.4420, 46283.00
442.6320, 46508.00
443.8220, 46427.00
445.0120, 46394.00
446.2020, 46621.00
447.3910, 46609.00
448.5810, 46538.00
449.7700, 46501.00
450.9600, 46497.35
452.1490, 46551.62
453.3370, 46578.00
454.5260, 46713.00
455.7150, 46947.00
456.9030, 47002.00
458.0910, 46948.00
459.2800, 46841.00
460.4670, 47022.00
461.6550, 46951.00
462.8430, 46873.00
464.0300, 47086.00
465.2180, 47164.00
466.4050, 47016.00
467.5920, 47092.00
468.7790, 47098.00
469.9650, 47004.00
471.1520, 47074.13
472.3380, 47337.00
473.5250, 47258.00
474.7110, 47159.00
475.8970, 47558.00
477.0820, 47286.00
478.2680, 47384.00
479.4540, 47293.00
480.6390, 47413.00
481.8240, 47436.55
483.0090, 47417.00
484.1940, 47594.00
485.3780, 47739.00
486.5630, 47935.00
487.7470, 47690.00
488.9320, 48089.00
490.1160, 47875.00
491.3000, 48107.00
492.4830, 47972.00
493.6670, 47928.00
494.8500, 47996.00
496.0340, 47966.00
497.2170, 48231.00
498.4000, 48208.00
499.5820, 48278.00
500.7650, 48351.00
501.9480, 48258.00
503.1300, 48248.00
504.3120, 48256.00
505.4940, 48633.00
506.6760, 48136.00
507.8580, 48459.00
509.0390, 48593.00
510.2210, 48413.00
511.4020, 48730.00
512.5830, 48634.00
513.7640, 48452.00
514.9450, 48759.00
516.1250, 48743.00
517.3060, 49024.00
518.4860, 48788.00
519.6660, 48984.00
520.8460, 49177.00
522.0260, 48971.00
523.2060, 48946.00
524.3850, 48762.00
525.5650, 49043.00
526.7440, 49069.00
527.9230, 49173.00
529.1020, 49062.00
530.2810, 49130.00
531.4590, 48989.00
532.6380, 48921.00
533.8160, 49266.00
534.9940, 48884.00
536.1720, 49319.00
537.3500, 49273.31
538.5270, 49725.00
539.7050, 49354.00
540.8820, 49678.00
542.0590, 49670.00
543.2360, 49629.00
544.4130, 49648.00
545.5900, 49761.00
546.7660, 49375.00
547.9430, 49803.00
549.1190, 49511.00
550.2950, 49601.00
551.4710, 49489.00
552.6470, 49878.00
553.8220, 49740.00
554.9980, 49578.00
556.1730, 49699.00
557.3480, 49620.00
558.5230, 49739.00
559.6980, 49898.00
560.8730, 49904.00
562.0470, 49651.00
563.2220, 50033.00
564.3960, 49985.00
565.5700, 49881.00
566.7440, 50054.00
567.9170, 49804.00
569.0910, 50017.00
570.2640, 50181.00
571.4380, 49870.00
572.6110, 49793.00
573.7840, 49633.00
574.9570, 49559.41
576.1290, 49721.00
577.3020, 49467.00
578.4740, 49469.00
579.6460, 49338.00
580.8180, 48992.00
581.9900, 49066.00
583.1620, 49061.00
584.3330, 49228.00
585.5040, 48712.00
586.6760, 49024.00
587.8470, 48530.00
589.0180, 48517.00
590.1880, 48708.00
591.3590, 48576.00
592.5290, 48556.00
593.7000, 48700.00
594.8700, 48608.00
596.0400, 48523.00
597.2090, 48870.00
598.3790, 48706.00
599.5490, 48645.00
600.7180, 48595.00
601.8870, 48604.00
603.0560, 48641.00
604.2250, 48621.00
605.3940, 48861.00
606.5620, 48798.00
607.7300, 49084.00
608.8990, 48818.00
610.0670, 48982.00
611.2350, 48712.00
612.4020, 48974.00
613.5700, 48966.00
614.7370, 48810.00
615.9050, 48863.00
617.0720, 49119.00
618.2390, 48795.00
619.4060, 49161.00
620.5720, 48883.00
621.7390, 48753.00
622.9050, 48818.00
624.0710, 48828.00
625.2370, 49056.00
626.4030, 49255.00
627.5690, 48781.00
628.7340, 49083.00
629.9000, 49003.00
631.0650, 48992.00
632.2300, 49126.00
633.3950, 48925.00
634.5600, 49118.00
635.7240, 49206.00
636.8890, 49081.00
638.0530, 48987.00
639.2170, 49139.00
640.3810, 49247.00
641.5450, 49423.00
642.7080, 49245.00
643.8720, 49153.00
645.0350, 49092.00
646.1980, 49086.36
647.3610, 49529.00
648.5240, 49141.00
649.6870, 49214.00
650.8490, 49166.00
652.0120, 48918.00
653.1740, 49053.55
654.3360, 49045.00
655.4980, 49122.00
656.6600, 49221.00
657.8210, 49216.00
658.9830, 49538.00
660.1440, 49494.00
661.3050, 49423.00
662.4660, 49333.00
663.6270, 49160.00
664.7870, 49359.00
665.9480, 49519.00
667.1080, 49824.00
668.2680, 49609.00
669.4280, 49514.00
670.5880, 49853.00
671.7480, 49672.00
672.9070, 49927.00
674.0670, 49722.00
675.2260, 50022.00
676.3850, 50175.00
677.5440, 50147.00
678.7030, 50090.00
679.8610, 50293.00
681.0200, 50438.00
682.1780, 50802.00
683.3360, 51190.00
684.4940, 50792.00
685.6520, 50869.00
686.8090, 50675.00
687.9670, 51039.00
689.1240, 51015.00
690.2810, 50370.00
691.4380, 51040.00
692.5950, 50714.00
693.7520, 50838.00
694.9080, 50386.00
696.0650, 50646.00
697.2210, 50253.00
698.3770, 50594.00
699.5330, 50437.00
700.6880, 50130.00
701.8440, 50013.00
702.9990, 50053.00
704.1550, 50204.00
705.3100, 49791.00
706.4650, 50116.00
707.6190, 49917.00
708.7740, 49732.00
709.9290, 49855.00
711.0830, 50015.00
712.2370, 49682.00
713.3910, 49733.00
714.5450, 49629.00
715.6980, 49748.00
716.8520, 49758.74
718.0050, 49707.51
719.1580, 49847.00
720.3110, 49729.00
721.4640, 49707.00
722.6170, 49930.00
723.7700, 49751.00
724.9220, 49843.00
726.0740, 49889.00
727.2260, 49976.00
728.3780, 49987.00
729.5300, 49626.00
730.6810, 49930.00
731.8330, 49685.00
732.9840, 49781.00
734.1350, 49913.00
735.2860, 49755.00
736.4370, 49838.00
737.5880, 50168.00
738.7380, 49893.00
739.8880, 50021.00
741.0390, 49965.00
742.1890, 49911.00
743.3380, 49892.00
744.4880, 49996.00
745.6380, 49950.00
746.7870, 50032.00
747.9360, 50459.00
749.0850, 50164.00
750.2340, 50318.30
751.3830, 50083.00
752.5310, 50134.00
753.6800, 50542.00
754.8280, 50231.00
755.9760, 50250.00
757.1240, 50704.00
758.2720, 50048.00
759.4190, 50292.00
760.5670, 50074.00
761.7140, 50211.00
762.8610, 50479.00
764.0080, 50380.00
765.1550, 50242.00
766.3020, 50431.00
767.4480, 50223.00
768.5950, 50276.00
769.7410, 50490.00
770.8870, 50347.00
772.0330, 50663.00
773.1780, 51021.00
774.3240, 50139.00
775.4690, 50449.00
776.6140, 50466.00
777.7590, 50205.00
778.9040, 50366.00
780.0490, 50607.00
781.1940, 50856.00
782.3380, 50776.60
783.4820, 50334.00
784.6260, 50628.00
785.7700, 50393.00
786.9140, 50375.00
788.0580, 50298.00
789.2010, 50271.18
790.3450, 50606.00
791.4880, 50386.00
792.6310, 50378.00
793.7730, 50582.00
794.9160, 50435.79
796.0590, 50602.00
797.2010, 50728.00
798.3430, 50679.24
799.4850, 50890.00
800.6270, 50651.00
801.7690, 50718.00
802.9100, 50591.00
804.0520, 50677.00
805.1930, 50832.00
806.3340, 50857.00
807.4750, 50940.00
808.6160, 50761.00
809.7560, 50798.00
810.8970, 50541.00
812.0370, 50627.00
813.1770, 50738.00
814.3170, 50251.00
815.4570, 50675.00
816.5960, 50793.00
817.7360, 50965.00
818.8750, 50821.00
820.0140, 50859.00
821.1530, 50952.00
822.2920, 50565.00
823.4310, 50569.00
824.5690, 50739.00
825.7070, 50744.00
826.8460, 51099.00
827.9840, 50894.00
829.1220, 51025.00
830.2590, 50925.00
831.3970, 51129.00
832.5340, 50931.00
833.6710, 51302.00
834.8080, 51252.00
835.9450, 51200.00
837.0820, 51328.51
838.2190, 51112.00
839.3550, 51364.00
840.4910, 51201.00
841.6270, 51237.07
842.7630, 51401.00
843.8990, 51570.00
845.0350, 51578.00
846.1700, 51594.00
847.3060, 51898.00
848.4410, 51842.00
849.5760, 51889.00
850.7100, 52230.00
851.8450, 52095.00
852.9800, 52475.00
854.1140, 52637.00
855.2480, 52325.00
856.3820, 52747.00
857.5160, 52975.00
858.6500, 53352.00
859.7830, 53557.00
860.9170, 53881.00
862.0500, 54106.00
863.1830, 54597.00
864.3160, 54806.00
865.4480, 55471.36
866.5810, 56086.00
867.7130, 56964.00
868.8460, 57712.00
869.9780, 58784.00
871.1100, 59378.00
872.2410, 60437.00
873.3730, 61161.00
874.5050, 61661.00
875.6360, 61739.00
876.7670, 61850.00
877.8980, 61509.00
879.0290, 61016.00
880.1590, 60574.00
881.2900, 59850.00
882.4200, 58879.00
883.5500, 58170.00
884.6800, 57262.00
885.8100, 56580.00
886.9400, 55843.00
888.0690, 55395.00
889.1990, 54907.00
890.3280, 54627.00
891.4570, 54406.00
892.5860, 53888.00
893.7140, 53438.00
894.8430, 53574.00
895.9710, 53261.00
897.1000, 53114.00
898.2280, 52792.00
899.3560, 52871.00
900.4830, 52829.00
901.6110, 52750.00
902.7380, 52636.00
903.8660, 52606.00
904.9930, 52727.00
906.1200, 52634.20
907.2460, 52333.00
908.3730, 52468.00
909.5000, 52568.00
910.6260, 52211.00
911.7520, 52463.00
912.8780, 52488.00
914.0040, 52263.00
915.1290, 52293.00
916.2550, 52342.00
917.3800, 52384.00
918.5050, 52420.84
919.6300, 52248.00
920.7550, 52415.00
921.8800, 52427.00
923.0040, 52242.00
924.1290, 52457.00
925.2530, 52477.00
926.3770, 52532.00
927.5010, 52584.90
928.6250, 52294.00
929.7480, 52606.00
930.8720, 52372.00
931.9950, 52386.00
933.1180, 52458.00
934.2410, 52408.00
935.3640, 52051.00
936.4860, 52463.00
937.6090, 52327.00
938.7310, 52535.00
939.8530, 52642.00
940.9750, 52407.00
942.0970, 52513.00
943.2180, 52468.00
944.3400, 52249.00
945.4610, 52301.00
946.5820, 52381.00
947.7030, 52435.00
948.8240, 52281.00
949.9450, 52653.00
951.0650, 52649.00
952.1860, 52492.00
953.3060, 52620.00
954.4260, 52621.00
955.5460, 52638.63
956.6650, 52551.00
957.7850, 52748.00
958.9040, 52675.00
960.0230, 52732.00
961.1420, 52735.00
962.2610, 52756.00
963.3800, 52831.00
964.4990, 52847.73
965.6170, 52748.00
966.7350, 52858.00
967.8530, 52789.00
968.9710, 52626.00
970.0890, 52696.00
971.2070, 52802.00
972.3240, 52676.00
973.4410, 52731.00
974.5580, 52916.00
975.6750, 52394.00
976.7920, 52740.00
977.9090, 52774.00
979.0250, 53119.00
980.1410, 53111.05
981.2580, 52977.00
982.3740, 53116.00
983.4890, 53063.00
984.6050, 53081.00
985.7200, 53051.00
986.8360, 53136.00
987.9510, 53037.00
989.0660, 52981.00
990.1810, 53406.00
991.2950, 53095.00
992.4100, 53295.00
993.5240, 53182.00
994.6390, 53334.00
995.7530, 53056.00
996.8660, 53285.00
997.9800, 53102.97
999.0940, 53355.00
1000.207, 52985.00
1001.320, 52999.00
1002.433, 53237.00
1003.546, 53305.00
1004.659, 53462.00
1005.772, 53194.00
1006.884, 53360.00
1007.996, 53245.00
1009.108, 53738.00
1010.220, 53015.00
1011.332, 53478.00
1012.444, 53229.00
1013.555, 53497.00
1014.666, 53317.00
1015.777, 53625.00
1016.888, 53243.00
1017.999, 53598.00
1019.110, 53502.00
1020.220, 53387.00
1021.331, 53367.00
1022.441, 53328.00
1023.551, 53590.00
1024.661, 53489.00
1025.770, 53730.00
1026.880, 53789.00
1027.989, 53328.00
1029.098, 53512.00
1030.207, 53454.00
1031.316, 53753.00
1032.425, 53672.00
1033.533, 53460.00
1034.642, 53603.00
1035.750, 53573.00
1036.858, 53760.00
1037.966, 53698.00
1039.073, 53922.00
1040.181, 54041.00
1041.288, 53756.00
1042.396, 53584.00
1043.503, 53783.00
1044.610, 53945.00
1045.716, 53756.00
1046.823, 53726.00
1047.929, 53826.00
1049.036, 53907.00
1050.142, 53820.00
1051.248, 53849.00
1052.353, 53890.00
1053.459, 54100.00
1054.564, 53981.00
1055.670, 54138.00
1056.775, 54087.00
1057.880, 53954.00
1058.985, 54014.00
1060.089, 54248.00
1061.194, 54176.00
1062.298, 54217.00
1063.402, 54147.00
1064.506, 53979.00
1065.610, 54119.00
1066.713, 53906.00
1067.817, 54130.00
1068.920, 54201.00
1070.023, 53840.00
1071.126, 53953.00
1072.229, 54032.00
1073.332, 54029.00
1074.435, 54167.12
1075.537, 54174.00
1076.639, 54299.00
1077.741, 54223.00
1078.843, 54111.00
1079.945, 53932.00
1081.046, 54016.00
1082.148, 54171.00
1083.249, 54105.00
1084.350, 53985.00
1085.451, 54006.00
1086.551, 53973.00
1087.652, 54075.00
1088.752, 53968.00
1089.853, 54011.35
1090.953, 54127.00
1092.053, 54080.00
1093.152, 53967.00
1094.252, 54123.00
1095.351, 53872.00
1096.451, 54104.00
1097.550, 53957.00
1098.649, 54167.00
1099.748, 54030.00
1100.846, 53842.00
1101.945, 54137.00
1103.043, 53837.00
1104.141, 54103.00
1105.239, 54031.00
1106.337, 54117.36
1107.434, 53861.00
1108.532, 54160.00
1109.629, 54089.00
1110.726, 53640.00
1111.823, 53841.00
1112.920, 53791.00
1114.017, 54059.00
1115.113, 53992.37
1116.210, 53970.49
1117.306, 53992.00
1118.402, 53867.00
1119.498, 54007.00
1120.593, 54079.00
1121.689, 54198.00
1122.784, 53966.00
1123.879, 54023.00
1124.974, 53967.09
1126.069, 53862.00
1127.164, 53839.00
1128.259, 53764.00
1129.353, 53610.00
1130.447, 53686.00
1131.541, 53691.00
1132.635, 53528.00
1133.729, 53664.00
1134.822, 53799.00
1135.916, 53802.00
1137.009, 53494.00
1138.102, 53217.00
1139.195, 53460.00
1140.288, 53521.00
1141.380, 53408.00
1142.473, 53208.00
1143.565, 53520.00
1144.657, 53531.00
1145.749, 53611.00
1146.841, 53649.00
1147.932, 53610.00
1149.024, 53581.97
1150.115, 53514.65
1151.206, 53543.00
1152.297, 53500.18
1153.388, 53535.00
1154.479, 53425.00
1155.569, 53433.00
1156.659, 53311.00
1157.750, 53398.00
1158.839, 53446.00
1159.929, 53553.00
1161.019, 53191.00
1162.108, 53532.00
1163.198, 53307.00
1164.287, 53149.00
1165.376, 53483.00
1166.465, 53459.00
1167.553, 53376.00
1168.642, 53373.00
1169.730, 53478.00
1170.818, 53311.00
1171.906, 53418.00
1172.994, 53128.00
1174.082, 53283.00
1175.170, 53540.00
1176.257, 53265.00
1177.344, 53367.00
1178.431, 53435.00
1179.518, 53220.00
1180.605, 53549.00
1181.691, 53471.00
1182.778, 53627.00
1183.864, 53243.00
1184.950, 53341.00
1186.036, 53457.00
1187.122, 53730.00
1188.207, 53571.00
1189.292, 53504.00
1190.378, 53137.00
1191.463, 53265.16
1192.548, 53562.00
1193.632, 53528.00
1194.717, 53730.36
1195.801, 54125.00
1196.886, 53399.00
1197.970, 53547.00
1199.054, 53136.00
1200.137, 53252.00
1201.221, 53402.00
1202.305, 53593.00
1203.388, 53422.00
1204.471, 53338.00
1205.554, 53205.00
1206.637, 53506.00
1207.719, 53283.00
1208.802, 53356.00
1209.884, 53736.00
1210.966, 53315.00
1212.048, 53311.00
1213.130, 53381.00
1214.212, 53035.00
1215.293, 53416.00
1216.374, 53323.00
1217.456, 53481.00
1218.536, 53110.00
1219.617, 53343.00
1220.698, 53339.00
1221.778, 53311.00
1222.859, 53320.00
1223.939, 53377.00
1225.019, 53395.00
1226.099, 53305.00
1227.178, 53378.81
1228.258, 53296.00
1229.337, 53396.55
1230.417, 53430.27
1231.496, 53358.00
1232.574, 53423.00
1233.653, 53491.00
1234.732, 53390.00
1235.810, 54012.00
1236.888, 53480.00
1237.966, 53418.00
1239.044, 53599.00
1240.122, 53072.00
1241.199, 53467.00
1242.277, 53333.00
1243.354, 53490.00
1244.431, 53336.00
1245.508, 53215.00
1246.585, 53364.00
1247.661, 53422.00
1248.738, 53265.00
1249.814, 53546.00
1250.890, 53361.00
1251.966, 53201.00
1253.042, 53174.00
1254.117, 53152.00
1255.193, 53100.45
1256.268, 53110.64
1257.343, 53069.00
1258.418, 53149.39
1259.493, 53110.01
1260.567, 53187.00
1261.642, 53089.00
1262.716, 53160.55
1263.790, 53292.00
1264.864, 53191.00
1265.938, 53342.00
1267.011, 53239.00
1268.085, 53569.00
1269.158, 53228.00
1270.231, 53428.00
1271.304, 53290.00
1272.377, 53347.52
1273.450, 53428.00
1274.522, 53447.00
1275.594, 53484.00
1276.666, 53336.00
1277.738, 53385.00
1278.810, 53264.00
1279.882, 53790.00
1280.953, 53557.00
1282.025, 53518.00
1283.096, 53658.00
1284.167, 53467.00
1285.238, 53528.00
1286.308, 53528.00
1287.379, 53596.00
1288.449, 53512.00
1289.519, 53635.00
1290.589, 53606.34
1291.659, 53722.00
1292.729, 53604.00
1293.798, 53687.00
1294.868, 53669.00
1295.937, 53981.00
1297.006, 53873.00
1298.075, 53872.30
1299.143, 53296.00
1300.212, 53644.00
1301.280, 53631.00
1302.348, 53401.00
1303.416, 53602.00
1304.484, 53384.00
1305.552, 53612.00
1306.620, 53718.00
1307.687, 53524.00
1308.754, 53660.00
1309.821, 53577.00
1310.888, 53621.00
1311.955, 53348.00
1313.021, 53731.00
1314.088, 53727.00
1315.154, 53433.00
1316.220, 53595.00
1317.286, 53573.00
1318.352, 53743.00
1319.417, 53663.00
1320.483, 53595.00
1321.548, 53896.00
1322.613, 53753.00
1323.678, 53706.00
1324.743, 53694.00
1325.807, 53603.00
1326.872, 53958.00
1327.936, 54010.00
1329.000, 53746.00
1330.064, 53871.00
1331.128, 53387.00
1332.191, 53846.00
1333.255, 53828.00
1334.318, 53649.00
1335.381, 53818.00
1336.444, 53550.00
1337.507, 53891.00
1338.569, 53853.00
1339.632, 54131.00
1340.694, 54019.00
1341.756, 53530.00
1342.818, 53801.00
1343.880, 53636.00
1344.941, 53581.00
1346.003, 53922.00
1347.064, 53689.00
1348.125, 53817.00
1349.186, 53840.00
1350.247, 53873.00
1351.308, 53937.57
1352.368, 53938.00
1353.428, 53926.00
1354.489, 53937.00
1355.549, 53739.00
1356.608, 53677.00
1357.668, 53829.00
1358.727, 54211.00
1359.787, 53906.39
1360.846, 54065.00
1361.905, 53737.00
1362.964, 53620.00
1364.022, 54062.00
1365.081, 53783.00
1366.139, 53925.00
1367.197, 54008.00
1368.255, 53729.00
1369.313, 53869.88
1370.371, 53681.00
1371.428, 53881.00
1372.486, 53905.00
1373.543, 53960.00
1374.600, 54010.33
1375.657, 53964.00
1376.713, 54005.00
1377.770, 53927.00
1378.826, 53878.00
1379.882, 53836.00
1380.938, 54045.00
1381.994, 54223.00
1383.050, 53863.00
1384.106, 53794.00
1385.161, 53539.00
1386.216, 53799.00
1387.271, 53857.00
1388.326, 54012.00
1389.381, 54050.68
1390.435, 54075.30
1391.490, 54028.00
1392.544, 54075.00
1393.598, 53998.00
1394.652, 54002.00
1395.705, 54025.00
1396.759, 53834.00
1397.812, 53884.06
1398.866, 54026.00
1399.919, 53828.00
1400.972, 53756.00
1402.024, 53686.31
1403.077, 53769.18
1404.129, 53760.93
1405.181, 53835.10
1406.233, 53884.00
1407.285, 53977.00
1408.337, 54062.00
1409.389, 54050.00
1410.440, 54085.13
1411.491, 54066.72
1412.542, 54063.00
1413.593, 54028.00
1414.644, 54009.00
1415.695, 54054.00
1416.745, 54149.00
1417.795, 54337.00
1418.845, 53843.00
1419.895, 54095.00
1420.945, 53883.00
1421.995, 54210.00
1423.044, 54252.00
1424.093, 54286.00
1425.142, 53972.00
1426.191, 53912.00
1427.240, 54171.00
1428.289, 54164.00
1429.337, 53701.00
1430.385, 53850.00
1431.433, 53878.00
1432.481, 54269.00
1433.529, 54083.00
1434.577, 54040.00
1435.624, 53997.00
1436.672, 54112.00
1437.719, 53943.00
1438.766, 54173.00
1439.812, 54221.00
1440.859, 54083.00
1441.905, 53959.00
1442.952, 54272.00
1443.998, 54190.00
1445.044, 54176.00
1446.090, 54106.00
1447.135, 54267.00
1448.181, 54229.48
1449.226, 54260.31
1450.271, 54342.00
1451.316, 54209.00
1452.361, 54349.00
1453.405, 54147.00
1454.450, 54086.00
1455.494, 54028.00
1456.538, 53932.00
1457.582, 54114.00
1458.626, 54331.00
1459.670, 54178.00
1460.713, 54203.00
1461.757, 53993.00
1462.800, 54084.49
1463.843, 53813.00
1464.886, 54213.00
1465.928, 54193.00
1466.971, 54215.00
1468.013, 53973.00
1469.055, 54263.00
1470.097, 54563.00
1471.139, 54104.00
1472.181, 54043.00
1473.222, 54273.00
1474.263, 54170.00
1475.305, 54132.00
1476.346, 54307.00
1477.386, 54149.00
1478.427, 54186.00
1479.468, 54398.00
1480.508, 54379.00
1481.548, 54637.00
1482.588, 54391.00
1483.628, 54179.00
1484.668, 53896.00
1485.707, 54066.00
1486.747, 54148.00
1487.786, 54154.00
1488.825, 54402.00
1489.864, 54089.00
1490.902, 54133.00
1491.941, 54252.00
1492.979, 54349.00
1494.017, 54449.00
1495.055, 54462.00
1496.093, 54494.00
1497.131, 54346.00
1498.168, 54232.00
1499.206, 54656.00
1500.243, 54384.00
1501.280, 54489.00
1502.317, 54259.00
1503.354, 54152.00
1504.390, 54292.00
1505.426, 54267.00
1506.463, 54386.00
1507.499, 54166.00
1508.535, 54259.79
1509.570, 54305.34
1510.606, 54300.00
1511.641, 54458.00
1512.676, 54520.00
1513.711, 54569.00
1514.746, 54551.00
1515.781, 54574.62
1516.816, 54403.00
1517.850, 54534.00
1518.884, 54218.00
1519.918, 54122.00
1520.952, 54625.00
1521.986, 54215.00
1523.019, 53940.00
1524.053, 54328.00
1525.086, 54610.00
1526.119, 54556.00
1527.152, 54131.00
1528.185, 54369.00
1529.217, 54425.00
1530.250, 54289.00
1531.282, 54602.00
1532.314, 54295.00
1533.346, 54287.00
1534.377, 54364.14
1535.409, 54471.62
1536.440, 54532.03
1537.472, 54547.92
1538.503, 54385.91
1539.534, 54453.61
1540.564, 54429.26
1541.595, 54401.12
1542.625, 54501.16
1543.656, 54365.03
1544.686, 54463.03
1545.716, 54467.57
1546.745, 54514.89
1547.775, 54469.57
1548.804, 54452.87
1549.834, 54528.82
1550.863, 54553.47
1551.892, 54497.50
1552.920, 54547.53
1553.949, 54408.16
1554.977, 54434.99
1556.006, 54533.54
1557.034, 54482.21
1558.062, 54533.95
1559.089, 54546.43
1560.117, 54380.55
1561.144, 54524.85
1562.172, 54535.02
1563.199, 54560.00
1564.226, 54594.00
1565.252, 54658.00
1566.279, 54608.00
1567.305, 54857.00
1568.332, 54719.00
1569.358, 54671.00
1570.384, 54503.00
1571.409, 54825.00
##END=



