##NAMES=Ferberite
##RRUFFID=R050090
##IDEAL CHEMISTRY=Fe^2+^W^6+^O_4_
##LOCALITY=Yaogangxian mine, Cheng Zhu City, South Hunan, China
##OWNER=RRUFF
##SOURCE=Rock Currier
##DESCRIPTION=Dark gray tabular crystal
##STATUS=The identification of this mineral has been confirmed by X-ray diffraction and chemical analysis
##URL=rruff.info/R050090
##MEASURED CHEMISTRY=(Fe^2+^_0.56_Mn_0.44_)W_1.00_O_4_
##PIN_ID=L01590
##ORIENTATION=Laser parallel to (1 0 1). Fiducial mark perpendicular to laser is parallel to b [0 1 0]
98.41600, 4675.000
99.64900, 4775.000
100.8830, 4875.000
102.1160, 4748.000
103.3490, 4624.000
104.5820, 4905.000
105.8150, 5531.000
107.0470, 6954.000
108.2800, 6665.897
109.5120, 6619.469
110.7440, 6900.000
111.9760, 5483.000
113.2080, 5955.000
114.4400, 5613.000
115.6710, 6284.000
116.9030, 6228.000
118.1340, 6015.000
119.3650, 5880.000
120.5960, 5864.000
121.8270, 6076.000
123.0580, 6885.000
124.2880, 7606.000
125.5190, 8014.000
126.7490, 9311.000
127.9790, 11161.00
129.2090, 12999.00
130.4390, 13751.00
131.6680, 13279.00
132.8980, 9941.000
134.1270, 7993.000
135.3560, 6965.000
136.5850, 6254.000
137.8140, 6108.000
139.0430, 6223.000
140.2710, 6163.000
141.5000, 5701.000
142.7280, 5535.000
143.9560, 5493.000
145.1840, 5414.706
146.4120, 5498.000
147.6390, 5601.000
148.8670, 5468.000
150.0940, 5611.000
151.3210, 5894.000
152.5490, 5977.000
153.7750, 5696.000
155.0020, 5606.000
156.2290, 5527.000
157.4550, 5319.000
158.6810, 5249.000
159.9080, 5111.000
161.1340, 5099.000
162.3590, 5245.000
163.5850, 5479.000
164.8110, 5661.000
166.0360, 5676.000
167.2610, 5811.000
168.4860, 5836.000
169.7110, 6024.000
170.9360, 5977.921
172.1610, 6143.000
173.3850, 5900.000
174.6100, 5836.000
175.8340, 5762.000
177.0580, 5601.000
178.2820, 5612.000
179.5050, 5672.000
180.7290, 5540.000
181.9520, 5408.000
183.1760, 5552.000
184.3990, 5462.000
185.6220, 5601.000
186.8450, 5627.000
188.0670, 5818.395
189.2900, 5857.500
190.5120, 5903.168
191.7340, 6027.000
192.9560, 5969.000
194.1780, 6131.000
195.4000, 6205.000
196.6220, 6405.000
197.8430, 6419.000
199.0640, 6590.000
200.2860, 6990.000
201.5070, 7372.000
202.7270, 7724.000
203.9480, 7311.000
205.1690, 6481.000
206.3890, 6078.000
207.6090, 5905.000
208.8290, 6108.000
210.0490, 5597.000
211.2690, 5484.000
212.4890, 5370.000
213.7080, 5330.000
214.9280, 5069.000
216.1470, 4804.000
217.3660, 4791.000
218.5850, 4778.000
219.8030, 4751.000
221.0220, 4654.000
222.2400, 4568.000
223.4590, 4600.000
224.6770, 4602.000
225.8950, 4557.000
227.1120, 4587.000
228.3300, 4624.000
229.5480, 4555.000
230.7650, 4572.000
231.9820, 4570.397
233.1990, 4545.768
234.4160, 4575.000
235.6330, 4525.000
236.8490, 4518.000
238.0660, 4498.000
239.2820, 4587.000
240.4980, 4554.000
241.7140, 4533.000
242.9300, 4561.969
244.1460, 4527.139
245.3610, 4534.000
246.5770, 4563.000
247.7920, 4489.000
249.0070, 4639.000
250.2220, 4641.000
251.4370, 4585.000
252.6510, 4600.000
253.8660, 4808.773
255.0800, 4935.295
256.2940, 5015.380
257.5080, 5051.522
258.7220, 4912.109
259.9360, 4999.390
261.1490, 4995.804
262.3630, 4988.511
263.5760, 5107.679
264.7890, 4993.784
266.0020, 5110.947
267.2150, 5135.875
268.4270, 5025.000
269.6400, 5073.000
270.8520, 5030.000
272.0640, 4926.000
273.2760, 4907.000
274.4880, 4941.000
275.7000, 4885.000
276.9120, 4968.000
278.1230, 4888.000
279.3340, 4882.000
280.5450, 4765.000
281.7560, 4747.000
282.9670, 4767.000
284.1780, 4726.000
285.3880, 4728.000
286.5980, 4834.000
287.8090, 4867.000
289.0190, 4779.000
290.2290, 4854.000
291.4380, 4842.000
292.6480, 4840.000
293.8570, 4797.000
295.0670, 4989.000
296.2760, 4884.000
297.4850, 5026.000
298.6930, 4987.000
299.9020, 4900.000
301.1110, 4916.000
302.3190, 4990.000
303.5270, 4870.000
304.7350, 4867.000
305.9430, 4812.000
307.1510, 4968.000
308.3580, 4948.000
309.5660, 5067.000
310.7730, 5050.000
311.9800, 5089.000
313.1870, 5161.000
314.3940, 5228.000
315.6010, 5306.000
316.8070, 5457.000
318.0130, 5567.000
319.2200, 5708.000
320.4260, 5838.000
321.6310, 6005.000
322.8370, 6097.000
324.0430, 6196.000
325.2480, 6303.000
326.4540, 6355.000
327.6590, 6243.000
328.8640, 6279.000
330.0680, 6034.000
331.2730, 6016.000
332.4780, 5859.000
333.6820, 5797.000
334.8860, 5692.000
336.0900, 5623.000
337.2940, 5580.000
338.4980, 5507.000
339.7010, 5373.000
340.9050, 5440.000
342.1080, 5347.000
343.3110, 5286.000
344.5140, 5341.000
345.7170, 5321.000
346.9200, 5312.000
348.1220, 5320.000
349.3240, 5205.000
350.5270, 5245.000
351.7290, 5302.000
352.9310, 5154.000
354.1320, 5256.000
355.3340, 5154.000
356.5350, 5176.000
357.7370, 5134.000
358.9380, 5202.000
360.1390, 5068.000
361.3400, 5172.000
362.5400, 5133.000
363.7410, 5224.000
364.9410, 5206.825
366.1410, 5120.000
367.3410, 5171.000
368.5410, 5119.000
369.7410, 5081.000
370.9400, 5039.000
372.1400, 5090.000
373.3390, 5135.000
374.5380, 5096.000
375.7370, 5087.000
376.9360, 5050.000
378.1350, 5096.000
379.3330, 5077.000
380.5310, 5178.000
381.7300, 5153.000
382.9280, 5187.000
384.1260, 5204.000
385.3230, 5295.000
386.5210, 5318.000
387.7180, 5380.000
388.9160, 5530.000
390.1130, 5731.000
391.3100, 5827.000
392.5060, 6034.000
393.7030, 6422.000
394.9000, 6601.000
396.0960, 6907.000
397.2920, 7062.000
398.4880, 7073.000
399.6840, 6920.000
400.8800, 6784.000
402.0750, 6542.000
403.2710, 6158.000
404.4660, 5951.000
405.6610, 5788.000
406.8560, 5598.000
408.0510, 5438.000
409.2450, 5354.866
410.4400, 5349.000
411.6340, 5242.000
412.8280, 5234.000
414.0220, 5230.000
415.2160, 5104.000
416.4100, 5116.000
417.6030, 5142.000
418.7970, 5109.000
419.9900, 5099.000
421.1830, 5030.000
422.3760, 4997.000
423.5690, 5016.000
424.7610, 5006.000
425.9540, 5011.000
427.1460, 5003.000
428.3380, 4980.000
429.5300, 4936.000
430.7220, 4914.000
431.9140, 4871.000
433.1050, 4867.054
434.2970, 4925.000
435.4880, 4887.000
436.6790, 4960.000
437.8700, 5028.000
439.0610, 4976.000
440.2510, 4912.000
441.4420, 4919.000
442.6320, 4970.000
443.8220, 4957.643
445.0120, 5064.000
446.2020, 5026.000
447.3910, 4946.000
448.5810, 5010.000
449.7700, 4978.000
450.9600, 5050.000
452.1490, 4969.000
453.3370, 5049.000
454.5260, 4962.000
455.7150, 5041.000
456.9030, 5088.000
458.0910, 5148.000
459.2800, 5073.000
460.4670, 5050.000
461.6550, 5061.000
462.8430, 4981.000
464.0300, 5054.000
465.2180, 5041.000
466.4050, 5070.000
467.5920, 5097.000
468.7790, 5075.000
469.9650, 5155.000
471.1520, 5135.000
472.3380, 5081.000
473.5250, 5046.000
474.7110, 5169.000
475.8970, 5143.000
477.0820, 5188.000
478.2680, 5176.136
479.4540, 5091.000
480.6390, 5142.000
481.8240, 5083.000
483.0090, 5134.000
484.1940, 5160.000
485.3780, 5142.000
486.5630, 5139.000
487.7470, 5210.000
488.9320, 5226.000
490.1160, 5221.000
491.3000, 5151.000
492.4830, 5170.000
493.6670, 5214.000
494.8500, 5296.000
496.0340, 5216.000
497.2170, 5307.000
498.4000, 5345.000
499.5820, 5294.000
500.7650, 5411.000
501.9480, 5318.000
503.1300, 5488.000
504.3120, 5483.000
505.4940, 5461.000
506.6760, 5479.000
507.8580, 5455.000
509.0390, 5467.000
510.2210, 5515.000
511.4020, 5474.000
512.5830, 5471.000
513.7640, 5517.000
514.9450, 5550.000
516.1250, 5482.000
517.3060, 5482.000
518.4860, 5485.000
519.6660, 5523.000
520.8460, 5543.802
522.0260, 5582.267
523.2060, 5621.000
524.3850, 5665.000
525.5650, 5711.000
526.7440, 5742.000
527.9230, 5761.000
529.1020, 5805.000
530.2810, 5779.000
531.4590, 5809.000
532.6380, 5810.000
533.8160, 5886.000
534.9940, 5780.000
536.1720, 5862.000
537.3500, 5927.000
538.5270, 5894.000
539.7050, 5818.000
540.8820, 5849.000
542.0590, 5919.000
543.2360, 5804.000
544.4130, 5953.000
545.5900, 5890.000
546.7660, 5701.000
547.9430, 5736.000
549.1190, 5760.000
550.2950, 5597.000
551.4710, 5675.000
552.6470, 5607.000
553.8220, 5541.000
554.9980, 5371.000
556.1730, 5421.000
557.3480, 5569.000
558.5230, 5343.000
559.6980, 5453.000
560.8730, 5448.000
562.0470, 5414.000
563.2220, 5341.000
564.3960, 5359.000
565.5700, 5283.000
566.7440, 5408.000
567.9170, 5473.000
569.0910, 5393.000
570.2640, 5368.000
571.4380, 5298.000
572.6110, 5308.000
573.7840, 5334.000
574.9570, 5349.000
576.1290, 5331.000
577.3020, 5287.000
578.4740, 5403.000
579.6460, 5366.000
580.8180, 5226.000
581.9900, 5369.000
583.1620, 5369.000
584.3330, 5271.000
585.5040, 5305.000
586.6760, 5352.000
587.8470, 5190.000
589.0180, 5272.000
590.1880, 5287.000
591.3590, 5301.000
592.5290, 5386.000
593.7000, 5461.000
594.8700, 5287.000
596.0400, 5388.000
597.2090, 5275.000
598.3790, 5316.000
599.5490, 5486.000
600.7180, 5453.000
601.8870, 5427.000
603.0560, 5407.000
604.2250, 5422.000
605.3940, 5395.000
606.5620, 5415.000
607.7300, 5493.000
608.8990, 5434.000
610.0670, 5547.000
611.2350, 5541.148
612.4020, 5555.000
613.5700, 5506.000
614.7370, 5519.610
615.9050, 5539.000
617.0720, 5511.000
618.2390, 5498.474
619.4060, 5488.251
620.5720, 5416.000
621.7390, 5521.000
622.9050, 5585.000
624.0710, 5496.000
625.2370, 5521.000
626.4030, 5473.000
627.5690, 5558.000
628.7340, 5546.000
629.9000, 5495.000
631.0650, 5561.000
632.2300, 5543.000
633.3950, 5561.742
634.5600, 5525.000
635.7240, 5609.000
636.8890, 5591.000
638.0530, 5624.000
639.2170, 5675.000
640.3810, 5527.000
641.5450, 5586.000
642.7080, 5588.000
643.8720, 5609.000
645.0350, 5630.000
646.1980, 5492.000
647.3610, 5600.000
648.5240, 5702.000
649.6870, 5563.000
650.8490, 5639.000
652.0120, 5628.000
653.1740, 5626.000
654.3360, 5644.000
655.4980, 5671.938
656.6600, 5795.000
657.8210, 5754.000
658.9830, 5787.389
660.1440, 5822.968
661.3050, 5769.000
662.4660, 5882.000
663.6270, 5915.000
664.7870, 5913.000
665.9480, 6012.000
667.1080, 5998.000
668.2680, 6025.000
669.4280, 5955.000
670.5880, 6142.000
671.7480, 6035.000
672.9070, 6218.000
674.0670, 6167.000
675.2260, 6175.000
676.3850, 6265.000
677.5440, 6302.886
678.7030, 6376.776
679.8610, 6469.000
681.0200, 6500.000
682.1780, 6541.000
683.3360, 6521.000
684.4940, 6563.115
685.6520, 6557.000
686.8090, 6619.000
687.9670, 6618.000
689.1240, 6665.000
690.2810, 6662.711
691.4380, 6697.000
692.5950, 6648.000
693.7520, 6589.000
694.9080, 6570.000
696.0650, 6518.000
697.2210, 6505.000
698.3770, 6422.000
699.5330, 6342.000
700.6880, 6239.000
701.8440, 6368.000
702.9990, 6228.000
704.1550, 6108.000
705.3100, 6180.000
706.4650, 6056.000
707.6190, 6072.000
708.7740, 5975.000
709.9290, 5948.000
711.0830, 5925.543
712.2370, 5941.000
713.3910, 5881.000
714.5450, 5815.000
715.6980, 5800.000
716.8520, 5758.000
718.0050, 5753.000
719.1580, 5733.000
720.3110, 5689.000
721.4640, 5673.881
722.6170, 5599.000
723.7700, 5646.000
724.9220, 5607.000
726.0740, 5654.000
727.2260, 5674.000
728.3780, 5630.000
729.5300, 5622.000
730.6810, 5626.000
731.8330, 5607.000
732.9840, 5636.000
734.1350, 5651.000
735.2860, 5641.000
736.4370, 5658.000
737.5880, 5611.000
738.7380, 5627.000
739.8880, 5643.000
741.0390, 5654.000
742.1890, 5576.000
743.3380, 5648.000
744.4880, 5687.000
745.6380, 5809.000
746.7870, 5731.000
747.9360, 5670.000
749.0850, 5821.000
750.2340, 5906.000
751.3830, 5954.938
752.5310, 6207.000
753.6800, 5995.000
754.8280, 5977.000
755.9760, 5722.040
757.1240, 6214.000
758.2720, 6250.000
759.4190, 6215.000
760.5670, 6302.000
761.7140, 6386.000
762.8610, 6435.000
764.0080, 6537.000
765.1550, 6604.000
766.3020, 6622.000
767.4480, 6674.805
768.5950, 6706.641
769.7410, 6732.000
770.8870, 6715.000
772.0330, 6772.000
773.1780, 6667.284
774.3240, 6672.999
775.4690, 6751.000
776.6140, 6651.000
777.7590, 6605.000
778.9040, 6700.000
780.0490, 6702.000
781.1940, 6526.000
782.3380, 6529.000
783.4820, 6579.000
784.6260, 6519.000
785.7700, 6464.000
786.9140, 6469.000
788.0580, 6367.000
789.2010, 6407.000
790.3450, 6355.000
791.4880, 6418.000
792.6310, 6413.000
793.7730, 6398.000
794.9160, 6246.524
796.0590, 6340.161
797.2010, 6387.373
798.3430, 6390.642
799.4850, 6218.357
800.6270, 6272.764
801.7690, 6236.324
802.9100, 6196.169
804.0520, 6306.000
805.1930, 6203.000
806.3340, 6216.000
807.4750, 6199.000
808.6160, 6134.000
809.7560, 6271.000
810.8970, 6152.000
812.0370, 6182.000
813.1770, 6158.000
814.3170, 6152.434
815.4570, 6153.379
816.5960, 6194.000
817.7360, 6169.000
818.8750, 6191.000
820.0140, 6265.000
821.1530, 6276.000
822.2920, 6403.000
823.4310, 6289.000
824.5690, 6302.000
825.7070, 6375.000
826.8460, 6479.000
827.9840, 6492.000
829.1220, 6415.000
830.2590, 6428.000
831.3970, 6482.230
832.5340, 6531.000
833.6710, 6634.000
834.8080, 6728.000
835.9450, 6813.000
837.0820, 6713.000
838.2190, 6839.000
839.3550, 6914.000
840.4910, 6976.000
841.6270, 7107.000
842.7630, 7159.000
843.8990, 7285.000
845.0350, 7387.000
846.1700, 7540.000
847.3060, 7688.000
848.4410, 7822.000
849.5760, 7948.000
850.7100, 8173.000
851.8450, 8347.000
852.9800, 8697.000
854.1140, 8915.000
855.2480, 9302.000
856.3820, 9594.000
857.5160, 10068.00
858.6500, 10505.00
859.7830, 10954.00
860.9170, 11367.00
862.0500, 12047.00
863.1830, 12773.25
864.3160, 13551.03
865.4480, 14577.00
866.5810, 15472.00
867.7130, 16588.00
868.8460, 17842.00
869.9780, 19421.00
871.1100, 21057.00
872.2410, 23010.00
873.3730, 25033.00
874.5050, 27196.00
875.6360, 29477.00
876.7670, 31412.00
877.8980, 33046.00
879.0290, 34339.00
880.1590, 34547.00
881.2900, 34503.00
882.4200, 33300.00
883.5500, 31613.00
884.6800, 29370.00
885.8100, 26960.00
886.9400, 24610.00
888.0690, 22279.72
889.1990, 19891.00
890.3280, 17892.00
891.4570, 15972.00
892.5860, 14499.00
893.7140, 13351.00
894.8430, 12302.00
895.9710, 11415.00
897.1000, 10750.00
898.2280, 10158.00
899.3560, 9625.000
900.4830, 9187.000
901.6110, 8800.000
902.7380, 8539.000
903.8660, 8323.000
904.9930, 8051.000
906.1200, 7807.000
907.2460, 7656.000
908.3730, 7530.000
909.5000, 7374.000
910.6260, 7301.000
911.7520, 7149.000
912.8780, 7057.000
914.0040, 6963.000
915.1290, 6888.000
916.2550, 6785.000
917.3800, 6731.000
918.5050, 6698.000
919.6300, 6632.000
920.7550, 6511.000
921.8800, 6460.000
923.0040, 6463.000
924.1290, 6473.000
925.2530, 6476.000
926.3770, 6432.477
927.5010, 6426.000
928.6250, 6357.000
929.7480, 6293.000
930.8720, 6309.000
931.9950, 6178.000
933.1180, 6352.000
934.2410, 6225.000
935.3640, 6283.000
936.4860, 6299.000
937.6090, 6176.000
938.7310, 6202.000
939.8530, 6220.000
940.9750, 6211.000
942.0970, 6233.000
943.2180, 6200.000
944.3400, 6189.000
945.4610, 6170.000
946.5820, 6207.000
947.7030, 6177.000
948.8240, 6160.000
949.9450, 6104.000
951.0650, 6124.000
952.1860, 6044.000
953.3060, 6147.000
954.4260, 6113.000
955.5460, 6202.000
956.6650, 6092.000
957.7850, 6193.000
958.9040, 6087.000
960.0230, 6127.000
961.1420, 6265.000
962.2610, 6185.599
963.3800, 6188.000
964.4990, 6155.000
965.6170, 6143.000
966.7350, 6103.000
967.8530, 6117.000
968.9710, 6107.000
970.0890, 6076.000
971.2070, 6153.000
972.3240, 6155.000
973.4410, 6024.000
974.5580, 6207.000
975.6750, 6241.000
976.7920, 6161.000
977.9090, 6257.000
979.0250, 6203.000
980.1410, 6107.000
981.2580, 6258.000
982.3740, 6267.000
983.4890, 6203.000
984.6050, 6161.000
985.7200, 6269.000
986.8360, 6226.000
987.9510, 6276.000
989.0660, 6273.000
990.1810, 6223.000
991.2950, 6286.000
992.4100, 6309.000
993.5240, 6263.000
994.6390, 6285.985
995.7530, 6278.000
996.8660, 6231.000
997.9800, 6277.000
999.0940, 6205.000
1000.207, 6238.000
1001.320, 6297.000
1002.433, 6230.000
1003.546, 6286.000
1004.659, 6220.000
1005.772, 6222.000
1006.884, 6171.000
1007.996, 6266.000
1009.108, 6229.000
1010.220, 6219.000
1011.332, 6169.000
1012.444, 6254.000
1013.555, 6329.000
1014.666, 6140.000
1015.777, 6242.000
1016.888, 6260.000
1017.999, 6213.000
1019.110, 6158.000
1020.220, 6265.000
1021.331, 6153.000
1022.441, 6234.000
1023.551, 6168.000
1024.661, 6162.000
1025.770, 6217.000
1026.880, 6251.000
1027.989, 6222.000
1029.098, 6254.000
1030.207, 6244.000
1031.316, 6216.000
1032.425, 6165.000
1033.533, 6290.000
1034.642, 6256.000
1035.750, 6244.000
1036.858, 6331.000
1037.966, 6233.000
1039.073, 6351.000
1040.181, 6341.000
1041.288, 6256.000
1042.396, 6364.000
1043.503, 6208.000
1044.610, 6375.000
1045.716, 6372.000
1046.823, 6308.000
1047.929, 6344.000
1049.036, 6294.000
1050.142, 6360.000
1051.248, 6286.000
1052.353, 6239.000
1053.459, 6305.000
1054.564, 6344.000
1055.670, 6420.000
1056.775, 6430.000
1057.880, 6343.000
1058.985, 6367.508
1060.089, 6347.996
1061.194, 6347.000
1062.298, 6328.000
1063.402, 6410.000
1064.506, 6373.000
1065.610, 6381.000
1066.713, 6319.000
1067.817, 6374.000
1068.920, 6421.000
1070.023, 6455.000
1071.126, 6461.176
1072.229, 6414.000
1073.332, 6466.000
1074.435, 6407.000
1075.537, 6443.000
1076.639, 6430.000
1077.741, 6493.000
1078.843, 6366.000
1079.945, 6406.000
1081.046, 6432.000
1082.148, 6379.000
1083.249, 6463.000
1084.350, 6375.000
1085.451, 6379.000
1086.551, 6450.000
1087.652, 6381.000
1088.752, 6398.000
1089.853, 6334.000
1090.953, 6297.000
1092.053, 6377.000
1093.152, 6353.000
1094.252, 6390.000
1095.351, 6440.000
1096.451, 6298.000
1097.550, 6322.000
1098.649, 6364.000
1099.748, 6329.000
1100.846, 6336.000
1101.945, 6276.000
1103.043, 6260.000
1104.141, 6225.738
1105.239, 6330.703
1106.337, 6389.231
1107.434, 6403.818
1108.532, 6242.849
1109.629, 6308.573
1110.726, 6283.450
1111.823, 6254.601
1112.920, 6352.231
1114.017, 6216.797
1115.113, 6312.422
1116.210, 6315.813
1117.306, 6361.417
1118.402, 6315.613
1119.498, 6298.042
1120.593, 6371.910
1121.689, 6395.147
1122.784, 6338.821
1123.879, 6387.109
1124.974, 6248.485
1126.069, 6273.879
1127.164, 6370.041
1128.259, 6318.311
1129.353, 6368.271
1130.447, 6379.503
1131.541, 6214.727
1132.635, 6356.046
1133.729, 6364.990
1134.822, 6238.012
1135.916, 6368.843
1137.009, 6260.604
1138.102, 6237.699
1139.195, 6279.013
1140.288, 6253.381
1141.380, 6275.000
1142.473, 6181.000
1143.565, 6235.000
1144.657, 6289.000
1145.749, 6233.763
1146.841, 6249.114
1147.932, 6221.000
1149.024, 6204.000
1150.115, 6255.000
1151.206, 6271.000
1152.297, 6338.000
1153.388, 6183.000
1154.479, 6173.000
1155.569, 6343.000
1156.659, 6193.000
1157.750, 6273.000
1158.839, 6266.000
1159.929, 6176.000
1161.019, 6198.000
1162.108, 6251.000
1163.198, 6230.084
1164.287, 6244.901
1165.376, 6245.000
1166.465, 6265.000
1167.553, 6208.000
1168.642, 6287.000
1169.730, 6119.000
1170.818, 6145.000
1171.906, 6199.000
1172.994, 6230.000
1174.082, 6221.000
1175.170, 6242.000
1176.257, 6253.093
1177.344, 6224.000
1178.431, 6277.000
1179.518, 6202.000
1180.605, 6209.000
1181.691, 6178.000
1182.778, 6219.000
1183.864, 6171.000
1184.950, 6264.000
1186.036, 6246.000
1187.122, 6278.000
1188.207, 6212.000
1189.292, 6176.000
1190.378, 6186.000
1191.463, 6243.000
1192.548, 6254.000
1193.632, 6261.000
1194.717, 6218.000
1195.801, 6241.000
1196.886, 6212.000
1197.970, 6268.000
1199.054, 6265.150
1200.137, 6325.000
1201.221, 6299.000
1202.305, 6306.632
1203.388, 6333.000
1204.471, 6245.000
1205.554, 6282.000
1206.637, 6261.000
1207.719, 6202.000
1208.802, 6238.000
1209.884, 6337.000
1210.966, 6312.000
1212.048, 6361.000
1213.130, 6296.000
1214.212, 6264.000
1215.293, 6317.000
1216.374, 6305.000
1217.456, 6269.000
1218.536, 6268.000
1219.617, 6276.000
1220.698, 6229.000
1221.778, 6241.139
1222.859, 6275.000
1223.939, 6242.000
1225.019, 6200.000
1226.099, 6219.193
1227.178, 6246.720
1228.258, 6251.000
1229.337, 6327.000
1230.417, 6296.000
1231.496, 6261.000
1232.574, 6370.000
1233.653, 6384.000
1234.732, 6356.000
1235.810, 6350.000
1236.888, 6365.000
1237.966, 6400.000
1239.044, 6276.000
1240.122, 6408.000
1241.199, 6312.000
1242.277, 6295.000
1243.354, 6376.000
1244.431, 6340.000
1245.508, 6277.000
1246.585, 6370.000
1247.661, 6271.000
1248.738, 6293.000
1249.814, 6367.000
1250.890, 6351.000
1251.966, 6336.000
1253.042, 6423.000
1254.117, 6446.000
1255.193, 6468.000
1256.268, 6467.004
1257.343, 6493.000
1258.418, 6403.000
1259.493, 6411.000
1260.567, 6355.000
1261.642, 6455.000
1262.716, 6389.000
1263.790, 6308.000
1264.864, 6428.000
1265.938, 6390.000
1267.011, 6469.000
1268.085, 6506.000
1269.158, 6468.353
1270.231, 6410.000
1271.304, 6398.000
1272.377, 6462.000
1273.450, 6408.000
1274.522, 6466.000
1275.594, 6380.000
1276.666, 6532.000
1277.738, 6423.000
1278.810, 6414.000
1279.882, 6447.000
1280.953, 6362.000
1282.025, 6348.000
1283.096, 6463.000
1284.167, 6419.000
1285.238, 6419.000
1286.308, 6393.000
1287.379, 6335.000
1288.449, 6412.000
1289.519, 6389.000
1290.589, 6497.000
1291.659, 6456.000
1292.729, 6480.000
1293.798, 6484.000
1294.868, 6415.000
1295.937, 6508.000
1297.006, 6468.000
1298.075, 6372.000
1299.143, 6546.000
1300.212, 6403.000
1301.280, 6535.000
1302.348, 6463.000
1303.416, 6498.000
1304.484, 6410.000
1305.552, 6550.000
1306.620, 6523.000
1307.687, 6473.000
1308.754, 6511.000
1309.821, 6451.000
1310.888, 6444.558
1311.955, 6554.370
1313.021, 6617.741
1314.088, 6637.173
1315.154, 6481.048
1316.220, 6551.614
1317.286, 6531.333
1318.352, 6507.326
1319.417, 6609.794
1320.483, 6479.203
1321.548, 6579.666
1322.613, 6587.895
1323.678, 6638.336
1324.743, 6597.370
1325.807, 6584.633
1326.872, 6524.000
1327.936, 6615.000
1329.000, 6509.000
1330.064, 6559.000
1331.128, 6643.000
1332.191, 6519.000
1333.255, 6578.000
1334.318, 6546.000
1335.381, 6586.000
1336.444, 6664.000
1337.507, 6638.000
1338.569, 6467.000
1339.632, 6484.000
1340.694, 6549.000
1341.756, 6666.000
1342.818, 6549.000
1343.880, 6632.000
1344.941, 6625.000
1346.003, 6624.997
1347.064, 6655.567
1348.125, 6646.000
1349.186, 6650.000
1350.247, 6606.000
1351.308, 6553.000
1352.368, 6570.000
1353.428, 6659.000
1354.489, 6567.000
1355.549, 6664.000
1356.608, 6579.000
1357.668, 6625.000
1358.727, 6580.000
1359.787, 6588.000
1360.846, 6634.000
1361.905, 6560.000
1362.964, 6666.000
1364.022, 6666.000
1365.081, 6704.000
1366.139, 6641.000
1367.197, 6735.000
1368.255, 6673.000
1369.313, 6633.000
1370.371, 6746.000
1371.428, 6566.000
1372.486, 6564.000
1373.543, 6568.000
1374.600, 6700.000
1375.657, 6655.000
1376.713, 6709.000
1377.770, 6710.000
1378.826, 6519.000
1379.882, 6661.000
1380.938, 6564.000
1381.994, 6666.000
1383.050, 6607.000
1384.106, 6576.000
1385.161, 6602.000
1386.216, 6600.950
1387.271, 6538.000
1388.326, 6656.000
1389.381, 6685.000
1390.435, 6688.000
1391.490, 6597.000
1392.544, 6619.000
1393.598, 6562.000
1394.652, 6686.000
1395.705, 6675.000
1396.759, 6648.000
1397.812, 6624.000
1398.866, 6608.065
1399.919, 6708.000
1400.972, 6601.000
1402.024, 6610.000
1403.077, 6674.000
1404.129, 6613.000
1405.181, 6729.000
1406.233, 6677.000
1407.285, 6765.000
1408.337, 6671.000
1409.389, 6710.000
1410.440, 6684.000
1411.491, 6608.000
1412.542, 6633.000
1413.593, 6622.860
1414.644, 6613.000
1415.695, 6672.000
1416.745, 6693.000
1417.795, 6742.000
1418.845, 6683.000
1419.895, 6589.000
1420.945, 6738.000
1421.995, 6622.000
1423.044, 6746.000
1424.093, 6657.000
1425.142, 6701.000
1426.191, 6746.000
1427.240, 6659.000
1428.289, 6769.000
1429.337, 6681.000
1430.385, 6717.000
1431.433, 6624.000
1432.481, 6750.000
1433.529, 6655.000
1434.577, 6664.000
1435.624, 6753.000
1436.672, 6617.000
1437.719, 6717.000
1438.766, 6713.000
1439.812, 6713.000
1440.859, 6770.000
1441.905, 6720.000
1442.952, 6653.000
1443.998, 6760.000
1445.044, 6743.000
1446.090, 6746.000
1447.135, 6654.000
1448.181, 6684.000
1449.226, 6731.000
1450.271, 6745.000
1451.316, 6756.000
1452.361, 6767.000
1453.405, 6714.000
1454.450, 6693.000
1455.494, 6681.000
1456.538, 6675.000
1457.582, 6711.000
1458.626, 6771.000
1459.670, 6739.000
1460.713, 6796.000
1461.757, 6730.000
1462.800, 6680.000
1463.843, 6690.000
1464.886, 6785.000
1465.928, 6728.000
1466.971, 6718.000
1468.013, 6754.000
1469.055, 6702.000
1470.097, 6754.000
1471.139, 6723.000
1472.181, 6771.000
1473.222, 6909.000
1474.263, 6839.053
1475.305, 6792.000
1476.346, 6840.000
1477.386, 6725.000
1478.427, 6828.000
1479.468, 6767.000
1480.508, 6772.000
1481.548, 6816.000
1482.588, 6881.000
1483.628, 6887.700
1484.668, 6857.000
1485.707, 6908.000
1486.747, 6905.000
1487.786, 6859.000
1488.825, 6885.116
1489.864, 6862.000
1490.902, 6873.000
1491.941, 6933.000
1492.979, 6924.000
1494.017, 6956.958
1495.055, 6971.000
1496.093, 6969.000
1497.131, 6958.859
1498.168, 6901.000
1499.206, 6928.000
1500.243, 6919.000
1501.280, 6884.000
1502.317, 6991.000
1503.354, 6985.000
1504.390, 6856.000
1505.426, 6957.000
1506.463, 6946.000
1507.499, 7020.000
1508.535, 6952.000
1509.570, 6901.000
1510.606, 6906.000
1511.641, 6941.000
1512.676, 6984.000
1513.711, 6985.000
1514.746, 6890.000
1515.781, 7050.000
1516.816, 6960.000
1517.850, 7051.000
1518.884, 7037.000
1519.918, 7052.000
1520.952, 7027.000
1521.986, 7085.000
1523.019, 7098.000
1524.053, 7028.000
1525.086, 7157.000
1526.119, 7100.000
1527.152, 7159.000
1528.185, 7086.000
1529.217, 7149.000
1530.250, 6966.717
1531.282, 7082.457
1532.314, 7151.760
1533.346, 7177.121
1534.377, 7026.918
1535.409, 7103.417
1536.440, 7089.057
1537.472, 7070.984
1538.503, 7179.378
1539.534, 7054.710
1540.564, 7161.089
1541.595, 7175.244
1542.625, 7231.603
1543.656, 7196.562
1544.686, 7189.746
1545.716, 7274.367
1546.745, 7308.350
1547.775, 7262.777
1548.804, 7321.810
1549.834, 7193.939
1550.863, 7230.078
1551.892, 7336.983
1552.920, 7295.988
1553.949, 7356.692
1554.977, 7378.658
1556.006, 7224.625
1557.034, 7376.678
1558.062, 7396.355
1559.089, 7280.101
1560.117, 7421.666
1561.144, 7324.151
1562.172, 7311.978
1563.199, 7364.015
1564.226, 7406.000
1565.252, 7371.000
1566.279, 7379.000
1567.305, 7367.000
1568.332, 7445.000
1569.358, 7475.000
1570.384, 7455.000
1571.409, 7339.000
##END=



