##NAMES=Ferberite
##RRUFFID=R050632
##IDEAL CHEMISTRY=Fe^2+^W^6+^O_4_
##LOCALITY=Chance mine, Boulder, Colorado, USA
##OWNER=RRUFF
##SOURCE=University of Arizona Mineral Museum
##DESCRIPTION=Dark brown rectangular prismatic crystals
##STATUS=The identification of this mineral has been confirmed by X-ray diffraction and chemical analysis
##URL=rruff.info/R050632
##MEASURED CHEMISTRY=Fe^2+^_1.00_WO_4_
##PIN_ID=M00461
##ORIENTATION=Laser parallel to b* (0 1 0). Fiducial mark perpendicular to laser is parallel to c [0 0 1]
157.4550, 41284.00
158.6810, 41126.00
159.9080, 41339.00
161.1340, 41142.00
162.3590, 41480.00
163.5850, 41814.00
164.8110, 42237.00
166.0360, 42003.00
167.2610, 41550.00
168.4860, 41708.00
169.7110, 41774.00
170.9360, 42021.00
172.1610, 41850.00
173.3850, 41920.73
174.6100, 41585.00
175.8340, 41852.00
177.0580, 41710.00
178.2820, 41717.00
179.5050, 41780.00
180.7290, 41653.80
181.9520, 41760.95
183.1760, 41654.00
184.3990, 41811.00
185.6220, 42142.00
186.8450, 42034.00
188.0670, 42356.00
189.2900, 42622.00
190.5120, 42331.00
191.7340, 42720.00
192.9560, 43121.00
194.1780, 43363.00
195.4000, 43762.00
196.6220, 43408.00
197.8430, 43392.00
199.0640, 43538.00
200.2860, 43992.00
201.5070, 44231.00
202.7270, 44030.00
203.9480, 43406.00
205.1690, 42566.00
206.3890, 41604.00
207.6090, 41669.00
208.8290, 41542.00
210.0490, 41704.00
211.2690, 41990.00
212.4890, 41949.00
213.7080, 42154.00
214.9280, 41750.00
216.1470, 41768.00
217.3660, 41522.00
218.5850, 41788.00
219.8030, 41835.00
221.0220, 41804.00
222.2400, 41695.00
223.4590, 42021.00
224.6770, 42418.00
225.8950, 41780.00
227.1120, 41945.00
228.3300, 42169.00
229.5480, 41905.00
230.7650, 41963.00
231.9820, 42060.00
233.1990, 41927.00
234.4160, 42090.00
235.6330, 42071.00
236.8490, 42141.00
238.0660, 42188.77
239.2820, 42339.00
240.4980, 42288.00
241.7140, 42186.00
242.9300, 42315.00
244.1460, 42312.00
245.3610, 42160.70
246.5770, 42307.07
247.7920, 42406.35
249.0070, 42461.10
250.2220, 42337.95
251.4370, 42444.52
252.6510, 42459.00
253.8660, 42469.73
255.0800, 42608.60
256.2940, 42511.30
257.5080, 42648.14
258.7220, 42691.51
259.9360, 42777.66
261.1490, 42771.14
262.3630, 42793.27
263.5760, 42908.03
264.7890, 42971.48
266.0020, 42954.31
267.2150, 43043.14
268.4270, 42942.54
269.6400, 43008.18
270.8520, 43145.49
272.0640, 43132.94
273.2760, 43223.44
274.4880, 43274.69
275.7000, 43147.59
276.9120, 43330.66
278.1230, 43379.56
279.3340, 43290.73
280.5450, 43463.14
281.7560, 43393.29
282.9670, 43409.92
284.1780, 43491.62
285.3880, 43505.45
286.5980, 43626.24
287.8090, 43644.02
289.0190, 43652.56
290.2290, 43701.28
291.4380, 43636.12
292.6480, 43782.20
293.8570, 43783.97
295.0670, 43857.50
296.2760, 43947.24
297.4850, 43912.52
298.6930, 44009.54
299.9020, 43902.24
301.1110, 43965.93
302.3190, 44011.17
303.5270, 44165.70
304.7350, 44059.37
305.9430, 44118.27
307.1510, 44247.54
308.3580, 44278.32
309.5660, 44350.29
310.7730, 44300.39
311.9800, 44270.00
313.1870, 44117.00
314.3940, 44170.00
315.6010, 44388.00
316.8070, 44307.00
318.0130, 44240.00
319.2200, 44319.00
320.4260, 44279.00
321.6310, 44661.00
322.8370, 44461.00
324.0430, 44803.00
325.2480, 44799.00
326.4540, 44687.00
327.6590, 44812.00
328.8640, 44831.00
330.0680, 45098.00
331.2730, 44889.00
332.4780, 44898.00
333.6820, 45234.00
334.8860, 44870.00
336.0900, 45251.00
337.2940, 44991.00
338.4980, 45181.00
339.7010, 45272.00
340.9050, 45021.00
342.1080, 45101.00
343.3110, 44996.00
344.5140, 45264.00
345.7170, 45270.00
346.9200, 44983.00
348.1220, 45673.00
349.3240, 45277.00
350.5270, 45335.00
351.7290, 45378.00
352.9310, 45564.00
354.1320, 45431.00
355.3340, 45445.00
356.5350, 45624.00
357.7370, 45394.00
358.9380, 45643.00
360.1390, 45291.00
361.3400, 45488.00
362.5400, 45844.00
363.7410, 45655.00
364.9410, 45655.00
366.1410, 45639.00
367.3410, 45826.00
368.5410, 45855.00
369.7410, 45867.00
370.9400, 46058.00
372.1400, 46013.29
373.3390, 45931.00
374.5380, 46018.00
375.7370, 46037.00
376.9360, 46013.00
378.1350, 46076.00
379.3330, 46125.00
380.5310, 46368.00
381.7300, 46393.00
382.9280, 46420.77
384.1260, 46313.00
385.3230, 46313.00
386.5210, 46445.00
387.7180, 46239.00
388.9160, 46510.00
390.1130, 46880.00
391.3100, 46609.00
392.5060, 47022.00
393.7030, 47046.00
394.9000, 47186.00
396.0960, 47067.00
397.2920, 47778.00
398.4880, 47423.00
399.6840, 47995.00
400.8800, 47848.00
402.0750, 47676.00
403.2710, 48072.00
404.4660, 47926.00
405.6610, 47671.00
406.8560, 47395.00
408.0510, 47285.00
409.2450, 47417.00
410.4400, 47030.00
411.6340, 47314.00
412.8280, 47150.00
414.0220, 47232.00
415.2160, 47366.00
416.4100, 47388.00
417.6030, 47412.00
418.7970, 47319.00
419.9900, 47339.00
421.1830, 47172.00
422.3760, 47415.00
423.5690, 47175.00
424.7610, 47533.00
425.9540, 47296.00
427.1460, 47826.00
428.3380, 47573.00
429.5300, 47233.00
430.7220, 47505.00
431.9140, 47672.00
433.1050, 47480.00
434.2970, 47704.00
435.4880, 47710.00
436.6790, 47668.00
437.8700, 47650.00
439.0610, 47887.00
440.2510, 47542.00
441.4420, 48103.00
442.6320, 47792.00
443.8220, 47770.00
445.0120, 47968.00
446.2020, 47862.00
447.3910, 47828.00
448.5810, 47964.00
449.7700, 47821.00
450.9600, 47981.00
452.1490, 48053.00
453.3370, 47981.00
454.5260, 48223.00
455.7150, 48140.00
456.9030, 48484.00
458.0910, 48095.00
459.2800, 47941.00
460.4670, 48337.00
461.6550, 48498.00
462.8430, 48390.00
464.0300, 48354.00
465.2180, 48360.00
466.4050, 48418.53
467.5920, 48527.00
468.7790, 48641.00
469.9650, 48594.00
471.1520, 48697.00
472.3380, 48611.00
473.5250, 48455.00
474.7110, 48649.00
475.8970, 48707.00
477.0820, 48769.00
478.2680, 49456.19
479.4540, 49193.24
480.6390, 49403.89
481.8240, 49091.00
483.0090, 49321.00
484.1940, 49382.00
485.3780, 49137.00
486.5630, 49059.00
487.7470, 49167.00
488.9320, 49187.00
490.1160, 49110.00
491.3000, 49523.00
492.4830, 49517.00
493.6670, 49136.00
494.8500, 49221.00
496.0340, 49647.00
497.2170, 49399.00
498.4000, 49629.00
499.5820, 49555.00
500.7650, 49682.00
501.9480, 49513.00
503.1300, 49829.00
504.3120, 49725.00
505.4940, 49895.00
506.6760, 49621.00
507.8580, 49846.00
509.0390, 49816.00
510.2210, 50020.00
511.4020, 49785.00
512.5830, 49921.00
513.7640, 50113.00
514.9450, 49916.00
516.1250, 49938.00
517.3060, 50075.00
518.4860, 50145.00
519.6660, 50293.00
520.8460, 50330.00
522.0260, 50264.00
523.2060, 50256.00
524.3850, 50280.00
525.5650, 50331.00
526.7440, 50731.00
527.9230, 50385.00
529.1020, 50527.00
530.2810, 50582.00
531.4590, 50288.00
532.6380, 50577.00
533.8160, 50522.00
534.9940, 50458.00
536.1720, 50393.00
537.3500, 50506.00
538.5270, 50725.00
539.7050, 50597.00
540.8820, 50986.00
542.0590, 50859.00
543.2360, 51346.00
544.4130, 50641.00
545.5900, 50877.00
546.7660, 50677.00
547.9430, 51389.00
549.1190, 50993.00
550.2950, 51071.00
551.4710, 50843.00
552.6470, 51004.00
553.8220, 50899.00
554.9980, 51368.00
556.1730, 50888.00
557.3480, 51341.00
558.5230, 50981.00
559.6980, 50789.00
560.8730, 51032.00
562.0470, 51305.00
563.2220, 51291.00
564.3960, 51412.93
565.5700, 50894.00
566.7440, 51373.00
567.9170, 51165.00
569.0910, 51013.00
570.2640, 51234.00
571.4380, 51411.00
572.6110, 51036.00
573.7840, 51124.00
574.9570, 50985.00
576.1290, 50936.00
577.3020, 50992.00
578.4740, 50490.00
579.6460, 50765.00
580.8180, 50444.00
581.9900, 50547.00
583.1620, 50350.00
584.3330, 50750.00
585.5040, 50568.00
586.6760, 50382.00
587.8470, 50594.00
589.0180, 50362.00
590.1880, 50365.00
591.3590, 50319.00
592.5290, 50419.00
593.7000, 50406.64
594.8700, 50419.00
596.0400, 50402.00
597.2090, 50528.00
598.3790, 50397.00
599.5490, 50215.00
600.7180, 50444.00
601.8870, 50384.00
603.0560, 50314.00
604.2250, 50827.00
605.3940, 50489.00
606.5620, 50267.00
607.7300, 50593.00
608.8990, 50332.00
610.0670, 50686.00
611.2350, 50455.00
612.4020, 50436.00
613.5700, 50374.00
614.7370, 50451.00
615.9050, 50833.00
617.0720, 50608.00
618.2390, 50835.00
619.4060, 50514.00
620.5720, 50557.00
621.7390, 50742.00
622.9050, 50536.00
624.0710, 50825.00
625.2370, 50788.00
626.4030, 50807.94
627.5690, 50942.92
628.7340, 50741.00
629.9000, 51061.00
631.0650, 50779.00
632.2300, 50765.00
633.3950, 50723.00
634.5600, 50819.00
635.7240, 50821.12
636.8890, 50764.31
638.0530, 50906.00
639.2170, 50702.00
640.3810, 50693.00
641.5450, 50811.00
642.7080, 50970.00
643.8720, 50949.00
645.0350, 50925.00
646.1980, 50686.00
647.3610, 50865.00
648.5240, 51084.00
649.6870, 50720.00
650.8490, 50944.00
652.0120, 51317.00
653.1740, 50819.00
654.3360, 50927.00
655.4980, 50980.00
656.6600, 50777.83
657.8210, 50922.00
658.9830, 50913.00
660.1440, 50913.00
661.3050, 51018.27
662.4660, 51265.00
663.6270, 51277.00
664.7870, 51351.00
665.9480, 51378.28
667.1080, 51349.00
668.2680, 51324.00
669.4280, 51366.00
670.5880, 51340.00
671.7480, 51382.00
672.9070, 51503.00
674.0670, 51529.00
675.2260, 51902.00
676.3850, 51879.21
677.5440, 51624.00
678.7030, 51940.00
679.8610, 52171.00
681.0200, 52055.00
682.1780, 52428.00
683.3360, 52257.00
684.4940, 52556.00
685.6520, 52217.00
686.8090, 52209.00
687.9670, 52701.00
689.1240, 52686.00
690.2810, 52708.00
691.4380, 52851.00
692.5950, 52684.00
693.7520, 52448.00
694.9080, 52658.00
696.0650, 52249.00
697.2210, 52279.00
698.3770, 52383.00
699.5330, 52332.00
700.6880, 51808.00
701.8440, 52011.00
702.9990, 51813.00
704.1550, 51859.00
705.3100, 51930.00
706.4650, 51887.00
707.6190, 51580.00
708.7740, 51637.00
709.9290, 51617.00
711.0830, 51565.00
712.2370, 51822.00
713.3910, 51751.00
714.5450, 51470.00
715.6980, 51353.00
716.8520, 51562.00
718.0050, 51517.00
719.1580, 51678.00
720.3110, 51533.00
721.4640, 51449.00
722.6170, 51740.00
723.7700, 51483.00
724.9220, 51591.00
726.0740, 51538.00
727.2260, 51569.00
728.3780, 51612.00
729.5300, 51617.00
730.6810, 51640.88
731.8330, 51628.00
732.9840, 51580.00
734.1350, 51695.00
735.2860, 51494.00
736.4370, 51794.00
737.5880, 51753.00
738.7380, 51766.00
739.8880, 51972.00
741.0390, 51986.00
742.1890, 52122.00
743.3380, 51802.00
744.4880, 51494.00
745.6380, 51765.00
746.7870, 51993.00
747.9360, 51980.00
749.0850, 52080.86
750.2340, 52124.21
751.3830, 52034.00
752.5310, 52129.00
753.6800, 52095.00
754.8280, 52051.00
755.9760, 52028.00
757.1240, 51950.00
758.2720, 52445.00
759.4190, 52035.00
760.5670, 52300.00
761.7140, 51756.00
762.8610, 52027.00
764.0080, 52192.00
765.1550, 51920.00
766.3020, 52104.00
767.4480, 52401.00
768.5950, 52002.00
769.7410, 52215.00
770.8870, 52134.00
772.0330, 52036.00
773.1780, 52518.00
774.3240, 52367.00
775.4690, 52218.00
776.6140, 52296.00
777.7590, 52625.00
778.9040, 52372.00
780.0490, 52346.00
781.1940, 52492.00
782.3380, 52133.00
783.4820, 52249.00
784.6260, 52517.00
785.7700, 52324.00
786.9140, 52216.00
788.0580, 52298.00
789.2010, 52485.00
790.3450, 52611.00
791.4880, 52379.10
792.6310, 52097.00
793.7730, 52051.00
794.9160, 52107.00
796.0590, 52435.00
797.2010, 52139.00
798.3430, 52434.00
799.4850, 52331.00
800.6270, 52452.00
801.7690, 52488.00
802.9100, 52493.00
804.0520, 52433.00
805.1930, 52670.00
806.3340, 52562.00
807.4750, 52532.00
808.6160, 52572.00
809.7560, 52326.00
810.8970, 52757.00
812.0370, 52519.00
813.1770, 52624.00
814.3170, 52378.00
815.4570, 52503.00
816.5960, 52892.00
817.7360, 52644.00
818.8750, 52521.00
820.0140, 52876.00
821.1530, 52720.00
822.2920, 52828.00
823.4310, 52929.00
824.5690, 52665.00
825.7070, 53148.00
826.8460, 52805.00
827.9840, 52869.00
829.1220, 52950.00
830.2590, 52946.00
831.3970, 53194.00
832.5340, 53020.00
833.6710, 52752.00
834.8080, 53017.00
835.9450, 53025.00
837.0820, 53496.00
838.2190, 53099.00
839.3550, 53366.00
840.4910, 53254.00
841.6270, 53337.00
842.7630, 53611.00
843.8990, 53614.00
845.0350, 53646.00
846.1700, 53715.76
847.3060, 53812.00
848.4410, 53720.00
849.5760, 53884.00
850.7100, 53915.00
851.8450, 53829.00
852.9800, 53986.00
854.1140, 54267.00
855.2480, 54920.00
856.3820, 54959.00
857.5160, 55268.16
858.6500, 55431.00
859.7830, 55597.00
860.9170, 55939.00
862.0500, 56253.59
863.1830, 56674.74
864.3160, 57122.00
865.4480, 57730.00
866.5810, 58330.00
867.7130, 59073.00
868.8460, 60011.00
869.9780, 60450.00
871.1100, 61338.00
872.2410, 62575.00
873.3730, 63046.00
874.5050, 63772.00
875.6360, 64128.00
876.7670, 63869.00
877.8980, 63487.00
879.0290, 62931.00
880.1590, 62481.00
881.2900, 61791.00
882.4200, 60783.00
883.5500, 60031.00
884.6800, 59080.00
885.8100, 58374.00
886.9400, 57780.00
888.0690, 57112.00
889.1990, 56746.00
890.3280, 56424.00
891.4570, 56295.00
892.5860, 56179.00
893.7140, 55898.16
894.8430, 55320.00
895.9710, 55387.00
897.1000, 55065.00
898.2280, 54696.00
899.3560, 54792.00
900.4830, 54817.00
901.6110, 54460.00
902.7380, 54309.00
903.8660, 54601.00
904.9930, 54517.00
906.1200, 54294.00
907.2460, 54444.00
908.3730, 54364.00
909.5000, 54299.00
910.6260, 54233.00
911.7520, 54242.59
912.8780, 54222.00
914.0040, 54261.00
915.1290, 54318.00
916.2550, 54268.00
917.3800, 54296.14
918.5050, 54285.64
919.6300, 54263.00
920.7550, 54273.00
921.8800, 54226.00
923.0040, 54242.00
924.1290, 54132.00
925.2530, 54293.00
926.3770, 54102.00
927.5010, 54180.00
928.6250, 54284.50
929.7480, 54315.00
930.8720, 54429.00
931.9950, 54505.00
933.1180, 54351.00
934.2410, 54150.00
935.3640, 54169.00
936.4860, 54349.00
937.6090, 54614.00
938.7310, 54540.00
939.8530, 54503.00
940.9750, 54640.00
942.0970, 54787.00
943.2180, 54599.12
944.3400, 54271.00
945.4610, 54366.00
946.5820, 54215.00
947.7030, 54317.00
948.8240, 54467.00
949.9450, 54409.00
951.0650, 54486.00
952.1860, 54562.00
953.3060, 54526.00
954.4260, 54607.00
955.5460, 54608.46
956.6650, 54480.00
957.7850, 54611.00
958.9040, 54542.53
960.0230, 54490.22
961.1420, 54510.00
962.2610, 54462.00
963.3800, 54509.00
964.4990, 54514.00
965.6170, 54492.00
966.7350, 54561.00
967.8530, 54807.00
968.9710, 54669.00
970.0890, 54982.00
971.2070, 54852.00
972.3240, 54372.00
973.4410, 54802.00
974.5580, 54761.00
975.6750, 54733.00
976.7920, 55098.00
977.9090, 55170.00
979.0250, 55080.00
980.1410, 55025.00
981.2580, 54845.00
982.3740, 55059.00
983.4890, 55081.00
984.6050, 55036.00
985.7200, 55398.00
986.8360, 54856.00
987.9510, 54707.00
989.0660, 54975.00
990.1810, 54995.00
991.2950, 54873.00
992.4100, 55225.00
993.5240, 55077.00
994.6390, 55053.00
995.7530, 55165.00
996.8660, 55304.00
997.9800, 55561.00
999.0940, 55305.00
1000.207, 55366.00
1001.320, 55096.00
1002.433, 55288.00
1003.546, 55221.00
1004.659, 55360.00
1005.772, 55288.00
1006.884, 55067.00
1007.996, 55247.00
1009.108, 55201.00
1010.220, 55138.40
1011.332, 55292.00
1012.444, 55108.00
1013.555, 55457.00
1014.666, 55595.00
1015.777, 55179.00
1016.888, 55392.00
1017.999, 55509.00
1019.110, 55557.00
1020.220, 55559.55
1021.331, 55717.00
1022.441, 55479.00
1023.551, 55283.00
1024.661, 55357.00
1025.770, 55064.00
1026.880, 55356.00
1027.989, 55633.00
1029.098, 56043.00
1030.207, 55664.00
1031.316, 55336.00
1032.425, 55375.00
1033.533, 55239.84
1034.642, 55647.00
1035.750, 55364.00
1036.858, 55551.00
1037.966, 55711.00
1039.073, 55757.00
1040.181, 55821.00
1041.288, 55378.00
1042.396, 56080.00
1043.503, 55908.00
1044.610, 56171.00
1045.716, 55603.00
1046.823, 55865.00
1047.929, 55859.00
1049.036, 56011.00
1050.142, 55905.00
1051.248, 55894.00
1052.353, 56084.00
1053.459, 55808.00
1054.564, 55560.00
1055.670, 56091.00
1056.775, 56056.00
1057.880, 55976.00
1058.985, 55806.00
1060.089, 55873.00
1061.194, 55963.00
1062.298, 56160.00
1063.402, 56073.00
1064.506, 56181.00
1065.610, 56050.00
1066.713, 56021.49
1067.817, 56132.00
1068.920, 55983.00
1070.023, 55941.00
1071.126, 56138.00
1072.229, 56071.00
1073.332, 56137.00
1074.435, 56415.00
1075.537, 56304.00
1076.639, 56432.00
1077.741, 56214.00
1078.843, 56229.00
1079.945, 56310.00
1081.046, 56302.46
1082.148, 56393.31
1083.249, 56229.00
1084.350, 56663.00
1085.451, 56105.00
1086.551, 56415.00
1087.652, 56023.00
1088.752, 55873.00
1089.853, 56149.00
1090.953, 56030.00
1092.053, 56255.00
1093.152, 56324.00
1094.252, 55871.00
1095.351, 56274.00
1096.451, 56261.00
1097.550, 55937.00
1098.649, 56169.00
1099.748, 56448.00
1100.846, 56474.00
1101.945, 56185.00
1103.043, 56425.23
1104.141, 56497.27
1105.239, 56522.25
1106.337, 56502.70
1107.434, 56305.28
1108.532, 56337.55
1109.629, 56277.80
1110.726, 56214.27
1111.823, 56278.90
1112.920, 56107.36
1114.017, 56169.97
1115.113, 56139.14
1116.210, 56151.06
1117.306, 56070.38
1118.402, 56018.32
1119.498, 56024.00
1120.593, 55980.00
1121.689, 55845.00
1122.784, 55914.00
1123.879, 56024.00
1124.974, 56042.00
1126.069, 55722.00
1127.164, 55768.00
1128.259, 55564.00
1129.353, 55678.00
1130.447, 55703.00
1131.541, 55672.00
1132.635, 55913.00
1133.729, 55711.00
1134.822, 55854.00
1135.916, 55789.00
1137.009, 55616.00
1138.102, 55651.00
1139.195, 55581.35
1140.288, 55563.03
1141.380, 55410.00
1142.473, 55454.03
1143.565, 55303.00
1144.657, 55520.00
1145.749, 55575.00
1146.841, 55670.00
1147.932, 55690.00
1149.024, 55700.00
1150.115, 55583.00
1151.206, 55659.00
1152.297, 55437.00
1153.388, 55540.00
1154.479, 55459.00
1155.569, 55167.97
1156.659, 55271.34
1157.750, 55327.66
1158.839, 55339.45
1159.929, 55173.34
1161.019, 55236.94
1162.108, 55208.49
1163.198, 55176.27
1164.287, 55272.21
1165.376, 55131.97
1166.465, 55225.88
1167.553, 55226.33
1168.642, 55269.55
1169.730, 55220.15
1170.818, 55199.36
1171.906, 55271.22
1172.994, 55291.78
1174.082, 55231.71
1175.170, 55277.66
1176.257, 55134.20
1177.344, 55156.95
1178.431, 55251.41
1179.518, 55196.00
1180.605, 55243.64
1181.691, 55252.04
1182.778, 55082.07
1183.864, 55222.30
1184.950, 55228.38
1186.036, 55096.72
1187.122, 55226.32
1188.207, 55113.65
1189.292, 55087.46
1190.378, 55434.00
1191.463, 55463.00
1192.548, 55241.00
1193.632, 55540.00
1194.717, 55242.00
1195.801, 55475.00
1196.886, 55512.10
1197.970, 55281.00
1199.054, 55509.00
1200.137, 55522.00
1201.221, 55178.51
1202.305, 55413.23
1203.388, 55181.00
1204.471, 55523.00
1205.554, 55413.00
1206.637, 55435.00
1207.719, 55302.00
1208.802, 55272.05
1209.884, 55372.00
1210.966, 55155.00
1212.048, 55244.00
1213.130, 55160.02
1214.212, 55098.95
1215.293, 55309.00
1216.374, 55049.00
1217.456, 55372.00
1218.536, 55451.00
1219.617, 55173.00
1220.698, 55383.00
1221.778, 55535.00
1222.859, 55387.00
1223.939, 55662.00
1225.019, 55554.18
1226.099, 55403.00
1227.178, 55424.00
1228.258, 55474.00
1229.337, 55336.00
1230.417, 55468.00
1231.496, 55335.00
1232.574, 55565.00
1233.653, 55787.00
1234.732, 55410.00
1235.810, 55593.00
1236.888, 55469.00
1237.966, 55649.00
1239.044, 55556.00
1240.122, 55500.00
1241.199, 55592.00
1242.277, 55592.00
1243.354, 55439.00
1244.431, 55426.00
1245.508, 55151.00
1246.585, 55180.57
1247.661, 55356.00
1248.738, 55220.00
1249.814, 55422.00
1250.890, 55610.00
1251.966, 55343.00
1253.042, 55243.00
1254.117, 55334.00
1255.193, 55541.00
1256.268, 55527.00
1257.343, 55494.00
1258.418, 55531.00
1259.493, 55426.00
1260.567, 55434.00
1261.642, 55430.50
1262.716, 55409.00
1263.790, 55447.00
1264.864, 55486.00
1265.938, 55516.00
1267.011, 55500.16
1268.085, 55598.00
1269.158, 55520.00
1270.231, 55581.00
1271.304, 55751.00
1272.377, 55669.21
1273.450, 55645.00
1274.522, 55583.00
1275.594, 55633.00
1276.666, 55467.00
1277.738, 55510.00
1278.810, 55458.44
1279.882, 55409.00
1280.953, 55360.00
1282.025, 55390.00
1283.096, 55271.00
1284.167, 55412.00
1285.238, 55346.00
1286.308, 55388.00
1287.379, 55691.00
1288.449, 55392.00
1289.519, 55757.00
1290.589, 55693.00
1291.659, 55628.00
1292.729, 55830.00
1293.798, 55588.00
1294.868, 55737.00
1295.937, 55455.00
1297.006, 55672.00
1298.075, 55834.00
1299.143, 55597.00
1300.212, 55639.00
1301.280, 55568.00
1302.348, 55886.00
1303.416, 55807.00
1304.484, 55515.00
1305.552, 55739.00
1306.620, 55525.00
1307.687, 55734.00
1308.754, 56108.00
1309.821, 55393.00
1310.888, 55815.00
1311.955, 55611.00
1313.021, 55509.00
1314.088, 55666.00
1315.154, 55591.00
1316.220, 55888.00
1317.286, 55641.00
1318.352, 55723.61
1319.417, 55821.95
1320.483, 55649.00
1321.548, 55932.00
1322.613, 55854.00
1323.678, 55777.00
1324.743, 55729.00
1325.807, 55796.00
1326.872, 56010.00
1327.936, 55689.00
1329.000, 55643.00
1330.064, 55939.00
1331.128, 55810.00
1332.191, 55975.00
1333.255, 55885.00
1334.318, 55762.00
1335.381, 55704.00
1336.444, 55546.00
1337.507, 55660.00
1338.569, 55791.00
1339.632, 55912.00
1340.694, 55911.00
1341.756, 55835.00
1342.818, 55873.00
1343.880, 55980.00
1344.941, 55749.00
1346.003, 56042.00
1347.064, 56139.00
1348.125, 56047.00
1349.186, 56222.75
1350.247, 56205.33
1351.308, 56255.00
1352.368, 56198.00
1353.428, 56058.00
1354.489, 55904.00
1355.549, 56043.00
1356.608, 55830.00
1357.668, 55954.00
1358.727, 55929.00
1359.787, 56068.00
1360.846, 55818.00
1361.905, 56098.00
1362.964, 55824.00
1364.022, 56020.00
1365.081, 55971.00
1366.139, 55871.00
1367.197, 55860.00
1368.255, 55798.00
1369.313, 56263.00
1370.371, 56093.00
1371.428, 56194.00
1372.486, 55963.00
1373.543, 56066.00
1374.600, 56102.00
1375.657, 56162.00
1376.713, 56015.00
1377.770, 55782.00
1378.826, 55903.00
1379.882, 55985.00
1380.938, 56207.00
1381.994, 56110.00
1383.050, 56017.00
1384.106, 56066.00
1385.161, 55980.00
1386.216, 55950.86
1387.271, 55951.53
1388.326, 55883.00
1389.381, 55971.00
1390.435, 55981.00
1391.490, 56087.00
1392.544, 56350.00
1393.598, 56147.00
1394.652, 56322.07
1395.705, 56088.00
1396.759, 56334.00
1397.812, 56243.77
1398.866, 56076.00
1399.919, 56259.00
1400.972, 56006.00
1402.024, 55813.00
1403.077, 56055.00
1404.129, 56267.00
1405.181, 56060.00
1406.233, 55942.00
1407.285, 55709.00
1408.337, 55995.66
1409.389, 56177.00
1410.440, 56537.00
1411.491, 56270.00
1412.542, 56258.00
1413.593, 56307.00
1414.644, 56005.00
1415.695, 56117.00
1416.745, 56090.00
1417.795, 56215.00
1418.845, 56166.00
1419.895, 56055.00
1420.945, 56058.00
1421.995, 55940.00
1423.044, 55916.00
1424.093, 56155.00
1425.142, 56341.00
1426.191, 56207.00
1427.240, 55873.00
1428.289, 55973.00
1429.337, 56165.00
1430.385, 55908.00
1431.433, 56128.00
1432.481, 56205.00
1433.529, 55971.00
1434.577, 56248.00
1435.624, 56176.00
1436.672, 56174.00
1437.719, 56200.00
1438.766, 56091.00
1439.812, 56131.00
1440.859, 56023.00
1441.905, 56130.00
1442.952, 56248.00
1443.998, 56337.00
1445.044, 56410.20
1446.090, 56258.00
1447.135, 56500.00
1448.181, 56512.00
1449.226, 56486.00
1450.271, 56254.00
1451.316, 56259.00
1452.361, 56371.00
1453.405, 56295.00
1454.450, 56403.00
1455.494, 56373.00
1456.538, 56384.64
1457.582, 56483.00
1458.626, 56468.00
1459.670, 56306.00
1460.713, 56470.00
1461.757, 56253.00
1462.800, 56324.00
1463.843, 56056.00
1464.886, 56216.00
1465.928, 56126.00
1466.971, 56365.00
1468.013, 56228.00
1469.055, 56241.00
1470.097, 56514.00
1471.139, 56502.00
1472.181, 56382.00
1473.222, 56238.00
1474.263, 56198.00
1475.305, 56315.00
1476.346, 56572.00
1477.386, 56097.00
1478.427, 56741.00
1479.468, 56440.00
1480.508, 56095.00
1481.548, 56152.00
1482.588, 56196.00
1483.628, 56486.00
1484.668, 56403.00
1485.707, 56379.00
1486.747, 56715.00
1487.786, 56040.00
1488.825, 56366.00
1489.864, 56045.00
1490.902, 56430.00
1491.941, 56555.00
1492.979, 56364.00
1494.017, 56381.00
1495.055, 56155.00
1496.093, 56289.00
1497.131, 56197.00
1498.168, 56252.00
1499.206, 56321.00
1500.243, 56347.00
1501.280, 56275.00
1502.317, 56448.00
1503.354, 56407.25
1504.390, 56615.00
1505.426, 56403.00
1506.463, 56450.00
1507.499, 56350.00
1508.535, 56215.00
1509.570, 56320.00
1510.606, 56393.00
1511.641, 56462.00
1512.676, 56410.00
1513.711, 56515.00
1514.746, 56385.00
1515.781, 56452.00
1516.816, 56515.00
1517.850, 56551.00
1518.884, 56594.89
1519.918, 56617.65
1520.952, 56545.00
1521.986, 56569.34
1523.019, 56430.00
1524.053, 56513.00
1525.086, 56491.00
1526.119, 56418.00
1527.152, 56550.00
1528.185, 56528.00
1529.217, 56609.00
1530.250, 56414.00
1531.282, 56560.00
1532.314, 56514.00
1533.346, 56574.00
1534.377, 56531.00
1535.409, 56347.00
1536.440, 56320.00
1537.472, 56573.00
1538.503, 56758.00
1539.534, 56877.00
1540.564, 56658.00
1541.595, 56534.00
1542.625, 56642.00
1543.656, 56733.00
1544.686, 56649.00
1545.716, 56419.00
1546.745, 56797.00
1547.775, 56832.00
1548.804, 56735.00
1549.834, 56973.00
1550.863, 57006.00
1551.892, 57165.00
1552.920, 57286.00
1553.949, 57263.49
1554.977, 57254.42
1556.006, 57109.00
1557.034, 57068.00
1558.062, 56972.88
1559.089, 56869.51
1560.117, 56807.00
1561.144, 56723.00
1562.172, 56695.00
1563.199, 56727.00
1564.226, 56639.00
1565.252, 56504.00
1566.279, 56648.00
1567.305, 56546.00
1568.332, 56715.00
1569.358, 56733.00
1570.384, 56788.00
1571.409, 56963.00
##END=



