##NAMES=Ferberite
##RRUFFID=R050632
##IDEAL CHEMISTRY=Fe^2+^W^6+^O_4_
##LOCALITY=Chance mine, Boulder, Colorado, USA
##OWNER=RRUFF
##SOURCE=University of Arizona Mineral Museum
##DESCRIPTION=Dark brown rectangular prismatic crystals
##STATUS=The identification of this mineral has been confirmed by X-ray diffraction and chemical analysis
##URL=rruff.info/R050632
##MEASURED CHEMISTRY=Fe^2+^_1.00_WO_4_
##PIN_ID=M00360
##ORIENTATION=Laser parallel to -a* (-1 0 0). Fiducial mark perpendicular to laser is parallel to b [0 1 0]
157.4550, 14127.00
158.6810, 14360.70
159.9080, 14481.45
161.1340, 14495.35
162.3590, 14223.00
163.5850, 14575.00
164.8110, 14721.00
166.0360, 14783.00
167.2610, 14623.00
168.4860, 14776.00
169.7110, 14982.00
170.9360, 15211.00
172.1610, 15168.00
173.3850, 15241.00
174.6100, 15355.00
175.8340, 15799.00
177.0580, 15835.00
178.2820, 15873.00
179.5050, 15590.00
180.7290, 15370.00
181.9520, 15304.00
183.1760, 15220.00
184.3990, 15085.00
185.6220, 15304.00
186.8450, 15276.00
188.0670, 15490.00
189.2900, 15396.00
190.5120, 15697.00
191.7340, 15643.00
192.9560, 15886.00
194.1780, 16277.00
195.4000, 16184.00
196.6220, 16663.00
197.8430, 16860.00
199.0640, 17516.00
200.2860, 17871.00
201.5070, 18529.00
202.7270, 18911.00
203.9480, 19118.00
205.1690, 18707.00
206.3890, 18429.00
207.6090, 18642.00
208.8290, 18348.00
210.0490, 18535.00
211.2690, 17628.00
212.4890, 16538.00
213.7080, 16065.00
214.9280, 15568.00
216.1470, 15201.00
217.3660, 15010.00
218.5850, 14661.00
219.8030, 14482.00
221.0220, 14371.37
222.2400, 14248.64
223.4590, 14254.00
224.6770, 14188.00
225.8950, 14179.00
227.1120, 14165.00
228.3300, 13980.00
229.5480, 14059.00
230.7650, 14158.00
231.9820, 14222.00
233.1990, 14100.00
234.4160, 13915.00
235.6330, 13770.00
236.8490, 13927.00
238.0660, 14005.00
239.2820, 14012.00
240.4980, 14067.38
241.7140, 13941.00
242.9300, 14005.00
244.1460, 14022.00
245.3610, 13859.00
246.5770, 13997.00
247.7920, 13826.00
249.0070, 14025.00
250.2220, 13939.00
251.4370, 14146.00
252.6510, 13989.00
253.8660, 13937.00
255.0800, 14271.00
256.2940, 14212.00
257.5080, 14747.00
258.7220, 14813.19
259.9360, 14742.77
261.1490, 15077.00
262.3630, 14547.00
263.5760, 14453.00
264.7890, 14463.00
266.0020, 14549.00
267.2150, 14645.00
268.4270, 14636.00
269.6400, 14761.00
270.8520, 14614.00
272.0640, 14682.00
273.2760, 14654.00
274.4880, 14708.00
275.7000, 14768.00
276.9120, 14799.00
278.1230, 14611.00
279.3340, 14562.00
280.5450, 14558.00
281.7560, 14562.00
282.9670, 14568.00
284.1780, 14633.00
285.3880, 14796.00
286.5980, 14659.00
287.8090, 14688.00
289.0190, 15075.00
290.2290, 14891.40
291.4380, 15052.00
292.6480, 14903.00
293.8570, 15108.00
295.0670, 15255.00
296.2760, 15319.00
297.4850, 15480.00
298.6930, 15440.00
299.9020, 15544.08
301.1110, 15385.00
302.3190, 15618.00
303.5270, 15550.00
304.7350, 15500.00
305.9430, 15634.00
307.1510, 15704.00
308.3580, 16011.00
309.5660, 16047.00
310.7730, 16417.00
311.9800, 16581.00
313.1870, 16788.00
314.3940, 17216.00
315.6010, 17591.00
316.8070, 17922.00
318.0130, 18462.00
319.2200, 19134.00
320.4260, 19723.00
321.6310, 20272.00
322.8370, 20987.00
324.0430, 21526.00
325.2480, 21856.00
326.4540, 21961.00
327.6590, 21935.00
328.8640, 21615.21
330.0680, 21165.63
331.2730, 20600.00
332.4780, 19948.00
333.6820, 19382.00
334.8860, 18981.00
336.0900, 18548.00
337.2940, 18043.00
338.4980, 17762.00
339.7010, 17419.00
340.9050, 17365.00
342.1080, 17239.00
343.3110, 17028.00
344.5140, 16755.00
345.7170, 16926.00
346.9200, 16584.00
348.1220, 16608.00
349.3240, 16524.00
350.5270, 16315.00
351.7290, 16303.00
352.9310, 16163.00
354.1320, 16112.00
355.3340, 16181.00
356.5350, 15972.00
357.7370, 15821.00
358.9380, 15940.00
360.1390, 15737.00
361.3400, 15649.00
362.5400, 15844.00
363.7410, 15540.00
364.9410, 15724.00
366.1410, 15792.00
367.3410, 15808.00
368.5410, 15593.00
369.7410, 15561.00
370.9400, 15594.00
372.1400, 15604.54
373.3390, 15788.00
374.5380, 15849.00
375.7370, 15825.14
376.9360, 15672.00
378.1350, 15746.00
379.3330, 15842.00
380.5310, 15806.00
381.7300, 15911.00
382.9280, 15842.00
384.1260, 15936.00
385.3230, 16206.00
386.5210, 16115.00
387.7180, 16376.00
388.9160, 16747.00
390.1130, 17086.00
391.3100, 17452.64
392.5060, 17791.00
393.7030, 18323.00
394.9000, 18954.00
396.0960, 19599.00
397.2920, 19928.00
398.4880, 19986.14
399.6840, 19985.00
400.8800, 19622.00
402.0750, 18782.00
403.2710, 18310.00
404.4660, 17848.00
405.6610, 17407.00
406.8560, 17165.00
408.0510, 16779.00
409.2450, 16522.00
410.4400, 16417.00
411.6340, 16095.00
412.8280, 16033.00
414.0220, 15917.00
415.2160, 15986.00
416.4100, 15944.00
417.6030, 15835.00
418.7970, 15838.00
419.9900, 15788.00
421.1830, 15721.00
422.3760, 15894.00
423.5690, 15789.00
424.7610, 15736.00
425.9540, 15827.00
427.1460, 15633.00
428.3380, 15793.00
429.5300, 15754.00
430.7220, 15607.00
431.9140, 15643.00
433.1050, 15827.00
434.2970, 15724.00
435.4880, 15653.00
436.6790, 15740.00
437.8700, 15656.00
439.0610, 15631.00
440.2510, 15682.00
441.4420, 15701.00
442.6320, 15782.00
443.8220, 15813.00
445.0120, 15805.96
446.2020, 15908.00
447.3910, 15792.00
448.5810, 15791.00
449.7700, 15824.00
450.9600, 15936.00
452.1490, 15777.00
453.3370, 15721.00
454.5260, 15897.00
455.7150, 16159.00
456.9030, 15997.00
458.0910, 15982.00
459.2800, 16054.00
460.4670, 16044.00
461.6550, 16037.00
462.8430, 16125.00
464.0300, 16004.00
465.2180, 16167.00
466.4050, 16233.00
467.5920, 16246.00
468.7790, 16144.00
469.9650, 16182.00
471.1520, 16330.00
472.3380, 16260.00
473.5250, 16402.00
474.7110, 16340.00
475.8970, 16291.00
477.0820, 16302.00
478.2680, 16363.00
479.4540, 16286.00
480.6390, 16531.00
481.8240, 16537.00
483.0090, 16448.00
484.1940, 16680.00
485.3780, 16665.00
486.5630, 16688.00
487.7470, 16691.00
488.9320, 16737.80
490.1160, 16813.00
491.3000, 16863.00
492.4830, 16956.00
493.6670, 17054.00
494.8500, 17257.00
496.0340, 17044.00
497.2170, 17304.00
498.4000, 17513.00
499.5820, 17830.00
500.7650, 17708.00
501.9480, 17559.00
503.1300, 17744.00
504.3120, 17787.00
505.4940, 17747.00
506.6760, 17887.00
507.8580, 18061.00
509.0390, 18086.00
510.2210, 18117.00
511.4020, 18254.00
512.5830, 18256.00
513.7640, 18432.00
514.9450, 18725.00
516.1250, 18488.00
517.3060, 18625.00
518.4860, 18893.00
519.6660, 18993.00
520.8460, 19074.00
522.0260, 19165.00
523.2060, 19278.00
524.3850, 19199.00
525.5650, 19402.00
526.7440, 19472.00
527.9230, 19512.00
529.1020, 19302.00
530.2810, 19479.00
531.4590, 19377.00
532.6380, 19482.00
533.8160, 19146.00
534.9940, 19252.00
536.1720, 19164.00
537.3500, 19061.00
538.5270, 18955.00
539.7050, 18940.00
540.8820, 18892.00
542.0590, 18705.00
543.2360, 18494.00
544.4130, 18348.00
545.5900, 18349.00
546.7660, 18374.00
547.9430, 18078.00
549.1190, 18086.00
550.2950, 17889.00
551.4710, 17888.00
552.6470, 17700.00
553.8220, 17569.00
554.9980, 17632.00
556.1730, 17165.11
557.3480, 17387.71
558.5230, 17497.37
559.6980, 17500.15
560.8730, 17075.99
562.0470, 17203.17
563.2220, 17109.38
564.3960, 17006.57
565.5700, 17211.35
566.7440, 16849.31
567.9170, 17049.25
569.0910, 17024.84
570.2640, 17103.12
571.4380, 16959.06
572.6110, 16883.70
573.7840, 17030.72
574.9570, 17054.60
576.1290, 16885.01
577.3020, 16969.82
578.4740, 16600.08
579.6460, 16629.24
580.8180, 16830.50
581.9900, 16672.09
583.1620, 16545.00
584.3330, 16567.00
585.5040, 16444.00
586.6760, 16449.00
587.8470, 16375.00
589.0180, 16389.00
590.1880, 16457.00
591.3590, 16448.00
592.5290, 16390.00
593.7000, 16458.00
594.8700, 16451.00
596.0400, 16372.00
597.2090, 16427.00
598.3790, 16408.00
599.5490, 16477.00
600.7180, 16431.00
601.8870, 16449.00
603.0560, 16489.00
604.2250, 16468.00
605.3940, 16470.00
606.5620, 16458.00
607.7300, 16452.00
608.8990, 16386.00
610.0670, 16409.04
611.2350, 16536.00
612.4020, 16404.00
613.5700, 16532.00
614.7370, 16501.00
615.9050, 16723.00
617.0720, 16508.00
618.2390, 16619.00
619.4060, 16690.00
620.5720, 16528.00
621.7390, 16648.25
622.9050, 16599.44
624.0710, 16693.00
625.2370, 16627.00
626.4030, 16622.00
627.5690, 16728.00
628.7340, 16815.00
629.9000, 16692.00
631.0650, 16545.00
632.2300, 16816.00
633.3950, 16659.00
634.5600, 16787.00
635.7240, 16653.00
636.8890, 16794.00
638.0530, 16723.00
639.2170, 16763.00
640.3810, 16646.00
641.5450, 16772.00
642.7080, 16862.00
643.8720, 16800.00
645.0350, 17156.16
646.1980, 16888.22
647.3610, 17021.41
648.5240, 16604.00
649.6870, 16927.00
650.8490, 17033.00
652.0120, 16734.00
653.1740, 16976.00
654.3360, 17015.00
655.4980, 17227.00
656.6600, 17033.00
657.8210, 17232.00
658.9830, 17173.00
660.1440, 17233.00
661.3050, 17298.00
662.4660, 17315.00
663.6270, 17384.48
664.7870, 17464.00
665.9480, 17511.00
667.1080, 17564.00
668.2680, 17667.00
669.4280, 17617.00
670.5880, 17768.00
671.7480, 17849.00
672.9070, 17994.00
674.0670, 18021.00
675.2260, 18199.00
676.3850, 18378.00
677.5440, 18625.00
678.7030, 18713.00
679.8610, 18752.00
681.0200, 18858.00
682.1780, 19010.00
683.3360, 19216.00
684.4940, 19323.00
685.6520, 19550.00
686.8090, 19547.00
687.9670, 19531.00
689.1240, 19643.00
690.2810, 19556.00
691.4380, 19496.58
692.5950, 19237.00
693.7520, 19251.00
694.9080, 19111.00
696.0650, 18940.00
697.2210, 19037.00
698.3770, 18836.00
699.5330, 18551.00
700.6880, 18712.00
701.8440, 18491.00
702.9990, 18435.00
704.1550, 18318.00
705.3100, 18149.00
706.4650, 18111.79
707.6190, 17929.00
708.7740, 17961.00
709.9290, 17962.00
711.0830, 17855.00
712.2370, 17969.00
713.3910, 17911.43
714.5450, 17764.00
715.6980, 17862.00
716.8520, 17784.00
718.0050, 17671.00
719.1580, 17636.00
720.3110, 17614.00
721.4640, 17609.00
722.6170, 17586.00
723.7700, 17506.00
724.9220, 17517.00
726.0740, 17502.83
727.2260, 17515.00
728.3780, 17534.00
729.5300, 17478.00
730.6810, 17517.00
731.8330, 17581.00
732.9840, 17694.00
734.1350, 17667.00
735.2860, 17684.00
736.4370, 17721.00
737.5880, 17637.00
738.7380, 17634.00
739.8880, 17704.00
741.0390, 17732.00
742.1890, 17676.00
743.3380, 17678.00
744.4880, 17662.00
745.6380, 17638.00
746.7870, 17756.29
747.9360, 18085.00
749.0850, 17890.00
750.2340, 17873.00
751.3830, 17673.00
752.5310, 17926.00
753.6800, 18000.00
754.8280, 18014.00
755.9760, 18114.00
757.1240, 18148.87
758.2720, 18198.88
759.4190, 18177.00
760.5670, 18207.58
761.7140, 18167.00
762.8610, 18207.00
764.0080, 18255.00
765.1550, 18228.86
766.3020, 18281.71
767.4480, 18339.00
768.5950, 18271.00
769.7410, 18445.00
770.8870, 18306.00
772.0330, 18450.00
773.1780, 18421.00
774.3240, 18401.00
775.4690, 18568.00
776.6140, 18505.00
777.7590, 18531.00
778.9040, 18383.00
780.0490, 18432.80
781.1940, 18473.00
782.3380, 18469.00
783.4820, 18474.00
784.6260, 18491.00
785.7700, 18481.00
786.9140, 18626.00
788.0580, 18500.00
789.2010, 18511.00
790.3450, 18657.00
791.4880, 18646.00
792.6310, 18584.00
793.7730, 18771.00
794.9160, 18734.00
796.0590, 18563.00
797.2010, 18594.00
798.3430, 18625.00
799.4850, 18387.00
800.6270, 18630.00
801.7690, 18663.00
802.9100, 18720.00
804.0520, 18658.00
805.1930, 18739.00
806.3340, 18731.00
807.4750, 18574.00
808.6160, 18611.00
809.7560, 18810.00
810.8970, 18932.00
812.0370, 18733.00
813.1770, 18718.00
814.3170, 18743.00
815.4570, 18659.00
816.5960, 18864.00
817.7360, 19012.00
818.8750, 19086.00
820.0140, 18973.00
821.1530, 18916.00
822.2920, 19096.00
823.4310, 19109.00
824.5690, 19234.00
825.7070, 19336.00
826.8460, 19296.00
827.9840, 19626.00
829.1220, 19384.00
830.2590, 19699.00
831.3970, 19721.00
832.5340, 19721.00
833.6710, 19879.00
834.8080, 20227.00
835.9450, 20010.00
837.0820, 20401.00
838.2190, 20635.00
839.3550, 20736.00
840.4910, 20785.00
841.6270, 21059.00
842.7630, 21152.00
843.8990, 21608.00
845.0350, 21903.00
846.1700, 22120.00
847.3060, 22588.00
848.4410, 23083.00
849.5760, 23318.00
850.7100, 23859.00
851.8450, 24311.00
852.9800, 24958.00
854.1140, 25668.00
855.2480, 26422.00
856.3820, 27226.00
857.5160, 28144.00
858.6500, 29194.00
859.7830, 30645.00
860.9170, 32324.00
862.0500, 34015.00
863.1830, 35890.00
864.3160, 38215.00
865.4480, 40769.00
866.5810, 43599.00
867.7130, 47136.00
868.8460, 50641.00
869.9780, 54294.00
871.1100, 57784.00
872.2410, 60442.00
873.3730, 62257.00
874.5050, 63036.00
875.6360, 62386.00
876.7670, 60539.00
877.8980, 57472.00
879.0290, 53810.00
880.1590, 49479.00
881.2900, 45779.00
882.4200, 42089.00
883.5500, 38783.00
884.6800, 35842.00
885.8100, 33257.00
886.9400, 31349.00
888.0690, 30336.00
889.1990, 28684.24
890.3280, 27242.89
891.4570, 26659.00
892.5860, 24615.00
893.7140, 23733.00
894.8430, 22978.00
895.9710, 22487.00
897.1000, 22012.00
898.2280, 21533.00
899.3560, 21180.32
900.4830, 20797.00
901.6110, 20559.00
902.7380, 20315.00
903.8660, 20109.00
904.9930, 19896.56
906.1200, 19658.00
907.2460, 19563.00
908.3730, 19249.00
909.5000, 19199.00
910.6260, 19361.00
911.7520, 19066.00
912.8780, 19045.00
914.0040, 19013.00
915.1290, 18953.00
916.2550, 18768.00
917.3800, 18877.00
918.5050, 18582.00
919.6300, 18628.00
920.7550, 18843.00
921.8800, 18543.00
923.0040, 18630.00
924.1290, 18596.00
925.2530, 18390.00
926.3770, 18651.00
927.5010, 18504.00
928.6250, 18522.00
929.7480, 18470.00
930.8720, 18524.61
931.9950, 18493.63
933.1180, 18614.00
934.2410, 18587.00
935.3640, 18435.00
936.4860, 18722.00
937.6090, 18629.00
938.7310, 18626.00
939.8530, 18367.00
940.9750, 18340.00
942.0970, 18486.00
943.2180, 18361.00
944.3400, 18407.00
945.4610, 18581.00
946.5820, 18434.00
947.7030, 18597.00
948.8240, 18353.00
949.9450, 18538.00
951.0650, 18371.00
952.1860, 18429.00
953.3060, 18506.00
954.4260, 18534.00
955.5460, 18532.62
956.6650, 18347.00
957.7850, 18469.00
958.9040, 18388.00
960.0230, 18314.00
961.1420, 18483.00
962.2610, 18371.00
963.3800, 18456.00
964.4990, 18339.00
965.6170, 18391.00
966.7350, 18417.00
967.8530, 18582.00
968.9710, 18391.00
970.0890, 18704.00
971.2070, 18630.00
972.3240, 18673.00
973.4410, 18510.00
974.5580, 18478.00
975.6750, 18416.00
976.7920, 18686.00
977.9090, 18623.00
979.0250, 18465.00
980.1410, 18754.00
981.2580, 19145.00
982.3740, 18630.00
983.4890, 18788.00
984.6050, 18732.00
985.7200, 18611.00
986.8360, 18682.00
987.9510, 18681.00
989.0660, 18825.00
990.1810, 18938.00
991.2950, 18699.00
992.4100, 18839.00
993.5240, 19022.00
994.6390, 18654.00
995.7530, 18925.00
996.8660, 18685.00
997.9800, 18927.00
999.0940, 18912.00
1000.207, 18951.00
1001.320, 18843.00
1002.433, 18965.00
1003.546, 18851.00
1004.659, 19010.00
1005.772, 18990.00
1006.884, 18979.00
1007.996, 18978.00
1009.108, 18949.00
1010.220, 18803.00
1011.332, 18935.00
1012.444, 18898.00
1013.555, 18943.00
1014.666, 19153.00
1015.777, 19079.00
1016.888, 19182.00
1017.999, 19071.00
1019.110, 19181.00
1020.220, 19084.00
1021.331, 19131.00
1022.441, 19167.00
1023.551, 19174.00
1024.661, 19208.00
1025.770, 19184.00
1026.880, 19145.86
1027.989, 19104.00
1029.098, 19018.00
1030.207, 18993.00
1031.316, 18914.00
1032.425, 19070.00
1033.533, 18991.00
1034.642, 19092.00
1035.750, 18851.00
1036.858, 18981.73
1037.966, 19097.00
1039.073, 19084.00
1040.181, 19186.00
1041.288, 19168.00
1042.396, 19030.00
1043.503, 19147.00
1044.610, 19099.00
1045.716, 19150.00
1046.823, 19175.00
1047.929, 19178.45
1049.036, 19344.00
1050.142, 19219.00
1051.248, 19193.00
1052.353, 19207.00
1053.459, 19348.00
1054.564, 19238.00
1055.670, 19480.00
1056.775, 19203.00
1057.880, 19295.00
1058.985, 19234.00
1060.089, 19323.00
1061.194, 19281.00
1062.298, 19211.00
1063.402, 19545.00
1064.506, 19439.00
1065.610, 19346.00
1066.713, 19326.00
1067.817, 19606.00
1068.920, 19346.00
1070.023, 19523.00
1071.126, 19352.00
1072.229, 19491.00
1073.332, 19300.00
1074.435, 19444.00
1075.537, 19420.00
1076.639, 19381.00
1077.741, 19286.00
1078.843, 19375.00
1079.945, 19359.00
1081.046, 19420.00
1082.148, 19539.00
1083.249, 19409.00
1084.350, 19439.00
1085.451, 19418.00
1086.551, 19183.00
1087.652, 19561.00
1088.752, 19470.00
1089.853, 19418.00
1090.953, 19301.00
1092.053, 19373.00
1093.152, 19323.00
1094.252, 19296.00
1095.351, 19292.00
1096.451, 19282.00
1097.550, 19298.11
1098.649, 19272.24
1099.748, 19336.00
1100.846, 19291.00
1101.945, 19282.00
1103.043, 19419.00
1104.141, 19425.00
1105.239, 19329.00
1106.337, 19245.00
1107.434, 19240.00
1108.532, 19305.00
1109.629, 19281.00
1110.726, 19280.00
1111.823, 19410.00
1112.920, 19153.00
1114.017, 19305.00
1115.113, 19413.00
1116.210, 19508.00
1117.306, 19740.00
1118.402, 20119.00
1119.498, 20222.00
1120.593, 20193.00
1121.689, 20213.00
1122.784, 20249.00
1123.879, 20312.00
1124.974, 20322.00
1126.069, 20130.00
1127.164, 19852.00
1128.259, 19728.00
1129.353, 19526.00
1130.447, 19419.00
1131.541, 19314.00
1132.635, 19318.00
1133.729, 19087.00
1134.822, 19099.00
1135.916, 19136.00
1137.009, 19295.00
1138.102, 19154.00
1139.195, 19188.00
1140.288, 19172.00
1141.380, 19177.00
1142.473, 19421.00
1143.565, 19041.00
1144.657, 19366.00
1145.749, 19151.00
1146.841, 19025.00
1147.932, 19075.00
1149.024, 19054.00
1150.115, 19226.00
1151.206, 19248.00
1152.297, 19105.00
1153.388, 19161.39
1154.479, 19112.09
1155.569, 19082.00
1156.659, 19070.00
1157.750, 19079.00
1158.839, 19050.00
1159.929, 19039.00
1161.019, 19043.26
1162.108, 18958.00
1163.198, 19042.00
1164.287, 19079.00
1165.376, 19068.00
1166.465, 19163.00
1167.553, 19021.00
1168.642, 19094.84
1169.730, 19043.00
1170.818, 19114.00
1171.906, 19108.00
1172.994, 19076.00
1174.082, 19097.00
1175.170, 19125.00
1176.257, 18995.00
1177.344, 19191.00
1178.431, 19207.00
1179.518, 19141.00
1180.605, 19018.00
1181.691, 19062.00
1182.778, 19245.00
1183.864, 19099.00
1184.950, 19096.00
1186.036, 18975.00
1187.122, 19170.00
1188.207, 19026.00
1189.292, 19165.00
1190.378, 19028.00
1191.463, 19086.00
1192.548, 18943.00
1193.632, 19072.00
1194.717, 19235.00
1195.801, 19331.00
1196.886, 19140.00
1197.970, 19035.00
1199.054, 19142.00
1200.137, 19172.00
1201.221, 19112.00
1202.305, 19123.00
1203.388, 19082.00
1204.471, 19168.00
1205.554, 19179.00
1206.637, 19177.00
1207.719, 19308.00
1208.802, 19244.00
1209.884, 19249.00
1210.966, 19223.00
1212.048, 19210.00
1213.130, 19023.00
1214.212, 19260.00
1215.293, 19306.00
1216.374, 19150.00
1217.456, 19442.00
1218.536, 19252.00
1219.617, 19361.00
1220.698, 19326.00
1221.778, 19213.00
1222.859, 19172.00
1223.939, 19246.00
1225.019, 19263.00
1226.099, 19236.56
1227.178, 19207.00
1228.258, 19223.00
1229.337, 19237.00
1230.417, 19298.00
1231.496, 19186.00
1232.574, 19221.46
1233.653, 19478.00
1234.732, 19255.00
1235.810, 19303.00
1236.888, 19466.00
1237.966, 19346.00
1239.044, 19332.00
1240.122, 19379.00
1241.199, 19304.00
1242.277, 19163.00
1243.354, 19240.00
1244.431, 19177.00
1245.508, 19321.00
1246.585, 19357.00
1247.661, 19382.00
1248.738, 19339.00
1249.814, 19383.80
1250.890, 19431.00
1251.966, 19401.00
1253.042, 19440.00
1254.117, 19408.00
1255.193, 19314.00
1256.268, 19334.38
1257.343, 19238.00
1258.418, 19314.00
1259.493, 19351.00
1260.567, 19385.87
1261.642, 19502.00
1262.716, 19415.00
1263.790, 19472.00
1264.864, 19477.00
1265.938, 19332.00
1267.011, 19341.00
1268.085, 19330.00
1269.158, 19308.00
1270.231, 19345.00
1271.304, 19548.00
1272.377, 19489.00
1273.450, 19232.00
1274.522, 19458.00
1275.594, 19247.00
1276.666, 19487.00
1277.738, 19416.00
1278.810, 19288.00
1279.882, 19451.00
1280.953, 19546.00
1282.025, 19442.00
1283.096, 19257.00
1284.167, 19550.00
1285.238, 19462.00
1286.308, 19375.00
1287.379, 19419.00
1288.449, 19605.00
1289.519, 19499.00
1290.589, 19618.00
1291.659, 19512.00
1292.729, 19248.00
1293.798, 19377.00
1294.868, 19431.00
1295.937, 19485.00
1297.006, 19678.00
1298.075, 19626.00
1299.143, 19509.00
1300.212, 19549.00
1301.280, 19365.00
1302.348, 19809.00
1303.416, 19709.00
1304.484, 19611.00
1305.552, 19571.00
1306.620, 19533.00
1307.687, 19440.00
1308.754, 19574.00
1309.821, 19488.00
1310.888, 19513.00
1311.955, 19465.00
1313.021, 19535.00
1314.088, 19631.00
1315.154, 19532.72
1316.220, 19524.52
1317.286, 19462.00
1318.352, 19384.00
1319.417, 19499.00
1320.483, 19507.00
1321.548, 19604.00
1322.613, 19517.00
1323.678, 19576.00
1324.743, 19470.00
1325.807, 19695.00
1326.872, 19686.00
1327.936, 19553.00
1329.000, 19630.00
1330.064, 19379.00
1331.128, 19655.00
1332.191, 19587.00
1333.255, 19546.00
1334.318, 19668.00
1335.381, 19501.00
1336.444, 19557.00
1337.507, 19637.00
1338.569, 19764.00
1339.632, 19466.00
1340.694, 19665.00
1341.756, 19494.00
1342.818, 19632.00
1343.880, 19520.00
1344.941, 19570.00
1346.003, 19582.00
1347.064, 19567.44
1348.125, 19664.00
1349.186, 19632.00
1350.247, 19604.00
1351.308, 19697.00
1352.368, 19692.00
1353.428, 19554.00
1354.489, 19557.00
1355.549, 19614.00
1356.608, 19682.00
1357.668, 19669.00
1358.727, 19664.00
1359.787, 19635.00
1360.846, 19822.00
1361.905, 19635.00
1362.964, 19921.00
1364.022, 19751.00
1365.081, 19553.54
1366.139, 19826.99
1367.197, 19987.50
1368.255, 20041.14
1369.313, 19667.82
1370.371, 19845.83
1371.428, 19802.88
1372.486, 19750.89
1373.543, 20006.48
1374.600, 19695.25
1375.657, 19945.96
1376.713, 19972.35
1377.770, 20101.41
1378.826, 20008.14
1379.882, 19983.54
1380.938, 20181.33
1381.994, 20255.97
1383.050, 20137.12
1384.106, 20272.69
1385.161, 19821.59
1386.216, 19801.00
1387.271, 19773.00
1388.326, 19725.00
1389.381, 19796.00
1390.435, 19747.00
1391.490, 19792.00
1392.544, 19841.00
1393.598, 19712.00
1394.652, 19889.00
1395.705, 19527.00
1396.759, 19858.00
1397.812, 19882.00
1398.866, 19669.00
1399.919, 19854.00
1400.972, 19737.00
1402.024, 19672.00
1403.077, 19781.00
1404.129, 19788.00
1405.181, 19641.00
1406.233, 19688.00
1407.285, 19607.00
1408.337, 19871.00
1409.389, 19688.00
1410.440, 19710.00
1411.491, 19801.00
1412.542, 19554.00
1413.593, 19802.00
1414.644, 19641.00
1415.695, 19609.00
1416.745, 19686.00
1417.795, 19846.00
1418.845, 19575.00
1419.895, 19808.00
1420.945, 19938.00
1421.995, 19847.00
1423.044, 19781.00
1424.093, 19778.00
1425.142, 19750.00
1426.191, 19691.00
1427.240, 19639.00
1428.289, 19603.30
1429.337, 19738.00
1430.385, 19605.00
1431.433, 19673.00
1432.481, 19860.00
1433.529, 19801.00
1434.577, 19824.00
1435.624, 19869.00
1436.672, 19722.00
1437.719, 19658.00
1438.766, 19834.00
1439.812, 19680.00
1440.859, 19771.00
1441.905, 19752.00
1442.952, 19664.00
1443.998, 19603.00
1445.044, 19712.00
1446.090, 19853.00
1447.135, 19878.00
1448.181, 19877.00
1449.226, 19609.00
1450.271, 19913.00
1451.316, 19729.00
1452.361, 19793.00
1453.405, 19782.00
1454.450, 19759.00
1455.494, 19726.00
1456.538, 19591.00
1457.582, 19929.00
1458.626, 19699.00
1459.670, 19793.00
1460.713, 19877.00
1461.757, 19867.00
1462.800, 19769.00
1463.843, 19858.00
1464.886, 19869.00
1465.928, 19830.00
1466.971, 19891.00
1468.013, 19564.00
1469.055, 19838.00
1470.097, 19639.00
1471.139, 19901.00
1472.181, 19837.26
1473.222, 19771.00
1474.263, 19818.00
1475.305, 19780.00
1476.346, 19873.00
1477.386, 19877.00
1478.427, 19734.00
1479.468, 19673.00
1480.508, 19714.00
1481.548, 19786.00
1482.588, 19740.00
1483.628, 19699.00
1484.668, 19759.00
1485.707, 19796.00
1486.747, 19775.54
1487.786, 19851.00
1488.825, 19769.00
1489.864, 19856.00
1490.902, 19870.00
1491.941, 19888.00
1492.979, 19487.61
1494.017, 19749.04
1495.055, 19897.52
1496.093, 19939.14
1497.131, 19553.79
1498.168, 19719.78
1499.206, 19664.81
1500.243, 19600.79
1501.280, 19844.36
1502.317, 19521.12
1503.354, 19759.82
1504.390, 19774.20
1505.426, 19891.24
1506.463, 19785.97
1507.499, 19749.37
1508.535, 19935.14
1509.570, 19997.79
1510.606, 19866.93
1511.641, 19990.49
1512.676, 19659.47
1513.711, 19885.00
1514.746, 20068.00
1515.781, 20022.00
1516.816, 19952.00
1517.850, 19858.00
1518.884, 19959.00
1519.918, 20044.00
1520.952, 19985.00
1521.986, 20081.20
1523.019, 19989.00
1524.053, 20123.00
1525.086, 19992.00
1526.119, 19921.00
1527.152, 20081.00
1528.185, 20019.00
1529.217, 19981.00
1530.250, 20089.00
1531.282, 20103.00
1532.314, 20042.00
1533.346, 20235.01
1534.377, 20173.00
1535.409, 20482.47
1536.440, 20361.48
1537.472, 20321.00
1538.503, 20084.00
1539.534, 20076.00
1540.564, 20042.33
1541.595, 20304.63
1542.625, 20453.99
1543.656, 20496.48
1544.686, 20112.01
1545.716, 20278.87
1546.745, 20224.78
1547.775, 20161.63
1548.804, 20406.08
1549.834, 20083.71
1550.863, 20323.29
1551.892, 20338.54
1552.920, 20456.45
1553.949, 20352.06
1554.977, 20316.33
1556.006, 20502.98
1557.034, 20566.50
1558.062, 20436.51
1559.089, 20560.95
1560.117, 20230.81
1561.144, 20299.56
1562.172, 20540.43
1563.199, 20422.00
1564.226, 20282.00
1565.252, 20334.00
1566.279, 20439.00
1567.305, 20327.00
1568.332, 20406.00
1569.358, 20387.00
1570.384, 20514.00
1571.409, 20506.00
##END=



