##NAMES=Ferberite
##RRUFFID=R040044
##IDEAL CHEMISTRY=Fe^2+^W^6+^O_4_
##LOCALITY=Chocote, Bolivia
##OWNER=RRUFF
##SOURCE=University of Arizona Mineral Museum
##DESCRIPTION=Black tabular single crystal
##STATUS=The identification of this mineral has been confirmed by X-ray diffraction and chemical analysis
##URL=rruff.info/R040044
##MEASURED CHEMISTRY=(Fe_0.82_Mn_0.08_Mg_0.07_Pb_0.03_)_Î£=1_W_1.00_O_4_
##PIN_ID=M00030
##ORIENTATION=Laser parallel to -c* (0 0 -1). Fiducial mark perpendicular to laser is parallel to a [1 0 0]
164.8110, 36162.00
166.0360, 35339.00
167.2610, 35068.00
168.4860, 35158.00
169.7110, 35324.00
170.9360, 35165.00
172.1610, 35098.00
173.3850, 34784.00
174.6100, 34767.00
175.8340, 34927.00
177.0580, 35106.00
178.2820, 35073.00
179.5050, 34549.00
180.7290, 34987.00
181.9520, 34595.00
183.1760, 34725.00
184.3990, 34819.00
185.6220, 35020.00
186.8450, 35312.00
188.0670, 35367.69
189.2900, 35547.23
190.5120, 35580.00
191.7340, 35651.00
192.9560, 35752.00
194.1780, 35562.00
195.4000, 36073.00
196.6220, 36062.00
197.8430, 35871.00
199.0640, 36301.00
200.2860, 36527.00
201.5070, 36371.00
202.7270, 36028.00
203.9480, 35284.00
205.1690, 34803.00
206.3890, 34344.00
207.6090, 34220.00
208.8290, 34014.00
210.0490, 34235.00
211.2690, 34754.00
212.4890, 34742.00
213.7080, 34959.00
214.9280, 34031.00
216.1470, 33942.00
217.3660, 34135.00
218.5850, 34148.00
219.8030, 34063.00
221.0220, 34020.00
222.2400, 33842.00
223.4590, 33847.00
224.6770, 33876.00
225.8950, 33878.00
227.1120, 33926.00
228.3300, 33911.00
229.5480, 33940.00
230.7650, 33908.00
231.9820, 34022.00
233.1990, 34057.00
234.4160, 33940.00
235.6330, 34372.00
236.8490, 33833.00
238.0660, 34150.00
239.2820, 34294.00
240.4980, 34163.00
241.7140, 34172.00
242.9300, 33791.00
244.1460, 33800.00
245.3610, 33686.00
246.5770, 34077.00
247.7920, 34177.00
249.0070, 34352.00
250.2220, 34321.00
251.4370, 33561.91
252.6510, 34089.56
253.8660, 34425.56
255.0800, 34580.05
256.2940, 34009.71
257.5080, 34375.34
258.7220, 34365.87
259.9360, 34341.03
261.1490, 34838.32
262.3630, 34373.40
263.5760, 34862.41
264.7890, 34970.61
266.0020, 35036.00
267.2150, 34845.00
268.4270, 34944.00
269.6400, 35216.00
270.8520, 34805.00
272.0640, 34947.00
273.2760, 35074.00
274.4880, 35146.00
275.7000, 35145.41
276.9120, 35097.80
278.1230, 35008.00
279.3340, 34880.00
280.5450, 34690.00
281.7560, 34570.00
282.9670, 34809.00
284.1780, 34490.00
285.3880, 34289.00
286.5980, 34702.00
287.8090, 34291.00
289.0190, 34705.00
290.2290, 34445.00
291.4380, 34456.00
292.6480, 34629.00
293.8570, 34514.00
295.0670, 34756.00
296.2760, 34808.00
297.4850, 34691.00
298.6930, 34671.00
299.9020, 34661.01
301.1110, 34812.00
302.3190, 34698.00
303.5270, 34682.00
304.7350, 34852.00
305.9430, 34783.00
307.1510, 34767.00
308.3580, 35098.00
309.5660, 35103.00
310.7730, 34761.00
311.9800, 35081.00
313.1870, 34926.00
314.3940, 34980.00
315.6010, 34954.00
316.8070, 34966.00
318.0130, 34940.00
319.2200, 35055.00
320.4260, 35152.00
321.6310, 34798.00
322.8370, 35225.00
324.0430, 35083.00
325.2480, 35423.00
326.4540, 35353.00
327.6590, 35354.00
328.8640, 35515.00
330.0680, 35324.00
331.2730, 35677.00
332.4780, 35561.00
333.6820, 35379.00
334.8860, 35433.00
336.0900, 35566.00
337.2940, 35471.00
338.4980, 35737.00
339.7010, 35766.00
340.9050, 35317.00
342.1080, 35775.00
343.3110, 35580.00
344.5140, 35751.00
345.7170, 35781.00
346.9200, 35753.00
348.1220, 35901.00
349.3240, 36099.00
350.5270, 35692.00
351.7290, 35994.00
352.9310, 35670.00
354.1320, 35713.00
355.3340, 35734.00
356.5350, 36034.00
357.7370, 35820.00
358.9380, 36017.00
360.1390, 36129.00
361.3400, 35832.00
362.5400, 36049.00
363.7410, 36042.00
364.9410, 36090.00
366.1410, 36204.00
367.3410, 36024.00
368.5410, 36055.00
369.7410, 36139.00
370.9400, 36241.00
372.1400, 36517.00
373.3390, 36302.00
374.5380, 36423.00
375.7370, 36414.00
376.9360, 36218.00
378.1350, 36469.00
379.3330, 36239.00
380.5310, 36120.00
381.7300, 36421.00
382.9280, 36284.00
384.1260, 36594.00
385.3230, 36676.00
386.5210, 36755.00
387.7180, 36799.00
388.9160, 37037.00
390.1130, 36713.00
391.3100, 36961.00
392.5060, 37299.00
393.7030, 37463.00
394.9000, 37891.00
396.0960, 38184.00
397.2920, 38295.00
398.4880, 38687.00
399.6840, 38528.00
400.8800, 39037.00
402.0750, 39028.00
403.2710, 39176.00
404.4660, 38808.00
405.6610, 38644.00
406.8560, 38531.00
408.0510, 38371.24
409.2450, 38120.97
410.4400, 38188.00
411.6340, 37727.00
412.8280, 37520.00
414.0220, 37632.00
415.2160, 37106.00
416.4100, 37513.00
417.6030, 37415.00
418.7970, 37000.00
419.9900, 37134.00
421.1830, 37494.00
422.3760, 37054.00
423.5690, 37376.00
424.7610, 37166.00
425.9540, 37207.00
427.1460, 37230.00
428.3380, 37172.00
429.5300, 37247.00
430.7220, 37445.00
431.9140, 37161.00
433.1050, 37227.00
434.2970, 37327.00
435.4880, 36830.00
436.6790, 37326.00
437.8700, 37227.00
439.0610, 37304.00
440.2510, 37521.00
441.4420, 37224.00
442.6320, 37242.00
443.8220, 37307.00
445.0120, 37058.00
446.2020, 37503.00
447.3910, 37459.00
448.5810, 37214.00
449.7700, 37496.00
450.9600, 37297.00
452.1490, 37383.00
453.3370, 37482.00
454.5260, 37566.00
455.7150, 37636.00
456.9030, 37395.00
458.0910, 37865.00
459.2800, 37783.00
460.4670, 37466.00
461.6550, 37644.00
462.8430, 37490.00
464.0300, 37771.00
465.2180, 37713.00
466.4050, 37861.00
467.5920, 37663.00
468.7790, 37737.00
469.9650, 37639.00
471.1520, 37727.31
472.3380, 37787.00
473.5250, 37936.00
474.7110, 38024.00
475.8970, 38071.00
477.0820, 38076.66
478.2680, 38115.72
479.4540, 38146.24
480.6390, 38132.00
481.8240, 38188.00
483.0090, 38196.00
484.1940, 38166.00
485.3780, 38100.00
486.5630, 38223.00
487.7470, 38133.00
488.9320, 37959.00
490.1160, 38292.00
491.3000, 38467.00
492.4830, 38252.00
493.6670, 38613.00
494.8500, 38319.00
496.0340, 38280.00
497.2170, 38311.00
498.4000, 38521.00
499.5820, 38420.00
500.7650, 38650.00
501.9480, 38699.00
503.1300, 38569.00
504.3120, 38915.00
505.4940, 38715.00
506.6760, 38672.00
507.8580, 38678.00
509.0390, 38733.00
510.2210, 38779.00
511.4020, 38731.00
512.5830, 38804.00
513.7640, 38954.00
514.9450, 38886.00
516.1250, 38876.00
517.3060, 39086.00
518.4860, 39157.00
519.6660, 39160.00
520.8460, 39205.00
522.0260, 39111.00
523.2060, 39169.24
524.3850, 39437.00
525.5650, 39197.67
526.7440, 39365.00
527.9230, 39356.00
529.1020, 39243.00
530.2810, 39639.00
531.4590, 39459.29
532.6380, 39508.62
533.8160, 39331.00
534.9940, 39526.00
536.1720, 39354.00
537.3500, 39551.00
538.5270, 39841.00
539.7050, 39336.00
540.8820, 39329.00
542.0590, 39508.00
543.2360, 39660.00
544.4130, 39589.00
545.5900, 39650.00
546.7660, 39746.00
547.9430, 39610.00
549.1190, 39545.00
550.2950, 39593.86
551.4710, 39589.00
552.6470, 39643.00
553.8220, 39724.00
554.9980, 39768.00
556.1730, 39742.00
557.3480, 39738.00
558.5230, 39879.00
559.6980, 39754.00
560.8730, 39701.00
562.0470, 39828.00
563.2220, 39828.00
564.3960, 39824.00
565.5700, 39784.00
566.7440, 39713.00
567.9170, 39800.80
569.0910, 39713.00
570.2640, 39985.00
571.4380, 39821.00
572.6110, 39942.00
573.7840, 39567.00
574.9570, 39534.00
576.1290, 39350.00
577.3020, 39216.00
578.4740, 39340.00
579.6460, 39158.00
580.8180, 39189.00
581.9900, 39147.00
583.1620, 38856.00
584.3330, 38874.00
585.5040, 39038.00
586.6760, 38972.00
587.8470, 39083.00
589.0180, 38879.00
590.1880, 38892.00
591.3590, 38912.00
592.5290, 38944.00
593.7000, 38957.00
594.8700, 39042.00
596.0400, 38957.00
597.2090, 38609.00
598.3790, 39156.00
599.5490, 38958.00
600.7180, 39252.00
601.8870, 39045.00
603.0560, 39080.00
604.2250, 38964.00
605.3940, 39097.00
606.5620, 38964.00
607.7300, 38984.00
608.8990, 38971.00
610.0670, 38976.00
611.2350, 39069.00
612.4020, 39199.00
613.5700, 39098.00
614.7370, 39200.00
615.9050, 39167.00
617.0720, 39166.00
618.2390, 39321.00
619.4060, 39038.00
620.5720, 39085.00
621.7390, 39412.00
622.9050, 39023.00
624.0710, 39213.00
625.2370, 39357.00
626.4030, 39524.00
627.5690, 39586.67
628.7340, 39509.09
629.9000, 39614.00
631.0650, 39351.00
632.2300, 39202.00
633.3950, 39381.00
634.5600, 39646.00
635.7240, 39411.00
636.8890, 39339.00
638.0530, 39072.00
639.2170, 39312.00
640.3810, 39491.00
641.5450, 39195.00
642.7080, 39558.00
643.8720, 39236.00
645.0350, 39885.00
646.1980, 39496.00
647.3610, 39682.00
648.5240, 39765.00
649.6870, 39346.00
650.8490, 39543.00
652.0120, 39570.00
653.1740, 39681.00
654.3360, 39541.00
655.4980, 39575.00
656.6600, 39616.00
657.8210, 39566.72
658.9830, 39698.00
660.1440, 39585.00
661.3050, 39741.00
662.4660, 39799.00
663.6270, 39824.00
664.7870, 39957.00
665.9480, 39931.00
667.1080, 39958.59
668.2680, 40016.08
669.4280, 39962.00
670.5880, 40146.00
671.7480, 40208.00
672.9070, 40404.00
674.0670, 40470.00
675.2260, 40407.00
676.3850, 40658.00
677.5440, 41074.00
678.7030, 40950.00
679.8610, 40899.00
681.0200, 41309.00
682.1780, 41155.00
683.3360, 41703.00
684.4940, 41510.00
685.6520, 41937.00
686.8090, 41930.00
687.9670, 41995.00
689.1240, 42083.00
690.2810, 42150.00
691.4380, 42442.00
692.5950, 42297.00
693.7520, 42441.00
694.9080, 42266.00
696.0650, 42128.00
697.2210, 42072.00
698.3770, 41903.00
699.5330, 41924.00
700.6880, 41943.00
701.8440, 41800.00
702.9990, 41600.00
704.1550, 41542.00
705.3100, 41420.33
706.4650, 41416.00
707.6190, 41265.00
708.7740, 41109.00
709.9290, 41027.00
711.0830, 41079.00
712.2370, 40815.00
713.3910, 40970.00
714.5450, 40543.00
715.6980, 40355.00
716.8520, 40508.00
718.0050, 40531.00
719.1580, 40544.00
720.3110, 40580.00
721.4640, 40505.00
722.6170, 40400.00
723.7700, 40328.00
724.9220, 40269.00
726.0740, 40546.00
727.2260, 40425.00
728.3780, 40182.00
729.5300, 41053.00
730.6810, 40377.00
731.8330, 40719.00
732.9840, 40480.00
734.1350, 40417.00
735.2860, 40477.00
736.4370, 40466.00
737.5880, 40453.00
738.7380, 40501.00
739.8880, 40450.00
741.0390, 40311.00
742.1890, 40601.00
743.3380, 40274.00
744.4880, 40507.00
745.6380, 40232.00
746.7870, 40411.00
747.9360, 40743.00
749.0850, 40396.00
750.2340, 40316.00
751.3830, 40504.00
752.5310, 40400.00
753.6800, 40605.00
754.8280, 40700.00
755.9760, 40715.00
757.1240, 40700.00
758.2720, 40626.00
759.4190, 40564.00
760.5670, 40736.00
761.7140, 40523.00
762.8610, 40851.00
764.0080, 40990.00
765.1550, 40957.00
766.3020, 40771.00
767.4480, 40729.00
768.5950, 40845.00
769.7410, 40794.48
770.8870, 41025.00
772.0330, 40895.00
773.1780, 41122.00
774.3240, 41167.00
775.4690, 41040.00
776.6140, 41042.00
777.7590, 41004.00
778.9040, 41131.00
780.0490, 41020.00
781.1940, 41038.27
782.3380, 41002.00
783.4820, 40971.00
784.6260, 40983.00
785.7700, 40931.00
786.9140, 40880.00
788.0580, 40989.00
789.2010, 40974.08
790.3450, 40945.00
791.4880, 41045.00
792.6310, 41123.00
793.7730, 41102.00
794.9160, 41326.00
796.0590, 41314.00
797.2010, 41006.00
798.3430, 41036.00
799.4850, 41211.00
800.6270, 41080.00
801.7690, 41189.00
802.9100, 41141.00
804.0520, 41309.00
805.1930, 41129.00
806.3340, 41158.00
807.4750, 41230.00
808.6160, 41333.00
809.7560, 40967.00
810.8970, 41497.00
812.0370, 41155.00
813.1770, 41307.00
814.3170, 41081.00
815.4570, 41406.00
816.5960, 41439.00
817.7360, 41514.00
818.8750, 41370.00
820.0140, 41247.00
821.1530, 41396.00
822.2920, 41448.00
823.4310, 41507.00
824.5690, 41472.00
825.7070, 41263.00
826.8460, 41620.00
827.9840, 41421.00
829.1220, 41688.00
830.2590, 41393.00
831.3970, 41767.00
832.5340, 41438.00
833.6710, 41879.00
834.8080, 41490.00
835.9450, 41677.00
837.0820, 41901.00
838.2190, 41858.00
839.3550, 41916.00
840.4910, 41957.00
841.6270, 41910.00
842.7630, 42228.00
843.8990, 42246.00
845.0350, 41983.00
846.1700, 42427.00
847.3060, 42628.00
848.4410, 42550.00
849.5760, 42870.00
850.7100, 42877.00
851.8450, 43448.00
852.9800, 43568.00
854.1140, 43710.00
855.2480, 43662.00
856.3820, 44111.00
857.5160, 44389.00
858.6500, 44421.00
859.7830, 45020.00
860.9170, 45334.00
862.0500, 45473.00
863.1830, 46405.00
864.3160, 46711.00
865.4480, 47473.00
866.5810, 48339.00
867.7130, 48741.00
868.8460, 49839.00
869.9780, 50984.00
871.1100, 51675.00
872.2410, 53036.00
873.3730, 54077.00
874.5050, 55356.00
875.6360, 56256.00
876.7670, 57468.00
877.8980, 57726.00
879.0290, 58132.00
880.1590, 57928.00
881.2900, 57853.00
882.4200, 57536.00
883.5500, 57040.00
884.6800, 55910.00
885.8100, 55154.00
886.9400, 54033.00
888.0690, 53085.00
889.1990, 52363.00
890.3280, 51288.00
891.4570, 50417.00
892.5860, 49822.00
893.7140, 48892.00
894.8430, 48037.00
895.9710, 47616.00
897.1000, 47169.00
898.2280, 46436.00
899.3560, 46006.00
900.4830, 45598.00
901.6110, 45321.00
902.7380, 44883.00
903.8660, 44576.00
904.9930, 44335.00
906.1200, 44005.00
907.2460, 43976.00
908.3730, 44046.00
909.5000, 43507.00
910.6260, 43694.00
911.7520, 43485.55
912.8780, 43716.00
914.0040, 43228.00
915.1290, 43494.00
916.2550, 43277.00
917.3800, 43054.00
918.5050, 43032.00
919.6300, 42906.00
920.7550, 42908.00
921.8800, 42951.00
923.0040, 42828.00
924.1290, 42898.00
925.2530, 42956.00
926.3770, 42675.00
927.5010, 42654.00
928.6250, 42510.00
929.7480, 42536.00
930.8720, 42778.00
931.9950, 42678.00
933.1180, 42853.00
934.2410, 42914.00
935.3640, 42621.00
936.4860, 42923.00
937.6090, 43419.00
938.7310, 43077.00
939.8530, 43041.00
940.9750, 42647.00
942.0970, 42891.00
943.2180, 42776.00
944.3400, 42917.00
945.4610, 42736.00
946.5820, 42749.00
947.7030, 42723.00
948.8240, 42782.00
949.9450, 42840.00
951.0650, 42841.96
952.1860, 42876.00
953.3060, 42862.00
954.4260, 42747.00
955.5460, 42691.00
956.6650, 42961.00
957.7850, 42813.00
958.9040, 42859.00
960.0230, 42620.00
961.1420, 43168.00
962.2610, 42965.00
963.3800, 43095.00
964.4990, 42883.00
965.6170, 42929.00
966.7350, 43125.00
967.8530, 42859.00
968.9710, 42826.00
970.0890, 42841.00
971.2070, 42992.00
972.3240, 42879.00
973.4410, 42842.00
974.5580, 42898.00
975.6750, 42879.69
976.7920, 42982.00
977.9090, 42952.00
979.0250, 43016.00
980.1410, 43021.00
981.2580, 43034.00
982.3740, 42842.00
983.4890, 43301.00
984.6050, 43466.00
985.7200, 43278.00
986.8360, 43158.00
987.9510, 43305.00
989.0660, 43339.00
990.1810, 43312.00
991.2950, 43121.00
992.4100, 43248.00
993.5240, 43600.00
994.6390, 43387.33
995.7530, 43378.00
996.8660, 43413.00
997.9800, 43322.00
999.0940, 43672.00
1000.207, 43207.00
1001.320, 43486.00
1002.433, 43374.00
1003.546, 43761.00
1004.659, 43455.00
1005.772, 43499.00
1006.884, 43442.00
1007.996, 43592.00
1009.108, 43394.00
1010.220, 43446.00
1011.332, 43501.00
1012.444, 43587.00
1013.555, 43563.00
1014.666, 43324.00
1015.777, 43632.00
1016.888, 43450.00
1017.999, 43289.00
1019.110, 43484.00
1020.220, 43529.00
1021.331, 43528.00
1022.441, 43560.00
1023.551, 43889.00
1024.661, 43501.00
1025.770, 43821.00
1026.880, 43504.00
1027.989, 43613.00
1029.098, 43792.00
1030.207, 43269.00
1031.316, 43536.00
1032.425, 43413.00
1033.533, 43660.00
1034.642, 43612.00
1035.750, 44123.00
1036.858, 43818.00
1037.966, 43825.00
1039.073, 43905.00
1040.181, 43738.00
1041.288, 43727.00
1042.396, 43846.00
1043.503, 43936.00
1044.610, 44117.00
1045.716, 44195.00
1046.823, 44096.00
1047.929, 44046.00
1049.036, 44264.00
1050.142, 43987.00
1051.248, 44134.00
1052.353, 44101.00
1053.459, 43863.00
1054.564, 44144.00
1055.670, 44016.00
1056.775, 44138.00
1057.880, 44117.00
1058.985, 44294.00
1060.089, 44009.00
1061.194, 44100.00
1062.298, 44014.00
1063.402, 44006.55
1064.506, 44425.00
1065.610, 44112.00
1066.713, 44123.00
1067.817, 44228.00
1068.920, 44019.00
1070.023, 44285.00
1071.126, 44512.00
1072.229, 44359.00
1073.332, 44251.00
1074.435, 44282.00
1075.537, 44207.00
1076.639, 44241.79
1077.741, 44247.92
1078.843, 44304.00
1079.945, 44278.00
1081.046, 44255.00
1082.148, 44237.74
1083.249, 44281.00
1084.350, 44288.00
1085.451, 44336.00
1086.551, 44371.00
1087.652, 44396.69
1088.752, 44104.00
1089.853, 44300.00
1090.953, 44371.00
1092.053, 43983.00
1093.152, 44308.00
1094.252, 44019.00
1095.351, 44242.00
1096.451, 44478.00
1097.550, 44058.00
1098.649, 43937.00
1099.748, 44072.00
1100.846, 44156.00
1101.945, 44429.00
1103.043, 43982.00
1104.141, 44282.00
1105.239, 44041.00
1106.337, 44115.00
1107.434, 44314.00
1108.532, 44114.00
1109.629, 44265.00
1110.726, 44131.00
1111.823, 43931.00
1112.920, 44190.00
1114.017, 44218.00
1115.113, 44435.00
1116.210, 44546.00
1117.306, 44912.00
1118.402, 44703.00
1119.498, 44949.00
1120.593, 44918.00
1121.689, 44544.00
1122.784, 44995.00
1123.879, 44899.00
1124.974, 44899.00
1126.069, 44912.00
1127.164, 44479.00
1128.259, 44347.00
1129.353, 44323.00
1130.447, 44252.00
1131.541, 43999.00
1132.635, 44013.20
1133.729, 43759.00
1134.822, 43843.00
1135.916, 43810.00
1137.009, 43611.00
1138.102, 43764.00
1139.195, 43748.00
1140.288, 43632.00
1141.380, 43641.00
1142.473, 43697.00
1143.565, 43623.86
1144.657, 43577.00
1145.749, 43550.00
1146.841, 43565.00
1147.932, 43478.03
1149.024, 43396.00
1150.115, 43458.00
1151.206, 43513.00
1152.297, 43488.00
1153.388, 43552.00
1154.479, 43542.00
1155.569, 43520.89
1156.659, 43547.48
1157.750, 43450.00
1158.839, 43475.00
1159.929, 43419.00
1161.019, 43212.00
1162.108, 43643.00
1163.198, 43383.00
1164.287, 43155.00
1165.376, 43552.00
1166.465, 43437.00
1167.553, 43641.00
1168.642, 43735.00
1169.730, 43653.00
1170.818, 43154.00
1171.906, 43276.00
1172.994, 43524.00
1174.082, 43166.00
1175.170, 43602.00
1176.257, 43427.00
1177.344, 43223.00
1178.431, 43711.00
1179.518, 43242.00
1180.605, 43481.00
1181.691, 43337.00
1182.778, 43441.00
1183.864, 43427.00
1184.950, 43460.00
1186.036, 43411.00
1187.122, 43447.00
1188.207, 43500.00
1189.292, 43324.00
1190.378, 43052.00
1191.463, 43529.00
1192.548, 43478.00
1193.632, 43312.00
1194.717, 43530.00
1195.801, 43195.00
1196.886, 43483.00
1197.970, 43305.00
1199.054, 43383.00
1200.137, 43163.00
1201.221, 43144.00
1202.305, 43354.00
1203.388, 43292.00
1204.471, 43326.00
1205.554, 43358.00
1206.637, 43314.00
1207.719, 43331.00
1208.802, 43300.00
1209.884, 43370.00
1210.966, 43281.00
1212.048, 43471.00
1213.130, 43697.00
1214.212, 43526.00
1215.293, 43546.00
1216.374, 43212.00
1217.456, 43122.00
1218.536, 43156.85
1219.617, 43434.00
1220.698, 43346.00
1221.778, 43376.00
1222.859, 43643.00
1223.939, 43284.00
1225.019, 43392.00
1226.099, 43366.00
1227.178, 43243.23
1228.258, 43628.00
1229.337, 43249.00
1230.417, 43384.00
1231.496, 43611.00
1232.574, 43410.00
1233.653, 43196.00
1234.732, 43339.00
1235.810, 43398.00
1236.888, 43593.00
1237.966, 43543.00
1239.044, 43294.00
1240.122, 43534.00
1241.199, 43369.00
1242.277, 43483.00
1243.354, 43528.00
1244.431, 43588.00
1245.508, 43504.00
1246.585, 43767.00
1247.661, 43498.00
1248.738, 43599.00
1249.814, 43559.00
1250.890, 43358.00
1251.966, 43464.00
1253.042, 43137.00
1254.117, 43653.00
1255.193, 43523.00
1256.268, 43516.00
1257.343, 43380.00
1258.418, 43356.00
1259.493, 43624.00
1260.567, 43512.00
1261.642, 43481.41
1262.716, 43459.00
1263.790, 43245.00
1264.864, 43469.00
1265.938, 43351.00
1267.011, 43521.00
1268.085, 43716.00
1269.158, 43494.00
1270.231, 43442.00
1271.304, 43499.00
1272.377, 43341.29
1273.450, 43525.00
1274.522, 43248.00
1275.594, 43378.00
1276.666, 43466.00
1277.738, 43561.00
1278.810, 43617.00
1279.882, 43390.00
1280.953, 43158.00
1282.025, 43330.00
1283.096, 43164.00
1284.167, 43594.00
1285.238, 43424.00
1286.308, 43647.00
1287.379, 43416.00
1288.449, 43622.00
1289.519, 43771.00
1290.589, 43669.00
1291.659, 43361.00
1292.729, 43532.00
1293.798, 43482.20
1294.868, 43487.26
1295.937, 43596.00
1297.006, 43656.00
1298.075, 43562.15
1299.143, 43729.00
1300.212, 43533.00
1301.280, 43758.00
1302.348, 43493.00
1303.416, 43468.00
1304.484, 43893.00
1305.552, 43631.00
1306.620, 43464.00
1307.687, 43631.00
1308.754, 43518.00
1309.821, 43473.00
1310.888, 43480.00
1311.955, 43505.00
1313.021, 43646.00
1314.088, 43682.00
1315.154, 43676.19
1316.220, 43512.00
1317.286, 43665.00
1318.352, 43538.00
1319.417, 43605.00
1320.483, 43762.00
1321.548, 43870.00
1322.613, 43871.00
1323.678, 43790.00
1324.743, 43832.68
1325.807, 43695.00
1326.872, 43775.00
1327.936, 43735.00
1329.000, 43658.00
1330.064, 43828.00
1331.128, 43616.00
1332.191, 43603.00
1333.255, 43787.00
1334.318, 43897.00
1335.381, 43686.00
1336.444, 43682.00
1337.507, 43560.00
1338.569, 43795.00
1339.632, 43816.00
1340.694, 43731.00
1341.756, 43972.00
1342.818, 43851.00
1343.880, 43959.00
1344.941, 43906.00
1346.003, 43835.00
1347.064, 43901.00
1348.125, 43878.00
1349.186, 43947.00
1350.247, 43918.00
1351.308, 44074.00
1352.368, 44014.00
1353.428, 43769.00
1354.489, 43963.00
1355.549, 43514.00
1356.608, 43882.00
1357.668, 43700.00
1358.727, 43990.00
1359.787, 44038.00
1360.846, 43743.00
1361.905, 43889.00
1362.964, 43935.00
1364.022, 43891.00
1365.081, 43843.00
1366.139, 43580.00
1367.197, 43861.00
1368.255, 43774.00
1369.313, 44222.00
1370.371, 43965.00
1371.428, 43863.00
1372.486, 43669.00
1373.543, 43965.00
1374.600, 43814.00
1375.657, 43601.14
1376.713, 44052.50
1377.770, 44312.13
1378.826, 44390.32
1379.882, 43743.68
1380.938, 44033.00
1381.994, 43947.24
1383.050, 43846.09
1384.106, 44267.16
1385.161, 43725.93
1386.216, 44138.70
1387.271, 44170.65
1388.326, 44376.90
1389.381, 44205.73
1390.435, 44151.12
1391.490, 44474.06
1392.544, 44061.00
1393.598, 44122.66
1394.652, 44122.17
1395.705, 44118.23
1396.759, 44066.00
1397.812, 44101.00
1398.866, 43972.00
1399.919, 43965.00
1400.972, 43996.00
1402.024, 44001.44
1403.077, 43977.49
1404.129, 44005.80
1405.181, 43995.92
1406.233, 44032.00
1407.285, 44013.00
1408.337, 44029.00
1409.389, 44069.00
1410.440, 44104.00
1411.491, 44017.00
1412.542, 44038.00
1413.593, 44088.00
1414.644, 43924.00
1415.695, 44231.00
1416.745, 44018.00
1417.795, 44201.00
1418.845, 44113.00
1419.895, 44281.00
1420.945, 44090.00
1421.995, 44185.00
1423.044, 44108.00
1424.093, 44152.00
1425.142, 44023.00
1426.191, 44084.00
1427.240, 43957.00
1428.289, 43904.00
1429.337, 43919.00
1430.385, 43909.00
1431.433, 44118.00
1432.481, 44260.00
1433.529, 44229.00
1434.577, 44168.00
1435.624, 44041.00
1436.672, 44190.00
1437.719, 44274.00
1438.766, 44255.00
1439.812, 44177.00
1440.859, 44398.00
1441.905, 44141.00
1442.952, 44196.00
1443.998, 44198.00
1445.044, 44000.00
1446.090, 44555.00
1447.135, 44030.00
1448.181, 44363.00
1449.226, 43907.00
1450.271, 44113.00
1451.316, 44167.00
1452.361, 44221.00
1453.405, 44127.00
1454.450, 44213.00
1455.494, 44128.00
1456.538, 44372.00
1457.582, 44221.00
1458.626, 44194.00
1459.670, 44004.00
1460.713, 44288.00
1461.757, 44359.00
1462.800, 43808.32
1463.843, 44248.59
1464.886, 44497.12
1465.928, 44564.23
1466.971, 43906.48
1468.013, 44184.72
1469.055, 44087.86
1470.097, 43975.62
1471.139, 44385.59
1472.181, 43833.28
1473.222, 44234.97
1474.263, 44255.83
1475.305, 44451.00
1476.346, 44268.74
1477.386, 44203.05
1478.427, 44514.90
1479.468, 44617.71
1480.508, 44392.00
1481.548, 44598.23
1482.588, 44032.73
1483.628, 44144.43
1484.668, 44548.32
1485.707, 44341.59
1486.747, 44312.00
1487.786, 44316.00
1488.825, 44198.00
1489.864, 44440.00
1490.902, 44400.00
1491.941, 44320.00
1492.979, 44439.00
1494.017, 44450.00
1495.055, 44235.00
1496.093, 44532.00
1497.131, 44338.00
1498.168, 44370.00
1499.206, 44301.00
1500.243, 44315.02
1501.280, 44268.00
1502.317, 44429.00
1503.354, 44596.00
1504.390, 44694.00
1505.426, 44744.00
1506.463, 44406.00
1507.499, 44648.00
1508.535, 44396.00
1509.570, 44725.00
1510.606, 44372.00
1511.641, 44491.00
1512.676, 44631.00
1513.711, 44458.00
1514.746, 44602.00
1515.781, 44535.00
1516.816, 44770.00
1517.850, 44369.00
1518.884, 44579.00
1519.918, 44624.00
1520.952, 44516.00
1521.986, 44571.00
1523.019, 44684.00
1524.053, 44455.00
1525.086, 44925.00
1526.119, 44299.00
1527.152, 44376.00
1528.185, 44552.00
1529.217, 44544.00
1530.250, 44728.00
1531.282, 44551.00
1532.314, 44895.00
1533.346, 44362.00
1534.377, 44693.00
1535.409, 44911.00
1536.440, 44251.00
1537.472, 44812.00
1538.503, 44825.00
1539.534, 44832.00
1540.564, 45269.00
1541.595, 44589.00
1542.625, 45133.00
1543.656, 44796.00
1544.686, 44630.00
1545.716, 44570.80
1546.745, 44993.80
1547.775, 45225.06
1548.804, 45274.89
1549.834, 44599.88
1550.863, 44860.85
1551.892, 44746.73
1552.920, 44617.24
1553.949, 45009.95
1554.977, 44440.39
1556.006, 44824.82
1557.034, 44828.44
1558.062, 45006.36
1559.089, 44806.87
1560.117, 44723.94
1561.144, 45018.56
1562.172, 45090.00
1563.199, 45088.00
1564.226, 44943.96
1565.252, 44698.00
1566.279, 44793.00
1567.305, 44726.00
1568.332, 44980.00
1569.358, 44810.00
1570.384, 45184.00
1571.409, 44785.00
1572.435, 45234.00
##END=



