##NAMES=Ferberite
##RRUFFID=R050090
##IDEAL CHEMISTRY=Fe^2+^W^6+^O_4_
##LOCALITY=Yaogangxian mine, Cheng Zhu City, South Hunan, China
##OWNER=RRUFF
##SOURCE=Rock Currier
##DESCRIPTION=Dark gray tabular crystal
##STATUS=The identification of this mineral has been confirmed by X-ray diffraction and chemical analysis
##URL=rruff.info/R050090
##MEASURED CHEMISTRY=(Fe^2+^_0.56_Mn_0.44_)W_1.00_O_4_
##PIN_ID=L01369
##ORIENTATION=Laser parallel to c* (0 0 1). Fiducial mark perpendicular to laser is parallel to -a [-1 0 0]
98.41600, 4513.000
99.64900, 4560.000
100.8830, 4703.000
102.1160, 4682.000
103.3490, 4612.000
104.5820, 4677.000
105.8150, 4995.000
107.0470, 5318.000
108.2800, 6147.000
109.5120, 6062.975
110.7440, 5913.603
111.9760, 6191.000
113.2080, 5325.000
114.4400, 5357.000
115.6710, 5737.000
116.9030, 6222.000
118.1340, 6392.000
119.3650, 6496.000
120.5960, 6741.000
121.8270, 7355.000
123.0580, 8430.000
124.2880, 10255.00
125.5190, 12252.00
126.7490, 15892.00
127.9790, 20810.00
129.2090, 25719.00
130.4390, 26603.00
131.6680, 22904.00
132.8980, 18049.00
134.1270, 14311.00
135.3560, 12097.00
136.5850, 11235.00
137.8140, 11385.00
139.0430, 11935.00
140.2710, 12810.00
141.5000, 13898.00
142.7280, 14853.00
143.9560, 15472.00
145.1840, 15490.00
146.4120, 14939.00
147.6390, 13763.00
148.8670, 12428.00
150.0940, 10917.00
151.3210, 9667.000
152.5490, 8769.000
153.7750, 7973.000
155.0020, 7225.000
156.2290, 6692.000
157.4550, 6112.000
158.6810, 5651.000
159.9080, 5533.000
161.1340, 5191.000
162.3590, 5126.000
163.5850, 5065.000
164.8110, 5131.000
166.0360, 5084.971
167.2610, 5304.000
168.4860, 5101.000
169.7110, 5255.000
170.9360, 5292.000
172.1610, 5182.000
173.3850, 5009.000
174.6100, 4942.000
175.8340, 4877.000
177.0580, 4846.000
178.2820, 4795.000
179.5050, 4744.000
180.7290, 4802.000
181.9520, 4685.000
183.1760, 4675.000
184.3990, 4710.000
185.6220, 4813.000
186.8450, 4992.000
188.0670, 5014.000
189.2900, 5119.000
190.5120, 5147.000
191.7340, 5301.000
192.9560, 5351.000
194.1780, 5695.000
195.4000, 5837.000
196.6220, 6109.000
197.8430, 6317.000
199.0640, 6624.062
200.2860, 7018.882
201.5070, 7304.000
202.7270, 7828.000
203.9480, 8222.000
205.1690, 8498.000
206.3890, 8149.000
207.6090, 7727.000
208.8290, 7480.000
210.0490, 6911.000
211.2690, 6404.000
212.4890, 5912.000
213.7080, 5532.917
214.9280, 5362.000
216.1470, 4912.000
217.3660, 4779.000
218.5850, 4598.000
219.8030, 4411.000
221.0220, 4390.000
222.2400, 4281.000
223.4590, 4221.000
224.6770, 4127.000
225.8950, 4107.000
227.1120, 4076.299
228.3300, 4126.000
229.5480, 4089.000
230.7650, 4059.000
231.9820, 4119.000
233.1990, 3962.000
234.4160, 4079.000
235.6330, 4010.000
236.8490, 4084.000
238.0660, 4074.000
239.2820, 4021.000
240.4980, 3996.000
241.7140, 3976.000
242.9300, 3948.000
244.1460, 3956.865
245.3610, 4009.000
246.5770, 3968.000
247.7920, 3999.000
249.0070, 3982.000
250.2220, 4044.000
251.4370, 3957.000
252.6510, 4105.000
253.8660, 4055.000
255.0800, 4168.000
256.2940, 4186.000
257.5080, 4203.000
258.7220, 4358.000
259.9360, 4477.896
261.1490, 4494.077
262.3630, 4571.094
263.5760, 4590.000
264.7890, 4575.000
266.0020, 4689.000
267.2150, 4615.000
268.4270, 4745.000
269.6400, 4669.000
270.8520, 4773.000
272.0640, 4681.000
273.2760, 4653.000
274.4880, 4715.000
275.7000, 4686.000
276.9120, 4652.000
278.1230, 4655.000
279.3340, 4542.000
280.5450, 4607.000
281.7560, 4440.000
282.9670, 4399.000
284.1780, 4335.000
285.3880, 4329.000
286.5980, 4302.619
287.8090, 4292.197
289.0190, 4322.000
290.2290, 4306.000
291.4380, 4390.000
292.6480, 4430.000
293.8570, 4453.000
295.0670, 4452.000
296.2760, 4510.000
297.4850, 4602.000
298.6930, 4497.000
299.9020, 4470.000
301.1110, 4534.411
302.3190, 4565.000
303.5270, 4644.000
304.7350, 4724.000
305.9430, 4806.000
307.1510, 4906.000
308.3580, 5011.000
309.5660, 5078.000
310.7730, 5263.000
311.9800, 5372.000
313.1870, 5491.000
314.3940, 5746.000
315.6010, 6065.000
316.8070, 6372.000
318.0130, 6694.000
319.2200, 7134.000
320.4260, 7570.000
321.6310, 7994.000
322.8370, 8443.000
324.0430, 8735.000
325.2480, 8986.000
326.4540, 8978.000
327.6590, 8954.000
328.8640, 8606.000
330.0680, 8125.000
331.2730, 7856.000
332.4780, 7572.000
333.6820, 7217.000
334.8860, 6810.000
336.0900, 6588.000
337.2940, 6395.000
338.4980, 6165.000
339.7010, 6000.000
340.9050, 5858.000
342.1080, 5625.000
343.3110, 5638.000
344.5140, 5581.000
345.7170, 5405.000
346.9200, 5461.000
348.1220, 5328.000
349.3240, 5241.000
350.5270, 5253.000
351.7290, 5095.000
352.9310, 5050.000
354.1320, 5124.000
355.3340, 5074.000
356.5350, 5067.000
357.7370, 5052.000
358.9380, 5022.862
360.1390, 5022.000
361.3400, 4997.000
362.5400, 5003.000
363.7410, 5025.000
364.9410, 5041.000
366.1410, 5034.546
367.3410, 5035.000
368.5410, 5026.000
369.7410, 5041.000
370.9400, 5050.000
372.1400, 4987.000
373.3390, 5076.000
374.5380, 5187.000
375.7370, 5140.000
376.9360, 5090.000
378.1350, 5166.000
379.3330, 5268.000
380.5310, 5213.000
381.7300, 5319.000
382.9280, 5461.000
384.1260, 5487.000
385.3230, 5692.000
386.5210, 5822.000
387.7180, 6074.000
388.9160, 6295.000
390.1130, 6683.000
391.3100, 7087.000
392.5060, 7591.000
393.7030, 8247.000
394.9000, 8965.000
396.0960, 9516.000
397.2920, 9903.000
398.4880, 9727.000
399.6840, 9406.000
400.8800, 8788.000
402.0750, 7919.000
403.2710, 7544.000
404.4660, 6828.000
405.6610, 6405.000
406.8560, 6113.000
408.0510, 5808.000
409.2450, 5597.000
410.4400, 5418.000
411.6340, 5258.000
412.8280, 5239.000
414.0220, 5139.000
415.2160, 5131.000
416.4100, 5033.000
417.6030, 4981.000
418.7970, 4885.000
419.9900, 4834.000
421.1830, 4716.000
422.3760, 4729.000
423.5690, 4659.000
424.7610, 4684.000
425.9540, 4633.000
427.1460, 4682.000
428.3380, 4606.000
429.5300, 4565.000
430.7220, 4605.000
431.9140, 4562.000
433.1050, 4639.000
434.2970, 4613.000
435.4880, 4607.000
436.6790, 4550.000
437.8700, 4652.000
439.0610, 4653.000
440.2510, 4621.000
441.4420, 4665.000
442.6320, 4607.000
443.8220, 4700.000
445.0120, 4647.000
446.2020, 4639.000
447.3910, 4623.000
448.5810, 4727.000
449.7700, 4692.000
450.9600, 4693.000
452.1490, 4695.000
453.3370, 4702.000
454.5260, 4705.000
455.7150, 4956.000
456.9030, 4831.306
458.0910, 4844.492
459.2800, 4785.000
460.4670, 4680.000
461.6550, 4769.000
462.8430, 4662.000
464.0300, 4736.000
465.2180, 4771.000
466.4050, 4729.000
467.5920, 4769.000
468.7790, 4873.000
469.9650, 4750.000
471.1520, 4823.000
472.3380, 4878.000
473.5250, 4820.000
474.7110, 4811.000
475.8970, 4805.000
477.0820, 4857.000
478.2680, 4861.077
479.4540, 4807.000
480.6390, 4919.000
481.8240, 4984.000
483.0090, 5021.000
484.1940, 4939.000
485.3780, 4920.000
486.5630, 5000.000
487.7470, 5100.000
488.9320, 5056.000
490.1160, 5170.000
491.3000, 5239.000
492.4830, 5214.000
493.6670, 5161.000
494.8500, 5273.000
496.0340, 5303.000
497.2170, 5396.000
498.4000, 5440.000
499.5820, 5458.000
500.7650, 5638.000
501.9480, 5599.000
503.1300, 5718.000
504.3120, 5791.000
505.4940, 5826.000
506.6760, 5922.000
507.8580, 6062.000
509.0390, 6078.000
510.2210, 6129.208
511.4020, 6065.000
512.5830, 6117.000
513.7640, 6170.000
514.9450, 6104.000
516.1250, 6170.000
517.3060, 6297.000
518.4860, 6246.000
519.6660, 6311.000
520.8460, 6358.000
522.0260, 6402.620
523.2060, 6582.000
524.3850, 6595.000
525.5650, 6740.000
526.7440, 6937.000
527.9230, 7031.000
529.1020, 7108.000
530.2810, 7191.000
531.4590, 7344.000
532.6380, 7401.000
533.8160, 7526.000
534.9940, 7590.000
536.1720, 7628.059
537.3500, 7595.000
538.5270, 7684.000
539.7050, 7587.000
540.8820, 7608.000
542.0590, 7305.000
543.2360, 7410.000
544.4130, 7185.000
545.5900, 7160.000
546.7660, 6896.000
547.9430, 6877.000
549.1190, 6582.000
550.2950, 6361.000
551.4710, 6388.000
552.6470, 6215.000
553.8220, 6177.000
554.9980, 5958.000
556.1730, 5739.000
557.3480, 5643.000
558.5230, 5689.000
559.6980, 5534.000
560.8730, 5423.000
562.0470, 5407.000
563.2220, 5329.000
564.3960, 5284.000
565.5700, 5237.000
566.7440, 5226.000
567.9170, 5077.000
569.0910, 5036.000
570.2640, 5063.000
571.4380, 5011.000
572.6110, 5079.000
573.7840, 5000.000
574.9570, 5020.000
576.1290, 4961.000
577.3020, 4973.000
578.4740, 4906.000
579.6460, 4870.000
580.8180, 4883.000
581.9900, 4928.000
583.1620, 4790.000
584.3330, 4938.000
585.5040, 4991.000
586.6760, 4844.000
587.8470, 4837.000
589.0180, 4903.000
590.1880, 4857.000
591.3590, 4877.000
592.5290, 4892.000
593.7000, 4950.000
594.8700, 4937.000
596.0400, 4944.000
597.2090, 4922.000
598.3790, 4971.000
599.5490, 5008.000
600.7180, 5014.000
601.8870, 5061.000
603.0560, 5056.770
604.2250, 5080.099
605.3940, 5041.000
606.5620, 5120.000
607.7300, 5088.000
608.8990, 5125.000
610.0670, 5132.000
611.2350, 5096.000
612.4020, 5105.000
613.5700, 5217.000
614.7370, 5188.000
615.9050, 5293.000
617.0720, 5316.000
618.2390, 5318.000
619.4060, 5411.875
620.5720, 5426.353
621.7390, 5508.000
622.9050, 5531.000
624.0710, 5491.000
625.2370, 5576.000
626.4030, 5571.000
627.5690, 5710.000
628.7340, 5783.000
629.9000, 5790.000
631.0650, 5856.000
632.2300, 5886.000
633.3950, 5964.000
634.5600, 5914.000
635.7240, 5951.000
636.8890, 5998.000
638.0530, 5893.000
639.2170, 5885.000
640.3810, 5854.000
641.5450, 5736.000
642.7080, 5734.000
643.8720, 5666.000
645.0350, 5737.000
646.1980, 5592.000
647.3610, 5630.000
648.5240, 5555.000
649.6870, 5539.000
650.8490, 5517.000
652.0120, 5552.000
653.1740, 5441.000
654.3360, 5485.000
655.4980, 5497.000
656.6600, 5440.000
657.8210, 5449.000
658.9830, 5481.000
660.1440, 5546.000
661.3050, 5467.000
662.4660, 5523.000
663.6270, 5528.000
664.7870, 5496.000
665.9480, 5599.000
667.1080, 5602.000
668.2680, 5665.000
669.4280, 5726.000
670.5880, 5729.000
671.7480, 5789.000
672.9070, 5844.000
674.0670, 5898.000
675.2260, 5946.389
676.3850, 5990.000
677.5440, 6041.000
678.7030, 6087.000
679.8610, 6142.000
681.0200, 6233.000
682.1780, 6222.000
683.3360, 6437.000
684.4940, 6512.000
685.6520, 6530.000
686.8090, 6637.000
687.9670, 6575.000
689.1240, 6670.000
690.2810, 6681.680
691.4380, 6760.000
692.5950, 6709.000
693.7520, 6748.000
694.9080, 6724.000
696.0650, 6731.000
697.2210, 6642.000
698.3770, 6527.000
699.5330, 6612.000
700.6880, 6473.000
701.8440, 6442.000
702.9990, 6219.000
704.1550, 6235.000
705.3100, 6087.000
706.4650, 6074.000
707.6190, 6119.000
708.7740, 6007.000
709.9290, 5971.000
711.0830, 6016.000
712.2370, 5969.000
713.3910, 5890.000
714.5450, 5829.000
715.6980, 5686.000
716.8520, 5736.000
718.0050, 5641.000
719.1580, 5532.000
720.3110, 5580.000
721.4640, 5562.000
722.6170, 5455.000
723.7700, 5442.000
724.9220, 5391.000
726.0740, 5379.000
727.2260, 5407.000
728.3780, 5361.000
729.5300, 5318.000
730.6810, 5367.000
731.8330, 5350.000
732.9840, 5264.000
734.1350, 5272.000
735.2860, 5271.000
736.4370, 5434.000
737.5880, 5250.000
738.7380, 5435.000
739.8880, 5387.000
741.0390, 5244.000
742.1890, 5388.000
743.3380, 5319.000
744.4880, 5348.000
745.6380, 5349.975
746.7870, 5411.000
747.9360, 5306.000
749.0850, 5381.000
750.2340, 5375.000
751.3830, 5361.000
752.5310, 5375.000
753.6800, 5499.000
754.8280, 5561.000
755.9760, 5554.000
757.1240, 5586.000
758.2720, 5634.000
759.4190, 5600.000
760.5670, 5747.000
761.7140, 5678.000
762.8610, 5775.000
764.0080, 5786.000
765.1550, 5953.000
766.3020, 5939.000
767.4480, 6026.000
768.5950, 6116.000
769.7410, 6050.000
770.8870, 6173.000
772.0330, 6040.000
773.1780, 6182.000
774.3240, 6055.000
775.4690, 6056.000
776.6140, 6114.000
777.7590, 6100.000
778.9040, 6024.000
780.0490, 5987.000
781.1940, 6088.000
782.3380, 5915.000
783.4820, 6105.000
784.6260, 6023.000
785.7700, 6042.000
786.9140, 6113.000
788.0580, 6082.000
789.2010, 6013.000
790.3450, 5892.000
791.4880, 5962.000
792.6310, 5888.000
793.7730, 5902.000
794.9160, 5931.000
796.0590, 5924.000
797.2010, 5940.524
798.3430, 5989.000
799.4850, 5956.000
800.6270, 6016.000
801.7690, 6033.000
802.9100, 6023.274
804.0520, 6037.134
805.1930, 6015.000
806.3340, 6012.000
807.4750, 6005.000
808.6160, 5985.000
809.7560, 6081.000
810.8970, 6129.000
812.0370, 6110.722
813.1770, 6178.000
814.3170, 6107.000
815.4570, 6085.000
816.5960, 6125.000
817.7360, 6154.000
818.8750, 6149.000
820.0140, 6166.000
821.1530, 6235.000
822.2920, 6349.000
823.4310, 6371.000
824.5690, 6399.000
825.7070, 6457.338
826.8460, 6490.809
827.9840, 6565.000
829.1220, 6580.000
830.2590, 6642.119
831.3970, 6755.000
832.5340, 6746.000
833.6710, 6839.000
834.8080, 6893.000
835.9450, 6986.000
837.0820, 7118.000
838.2190, 7123.000
839.3550, 7240.000
840.4910, 7422.000
841.6270, 7503.000
842.7630, 7675.000
843.8990, 7740.000
845.0350, 7929.058
846.1700, 8049.000
847.3060, 8322.000
848.4410, 8544.000
849.5760, 8806.000
850.7100, 9097.000
851.8450, 9327.000
852.9800, 9739.000
854.1140, 10117.00
855.2480, 10492.00
856.3820, 11043.00
857.5160, 11641.00
858.6500, 12172.00
859.7830, 12757.00
860.9170, 13618.00
862.0500, 14638.00
863.1830, 15519.00
864.3160, 16644.00
865.4480, 17874.00
866.5810, 19553.00
867.7130, 21182.00
868.8460, 23395.00
869.9780, 25605.00
871.1100, 28264.00
872.2410, 31294.00
873.3730, 34595.00
874.5050, 38723.00
875.6360, 42172.00
876.7670, 46447.00
877.8980, 49513.00
879.0290, 52122.00
880.1590, 53366.00
881.2900, 53805.00
882.4200, 52444.00
883.5500, 49699.00
884.6800, 46145.00
885.8100, 41470.00
886.9400, 37284.00
888.0690, 32903.00
889.1990, 28663.00
890.3280, 25133.00
891.4570, 22010.96
892.5860, 19557.00
893.7140, 17133.00
894.8430, 15282.00
895.9710, 13905.00
897.1000, 12511.00
898.2280, 11515.00
899.3560, 10712.00
900.4830, 9897.000
901.6110, 9637.000
902.7380, 8911.000
903.8660, 8467.000
904.9930, 8248.000
906.1200, 7880.000
907.2460, 7675.000
908.3730, 7412.000
909.5000, 7176.000
910.6260, 6972.000
911.7520, 6806.572
912.8780, 6696.000
914.0040, 6572.000
915.1290, 6515.000
916.2550, 6483.000
917.3800, 6460.000
918.5050, 6386.000
919.6300, 6178.000
920.7550, 6102.000
921.8800, 6111.000
923.0040, 6001.000
924.1290, 5965.148
925.2530, 5924.000
926.3770, 5876.000
927.5010, 5847.000
928.6250, 5859.000
929.7480, 5774.000
930.8720, 5839.000
931.9950, 5720.000
933.1180, 5711.000
934.2410, 5709.000
935.3640, 5601.000
936.4860, 5587.000
937.6090, 5634.000
938.7310, 5619.000
939.8530, 5556.000
940.9750, 5584.000
942.0970, 5648.000
943.2180, 5556.000
944.3400, 5553.000
945.4610, 5626.000
946.5820, 5597.000
947.7030, 5537.000
948.8240, 5476.000
949.9450, 5493.533
951.0650, 5499.000
952.1860, 5538.000
953.3060, 5529.000
954.4260, 5573.000
955.5460, 5525.000
956.6650, 5600.000
957.7850, 5466.000
958.9040, 5506.000
960.0230, 5492.000
961.1420, 5541.000
962.2610, 5510.000
963.3800, 5528.000
964.4990, 5444.000
965.6170, 5504.000
966.7350, 5511.000
967.8530, 5468.000
968.9710, 5488.000
970.0890, 5514.000
971.2070, 5522.000
972.3240, 5582.000
973.4410, 5524.000
974.5580, 5522.000
975.6750, 5583.000
976.7920, 5570.000
977.9090, 5576.341
979.0250, 5541.000
980.1410, 5557.000
981.2580, 5589.000
982.3740, 5571.000
983.4890, 5614.000
984.6050, 5524.000
985.7200, 5581.000
986.8360, 5608.000
987.9510, 5521.000
989.0660, 5675.000
990.1810, 5588.000
991.2950, 5634.000
992.4100, 5607.000
993.5240, 5536.000
994.6390, 5590.000
995.7530, 5614.000
996.8660, 5590.000
997.9800, 5564.000
999.0940, 5547.000
1000.207, 5544.235
1001.320, 5537.342
1002.433, 5565.000
1003.546, 5548.000
1004.659, 5589.000
1005.772, 5609.000
1006.884, 5593.000
1007.996, 5537.000
1009.108, 5521.000
1010.220, 5583.000
1011.332, 5543.000
1012.444, 5617.000
1013.555, 5600.425
1014.666, 5520.000
1015.777, 5605.000
1016.888, 5596.000
1017.999, 5631.000
1019.110, 5614.000
1020.220, 5611.210
1021.331, 5590.000
1022.441, 5584.000
1023.551, 5582.000
1024.661, 5580.966
1025.770, 5603.233
1026.880, 5605.000
1027.989, 5625.000
1029.098, 5663.324
1030.207, 5606.000
1031.316, 5594.000
1032.425, 5668.000
1033.533, 5572.000
1034.642, 5609.000
1035.750, 5619.000
1036.858, 5635.000
1037.966, 5633.000
1039.073, 5601.000
1040.181, 5717.000
1041.288, 5579.000
1042.396, 5711.000
1043.503, 5562.000
1044.610, 5583.000
1045.716, 5684.000
1046.823, 5656.000
1047.929, 5719.000
1049.036, 5713.000
1050.142, 5706.000
1051.248, 5678.000
1052.353, 5644.000
1053.459, 5770.000
1054.564, 5758.000
1055.670, 5640.000
1056.775, 5767.000
1057.880, 5714.000
1058.985, 5743.000
1060.089, 5764.000
1061.194, 5761.000
1062.298, 5813.000
1063.402, 5718.000
1064.506, 5757.000
1065.610, 5785.000
1066.713, 5727.000
1067.817, 5743.000
1068.920, 5739.000
1070.023, 5709.000
1071.126, 5757.000
1072.229, 5850.000
1073.332, 5852.000
1074.435, 5794.000
1075.537, 5717.556
1076.639, 5821.616
1077.741, 5879.237
1078.843, 5892.917
1079.945, 5731.042
1081.046, 5795.861
1082.148, 5769.831
1083.249, 5740.077
1084.350, 5836.801
1085.451, 5700.462
1086.551, 5795.184
1087.652, 5797.668
1088.752, 5842.368
1089.853, 5795.658
1090.953, 5777.182
1092.053, 5850.145
1093.152, 5872.479
1094.252, 5815.248
1095.351, 5862.632
1096.451, 5723.102
1097.550, 5747.593
1098.649, 5721.000
1099.748, 5699.000
1100.846, 5698.000
1101.945, 5686.000
1103.043, 5743.000
1104.141, 5721.440
1105.239, 5720.289
1106.337, 5712.000
1107.434, 5628.387
1108.532, 5733.821
1109.629, 5792.819
1110.726, 5807.874
1111.823, 5647.375
1112.920, 5713.568
1114.017, 5688.914
1115.113, 5660.534
1116.210, 5758.633
1117.306, 5623.668
1118.402, 5719.762
1119.498, 5723.622
1120.593, 5769.695
1121.689, 5724.359
1122.784, 5707.257
1123.879, 5781.593
1124.974, 5805.299
1126.069, 5749.441
1127.164, 5798.198
1128.259, 5660.042
1129.353, 5685.904
1130.447, 5782.534
1131.541, 5731.273
1132.635, 5781.702
1133.729, 5793.401
1134.822, 5629.093
1135.916, 5770.880
1137.009, 5780.292
1138.102, 5594.000
1139.195, 5636.000
1140.288, 5592.000
1141.380, 5646.000
1142.473, 5684.000
1143.565, 5730.000
1144.657, 5596.000
1145.749, 5628.000
1146.841, 5625.000
1147.932, 5608.000
1149.024, 5633.941
1150.115, 5616.000
1151.206, 5674.000
1152.297, 5590.000
1153.388, 5633.000
1154.479, 5658.000
1155.569, 5588.000
1156.659, 5563.000
1157.750, 5579.000
1158.839, 5580.000
1159.929, 5644.000
1161.019, 5614.000
1162.108, 5567.000
1163.198, 5612.000
1164.287, 5661.000
1165.376, 5635.000
1166.465, 5625.000
1167.553, 5642.000
1168.642, 5620.000
1169.730, 5589.000
1170.818, 5554.000
1171.906, 5628.000
1172.994, 5539.000
1174.082, 5580.000
1175.170, 5519.000
1176.257, 5595.000
1177.344, 5687.000
1178.431, 5603.000
1179.518, 5527.000
1180.605, 5620.000
1181.691, 5516.000
1182.778, 5656.000
1183.864, 5603.000
1184.950, 5632.000
1186.036, 5584.000
1187.122, 5623.000
1188.207, 5616.000
1189.292, 5587.000
1190.378, 5586.000
1191.463, 5590.000
1192.548, 5565.000
1193.632, 5682.000
1194.717, 5645.000
1195.801, 5633.000
1196.886, 5636.000
1197.970, 5586.000
1199.054, 5630.000
1200.137, 5610.000
1201.221, 5638.000
1202.305, 5640.000
1203.388, 5695.000
1204.471, 5608.000
1205.554, 5566.000
1206.637, 5695.000
1207.719, 5617.000
1208.802, 5612.000
1209.884, 5631.000
1210.966, 5670.000
1212.048, 5694.000
1213.130, 5655.000
1214.212, 5718.000
1215.293, 5657.000
1216.374, 5627.000
1217.456, 5648.000
1218.536, 5745.000
1219.617, 5619.000
1220.698, 5711.000
1221.778, 5712.000
1222.859, 5596.000
1223.939, 5684.000
1225.019, 5697.000
1226.099, 5654.000
1227.178, 5755.000
1228.258, 5707.000
1229.337, 5630.000
1230.417, 5779.000
1231.496, 5697.000
1232.574, 5768.000
1233.653, 5703.000
1234.732, 5726.000
1235.810, 5643.000
1236.888, 5709.000
1237.966, 5671.000
1239.044, 5688.000
1240.122, 5645.000
1241.199, 5699.000
1242.277, 5612.000
1243.354, 5749.000
1244.431, 5743.000
1245.508, 5707.000
1246.585, 5734.000
1247.661, 5706.751
1248.738, 5688.000
1249.814, 5676.000
1250.890, 5643.000
1251.966, 5615.000
1253.042, 5639.000
1254.117, 5639.280
1255.193, 5721.000
1256.268, 5671.000
1257.343, 5652.000
1258.418, 5626.000
1259.493, 5717.000
1260.567, 5808.000
1261.642, 5714.000
1262.716, 5755.000
1263.790, 5704.000
1264.864, 5697.000
1265.938, 5613.000
1267.011, 5719.000
1268.085, 5641.000
1269.158, 5726.000
1270.231, 5716.000
1271.304, 5657.000
1272.377, 5761.000
1273.450, 5714.989
1274.522, 5660.000
1275.594, 5728.000
1276.666, 5704.000
1277.738, 5738.000
1278.810, 5634.000
1279.882, 5710.000
1280.953, 5654.000
1282.025, 5654.000
1283.096, 5731.000
1284.167, 5738.000
1285.238, 5759.000
1286.308, 5697.000
1287.379, 5757.000
1288.449, 5717.000
1289.519, 5732.000
1290.589, 5735.000
1291.659, 5718.000
1292.729, 5709.000
1293.798, 5692.000
1294.868, 5689.000
1295.937, 5780.000
1297.006, 5759.000
1298.075, 5802.177
1299.143, 5814.190
1300.212, 5823.000
1301.280, 5799.000
1302.348, 5734.000
1303.416, 5677.000
1304.484, 5693.000
1305.552, 5646.000
1306.620, 5711.000
1307.687, 5805.000
1308.754, 5741.000
1309.821, 5716.000
1310.888, 5658.000
1311.955, 5645.121
1313.021, 5670.000
1314.088, 5657.000
1315.154, 5687.000
1316.220, 5690.798
1317.286, 5736.000
1318.352, 5698.000
1319.417, 5736.000
1320.483, 5718.000
1321.548, 5746.000
1322.613, 5788.000
1323.678, 5764.708
1324.743, 5640.000
1325.807, 5742.000
1326.872, 5748.000
1327.936, 5729.000
1329.000, 5818.000
1330.064, 5785.416
1331.128, 5787.000
1332.191, 5766.000
1333.255, 5809.000
1334.318, 5773.000
1335.381, 5756.000
1336.444, 5711.000
1337.507, 5690.000
1338.569, 5764.000
1339.632, 5751.000
1340.694, 5853.000
1341.756, 5796.000
1342.818, 5816.040
1343.880, 5736.000
1344.941, 5782.000
1346.003, 5789.000
1347.064, 5747.000
1348.125, 5771.000
1349.186, 5793.000
1350.247, 5839.000
1351.308, 5694.000
1352.368, 5806.000
1353.428, 5775.000
1354.489, 5853.000
1355.549, 5772.000
1356.608, 5758.000
1357.668, 5828.000
1358.727, 5759.000
1359.787, 5840.000
1360.846, 5773.000
1361.905, 5808.000
1362.964, 5786.000
1364.022, 5789.000
1365.081, 5792.000
1366.139, 5805.000
1367.197, 5778.000
1368.255, 5840.000
1369.313, 5779.000
1370.371, 5765.000
1371.428, 5788.000
1372.486, 5706.000
1373.543, 5798.000
1374.600, 5831.000
1375.657, 5778.000
1376.713, 5837.000
1377.770, 5738.000
1378.826, 5718.000
1379.882, 5694.000
1380.938, 5781.000
1381.994, 5830.000
1383.050, 5792.000
1384.106, 5813.000
1385.161, 5814.226
1386.216, 5736.000
1387.271, 5800.000
1388.326, 5792.000
1389.381, 5758.000
1390.435, 5725.000
1391.490, 5695.000
1392.544, 5726.000
1393.598, 5823.000
1394.652, 5729.000
1395.705, 5849.000
1396.759, 5717.000
1397.812, 5754.000
1398.866, 5815.000
1399.919, 5767.000
1400.972, 5767.000
1402.024, 5797.000
1403.077, 5754.000
1404.129, 5827.000
1405.181, 5820.000
1406.233, 5782.000
1407.285, 5837.000
1408.337, 5708.000
1409.389, 5734.000
1410.440, 5767.000
1411.491, 5770.000
1412.542, 5793.000
1413.593, 5867.000
1414.644, 5855.000
1415.695, 5745.000
1416.745, 5839.000
1417.795, 5814.000
1418.845, 5741.000
1419.895, 5816.000
1420.945, 5894.000
1421.995, 5839.000
1423.044, 5871.270
1424.093, 5814.525
1425.142, 5873.000
1426.191, 5737.000
1427.240, 5825.000
1428.289, 5929.000
1429.337, 5858.000
1430.385, 5852.000
1431.433, 5983.000
1432.481, 5985.000
1433.529, 5815.000
1434.577, 5861.000
1435.624, 5817.000
1436.672, 5862.000
1437.719, 5936.000
1438.766, 5949.000
1439.812, 5979.029
1440.859, 5974.000
1441.905, 5982.000
1442.952, 5954.000
1443.998, 5909.000
1445.044, 5859.000
1446.090, 5883.000
1447.135, 5928.000
1448.181, 5876.000
1449.226, 5883.000
1450.271, 5986.000
1451.316, 5940.000
1452.361, 5971.000
1453.405, 5901.000
1454.450, 5932.000
1455.494, 5921.000
1456.538, 5916.000
1457.582, 5882.000
1458.626, 5966.000
1459.670, 5861.000
1460.713, 5956.000
1461.757, 5897.000
1462.800, 5985.000
1463.843, 5939.000
1464.886, 5972.000
1465.928, 5968.000
1466.971, 5988.000
1468.013, 5963.066
1469.055, 5876.000
1470.097, 5920.000
1471.139, 5899.000
1472.181, 5919.000
1473.222, 5920.000
1474.263, 5940.000
1475.305, 5898.000
1476.346, 5880.000
1477.386, 6025.000
1478.427, 5845.000
1479.468, 5982.000
1480.508, 5916.000
1481.548, 5896.000
1482.588, 5950.000
1483.628, 5911.000
1484.668, 5930.933
1485.707, 5958.000
1486.747, 5944.000
1487.786, 5922.000
1488.825, 5929.000
1489.864, 5887.420
1490.902, 5884.108
1491.941, 5845.000
1492.979, 5879.000
1494.017, 5927.000
1495.055, 5974.000
1496.093, 5921.000
1497.131, 5915.000
1498.168, 5942.939
1499.206, 5936.305
1500.243, 6000.000
1501.280, 5934.000
1502.317, 5982.000
1503.354, 5886.000
1504.390, 5986.000
1505.426, 5951.000
1506.463, 5958.000
1507.499, 6014.000
1508.535, 5916.000
1509.570, 5932.000
1510.606, 6032.000
1511.641, 5992.000
1512.676, 5989.000
1513.711, 5909.000
1514.746, 5952.000
1515.781, 5925.000
1516.816, 5929.000
1517.850, 5895.000
1518.884, 6012.000
1519.918, 6000.000
1520.952, 5976.000
1521.986, 5945.000
1523.019, 5937.272
1524.053, 5934.926
1525.086, 5939.000
1526.119, 5938.000
1527.152, 5996.000
1528.185, 5976.000
1529.217, 5993.000
1530.250, 6056.000
1531.282, 5944.000
1532.314, 5974.000
1533.346, 5990.000
1534.377, 6033.000
1535.409, 6040.000
1536.440, 6052.000
1537.472, 6019.000
1538.503, 6048.000
1539.534, 6084.000
1540.564, 5967.000
1541.595, 6021.000
1542.625, 6045.000
1543.656, 5976.000
1544.686, 6113.000
1545.716, 5967.000
1546.745, 5929.286
1547.775, 6038.814
1548.804, 6101.901
1549.834, 6121.050
1550.863, 5964.641
1551.892, 6034.923
1552.920, 6014.355
1553.949, 5990.064
1554.977, 6092.250
1556.006, 5961.375
1557.034, 6061.555
1558.062, 6069.500
1559.089, 6119.655
1560.117, 6078.405
1561.144, 6065.386
1562.172, 6143.807
1563.199, 6171.595
1564.226, 6119.819
1565.252, 6172.655
1566.279, 6078.000
1567.305, 6127.000
1568.332, 5648.295
1569.358, 5964.054
1570.384, 6233.370
1571.409, 6458.539
1572.435, 6508.348
##END=



