##NAMES=Ferberite
##RRUFFID=R050632
##IDEAL CHEMISTRY=Fe^2+^W^6+^O_4_
##LOCALITY=Chance mine, Boulder, Colorado, USA
##OWNER=RRUFF
##SOURCE=University of Arizona Mineral Museum
##DESCRIPTION=Dark brown rectangular prismatic crystals
##STATUS=The identification of this mineral has been confirmed by X-ray diffraction and chemical analysis
##URL=rruff.info/R050632
##MEASURED CHEMISTRY=Fe^2+^_1.00_WO_4_
##PIN_ID=M00461
##ORIENTATION=Laser parallel to b* (0 1 0). Fiducial mark perpendicular to laser is parallel to c [0 0 1]
157.4550, 35509.00
158.6810, 35546.00
159.9080, 35434.44
161.1340, 36172.00
162.3590, 35469.00
163.5850, 36364.00
164.8110, 36774.00
166.0360, 36419.00
167.2610, 35976.00
168.4860, 36010.00
169.7110, 36279.00
170.9360, 36517.00
172.1610, 36189.00
173.3850, 36237.54
174.6100, 36111.00
175.8340, 35973.00
177.0580, 36154.00
178.2820, 36323.00
179.5050, 36265.00
180.7290, 36491.00
181.9520, 36223.00
183.1760, 36612.00
184.3990, 36422.00
185.6220, 36690.00
186.8450, 36797.00
188.0670, 36973.00
189.2900, 37166.76
190.5120, 37313.00
191.7340, 37553.00
192.9560, 37685.00
194.1780, 37945.00
195.4000, 38086.11
196.6220, 38488.00
197.8430, 38422.00
199.0640, 38941.00
200.2860, 39201.00
201.5070, 39917.00
202.7270, 40284.00
203.9480, 40333.00
205.1690, 39251.00
206.3890, 38637.00
207.6090, 38613.00
208.8290, 38942.00
210.0490, 38834.00
211.2690, 38767.00
212.4890, 38832.00
213.7080, 38433.00
214.9280, 37947.00
216.1470, 37243.00
217.3660, 37055.00
218.5850, 37002.00
219.8030, 36807.00
221.0220, 36453.00
222.2400, 36424.00
223.4590, 36383.00
224.6770, 36401.00
225.8950, 36333.02
227.1120, 36302.04
228.3300, 36221.00
229.5480, 36210.00
230.7650, 36147.00
231.9820, 36114.00
233.1990, 36129.28
234.4160, 36172.11
235.6330, 36241.00
236.8490, 36250.00
238.0660, 36463.00
239.2820, 36336.00
240.4980, 36284.00
241.7140, 36333.62
242.9300, 36464.42
244.1460, 36548.16
245.3610, 36587.35
246.5770, 36448.67
247.7920, 36539.68
249.0070, 36538.63
250.2220, 36533.81
251.4370, 36657.16
252.6510, 36544.31
253.8660, 36665.62
255.0800, 36693.45
256.2940, 36764.05
257.5080, 36742.03
258.7220, 36748.61
259.9360, 36847.86
261.1490, 36895.78
262.3630, 36863.09
263.5760, 36936.39
264.7890, 36820.29
266.0020, 36870.40
267.2150, 36992.21
268.4270, 36964.14
269.6400, 37039.14
270.8520, 37074.88
272.0640, 36932.25
273.2760, 37099.81
274.4880, 37133.22
275.7000, 37028.90
276.9120, 37185.83
278.1230, 37100.48
279.3340, 37101.60
280.5450, 37167.79
281.7560, 37166.15
282.9670, 37271.46
284.1780, 37273.74
285.3880, 37184.09
286.5980, 37357.89
287.8090, 37484.70
289.0190, 37566.92
290.2290, 37471.24
291.4380, 37605.22
292.6480, 37647.20
293.8570, 37685.35
295.0670, 37851.72
296.2760, 37781.86
297.4850, 37946.14
298.6930, 38016.91
299.9020, 38130.50
301.1110, 38151.47
302.3190, 38200.99
303.5270, 38343.17
304.7350, 38288.00
305.9430, 38353.00
307.1510, 38783.00
308.3580, 38596.00
309.5660, 38782.00
310.7730, 39110.00
311.9800, 38888.00
313.1870, 39421.00
314.3940, 39434.00
315.6010, 39681.00
316.8070, 40122.00
318.0130, 40398.00
319.2200, 40799.00
320.4260, 41084.00
321.6310, 41642.97
322.8370, 42114.10
324.0430, 42791.00
325.2480, 43154.00
326.4540, 43694.00
327.6590, 44052.00
328.8640, 44180.00
330.0680, 44365.00
331.2730, 44021.00
332.4780, 43653.00
333.6820, 43228.00
334.8860, 42769.00
336.0900, 42370.00
337.2940, 42036.00
338.4980, 41856.00
339.7010, 41563.00
340.9050, 41240.00
342.1080, 41179.00
343.3110, 40830.00
344.5140, 40697.00
345.7170, 40556.00
346.9200, 40349.91
348.1220, 40310.25
349.3240, 40110.00
350.5270, 40168.00
351.7290, 40178.00
352.9310, 40037.00
354.1320, 39989.00
355.3340, 39697.00
356.5350, 39894.00
357.7370, 39783.00
358.9380, 39754.60
360.1390, 39877.53
361.3400, 39676.00
362.5400, 39974.00
363.7410, 39826.00
364.9410, 39717.00
366.1410, 39703.00
367.3410, 39762.00
368.5410, 39657.00
369.7410, 39917.00
370.9400, 40303.00
372.1400, 39716.00
373.3390, 39524.00
374.5380, 39757.00
375.7370, 39513.00
376.9360, 39758.00
378.1350, 39791.00
379.3330, 39858.00
380.5310, 39690.00
381.7300, 39964.00
382.9280, 39791.00
384.1260, 39936.00
385.3230, 39843.00
386.5210, 39938.00
387.7180, 39992.00
388.9160, 40084.00
390.1130, 40057.00
391.3100, 40167.00
392.5060, 39983.00
393.7030, 40058.00
394.9000, 40058.00
396.0960, 40080.00
397.2920, 40236.00
398.4880, 40365.00
399.6840, 40339.59
400.8800, 40421.00
402.0750, 40284.00
403.2710, 40293.62
404.4660, 40427.23
405.6610, 40513.79
406.8560, 40555.82
408.0510, 40419.95
409.2450, 40513.78
410.4400, 40515.57
411.6340, 40513.56
412.8280, 40639.72
414.0220, 40529.70
415.2160, 40653.83
416.4100, 40684.49
417.6030, 40757.91
418.7970, 40738.71
419.9900, 40748.11
421.1830, 40850.17
422.3760, 40900.92
423.5690, 40871.04
424.7610, 40947.15
425.9540, 40833.88
427.1460, 40886.79
428.3380, 41011.42
429.5300, 40986.18
430.7220, 41063.98
431.9140, 41102.54
433.1050, 40962.72
434.2970, 41133.11
435.4880, 41169.33
436.6790, 41067.81
437.8700, 41227.55
439.0610, 41145.02
440.2510, 41148.94
441.4420, 41217.96
442.6320, 41219.12
443.8220, 41327.24
445.0120, 41332.32
446.2020, 41328.19
447.3910, 41364.21
448.5810, 41286.41
449.7700, 41419.80
450.9600, 41408.93
452.1490, 41469.76
453.3370, 41546.82
454.5260, 41499.45
455.7150, 41583.83
456.9030, 41463.86
458.0910, 41514.86
459.2800, 41402.00
460.4670, 41785.00
461.6550, 41543.00
462.8430, 41462.00
464.0300, 41793.00
465.2180, 41622.00
466.4050, 41803.00
467.5920, 41639.00
468.7790, 41884.00
469.9650, 41708.00
471.1520, 41891.00
472.3380, 41833.00
473.5250, 41839.46
474.7110, 41928.00
475.8970, 41869.00
477.0820, 41849.00
478.2680, 41861.50
479.4540, 42003.00
480.6390, 42167.00
481.8240, 42305.00
483.0090, 42566.00
484.1940, 42341.00
485.3780, 42204.00
486.5630, 42669.00
487.7470, 42620.00
488.9320, 42296.00
490.1160, 42502.00
491.3000, 42455.00
492.4830, 42653.00
493.6670, 42529.00
494.8500, 42662.00
496.0340, 42611.00
497.2170, 42903.00
498.4000, 42567.00
499.5820, 43008.00
500.7650, 42848.00
501.9480, 43224.00
503.1300, 43566.00
504.3120, 42938.00
505.4940, 42971.00
506.6760, 43122.00
507.8580, 43036.00
509.0390, 42974.00
510.2210, 43242.00
511.4020, 43094.00
512.5830, 43360.00
513.7640, 43308.00
514.9450, 43355.00
516.1250, 43310.00
517.3060, 43586.00
518.4860, 43600.00
519.6660, 43463.00
520.8460, 43381.00
522.0260, 43663.00
523.2060, 43672.00
524.3850, 43612.00
525.5650, 43539.00
526.7440, 43471.00
527.9230, 43602.00
529.1020, 43542.00
530.2810, 43656.00
531.4590, 43367.00
532.6380, 43678.00
533.8160, 43553.00
534.9940, 43520.00
536.1720, 43639.00
537.3500, 43651.00
538.5270, 43763.00
539.7050, 43516.00
540.8820, 44145.00
542.0590, 43876.00
543.2360, 44200.00
544.4130, 43943.00
545.5900, 43958.00
546.7660, 44091.00
547.9430, 44053.00
549.1190, 44153.00
550.2950, 44276.00
551.4710, 44135.00
552.6470, 44177.00
553.8220, 44213.00
554.9980, 44228.00
556.1730, 44240.00
557.3480, 44254.81
558.5230, 44282.00
559.6980, 44284.00
560.8730, 44582.00
562.0470, 44655.00
563.2220, 44729.00
564.3960, 44669.00
565.5700, 44311.00
566.7440, 44540.00
567.9170, 44378.00
569.0910, 44463.00
570.2640, 44608.00
571.4380, 44458.00
572.6110, 44454.00
573.7840, 44281.00
574.9570, 44136.00
576.1290, 44340.00
577.3020, 43971.00
578.4740, 44049.00
579.6460, 43842.00
580.8180, 43845.00
581.9900, 43734.00
583.1620, 43751.00
584.3330, 43524.00
585.5040, 43281.00
586.6760, 43262.00
587.8470, 43197.00
589.0180, 43393.00
590.1880, 43202.00
591.3590, 43446.00
592.5290, 43335.70
593.7000, 43349.65
594.8700, 43165.00
596.0400, 43372.00
597.2090, 43236.00
598.3790, 43289.00
599.5490, 43132.00
600.7180, 43354.00
601.8870, 43017.00
603.0560, 43466.00
604.2250, 43166.00
605.3940, 43693.00
606.5620, 43832.00
607.7300, 43354.00
608.8990, 43488.00
610.0670, 43545.00
611.2350, 43232.00
612.4020, 43397.00
613.5700, 43457.00
614.7370, 43258.00
615.9050, 43500.00
617.0720, 43383.00
618.2390, 43262.00
619.4060, 43650.00
620.5720, 43279.00
621.7390, 43258.00
622.9050, 43388.00
624.0710, 43446.00
625.2370, 43594.00
626.4030, 43566.91
627.5690, 43515.00
628.7340, 43481.00
629.9000, 43520.00
631.0650, 43421.00
632.2300, 43305.00
633.3950, 43692.00
634.5600, 43747.00
635.7240, 43726.00
636.8890, 43693.00
638.0530, 43492.00
639.2170, 43407.00
640.3810, 43830.00
641.5450, 43423.00
642.7080, 43804.00
643.8720, 43581.00
645.0350, 43676.00
646.1980, 43561.00
647.3610, 43597.00
648.5240, 43595.00
649.6870, 43881.00
650.8490, 43639.00
652.0120, 43657.00
653.1740, 43989.00
654.3360, 43813.33
655.4980, 43888.00
656.6600, 43819.00
657.8210, 43722.00
658.9830, 43717.00
660.1440, 43664.00
661.3050, 43688.31
662.4660, 43708.48
663.6270, 43772.00
664.7870, 43831.00
665.9480, 43878.14
667.1080, 43950.61
668.2680, 44042.00
669.4280, 44075.00
670.5880, 44143.00
671.7480, 44179.00
672.9070, 44602.00
674.0670, 44541.00
675.2260, 44532.00
676.3850, 44630.00
677.5440, 44443.00
678.7030, 44740.00
679.8610, 45110.00
681.0200, 44866.00
682.1780, 45089.00
683.3360, 45285.00
684.4940, 45163.00
685.6520, 45249.00
686.8090, 45061.00
687.9670, 45331.00
689.1240, 45421.00
690.2810, 45332.00
691.4380, 45270.00
692.5950, 45215.00
693.7520, 45143.58
694.9080, 44991.00
696.0650, 44990.00
697.2210, 44839.00
698.3770, 44687.00
699.5330, 44723.00
700.6880, 44458.00
701.8440, 44428.00
702.9990, 44631.00
704.1550, 44244.00
705.3100, 44544.00
706.4650, 44488.00
707.6190, 44183.00
708.7740, 44263.00
709.9290, 44494.00
711.0830, 44207.00
712.2370, 44238.00
713.3910, 44025.00
714.5450, 44463.00
715.6980, 44003.00
716.8520, 44261.00
718.0050, 44024.00
719.1580, 44199.00
720.3110, 44269.00
721.4640, 44300.00
722.6170, 43924.00
723.7700, 43979.00
724.9220, 43993.00
726.0740, 44098.00
727.2260, 44081.00
728.3780, 44191.00
729.5300, 44275.00
730.6810, 44073.00
731.8330, 44334.00
732.9840, 44453.00
734.1350, 44213.00
735.2860, 44351.00
736.4370, 44181.00
737.5880, 44417.00
738.7380, 44393.00
739.8880, 44381.52
741.0390, 44413.64
742.1890, 44352.00
743.3380, 44340.00
744.4880, 44277.00
745.6380, 44264.00
746.7870, 44277.17
747.9360, 44453.00
749.0850, 44324.00
750.2340, 44449.00
751.3830, 44477.00
752.5310, 44514.00
753.6800, 44676.00
754.8280, 44487.00
755.9760, 44611.00
757.1240, 44750.00
758.2720, 44551.00
759.4190, 44646.00
760.5670, 44507.00
761.7140, 44649.00
762.8610, 44736.00
764.0080, 44520.00
765.1550, 44621.00
766.3020, 44567.00
767.4480, 44728.00
768.5950, 44756.00
769.7410, 44589.00
770.8870, 44691.57
772.0330, 44897.00
773.1780, 44725.00
774.3240, 44644.00
775.4690, 44745.00
776.6140, 44499.00
777.7590, 44555.00
778.9040, 44576.00
780.0490, 44609.00
781.1940, 44741.00
782.3380, 44779.00
783.4820, 44842.00
784.6260, 44776.00
785.7700, 44635.00
786.9140, 44979.00
788.0580, 44852.00
789.2010, 44788.00
790.3450, 44959.00
791.4880, 44905.00
792.6310, 44765.00
793.7730, 44724.00
794.9160, 44767.00
796.0590, 44888.00
797.2010, 44819.00
798.3430, 44802.00
799.4850, 44865.00
800.6270, 44797.00
801.7690, 44882.00
802.9100, 44876.21
804.0520, 44761.00
805.1930, 44881.00
806.3340, 44865.00
807.4750, 44810.52
808.6160, 44941.80
809.7560, 44883.00
810.8970, 45048.00
812.0370, 45180.00
813.1770, 45077.00
814.3170, 45132.00
815.4570, 45053.00
816.5960, 45019.00
817.7360, 45142.00
818.8750, 45132.00
820.0140, 44984.00
821.1530, 45093.00
822.2920, 45234.00
823.4310, 45173.98
824.5690, 45443.00
825.7070, 45288.00
826.8460, 45291.00
827.9840, 45522.00
829.1220, 45466.00
830.2590, 45247.00
831.3970, 45244.00
832.5340, 45450.00
833.6710, 45667.00
834.8080, 45802.00
835.9450, 45872.05
837.0820, 45638.00
838.2190, 45927.00
839.3550, 45715.00
840.4910, 45734.00
841.6270, 45740.00
842.7630, 45990.00
843.8990, 46135.00
845.0350, 46246.49
846.1700, 46315.00
847.3060, 46463.00
848.4410, 46511.00
849.5760, 46491.00
850.7100, 46885.00
851.8450, 46738.00
852.9800, 47349.00
854.1140, 47349.00
855.2480, 47613.00
856.3820, 47931.00
857.5160, 48150.00
858.6500, 48438.00
859.7830, 48852.00
860.9170, 49564.00
862.0500, 49683.00
863.1830, 50451.00
864.3160, 51047.00
865.4480, 51553.00
866.5810, 52733.00
867.7130, 53737.00
868.8460, 54841.00
869.9780, 56147.00
871.1100, 57475.00
872.2410, 58900.00
873.3730, 60089.00
874.5050, 60898.00
875.6360, 61830.00
876.7670, 61673.00
877.8980, 61446.00
879.0290, 61009.00
880.1590, 59719.00
881.2900, 58730.37
882.4200, 58609.00
883.5500, 56071.00
884.6800, 54601.00
885.8100, 53759.00
886.9400, 52566.00
888.0690, 52081.00
889.1990, 51453.00
890.3280, 50663.00
891.4570, 50175.00
892.5860, 49678.67
893.7140, 49568.00
894.8430, 48902.00
895.9710, 48814.00
897.1000, 48508.00
898.2280, 48202.00
899.3560, 48353.00
900.4830, 47815.00
901.6110, 47842.00
902.7380, 47781.00
903.8660, 47621.00
904.9930, 47551.00
906.1200, 47461.00
907.2460, 47404.00
908.3730, 47218.00
909.5000, 47079.00
910.6260, 47257.00
911.7520, 47315.00
912.8780, 47028.00
914.0040, 47089.00
915.1290, 47296.00
916.2550, 47198.00
917.3800, 47089.00
918.5050, 46945.00
919.6300, 47030.00
920.7550, 46956.00
921.8800, 46864.00
923.0040, 46960.00
924.1290, 46782.00
925.2530, 46843.00
926.3770, 46754.00
927.5010, 46950.00
928.6250, 46942.00
929.7480, 46814.00
930.8720, 46874.10
931.9950, 46861.82
933.1180, 46876.00
934.2410, 46891.00
935.3640, 47088.00
936.4860, 47042.00
937.6090, 47071.81
938.7310, 47037.00
939.8530, 46985.00
940.9750, 47049.00
942.0970, 46915.00
943.2180, 46985.00
944.3400, 47260.00
945.4610, 46884.00
946.5820, 47271.00
947.7030, 47217.00
948.8240, 46984.00
949.9450, 46951.00
951.0650, 47165.00
952.1860, 47373.00
953.3060, 47081.00
954.4260, 46993.00
955.5460, 47363.00
956.6650, 47193.00
957.7850, 47132.00
958.9040, 47280.00
960.0230, 47161.00
961.1420, 47086.00
962.2610, 47436.00
963.3800, 47640.00
964.4990, 47188.00
965.6170, 47100.00
966.7350, 47195.00
967.8530, 47378.00
968.9710, 47473.00
970.0890, 47432.02
971.2070, 47369.00
972.3240, 47334.00
973.4410, 47312.00
974.5580, 47368.00
975.6750, 47308.00
976.7920, 47381.00
977.9090, 47642.00
979.0250, 47216.00
980.1410, 47634.00
981.2580, 47627.00
982.3740, 47564.00
983.4890, 47345.00
984.6050, 47520.00
985.7200, 47440.00
986.8360, 47228.00
987.9510, 47795.00
989.0660, 47793.00
990.1810, 47713.00
991.2950, 47723.00
992.4100, 47513.00
993.5240, 47441.00
994.6390, 47547.00
995.7530, 47735.00
996.8660, 47802.00
997.9800, 47855.03
999.0940, 47565.00
1000.207, 47902.00
1001.320, 47652.00
1002.433, 47674.09
1003.546, 47605.00
1004.659, 47459.00
1005.772, 47749.00
1006.884, 47738.00
1007.996, 47922.00
1009.108, 47673.00
1010.220, 47889.00
1011.332, 47835.00
1012.444, 47753.00
1013.555, 47813.00
1014.666, 47895.00
1015.777, 48001.00
1016.888, 48122.00
1017.999, 47714.00
1019.110, 47958.00
1020.220, 47844.00
1021.331, 48062.00
1022.441, 47885.00
1023.551, 48023.00
1024.661, 47932.00
1025.770, 47753.00
1026.880, 47808.00
1027.989, 48174.00
1029.098, 47886.00
1030.207, 48135.00
1031.316, 47891.00
1032.425, 48032.00
1033.533, 47979.00
1034.642, 48021.00
1035.750, 48116.00
1036.858, 47997.00
1037.966, 48158.00
1039.073, 48456.00
1040.181, 48186.00
1041.288, 48921.00
1042.396, 48563.00
1043.503, 48562.00
1044.610, 48116.00
1045.716, 48222.00
1046.823, 48139.00
1047.929, 48654.00
1049.036, 48380.00
1050.142, 48270.00
1051.248, 48367.00
1052.353, 48293.00
1053.459, 48557.00
1054.564, 48409.00
1055.670, 48495.00
1056.775, 48630.00
1057.880, 48507.09
1058.985, 48381.00
1060.089, 48446.00
1061.194, 48672.00
1062.298, 48762.00
1063.402, 48819.00
1064.506, 48776.00
1065.610, 48501.00
1066.713, 48441.00
1067.817, 48484.00
1068.920, 48710.00
1070.023, 48629.00
1071.126, 48519.00
1072.229, 48750.00
1073.332, 48749.00
1074.435, 48723.00
1075.537, 48834.00
1076.639, 48686.00
1077.741, 48683.00
1078.843, 48490.00
1079.945, 48728.00
1081.046, 48765.00
1082.148, 48748.00
1083.249, 48819.00
1084.350, 49005.00
1085.451, 48679.00
1086.551, 48697.00
1087.652, 48682.00
1088.752, 48824.00
1089.853, 48683.00
1090.953, 48468.00
1092.053, 48649.00
1093.152, 48647.00
1094.252, 48980.00
1095.351, 48508.00
1096.451, 48633.00
1097.550, 48537.00
1098.649, 48433.00
1099.748, 48465.00
1100.846, 48561.00
1101.945, 48620.00
1103.043, 48556.00
1104.141, 48566.00
1105.239, 48564.69
1106.337, 48579.00
1107.434, 48521.00
1108.532, 48627.00
1109.629, 48551.00
1110.726, 48599.00
1111.823, 48608.00
1112.920, 48365.00
1114.017, 48430.00
1115.113, 48402.00
1116.210, 48241.00
1117.306, 48503.00
1118.402, 48134.00
1119.498, 48343.00
1120.593, 48506.00
1121.689, 48425.00
1122.784, 48563.00
1123.879, 48530.00
1124.974, 48411.00
1126.069, 48458.00
1127.164, 48302.00
1128.259, 48379.00
1129.353, 48267.00
1130.447, 48218.00
1131.541, 47974.00
1132.635, 48282.00
1133.729, 48249.00
1134.822, 47972.00
1135.916, 48069.00
1137.009, 47946.00
1138.102, 47905.19
1139.195, 48082.00
1140.288, 47987.00
1141.380, 47898.00
1142.473, 48172.00
1143.565, 48017.00
1144.657, 47989.00
1145.749, 48312.00
1146.841, 47880.00
1147.932, 47833.00
1149.024, 47940.00
1150.115, 47775.00
1151.206, 47849.00
1152.297, 47886.00
1153.388, 47940.00
1154.479, 47901.00
1155.569, 48043.00
1156.659, 48005.00
1157.750, 48065.00
1158.839, 47821.00
1159.929, 47822.00
1161.019, 47948.00
1162.108, 47603.00
1163.198, 47752.00
1164.287, 47903.00
1165.376, 48152.00
1166.465, 47898.00
1167.553, 47958.00
1168.642, 47857.00
1169.730, 47673.00
1170.818, 47992.00
1171.906, 47868.00
1172.994, 47958.00
1174.082, 47944.00
1175.170, 47993.00
1176.257, 47662.00
1177.344, 47720.00
1178.431, 47717.00
1179.518, 47686.00
1180.605, 47704.00
1181.691, 48003.00
1182.778, 47895.00
1183.864, 48157.00
1184.950, 47927.00
1186.036, 47637.00
1187.122, 47869.00
1188.207, 47689.00
1189.292, 48274.00
1190.378, 47704.00
1191.463, 47920.00
1192.548, 47868.00
1193.632, 47789.00
1194.717, 47744.00
1195.801, 47840.00
1196.886, 47864.00
1197.970, 47909.00
1199.054, 47781.00
1200.137, 47988.00
1201.221, 47733.00
1202.305, 47749.00
1203.388, 47663.00
1204.471, 47693.00
1205.554, 47502.00
1206.637, 47781.00
1207.719, 47886.00
1208.802, 47742.00
1209.884, 47545.00
1210.966, 47698.00
1212.048, 47728.00
1213.130, 47665.00
1214.212, 47727.00
1215.293, 47910.00
1216.374, 47596.00
1217.456, 47827.00
1218.536, 47629.00
1219.617, 47708.00
1220.698, 47925.00
1221.778, 47819.00
1222.859, 47801.00
1223.939, 47972.00
1225.019, 47746.00
1226.099, 47915.00
1227.178, 47907.00
1228.258, 47821.00
1229.337, 47860.77
1230.417, 47611.00
1231.496, 47754.00
1232.574, 47618.00
1233.653, 47508.00
1234.732, 47923.00
1235.810, 47674.00
1236.888, 47825.00
1237.966, 47767.00
1239.044, 47692.00
1240.122, 47566.00
1241.199, 47310.00
1242.277, 47669.00
1243.354, 47662.00
1244.431, 47909.00
1245.508, 47520.00
1246.585, 47738.21
1247.661, 47842.12
1248.738, 47898.97
1249.814, 47911.29
1250.890, 47745.71
1251.966, 47809.86
1253.042, 47781.94
1254.117, 47750.25
1255.193, 47846.73
1256.268, 47707.03
1257.343, 47801.48
1258.418, 47802.46
1259.493, 47846.21
1260.567, 47797.35
1261.642, 47777.09
1262.716, 47849.49
1263.790, 47870.58
1264.864, 47811.05
1265.938, 47857.53
1267.011, 47714.61
1268.085, 47737.89
1269.158, 47832.88
1270.231, 47778.01
1271.304, 47826.19
1272.377, 47835.12
1273.450, 47665.69
1274.522, 47806.45
1275.594, 47813.07
1276.666, 47681.95
1277.738, 47812.08
1278.810, 47699.95
1279.882, 47674.29
1280.953, 47713.71
1282.025, 47685.29
1283.096, 47763.82
1284.167, 47739.32
1285.238, 47818.00
1286.308, 47698.00
1287.379, 47753.00
1288.449, 47874.00
1289.519, 47693.00
1290.589, 48019.00
1291.659, 47590.00
1292.729, 47783.00
1293.798, 47899.00
1294.868, 47822.00
1295.937, 47982.00
1297.006, 47984.00
1298.075, 48043.01
1299.143, 48014.00
1300.212, 48107.00
1301.280, 48067.00
1302.348, 47941.00
1303.416, 48223.00
1304.484, 48040.00
1305.552, 47667.00
1306.620, 48738.00
1307.687, 48352.00
1308.754, 48091.00
1309.821, 47909.00
1310.888, 48311.00
1311.955, 48028.00
1313.021, 47967.00
1314.088, 47943.00
1315.154, 47875.00
1316.220, 47735.00
1317.286, 47819.82
1318.352, 48195.00
1319.417, 48053.00
1320.483, 48014.00
1321.548, 48352.00
1322.613, 47945.00
1323.678, 48299.00
1324.743, 47749.00
1325.807, 48302.00
1326.872, 48079.00
1327.936, 48316.00
1329.000, 48126.00
1330.064, 48047.00
1331.128, 48108.00
1332.191, 48201.00
1333.255, 48359.00
1334.318, 48103.00
1335.381, 48010.00
1336.444, 48069.00
1337.507, 47806.00
1338.569, 48234.00
1339.632, 48327.00
1340.694, 48162.00
1341.756, 47713.00
1342.818, 48040.00
1343.880, 48038.00
1344.941, 48293.00
1346.003, 48296.90
1347.064, 48181.00
1348.125, 48354.00
1349.186, 48299.00
1350.247, 48488.33
1351.308, 48457.60
1352.368, 48438.00
1353.428, 48419.00
1354.489, 48079.00
1355.549, 48006.00
1356.608, 48365.00
1357.668, 48071.00
1358.727, 48221.00
1359.787, 48104.00
1360.846, 48261.00
1361.905, 47944.00
1362.964, 48370.00
1364.022, 48259.00
1365.081, 48187.00
1366.139, 48321.00
1367.197, 48207.18
1368.255, 48186.00
1369.313, 48159.00
1370.371, 48113.06
1371.428, 48140.02
1372.486, 48105.00
1373.543, 48158.00
1374.600, 48230.00
1375.657, 48175.00
1376.713, 48082.00
1377.770, 48365.00
1378.826, 48387.00
1379.882, 48413.00
1380.938, 48283.00
1381.994, 48331.00
1383.050, 48602.00
1384.106, 48393.00
1385.161, 48525.00
1386.216, 48176.93
1387.271, 48288.15
1388.326, 48352.31
1389.381, 48371.94
1390.435, 48213.66
1391.490, 48285.11
1392.544, 48264.50
1393.598, 48240.11
1394.652, 48343.89
1395.705, 48211.48
1396.759, 48313.23
1397.812, 48321.50
1398.866, 48372.56
1399.919, 48330.98
1400.972, 48318.02
1402.024, 48397.71
1403.077, 48426.09
1404.129, 48373.85
1405.181, 48427.61
1406.233, 48291.97
1407.285, 48322.54
1408.337, 48357.00
1409.389, 48438.00
1410.440, 48474.00
1411.491, 48408.00
1412.542, 48417.71
1413.593, 48370.00
1414.644, 48337.00
1415.695, 48287.00
1416.745, 48272.00
1417.795, 48421.00
1418.845, 48377.00
1419.895, 48306.00
1420.945, 48242.00
1421.995, 48566.00
1423.044, 48702.00
1424.093, 48635.00
1425.142, 48630.82
1426.191, 48570.94
1427.240, 48353.00
1428.289, 48406.00
1429.337, 48374.00
1430.385, 48387.00
1431.433, 48528.00
1432.481, 48220.00
1433.529, 48559.00
1434.577, 48159.00
1435.624, 48381.00
1436.672, 48721.00
1437.719, 48392.00
1438.766, 48373.00
1439.812, 48472.00
1440.859, 48378.00
1441.905, 48332.00
1442.952, 48505.00
1443.998, 48546.00
1445.044, 48703.00
1446.090, 48461.00
1447.135, 48174.00
1448.181, 48331.00
1449.226, 48315.00
1450.271, 48583.00
1451.316, 48481.00
1452.361, 48406.00
1453.405, 48659.00
1454.450, 48534.00
1455.494, 48408.00
1456.538, 48521.00
1457.582, 48736.00
1458.626, 48735.00
1459.670, 48730.98
1460.713, 48591.00
1461.757, 48561.00
1462.800, 48488.00
1463.843, 48372.00
1464.886, 48507.00
1465.928, 48563.00
1466.971, 48497.00
1468.013, 48321.00
1469.055, 48585.00
1470.097, 48725.00
1471.139, 48391.00
1472.181, 48295.00
1473.222, 48445.00
1474.263, 48659.00
1475.305, 48298.00
1476.346, 48470.00
1477.386, 48554.00
1478.427, 48449.00
1479.468, 48869.00
1480.508, 48621.00
1481.548, 48278.00
1482.588, 48449.00
1483.628, 48645.00
1484.668, 48235.00
1485.707, 48522.00
1486.747, 47977.00
1487.786, 48287.00
1488.825, 48941.00
1489.864, 48703.00
1490.902, 48598.00
1491.941, 48629.00
1492.979, 48569.00
1494.017, 48614.00
1495.055, 48467.00
1496.093, 48606.00
1497.131, 49053.00
1498.168, 48651.00
1499.206, 48774.00
1500.243, 48367.00
1501.280, 48559.00
1502.317, 48683.00
1503.354, 48580.00
1504.390, 48752.00
1505.426, 48682.00
1506.463, 48751.00
1507.499, 48525.00
1508.535, 48703.00
1509.570, 48808.00
1510.606, 48590.00
1511.641, 48599.00
1512.676, 48584.00
1513.711, 48744.00
1514.746, 48688.00
1515.781, 48810.81
1516.816, 48721.00
1517.850, 48905.00
1518.884, 48855.00
1519.918, 48678.00
1520.952, 48660.00
1521.986, 48442.00
1523.019, 48668.00
1524.053, 48881.83
1525.086, 48751.95
1526.119, 48804.32
1527.152, 48766.00
1528.185, 48587.00
1529.217, 48746.00
1530.250, 48619.00
1531.282, 48781.00
1532.314, 48644.00
1533.346, 48682.00
1534.377, 48377.00
1535.409, 48857.00
1536.440, 48452.00
1537.472, 48923.00
1538.503, 48862.00
1539.534, 48607.00
1540.564, 48693.97
1541.595, 48809.05
1542.625, 48877.07
1543.656, 48900.56
1544.686, 48746.15
1545.716, 48821.46
1546.745, 48804.70
1547.775, 48784.17
1548.804, 48891.80
1549.834, 48763.27
1550.863, 48868.87
1551.892, 48881.00
1552.920, 48935.91
1553.949, 48898.19
1554.977, 48889.07
1556.006, 48972.62
1557.034, 49004.86
1558.062, 48956.48
1559.089, 49014.09
1560.117, 48882.30
1561.144, 48916.72
1562.172, 49022.86
1563.199, 48979.12
1564.226, 49038.43
1565.252, 49058.49
1566.279, 48853.00
1567.305, 49032.00
1568.332, 49194.00
1569.358, 48665.00
1570.384, 48804.00
1571.409, 49182.00
##END=



