##NAMES=Ferberite
##RRUFFID=R050090
##IDEAL CHEMISTRY=Fe^2+^W^6+^O_4_
##LOCALITY=Yaogangxian mine, Cheng Zhu City, South Hunan, China
##OWNER=RRUFF
##SOURCE=Rock Currier
##DESCRIPTION=Dark gray tabular crystal
##STATUS=The identification of this mineral has been confirmed by X-ray diffraction and chemical analysis
##URL=rruff.info/R050090
##MEASURED CHEMISTRY=(Fe^2+^_0.56_Mn_0.44_)W_1.00_O_4_
##PIN_ID=L01590
##ORIENTATION=Laser parallel to (1 0 1). Fiducial mark perpendicular to laser is parallel to b [0 1 0]
98.41600, 3367.000
99.64900, 3333.000
100.8830, 3573.000
102.1160, 3671.000
103.3490, 3425.748
104.5820, 3621.897
105.8150, 3771.608
107.0470, 3877.304
108.2800, 3807.519
109.5120, 3964.352
110.7440, 4030.338
111.9760, 4092.598
113.2080, 4281.337
114.4400, 4237.014
115.6710, 4423.674
116.9030, 4518.173
118.1340, 4654.813
119.3650, 4700.043
120.5960, 4773.508
121.8270, 4938.410
123.0580, 5052.682
124.2880, 5554.000
125.5190, 6468.000
126.7490, 7270.000
127.9790, 9042.000
129.2090, 12453.00
130.4390, 16495.00
131.6680, 17854.00
132.8980, 15384.00
134.1270, 11416.00
135.3560, 8371.000
136.5850, 6441.000
137.8140, 5485.000
139.0430, 4867.000
140.2710, 4726.000
141.5000, 4584.000
142.7280, 4185.000
143.9560, 3916.000
145.1840, 3744.000
146.4120, 3674.000
147.6390, 3703.000
148.8670, 3738.000
150.0940, 3591.000
151.3210, 3665.000
152.5490, 3631.910
153.7750, 3908.000
155.0020, 3644.000
156.2290, 3629.000
157.4550, 3649.000
158.6810, 3495.000
159.9080, 3511.000
161.1340, 3454.000
162.3590, 3451.000
163.5850, 3600.000
164.8110, 3790.000
166.0360, 3926.000
167.2610, 4015.000
168.4860, 4036.000
169.7110, 4109.000
170.9360, 4178.000
172.1610, 4124.708
173.3850, 4152.000
174.6100, 4006.000
175.8340, 4009.000
177.0580, 3929.000
178.2820, 3922.000
179.5050, 3969.000
180.7290, 4042.000
181.9520, 4005.000
183.1760, 4014.000
184.3990, 4066.000
185.6220, 4052.000
186.8450, 4189.000
188.0670, 4278.000
189.2900, 4344.000
190.5120, 4338.000
191.7340, 4547.000
192.9560, 4579.000
194.1780, 4736.000
195.4000, 4912.000
196.6220, 5008.000
197.8430, 5098.000
199.0640, 5222.000
200.2860, 5405.000
201.5070, 5698.000
202.7270, 6185.000
203.9480, 6177.369
205.1690, 6654.000
206.3890, 6225.000
207.6090, 5992.000
208.8290, 5824.000
210.0490, 5650.000
211.2690, 5391.000
212.4890, 5129.000
213.7080, 4870.000
214.9280, 4583.000
216.1470, 4308.000
217.3660, 4052.000
218.5850, 3883.953
219.8030, 3717.792
221.0220, 3665.000
222.2400, 3508.000
223.4590, 3543.000
224.6770, 3498.000
225.8950, 3461.000
227.1120, 3548.000
228.3300, 3475.000
229.5480, 3433.000
230.7650, 3408.000
231.9820, 3588.000
233.1990, 3472.019
234.4160, 3497.875
235.6330, 3417.000
236.8490, 3412.000
238.0660, 3467.000
239.2820, 3397.000
240.4980, 3385.000
241.7140, 3404.000
242.9300, 3389.000
244.1460, 3339.000
245.3610, 3321.000
246.5770, 3397.000
247.7920, 3301.000
249.0070, 3311.000
250.2220, 3382.000
251.4370, 3366.000
252.6510, 3409.581
253.8660, 3359.000
255.0800, 3466.000
256.2940, 3482.000
257.5080, 3509.000
258.7220, 3685.000
259.9360, 3851.320
261.1490, 3803.260
262.3630, 3795.654
263.5760, 3762.000
264.7890, 3716.244
266.0020, 3625.000
267.2150, 3636.000
268.4270, 3646.000
269.6400, 3639.000
270.8520, 3673.000
272.0640, 3705.000
273.2760, 3663.000
274.4880, 3663.930
275.7000, 3652.222
276.9120, 3594.000
278.1230, 3619.000
279.3340, 3572.000
280.5450, 3553.000
281.7560, 3594.000
282.9670, 3558.000
284.1780, 3558.000
285.3880, 3548.000
286.5980, 3538.767
287.8090, 3486.000
289.0190, 3536.000
290.2290, 3585.000
291.4380, 3591.000
292.6480, 3549.000
293.8570, 3625.000
295.0670, 3565.000
296.2760, 3698.000
297.4850, 3594.000
298.6930, 3715.000
299.9020, 3676.000
301.1110, 3801.000
302.3190, 3707.000
303.5270, 3730.000
304.7350, 3738.000
305.9430, 3816.000
307.1510, 3843.342
308.3580, 3899.922
309.5660, 3956.000
310.7730, 4025.000
311.9800, 4107.000
313.1870, 4189.000
314.3940, 4300.000
315.6010, 4427.701
316.8070, 4573.024
318.0130, 4735.000
319.2200, 4938.000
320.4260, 5137.000
321.6310, 5395.000
322.8370, 5684.000
324.0430, 5913.000
325.2480, 6190.000
326.4540, 6419.000
327.6590, 6397.000
328.8640, 6440.000
330.0680, 6188.000
331.2730, 6006.000
332.4780, 5716.000
333.6820, 5637.000
334.8860, 5302.000
336.0900, 5153.000
337.2940, 4998.000
338.4980, 4900.000
339.7010, 4736.000
340.9050, 4672.000
342.1080, 4630.000
343.3110, 4419.000
344.5140, 4482.000
345.7170, 4373.000
346.9200, 4304.000
348.1220, 4262.000
349.3240, 4150.000
350.5270, 4201.000
351.7290, 4172.000
352.9310, 4141.000
354.1320, 4061.000
355.3340, 4080.000
356.5350, 4093.000
357.7370, 4113.000
358.9380, 4101.000
360.1390, 4072.000
361.3400, 3980.000
362.5400, 4005.000
363.7410, 4008.000
364.9410, 4040.000
366.1410, 4028.695
367.3410, 4066.000
368.5410, 4021.000
369.7410, 3925.000
370.9400, 3939.000
372.1400, 4014.000
373.3390, 4031.000
374.5380, 3939.000
375.7370, 4020.000
376.9360, 3953.000
378.1350, 4014.000
379.3330, 3899.000
380.5310, 4036.000
381.7300, 4053.000
382.9280, 4008.000
384.1260, 4102.000
385.3230, 4133.000
386.5210, 4232.000
387.7180, 4218.000
388.9160, 4380.000
390.1130, 4448.000
391.3100, 4580.000
392.5060, 4874.000
393.7030, 5177.000
394.9000, 5524.000
396.0960, 5893.000
397.2920, 6405.000
398.4880, 6793.000
399.6840, 6836.000
400.8800, 6592.000
402.0750, 6251.000
403.2710, 5705.000
404.4660, 5329.000
405.6610, 5011.000
406.8560, 4779.000
408.0510, 4574.000
409.2450, 4464.000
410.4400, 4375.000
411.6340, 4194.000
412.8280, 4083.000
414.0220, 4076.000
415.2160, 4118.000
416.4100, 4012.000
417.6030, 3981.000
418.7970, 3988.000
419.9900, 3975.000
421.1830, 3937.386
422.3760, 3885.000
423.5690, 3848.000
424.7610, 3862.000
425.9540, 3793.000
427.1460, 3795.000
428.3380, 3836.000
429.5300, 3843.000
430.7220, 3761.000
431.9140, 3806.000
433.1050, 3718.000
434.2970, 3853.000
435.4880, 3792.000
436.6790, 3790.000
437.8700, 3838.000
439.0610, 3790.000
440.2510, 3842.000
441.4420, 3817.000
442.6320, 3803.000
443.8220, 3784.000
445.0120, 3794.000
446.2020, 3883.000
447.3910, 3789.000
448.5810, 3834.000
449.7700, 3875.000
450.9600, 3830.000
452.1490, 3970.000
453.3370, 3866.000
454.5260, 3893.000
455.7150, 3942.000
456.9030, 3957.000
458.0910, 3901.000
459.2800, 3911.000
460.4670, 3900.880
461.6550, 3970.000
462.8430, 3891.000
464.0300, 3957.000
465.2180, 3952.000
466.4050, 3930.000
467.5920, 3939.000
468.7790, 3964.000
469.9650, 3939.000
471.1520, 3979.000
472.3380, 3939.000
473.5250, 3951.691
474.7110, 3949.000
475.8970, 3958.000
477.0820, 3970.000
478.2680, 3982.000
479.4540, 4024.000
480.6390, 4014.504
481.8240, 4097.000
483.0090, 4021.000
484.1940, 4080.000
485.3780, 4107.000
486.5630, 4086.000
487.7470, 4109.000
488.9320, 4111.000
490.1160, 4079.000
491.3000, 4087.000
492.4830, 4073.000
493.6670, 4113.000
494.8500, 4128.000
496.0340, 4127.000
497.2170, 4192.000
498.4000, 4198.000
499.5820, 4192.000
500.7650, 4197.000
501.9480, 4213.000
503.1300, 4285.000
504.3120, 4243.000
505.4940, 4355.000
506.6760, 4273.000
507.8580, 4391.000
509.0390, 4397.000
510.2210, 4456.000
511.4020, 4495.000
512.5830, 4448.000
513.7640, 4427.000
514.9450, 4505.000
516.1250, 4580.000
517.3060, 4524.000
518.4860, 4668.000
519.6660, 4597.000
520.8460, 4725.000
522.0260, 4780.000
523.2060, 4846.000
524.3850, 4872.000
525.5650, 5003.000
526.7440, 4955.000
527.9230, 5200.000
529.1020, 5104.000
530.2810, 5238.000
531.4590, 5303.000
532.6380, 5406.000
533.8160, 5453.000
534.9940, 5556.000
536.1720, 5604.000
537.3500, 5738.000
538.5270, 5754.798
539.7050, 5907.000
540.8820, 5738.000
542.0590, 5731.000
543.2360, 5571.000
544.4130, 5708.000
545.5900, 5565.000
546.7660, 5538.000
547.9430, 5432.000
549.1190, 5296.000
550.2950, 5192.000
551.4710, 5067.000
552.6470, 4975.831
553.8220, 4895.608
554.9980, 4822.000
556.1730, 4750.000
557.3480, 4716.000
558.5230, 4630.000
559.6980, 4567.000
560.8730, 4471.000
562.0470, 4450.000
563.2220, 4400.508
564.3960, 4351.000
565.5700, 4367.000
566.7440, 4287.000
567.9170, 4309.000
569.0910, 4296.000
570.2640, 4255.000
571.4380, 4319.000
572.6110, 4298.000
573.7840, 4170.000
574.9570, 4186.000
576.1290, 4143.000
577.3020, 4076.000
578.4740, 4075.000
579.6460, 4033.650
580.8180, 4046.000
581.9900, 4020.000
583.1620, 3989.000
584.3330, 4045.000
585.5040, 3966.000
586.6760, 4026.000
587.8470, 4071.000
589.0180, 4060.000
590.1880, 4089.000
591.3590, 4060.000
592.5290, 4057.000
593.7000, 4052.429
594.8700, 4053.884
596.0400, 4029.000
597.2090, 4074.000
598.3790, 4064.773
599.5490, 4073.000
600.7180, 4034.000
601.8870, 4035.000
603.0560, 4036.000
604.2250, 4072.000
605.3940, 4054.000
606.5620, 4076.000
607.7300, 4021.000
608.8990, 4023.000
610.0670, 4037.000
611.2350, 3992.000
612.4020, 4072.000
613.5700, 4150.000
614.7370, 4153.000
615.9050, 4053.000
617.0720, 4071.000
618.2390, 4138.000
619.4060, 4091.000
620.5720, 4136.000
621.7390, 4143.000
622.9050, 4119.000
624.0710, 4085.000
625.2370, 4164.000
626.4030, 4128.000
627.5690, 4089.000
628.7340, 4187.000
629.9000, 4089.000
631.0650, 4179.000
632.2300, 4141.000
633.3950, 4075.000
634.5600, 4122.000
635.7240, 4116.000
636.8890, 4211.000
638.0530, 4111.000
639.2170, 4146.000
640.3810, 4059.000
641.5450, 4131.000
642.7080, 4132.000
643.8720, 4155.000
645.0350, 4149.000
646.1980, 4178.000
647.3610, 4192.000
648.5240, 4209.550
649.6870, 4217.000
650.8490, 4227.783
652.0120, 4234.277
653.1740, 4243.000
654.3360, 4245.000
655.4980, 4253.157
656.6600, 4263.643
657.8210, 4276.000
658.9830, 4289.000
660.1440, 4313.000
661.3050, 4307.000
662.4660, 4397.000
663.6270, 4359.000
664.7870, 4345.000
665.9480, 4431.000
667.1080, 4377.000
668.2680, 4451.000
669.4280, 4513.000
670.5880, 4549.000
671.7480, 4516.000
672.9070, 4552.000
674.0670, 4617.000
675.2260, 4611.000
676.3850, 4729.000
677.5440, 4736.000
678.7030, 4752.000
679.8610, 4732.000
681.0200, 4788.000
682.1780, 4852.000
683.3360, 4858.000
684.4940, 4995.000
685.6520, 4993.000
686.8090, 5086.000
687.9670, 5128.000
689.1240, 5152.000
690.2810, 5201.000
691.4380, 5267.000
692.5950, 5225.000
693.7520, 5141.000
694.9080, 5148.000
696.0650, 5206.000
697.2210, 5268.000
698.3770, 5231.000
699.5330, 5101.000
700.6880, 5138.000
701.8440, 5086.000
702.9990, 5069.000
704.1550, 5005.000
705.3100, 4900.000
706.4650, 4855.000
707.6190, 4778.000
708.7740, 4754.000
709.9290, 4695.000
711.0830, 4642.000
712.2370, 4625.000
713.3910, 4591.131
714.5450, 4549.725
715.6980, 4550.000
716.8520, 4479.000
718.0050, 4434.782
719.1580, 4413.404
720.3110, 4389.000
721.4640, 4392.000
722.6170, 4371.766
723.7700, 4427.000
724.9220, 4364.000
726.0740, 4380.000
727.2260, 4407.000
728.3780, 4271.000
729.5300, 4412.000
730.6810, 4370.000
731.8330, 4381.000
732.9840, 4321.000
734.1350, 4404.000
735.2860, 4355.000
736.4370, 4356.000
737.5880, 4254.000
738.7380, 4317.000
739.8880, 4361.000
741.0390, 4380.000
742.1890, 4391.433
743.3380, 4407.455
744.4880, 4408.613
745.6380, 4410.000
746.7870, 4398.000
747.9360, 4384.000
749.0850, 4359.000
750.2340, 4309.000
751.3830, 4330.000
752.5310, 4372.000
753.6800, 4379.000
754.8280, 4458.000
755.9760, 4362.000
757.1240, 4484.000
758.2720, 4453.000
759.4190, 4432.000
760.5670, 4569.000
761.7140, 4630.000
762.8610, 4647.000
764.0080, 4680.000
765.1550, 4720.000
766.3020, 4703.000
767.4480, 4751.000
768.5950, 4785.000
769.7410, 4874.000
770.8870, 4855.000
772.0330, 4861.000
773.1780, 4938.000
774.3240, 4890.000
775.4690, 4890.000
776.6140, 4980.000
777.7590, 4833.000
778.9040, 4928.000
780.0490, 4874.000
781.1940, 4856.000
782.3380, 4822.000
783.4820, 4800.476
784.6260, 4799.000
785.7700, 4782.000
786.9140, 4769.435
788.0580, 4773.114
789.2010, 4763.000
790.3450, 4776.000
791.4880, 4817.000
792.6310, 4816.000
793.7730, 4801.322
794.9160, 4842.000
796.0590, 4755.000
797.2010, 4795.000
798.3430, 4798.000
799.4850, 4746.000
800.6270, 4770.000
801.7690, 4852.000
802.9100, 4768.000
804.0520, 4870.000
805.1930, 4780.000
806.3340, 4801.000
807.4750, 4865.000
808.6160, 4725.000
809.7560, 4845.000
810.8970, 4893.000
812.0370, 4810.000
813.1770, 4895.000
814.3170, 4929.000
815.4570, 4856.000
816.5960, 4822.000
817.7360, 4961.000
818.8750, 4921.000
820.0140, 4915.000
821.1530, 5017.000
822.2920, 5057.000
823.4310, 4904.000
824.5690, 5006.000
825.7070, 5022.000
826.8460, 5105.000
827.9840, 5027.000
829.1220, 5078.000
830.2590, 5143.000
831.3970, 5119.000
832.5340, 5187.000
833.6710, 5176.000
834.8080, 5226.000
835.9450, 5277.170
837.0820, 5383.000
838.2190, 5404.000
839.3550, 5480.000
840.4910, 5580.000
841.6270, 5568.000
842.7630, 5727.881
843.8990, 5795.597
845.0350, 6003.000
846.1700, 5998.000
847.3060, 6139.000
848.4410, 6231.000
849.5760, 6325.000
850.7100, 6551.000
851.8450, 6590.000
852.9800, 6694.000
854.1140, 6890.000
855.2480, 7080.471
856.3820, 7388.000
857.5160, 7656.000
858.6500, 7961.000
859.7830, 8384.000
860.9170, 8759.000
862.0500, 9206.000
863.1830, 9860.000
864.3160, 10386.00
865.4480, 11082.00
866.5810, 11745.00
867.7130, 12776.00
868.8460, 13614.00
869.9780, 14859.00
871.1100, 16102.00
872.2410, 17641.00
873.3730, 19454.00
874.5050, 21465.00
875.6360, 23669.00
876.7670, 26247.00
877.8980, 28804.00
879.0290, 31193.00
880.1590, 33370.00
881.2900, 34932.00
882.4200, 35688.00
883.5500, 35263.00
884.6800, 34545.00
885.8100, 32308.00
886.9400, 29469.00
888.0690, 26522.00
889.1990, 23511.00
890.3280, 20772.00
891.4570, 18288.00
892.5860, 16033.00
893.7140, 14079.00
894.8430, 12632.00
895.9710, 11474.00
897.1000, 10262.00
898.2280, 9453.000
899.3560, 8752.000
900.4830, 8052.000
901.6110, 7583.000
902.7380, 7289.000
903.8660, 6866.000
904.9930, 6713.000
906.1200, 6422.000
907.2460, 6220.000
908.3730, 6030.000
909.5000, 5811.000
910.6260, 5754.000
911.7520, 5669.000
912.8780, 5501.000
914.0040, 5410.000
915.1290, 5343.000
916.2550, 5310.000
917.3800, 5187.000
918.5050, 5304.000
919.6300, 5136.000
920.7550, 5064.000
921.8800, 4940.000
923.0040, 5007.000
924.1290, 4974.000
925.2530, 4882.000
926.3770, 4845.000
927.5010, 4860.000
928.6250, 4855.000
929.7480, 4822.000
930.8720, 4765.000
931.9950, 4746.000
933.1180, 4773.000
934.2410, 4838.000
935.3640, 4789.000
936.4860, 4745.000
937.6090, 4655.000
938.7310, 4661.457
939.8530, 4696.000
940.9750, 4671.000
942.0970, 4669.000
943.2180, 4705.000
944.3400, 4757.000
945.4610, 4692.000
946.5820, 4731.000
947.7030, 4675.000
948.8240, 4623.000
949.9450, 4718.000
951.0650, 4641.000
952.1860, 4662.000
953.3060, 4747.000
954.4260, 4776.000
955.5460, 4665.000
956.6650, 4662.000
957.7850, 4675.000
958.9040, 4535.000
960.0230, 4736.000
961.1420, 4750.000
962.2610, 4644.000
963.3800, 4672.000
964.4990, 4670.000
965.6170, 4704.000
966.7350, 4649.000
967.8530, 4655.000
968.9710, 4718.000
970.0890, 4708.000
971.2070, 4637.000
972.3240, 4666.000
973.4410, 4694.000
974.5580, 4688.000
975.6750, 4703.791
976.7920, 4712.429
977.9090, 4701.000
979.0250, 4727.000
980.1410, 4716.000
981.2580, 4722.000
982.3740, 4687.000
983.4890, 4733.000
984.6050, 4695.000
985.7200, 4760.000
986.8360, 4751.000
987.9510, 4791.000
989.0660, 4787.000
990.1810, 4704.000
991.2950, 4726.000
992.4100, 4794.000
993.5240, 4735.000
994.6390, 4767.000
995.7530, 4817.000
996.8660, 4809.000
997.9800, 4715.000
999.0940, 4764.000
1000.207, 4721.000
1001.320, 4735.000
1002.433, 4803.000
1003.546, 4736.000
1004.659, 4786.000
1005.772, 4760.000
1006.884, 4776.000
1007.996, 4733.000
1009.108, 4750.000
1010.220, 4728.000
1011.332, 4752.000
1012.444, 4758.000
1013.555, 4807.000
1014.666, 4793.000
1015.777, 4770.000
1016.888, 4757.000
1017.999, 4812.000
1019.110, 4741.000
1020.220, 4749.000
1021.331, 4781.000
1022.441, 4704.000
1023.551, 4831.000
1024.661, 4801.000
1025.770, 4818.000
1026.880, 4755.000
1027.989, 4757.000
1029.098, 4779.000
1030.207, 4705.000
1031.316, 4743.000
1032.425, 4711.000
1033.533, 4775.000
1034.642, 4757.000
1035.750, 4726.000
1036.858, 4823.000
1037.966, 4842.000
1039.073, 4753.000
1040.181, 4813.000
1041.288, 4860.000
1042.396, 4760.000
1043.503, 4751.000
1044.610, 4852.000
1045.716, 4801.000
1046.823, 4709.000
1047.929, 4858.000
1049.036, 4837.000
1050.142, 4908.000
1051.248, 4904.000
1052.353, 4857.000
1053.459, 4831.000
1054.564, 4941.000
1055.670, 4859.000
1056.775, 4933.000
1057.880, 4876.000
1058.985, 4890.000
1060.089, 4884.497
1061.194, 4987.000
1062.298, 4907.000
1063.402, 4872.000
1064.506, 5000.000
1065.610, 4913.000
1066.713, 4945.000
1067.817, 4897.000
1068.920, 4954.000
1070.023, 4887.000
1071.126, 4893.000
1072.229, 4891.000
1073.332, 4931.000
1074.435, 4936.000
1075.537, 4922.474
1076.639, 4871.000
1077.741, 4910.000
1078.843, 4873.000
1079.945, 4921.000
1081.046, 4965.000
1082.148, 4904.000
1083.249, 4956.000
1084.350, 4911.000
1085.451, 4905.000
1086.551, 4961.000
1087.652, 4928.000
1088.752, 4931.000
1089.853, 4865.000
1090.953, 4901.000
1092.053, 4858.000
1093.152, 4896.000
1094.252, 4800.000
1095.351, 4912.000
1096.451, 4832.000
1097.550, 4857.000
1098.649, 4893.000
1099.748, 4795.000
1100.846, 4836.000
1101.945, 4788.000
1103.043, 4812.000
1104.141, 4847.000
1105.239, 4790.000
1106.337, 4827.684
1107.434, 4812.000
1108.532, 4864.000
1109.629, 4677.774
1110.726, 4783.920
1111.823, 4843.629
1112.920, 4859.396
1114.017, 4699.608
1115.113, 4766.512
1116.210, 4742.568
1117.306, 4714.899
1118.402, 4813.709
1119.498, 4679.456
1120.593, 4776.260
1121.689, 4780.831
1122.784, 4827.614
1123.879, 4782.988
1124.974, 4766.596
1126.069, 4841.642
1127.164, 4866.058
1128.259, 4810.910
1129.353, 4860.376
1130.447, 4722.930
1131.541, 4749.502
1132.635, 4846.841
1133.729, 4796.290
1134.822, 4847.427
1135.916, 4859.836
1137.009, 4689.000
1138.102, 4804.000
1139.195, 4781.000
1140.288, 4807.000
1141.380, 4754.000
1142.473, 4754.000
1143.565, 4726.000
1144.657, 4768.000
1145.749, 4763.000
1146.841, 4720.000
1147.932, 4779.000
1149.024, 4739.000
1150.115, 4699.000
1151.206, 4771.000
1152.297, 4648.967
1153.388, 4753.163
1154.479, 4810.920
1155.569, 4824.737
1156.659, 4663.000
1157.750, 4727.953
1158.839, 4702.062
1159.929, 4672.443
1161.019, 4769.303
1162.108, 4633.102
1163.198, 4727.957
1164.287, 4730.579
1165.376, 4775.415
1166.465, 4728.841
1167.553, 4710.503
1168.642, 4783.601
1169.730, 4806.071
1170.818, 4748.977
1171.906, 4796.497
1172.994, 4657.104
1174.082, 4681.730
1175.170, 4777.123
1176.257, 4724.626
1177.344, 4773.820
1178.431, 4784.284
1179.518, 4618.741
1180.605, 4759.292
1181.691, 4767.469
1182.778, 4639.724
1183.864, 4701.000
1184.950, 4757.000
1186.036, 4747.000
1187.122, 4691.000
1188.207, 4780.000
1189.292, 4727.000
1190.378, 4682.000
1191.463, 4714.000
1192.548, 4738.000
1193.632, 4721.000
1194.717, 4753.000
1195.801, 4748.000
1196.886, 4641.000
1197.970, 4717.000
1199.054, 4749.000
1200.137, 4678.000
1201.221, 4720.000
1202.305, 4700.000
1203.388, 4687.000
1204.471, 4727.000
1205.554, 4709.293
1206.637, 4740.000
1207.719, 4724.000
1208.802, 4713.000
1209.884, 4735.000
1210.966, 4729.000
1212.048, 4712.000
1213.130, 4736.000
1214.212, 4721.301
1215.293, 4734.000
1216.374, 4715.000
1217.456, 4691.000
1218.536, 4685.000
1219.617, 4670.000
1220.698, 4755.000
1221.778, 4701.000
1222.859, 4785.000
1223.939, 4682.000
1225.019, 4697.000
1226.099, 4733.000
1227.178, 4813.000
1228.258, 4761.000
1229.337, 4701.000
1230.417, 4800.000
1231.496, 4796.000
1232.574, 4750.000
1233.653, 4703.000
1234.732, 4766.000
1235.810, 4772.000
1236.888, 4872.000
1237.966, 4810.000
1239.044, 4809.000
1240.122, 4779.000
1241.199, 4791.000
1242.277, 4753.000
1243.354, 4740.000
1244.431, 4774.000
1245.508, 4772.000
1246.585, 4815.000
1247.661, 4822.000
1248.738, 4744.000
1249.814, 4667.000
1250.890, 4714.000
1251.966, 4671.914
1253.042, 4667.907
1254.117, 4705.000
1255.193, 4669.000
1256.268, 4716.000
1257.343, 4732.000
1258.418, 4755.000
1259.493, 4728.738
1260.567, 4873.000
1261.642, 4702.000
1262.716, 4723.000
1263.790, 4826.000
1264.864, 4766.000
1265.938, 4842.000
1267.011, 4773.000
1268.085, 4781.661
1269.158, 4759.660
1270.231, 4766.000
1271.304, 4726.000
1272.377, 4717.000
1273.450, 4783.000
1274.522, 4763.000
1275.594, 4779.000
1276.666, 4792.000
1277.738, 4823.000
1278.810, 4708.000
1279.882, 4765.000
1280.953, 4760.000
1282.025, 4779.000
1283.096, 4809.000
1284.167, 4754.000
1285.238, 4737.000
1286.308, 4686.000
1287.379, 4788.000
1288.449, 4747.280
1289.519, 4775.684
1290.589, 4773.000
1291.659, 4793.000
1292.729, 4837.000
1293.798, 4811.000
1294.868, 5028.000
1295.937, 4960.514
1297.006, 4927.100
1298.075, 4949.000
1299.143, 4778.000
1300.212, 4760.000
1301.280, 4755.000
1302.348, 4809.000
1303.416, 4803.000
1304.484, 4796.000
1305.552, 4747.000
1306.620, 4765.000
1307.687, 4786.000
1308.754, 4773.000
1309.821, 4782.000
1310.888, 4780.151
1311.955, 4753.000
1313.021, 4778.887
1314.088, 4773.000
1315.154, 4785.000
1316.220, 4806.000
1317.286, 4859.000
1318.352, 4807.000
1319.417, 4933.000
1320.483, 4918.000
1321.548, 4868.000
1322.613, 4831.000
1323.678, 4785.000
1324.743, 4818.000
1325.807, 4823.000
1326.872, 4799.000
1327.936, 4804.000
1329.000, 4803.000
1330.064, 4778.000
1331.128, 4858.000
1332.191, 4836.000
1333.255, 4856.000
1334.318, 4852.000
1335.381, 4789.000
1336.444, 4813.000
1337.507, 4895.000
1338.569, 4868.000
1339.632, 4928.000
1340.694, 4884.000
1341.756, 4794.000
1342.818, 4866.000
1343.880, 4776.000
1344.941, 4861.000
1346.003, 4771.000
1347.064, 4835.000
1348.125, 4868.000
1349.186, 4837.000
1350.247, 4917.000
1351.308, 4795.000
1352.368, 4758.000
1353.428, 4771.000
1354.489, 4827.000
1355.549, 4932.000
1356.608, 4822.000
1357.668, 4734.000
1358.727, 4887.000
1359.787, 4785.000
1360.846, 4889.000
1361.905, 4768.000
1362.964, 4833.000
1364.022, 4844.000
1365.081, 4806.000
1366.139, 4814.000
1367.197, 4803.303
1368.255, 4853.000
1369.313, 4791.000
1370.371, 4849.000
1371.428, 4850.000
1372.486, 4880.000
1373.543, 4798.000
1374.600, 4853.000
1375.657, 4903.000
1376.713, 4755.000
1377.770, 4794.000
1378.826, 4811.000
1379.882, 4810.252
1380.938, 4929.000
1381.994, 4909.000
1383.050, 4917.513
1384.106, 4812.000
1385.161, 4865.000
1386.216, 4885.000
1387.271, 4822.000
1388.326, 4904.000
1389.381, 4783.000
1390.435, 4772.000
1391.490, 4804.000
1392.544, 4928.000
1393.598, 4916.000
1394.652, 4893.000
1395.705, 4809.000
1396.759, 4834.000
1397.812, 4799.000
1398.866, 4855.000
1399.919, 4832.000
1400.972, 4867.000
1402.024, 4892.000
1403.077, 4862.000
1404.129, 4861.000
1405.181, 4848.982
1406.233, 4859.000
1407.285, 4821.000
1408.337, 4835.000
1409.389, 4838.000
1410.440, 4888.000
1411.491, 4907.000
1412.542, 4939.000
1413.593, 4923.816
1414.644, 4887.000
1415.695, 4893.000
1416.745, 4894.000
1417.795, 4922.000
1418.845, 4861.000
1419.895, 4867.000
1420.945, 4851.000
1421.995, 4812.000
1423.044, 4794.000
1424.093, 4906.000
1425.142, 4904.000
1426.191, 4897.000
1427.240, 4868.000
1428.289, 4877.523
1429.337, 4909.000
1430.385, 4875.000
1431.433, 4858.000
1432.481, 4842.000
1433.529, 4910.000
1434.577, 4883.000
1435.624, 4903.000
1436.672, 4889.000
1437.719, 4783.000
1438.766, 4878.000
1439.812, 4841.000
1440.859, 4901.000
1441.905, 4819.000
1442.952, 4843.000
1443.998, 4883.000
1445.044, 4849.000
1446.090, 4891.000
1447.135, 4979.000
1448.181, 4960.000
1449.226, 4919.000
1450.271, 4864.000
1451.316, 4808.000
1452.361, 4918.000
1453.405, 4868.000
1454.450, 4907.000
1455.494, 4963.000
1456.538, 4897.000
1457.582, 4860.000
1458.626, 4834.000
1459.670, 4912.000
1460.713, 4940.000
1461.757, 4857.000
1462.800, 4831.000
1463.843, 4953.000
1464.886, 4928.000
1465.928, 4908.000
1466.971, 4882.000
1468.013, 4880.000
1469.055, 4780.704
1470.097, 4890.367
1471.139, 4953.591
1472.181, 4972.874
1473.222, 4816.599
1474.263, 4887.015
1475.305, 4866.588
1476.346, 4842.431
1477.386, 4944.750
1478.427, 4814.009
1479.468, 4914.326
1480.508, 4922.406
1481.548, 4972.698
1482.588, 4931.582
1483.628, 4918.699
1484.668, 4997.253
1485.707, 5025.175
1486.747, 4973.536
1487.786, 4903.600
1488.825, 4981.000
1489.864, 4908.000
1490.902, 4942.000
1491.941, 4960.000
1492.979, 4913.000
1494.017, 4970.000
1495.055, 5037.000
1496.093, 5021.000
1497.131, 4978.000
1498.168, 4969.000
1499.206, 4960.126
1500.243, 4971.000
1501.280, 4958.000
1502.317, 4969.473
1503.354, 5000.000
1504.390, 4992.000
1505.426, 5017.000
1506.463, 5038.000
1507.499, 5034.000
1508.535, 5012.000
1509.570, 4965.000
1510.606, 4978.000
1511.641, 5003.000
1512.676, 5057.000
1513.711, 4964.000
1514.746, 4931.000
1515.781, 4967.580
1516.816, 5074.000
1517.850, 5041.000
1518.884, 4975.000
1519.918, 5049.000
1520.952, 4993.000
1521.986, 4913.000
1523.019, 5020.000
1524.053, 4972.000
1525.086, 5034.000
1526.119, 4971.000
1527.152, 5058.000
1528.185, 5029.000
1529.217, 5051.000
1530.250, 5011.000
1531.282, 4987.000
1532.314, 5090.000
1533.346, 4999.000
1534.377, 5036.000
1535.409, 5024.000
1536.440, 4970.000
1537.472, 5060.000
1538.503, 5030.000
1539.534, 5080.000
1540.564, 5104.000
1541.595, 5005.000
1542.625, 4977.000
1543.656, 4968.000
1544.686, 4997.000
1545.716, 5056.000
1546.745, 4967.646
1547.775, 5079.132
1548.804, 5144.175
1549.834, 5165.281
1550.863, 5010.829
1551.892, 5083.067
1552.920, 5064.453
1553.949, 5042.118
1554.977, 5146.258
1556.006, 5017.338
1557.034, 5119.472
1558.062, 5129.372
1559.089, 5181.479
1560.117, 5097.000
1561.144, 5073.000
1562.172, 5101.000
1563.199, 5059.534
1564.226, 5176.000
1565.252, 5018.000
1566.279, 5019.000
1567.305, 5035.000
1568.332, 5169.000
1569.358, 5115.000
1570.384, 5147.000
1571.409, 5064.000
1572.435, 5138.000
##END=



