##NAMES=Ferberite
##RRUFFID=R050632
##IDEAL CHEMISTRY=Fe^2+^W^6+^O_4_
##LOCALITY=Chance mine, Boulder, Colorado, USA
##OWNER=RRUFF
##SOURCE=University of Arizona Mineral Museum
##DESCRIPTION=Dark brown rectangular prismatic crystals
##STATUS=The identification of this mineral has been confirmed by X-ray diffraction and chemical analysis
##URL=rruff.info/R050632
##MEASURED CHEMISTRY=Fe^2+^_1.00_WO_4_
##PIN_ID=M00317
##ORIENTATION=Laser parallel to (1 0 1). Fiducial mark perpendicular to laser is parallel to b [0 1 0]
241.7140, 17554.00
242.9300, 17419.00
244.1460, 17412.00
245.3610, 17453.00
246.5770, 17387.00
247.7920, 17388.00
249.0070, 17612.00
250.2220, 17635.00
251.4370, 17634.00
252.6510, 17457.30
253.8660, 17707.19
255.0800, 17859.47
256.2940, 17919.42
257.5080, 17610.48
258.7220, 17777.89
259.9360, 17754.39
261.1490, 17723.05
262.3630, 17957.50
263.5760, 17702.19
264.7890, 17932.40
266.0020, 17968.80
267.2150, 18093.91
268.4270, 18026.91
269.6400, 18019.26
270.8520, 18203.73
272.0640, 18281.81
273.2760, 18192.70
274.4880, 18341.00
275.7000, 18440.00
276.9120, 18400.00
278.1230, 18337.00
279.3340, 18262.00
280.5450, 18391.00
281.7560, 18070.00
282.9670, 18218.00
284.1780, 18330.00
285.3880, 18252.00
286.5980, 18160.00
287.8090, 18210.00
289.0190, 18217.00
290.2290, 18404.00
291.4380, 18419.00
292.6480, 18499.00
293.8570, 18635.65
295.0670, 18728.46
296.2760, 18854.00
297.4850, 18925.00
298.6930, 18989.00
299.9020, 19034.35
301.1110, 19044.00
302.3190, 19065.00
303.5270, 19080.00
304.7350, 19069.00
305.9430, 19280.00
307.1510, 19337.00
308.3580, 19573.00
309.5660, 19943.00
310.7730, 19733.00
311.9800, 20148.00
313.1870, 20370.00
314.3940, 20397.00
315.6010, 20993.00
316.8070, 21181.00
318.0130, 21560.00
319.2200, 22085.00
320.4260, 22419.00
321.6310, 22584.00
322.8370, 23160.00
324.0430, 23252.00
325.2480, 23491.00
326.4540, 23606.00
327.6590, 23545.00
328.8640, 23468.00
330.0680, 23395.00
331.2730, 23068.00
332.4780, 22641.00
333.6820, 22306.00
334.8860, 22072.00
336.0900, 21609.00
337.2940, 21447.00
338.4980, 21059.00
339.7010, 20802.00
340.9050, 20739.00
342.1080, 20738.00
343.3110, 20472.96
344.5140, 20727.00
345.7170, 20112.00
346.9200, 19945.00
348.1220, 19864.00
349.3240, 19940.00
350.5270, 19795.00
351.7290, 19736.00
352.9310, 19615.00
354.1320, 19520.00
355.3340, 19543.00
356.5350, 19449.00
357.7370, 19401.93
358.9380, 19466.00
360.1390, 19282.00
361.3400, 19285.00
362.5400, 19230.00
363.7410, 19263.00
364.9410, 19144.00
366.1410, 19178.00
367.3410, 19102.81
368.5410, 19074.97
369.7410, 19008.00
370.9400, 19059.00
372.1400, 19091.00
373.3390, 19161.00
374.5380, 18943.00
375.7370, 19010.00
376.9360, 19017.00
378.1350, 18977.00
379.3330, 19131.00
380.5310, 19038.00
381.7300, 19217.00
382.9280, 19133.00
384.1260, 19389.00
385.3230, 19525.00
386.5210, 19471.00
387.7180, 19640.00
388.9160, 19841.00
390.1130, 20001.00
391.3100, 20406.00
392.5060, 20449.00
393.7030, 20898.00
394.9000, 21475.00
396.0960, 21920.00
397.2920, 22551.00
398.4880, 23033.00
399.6840, 23126.00
400.8800, 23188.00
402.0750, 22980.00
403.2710, 22781.00
404.4660, 21957.00
405.6610, 21728.00
406.8560, 21138.00
408.0510, 20813.00
409.2450, 20474.00
410.4400, 19999.00
411.6340, 19830.00
412.8280, 19692.00
414.0220, 19671.00
415.2160, 19403.00
416.4100, 19386.00
417.6030, 19388.00
418.7970, 19327.00
419.9900, 19223.00
421.1830, 19227.00
422.3760, 19214.00
423.5690, 19197.60
424.7610, 19343.00
425.9540, 19257.00
427.1460, 19138.00
428.3380, 19238.00
429.5300, 19144.00
430.7220, 18885.00
431.9140, 19184.00
433.1050, 19078.00
434.2970, 19220.00
435.4880, 19286.00
436.6790, 19119.00
437.8700, 19099.00
439.0610, 19067.00
440.2510, 19067.00
441.4420, 19056.96
442.6320, 19115.00
443.8220, 19095.00
445.0120, 19155.00
446.2020, 19258.00
447.3910, 19140.00
448.5810, 19236.00
449.7700, 19201.00
450.9600, 19153.00
452.1490, 19225.00
453.3370, 19199.39
454.5260, 19171.33
455.7150, 19229.00
456.9030, 19162.00
458.0910, 19159.00
459.2800, 19295.00
460.4670, 19240.00
461.6550, 19434.00
462.8430, 19441.00
464.0300, 19570.00
465.2180, 19538.00
466.4050, 19615.00
467.5920, 19496.00
468.7790, 19452.00
469.9650, 19668.00
471.1520, 19630.00
472.3380, 19966.00
473.5250, 19506.00
474.7110, 19589.00
475.8970, 19802.00
477.0820, 19714.00
478.2680, 19709.00
479.4540, 19979.00
480.6390, 19985.00
481.8240, 20069.00
483.0090, 20224.00
484.1940, 20128.00
485.3780, 20018.00
486.5630, 20212.00
487.7470, 20202.00
488.9320, 20362.00
490.1160, 20173.00
491.3000, 20453.00
492.4830, 20467.00
493.6670, 20605.00
494.8500, 20653.00
496.0340, 20685.17
497.2170, 20748.00
498.4000, 20777.00
499.5820, 20902.00
500.7650, 21038.00
501.9480, 20899.00
503.1300, 21123.00
504.3120, 21104.00
505.4940, 21191.00
506.6760, 21184.00
507.8580, 21141.00
509.0390, 21305.00
510.2210, 21383.00
511.4020, 21356.00
512.5830, 21571.00
513.7640, 21728.00
514.9450, 21749.00
516.1250, 21947.00
517.3060, 21914.00
518.4860, 21988.00
519.6660, 22108.00
520.8460, 22134.00
522.0260, 22118.00
523.2060, 22211.00
524.3850, 22421.00
525.5650, 22640.00
526.7440, 22647.00
527.9230, 22783.00
529.1020, 22866.00
530.2810, 22812.00
531.4590, 22933.00
532.6380, 22925.00
533.8160, 23023.00
534.9940, 23020.00
536.1720, 22962.00
537.3500, 23066.00
538.5270, 23084.00
539.7050, 22828.00
540.8820, 22967.91
542.0590, 22704.00
543.2360, 22953.00
544.4130, 22785.00
545.5900, 22621.00
546.7660, 22496.00
547.9430, 22423.00
549.1190, 22562.00
550.2950, 22512.00
551.4710, 22333.00
552.6470, 22142.00
553.8220, 22238.00
554.9980, 21997.00
556.1730, 21839.00
557.3480, 22009.00
558.5230, 21847.00
559.6980, 21728.00
560.8730, 21549.00
562.0470, 21651.00
563.2220, 21432.00
564.3960, 21590.00
565.5700, 21544.00
566.7440, 21340.00
567.9170, 21339.00
569.0910, 21433.00
570.2640, 21466.00
571.4380, 21409.00
572.6110, 21066.00
573.7840, 21047.00
574.9570, 20894.45
576.1290, 21122.00
577.3020, 20582.00
578.4740, 20720.00
579.6460, 20360.00
580.8180, 20230.00
581.9900, 20240.00
583.1620, 19928.00
584.3330, 19961.00
585.5040, 19782.00
586.6760, 19654.00
587.8470, 19724.00
589.0180, 19655.00
590.1880, 19560.00
591.3590, 19505.00
592.5290, 19433.00
593.7000, 19573.00
594.8700, 19559.25
596.0400, 19684.00
597.2090, 19717.00
598.3790, 19698.97
599.5490, 19527.00
600.7180, 19704.00
601.8870, 19579.00
603.0560, 19686.00
604.2250, 19502.00
605.3940, 19564.00
606.5620, 19620.00
607.7300, 19624.00
608.8990, 19607.00
610.0670, 19565.00
611.2350, 19361.00
612.4020, 19599.00
613.5700, 19364.00
614.7370, 19545.00
615.9050, 19642.00
617.0720, 19627.00
618.2390, 19604.00
619.4060, 19572.00
620.5720, 19548.00
621.7390, 19581.00
622.9050, 19563.10
624.0710, 19554.00
625.2370, 19599.00
626.4030, 19613.00
627.5690, 19680.00
628.7340, 19645.41
629.9000, 19675.24
631.0650, 19603.00
632.2300, 19670.00
633.3950, 19701.00
634.5600, 19667.00
635.7240, 19797.00
636.8890, 19738.00
638.0530, 19715.00
639.2170, 19949.00
640.3810, 19802.00
641.5450, 19704.00
642.7080, 20022.00
643.8720, 19816.00
645.0350, 19791.00
646.1980, 19878.00
647.3610, 19903.00
648.5240, 19848.00
649.6870, 19953.00
650.8490, 19929.71
652.0120, 19962.96
653.1740, 19983.00
654.3360, 19985.00
655.4980, 20068.00
656.6600, 20002.00
657.8210, 20228.00
658.9830, 19952.00
660.1440, 20113.00
661.3050, 20265.00
662.4660, 20186.00
663.6270, 20101.00
664.7870, 20361.00
665.9480, 20299.00
667.1080, 20426.00
668.2680, 20587.00
669.4280, 20537.00
670.5880, 20669.00
671.7480, 20664.96
672.9070, 20872.00
674.0670, 20963.56
675.2260, 21008.00
676.3850, 21211.00
677.5440, 21261.00
678.7030, 21323.00
679.8610, 21382.00
681.0200, 21722.00
682.1780, 21770.00
683.3360, 21959.00
684.4940, 22052.00
685.6520, 21995.00
686.8090, 21998.00
687.9670, 22170.00
689.1240, 22175.00
690.2810, 22206.00
691.4380, 22218.00
692.5950, 22143.00
693.7520, 22117.65
694.9080, 22093.87
696.0650, 21959.00
697.2210, 22012.00
698.3770, 21897.00
699.5330, 21793.00
700.6880, 21706.00
701.8440, 21686.00
702.9990, 21632.00
704.1550, 21534.00
705.3100, 21638.00
706.4650, 21506.00
707.6190, 21471.00
708.7740, 21325.00
709.9290, 21179.00
711.0830, 21178.00
712.2370, 21202.00
713.3910, 20951.00
714.5450, 21170.00
715.6980, 20927.00
716.8520, 20987.00
718.0050, 20883.00
719.1580, 20944.00
720.3110, 20955.00
721.4640, 20854.00
722.6170, 20926.18
723.7700, 20807.00
724.9220, 20932.00
726.0740, 20872.00
727.2260, 20787.00
728.3780, 20886.00
729.5300, 20786.00
730.6810, 20803.00
731.8330, 20694.00
732.9840, 20958.00
734.1350, 20907.00
735.2860, 21046.00
736.4370, 20771.00
737.5880, 20831.00
738.7380, 20899.00
739.8880, 20815.00
741.0390, 20973.00
742.1890, 21119.00
743.3380, 20828.00
744.4880, 20990.00
745.6380, 21165.00
746.7870, 20897.00
747.9360, 21025.00
749.0850, 21216.00
750.2340, 21091.00
751.3830, 21102.00
752.5310, 20876.90
753.6800, 21137.99
754.8280, 21301.46
755.9760, 21372.59
757.1240, 21074.83
758.2720, 21253.42
759.4190, 21241.08
760.5670, 21220.94
761.7140, 21466.54
762.8610, 21222.41
764.0080, 21463.79
765.1550, 21511.37
766.3020, 21647.64
767.4480, 21591.81
768.5950, 21595.33
769.7410, 21790.96
770.8870, 21880.21
772.0330, 21802.26
773.1780, 21944.11
774.3240, 21693.22
775.4690, 21808.28
776.6140, 21893.00
777.7590, 21881.00
778.9040, 21901.00
780.0490, 22006.00
781.1940, 21881.27
782.3380, 22081.00
783.4820, 21744.00
784.6260, 21849.00
785.7700, 21936.00
786.9140, 21957.00
788.0580, 22077.38
789.2010, 22177.86
790.3450, 22160.00
791.4880, 22415.00
792.6310, 22243.43
793.7730, 22308.00
794.9160, 21948.00
796.0590, 21874.00
797.2010, 21692.95
798.3430, 21935.35
799.4850, 22080.16
800.6270, 22132.65
801.7690, 21816.24
802.9100, 21976.16
804.0520, 21945.20
805.1930, 21906.39
806.3340, 22133.35
807.4750, 21870.58
808.6160, 22093.33
809.7560, 22122.25
810.8970, 22239.89
812.0370, 22165.44
813.1770, 22147.00
814.3170, 22301.00
815.4570, 22278.00
816.5960, 22319.98
817.7360, 22263.00
818.8750, 22345.00
820.0140, 22389.00
821.1530, 22421.00
822.2920, 22363.00
823.4310, 22566.00
824.5690, 22462.00
825.7070, 22482.00
826.8460, 22636.00
827.9840, 22851.00
829.1220, 23025.00
830.2590, 22991.00
831.3970, 23048.00
832.5340, 23134.00
833.6710, 23125.00
834.8080, 23623.00
835.9450, 23491.00
837.0820, 23816.00
838.2190, 23747.00
839.3550, 23847.00
840.4910, 23993.00
841.6270, 24169.00
842.7630, 24674.00
843.8990, 25030.00
845.0350, 25554.00
846.1700, 25377.00
847.3060, 25551.00
848.4410, 25910.00
849.5760, 26174.00
850.7100, 26474.00
851.8450, 27054.00
852.9800, 27317.00
854.1140, 27986.00
855.2480, 28486.00
856.3820, 29262.00
857.5160, 29963.00
858.6500, 30815.56
859.7830, 31599.00
860.9170, 32716.00
862.0500, 33823.00
863.1830, 34890.00
864.3160, 36599.00
865.4480, 38161.00
866.5810, 39989.00
867.7130, 42051.00
868.8460, 44326.00
869.9780, 47410.00
871.1100, 49525.00
872.2410, 52239.00
873.3730, 54979.00
874.5050, 57314.00
875.6360, 59270.00
876.7670, 60549.00
877.8980, 61050.00
879.0290, 60693.00
880.1590, 59812.00
881.2900, 58274.00
882.4200, 56084.00
883.5500, 53233.00
884.6800, 50221.00
885.8100, 47732.00
886.9400, 44719.00
888.0690, 42313.00
889.1990, 39729.00
890.3280, 38084.00
891.4570, 35856.00
892.5860, 34284.00
893.7140, 32820.00
894.8430, 31545.00
895.9710, 30737.00
897.1000, 29308.00
898.2280, 28839.00
899.3560, 28106.00
900.4830, 28292.00
901.6110, 27459.00
902.7380, 27519.00
903.8660, 26145.00
904.9930, 25677.00
906.1200, 25375.00
907.2460, 25203.00
908.3730, 24865.15
909.5000, 24681.00
910.6260, 24425.00
911.7520, 24284.00
912.8780, 24153.00
914.0040, 23983.00
915.1290, 23893.00
916.2550, 24047.00
917.3800, 23738.00
918.5050, 23714.00
919.6300, 23686.00
920.7550, 23400.00
921.8800, 23605.00
923.0040, 23427.00
924.1290, 23307.00
925.2530, 23369.00
926.3770, 23356.00
927.5010, 23433.00
928.6250, 23417.00
929.7480, 23424.15
930.8720, 23257.00
931.9950, 23416.00
933.1180, 23486.00
934.2410, 23497.00
935.3640, 23067.00
936.4860, 23466.00
937.6090, 23131.00
938.7310, 23077.00
939.8530, 23307.00
940.9750, 23306.00
942.0970, 23216.00
943.2180, 23246.00
944.3400, 23172.00
945.4610, 23334.00
946.5820, 23151.00
947.7030, 23426.00
948.8240, 23329.00
949.9450, 23115.00
951.0650, 23044.00
952.1860, 23066.00
953.3060, 23241.00
954.4260, 23067.00
955.5460, 23123.00
956.6650, 23039.00
957.7850, 22993.00
958.9040, 22949.00
960.0230, 22868.08
961.1420, 22839.00
962.2610, 22765.00
963.3800, 22743.00
964.4990, 22783.00
965.6170, 22752.00
966.7350, 22797.00
967.8530, 22629.00
968.9710, 22693.00
970.0890, 22621.00
971.2070, 22661.92
972.3240, 22628.99
973.4410, 22710.00
974.5580, 22674.00
975.6750, 22682.94
976.7920, 22757.00
977.9090, 22692.00
979.0250, 22598.00
980.1410, 22638.00
981.2580, 22669.00
982.3740, 22606.00
983.4890, 22486.00
984.6050, 22314.00
985.7200, 22554.00
986.8360, 22484.00
987.9510, 22546.00
989.0660, 22461.00
990.1810, 22514.00
991.2950, 22313.00
992.4100, 22427.00
993.5240, 22467.00
994.6390, 22218.00
995.7530, 22428.00
996.8660, 22264.00
997.9800, 22468.00
999.0940, 22407.93
1000.207, 22633.00
1001.320, 22304.00
1002.433, 22422.00
1003.546, 22312.00
1004.659, 22412.00
1005.772, 22370.00
1006.884, 22358.00
1007.996, 22491.00
1009.108, 22287.00
1010.220, 22069.00
1011.332, 22264.00
1012.444, 22339.00
1013.555, 22628.00
1014.666, 22539.00
1015.777, 22298.00
1016.888, 22371.00
1017.999, 22287.99
1019.110, 22186.00
1020.220, 22296.00
1021.331, 22330.00
1022.441, 22343.00
1023.551, 22332.00
1024.661, 22370.00
1025.770, 22227.00
1026.880, 22363.00
1027.989, 22316.00
1029.098, 22385.00
1030.207, 22437.00
1031.316, 22536.00
1032.425, 22483.49
1033.533, 22490.51
1034.642, 22405.00
1035.750, 22411.00
1036.858, 22440.00
1037.966, 22429.00
1039.073, 22446.00
1040.181, 22548.00
1041.288, 22412.00
1042.396, 22497.00
1043.503, 22502.00
1044.610, 22460.00
1045.716, 22711.00
1046.823, 22438.00
1047.929, 22584.00
1049.036, 22446.00
1050.142, 22622.00
1051.248, 22553.00
1052.353, 22404.00
1053.459, 22688.00
1054.564, 22548.00
1055.670, 22725.00
1056.775, 22647.00
1057.880, 22550.00
1058.985, 22631.00
1060.089, 22847.00
1061.194, 22716.00
1062.298, 22981.00
1063.402, 22561.85
1064.506, 22785.90
1065.610, 22912.36
1066.713, 22946.49
1067.817, 22611.73
1068.920, 22753.31
1070.023, 22704.00
1071.126, 22646.86
1072.229, 22855.48
1073.332, 22574.37
1074.435, 22778.79
1075.537, 22789.39
1076.639, 22888.69
1077.741, 22795.91
1078.843, 22762.47
1079.945, 22921.16
1081.046, 22973.46
1082.148, 22858.57
1083.249, 22963.51
1084.350, 22675.69
1085.451, 22732.52
1086.551, 22756.00
1087.652, 22765.17
1088.752, 22736.00
1089.853, 22741.00
1090.953, 22649.00
1092.053, 22667.00
1093.152, 22666.00
1094.252, 22707.00
1095.351, 22674.59
1096.451, 22840.00
1097.550, 22621.00
1098.649, 22620.00
1099.748, 22597.00
1100.846, 22990.00
1101.945, 22802.59
1103.043, 22773.30
1104.141, 22608.00
1105.239, 22487.00
1106.337, 22515.48
1107.434, 22446.46
1108.532, 22564.00
1109.629, 22493.00
1110.726, 22510.00
1111.823, 22601.00
1112.920, 22621.51
1114.017, 22644.07
1115.113, 22756.00
1116.210, 22649.00
1117.306, 22656.00
1118.402, 22615.00
1119.498, 22791.00
1120.593, 22733.00
1121.689, 22669.00
1122.784, 23001.00
1123.879, 22757.00
1124.974, 22624.00
1126.069, 22575.00
1127.164, 22707.00
1128.259, 22411.00
1129.353, 22546.00
1130.447, 22559.00
1131.541, 22530.00
1132.635, 22546.00
1133.729, 22477.24
1134.822, 22392.00
1135.916, 22427.00
1137.009, 22333.00
1138.102, 22503.00
1139.195, 22318.00
1140.288, 22100.00
1141.380, 22427.00
1142.473, 22188.00
1143.565, 22281.00
1144.657, 22304.00
1145.749, 22399.00
1146.841, 22277.00
1147.932, 22323.00
1149.024, 22256.00
1150.115, 22141.00
1151.206, 22354.00
1152.297, 22491.00
1153.388, 22314.00
1154.479, 22114.00
1155.569, 22295.00
1156.659, 22314.00
1157.750, 22195.00
1158.839, 22310.00
1159.929, 22321.00
1161.019, 22187.00
1162.108, 22250.00
1163.198, 22355.00
1164.287, 22045.00
1165.376, 22331.00
1166.465, 22433.00
1167.553, 22269.00
1168.642, 22357.00
1169.730, 22047.00
1170.818, 22144.00
1171.906, 22224.00
1172.994, 22290.00
1174.082, 22141.00
1175.170, 22206.00
1176.257, 22058.00
1177.344, 22227.00
1178.431, 22202.00
1179.518, 22162.00
1180.605, 22084.00
1181.691, 22319.00
1182.778, 22146.00
1183.864, 22224.00
1184.950, 22293.00
1186.036, 22152.00
1187.122, 22345.00
1188.207, 22100.00
1189.292, 22180.41
1190.378, 22176.14
1191.463, 22177.00
1192.548, 22217.00
1193.632, 22144.00
1194.717, 22243.00
1195.801, 22206.00
1196.886, 22281.00
1197.970, 22435.00
1199.054, 22241.00
1200.137, 22271.00
1201.221, 22340.00
1202.305, 22105.00
1203.388, 22298.00
1204.471, 22217.00
1205.554, 22356.00
1206.637, 22154.00
1207.719, 22254.00
1208.802, 22066.00
1209.884, 22249.00
1210.966, 22152.00
1212.048, 22183.00
1213.130, 22256.00
1214.212, 22379.00
1215.293, 22252.00
1216.374, 22128.00
1217.456, 22134.00
1218.536, 22404.00
1219.617, 22294.00
1220.698, 22342.59
1221.778, 22273.00
1222.859, 22330.00
1223.939, 22251.00
1225.019, 22351.00
1226.099, 22247.00
1227.178, 22440.00
1228.258, 22257.00
1229.337, 22341.00
1230.417, 22229.00
1231.496, 22400.00
1232.574, 22337.66
1233.653, 22499.00
1234.732, 22337.00
1235.810, 22337.00
1236.888, 22408.00
1237.966, 22361.00
1239.044, 22247.00
1240.122, 22434.00
1241.199, 22258.00
1242.277, 22387.00
1243.354, 22535.00
1244.431, 22422.00
1245.508, 22244.00
1246.585, 22360.00
1247.661, 22373.00
1248.738, 22194.88
1249.814, 22422.38
1250.890, 22552.31
1251.966, 22589.90
1253.042, 22258.60
1254.117, 22403.64
1255.193, 22357.79
1256.268, 22304.11
1257.343, 22516.19
1258.418, 22238.54
1259.493, 22446.41
1260.567, 22460.47
1261.642, 22563.23
1262.716, 22473.91
1263.790, 22443.92
1264.864, 22606.06
1265.938, 22661.82
1267.011, 22550.39
1268.085, 22658.78
1269.158, 22374.41
1270.231, 22434.70
1271.304, 22643.69
1272.377, 22541.91
1273.450, 22653.81
1274.522, 22684.33
1275.594, 22345.00
1276.666, 22648.87
1277.738, 22674.58
1278.810, 22414.68
1279.882, 22696.51
1280.953, 22475.98
1282.025, 22434.76
1283.096, 22528.49
1284.167, 22481.54
1285.238, 22656.37
1286.308, 22617.54
1287.379, 22559.62
1288.449, 22585.01
1289.519, 22374.33
1290.589, 22601.61
1291.659, 22529.72
1292.729, 22606.54
1293.798, 22717.06
1294.868, 22569.50
1295.937, 22695.17
1297.006, 22397.11
1298.075, 22405.00
1299.143, 22688.00
1300.212, 22401.00
1301.280, 22624.00
1302.348, 22391.00
1303.416, 22543.00
1304.484, 22747.00
1305.552, 22558.00
1306.620, 22657.00
1307.687, 22570.00
1308.754, 22725.00
1309.821, 22584.00
1310.888, 22660.00
1311.955, 22718.00
1313.021, 22578.00
1314.088, 22497.00
1315.154, 22649.00
1316.220, 22502.00
1317.286, 22769.00
1318.352, 22688.00
1319.417, 22731.00
1320.483, 22605.00
1321.548, 22764.00
1322.613, 22666.00
1323.678, 22767.00
1324.743, 22804.00
1325.807, 22664.00
1326.872, 22527.00
1327.936, 22852.00
1329.000, 22697.00
1330.064, 22666.00
1331.128, 22862.00
1332.191, 22732.00
1333.255, 22832.00
1334.318, 22819.00
1335.381, 22734.10
1336.444, 22749.00
1337.507, 22595.00
1338.569, 22710.00
1339.632, 22673.00
1340.694, 22915.00
1341.756, 22802.00
1342.818, 22879.00
1343.880, 23041.00
1344.941, 22816.00
1346.003, 22837.00
1347.064, 22645.00
1348.125, 22722.00
1349.186, 22862.00
1350.247, 22773.19
1351.308, 22827.57
1352.368, 22798.00
1353.428, 22767.00
1354.489, 22816.00
1355.549, 22748.00
1356.608, 22848.00
1357.668, 22832.00
1358.727, 22925.00
1359.787, 22790.00
1360.846, 22803.00
1361.905, 22934.00
1362.964, 22862.06
1364.022, 22888.00
1365.081, 22902.00
1366.139, 22826.00
1367.197, 22880.00
1368.255, 22930.00
1369.313, 22850.00
1370.371, 22910.00
1371.428, 22749.00
1372.486, 23029.00
1373.543, 22970.00
1374.600, 22799.00
1375.657, 22732.00
1376.713, 23035.00
1377.770, 22683.00
1378.826, 22931.00
1379.882, 22853.00
1380.938, 22862.00
1381.994, 22930.00
1383.050, 23047.00
1384.106, 23010.00
1385.161, 22919.00
1386.216, 22894.00
1387.271, 22767.00
1388.326, 22930.00
1389.381, 22947.00
1390.435, 22870.00
1391.490, 23021.00
1392.544, 23058.00
1393.598, 23162.00
1394.652, 22985.00
1395.705, 22884.00
1396.759, 22818.00
1397.812, 23033.00
1398.866, 23081.00
1399.919, 22876.00
1400.972, 23127.00
1402.024, 23064.00
1403.077, 23225.00
1404.129, 22997.00
1405.181, 22842.00
1406.233, 23039.00
1407.285, 22893.00
1408.337, 23068.00
1409.389, 23020.00
1410.440, 22876.00
1411.491, 22789.00
1412.542, 22917.00
1413.593, 23025.00
1414.644, 22994.00
1415.695, 23014.00
1416.745, 23014.00
1417.795, 22924.00
1418.845, 23001.00
1419.895, 22985.00
1420.945, 23038.00
1421.995, 22929.00
1423.044, 22819.00
1424.093, 22963.00
1425.142, 22993.00
1426.191, 23024.00
1427.240, 22955.00
1428.289, 23036.00
1429.337, 22945.00
1430.385, 23107.00
1431.433, 23081.94
1432.481, 23050.00
1433.529, 23091.00
1434.577, 23074.00
1435.624, 23011.00
1436.672, 22984.00
1437.719, 22968.00
1438.766, 23016.00
1439.812, 22990.00
1440.859, 23044.00
1441.905, 23056.53
1442.952, 22981.00
1443.998, 23085.00
1445.044, 23019.00
1446.090, 22991.00
1447.135, 23027.00
1448.181, 22943.00
1449.226, 23012.00
1450.271, 23028.00
1451.316, 23072.00
1452.361, 23106.00
1453.405, 23325.00
1454.450, 22864.00
1455.494, 23228.00
1456.538, 23033.00
1457.582, 23008.00
1458.626, 23129.00
1459.670, 23254.00
1460.713, 23120.00
1461.757, 23216.00
1462.800, 23030.00
1463.843, 23077.00
1464.886, 23016.00
1465.928, 22987.00
1466.971, 23070.44
1468.013, 23127.62
1469.055, 23176.00
1470.097, 23270.00
1471.139, 23218.00
1472.181, 23064.00
1473.222, 23145.00
1474.263, 22946.00
1475.305, 23115.00
1476.346, 22954.00
1477.386, 23185.00
1478.427, 23154.00
1479.468, 23129.00
1480.508, 23139.00
1481.548, 23342.00
1482.588, 23341.00
1483.628, 23353.00
1484.668, 23210.00
1485.707, 23215.00
1486.747, 23168.00
1487.786, 23312.00
1488.825, 23215.47
1489.864, 23326.00
1490.902, 23208.00
1491.941, 23158.00
1492.979, 23350.00
1494.017, 23315.00
1495.055, 23270.00
1496.093, 23298.00
1497.131, 23231.98
1498.168, 23289.00
1499.206, 23194.60
1500.243, 23171.26
1501.280, 23267.00
1502.317, 23137.00
1503.354, 23243.00
1504.390, 23233.00
1505.426, 23508.00
1506.463, 23237.00
1507.499, 23456.00
1508.535, 23498.00
1509.570, 23246.00
1510.606, 23306.00
1511.641, 23226.00
1512.676, 23193.00
1513.711, 23360.00
1514.746, 23580.00
1515.781, 23437.00
1516.816, 23445.00
1517.850, 23551.00
1518.884, 23483.00
1519.918, 23628.00
1520.952, 23499.00
1521.986, 23682.00
1523.019, 23509.00
1524.053, 23411.00
1525.086, 23656.00
1526.119, 23503.00
1527.152, 23472.00
1528.185, 23475.46
1529.217, 23720.00
1530.250, 23395.00
1531.282, 23548.00
1532.314, 23629.00
1533.346, 23534.00
1534.377, 23639.00
1535.409, 23686.70
1536.440, 23624.59
1537.472, 23804.00
1538.503, 23631.00
1539.534, 23572.00
1540.564, 23749.00
1541.595, 23708.00
1542.625, 23715.00
1543.656, 23468.00
1544.686, 23743.56
1545.716, 23961.58
1546.745, 24082.03
1547.775, 24110.13
1548.804, 23769.35
1549.834, 23904.91
1550.863, 23849.57
1551.892, 23786.41
1552.920, 23989.03
1553.949, 23701.90
1554.977, 23900.30
1556.006, 23904.88
1557.034, 23998.17
1558.062, 23899.39
1559.089, 23859.93
1560.117, 24012.61
1561.144, 24058.91
1562.172, 23683.00
1563.199, 23991.00
1564.226, 23850.00
1565.252, 23800.00
1566.279, 23847.00
1567.305, 23879.00
1568.332, 23712.00
1569.358, 23840.00
1570.384, 23932.00
1571.409, 23937.00
##END=



