##NAMES=Ferberite
##RRUFFID=R050632
##IDEAL CHEMISTRY=Fe^2+^W^6+^O_4_
##LOCALITY=Chance mine, Boulder, Colorado, USA
##OWNER=RRUFF
##SOURCE=University of Arizona Mineral Museum
##DESCRIPTION=Dark brown rectangular prismatic crystals
##STATUS=The identification of this mineral has been confirmed by X-ray diffraction and chemical analysis
##URL=rruff.info/R050632
##MEASURED CHEMISTRY=Fe^2+^_1.00_WO_4_
##PIN_ID=L00968
##ORIENTATION=Laser parallel to c* (0 0 1). Fiducial mark perpendicular to laser is parallel to a [1 0 0]
159.9080, 11487.00
161.1340, 11272.00
162.3590, 11454.00
163.5850, 11640.07
164.8110, 11861.24
166.0360, 12035.42
167.2610, 12165.21
168.4860, 12117.69
169.7110, 12299.14
170.9360, 12388.83
172.1610, 12474.75
173.3850, 12688.33
174.6100, 12666.60
175.8340, 12878.15
177.0580, 12996.54
178.2820, 13157.57
179.5050, 13226.18
180.7290, 13323.40
181.9520, 13512.88
183.1760, 13651.32
184.3990, 13709.30
185.6220, 13872.94
186.8450, 13959.00
188.0670, 14009.87
189.2900, 14356.00
190.5120, 14468.00
191.7340, 14727.10
192.9560, 14914.00
194.1780, 15261.00
195.4000, 15376.00
196.6220, 15661.00
197.8430, 16071.00
199.0640, 16287.00
200.2860, 17598.00
201.5070, 17938.00
202.7270, 19015.00
203.9480, 18999.00
205.1690, 17130.00
206.3890, 14418.00
207.6090, 12751.00
208.8290, 12286.00
210.0490, 12217.00
211.2690, 12245.00
212.4890, 12532.00
213.7080, 12400.17
214.9280, 12232.09
216.1470, 12278.00
217.3660, 11738.00
218.5850, 11474.00
219.8030, 11432.00
221.0220, 11440.00
222.2400, 11262.01
223.4590, 11289.00
224.6770, 10980.00
225.8950, 11115.00
227.1120, 10830.00
228.3300, 10839.00
229.5480, 10656.00
230.7650, 10649.00
231.9820, 10756.00
233.1990, 10637.00
234.4160, 10572.00
235.6330, 10825.00
236.8490, 10737.00
238.0660, 10597.00
239.2820, 10578.00
240.4980, 10671.00
241.7140, 10665.00
242.9300, 10609.00
244.1460, 10584.00
245.3610, 10585.00
246.5770, 10559.00
247.7920, 10579.97
249.0070, 10462.00
250.2220, 10630.00
251.4370, 10626.98
252.6510, 10577.21
253.8660, 10741.75
255.0800, 10859.35
256.2940, 10932.55
257.5080, 10828.45
258.7220, 10953.31
259.9360, 10986.41
261.1490, 11015.70
262.3630, 11172.78
263.5760, 11094.42
264.7890, 11249.43
266.0020, 11311.29
267.2150, 11415.77
268.4270, 11212.00
269.6400, 11141.00
270.8520, 11247.00
272.0640, 11239.00
273.2760, 11134.00
274.4880, 11212.00
275.7000, 11448.00
276.9120, 11544.00
278.1230, 11492.00
279.3340, 11486.00
280.5450, 11237.00
281.7560, 11071.00
282.9670, 11043.00
284.1780, 11074.00
285.3880, 10932.00
286.5980, 11114.00
287.8090, 11033.00
289.0190, 10957.00
290.2290, 11059.00
291.4380, 11057.00
292.6480, 10823.58
293.8570, 10937.61
295.0670, 11004.74
296.2760, 11027.48
297.4850, 10872.91
298.6930, 10947.29
299.9020, 10929.92
301.1110, 10908.79
302.3190, 11015.41
303.5270, 10886.62
304.7350, 10991.20
305.9430, 11002.63
307.1510, 11056.69
308.3580, 11018.43
309.5660, 11008.68
310.7730, 11091.28
311.9800, 11122.75
313.1870, 11073.85
314.3940, 11130.62
315.6010, 10998.60
316.8070, 11119.00
318.0130, 11072.00
319.2200, 11162.21
320.4260, 11306.00
321.6310, 11263.00
322.8370, 11295.00
324.0430, 11387.00
325.2480, 11489.00
326.4540, 11683.00
327.6590, 11726.00
328.8640, 11924.00
330.0680, 11741.00
331.2730, 11688.00
332.4780, 11815.00
333.6820, 11644.00
334.8860, 11594.00
336.0900, 11638.00
337.2940, 11651.00
338.4980, 11529.00
339.7010, 11542.00
340.9050, 11466.00
342.1080, 11357.00
343.3110, 11365.00
344.5140, 11361.00
345.7170, 11447.00
346.9200, 11381.00
348.1220, 11336.00
349.3240, 11233.44
350.5270, 11321.64
351.7290, 11362.96
352.9310, 11359.90
354.1320, 11179.54
355.3340, 11228.12
356.5350, 11184.97
357.7370, 11138.03
358.9380, 11218.86
360.1390, 11064.29
361.3400, 11143.09
362.5400, 11128.75
363.7410, 11157.03
364.9410, 11093.00
366.1410, 11057.49
367.3410, 11114.33
368.5410, 11120.04
369.7410, 11045.38
370.9400, 11066.00
372.1400, 11092.00
373.3390, 11072.77
374.5380, 11139.00
375.7370, 11044.00
376.9360, 11112.00
378.1350, 11022.00
379.3330, 11163.00
380.5310, 11180.00
381.7300, 11097.00
382.9280, 11143.00
384.1260, 11063.00
385.3230, 11005.00
386.5210, 11120.00
387.7180, 11169.00
388.9160, 11159.00
390.1130, 11180.00
391.3100, 11336.00
392.5060, 11165.00
393.7030, 11172.00
394.9000, 11398.00
396.0960, 11394.00
397.2920, 11470.00
398.4880, 11691.00
399.6840, 11601.00
400.8800, 11852.00
402.0750, 11773.00
403.2710, 11903.00
404.4660, 11700.00
405.6610, 11742.00
406.8560, 11534.00
408.0510, 11501.00
409.2450, 11412.00
410.4400, 11185.00
411.6340, 11316.00
412.8280, 11208.00
414.0220, 11335.00
415.2160, 11291.00
416.4100, 11124.88
417.6030, 11238.93
418.7970, 11306.08
419.9900, 11328.85
421.1830, 11174.30
422.3760, 11248.71
423.5690, 11231.37
424.7610, 11210.26
425.9540, 11316.90
427.1460, 11188.13
428.3380, 11292.74
429.5300, 11304.19
430.7220, 11358.28
431.9140, 11320.04
433.1050, 11310.31
434.2970, 11392.94
435.4880, 11424.43
436.6790, 11375.56
437.8700, 11432.35
439.0610, 11300.35
440.2510, 11334.01
441.4420, 11439.16
442.6320, 11394.92
443.8220, 11453.39
445.0120, 11472.75
446.2020, 11306.91
447.3910, 11319.00
448.5810, 11374.00
449.7700, 11407.98
450.9600, 11369.57
452.1490, 11262.00
453.3370, 11299.00
454.5260, 11254.00
455.7150, 11254.71
456.9030, 11266.40
458.0910, 11374.00
459.2800, 11342.00
460.4670, 11191.00
461.6550, 11341.00
462.8430, 11337.00
464.0300, 11542.00
465.2180, 11473.15
466.4050, 11554.00
467.5920, 11407.00
468.7790, 11294.91
469.9650, 11417.42
471.1520, 11493.04
472.3380, 11524.27
473.5250, 11378.20
474.7110, 11461.08
475.8970, 11452.20
477.0820, 11439.55
478.2680, 11554.65
479.4540, 11434.36
480.6390, 11547.42
481.8240, 11567.33
483.0090, 11629.87
484.1940, 11600.09
485.3780, 11598.81
486.5630, 11689.90
487.7470, 11729.84
488.9320, 11689.43
490.1160, 11754.67
491.3000, 11631.13
492.4830, 11673.23
493.6670, 11786.83
494.8500, 11751.03
496.0340, 11817.96
497.2170, 11845.76
498.4000, 11780.00
499.5820, 11753.00
500.7650, 11970.00
501.9480, 11923.00
503.1300, 11780.00
504.3120, 11996.00
505.4940, 11878.00
506.6760, 12126.00
507.8580, 12150.00
509.0390, 11990.00
510.2210, 12059.00
511.4020, 12178.00
512.5830, 12146.00
513.7640, 12147.00
514.9450, 11991.00
516.1250, 12115.00
517.3060, 12127.00
518.4860, 12216.00
519.6660, 12049.00
520.8460, 12214.00
522.0260, 12152.00
523.2060, 12204.00
524.3850, 12201.00
525.5650, 12178.00
526.7440, 12188.00
527.9230, 12282.00
529.1020, 12164.00
530.2810, 12246.00
531.4590, 12269.00
532.6380, 12203.00
533.8160, 12427.00
534.9940, 12382.00
536.1720, 12368.00
537.3500, 12406.00
538.5270, 12341.00
539.7050, 12300.00
540.8820, 12364.00
542.0590, 12332.31
543.2360, 12321.00
544.4130, 12347.00
545.5900, 12330.00
546.7660, 12296.00
547.9430, 12208.00
549.1190, 12471.00
550.2950, 12326.00
551.4710, 12301.00
552.6470, 12388.00
553.8220, 12309.00
554.9980, 12362.00
556.1730, 12355.00
557.3480, 12206.00
558.5230, 12330.00
559.6980, 12382.80
560.8730, 12314.39
562.0470, 12365.39
563.2220, 12271.00
564.3960, 12317.00
565.5700, 12329.00
566.7440, 12280.00
567.9170, 12322.00
569.0910, 12314.00
570.2640, 12396.00
571.4380, 12349.22
572.6110, 12372.43
573.7840, 12253.00
574.9570, 12302.00
576.1290, 12205.00
577.3020, 12019.00
578.4740, 12086.00
579.6460, 12013.00
580.8180, 11955.00
581.9900, 12015.00
583.1620, 11998.19
584.3330, 12088.46
585.5040, 12131.83
586.6760, 12130.80
587.8470, 11952.47
589.0180, 12003.11
590.1880, 11962.00
591.3590, 11917.11
592.5290, 11999.99
593.7000, 11847.45
594.8700, 11928.30
596.0400, 11915.99
597.2090, 11877.00
598.3790, 11796.00
599.5490, 11935.00
600.7180, 11738.00
601.8870, 11893.00
603.0560, 11926.00
604.2250, 11919.00
605.3940, 11992.00
606.5620, 11987.02
607.7300, 11991.00
608.8990, 11969.00
610.0670, 11922.00
611.2350, 11945.09
612.4020, 11845.00
613.5700, 11937.00
614.7370, 11936.00
615.9050, 11867.00
617.0720, 11926.00
618.2390, 12018.00
619.4060, 11937.00
620.5720, 11891.00
621.7390, 11993.00
622.9050, 11921.00
624.0710, 11929.00
625.2370, 11926.00
626.4030, 11911.15
627.5690, 11928.00
628.7340, 11927.00
629.9000, 12085.00
631.0650, 12119.00
632.2300, 12154.00
633.3950, 12034.00
634.5600, 12225.00
635.7240, 12151.00
636.8890, 12379.00
638.0530, 12040.00
639.2170, 12165.00
640.3810, 12178.00
641.5450, 12321.00
642.7080, 12090.00
643.8720, 12330.00
645.0350, 12237.04
646.1980, 12405.00
647.3610, 12151.00
648.5240, 12368.00
649.6870, 12272.00
650.8490, 12314.00
652.0120, 12379.00
653.1740, 12296.00
654.3360, 12393.00
655.4980, 12261.00
656.6600, 12465.00
657.8210, 12459.46
658.9830, 12613.00
660.1440, 12539.00
661.3050, 12483.00
662.4660, 12433.00
663.6270, 12582.00
664.7870, 12517.00
665.9480, 12690.00
667.1080, 12672.49
668.2680, 13098.00
669.4280, 12733.00
670.5880, 12829.00
671.7480, 12974.00
672.9070, 12799.00
674.0670, 13241.88
675.2260, 13148.02
676.3850, 13182.24
677.5440, 13239.00
678.7030, 13243.00
679.8610, 13316.00
681.0200, 13388.28
682.1780, 13463.37
683.3360, 13584.00
684.4940, 13681.00
685.6520, 13818.00
686.8090, 13976.00
687.9670, 14032.00
689.1240, 14087.11
690.2810, 14058.00
691.4380, 14128.00
692.5950, 14099.00
693.7520, 14155.00
694.9080, 14006.36
696.0650, 13895.00
697.2210, 13679.00
698.3770, 13735.00
699.5330, 13597.00
700.6880, 13588.00
701.8440, 13419.00
702.9990, 13338.00
704.1550, 13363.00
705.3100, 13085.00
706.4650, 13272.00
707.6190, 13208.00
708.7740, 13134.00
709.9290, 13244.00
711.0830, 13001.00
712.2370, 13029.00
713.3910, 12826.00
714.5450, 12860.00
715.6980, 12904.00
716.8520, 12776.00
718.0050, 12709.00
719.1580, 12708.00
720.3110, 12785.00
721.4640, 12845.00
722.6170, 12819.01
723.7700, 12858.17
724.9220, 12742.00
726.0740, 12814.00
727.2260, 12701.00
728.3780, 12579.00
729.5300, 12591.00
730.6810, 12577.00
731.8330, 12611.00
732.9840, 12563.05
734.1350, 12722.09
735.2860, 12819.28
736.4370, 12869.57
737.5880, 12875.47
738.7380, 12704.07
739.8880, 12761.63
741.0390, 12727.43
742.1890, 12689.47
743.3380, 12779.27
744.4880, 12633.66
745.6380, 12877.00
746.7870, 12754.00
747.9360, 12830.00
749.0850, 12837.00
750.2340, 12688.00
751.3830, 12760.17
752.5310, 12897.00
753.6800, 12796.00
754.8280, 12868.00
755.9760, 12970.00
757.1240, 12852.00
758.2720, 12939.00
759.4190, 12892.00
760.5670, 12827.00
761.7140, 13111.00
762.8610, 13120.00
764.0080, 13098.00
765.1550, 13073.00
766.3020, 13103.67
767.4480, 13118.66
768.5950, 13124.00
769.7410, 13212.00
770.8870, 13160.00
772.0330, 13229.00
773.1780, 13160.00
774.3240, 13060.00
775.4690, 13162.00
776.6140, 13234.00
777.7590, 13230.00
778.9040, 13297.00
780.0490, 13115.00
781.1940, 13232.00
782.3380, 13154.00
783.4820, 13165.00
784.6260, 13241.00
785.7700, 13153.00
786.9140, 13324.00
788.0580, 13266.56
789.2010, 13181.00
790.3450, 13173.00
791.4880, 13148.90
792.6310, 13224.00
793.7730, 13132.00
794.9160, 13177.00
796.0590, 13123.00
797.2010, 13221.00
798.3430, 13191.00
799.4850, 13331.00
800.6270, 13267.00
801.7690, 13220.00
802.9100, 13338.00
804.0520, 13271.00
805.1930, 13366.00
806.3340, 13241.00
807.4750, 13335.00
808.6160, 13540.72
809.7560, 13348.00
810.8970, 13415.04
812.0370, 13697.38
813.1770, 13315.00
814.3170, 13328.00
815.4570, 13330.00
816.5960, 13345.00
817.7360, 13259.00
818.8750, 13315.00
820.0140, 13326.00
821.1530, 13413.00
822.2920, 13373.08
823.4310, 13351.00
824.5690, 13340.00
825.7070, 13331.00
826.8460, 13333.70
827.9840, 13339.00
829.1220, 13288.68
830.2590, 13449.33
831.3970, 13563.13
832.5340, 13632.51
833.6710, 13524.57
834.8080, 13645.59
835.9450, 13674.85
837.0820, 13700.35
838.2190, 13853.60
839.3550, 13771.40
840.4910, 13922.58
841.6270, 13980.60
842.7630, 14081.25
843.8990, 14089.58
845.0350, 14126.42
846.1700, 14255.58
847.3060, 14333.64
848.4410, 14331.29
849.5760, 14592.00
850.7100, 14460.00
851.8450, 14925.00
852.9800, 15050.00
854.1140, 15046.00
855.2480, 15489.00
856.3820, 15478.00
857.5160, 15655.00
858.6500, 15995.00
859.7830, 16341.00
860.9170, 16788.00
862.0500, 16954.00
863.1830, 17438.00
864.3160, 17740.00
865.4480, 18431.00
866.5810, 18989.00
867.7130, 19623.00
868.8460, 20403.44
869.9780, 21129.61
871.1100, 22036.00
872.2410, 22774.00
873.3730, 23688.00
874.5050, 24539.00
875.6360, 25261.00
876.7670, 25431.00
877.8980, 25643.00
879.0290, 25005.00
880.1590, 24475.00
881.2900, 23497.00
882.4200, 22768.00
883.5500, 21503.00
884.6800, 20917.00
885.8100, 20248.00
886.9400, 18960.00
888.0690, 18233.00
889.1990, 17775.00
890.3280, 17205.00
891.4570, 16840.00
892.5860, 16283.00
893.7140, 15949.00
894.8430, 15682.00
895.9710, 15292.00
897.1000, 15093.00
898.2280, 15050.00
899.3560, 14872.00
900.4830, 14717.00
901.6110, 14696.00
902.7380, 14510.00
903.8660, 14391.00
904.9930, 14363.81
906.1200, 14227.00
907.2460, 14303.00
908.3730, 14241.00
909.5000, 14238.00
910.6260, 14067.00
911.7520, 14129.00
912.8780, 14018.00
914.0040, 14199.00
915.1290, 14221.00
916.2550, 14080.00
917.3800, 14145.00
918.5050, 14092.00
919.6300, 14115.00
920.7550, 14122.23
921.8800, 14131.00
923.0040, 14109.00
924.1290, 14155.00
925.2530, 14108.00
926.3770, 14107.85
927.5010, 14162.00
928.6250, 14068.00
929.7480, 14007.00
930.8720, 13974.00
931.9950, 14143.00
933.1180, 14042.00
934.2410, 14177.00
935.3640, 14145.00
936.4860, 14327.00
937.6090, 14302.00
938.7310, 14278.57
939.8530, 14284.63
940.9750, 14211.00
942.0970, 14159.00
943.2180, 14215.00
944.3400, 14143.00
945.4610, 14254.00
946.5820, 14179.51
947.7030, 14298.57
948.8240, 14370.73
949.9450, 14398.51
951.0650, 14248.96
952.1860, 14328.38
953.3060, 14316.04
954.4260, 14299.93
955.5460, 14411.57
956.6650, 14287.80
957.7850, 14397.42
958.9040, 14413.86
960.0230, 14472.94
961.1420, 14439.70
962.2610, 14434.97
963.3800, 14522.60
964.4990, 14559.09
965.6170, 14515.21
966.7350, 14576.99
967.8530, 14449.98
968.9710, 14488.64
970.0890, 14598.77
971.2070, 14559.53
972.3240, 14622.99
973.4410, 14723.00
974.5580, 14608.00
975.6750, 14626.00
976.7920, 14804.00
977.9090, 14624.00
979.0250, 14863.00
980.1410, 14869.00
981.2580, 14834.00
982.3740, 14916.61
983.4890, 14922.25
984.6050, 14978.00
985.7200, 14937.00
986.8360, 15098.00
987.9510, 14973.00
989.0660, 15068.13
990.1810, 15169.00
991.2950, 15104.00
992.4100, 15260.00
993.5240, 15157.00
994.6390, 15186.00
995.7530, 15319.00
996.8660, 15332.00
997.9800, 15230.00
999.0940, 15427.00
1000.207, 15252.00
1001.320, 15216.04
1002.433, 15311.10
1003.546, 15359.26
1004.659, 15363.03
1005.772, 15189.50
1006.884, 15244.94
1007.996, 15208.62
1009.108, 15168.53
1010.220, 15256.20
1011.332, 15108.46
1012.444, 15194.10
1013.555, 15186.59
1014.666, 15221.72
1015.777, 15164.52
1016.888, 15135.84
1017.999, 15199.51
1019.110, 15166.00
1020.220, 15148.00
1021.331, 15115.00
1022.441, 15283.00
1023.551, 15264.00
1024.661, 15142.00
1025.770, 15319.00
1026.880, 15124.00
1027.989, 15238.00
1029.098, 15163.00
1030.207, 15279.00
1031.316, 15305.00
1032.425, 15234.00
1033.533, 15448.00
1034.642, 15190.00
1035.750, 15339.00
1036.858, 15191.00
1037.966, 15362.00
1039.073, 15384.00
1040.181, 15322.00
1041.288, 15468.00
1042.396, 15427.59
1043.503, 15424.00
1044.610, 15447.00
1045.716, 15436.00
1046.823, 15437.00
1047.929, 15404.00
1049.036, 15484.00
1050.142, 15311.00
1051.248, 15366.00
1052.353, 15403.00
1053.459, 15495.00
1054.564, 15452.00
1055.670, 15545.00
1056.775, 15507.00
1057.880, 15583.00
1058.985, 15622.66
1060.089, 15664.00
1061.194, 15699.00
1062.298, 15522.00
1063.402, 15499.00
1064.506, 15541.00
1065.610, 15573.00
1066.713, 15597.00
1067.817, 15615.00
1068.920, 15600.00
1070.023, 15588.92
1071.126, 15481.00
1072.229, 15546.11
1073.332, 15541.00
1074.435, 15554.00
1075.537, 15634.00
1076.639, 15733.00
1077.741, 15621.00
1078.843, 15397.00
1079.945, 15590.00
1081.046, 15467.00
1082.148, 15370.00
1083.249, 15617.00
1084.350, 15731.00
1085.451, 15850.00
1086.551, 15521.00
1087.652, 15481.00
1088.752, 15426.00
1089.853, 15599.00
1090.953, 15329.00
1092.053, 15207.00
1093.152, 15372.00
1094.252, 15157.00
1095.351, 15176.00
1096.451, 15334.00
1097.550, 15489.00
1098.649, 15304.00
1099.748, 15425.00
1100.846, 15324.00
1101.945, 15310.00
1103.043, 15365.00
1104.141, 15244.00
1105.239, 15191.00
1106.337, 15275.00
1107.434, 15099.03
1108.532, 15190.06
1109.629, 15234.20
1110.726, 15233.96
1111.823, 15056.41
1112.920, 15107.82
1114.017, 15067.47
1115.113, 15023.38
1116.210, 15107.01
1117.306, 14955.27
1118.402, 15036.89
1119.498, 15025.36
1120.593, 15056.48
1121.689, 14995.25
1122.784, 14962.56
1123.879, 15022.23
1124.974, 15030.75
1126.069, 14958.92
1127.164, 14992.75
1128.259, 14837.79
1129.353, 14848.50
1130.447, 14930.70
1131.541, 14863.52
1132.635, 14899.05
1133.729, 14895.46
1134.822, 14714.12
1135.916, 14841.92
1137.009, 14836.04
1138.102, 14692.87
1139.195, 14554.00
1140.288, 14925.00
1141.380, 14672.00
1142.473, 14798.00
1143.565, 14671.00
1144.657, 14552.00
1145.749, 14694.00
1146.841, 14644.00
1147.932, 14586.00
1149.024, 14710.54
1150.115, 14813.72
1151.206, 14870.00
1152.297, 14881.90
1153.388, 14716.49
1154.479, 14780.04
1155.569, 14751.84
1156.659, 14719.87
1157.750, 14815.65
1158.839, 14676.03
1159.929, 14769.78
1161.019, 14770.38
1162.108, 14813.61
1163.198, 14764.52
1164.287, 14743.95
1165.376, 14815.73
1166.465, 14836.37
1167.553, 14776.66
1168.642, 14822.60
1169.730, 14679.76
1170.818, 14702.59
1171.906, 14796.89
1172.994, 14741.82
1174.082, 14789.45
1175.170, 14797.97
1176.257, 14628.72
1177.344, 14768.64
1178.431, 14774.85
1179.518, 14643.78
1180.605, 14773.10
1181.691, 14660.96
1182.778, 14635.00
1183.864, 14673.91
1184.950, 14645.20
1186.036, 14723.10
1187.122, 14698.30
1188.207, 14664.32
1189.292, 14670.39
1190.378, 14562.98
1191.463, 14666.09
1192.548, 14625.40
1193.632, 14656.20
1194.717, 14703.19
1195.801, 14626.13
1196.886, 14680.40
1197.970, 14531.01
1199.054, 14552.03
1200.137, 14554.71
1201.221, 14666.31
1202.305, 14517.90
1203.388, 14534.20
1204.471, 14620.61
1205.554, 14608.91
1206.637, 14509.00
1207.719, 14586.00
1208.802, 14541.43
1209.884, 14562.00
1210.966, 14499.00
1212.048, 14606.00
1213.130, 14524.00
1214.212, 14592.00
1215.293, 14557.00
1216.374, 14533.00
1217.456, 14693.00
1218.536, 14672.00
1219.617, 14541.00
1220.698, 14493.00
1221.778, 14606.00
1222.859, 14595.00
1223.939, 14706.00
1225.019, 14592.00
1226.099, 14611.00
1227.178, 14720.00
1228.258, 14606.00
1229.337, 14694.00
1230.417, 14679.00
1231.496, 14686.00
1232.574, 14679.26
1233.653, 14723.00
1234.732, 14650.00
1235.810, 14639.00
1236.888, 14700.00
1237.966, 14833.00
1239.044, 14692.00
1240.122, 14799.00
1241.199, 14809.13
1242.277, 14782.00
1243.354, 14828.00
1244.431, 14732.00
1245.508, 14644.00
1246.585, 14694.00
1247.661, 14747.00
1248.738, 14805.00
1249.814, 14726.00
1250.890, 14737.97
1251.966, 14849.00
1253.042, 14913.14
1254.117, 14932.88
1255.193, 14775.32
1256.268, 14846.72
1257.343, 14826.36
1258.418, 14802.23
1259.493, 14905.86
1260.567, 14774.08
1261.642, 14875.67
1262.716, 14884.11
1263.790, 14935.18
1264.864, 14893.92
1265.938, 14881.19
1267.011, 14960.80
1268.085, 14989.28
1269.158, 14937.39
1270.231, 14991.17
1271.304, 14856.16
1272.377, 14886.82
1273.450, 14988.95
1274.522, 14941.70
1275.594, 14997.16
1276.666, 15013.50
1277.738, 14852.08
1278.810, 14999.81
1279.882, 15013.85
1280.953, 14890.59
1282.025, 15027.73
1283.096, 14923.41
1284.167, 14905.27
1285.238, 14951.99
1286.308, 14931.09
1287.379, 15016.81
1288.449, 14999.81
1289.519, 14973.64
1290.589, 14987.52
1291.659, 14887.92
1292.729, 14998.84
1293.798, 14965.96
1294.868, 15004.55
1295.937, 15059.35
1297.006, 14990.09
1298.075, 15052.16
1299.143, 14910.56
1300.212, 14939.39
1301.280, 14949.86
1302.348, 15069.25
1303.416, 14928.65
1304.484, 14952.73
1305.552, 15046.94
1306.620, 15140.00
1307.687, 15093.00
1308.754, 15236.00
1309.821, 15113.00
1310.888, 15097.00
1311.955, 15184.00
1313.021, 15141.00
1314.088, 15243.00
1315.154, 15330.00
1316.220, 15429.00
1317.286, 15130.00
1318.352, 15356.00
1319.417, 15123.00
1320.483, 15176.00
1321.548, 15315.00
1322.613, 15276.00
1323.678, 15279.00
1324.743, 15268.00
1325.807, 15172.00
1326.872, 15248.00
1327.936, 15181.53
1329.000, 15268.00
1330.064, 15162.00
1331.128, 15208.00
1332.191, 15280.00
1333.255, 15345.00
1334.318, 15350.00
1335.381, 15373.32
1336.444, 15259.00
1337.507, 15372.00
1338.569, 15315.00
1339.632, 15335.00
1340.694, 15413.00
1341.756, 15395.00
1342.818, 15280.00
1343.880, 15310.00
1344.941, 15301.00
1346.003, 15195.91
1347.064, 15305.14
1348.125, 15367.48
1349.186, 15385.43
1350.247, 15226.07
1351.308, 15295.67
1352.368, 15273.51
1353.428, 15247.59
1354.489, 15349.41
1355.549, 15215.84
1356.608, 15315.64
1357.668, 15322.28
1358.727, 15371.55
1359.787, 15328.50
1360.846, 15313.97
1361.905, 15391.79
1362.964, 15418.47
1364.022, 15364.79
1365.081, 15416.78
1366.139, 15279.98
1367.197, 15308.83
1368.255, 15409.17
1369.313, 15360.13
1370.371, 15413.80
1371.428, 15428.36
1372.486, 15265.14
1373.543, 15411.08
1374.600, 15423.32
1375.657, 15298.28
1376.713, 15433.62
1377.770, 15327.51
1378.826, 15307.58
1379.882, 15352.51
1380.938, 15329.83
1381.994, 15413.75
1383.050, 15394.97
1384.106, 15367.01
1385.161, 15379.10
1386.216, 15277.71
1387.271, 15386.84
1388.326, 15352.17
1389.381, 15388.98
1390.435, 15441.98
1391.490, 15370.94
1392.544, 15431.23
1393.598, 15287.84
1394.652, 15314.88
1395.705, 15323.56
1396.759, 15441.17
1397.812, 15405.00
1398.866, 15475.00
1399.919, 15499.00
1400.972, 15441.00
1402.024, 15448.00
1403.077, 15375.00
1404.129, 15388.00
1405.181, 15458.00
1406.233, 15434.00
1407.285, 15494.00
1408.337, 15516.00
1409.389, 15642.00
1410.440, 15389.00
1411.491, 15364.00
1412.542, 15458.00
1413.593, 15400.00
1414.644, 15381.00
1415.695, 15569.00
1416.745, 15431.00
1417.795, 15388.00
1418.845, 15436.00
1419.895, 15571.00
1420.945, 15467.00
1421.995, 15485.00
1423.044, 15538.00
1424.093, 15440.00
1425.142, 15395.00
1426.191, 15463.14
1427.240, 15582.00
1428.289, 15572.00
1429.337, 15581.00
1430.385, 15614.00
1431.433, 15707.00
1432.481, 15340.00
1433.529, 15375.00
1434.577, 15433.00
1435.624, 15480.00
1436.672, 15556.00
1437.719, 15632.00
1438.766, 15611.00
1439.812, 15350.00
1440.859, 15560.00
1441.905, 15597.00
1442.952, 15470.00
1443.998, 15621.00
1445.044, 15521.00
1446.090, 15570.00
1447.135, 15669.00
1448.181, 15562.00
1449.226, 15505.00
1450.271, 15512.00
1451.316, 15505.00
1452.361, 15442.00
1453.405, 15492.00
1454.450, 15437.00
1455.494, 15539.00
1456.538, 15554.00
1457.582, 15567.89
1458.626, 15613.94
1459.670, 15578.00
1460.713, 15652.00
1461.757, 15585.00
1462.800, 15590.00
1463.843, 15562.00
1464.886, 15497.00
1465.928, 15531.64
1466.971, 15730.00
1468.013, 15608.00
1469.055, 15726.00
1470.097, 15859.55
1471.139, 15787.16
1472.181, 15818.04
1473.222, 15694.00
1474.263, 15744.00
1475.305, 15549.00
1476.346, 15569.00
1477.386, 15679.00
1478.427, 15719.00
1479.468, 15656.00
1480.508, 15724.00
1481.548, 15811.00
1482.588, 15739.00
1483.628, 15640.00
1484.668, 15717.00
1485.707, 15821.00
1486.747, 15729.00
1487.786, 15635.00
1488.825, 15897.00
1489.864, 15871.00
1490.902, 15816.00
1491.941, 15799.00
1492.979, 15720.00
1494.017, 15802.00
1495.055, 15806.00
1496.093, 15765.00
1497.131, 15742.00
1498.168, 15743.00
1499.206, 15686.92
1500.243, 15803.26
1501.280, 15872.69
1502.317, 15897.74
1503.354, 15745.47
1504.390, 15822.16
1505.426, 15807.09
1506.463, 15788.27
1507.499, 15897.19
1508.535, 15770.70
1509.570, 15877.58
1510.606, 15891.31
1511.641, 15947.67
1512.676, 15911.70
1513.711, 15904.25
1514.746, 15989.16
1515.781, 16022.92
1516.816, 15976.33
1517.850, 16035.39
1518.884, 15905.66
1519.918, 15941.60
1520.952, 16049.01
1521.986, 16007.05
1523.019, 16067.79
1524.053, 16089.42
1525.086, 15933.27
1526.119, 16086.28
1527.152, 16105.59
1528.185, 15987.62
1529.217, 16130.03
1530.250, 16030.98
1531.282, 16018.11
1532.314, 16070.11
1533.346, 16054.48
1534.377, 16145.46
1535.409, 16133.74
1536.440, 16112.84
1537.472, 16131.99
1538.503, 16037.66
1539.534, 16153.85
1540.564, 16126.22
1541.595, 16170.08
1542.625, 16230.14
1543.656, 16166.15
1544.686, 16233.49
1545.716, 16097.15
1546.745, 16131.23
1547.775, 16146.96
1548.804, 16271.62
1549.834, 16136.27
1550.863, 16165.62
1551.892, 16265.08
1552.920, 16266.42
1553.949, 16308.78
1554.977, 16229.70
1556.006, 16264.71
1557.034, 16268.27
1558.062, 16228.19
1559.089, 16383.30
1560.117, 16491.55
1561.144, 16555.38
1562.172, 16441.94
1563.199, 16557.42
1564.226, 16581.13
1565.252, 16601.04
1566.279, 16748.75
1567.305, 16661.00
1568.332, 16806.68
1569.358, 16859.14
1570.384, 16954.25
1571.409, 23874.00
##END=



