##NAMES=Ferberite
##RRUFFID=R050632
##IDEAL CHEMISTRY=Fe^2+^W^6+^O_4_
##LOCALITY=Chance mine, Boulder, Colorado, USA
##OWNER=RRUFF
##SOURCE=University of Arizona Mineral Museum
##DESCRIPTION=Dark brown rectangular prismatic crystals
##STATUS=The identification of this mineral has been confirmed by X-ray diffraction and chemical analysis
##URL=rruff.info/R050632
##MEASURED CHEMISTRY=Fe^2+^_1.00_WO_4_
##PIN_ID=L00968
##ORIENTATION=Laser parallel to c* (0 0 1). Fiducial mark perpendicular to laser is parallel to a [1 0 0]
156.2290, 12019.00
157.4550, 11647.00
158.6810, 11260.00
159.9080, 10978.00
161.1340, 10970.00
162.3590, 10957.00
163.5850, 11368.00
164.8110, 11527.00
166.0360, 11313.00
167.2610, 11327.00
168.4860, 11336.00
169.7110, 11650.00
170.9360, 11916.00
172.1610, 11835.53
173.3850, 11992.91
174.6100, 12103.43
175.8340, 12169.53
177.0580, 12058.31
178.2820, 12176.05
179.5050, 12202.00
180.7290, 12224.23
181.9520, 12374.16
183.1760, 12288.73
184.3990, 12436.63
185.6220, 12491.38
186.8450, 12588.76
188.0670, 12522.00
189.2900, 12501.00
190.5120, 12463.00
191.7340, 12533.00
192.9560, 12842.00
194.1780, 12813.00
195.4000, 13049.00
196.6220, 12961.74
197.8430, 13091.79
199.0640, 13174.93
200.2860, 13213.72
201.5070, 13075.17
202.7270, 13165.56
203.9480, 13164.22
205.1690, 13159.11
206.3890, 13281.73
207.6090, 13168.95
208.8290, 13289.55
210.0490, 13316.98
211.2690, 13060.00
212.4890, 13146.00
213.7080, 13438.00
214.9280, 13555.00
216.1470, 13268.00
217.3660, 13611.00
218.5850, 13023.43
219.8030, 12827.86
221.0220, 12059.00
222.2400, 12039.00
223.4590, 11792.00
224.6770, 11426.00
225.8950, 11174.00
227.1120, 11079.00
228.3300, 10962.00
229.5480, 10907.00
230.7650, 10824.64
231.9820, 10822.00
233.1990, 10714.00
234.4160, 10772.00
235.6330, 10757.00
236.8490, 10850.00
238.0660, 10705.00
239.2820, 10677.00
240.4980, 10738.00
241.7140, 10767.00
242.9300, 10667.00
244.1460, 10735.00
245.3610, 10725.00
246.5770, 10835.00
247.7920, 10741.00
249.0070, 10850.00
250.2220, 10773.00
251.4370, 10850.00
252.6510, 10903.00
253.8660, 10827.00
255.0800, 10992.00
256.2940, 11139.00
257.5080, 11641.00
258.7220, 11775.65
259.9360, 11708.50
261.1490, 12177.00
262.3630, 11521.00
263.5760, 11397.00
264.7890, 11576.00
266.0020, 11586.00
267.2150, 11581.00
268.4270, 11648.00
269.6400, 11656.04
270.8520, 11722.37
272.0640, 11731.00
273.2760, 11848.00
274.4880, 11919.00
275.7000, 11958.00
276.9120, 11863.00
278.1230, 11925.00
279.3340, 11762.00
280.5450, 11646.00
281.7560, 11706.00
282.9670, 11540.00
284.1780, 11529.00
285.3880, 11468.00
286.5980, 11468.00
287.8090, 11539.00
289.0190, 11503.00
290.2290, 11544.00
291.4380, 11549.00
292.6480, 11690.00
293.8570, 11672.00
295.0670, 11836.00
296.2760, 11976.00
297.4850, 12092.00
298.6930, 12207.00
299.9020, 12155.00
301.1110, 12415.00
302.3190, 12473.00
303.5270, 11923.00
304.7350, 11655.00
305.9430, 11734.00
307.1510, 11586.00
308.3580, 11568.00
309.5660, 11644.00
310.7730, 11746.00
311.9800, 11681.00
313.1870, 11705.00
314.3940, 11837.00
315.6010, 11873.00
316.8070, 11948.00
318.0130, 12071.00
319.2200, 12170.50
320.4260, 12562.00
321.6310, 12513.00
322.8370, 12807.00
324.0430, 13154.00
325.2480, 13147.00
326.4540, 13281.00
327.6590, 13445.00
328.8640, 13474.00
330.0680, 13416.00
331.2730, 13277.00
332.4780, 13148.00
333.6820, 13042.00
334.8860, 13042.00
336.0900, 12939.00
337.2940, 12804.00
338.4980, 12763.00
339.7010, 12851.00
340.9050, 12756.00
342.1080, 12524.00
343.3110, 12900.00
344.5140, 12691.00
345.7170, 12750.21
346.9200, 12823.42
348.1220, 12708.00
349.3240, 12811.00
350.5270, 12685.00
351.7290, 12584.00
352.9310, 12767.00
354.1320, 12519.00
355.3340, 12532.00
356.5350, 12537.00
357.7370, 12598.00
358.9380, 12483.71
360.1390, 12268.00
361.3400, 12275.00
362.5400, 12181.00
363.7410, 12108.00
364.9410, 12256.26
366.1410, 12127.49
367.3410, 12077.40
368.5410, 12018.00
369.7410, 11890.00
370.9400, 11795.00
372.1400, 11746.00
373.3390, 11721.00
374.5380, 11647.21
375.7370, 11491.00
376.9360, 11552.00
378.1350, 11449.00
379.3330, 11419.00
380.5310, 11484.00
381.7300, 11477.00
382.9280, 11378.00
384.1260, 11315.00
385.3230, 11382.00
386.5210, 11292.34
387.7180, 11335.38
388.9160, 11263.00
390.1130, 11390.00
391.3100, 11467.00
392.5060, 11507.00
393.7030, 11578.00
394.9000, 11690.22
396.0960, 12001.00
397.2920, 11851.00
398.4880, 12107.00
399.6840, 12027.00
400.8800, 11934.00
402.0750, 11945.00
403.2710, 11894.00
404.4660, 11523.00
405.6610, 11458.00
406.8560, 11211.00
408.0510, 11183.00
409.2450, 11050.00
410.4400, 11148.00
411.6340, 11017.00
412.8280, 10936.00
414.0220, 10801.00
415.2160, 10731.00
416.4100, 10688.82
417.6030, 10778.00
418.7970, 10648.00
419.9900, 10724.00
421.1830, 10729.00
422.3760, 10695.00
423.5690, 10713.00
424.7610, 10751.00
425.9540, 10736.62
427.1460, 10662.00
428.3380, 10727.00
429.5300, 10653.00
430.7220, 10594.00
431.9140, 10644.00
433.1050, 10655.00
434.2970, 10728.00
435.4880, 10612.00
436.6790, 10646.04
437.8700, 10716.00
439.0610, 10573.00
440.2510, 10643.00
441.4420, 10544.00
442.6320, 10717.00
443.8220, 10646.00
445.0120, 10607.00
446.2020, 10736.00
447.3910, 10669.00
448.5810, 10636.00
449.7700, 10747.00
450.9600, 10646.00
452.1490, 10691.00
453.3370, 10662.00
454.5260, 10763.00
455.7150, 10432.68
456.9030, 10761.04
458.0910, 10948.70
459.2800, 11003.22
460.4670, 10525.78
461.6550, 10735.24
462.8430, 10669.43
464.0300, 10592.32
465.2180, 10898.46
466.4050, 10498.39
467.5920, 10798.45
468.7790, 10819.03
469.9650, 10967.51
471.1520, 10841.00
472.3380, 10813.00
473.5250, 10854.00
474.7110, 10809.00
475.8970, 10884.00
477.0820, 10791.00
478.2680, 10973.00
479.4540, 10862.00
480.6390, 10813.00
481.8240, 10918.00
483.0090, 10949.00
484.1940, 11163.00
485.3780, 11140.65
486.5630, 10951.00
487.7470, 11157.00
488.9320, 11024.00
490.1160, 10995.00
491.3000, 11077.00
492.4830, 11130.00
493.6670, 11160.46
494.8500, 11236.00
496.0340, 11221.00
497.2170, 11237.00
498.4000, 11179.00
499.5820, 11208.00
500.7650, 11300.00
501.9480, 11454.00
503.1300, 11411.00
504.3120, 11373.00
505.4940, 11525.00
506.6760, 11574.00
507.8580, 11600.00
509.0390, 11610.00
510.2210, 11600.00
511.4020, 11640.20
512.5830, 11452.00
513.7640, 11683.00
514.9450, 11631.00
516.1250, 11603.00
517.3060, 11770.00
518.4860, 11638.00
519.6660, 11817.00
520.8460, 11692.00
522.0260, 11744.00
523.2060, 11794.00
524.3850, 11794.00
525.5650, 11881.00
526.7440, 11793.00
527.9230, 11870.00
529.1020, 11887.00
530.2810, 11810.00
531.4590, 11762.00
532.6380, 11736.00
533.8160, 11764.00
534.9940, 11836.00
536.1720, 11734.00
537.3500, 11729.00
538.5270, 11715.00
539.7050, 11654.00
540.8820, 11562.00
542.0590, 11596.00
543.2360, 11643.00
544.4130, 11512.00
545.5900, 11497.00
546.7660, 11595.00
547.9430, 11463.00
549.1190, 11610.00
550.2950, 11425.00
551.4710, 11422.00
552.6470, 11462.00
553.8220, 11485.00
554.9980, 11492.00
556.1730, 11359.00
557.3480, 11436.00
558.5230, 11391.95
559.6980, 11393.00
560.8730, 11407.00
562.0470, 11367.00
563.2220, 11411.00
564.3960, 11372.00
565.5700, 11461.00
566.7440, 11321.00
567.9170, 11290.00
569.0910, 11350.00
570.2640, 11548.00
571.4380, 11421.00
572.6110, 11578.00
573.7840, 11422.00
574.9570, 11413.00
576.1290, 11576.92
577.3020, 11433.86
578.4740, 11437.38
579.6460, 11357.00
580.8180, 11293.00
581.9900, 11290.00
583.1620, 11226.00
584.3330, 11226.00
585.5040, 11206.00
586.6760, 11190.54
587.8470, 11237.00
589.0180, 11183.00
590.1880, 11238.08
591.3590, 11238.00
592.5290, 11276.00
593.7000, 11318.00
594.8700, 11315.00
596.0400, 11359.00
597.2090, 11287.00
598.3790, 11322.00
599.5490, 11370.00
600.7180, 11514.00
601.8870, 11321.00
603.0560, 11392.00
604.2250, 11369.00
605.3940, 11554.00
606.5620, 11468.00
607.7300, 11420.00
608.8990, 11394.00
610.0670, 11499.00
611.2350, 11450.00
612.4020, 11478.00
613.5700, 11475.00
614.7370, 11480.00
615.9050, 11586.00
617.0720, 11449.00
618.2390, 11531.00
619.4060, 11567.00
620.5720, 11680.00
621.7390, 11694.00
622.9050, 11682.00
624.0710, 11678.16
625.2370, 11568.00
626.4030, 11595.00
627.5690, 11570.00
628.7340, 11561.00
629.9000, 11665.00
631.0650, 11518.00
632.2300, 11755.00
633.3950, 11688.00
634.5600, 11716.00
635.7240, 11723.00
636.8890, 11648.00
638.0530, 11626.00
639.2170, 11760.00
640.3810, 11828.00
641.5450, 11933.00
642.7080, 11880.00
643.8720, 11746.00
645.0350, 11866.00
646.1980, 11873.00
647.3610, 11989.00
648.5240, 12019.89
649.6870, 11956.00
650.8490, 12051.00
652.0120, 12011.00
653.1740, 11930.00
654.3360, 12122.00
655.4980, 12172.00
656.6600, 12157.00
657.8210, 12294.00
658.9830, 12127.00
660.1440, 12177.00
661.3050, 12143.00
662.4660, 12353.00
663.6270, 12398.00
664.7870, 12311.00
665.9480, 12501.00
667.1080, 12420.00
668.2680, 12485.00
669.4280, 12542.00
670.5880, 12663.00
671.7480, 12647.00
672.9070, 12826.00
674.0670, 12933.00
675.2260, 12978.00
676.3850, 13169.00
677.5440, 13464.00
678.7030, 13162.00
679.8610, 13264.00
681.0200, 13850.00
682.1780, 13332.00
683.3360, 13543.00
684.4940, 13488.00
685.6520, 13580.00
686.8090, 13756.00
687.9670, 13644.00
689.1240, 13596.00
690.2810, 13657.00
691.4380, 13634.00
692.5950, 13632.00
693.7520, 13358.00
694.9080, 13445.00
696.0650, 13216.00
697.2210, 13116.00
698.3770, 13081.00
699.5330, 13159.00
700.6880, 12950.00
701.8440, 12903.00
702.9990, 12787.00
704.1550, 12709.00
705.3100, 12786.00
706.4650, 12707.00
707.6190, 12531.00
708.7740, 12577.00
709.9290, 12446.00
711.0830, 12515.00
712.2370, 12322.00
713.3910, 12391.00
714.5450, 12373.00
715.6980, 12229.00
716.8520, 12317.00
718.0050, 12369.00
719.1580, 12134.00
720.3110, 12264.00
721.4640, 12239.00
722.6170, 12475.00
723.7700, 12270.00
724.9220, 12163.00
726.0740, 12222.00
727.2260, 12126.00
728.3780, 12145.00
729.5300, 12174.00
730.6810, 12061.00
731.8330, 12189.00
732.9840, 12233.00
734.1350, 12283.00
735.2860, 12314.00
736.4370, 12227.00
737.5880, 12292.00
738.7380, 12109.00
739.8880, 12229.00
741.0390, 12225.00
742.1890, 12299.00
743.3380, 12301.00
744.4880, 12439.00
745.6380, 12423.00
746.7870, 12350.00
747.9360, 12398.00
749.0850, 12561.00
750.2340, 12403.00
751.3830, 12563.00
752.5310, 12561.00
753.6800, 12541.00
754.8280, 12512.00
755.9760, 12527.00
757.1240, 12574.78
758.2720, 12670.00
759.4190, 12717.00
760.5670, 12794.00
761.7140, 12867.00
762.8610, 12885.00
764.0080, 12922.08
765.1550, 12862.00
766.3020, 12953.00
767.4480, 12926.00
768.5950, 12958.00
769.7410, 13045.00
770.8870, 13025.00
772.0330, 12965.00
773.1780, 12988.00
774.3240, 12885.00
775.4690, 13002.00
776.6140, 13095.00
777.7590, 12970.00
778.9040, 13065.00
780.0490, 13032.00
781.1940, 12934.00
782.3380, 12940.00
783.4820, 12893.00
784.6260, 13047.00
785.7700, 12860.00
786.9140, 12919.00
788.0580, 12823.00
789.2010, 12786.00
790.3450, 12876.00
791.4880, 12832.00
792.6310, 12821.00
793.7730, 12888.20
794.9160, 12857.00
796.0590, 12907.00
797.2010, 12819.00
798.3430, 12830.43
799.4850, 12648.00
800.6270, 12753.00
801.7690, 12781.00
802.9100, 12655.00
804.0520, 12703.00
805.1930, 12546.00
806.3340, 12828.00
807.4750, 12678.62
808.6160, 12714.00
809.7560, 12527.00
810.8970, 12697.00
812.0370, 12548.00
813.1770, 12524.00
814.3170, 12547.00
815.4570, 12629.00
816.5960, 12479.00
817.7360, 12580.00
818.8750, 12483.00
820.0140, 12577.00
821.1530, 12503.00
822.2920, 12574.00
823.4310, 12514.00
824.5690, 12497.00
825.7070, 12633.00
826.8460, 12578.00
827.9840, 12545.00
829.1220, 12630.00
830.2590, 12699.00
831.3970, 12777.00
832.5340, 12816.00
833.6710, 12914.00
834.8080, 12941.00
835.9450, 12924.00
837.0820, 13131.00
838.2190, 13235.00
839.3550, 13167.00
840.4910, 13323.00
841.6270, 13415.00
842.7630, 13716.00
843.8990, 13716.00
845.0350, 13955.00
846.1700, 14051.00
847.3060, 14246.30
848.4410, 14321.00
849.5760, 14643.00
850.7100, 14889.00
851.8450, 15012.00
852.9800, 15508.00
854.1140, 15614.00
855.2480, 16044.00
856.3820, 16526.00
857.5160, 16839.15
858.6500, 17536.00
859.7830, 17833.00
860.9170, 18314.00
862.0500, 19121.00
863.1830, 19868.12
864.3160, 20871.00
865.4480, 21890.00
866.5810, 23147.00
867.7130, 24389.00
868.8460, 25579.00
869.9780, 27212.00
871.1100, 28680.00
872.2410, 30012.00
873.3730, 30884.00
874.5050, 31725.00
875.6360, 31664.00
876.7670, 31403.00
877.8980, 30503.00
879.0290, 29224.00
880.1590, 27534.00
881.2900, 25801.00
882.4200, 24237.00
883.5500, 22563.00
884.6800, 21221.00
885.8100, 19989.00
886.9400, 18868.00
888.0690, 17890.00
889.1990, 17090.00
890.3280, 16657.00
891.4570, 15808.00
892.5860, 15023.00
893.7140, 14955.00
894.8430, 14391.00
895.9710, 14199.00
897.1000, 13881.00
898.2280, 13543.00
899.3560, 13416.00
900.4830, 13291.00
901.6110, 13183.00
902.7380, 13054.87
903.8660, 12911.50
904.9930, 12805.00
906.1200, 12652.00
907.2460, 12510.00
908.3730, 12466.00
909.5000, 12433.00
910.6260, 12450.00
911.7520, 12331.00
912.8780, 12421.00
914.0040, 12316.00
915.1290, 12364.00
916.2550, 12315.00
917.3800, 12273.00
918.5050, 12435.00
919.6300, 12291.00
920.7550, 12383.00
921.8800, 12253.00
923.0040, 12254.00
924.1290, 12264.00
925.2530, 12247.75
926.3770, 12462.00
927.5010, 12373.00
928.6250, 12171.00
929.7480, 12360.00
930.8720, 12282.00
931.9950, 12300.00
933.1180, 12232.00
934.2410, 12212.00
935.3640, 12340.00
936.4860, 12361.00
937.6090, 12267.00
938.7310, 12205.00
939.8530, 12294.00
940.9750, 12337.00
942.0970, 12364.00
943.2180, 12401.49
944.3400, 12381.00
945.4610, 12401.00
946.5820, 12344.00
947.7030, 12270.00
948.8240, 12212.00
949.9450, 12256.00
951.0650, 12306.00
952.1860, 12048.00
953.3060, 12012.00
954.4260, 11885.00
955.5460, 11770.00
956.6650, 11743.38
957.7850, 11687.00
958.9040, 11630.00
960.0230, 11626.00
961.1420, 11500.00
962.2610, 11454.00
963.3800, 11400.00
964.4990, 11430.00
965.6170, 11306.00
966.7350, 11332.11
967.8530, 11266.00
968.9710, 11297.00
970.0890, 11215.00
971.2070, 11130.00
972.3240, 11094.00
973.4410, 11060.00
974.5580, 11086.00
975.6750, 11141.00
976.7920, 11116.00
977.9090, 11157.00
979.0250, 11125.00
980.1410, 11109.00
981.2580, 11081.00
982.3740, 11097.00
983.4890, 10938.00
984.6050, 11112.00
985.7200, 11187.00
986.8360, 11072.00
987.9510, 11000.00
989.0660, 11120.00
990.1810, 11054.00
991.2950, 11036.00
992.4100, 11127.00
993.5240, 11104.00
994.6390, 11020.00
995.7530, 11021.00
996.8660, 11126.00
997.9800, 11086.00
999.0940, 11035.00
1000.207, 11105.00
1001.320, 11014.00
1002.433, 11019.00
1003.546, 10906.00
1004.659, 11049.00
1005.772, 11147.00
1006.884, 10822.00
1007.996, 11034.00
1009.108, 11076.00
1010.220, 10900.00
1011.332, 10966.00
1012.444, 11061.00
1013.555, 11047.00
1014.666, 10941.00
1015.777, 10961.00
1016.888, 11093.00
1017.999, 10842.00
1019.110, 10855.00
1020.220, 10746.00
1021.331, 11014.00
1022.441, 11079.00
1023.551, 10924.00
1024.661, 10891.00
1025.770, 10981.00
1026.880, 10934.00
1027.989, 10921.00
1029.098, 10893.00
1030.207, 10935.00
1031.316, 10854.00
1032.425, 11085.00
1033.533, 11032.00
1034.642, 10964.00
1035.750, 11108.00
1036.858, 10962.00
1037.966, 10965.00
1039.073, 10858.00
1040.181, 10866.01
1041.288, 10909.00
1042.396, 10938.00
1043.503, 10923.00
1044.610, 11035.00
1045.716, 10931.00
1046.823, 10958.00
1047.929, 11022.00
1049.036, 11053.00
1050.142, 11094.90
1051.248, 11083.46
1052.353, 11122.00
1053.459, 11060.00
1054.564, 11065.02
1055.670, 10988.00
1056.775, 11021.00
1057.880, 10938.00
1058.985, 10901.00
1060.089, 11090.00
1061.194, 11112.00
1062.298, 11112.00
1063.402, 10987.00
1064.506, 11029.00
1065.610, 11106.00
1066.713, 11148.00
1067.817, 11101.00
1068.920, 11066.00
1070.023, 11133.00
1071.126, 11124.00
1072.229, 11054.00
1073.332, 11008.00
1074.435, 11045.00
1075.537, 11077.00
1076.639, 11172.00
1077.741, 10983.00
1078.843, 11030.00
1079.945, 11035.00
1081.046, 10961.00
1082.148, 10921.00
1083.249, 10922.00
1084.350, 11070.00
1085.451, 11069.00
1086.551, 10991.00
1087.652, 11033.00
1088.752, 11008.00
1089.853, 10828.00
1090.953, 10893.00
1092.053, 10847.00
1093.152, 10926.00
1094.252, 10943.00
1095.351, 10924.00
1096.451, 10874.00
1097.550, 10833.00
1098.649, 10825.34
1099.748, 10796.56
1100.846, 10811.00
1101.945, 10802.00
1103.043, 10804.00
1104.141, 10870.43
1105.239, 10838.61
1106.337, 10892.00
1107.434, 10753.70
1108.532, 10854.04
1109.629, 10907.48
1110.726, 10916.53
1111.823, 10748.28
1112.920, 10808.98
1114.017, 10777.93
1115.113, 10743.12
1116.210, 10836.05
1117.306, 10693.59
1118.402, 10784.51
1119.498, 10782.26
1120.593, 10822.66
1121.689, 10770.72
1122.784, 10747.31
1123.879, 10816.25
1124.974, 10834.06
1126.069, 10771.50
1127.164, 10814.61
1128.259, 10668.93
1129.353, 10688.92
1130.447, 10780.38
1131.541, 10722.47
1132.635, 10767.27
1133.729, 10772.96
1134.822, 10600.88
1135.916, 10737.95
1137.009, 10741.33
1138.102, 10607.42
1139.195, 10733.91
1140.288, 10618.93
1141.380, 10590.15
1142.473, 10626.22
1143.565, 10594.68
1144.657, 10669.75
1145.749, 10642.11
1146.841, 10605.31
1147.932, 10608.55
1149.024, 10498.31
1150.115, 10598.59
1151.206, 10555.07
1152.297, 10583.04
1153.388, 10627.20
1154.479, 10547.31
1155.569, 10598.76
1156.659, 10446.54
1157.750, 10464.73
1158.839, 10464.58
1159.929, 10573.36
1161.019, 10422.13
1162.108, 10435.60
1163.198, 10519.19
1164.287, 10504.66
1165.376, 10531.16
1166.465, 10436.21
1167.553, 10455.36
1168.642, 10443.05
1169.730, 10539.42
1170.818, 10550.00
1171.906, 10457.12
1172.994, 10364.67
1174.082, 10468.86
1175.170, 10386.68
1176.257, 10394.77
1177.344, 10390.00
1178.431, 10432.00
1179.518, 10390.00
1180.605, 10497.00
1181.691, 10357.00
1182.778, 10451.00
1183.864, 10657.00
1184.950, 10548.00
1186.036, 10448.00
1187.122, 10520.00
1188.207, 10441.00
1189.292, 10369.00
1190.378, 10544.00
1191.463, 10445.00
1192.548, 10510.00
1193.632, 10542.00
1194.717, 10340.00
1195.801, 10301.00
1196.886, 10417.00
1197.970, 10302.94
1199.054, 10487.00
1200.137, 10297.00
1201.221, 10284.00
1202.305, 10319.00
1203.388, 10557.00
1204.471, 10481.00
1205.554, 10407.00
1206.637, 10387.00
1207.719, 10392.69
1208.802, 10398.54
1209.884, 10430.00
1210.966, 10484.00
1212.048, 10428.00
1213.130, 10489.00
1214.212, 10381.00
1215.293, 10402.00
1216.374, 10519.00
1217.456, 10439.00
1218.536, 10402.00
1219.617, 10465.00
1220.698, 10520.00
1221.778, 10560.00
1222.859, 10600.00
1223.939, 10511.00
1225.019, 10544.49
1226.099, 10635.00
1227.178, 10487.00
1228.258, 10535.00
1229.337, 10453.00
1230.417, 10525.00
1231.496, 10433.00
1232.574, 10418.00
1233.653, 10610.00
1234.732, 10404.00
1235.810, 10494.00
1236.888, 10407.00
1237.966, 10407.00
1239.044, 10499.00
1240.122, 10529.00
1241.199, 10530.39
1242.277, 10439.00
1243.354, 10505.00
1244.431, 10467.00
1245.508, 10407.00
1246.585, 10434.13
1247.661, 10398.91
1248.738, 10418.00
1249.814, 10432.00
1250.890, 10423.00
1251.966, 10541.00
1253.042, 10423.00
1254.117, 10529.00
1255.193, 10491.00
1256.268, 10525.00
1257.343, 10571.00
1258.418, 10612.00
1259.493, 10490.00
1260.567, 10463.00
1261.642, 10491.00
1262.716, 10348.00
1263.790, 10479.00
1264.864, 10431.00
1265.938, 10399.00
1267.011, 10526.00
1268.085, 10631.00
1269.158, 10379.00
1270.231, 10445.00
1271.304, 10389.00
1272.377, 10489.00
1273.450, 10534.00
1274.522, 10549.00
1275.594, 10365.00
1276.666, 10515.00
1277.738, 10429.00
1278.810, 10603.00
1279.882, 10378.00
1280.953, 10339.00
1282.025, 10438.00
1283.096, 10326.00
1284.167, 10458.00
1285.238, 10508.00
1286.308, 10454.00
1287.379, 10456.00
1288.449, 10341.35
1289.519, 10453.64
1290.589, 10519.03
1291.659, 10540.03
1292.729, 10383.72
1293.798, 10456.37
1294.868, 10437.27
1295.937, 10414.40
1297.006, 10519.27
1298.075, 10388.75
1299.143, 10491.59
1300.212, 10501.28
1301.280, 10553.60
1302.348, 10513.60
1303.416, 10502.11
1304.484, 10582.98
1305.552, 10612.71
1306.620, 10361.00
1307.687, 10421.00
1308.754, 10646.00
1309.821, 10377.00
1310.888, 10454.00
1311.955, 10527.00
1313.021, 10494.00
1314.088, 10499.00
1315.154, 10452.00
1316.220, 10444.00
1317.286, 10450.15
1318.352, 10436.51
1319.417, 10483.00
1320.483, 10433.00
1321.548, 10472.00
1322.613, 10449.00
1323.678, 10381.00
1324.743, 10374.00
1325.807, 10397.00
1326.872, 10691.00
1327.936, 10344.00
1329.000, 10596.00
1330.064, 10512.00
1331.128, 10359.00
1332.191, 10462.00
1333.255, 10473.00
1334.318, 10339.00
1335.381, 10359.00
1336.444, 10408.00
1337.507, 10403.00
1338.569, 10249.00
1339.632, 10426.00
1340.694, 10340.00
1341.756, 10476.00
1342.818, 10441.00
1343.880, 10468.00
1344.941, 10405.00
1346.003, 10373.00
1347.064, 10400.00
1348.125, 10411.00
1349.186, 10394.00
1350.247, 10433.00
1351.308, 10417.00
1352.368, 10396.00
1353.428, 10390.00
1354.489, 10456.00
1355.549, 10473.00
1356.608, 10486.00
1357.668, 10429.00
1358.727, 10387.00
1359.787, 10435.00
1360.846, 10369.00
1361.905, 10488.00
1362.964, 10309.00
1364.022, 10413.00
1365.081, 10355.00
1366.139, 10379.00
1367.197, 10501.00
1368.255, 10408.00
1369.313, 10469.00
1370.371, 10334.00
1371.428, 10350.00
1372.486, 10289.00
1373.543, 10474.00
1374.600, 10430.00
1375.657, 10447.00
1376.713, 10350.00
1377.770, 10416.00
1378.826, 10412.00
1379.882, 10396.00
1380.938, 10346.00
1381.994, 10556.00
1383.050, 10374.00
1384.106, 10529.00
1385.161, 10337.00
1386.216, 10413.00
1387.271, 10326.00
1388.326, 10397.00
1389.381, 10366.00
1390.435, 10392.00
1391.490, 10383.00
1392.544, 10304.00
1393.598, 10441.00
1394.652, 10316.00
1395.705, 10280.00
1396.759, 10374.00
1397.812, 10457.00
1398.866, 10378.00
1399.919, 10392.00
1400.972, 10409.00
1402.024, 10407.00
1403.077, 10433.00
1404.129, 10401.55
1405.181, 10394.12
1406.233, 10343.00
1407.285, 10327.00
1408.337, 10307.00
1409.389, 10231.00
1410.440, 10390.00
1411.491, 10261.00
1412.542, 10352.00
1413.593, 10339.00
1414.644, 10312.00
1415.695, 10395.00
1416.745, 10378.00
1417.795, 10509.87
1418.845, 10452.33
1419.895, 10458.95
1420.945, 10400.00
1421.995, 10347.00
1423.044, 10383.00
1424.093, 10220.00
1425.142, 10271.00
1426.191, 10258.00
1427.240, 10252.00
1428.289, 10376.00
1429.337, 10382.00
1430.385, 10349.00
1431.433, 10267.00
1432.481, 10449.00
1433.529, 10238.00
1434.577, 10410.00
1435.624, 10208.00
1436.672, 10346.00
1437.719, 10363.00
1438.766, 10383.00
1439.812, 10294.00
1440.859, 10265.00
1441.905, 10423.00
1442.952, 10492.00
1443.998, 10380.00
1445.044, 10395.00
1446.090, 10323.00
1447.135, 10275.00
1448.181, 10278.00
1449.226, 10296.00
1450.271, 10280.00
1451.316, 10242.00
1452.361, 10221.00
1453.405, 10320.00
1454.450, 10259.00
1455.494, 10383.00
1456.538, 10381.00
1457.582, 10419.00
1458.626, 10334.29
1459.670, 10439.23
1460.713, 10497.27
1461.757, 10510.93
1462.800, 10347.27
1463.843, 10412.58
1464.886, 10386.13
1465.928, 10355.92
1466.971, 10453.45
1468.013, 10315.58
1469.055, 10411.09
1470.097, 10413.44
1471.139, 10458.43
1472.181, 10411.09
1473.222, 10392.27
1474.263, 10465.81
1475.305, 10488.20
1476.346, 10430.24
1477.386, 10477.94
1478.427, 10336.85
1479.468, 10361.43
1480.508, 10457.48
1481.548, 10404.16
1482.588, 10337.00
1483.628, 10325.00
1484.668, 10345.00
1485.707, 10433.00
1486.747, 10290.00
1487.786, 10382.00
1488.825, 10266.00
1489.864, 10443.00
1490.902, 10324.00
1491.941, 10282.00
1492.979, 10365.00
1494.017, 10407.00
1495.055, 10279.00
1496.093, 10449.00
1497.131, 10266.00
1498.168, 10468.00
1499.206, 10315.00
1500.243, 10398.00
1501.280, 10413.00
1502.317, 10398.00
1503.354, 10368.00
1504.390, 10353.00
1505.426, 10443.00
1506.463, 10399.00
1507.499, 10455.00
1508.535, 10455.00
1509.570, 10483.00
1510.606, 10389.00
1511.641, 10385.00
1512.676, 10355.00
1513.711, 10315.00
1514.746, 10447.00
1515.781, 10358.00
1516.816, 10395.00
1517.850, 10473.00
1518.884, 10307.00
1519.918, 10425.00
1520.952, 10351.00
1521.986, 10347.00
1523.019, 10364.00
1524.053, 10350.00
1525.086, 10348.00
1526.119, 10509.00
1527.152, 10302.00
1528.185, 10475.00
1529.217, 10465.00
1530.250, 10366.00
1531.282, 10468.00
1532.314, 10466.00
1533.346, 10400.00
1534.377, 10350.00
1535.409, 10437.00
1536.440, 10389.00
1537.472, 10497.00
1538.503, 10426.00
1539.534, 10363.00
1540.564, 10465.00
1541.595, 10494.00
1542.625, 10452.00
1543.656, 10411.00
1544.686, 10318.00
1545.716, 10331.00
1546.745, 10356.00
1547.775, 10481.00
1548.804, 10595.00
1549.834, 10571.00
1550.863, 10537.00
1551.892, 10637.00
1552.920, 10719.00
1553.949, 10711.67
1554.977, 10702.07
1556.006, 10735.00
1557.034, 10570.00
1558.062, 10543.00
1559.089, 10455.00
1560.117, 10554.00
1561.144, 10391.00
1562.172, 10490.00
1563.199, 10442.00
1564.226, 10404.00
1565.252, 10543.00
1566.279, 10421.00
1567.305, 10481.00
1568.332, 10835.00
1569.358, 11294.00
1570.384, 10515.00
1571.409, 10377.00
##END=



