##NAMES=Ferberite
##RRUFFID=R050090
##IDEAL CHEMISTRY=Fe^2+^W^6+^O_4_
##LOCALITY=Yaogangxian mine, Cheng Zhu City, South Hunan, China
##OWNER=RRUFF
##SOURCE=Rock Currier
##DESCRIPTION=Dark gray tabular crystal
##STATUS=The identification of this mineral has been confirmed by X-ray diffraction and chemical analysis
##URL=rruff.info/R050090
##MEASURED CHEMISTRY=(Fe^2+^_0.56_Mn_0.44_)W_1.00_O_4_
##PIN_ID=L01304
##ORIENTATION=Laser parallel to -b* (0 -1 0). Fiducial mark perpendicular to laser is parallel to c [0 0 1]
98.41600, 16686.00
99.64900, 16483.00
100.8830, 16584.00
102.1160, 16721.00
103.3490, 16869.00
104.5820, 17296.00
105.8150, 17799.00
107.0470, 19874.00
108.2800, 20190.00
109.5120, 22165.00
110.7440, 22471.00
111.9760, 20533.00
113.2080, 19899.00
114.4400, 20041.00
115.6710, 20074.00
116.9030, 20424.00
118.1340, 20626.00
119.3650, 20606.00
120.5960, 19762.69
121.8270, 19463.37
123.0580, 19117.62
124.2880, 18728.25
125.5190, 18163.01
126.7490, 18681.00
127.9790, 19512.00
129.2090, 20083.00
130.4390, 19758.63
131.6680, 20106.00
132.8980, 18968.00
134.1270, 17922.00
135.3560, 17669.00
136.5850, 17218.00
137.8140, 17119.00
139.0430, 17098.00
140.2710, 17165.00
141.5000, 16939.00
142.7280, 16690.00
143.9560, 16417.00
145.1840, 16322.00
146.4120, 16274.00
147.6390, 16203.08
148.8670, 16345.00
150.0940, 16282.00
151.3210, 16427.00
152.5490, 16609.00
153.7750, 16647.00
155.0020, 16547.00
156.2290, 16586.00
157.4550, 16494.00
158.6810, 16243.00
159.9080, 16295.00
161.1340, 16118.00
162.3590, 16219.00
163.5850, 16333.00
164.8110, 16430.00
166.0360, 16629.00
167.2610, 16815.00
168.4860, 16703.00
169.7110, 16699.00
170.9360, 16863.00
172.1610, 16528.00
173.3850, 16750.00
174.6100, 16544.00
175.8340, 16510.00
177.0580, 16333.00
178.2820, 16456.00
179.5050, 16644.00
180.7290, 16538.00
181.9520, 16683.00
183.1760, 16721.00
184.3990, 16781.00
185.6220, 16744.00
186.8450, 16838.00
188.0670, 16850.00
189.2900, 17041.00
190.5120, 17141.00
191.7340, 17081.00
192.9560, 17265.00
194.1780, 17319.00
195.4000, 17511.00
196.6220, 17479.00
197.8430, 17486.00
199.0640, 17695.00
200.2860, 17593.00
201.5070, 17943.00
202.7270, 18125.00
203.9480, 18201.00
205.1690, 17933.00
206.3890, 17274.00
207.6090, 16785.00
208.8290, 16640.00
210.0490, 16472.00
211.2690, 16385.00
212.4890, 16379.00
213.7080, 16439.00
214.9280, 16512.00
216.1470, 16504.00
217.3660, 16438.00
218.5850, 16278.00
219.8030, 16299.00
221.0220, 16369.00
222.2400, 16245.00
223.4590, 16342.00
224.6770, 16428.00
225.8950, 16487.00
227.1120, 16539.00
228.3300, 16476.00
229.5480, 16351.00
230.7650, 16392.00
231.9820, 16606.00
233.1990, 16306.00
234.4160, 16524.00
235.6330, 16513.00
236.8490, 16509.00
238.0660, 16419.00
239.2820, 16453.00
240.4980, 16455.00
241.7140, 16424.00
242.9300, 16414.00
244.1460, 16631.00
245.3610, 16675.00
246.5770, 16311.00
247.7920, 16536.00
249.0070, 16552.00
250.2220, 16459.00
251.4370, 16610.00
252.6510, 16711.00
253.8660, 16741.00
255.0800, 16848.00
256.2940, 16740.68
257.5080, 16938.14
258.7220, 17089.17
259.9360, 17196.25
261.1490, 17127.70
262.3630, 17285.92
263.5760, 17353.22
264.7890, 17295.00
266.0020, 17262.00
267.2150, 17190.00
268.4270, 17221.00
269.6400, 17291.00
270.8520, 17156.00
272.0640, 17190.00
273.2760, 16986.00
274.4880, 17065.00
275.7000, 17177.00
276.9120, 16986.00
278.1230, 17169.00
279.3340, 17120.00
280.5450, 17001.00
281.7560, 16895.00
282.9670, 16921.04
284.1780, 16916.00
285.3880, 16964.00
286.5980, 16983.00
287.8090, 16985.00
289.0190, 17061.00
290.2290, 16959.00
291.4380, 16961.00
292.6480, 16845.00
293.8570, 16997.00
295.0670, 16914.00
296.2760, 16950.00
297.4850, 16898.00
298.6930, 16916.00
299.9020, 17002.00
301.1110, 16929.00
302.3190, 16966.00
303.5270, 17003.08
304.7350, 16994.37
305.9430, 17050.00
307.1510, 17076.00
308.3580, 17033.00
309.5660, 17148.00
310.7730, 17184.00
311.9800, 17342.00
313.1870, 17165.00
314.3940, 17275.00
315.6010, 17292.00
316.8070, 17249.00
318.0130, 17271.00
319.2200, 17433.00
320.4260, 17423.00
321.6310, 17420.00
322.8370, 17346.00
324.0430, 17539.00
325.2480, 17624.00
326.4540, 17720.00
327.6590, 17618.00
328.8640, 17652.00
330.0680, 17501.00
331.2730, 17624.00
332.4780, 17663.00
333.6820, 17687.00
334.8860, 17602.00
336.0900, 17633.00
337.2940, 17753.00
338.4980, 17732.00
339.7010, 17556.00
340.9050, 17772.00
342.1080, 17648.00
343.3110, 17784.00
344.5140, 17670.00
345.7170, 17877.00
346.9200, 17967.00
348.1220, 17941.00
349.3240, 17676.00
350.5270, 17875.00
351.7290, 17715.00
352.9310, 17738.00
354.1320, 17956.00
355.3340, 17887.00
356.5350, 18014.00
357.7370, 17980.00
358.9380, 18009.00
360.1390, 18030.00
361.3400, 17913.00
362.5400, 17893.00
363.7410, 18135.00
364.9410, 18052.00
366.1410, 18176.00
367.3410, 18094.00
368.5410, 18218.00
369.7410, 18264.00
370.9400, 18047.00
372.1400, 18222.00
373.3390, 18327.00
374.5380, 18256.00
375.7370, 18119.00
376.9360, 18227.00
378.1350, 18199.00
379.3330, 18149.00
380.5310, 18242.00
381.7300, 18381.00
382.9280, 18503.00
384.1260, 18564.00
385.3230, 18687.00
386.5210, 18776.00
387.7180, 18793.00
388.9160, 19016.00
390.1130, 19183.00
391.3100, 19373.00
392.5060, 19989.00
393.7030, 20463.00
394.9000, 20897.00
396.0960, 21367.00
397.2920, 21707.00
398.4880, 21757.00
399.6840, 21656.00
400.8800, 21408.00
402.0750, 20860.00
403.2710, 20391.00
404.4660, 19952.00
405.6610, 19689.00
406.8560, 19364.00
408.0510, 19262.00
409.2450, 19150.00
410.4400, 19094.00
411.6340, 18801.00
412.8280, 18730.00
414.0220, 18590.00
415.2160, 18645.00
416.4100, 18774.00
417.6030, 18585.00
418.7970, 18507.00
419.9900, 18768.00
421.1830, 18361.00
422.3760, 18465.00
423.5690, 18445.00
424.7610, 18427.00
425.9540, 18412.00
427.1460, 18261.00
428.3380, 18520.00
429.5300, 18271.00
430.7220, 18509.00
431.9140, 18381.00
433.1050, 18440.00
434.2970, 18389.00
435.4880, 18294.00
436.6790, 18331.00
437.8700, 18486.00
439.0610, 18611.00
440.2510, 18559.00
441.4420, 18538.00
442.6320, 18538.00
443.8220, 18663.00
445.0120, 18449.00
446.2020, 18558.00
447.3910, 18477.00
448.5810, 18669.00
449.7700, 18654.19
450.9600, 18665.00
452.1490, 18648.00
453.3370, 18765.00
454.5260, 18622.00
455.7150, 18774.00
456.9030, 18704.00
458.0910, 18705.00
459.2800, 18806.00
460.4670, 18748.00
461.6550, 18761.00
462.8430, 18927.00
464.0300, 18668.00
465.2180, 18559.00
466.4050, 18719.00
467.5920, 18810.00
468.7790, 18680.00
469.9650, 18742.00
471.1520, 18850.00
472.3380, 18892.00
473.5250, 19070.00
474.7110, 18707.00
475.8970, 18901.00
477.0820, 19044.00
478.2680, 18915.00
479.4540, 19107.00
480.6390, 18976.00
481.8240, 18901.00
483.0090, 18994.00
484.1940, 19170.00
485.3780, 18981.00
486.5630, 19028.00
487.7470, 19139.00
488.9320, 19083.00
490.1160, 19153.00
491.3000, 19227.00
492.4830, 19167.00
493.6670, 19251.00
494.8500, 19157.00
496.0340, 19164.00
497.2170, 19071.00
498.4000, 19112.00
499.5820, 19149.87
500.7650, 19458.00
501.9480, 19260.00
503.1300, 19329.00
504.3120, 19317.00
505.4940, 19235.00
506.6760, 19129.00
507.8580, 19356.00
509.0390, 19280.00
510.2210, 19401.00
511.4020, 19456.00
512.5830, 19426.00
513.7640, 19401.00
514.9450, 19552.00
516.1250, 19348.00
517.3060, 19526.00
518.4860, 19401.00
519.6660, 19537.00
520.8460, 19705.00
522.0260, 19674.00
523.2060, 19683.00
524.3850, 19703.33
525.5650, 19658.00
526.7440, 19700.00
527.9230, 19723.00
529.1020, 19824.00
530.2810, 19815.00
531.4590, 19890.00
532.6380, 19824.00
533.8160, 19838.00
534.9940, 19744.00
536.1720, 19785.00
537.3500, 19806.00
538.5270, 19958.00
539.7050, 20021.00
540.8820, 19988.00
542.0590, 19831.00
543.2360, 19849.00
544.4130, 19833.31
545.5900, 19676.00
546.7660, 19885.00
547.9430, 19842.00
549.1190, 19863.00
550.2950, 19770.00
551.4710, 19776.00
552.6470, 19924.00
553.8220, 19894.00
554.9980, 19823.00
556.1730, 19718.00
557.3480, 19773.00
558.5230, 19787.00
559.6980, 19880.00
560.8730, 19849.58
562.0470, 19827.88
563.2220, 19821.00
564.3960, 19763.00
565.5700, 19772.00
566.7440, 19844.00
567.9170, 19816.00
569.0910, 19786.00
570.2640, 19758.00
571.4380, 19709.00
572.6110, 19655.00
573.7840, 19748.00
574.9570, 19608.00
576.1290, 19770.00
577.3020, 19681.00
578.4740, 19553.00
579.6460, 19506.00
580.8180, 19469.00
581.9900, 19549.00
583.1620, 19485.00
584.3330, 19511.00
585.5040, 19338.00
586.6760, 19452.00
587.8470, 19395.00
589.0180, 19340.00
590.1880, 19363.00
591.3590, 19278.00
592.5290, 19176.00
593.7000, 19241.00
594.8700, 19332.00
596.0400, 19446.00
597.2090, 19176.00
598.3790, 19404.00
599.5490, 19385.00
600.7180, 19317.00
601.8870, 19450.09
603.0560, 19553.20
604.2250, 19609.87
605.3940, 19622.60
606.5620, 19459.78
607.7300, 19523.65
608.8990, 19496.67
610.0670, 19465.97
611.2350, 19561.74
612.4020, 19424.46
613.5700, 19518.23
614.7370, 19519.77
615.9050, 19563.51
617.0720, 19515.86
618.2390, 19496.43
619.4060, 19568.45
620.5720, 19489.00
621.7390, 19508.00
622.9050, 19649.00
624.0710, 19466.00
625.2370, 19639.00
626.4030, 19535.00
627.5690, 19704.00
628.7340, 19711.00
629.9000, 19574.00
631.0650, 19820.00
632.2300, 19643.00
633.3950, 19793.00
634.5600, 19772.00
635.7240, 19581.00
636.8890, 19734.00
638.0530, 19741.00
639.2170, 19736.00
640.3810, 19809.00
641.5450, 19561.00
642.7080, 19680.00
643.8720, 19688.00
645.0350, 19889.00
646.1980, 19727.00
647.3610, 19709.00
648.5240, 19901.00
649.6870, 19734.00
650.8490, 19646.00
652.0120, 19821.00
653.1740, 19741.00
654.3360, 19978.00
655.4980, 19789.00
656.6600, 19935.00
657.8210, 19882.00
658.9830, 20053.00
660.1440, 20089.00
661.3050, 20184.00
662.4660, 20141.00
663.6270, 20310.00
664.7870, 20174.00
665.9480, 20214.00
667.1080, 20203.00
668.2680, 20313.00
669.4280, 20448.00
670.5880, 20559.00
671.7480, 20567.00
672.9070, 20694.00
674.0670, 20822.00
675.2260, 20851.00
676.3850, 21254.00
677.5440, 21244.00
678.7030, 21440.00
679.8610, 21461.00
681.0200, 21722.00
682.1780, 21793.00
683.3360, 22007.00
684.4940, 22218.00
685.6520, 22261.00
686.8090, 22591.00
687.9670, 22653.00
689.1240, 22742.00
690.2810, 22906.00
691.4380, 22685.00
692.5950, 22608.00
693.7520, 22785.00
694.9080, 22701.00
696.0650, 22704.00
697.2210, 22538.00
698.3770, 22508.00
699.5330, 22204.00
700.6880, 21979.00
701.8440, 21994.00
702.9990, 21680.00
704.1550, 21773.00
705.3100, 21792.00
706.4650, 21538.00
707.6190, 21321.00
708.7740, 21375.00
709.9290, 21171.00
711.0830, 20932.00
712.2370, 20914.00
713.3910, 20797.00
714.5450, 20795.00
715.6980, 20754.00
716.8520, 20661.00
718.0050, 20637.62
719.1580, 20567.82
720.3110, 20539.00
721.4640, 20413.00
722.6170, 20375.00
723.7700, 20218.00
724.9220, 20253.00
726.0740, 20228.00
727.2260, 20149.00
728.3780, 20176.53
729.5300, 20118.00
730.6810, 20183.00
731.8330, 20226.00
732.9840, 20272.00
734.1350, 20114.00
735.2860, 20224.00
736.4370, 20067.00
737.5880, 20106.00
738.7380, 20152.00
739.8880, 20228.00
741.0390, 20077.00
742.1890, 20126.00
743.3380, 20157.00
744.4880, 20241.00
745.6380, 20276.73
746.7870, 20104.00
747.9360, 20292.00
749.0850, 20278.00
750.2340, 20099.00
751.3830, 20090.00
752.5310, 20201.00
753.6800, 20281.00
754.8280, 20166.00
755.9760, 20439.00
757.1240, 20281.00
758.2720, 20283.00
759.4190, 20473.00
760.5670, 20347.00
761.7140, 20389.00
762.8610, 20338.00
764.0080, 20276.00
765.1550, 20409.00
766.3020, 20331.00
767.4480, 20338.39
768.5950, 20226.00
769.7410, 20318.00
770.8870, 20420.00
772.0330, 20469.00
773.1780, 20528.55
774.3240, 20352.00
775.4690, 20553.00
776.6140, 20470.00
777.7590, 20362.00
778.9040, 20414.00
780.0490, 20480.00
781.1940, 20466.00
782.3380, 20521.00
783.4820, 20558.00
784.6260, 20476.00
785.7700, 20687.00
786.9140, 20564.00
788.0580, 20573.00
789.2010, 20478.00
790.3450, 20556.00
791.4880, 20677.00
792.6310, 20527.00
793.7730, 20663.00
794.9160, 20595.00
796.0590, 20580.00
797.2010, 20561.00
798.3430, 20549.00
799.4850, 20528.00
800.6270, 20483.00
801.7690, 20531.18
802.9100, 20732.00
804.0520, 20588.00
805.1930, 20715.00
806.3340, 20679.00
807.4750, 20780.00
808.6160, 20673.00
809.7560, 20855.00
810.8970, 20648.00
812.0370, 20824.00
813.1770, 20977.00
814.3170, 20900.00
815.4570, 20854.00
816.5960, 20928.00
817.7360, 20866.00
818.8750, 20794.00
820.0140, 20849.01
821.1530, 20808.49
822.2920, 20902.00
823.4310, 20865.00
824.5690, 20911.00
825.7070, 21033.00
826.8460, 21184.00
827.9840, 21108.00
829.1220, 21173.00
830.2590, 21296.00
831.3970, 21182.00
832.5340, 21220.00
833.6710, 21230.00
834.8080, 21328.00
835.9450, 21515.00
837.0820, 21386.00
838.2190, 21770.00
839.3550, 21709.00
840.4910, 21779.00
841.6270, 21986.00
842.7630, 22044.00
843.8990, 22194.00
845.0350, 22346.00
846.1700, 22460.00
847.3060, 22823.00
848.4410, 22948.00
849.5760, 23071.00
850.7100, 23348.00
851.8450, 23483.00
852.9800, 23866.00
854.1140, 24193.00
855.2480, 24558.00
856.3820, 25018.00
857.5160, 25416.00
858.6500, 25960.00
859.7830, 26622.00
860.9170, 27087.00
862.0500, 28132.00
863.1830, 28979.00
864.3160, 30019.00
865.4480, 31258.00
866.5810, 32684.16
867.7130, 34281.72
868.8460, 36079.00
869.9780, 38097.00
871.1100, 40190.00
872.2410, 42677.00
873.3730, 45363.00
874.5050, 48505.00
875.6360, 51046.00
876.7670, 53559.00
877.8980, 55451.00
879.0290, 56547.00
880.1590, 57093.00
881.2900, 56772.00
882.4200, 54995.00
883.5500, 52555.00
884.6800, 50014.00
885.8100, 47421.00
886.9400, 44053.00
888.0690, 41071.00
889.1990, 38604.00
890.3280, 36164.00
891.4570, 33741.00
892.5860, 31798.00
893.7140, 30377.00
894.8430, 29043.00
895.9710, 28026.00
897.1000, 26870.00
898.2280, 26353.00
899.3560, 25616.00
900.4830, 25103.00
901.6110, 24402.00
902.7380, 23854.00
903.8660, 23667.00
904.9930, 23250.00
906.1200, 22968.00
907.2460, 22804.00
908.3730, 22621.00
909.5000, 22437.00
910.6260, 22265.00
911.7520, 22061.00
912.8780, 22065.00
914.0040, 21772.00
915.1290, 21827.00
916.2550, 21562.00
917.3800, 21701.00
918.5050, 21670.00
919.6300, 21466.00
920.7550, 21537.00
921.8800, 21447.00
923.0040, 21257.00
924.1290, 21399.00
925.2530, 21243.00
926.3770, 21399.00
927.5010, 21240.00
928.6250, 21232.00
929.7480, 21203.00
930.8720, 21066.00
931.9950, 21111.00
933.1180, 21019.00
934.2410, 21011.00
935.3640, 20906.00
936.4860, 20901.00
937.6090, 20975.00
938.7310, 20997.00
939.8530, 20999.79
940.9750, 21131.00
942.0970, 21029.00
943.2180, 21066.55
944.3400, 21143.00
945.4610, 21032.00
946.5820, 20839.00
947.7030, 20712.00
948.8240, 20860.00
949.9450, 20816.00
951.0650, 20755.00
952.1860, 20897.00
953.3060, 20774.00
954.4260, 20715.00
955.5460, 20787.00
956.6650, 21019.00
957.7850, 20867.00
958.9040, 20871.00
960.0230, 20887.00
961.1420, 20810.00
962.2610, 20758.00
963.3800, 20834.00
964.4990, 20924.00
965.6170, 20850.00
966.7350, 20796.00
967.8530, 20801.00
968.9710, 20883.00
970.0890, 20652.00
971.2070, 20684.00
972.3240, 21000.00
973.4410, 20954.00
974.5580, 20805.00
975.6750, 20961.00
976.7920, 20884.00
977.9090, 20907.00
979.0250, 20801.00
980.1410, 20822.03
981.2580, 20795.00
982.3740, 20831.00
983.4890, 20762.00
984.6050, 20752.00
985.7200, 20995.00
986.8360, 20854.00
987.9510, 20652.00
989.0660, 20959.00
990.1810, 20747.00
991.2950, 20886.00
992.4100, 20732.00
993.5240, 20646.00
994.6390, 20908.00
995.7530, 20782.00
996.8660, 20778.00
997.9800, 20879.00
999.0940, 20911.00
1000.207, 20809.00
1001.320, 20690.00
1002.433, 20570.00
1003.546, 20913.00
1004.659, 20826.00
1005.772, 20876.00
1006.884, 20967.00
1007.996, 20872.00
1009.108, 20791.00
1010.220, 21013.00
1011.332, 20875.00
1012.444, 20921.00
1013.555, 20899.00
1014.666, 20920.00
1015.777, 21086.00
1016.888, 20731.00
1017.999, 21244.00
1019.110, 20853.00
1020.220, 20887.00
1021.331, 20900.00
1022.441, 20795.00
1023.551, 20812.00
1024.661, 20882.00
1025.770, 20953.00
1026.880, 20886.00
1027.989, 20900.00
1029.098, 20910.00
1030.207, 20853.00
1031.316, 21033.00
1032.425, 20899.00
1033.533, 20983.00
1034.642, 20946.00
1035.750, 20993.00
1036.858, 21017.00
1037.966, 20943.00
1039.073, 21122.00
1040.181, 21069.14
1041.288, 20981.00
1042.396, 21106.00
1043.503, 21067.00
1044.610, 21114.00
1045.716, 21241.00
1046.823, 21166.43
1047.929, 21110.00
1049.036, 21109.00
1050.142, 21149.00
1051.248, 21139.00
1052.353, 21122.00
1053.459, 20968.00
1054.564, 21227.00
1055.670, 21248.00
1056.775, 21092.00
1057.880, 21018.00
1058.985, 21272.00
1060.089, 21191.00
1061.194, 21228.00
1062.298, 21324.00
1063.402, 21269.00
1064.506, 21131.00
1065.610, 21240.00
1066.713, 21103.00
1067.817, 21178.00
1068.920, 21292.00
1070.023, 21218.00
1071.126, 21341.00
1072.229, 21318.00
1073.332, 21044.00
1074.435, 21060.00
1075.537, 21197.00
1076.639, 21281.00
1077.741, 21280.00
1078.843, 21238.00
1079.945, 21204.00
1081.046, 21073.00
1082.148, 21167.00
1083.249, 21269.00
1084.350, 21335.00
1085.451, 20984.00
1086.551, 21170.00
1087.652, 21161.00
1088.752, 21407.00
1089.853, 21243.00
1090.953, 21066.00
1092.053, 21210.00
1093.152, 21208.00
1094.252, 21231.00
1095.351, 21144.00
1096.451, 21229.00
1097.550, 21192.15
1098.649, 21212.00
1099.748, 21177.00
1100.846, 21216.00
1101.945, 21194.54
1103.043, 21296.00
1104.141, 21226.00
1105.239, 21236.00
1106.337, 21141.00
1107.434, 21297.00
1108.532, 21102.00
1109.629, 21347.00
1110.726, 21295.63
1111.823, 21302.93
1112.920, 21266.00
1114.017, 21272.00
1115.113, 21267.79
1116.210, 21287.60
1117.306, 21290.00
1118.402, 21255.00
1119.498, 21306.00
1120.593, 21084.00
1121.689, 21306.00
1122.784, 21243.00
1123.879, 20961.00
1124.974, 21279.00
1126.069, 21128.00
1127.164, 21062.00
1128.259, 21068.00
1129.353, 21271.00
1130.447, 21058.00
1131.541, 21166.00
1132.635, 21222.00
1133.729, 21209.00
1134.822, 21077.00
1135.916, 21051.00
1137.009, 21097.00
1138.102, 21103.00
1139.195, 21062.00
1140.288, 21049.00
1141.380, 21013.00
1142.473, 21011.00
1143.565, 21014.15
1144.657, 21016.00
1145.749, 21050.00
1146.841, 21088.00
1147.932, 21129.00
1149.024, 21088.00
1150.115, 21123.00
1151.206, 21018.00
1152.297, 20994.00
1153.388, 21048.00
1154.479, 20988.93
1155.569, 21007.12
1156.659, 20995.00
1157.750, 21014.00
1158.839, 21065.00
1159.929, 21097.00
1161.019, 21052.00
1162.108, 20980.00
1163.198, 21003.00
1164.287, 20902.00
1165.376, 20975.00
1166.465, 21013.00
1167.553, 20880.00
1168.642, 20981.00
1169.730, 20875.00
1170.818, 20889.00
1171.906, 20868.56
1172.994, 20937.47
1174.082, 20817.00
1175.170, 21052.00
1176.257, 21085.00
1177.344, 20940.00
1178.431, 21132.00
1179.518, 21005.00
1180.605, 20943.00
1181.691, 21055.00
1182.778, 20974.00
1183.864, 20876.00
1184.950, 20872.00
1186.036, 20946.00
1187.122, 21020.00
1188.207, 21155.00
1189.292, 20802.00
1190.378, 20931.00
1191.463, 20965.00
1192.548, 21118.00
1193.632, 21065.50
1194.717, 21155.00
1195.801, 20937.00
1196.886, 20930.00
1197.970, 20813.00
1199.054, 20983.00
1200.137, 20842.00
1201.221, 20967.00
1202.305, 20925.00
1203.388, 20715.00
1204.471, 20915.00
1205.554, 20861.00
1206.637, 20863.00
1207.719, 20931.00
1208.802, 20908.00
1209.884, 20771.00
1210.966, 20966.00
1212.048, 20841.00
1213.130, 20953.00
1214.212, 21135.00
1215.293, 20818.00
1216.374, 20782.00
1217.456, 21123.00
1218.536, 21173.00
1219.617, 20869.00
1220.698, 20960.00
1221.778, 20950.00
1222.859, 21063.00
1223.939, 20852.00
1225.019, 20901.00
1226.099, 20938.00
1227.178, 20861.00
1228.258, 20967.00
1229.337, 21043.00
1230.417, 20878.00
1231.496, 20957.00
1232.574, 20920.00
1233.653, 21144.00
1234.732, 20843.00
1235.810, 21016.00
1236.888, 20929.00
1237.966, 21030.00
1239.044, 20978.00
1240.122, 20891.00
1241.199, 21040.00
1242.277, 21104.00
1243.354, 21044.00
1244.431, 20868.00
1245.508, 21004.00
1246.585, 20935.00
1247.661, 21169.00
1248.738, 21053.00
1249.814, 20858.00
1250.890, 21034.00
1251.966, 21126.00
1253.042, 20933.00
1254.117, 20869.00
1255.193, 20885.00
1256.268, 20974.00
1257.343, 20989.00
1258.418, 20996.88
1259.493, 21030.00
1260.567, 20990.00
1261.642, 20889.00
1262.716, 20886.00
1263.790, 20903.00
1264.864, 20986.00
1265.938, 21024.00
1267.011, 20984.00
1268.085, 21002.00
1269.158, 20982.00
1270.231, 20907.00
1271.304, 20844.00
1272.377, 20822.00
1273.450, 20884.00
1274.522, 21020.00
1275.594, 21034.00
1276.666, 21032.00
1277.738, 21054.00
1278.810, 21011.00
1279.882, 21010.25
1280.953, 21035.00
1282.025, 20991.00
1283.096, 21002.11
1284.167, 21038.11
1285.238, 20996.00
1286.308, 21066.00
1287.379, 20995.00
1288.449, 21056.00
1289.519, 20864.00
1290.589, 20979.00
1291.659, 21057.00
1292.729, 20987.00
1293.798, 21083.00
1294.868, 20904.00
1295.937, 20999.00
1297.006, 20970.05
1298.075, 21046.00
1299.143, 20996.00
1300.212, 21014.00
1301.280, 21085.00
1302.348, 21015.00
1303.416, 21029.00
1304.484, 21071.00
1305.552, 21086.00
1306.620, 21007.00
1307.687, 21083.00
1308.754, 20924.00
1309.821, 21016.00
1310.888, 20986.00
1311.955, 20879.00
1313.021, 20973.00
1314.088, 21004.00
1315.154, 21046.00
1316.220, 21053.00
1317.286, 20982.00
1318.352, 21124.00
1319.417, 21043.00
1320.483, 21094.00
1321.548, 21004.00
1322.613, 21058.00
1323.678, 21038.00
1324.743, 21147.00
1325.807, 21053.00
1326.872, 20965.00
1327.936, 21086.00
1329.000, 21008.00
1330.064, 21012.00
1331.128, 21119.00
1332.191, 21112.00
1333.255, 21006.00
1334.318, 21106.00
1335.381, 21032.00
1336.444, 20926.00
1337.507, 21142.00
1338.569, 21144.00
1339.632, 21051.00
1340.694, 20985.00
1341.756, 21168.00
1342.818, 21122.00
1343.880, 21058.00
1344.941, 20910.00
1346.003, 20936.25
1347.064, 20821.00
1348.125, 20960.00
1349.186, 21101.00
1350.247, 21173.00
1351.308, 21036.00
1352.368, 20981.00
1353.428, 20948.00
1354.489, 21025.00
1355.549, 21077.00
1356.608, 21041.56
1357.668, 21066.00
1358.727, 21027.99
1359.787, 21143.44
1360.846, 21212.45
1361.905, 21237.52
1362.964, 21087.03
1364.022, 21163.23
1365.081, 21148.58
1366.139, 21130.21
1367.197, 21238.31
1368.255, 21113.35
1369.313, 21219.44
1370.371, 21233.30
1371.428, 21289.37
1372.486, 21254.04
1373.543, 21214.00
1374.600, 21011.00
1375.657, 21103.00
1376.713, 21082.00
1377.770, 21049.00
1378.826, 21002.00
1379.882, 21159.00
1380.938, 21077.00
1381.994, 21097.00
1383.050, 21234.00
1384.106, 21003.00
1385.161, 21104.00
1386.216, 21151.00
1387.271, 21097.00
1388.326, 21089.00
1389.381, 21074.00
1390.435, 21146.00
1391.490, 21109.00
1392.544, 21128.00
1393.598, 21014.00
1394.652, 21108.00
1395.705, 21045.00
1396.759, 21149.00
1397.812, 21117.00
1398.866, 21126.25
1399.919, 21071.00
1400.972, 21207.00
1402.024, 20995.00
1403.077, 21179.00
1404.129, 21072.00
1405.181, 21238.00
1406.233, 21183.00
1407.285, 21100.00
1408.337, 21145.00
1409.389, 21241.00
1410.440, 21026.00
1411.491, 21217.00
1412.542, 21493.00
1413.593, 21259.44
1414.644, 21342.29
1415.695, 21096.00
1416.745, 21173.00
1417.795, 21274.00
1418.845, 21280.00
1419.895, 21261.00
1420.945, 21298.00
1421.995, 21177.00
1423.044, 21303.00
1424.093, 21159.00
1425.142, 21160.00
1426.191, 21094.00
1427.240, 21201.00
1428.289, 21145.00
1429.337, 21249.00
1430.385, 21109.00
1431.433, 21206.00
1432.481, 21231.00
1433.529, 21055.00
1434.577, 21188.00
1435.624, 21358.00
1436.672, 21233.00
1437.719, 21050.00
1438.766, 21118.00
1439.812, 21028.00
1440.859, 21216.00
1441.905, 21248.00
1442.952, 20979.00
1443.998, 21295.00
1445.044, 21257.00
1446.090, 20975.00
1447.135, 21150.00
1448.181, 21282.00
1449.226, 21294.30
1450.271, 21343.98
1451.316, 21313.83
1452.361, 21286.00
1453.405, 21198.00
1454.450, 21122.00
1455.494, 21078.52
1456.538, 21317.00
1457.582, 21136.00
1458.626, 21233.00
1459.670, 21386.00
1460.713, 21220.00
1461.757, 21339.00
1462.800, 21405.00
1463.843, 21272.00
1464.886, 21091.00
1465.928, 21142.09
1466.971, 21244.65
1468.013, 21300.77
1469.055, 21312.94
1470.097, 21149.57
1471.139, 21212.88
1472.181, 21185.35
1473.222, 21154.10
1474.263, 21249.32
1475.305, 21111.48
1476.346, 21204.70
1477.386, 21205.68
1478.427, 21248.88
1479.468, 21200.67
1480.508, 21180.70
1481.548, 21252.16
1482.588, 21272.99
1483.628, 21214.26
1484.668, 21260.15
1485.707, 21119.12
1486.747, 21142.11
1487.786, 21235.87
1488.825, 21181.74
1489.864, 21229.30
1490.902, 21238.13
1491.941, 21070.95
1492.979, 21209.88
1494.017, 21362.00
1495.055, 21376.00
1496.093, 21336.00
1497.131, 21236.00
1498.168, 21170.00
1499.206, 21219.00
1500.243, 21186.00
1501.280, 21149.00
1502.317, 21368.00
1503.354, 21166.00
1504.390, 21327.00
1505.426, 21296.00
1506.463, 21125.00
1507.499, 21384.00
1508.535, 21305.00
1509.570, 21298.00
1510.606, 21433.00
1511.641, 21221.00
1512.676, 21146.00
1513.711, 21234.00
1514.746, 21271.00
1515.781, 21191.00
1516.816, 21122.00
1517.850, 21174.00
1518.884, 21358.00
1519.918, 21327.00
1520.952, 21356.00
1521.986, 21085.00
1523.019, 21306.00
1524.053, 21235.00
1525.086, 21265.00
1526.119, 21380.00
1527.152, 21428.00
1528.185, 21345.00
1529.217, 21277.00
1530.250, 21391.00
1531.282, 21281.00
1532.314, 21283.00
1533.346, 21207.00
1534.377, 21383.00
1535.409, 21314.00
1536.440, 21181.61
1537.472, 21289.37
1538.503, 21350.69
1539.534, 21368.07
1540.564, 21209.90
1541.595, 21278.42
1542.625, 21256.09
1543.656, 21230.04
1544.686, 21330.46
1545.716, 21197.82
1546.745, 21296.24
1547.775, 21302.42
1548.804, 21350.82
1549.834, 21307.81
1550.863, 21293.03
1551.892, 21369.69
1552.920, 21395.71
1553.949, 21342.18
1554.977, 21393.25
1556.006, 21257.42
1557.034, 21285.60
1558.062, 21384.55
1559.089, 21335.61
1560.117, 21388.36
1561.144, 21402.38
1562.172, 21240.39
1563.199, 21384.50
1564.226, 21396.23
1565.252, 21272.03
1566.279, 21405.65
1567.305, 21300.20
1568.332, 21280.08
1569.358, 21324.17
1570.384, 21484.00
1571.409, 21283.00
1572.435, 21336.00
##END=



