##NAMES=Ferberite
##RRUFFID=R050090
##IDEAL CHEMISTRY=Fe^2+^W^6+^O_4_
##LOCALITY=Yaogangxian mine, Cheng Zhu City, South Hunan, China
##OWNER=RRUFF
##SOURCE=Rock Currier
##DESCRIPTION=Dark gray tabular crystal
##STATUS=The identification of this mineral has been confirmed by X-ray diffraction and chemical analysis
##URL=rruff.info/R050090
##MEASURED CHEMISTRY=(Fe^2+^_0.56_Mn_0.44_)W_1.00_O_4_
##PIN_ID=L01753
##ORIENTATION=Laser parallel to a* (1 0 0). Fiducial mark perpendicular to laser is parallel to b [0 1 0]
98.41600, 7220.000
99.64900, 7051.000
100.8830, 7193.868
102.1160, 7389.333
103.3490, 7538.362
104.5820, 7643.449
105.8150, 7572.980
107.0470, 7729.131
108.2800, 7794.507
109.5120, 7856.085
110.7440, 8044.143
111.9760, 7999.135
113.2080, 8185.186
114.4400, 8279.003
115.6710, 8589.000
116.9030, 9552.000
118.1340, 9952.000
119.3650, 10423.00
120.5960, 11254.00
121.8270, 12258.00
123.0580, 13193.00
124.2880, 13970.00
125.5190, 13853.00
126.7490, 13315.00
127.9790, 12721.00
129.2090, 12395.00
130.4390, 11893.00
131.6680, 11603.00
132.8980, 10155.00
134.1270, 9408.000
135.3560, 8747.000
136.5850, 8299.000
137.8140, 8055.000
139.0430, 7903.000
140.2710, 7831.000
141.5000, 7634.000
142.7280, 7543.438
143.9560, 7359.496
145.1840, 7338.000
146.4120, 7086.575
147.6390, 7014.000
148.8670, 7093.000
150.0940, 7005.000
151.3210, 7078.000
152.5490, 7148.000
153.7750, 7249.000
155.0020, 7118.000
156.2290, 7085.000
157.4550, 6986.000
158.6810, 6750.000
159.9080, 6793.000
161.1340, 6768.000
162.3590, 6894.000
163.5850, 7064.000
164.8110, 7181.000
166.0360, 7313.000
167.2610, 7340.000
168.4860, 7418.224
169.7110, 7455.112
170.9360, 7471.000
172.1610, 7455.000
173.3850, 7429.000
174.6100, 7330.000
175.8340, 7291.000
177.0580, 7291.000
178.2820, 7265.000
179.5050, 7321.000
180.7290, 7291.000
181.9520, 7255.000
183.1760, 7337.000
184.3990, 7291.000
185.6220, 7390.000
186.8450, 7529.000
188.0670, 7546.000
189.2900, 7686.000
190.5120, 7777.000
191.7340, 7825.000
192.9560, 7876.000
194.1780, 8116.000
195.4000, 8245.000
196.6220, 8361.000
197.8430, 8627.000
199.0640, 8713.000
200.2860, 9000.000
201.5070, 9555.000
202.7270, 9544.000
203.9480, 9599.000
205.1690, 9437.000
206.3890, 8539.000
207.6090, 8118.000
208.8290, 7749.000
210.0490, 7631.000
211.2690, 7518.000
212.4890, 7347.000
213.7080, 7322.000
214.9280, 7239.000
216.1470, 7262.000
217.3660, 7131.605
218.5850, 7069.149
219.8030, 6906.000
221.0220, 6884.000
222.2400, 6795.000
223.4590, 6712.000
224.6770, 6755.000
225.8950, 6742.000
227.1120, 6700.000
228.3300, 6657.000
229.5480, 6739.000
230.7650, 6620.000
231.9820, 6663.000
233.1990, 6683.000
234.4160, 6574.000
235.6330, 6653.000
236.8490, 6507.000
238.0660, 6661.000
239.2820, 6543.000
240.4980, 6553.000
241.7140, 6576.000
242.9300, 6622.000
244.1460, 6643.000
245.3610, 6586.000
246.5770, 6605.000
247.7920, 6580.000
249.0070, 6579.000
250.2220, 6624.000
251.4370, 6514.929
252.6510, 6647.017
253.8660, 6732.689
255.0800, 6774.398
256.2940, 6640.553
257.5080, 6733.400
258.7220, 6735.398
259.9360, 6733.673
261.1490, 6858.404
262.3630, 6750.094
263.5760, 6872.819
264.7890, 6903.312
266.0020, 6976.017
267.2150, 6957.313
268.4270, 6878.000
269.6400, 6973.000
270.8520, 6843.000
272.0640, 6786.000
273.2760, 6852.000
274.4880, 6829.000
275.7000, 6894.000
276.9120, 6998.000
278.1230, 6876.000
279.3340, 6959.000
280.5450, 6954.000
281.7560, 6929.000
282.9670, 7003.000
284.1780, 6979.000
285.3880, 7043.000
286.5980, 6984.000
287.8090, 7097.000
289.0190, 6999.000
290.2290, 7197.000
291.4380, 7152.000
292.6480, 7116.000
293.8570, 7084.000
295.0670, 7167.000
296.2760, 7182.000
297.4850, 7203.000
298.6930, 7188.000
299.9020, 7196.142
301.1110, 7235.000
302.3190, 7193.000
303.5270, 7256.000
304.7350, 7274.000
305.9430, 7273.000
307.1510, 7384.000
308.3580, 7384.000
309.5660, 7498.000
310.7730, 7617.000
311.9800, 8061.000
313.1870, 8011.108
314.3940, 8510.000
315.6010, 8128.000
316.8070, 8383.000
318.0130, 8492.000
319.2200, 8616.000
320.4260, 8833.000
321.6310, 8986.000
322.8370, 8939.000
324.0430, 9081.000
325.2480, 8969.000
326.4540, 8798.000
327.6590, 8806.000
328.8640, 8708.000
330.0680, 8618.000
331.2730, 8314.000
332.4780, 8418.000
333.6820, 8178.000
334.8860, 8024.000
336.0900, 7990.000
337.2940, 7870.000
338.4980, 7856.000
339.7010, 7811.000
340.9050, 7665.000
342.1080, 7571.000
343.3110, 7528.000
344.5140, 7534.000
345.7170, 7501.000
346.9200, 7560.000
348.1220, 7544.000
349.3240, 7434.000
350.5270, 7446.702
351.7290, 7373.000
352.9310, 7379.000
354.1320, 7309.000
355.3340, 7314.000
356.5350, 7199.000
357.7370, 7323.000
358.9380, 7302.000
360.1390, 7272.000
361.3400, 7217.000
362.5400, 7238.000
363.7410, 7218.000
364.9410, 7183.000
366.1410, 7161.000
367.3410, 7178.000
368.5410, 7144.000
369.7410, 7144.000
370.9400, 7253.000
372.1400, 7183.000
373.3390, 7270.000
374.5380, 7226.000
375.7370, 7304.000
376.9360, 7242.000
378.1350, 7324.000
379.3330, 7411.000
380.5310, 7298.000
381.7300, 7432.000
382.9280, 7477.000
384.1260, 7684.000
385.3230, 7650.000
386.5210, 7830.000
387.7180, 8025.000
388.9160, 8065.000
390.1130, 8328.000
391.3100, 8605.000
392.5060, 8783.000
393.7030, 8990.000
394.9000, 8871.000
396.0960, 8956.000
397.2920, 8749.000
398.4880, 8673.000
399.6840, 8608.226
400.8800, 8457.935
402.0750, 8335.000
403.2710, 8253.000
404.4660, 8109.359
405.6610, 7863.000
406.8560, 7846.000
408.0510, 7726.000
409.2450, 7553.000
410.4400, 7521.000
411.6340, 7512.000
412.8280, 7455.000
414.0220, 7390.000
415.2160, 7434.000
416.4100, 7388.000
417.6030, 7321.000
418.7970, 7328.000
419.9900, 7257.000
421.1830, 7160.000
422.3760, 7329.000
423.5690, 7279.000
424.7610, 7230.000
425.9540, 7216.000
427.1460, 7207.000
428.3380, 7260.000
429.5300, 7140.000
430.7220, 7251.000
431.9140, 7278.000
433.1050, 7270.000
434.2970, 7207.000
435.4880, 7227.000
436.6790, 7138.000
437.8700, 7282.000
439.0610, 7265.000
440.2510, 7337.000
441.4420, 7173.000
442.6320, 7265.000
443.8220, 7302.000
445.0120, 7375.000
446.2020, 7341.000
447.3910, 7288.000
448.5810, 7289.000
449.7700, 7303.000
450.9600, 7328.000
452.1490, 7360.000
453.3370, 7368.000
454.5260, 7449.000
455.7150, 7430.000
456.9030, 7442.000
458.0910, 7473.000
459.2800, 7448.000
460.4670, 7513.000
461.6550, 7489.000
462.8430, 7405.000
464.0300, 7413.000
465.2180, 7505.000
466.4050, 7348.000
467.5920, 7514.000
468.7790, 7485.000
469.9650, 7429.000
471.1520, 7604.000
472.3380, 7563.000
473.5250, 7424.000
474.7110, 7490.000
475.8970, 7599.000
477.0820, 7604.000
478.2680, 7618.000
479.4540, 7647.000
480.6390, 7620.000
481.8240, 7705.000
483.0090, 7709.000
484.1940, 7747.000
485.3780, 7688.000
486.5630, 7770.000
487.7470, 7688.000
488.9320, 7732.000
490.1160, 7620.000
491.3000, 7714.000
492.4830, 7806.000
493.6670, 7767.000
494.8500, 7830.000
496.0340, 7845.000
497.2170, 7917.000
498.4000, 7925.615
499.5820, 7962.000
500.7650, 7958.000
501.9480, 7932.000
503.1300, 7959.000
504.3120, 8086.000
505.4940, 8025.000
506.6760, 8191.000
507.8580, 7966.000
509.0390, 8017.000
510.2210, 8160.000
511.4020, 8107.000
512.5830, 8309.000
513.7640, 8295.000
514.9450, 8183.000
516.1250, 8287.000
517.3060, 8294.000
518.4860, 8416.000
519.6660, 8378.000
520.8460, 8514.000
522.0260, 8567.000
523.2060, 8619.000
524.3850, 8518.000
525.5650, 8722.000
526.7440, 8658.000
527.9230, 8873.000
529.1020, 8750.000
530.2810, 8813.000
531.4590, 8862.000
532.6380, 8956.000
533.8160, 8772.000
534.9940, 8842.000
536.1720, 8796.000
537.3500, 8833.000
538.5270, 8825.000
539.7050, 8747.000
540.8820, 8726.229
542.0590, 8628.000
543.2360, 8584.000
544.4130, 8469.000
545.5900, 8360.000
546.7660, 8398.000
547.9430, 8354.000
549.1190, 8337.000
550.2950, 8262.000
551.4710, 8117.000
552.6470, 8065.000
553.8220, 7967.000
554.9980, 7936.000
556.1730, 7991.000
557.3480, 7830.000
558.5230, 7977.000
559.6980, 7807.000
560.8730, 7868.000
562.0470, 7862.000
563.2220, 7787.000
564.3960, 7722.000
565.5700, 7735.000
566.7440, 7646.977
567.9170, 7783.000
569.0910, 7577.000
570.2640, 7569.000
571.4380, 7640.000
572.6110, 7713.000
573.7840, 7681.132
574.9570, 7699.184
576.1290, 7629.000
577.3020, 7628.000
578.4740, 7568.000
579.6460, 7493.000
580.8180, 7589.000
581.9900, 7578.000
583.1620, 7621.000
584.3330, 7493.000
585.5040, 7489.000
586.6760, 7561.000
587.8470, 7508.000
589.0180, 7630.000
590.1880, 7488.000
591.3590, 7550.000
592.5290, 7519.000
593.7000, 7439.000
594.8700, 7590.000
596.0400, 7551.000
597.2090, 7526.000
598.3790, 7555.000
599.5490, 7648.000
600.7180, 7665.000
601.8870, 7694.000
603.0560, 7606.000
604.2250, 7689.000
605.3940, 7723.000
606.5620, 7666.000
607.7300, 7740.000
608.8990, 7645.000
610.0670, 7603.000
611.2350, 7686.000
612.4020, 7707.000
613.5700, 7688.000
614.7370, 7762.000
615.9050, 7655.000
617.0720, 7630.000
618.2390, 7749.000
619.4060, 7820.000
620.5720, 7683.000
621.7390, 7778.000
622.9050, 7672.000
624.0710, 7750.132
625.2370, 7845.000
626.4030, 7799.000
627.5690, 7855.000
628.7340, 7644.000
629.9000, 7731.000
631.0650, 7808.000
632.2300, 7740.000
633.3950, 7822.000
634.5600, 7838.000
635.7240, 7702.000
636.8890, 7787.000
638.0530, 7773.000
639.2170, 7750.000
640.3810, 7874.000
641.5450, 7818.000
642.7080, 7903.000
643.8720, 7912.000
645.0350, 7887.000
646.1980, 7893.000
647.3610, 7833.000
648.5240, 7855.469
649.6870, 7843.000
650.8490, 7896.000
652.0120, 7963.000
653.1740, 8030.000
654.3360, 8057.000
655.4980, 8108.859
656.6600, 8067.000
657.8210, 8144.000
658.9830, 8140.000
660.1440, 8079.000
661.3050, 8055.000
662.4660, 8085.925
663.6270, 8070.436
664.7870, 8183.000
665.9480, 8139.000
667.1080, 8229.000
668.2680, 8338.000
669.4280, 8389.000
670.5880, 8492.000
671.7480, 8315.000
672.9070, 8361.000
674.0670, 8351.000
675.2260, 8494.000
676.3850, 8585.000
677.5440, 8732.000
678.7030, 8749.000
679.8610, 8576.000
681.0200, 8692.000
682.1780, 8731.000
683.3360, 8827.000
684.4940, 8816.479
685.6520, 8888.000
686.8090, 8778.000
687.9670, 8889.000
689.1240, 8890.000
690.2810, 8940.000
691.4380, 8952.000
692.5950, 8900.000
693.7520, 8834.000
694.9080, 8760.000
696.0650, 8741.000
697.2210, 8802.000
698.3770, 8630.000
699.5330, 8631.000
700.6880, 8508.000
701.8440, 8561.000
702.9990, 8486.000
704.1550, 8470.000
705.3100, 8364.000
706.4650, 8341.000
707.6190, 8319.077
708.7740, 8438.000
709.9290, 8324.000
711.0830, 8275.000
712.2370, 8330.000
713.3910, 8260.000
714.5450, 8366.000
715.6980, 8217.000
716.8520, 8130.000
718.0050, 8288.000
719.1580, 8156.000
720.3110, 8155.000
721.4640, 8185.000
722.6170, 8156.000
723.7700, 8249.000
724.9220, 8099.000
726.0740, 8236.000
727.2260, 8114.000
728.3780, 8173.000
729.5300, 8217.000
730.6810, 8176.000
731.8330, 8144.000
732.9840, 8172.384
734.1350, 8174.000
735.2860, 8205.000
736.4370, 8223.000
737.5880, 8257.534
738.7380, 8206.000
739.8880, 8231.000
741.0390, 8191.000
742.1890, 8175.000
743.3380, 8260.000
744.4880, 8151.000
745.6380, 8331.000
746.7870, 8164.000
747.9360, 8186.000
749.0850, 8342.000
750.2340, 8430.000
751.3830, 8408.000
752.5310, 8456.000
753.6800, 8381.000
754.8280, 8437.000
755.9760, 8471.000
757.1240, 8502.000
758.2720, 8553.000
759.4190, 8543.000
760.5670, 8594.000
761.7140, 8623.000
762.8610, 8648.000
764.0080, 8615.000
765.1550, 8659.000
766.3020, 8676.000
767.4480, 8718.000
768.5950, 8780.000
769.7410, 8825.000
770.8870, 8875.640
772.0330, 8867.000
773.1780, 8931.000
774.3240, 8899.000
775.4690, 8826.000
776.6140, 8855.000
777.7590, 8807.000
778.9040, 8716.000
780.0490, 8871.000
781.1940, 8804.000
782.3380, 8800.000
783.4820, 8901.000
784.6260, 8796.000
785.7700, 8774.000
786.9140, 8798.000
788.0580, 8901.000
789.2010, 8925.000
790.3450, 8835.000
791.4880, 8767.000
792.6310, 8836.000
793.7730, 8899.000
794.9160, 8872.000
796.0590, 8786.000
797.2010, 8866.000
798.3430, 8856.888
799.4850, 8786.000
800.6270, 8963.000
801.7690, 8949.000
802.9100, 9043.000
804.0520, 9038.000
805.1930, 9059.000
806.3340, 8994.000
807.4750, 8997.000
808.6160, 9018.000
809.7560, 9037.200
810.8970, 9087.000
812.0370, 9134.000
813.1770, 9184.000
814.3170, 9223.000
815.4570, 9171.000
816.5960, 9325.000
817.7360, 9293.000
818.8750, 9262.000
820.0140, 9355.000
821.1530, 9297.000
822.2920, 9389.000
823.4310, 9395.000
824.5690, 9295.000
825.7070, 9496.000
826.8460, 9513.000
827.9840, 9657.000
829.1220, 9458.000
830.2590, 9580.000
831.3970, 9617.000
832.5340, 9609.000
833.6710, 9903.000
834.8080, 9618.000
835.9450, 9932.000
837.0820, 10060.00
838.2190, 10105.00
839.3550, 10191.00
840.4910, 10213.00
841.6270, 10291.00
842.7630, 10494.00
843.8990, 10536.00
845.0350, 10599.00
846.1700, 10851.00
847.3060, 10995.00
848.4410, 11060.00
849.5760, 11302.00
850.7100, 11627.00
851.8450, 11918.00
852.9800, 12048.00
854.1140, 12311.00
855.2480, 12745.00
856.3820, 13023.00
857.5160, 13504.00
858.6500, 14041.00
859.7830, 14533.00
860.9170, 15275.00
862.0500, 15872.00
863.1830, 16625.00
864.3160, 17642.00
865.4480, 18666.00
866.5810, 19667.00
867.7130, 21090.00
868.8460, 22699.00
869.9780, 24232.00
871.1100, 25656.00
872.2410, 27360.00
873.3730, 29090.00
874.5050, 30361.00
875.6360, 31418.00
876.7670, 32132.00
877.8980, 32264.00
879.0290, 31887.00
880.1590, 31109.00
881.2900, 29468.00
882.4200, 28296.00
883.5500, 26545.00
884.6800, 24495.00
885.8100, 23030.00
886.9400, 20981.00
888.0690, 19470.00
889.1990, 17961.00
890.3280, 16608.00
891.4570, 15691.00
892.5860, 14645.00
893.7140, 13944.00
894.8430, 13116.00
895.9710, 12586.00
897.1000, 12112.00
898.2280, 11718.00
899.3560, 11365.00
900.4830, 11074.00
901.6110, 10796.61
902.7380, 10572.29
903.8660, 10380.00
904.9930, 10246.00
906.1200, 10144.00
907.2460, 10104.00
908.3730, 9891.000
909.5000, 9678.000
910.6260, 9754.000
911.7520, 9708.000
912.8780, 9477.000
914.0040, 9534.000
915.1290, 9270.000
916.2550, 9254.000
917.3800, 9316.000
918.5050, 9245.000
919.6300, 9166.000
920.7550, 9302.000
921.8800, 9138.000
923.0040, 9227.000
924.1290, 9239.000
925.2530, 9240.000
926.3770, 9206.584
927.5010, 9167.000
928.6250, 9051.000
929.7480, 9040.000
930.8720, 8929.000
931.9950, 8921.000
933.1180, 9000.000
934.2410, 8938.000
935.3640, 8982.000
936.4860, 8995.000
937.6090, 9015.000
938.7310, 9032.000
939.8530, 9018.000
940.9750, 9055.000
942.0970, 9027.000
943.2180, 9054.000
944.3400, 8828.000
945.4610, 8945.000
946.5820, 8885.000
947.7030, 9053.000
948.8240, 8985.000
949.9450, 8873.000
951.0650, 8908.000
952.1860, 8981.000
953.3060, 9056.000
954.4260, 8996.000
955.5460, 8905.000
956.6650, 8804.000
957.7850, 8951.000
958.9040, 8805.000
960.0230, 8941.000
961.1420, 8857.000
962.2610, 8890.000
963.3800, 8915.000
964.4990, 8842.000
965.6170, 8974.000
966.7350, 8973.000
967.8530, 8905.000
968.9710, 8866.000
970.0890, 9042.000
971.2070, 8892.000
972.3240, 8924.000
973.4410, 8941.000
974.5580, 8862.000
975.6750, 8908.000
976.7920, 9040.000
977.9090, 9023.000
979.0250, 9000.000
980.1410, 8960.000
981.2580, 8914.000
982.3740, 9031.000
983.4890, 8995.000
984.6050, 9016.000
985.7200, 9004.000
986.8360, 8997.000
987.9510, 9091.000
989.0660, 8916.000
990.1810, 9045.000
991.2950, 8997.000
992.4100, 9087.000
993.5240, 9031.000
994.6390, 8999.000
995.7530, 8949.000
996.8660, 8970.188
997.9800, 9095.000
999.0940, 9050.000
1000.207, 9121.000
1001.320, 9210.000
1002.433, 9026.000
1003.546, 9022.000
1004.659, 9141.000
1005.772, 9077.000
1006.884, 9171.000
1007.996, 9133.000
1009.108, 9164.000
1010.220, 9161.000
1011.332, 9093.000
1012.444, 9247.000
1013.555, 9148.000
1014.666, 9211.000
1015.777, 9185.000
1016.888, 9191.000
1017.999, 9120.000
1019.110, 9150.199
1020.220, 9168.388
1021.331, 9149.000
1022.441, 9239.000
1023.551, 9176.000
1024.661, 9177.000
1025.770, 9197.000
1026.880, 9297.000
1027.989, 9137.000
1029.098, 9289.000
1030.207, 9238.000
1031.316, 9319.000
1032.425, 9233.000
1033.533, 9305.000
1034.642, 9282.276
1035.750, 9328.000
1036.858, 9270.000
1037.966, 9346.000
1039.073, 9372.000
1040.181, 9447.000
1041.288, 9395.000
1042.396, 9429.256
1043.503, 9535.000
1044.610, 9393.000
1045.716, 9428.000
1046.823, 9342.000
1047.929, 9365.000
1049.036, 9369.000
1050.142, 9369.000
1051.248, 9467.000
1052.353, 9520.000
1053.459, 9503.000
1054.564, 9509.000
1055.670, 9554.000
1056.775, 9607.000
1057.880, 9648.000
1058.985, 9593.000
1060.089, 9510.000
1061.194, 9623.508
1062.298, 9489.747
1063.402, 9757.000
1064.506, 9535.000
1065.610, 9465.000
1066.713, 9914.000
1067.817, 9846.000
1068.920, 9505.000
1070.023, 9676.000
1071.126, 9658.000
1072.229, 9738.000
1073.332, 9688.000
1074.435, 9683.000
1075.537, 9670.000
1076.639, 9623.000
1077.741, 9682.000
1078.843, 9734.000
1079.945, 9634.000
1081.046, 9719.000
1082.148, 9703.000
1083.249, 9667.000
1084.350, 9855.000
1085.451, 9801.000
1086.551, 9689.000
1087.652, 9789.000
1088.752, 9762.000
1089.853, 9786.000
1090.953, 9767.000
1092.053, 9658.000
1093.152, 9710.000
1094.252, 9741.000
1095.351, 9716.000
1096.451, 9819.000
1097.550, 9733.000
1098.649, 9883.000
1099.748, 9866.000
1100.846, 9848.000
1101.945, 9671.000
1103.043, 9857.000
1104.141, 9842.000
1105.239, 9772.000
1106.337, 9848.000
1107.434, 9834.330
1108.532, 9754.917
1109.629, 9866.548
1110.726, 9931.740
1111.823, 9952.991
1112.920, 9798.688
1114.017, 9871.076
1115.113, 9852.612
1116.210, 9830.427
1117.306, 9934.717
1118.402, 9805.942
1119.498, 9908.226
1120.593, 9918.270
1121.689, 9970.532
1122.784, 9931.382
1123.879, 9920.463
1124.974, 10000.98
1126.069, 10030.87
1127.164, 9981.199
1128.259, 10036.14
1129.353, 9904.163
1130.447, 9936.204
1131.541, 10039.01
1132.635, 9993.930
1133.729, 10050.54
1134.822, 10068.41
1135.916, 9910.280
1137.009, 10058.24
1138.102, 10073.82
1139.195, 9953.487
1140.288, 10090.96
1141.380, 9989.355
1142.473, 9973.090
1143.565, 10021.04
1144.657, 10002.04
1145.749, 10069.00
1146.841, 10106.00
1147.932, 10229.00
1149.024, 10177.00
1150.115, 10186.00
1151.206, 10255.00
1152.297, 10194.00
1153.388, 10242.00
1154.479, 10298.00
1155.569, 10212.00
1156.659, 10248.00
1157.750, 10166.00
1158.839, 10283.00
1159.929, 10280.00
1161.019, 10352.00
1162.108, 10350.00
1163.198, 10377.00
1164.287, 10331.00
1165.376, 10425.00
1166.465, 10289.00
1167.553, 10450.00
1168.642, 10401.00
1169.730, 10379.00
1170.818, 10327.00
1171.906, 10404.00
1172.994, 10332.00
1174.082, 10479.00
1175.170, 10530.00
1176.257, 10619.00
1177.344, 10457.00
1178.431, 10512.00
1179.518, 10490.00
1180.605, 10522.00
1181.691, 10421.00
1182.778, 10379.00
1183.864, 10445.00
1184.950, 10437.00
1186.036, 10556.00
1187.122, 10500.00
1188.207, 10543.00
1189.292, 10604.00
1190.378, 10570.00
1191.463, 10607.00
1192.548, 10581.00
1193.632, 10567.00
1194.717, 10530.00
1195.801, 10608.00
1196.886, 10493.00
1197.970, 10612.00
1199.054, 10708.00
1200.137, 10695.00
1201.221, 10566.00
1202.305, 10747.00
1203.388, 10695.00
1204.471, 10787.00
1205.554, 10719.00
1206.637, 10718.00
1207.719, 10729.00
1208.802, 10796.00
1209.884, 10674.00
1210.966, 10794.00
1212.048, 10769.00
1213.130, 10848.00
1214.212, 10907.00
1215.293, 10793.00
1216.374, 10873.00
1217.456, 10961.00
1218.536, 10841.00
1219.617, 10980.00
1220.698, 10917.00
1221.778, 10943.00
1222.859, 10973.00
1223.939, 11010.00
1225.019, 10945.00
1226.099, 11001.00
1227.178, 11010.00
1228.258, 11033.00
1229.337, 10915.00
1230.417, 11188.00
1231.496, 11052.00
1232.574, 11083.00
1233.653, 11202.00
1234.732, 11051.00
1235.810, 11183.00
1236.888, 11019.00
1237.966, 11149.00
1239.044, 11261.00
1240.122, 11151.00
1241.199, 11175.00
1242.277, 11328.00
1243.354, 11182.00
1244.431, 11368.00
1245.508, 11295.00
1246.585, 11350.00
1247.661, 11330.00
1248.738, 11236.00
1249.814, 11294.00
1250.890, 11368.00
1251.966, 11199.00
1253.042, 11297.00
1254.117, 11307.00
1255.193, 11166.00
1256.268, 11293.00
1257.343, 11265.00
1258.418, 11354.00
1259.493, 11377.00
1260.567, 11276.00
1261.642, 11446.00
1262.716, 11571.00
1263.790, 11390.00
1264.864, 11477.00
1265.938, 11583.00
1267.011, 11659.00
1268.085, 11708.00
1269.158, 11606.00
1270.231, 11873.00
1271.304, 11983.00
1272.377, 11672.00
1273.450, 11560.00
1274.522, 11637.00
1275.594, 11710.00
1276.666, 11858.00
1277.738, 11710.00
1278.810, 11762.00
1279.882, 11919.00
1280.953, 11750.00
1282.025, 11751.00
1283.096, 11950.00
1284.167, 12026.00
1285.238, 11955.00
1286.308, 11974.00
1287.379, 11905.00
1288.449, 12047.00
1289.519, 11910.00
1290.589, 12055.00
1291.659, 12178.00
1292.729, 12138.00
1293.798, 12044.00
1294.868, 12160.00
1295.937, 12121.55
1297.006, 12114.00
1298.075, 12219.00
1299.143, 12233.00
1300.212, 12368.00
1301.280, 12068.00
1302.348, 12206.00
1303.416, 12207.00
1304.484, 12290.00
1305.552, 12345.00
1306.620, 12318.00
1307.687, 12354.00
1308.754, 12321.00
1309.821, 12477.00
1310.888, 12447.00
1311.955, 12468.00
1313.021, 12476.00
1314.088, 12486.00
1315.154, 12417.00
1316.220, 12450.90
1317.286, 12453.10
1318.352, 12459.00
1319.417, 12496.00
1320.483, 12484.00
1321.548, 12496.00
1322.613, 12642.00
1323.678, 12602.00
1324.743, 12638.00
1325.807, 12585.00
1326.872, 12593.00
1327.936, 12522.00
1329.000, 12663.00
1330.064, 12760.00
1331.128, 12603.00
1332.191, 12727.00
1333.255, 12703.00
1334.318, 12745.00
1335.381, 12781.00
1336.444, 12768.10
1337.507, 12807.00
1338.569, 12754.00
1339.632, 12801.00
1340.694, 12768.00
1341.756, 12737.00
1342.818, 12803.00
1343.880, 12909.00
1344.941, 12755.00
1346.003, 12838.00
1347.064, 13061.00
1348.125, 12774.00
1349.186, 12862.00
1350.247, 12967.00
1351.308, 13147.00
1352.368, 12832.00
1353.428, 13030.00
1354.489, 12862.00
1355.549, 12790.00
1356.608, 12911.00
1357.668, 12924.00
1358.727, 12901.00
1359.787, 12931.00
1360.846, 12909.00
1361.905, 12976.00
1362.964, 12939.00
1364.022, 13032.00
1365.081, 12946.00
1366.139, 12879.00
1367.197, 13110.00
1368.255, 12841.00
1369.313, 12792.00
1370.371, 12961.00
1371.428, 12933.00
1372.486, 12880.00
1373.543, 12994.00
1374.600, 12975.00
1375.657, 13008.00
1376.713, 13121.00
1377.770, 13127.00
1378.826, 13151.00
1379.882, 13153.00
1380.938, 12987.00
1381.994, 13055.00
1383.050, 13003.00
1384.106, 13029.00
1385.161, 13015.79
1386.216, 13007.05
1387.271, 12983.00
1388.326, 12992.00
1389.381, 12991.00
1390.435, 12958.29
1391.490, 13061.00
1392.544, 12970.00
1393.598, 13039.00
1394.652, 13086.00
1395.705, 12915.00
1396.759, 12941.00
1397.812, 12988.00
1398.866, 12865.00
1399.919, 12919.00
1400.972, 12977.00
1402.024, 12980.00
1403.077, 13001.00
1404.129, 13168.00
1405.181, 13081.00
1406.233, 13263.00
1407.285, 12962.00
1408.337, 12884.00
1409.389, 12972.00
1410.440, 12926.00
1411.491, 12858.00
1412.542, 12864.00
1413.593, 13003.00
1414.644, 13045.00
1415.695, 13160.00
1416.745, 13162.00
1417.795, 13116.00
1418.845, 12995.00
1419.895, 12990.00
1420.945, 13076.00
1421.995, 13039.00
1423.044, 13140.00
1424.093, 13056.00
1425.142, 13024.00
1426.191, 13034.00
1427.240, 13036.00
1428.289, 12982.00
1429.337, 13180.00
1430.385, 13127.00
1431.433, 13185.00
1432.481, 13062.00
1433.529, 13281.00
1434.577, 13067.00
1435.624, 13060.00
1436.672, 13172.00
1437.719, 13219.00
1438.766, 13047.00
1439.812, 13198.00
1440.859, 13062.00
1441.905, 13290.00
1442.952, 13213.00
1443.998, 13205.00
1445.044, 13169.00
1446.090, 13270.00
1447.135, 13275.00
1448.181, 13061.00
1449.226, 13053.00
1450.271, 13181.00
1451.316, 13291.00
1452.361, 13043.00
1453.405, 13056.00
1454.450, 13209.00
1455.494, 13201.00
1456.538, 13228.00
1457.582, 13300.00
1458.626, 13355.00
1459.670, 13430.00
1460.713, 13276.00
1461.757, 13302.00
1462.800, 13155.00
1463.843, 13189.00
1464.886, 13220.00
1465.928, 13381.00
1466.971, 13204.00
1468.013, 13416.00
1469.055, 13333.00
1470.097, 13451.00
1471.139, 13361.00
1472.181, 13413.00
1473.222, 13384.00
1474.263, 13406.00
1475.305, 13370.00
1476.346, 13387.00
1477.386, 13411.00
1478.427, 13556.00
1479.468, 13498.00
1480.508, 13453.00
1481.548, 13581.10
1482.588, 13700.75
1483.628, 13773.96
1484.668, 13803.23
1485.707, 13656.93
1486.747, 13737.33
1487.786, 13726.88
1488.825, 13712.70
1489.864, 13825.00
1490.902, 13704.22
1491.941, 13814.51
1492.979, 13832.56
1494.017, 13892.82
1495.055, 13861.67
1496.093, 13858.75
1497.131, 13947.27
1498.168, 13985.15
1499.206, 13943.48
1500.243, 13781.00
1501.280, 13897.00
1502.317, 14088.00
1503.354, 13985.00
1504.390, 13888.00
1505.426, 14058.00
1506.463, 14135.00
1507.499, 14154.00
1508.535, 14039.00
1509.570, 14187.00
1510.606, 14296.00
1511.641, 14150.00
1512.676, 14240.00
1513.711, 14399.00
1514.746, 14301.00
1515.781, 14204.00
1516.816, 14132.00
1517.850, 14187.00
1518.884, 14299.00
1519.918, 14368.00
1520.952, 14470.00
1521.986, 14506.00
1523.019, 14566.43
1524.053, 14593.52
1525.086, 14644.00
1526.119, 14614.00
1527.152, 14634.00
1528.185, 14633.00
1529.217, 14592.00
1530.250, 14796.00
1531.282, 14861.00
1532.314, 14659.00
1533.346, 14896.00
1534.377, 14959.00
1535.409, 14895.00
1536.440, 15177.00
1537.472, 14950.00
1538.503, 14872.00
1539.534, 15025.00
1540.564, 14984.00
1541.595, 14850.00
1542.625, 14967.00
1543.656, 14875.55
1544.686, 15010.95
1545.716, 15099.91
1546.745, 15144.90
1547.775, 15014.36
1548.804, 15110.48
1549.834, 15115.79
1550.863, 15117.34
1551.892, 15245.37
1552.920, 15140.31
1553.949, 15266.33
1554.977, 15300.10
1556.006, 15376.10
1557.034, 15360.67
1558.062, 15373.47
1559.089, 15477.68
1560.117, 15531.28
1561.144, 15505.30
1562.172, 15583.96
1563.199, 15475.67
1564.226, 15531.41
1565.252, 15657.88
1566.279, 15636.50
1567.305, 15716.77
1568.332, 15758.34
1569.358, 15503.00
1570.384, 15669.00
1571.409, 15594.00
1572.435, 15677.00
##END=



