##NAMES=Ferberite
##RRUFFID=R050632
##IDEAL CHEMISTRY=Fe^2+^W^6+^O_4_
##LOCALITY=Chance mine, Boulder, Colorado, USA
##OWNER=RRUFF
##SOURCE=University of Arizona Mineral Museum
##DESCRIPTION=Dark brown rectangular prismatic crystals
##STATUS=The identification of this mineral has been confirmed by X-ray diffraction and chemical analysis
##URL=rruff.info/R050632
##MEASURED CHEMISTRY=Fe^2+^_1.00_WO_4_
##PIN_ID=M00461
##ORIENTATION=Laser parallel to b* (0 1 0). Fiducial mark perpendicular to laser is parallel to c [0 0 1]
157.4550, 42596.00
158.6810, 42500.00
159.9080, 42615.00
161.1340, 42777.00
162.3590, 43076.00
163.5850, 43366.00
164.8110, 43440.00
166.0360, 43453.00
167.2610, 43327.00
168.4860, 43155.00
169.7110, 43500.00
170.9360, 43778.00
172.1610, 43265.00
173.3850, 43442.00
174.6100, 43038.00
175.8340, 43421.00
177.0580, 43447.00
178.2820, 43385.00
179.5050, 43370.00
180.7290, 43472.00
181.9520, 43486.00
183.1760, 43589.00
184.3990, 43766.00
185.6220, 44035.00
186.8450, 44179.00
188.0670, 44301.00
189.2900, 44465.00
190.5120, 44920.00
191.7340, 44843.00
192.9560, 45297.00
194.1780, 45184.00
195.4000, 45606.00
196.6220, 45887.00
197.8430, 45614.00
199.0640, 45974.00
200.2860, 46368.00
201.5070, 47029.00
202.7270, 47234.00
203.9480, 46126.00
205.1690, 45346.00
206.3890, 44882.00
207.6090, 44954.00
208.8290, 44984.00
210.0490, 45016.00
211.2690, 45310.00
212.4890, 45293.00
213.7080, 45023.00
214.9280, 44899.00
216.1470, 44403.00
217.3660, 44177.00
218.5850, 43792.00
219.8030, 43726.00
221.0220, 43781.00
222.2400, 43938.00
223.4590, 43864.00
224.6770, 43771.00
225.8950, 43829.00
227.1120, 43830.00
228.3300, 43592.00
229.5480, 43818.00
230.7650, 43672.00
231.9820, 43721.00
233.1990, 43959.00
234.4160, 43838.00
235.6330, 43764.00
236.8490, 44074.00
238.0660, 43810.00
239.2820, 43824.00
240.4980, 43853.00
241.7140, 44192.00
242.9300, 43758.45
244.1460, 43897.40
245.3610, 43989.27
246.5770, 44036.64
247.7920, 43906.08
249.0070, 44005.25
250.2220, 44012.35
251.4370, 44015.67
252.6510, 44147.14
253.8660, 44042.46
255.0800, 44171.89
256.2940, 44207.87
257.5080, 44286.61
258.7220, 44272.73
259.9360, 44287.46
261.1490, 44394.82
262.3630, 44450.90
263.5760, 44426.33
264.7890, 44507.77
266.0020, 44399.80
267.2150, 44458.04
268.4270, 44587.97
269.6400, 44568.05
270.8520, 44651.16
272.0640, 44695.02
273.2760, 44560.53
274.4880, 44736.21
275.7000, 44777.76
276.9120, 44681.56
278.1230, 44846.60
279.3340, 44769.37
280.5450, 44778.61
281.7560, 44852.93
282.9670, 44859.41
284.1780, 44972.84
285.3880, 44983.21
286.5980, 44984.38
287.8090, 45025.74
289.0190, 44953.23
290.2290, 45166.00
291.4380, 45445.00
292.6480, 45512.00
293.8570, 45664.00
295.0670, 45637.00
296.2760, 45575.00
297.4850, 45636.00
298.6930, 45315.00
299.9020, 45696.00
301.1110, 45467.00
302.3190, 45620.00
303.5270, 45714.00
304.7350, 45440.00
305.9430, 45699.00
307.1510, 45838.00
308.3580, 45978.00
309.5660, 46030.00
310.7730, 46118.40
311.9800, 46211.00
313.1870, 46172.00
314.3940, 46116.00
315.6010, 46036.00
316.8070, 46106.50
318.0130, 46131.00
319.2200, 46268.00
320.4260, 46372.00
321.6310, 46493.00
322.8370, 46530.00
324.0430, 46461.00
325.2480, 46629.00
326.4540, 46757.00
327.6590, 46643.00
328.8640, 47017.00
330.0680, 46882.00
331.2730, 46850.00
332.4780, 46946.00
333.6820, 46802.00
334.8860, 46775.00
336.0900, 46760.00
337.2940, 47024.00
338.4980, 47053.00
339.7010, 46991.00
340.9050, 46992.00
342.1080, 46836.00
343.3110, 47006.00
344.5140, 46906.00
345.7170, 47104.00
346.9200, 46893.00
348.1220, 46971.00
349.3240, 46953.00
350.5270, 47165.00
351.7290, 47118.00
352.9310, 47169.00
354.1320, 47248.00
355.3340, 46833.00
356.5350, 46812.00
357.7370, 47317.00
358.9380, 47038.00
360.1390, 47363.00
361.3400, 47283.00
362.5400, 47684.00
363.7410, 47538.00
364.9410, 47452.00
366.1410, 47668.00
367.3410, 47328.00
368.5410, 47450.00
369.7410, 47545.00
370.9400, 47623.00
372.1400, 47627.00
373.3390, 47613.00
374.5380, 47860.00
375.7370, 47716.00
376.9360, 47599.00
378.1350, 47857.00
379.3330, 47903.00
380.5310, 47911.00
381.7300, 47959.00
382.9280, 48008.00
384.1260, 47870.00
385.3230, 48003.00
386.5210, 48156.00
387.7180, 48310.00
388.9160, 48232.00
390.1130, 48335.00
391.3100, 47980.00
392.5060, 48240.00
393.7030, 48311.00
394.9000, 48768.00
396.0960, 48696.71
397.2920, 48537.00
398.4880, 48803.00
399.6840, 48720.00
400.8800, 49035.00
402.0750, 48985.51
403.2710, 49093.00
404.4660, 48959.00
405.6610, 48789.00
406.8560, 48767.00
408.0510, 48664.00
409.2450, 48824.00
410.4400, 49231.00
411.6340, 49090.00
412.8280, 48946.00
414.0220, 48636.00
415.2160, 48821.00
416.4100, 48964.00
417.6030, 49150.00
418.7970, 48877.00
419.9900, 49415.00
421.1830, 49149.00
422.3760, 49320.00
423.5690, 49308.00
424.7610, 49320.00
425.9540, 49074.00
427.1460, 49317.00
428.3380, 49325.00
429.5300, 49250.00
430.7220, 49618.00
431.9140, 49474.00
433.1050, 49577.00
434.2970, 49598.00
435.4880, 49575.00
436.6790, 49689.00
437.8700, 49675.00
439.0610, 49648.00
440.2510, 49705.00
441.4420, 49506.00
442.6320, 49759.00
443.8220, 49474.00
445.0120, 49709.00
446.2020, 50078.00
447.3910, 49988.00
448.5810, 49873.00
449.7700, 50234.00
450.9600, 50149.00
452.1490, 50137.00
453.3370, 50179.00
454.5260, 50075.00
455.7150, 49814.00
456.9030, 50445.00
458.0910, 50449.00
459.2800, 50192.00
460.4670, 50221.00
461.6550, 50330.00
462.8430, 50201.00
464.0300, 50351.29
465.2180, 50351.00
466.4050, 50482.00
467.5920, 50516.00
468.7790, 50453.00
469.9650, 50428.00
471.1520, 50692.00
472.3380, 50368.00
473.5250, 50443.00
474.7110, 50788.00
475.8970, 50505.00
477.0820, 50770.00
478.2680, 50760.00
479.4540, 51133.00
480.6390, 50904.00
481.8240, 50848.00
483.0090, 50957.00
484.1940, 51154.00
485.3780, 51243.00
486.5630, 51064.00
487.7470, 51176.00
488.9320, 51173.00
490.1160, 51195.00
491.3000, 51243.00
492.4830, 51162.00
493.6670, 51299.00
494.8500, 51623.00
496.0340, 51526.00
497.2170, 51540.00
498.4000, 51585.00
499.5820, 51432.00
500.7650, 51563.31
501.9480, 51379.00
503.1300, 51704.00
504.3120, 51678.00
505.4940, 51701.00
506.6760, 51774.00
507.8580, 51522.00
509.0390, 52010.00
510.2210, 51678.00
511.4020, 51992.00
512.5830, 51734.00
513.7640, 51669.00
514.9450, 52099.00
516.1250, 51975.00
517.3060, 51874.00
518.4860, 52267.00
519.6660, 52199.00
520.8460, 52144.00
522.0260, 52286.00
523.2060, 52342.00
524.3850, 52388.00
525.5650, 52502.00
526.7440, 52642.00
527.9230, 52381.00
529.1020, 52667.00
530.2810, 52648.00
531.4590, 52303.00
532.6380, 52528.00
533.8160, 52408.00
534.9940, 52498.00
536.1720, 52566.00
537.3500, 52755.00
538.5270, 52820.00
539.7050, 52577.00
540.8820, 52725.00
542.0590, 52816.00
543.2360, 53209.00
544.4130, 53280.00
545.5900, 52613.00
546.7660, 52935.00
547.9430, 52876.00
549.1190, 52860.00
550.2950, 53017.00
551.4710, 53293.00
552.6470, 53001.00
553.8220, 53489.00
554.9980, 53088.00
556.1730, 53263.00
557.3480, 53215.00
558.5230, 53340.00
559.6980, 53392.00
560.8730, 53114.00
562.0470, 53412.00
563.2220, 53340.00
564.3960, 53497.00
565.5700, 53249.00
566.7440, 53288.00
567.9170, 53225.00
569.0910, 53249.00
570.2640, 53238.15
571.4380, 53142.78
572.6110, 53238.00
573.7840, 52990.00
574.9570, 52995.00
576.1290, 53004.00
577.3020, 52799.00
578.4740, 52694.00
579.6460, 52665.00
580.8180, 52602.64
581.9900, 52460.00
583.1620, 52568.00
584.3330, 52263.00
585.5040, 52126.00
586.6760, 52261.00
587.8470, 52328.00
589.0180, 52294.00
590.1880, 52057.00
591.3590, 52218.00
592.5290, 51864.00
593.7000, 52213.00
594.8700, 52156.00
596.0400, 51965.00
597.2090, 52210.00
598.3790, 52278.00
599.5490, 52418.00
600.7180, 52106.00
601.8870, 52109.00
603.0560, 52213.00
604.2250, 51785.00
605.3940, 52342.00
606.5620, 52135.00
607.7300, 52511.00
608.8990, 52276.00
610.0670, 52226.00
611.2350, 52291.00
612.4020, 52160.00
613.5700, 52368.00
614.7370, 52171.00
615.9050, 52060.00
617.0720, 52205.00
618.2390, 52232.00
619.4060, 52338.00
620.5720, 52351.00
621.7390, 52298.04
622.9050, 52447.00
624.0710, 52384.20
625.2370, 52420.00
626.4030, 52378.00
627.5690, 52402.00
628.7340, 52437.00
629.9000, 52427.00
631.0650, 52326.00
632.2300, 52402.81
633.3950, 52408.00
634.5600, 52582.00
635.7240, 52471.00
636.8890, 52764.00
638.0530, 52448.00
639.2170, 52284.00
640.3810, 52364.00
641.5450, 52509.00
642.7080, 52637.00
643.8720, 52668.45
645.0350, 52612.00
646.1980, 52755.00
647.3610, 52686.00
648.5240, 52767.00
649.6870, 52536.00
650.8490, 52669.00
652.0120, 52511.00
653.1740, 52778.00
654.3360, 52752.00
655.4980, 52571.00
656.6600, 52848.00
657.8210, 52844.00
658.9830, 52541.00
660.1440, 52900.00
661.3050, 52728.00
662.4660, 53028.00
663.6270, 52893.00
664.7870, 52919.00
665.9480, 53118.00
667.1080, 52932.00
668.2680, 52904.00
669.4280, 52773.00
670.5880, 53024.00
671.7480, 53357.00
672.9070, 53420.00
674.0670, 53453.00
675.2260, 53312.00
676.3850, 53771.00
677.5440, 53862.00
678.7030, 54168.00
679.8610, 54247.00
681.0200, 54263.00
682.1780, 54866.00
683.3360, 54765.00
684.4940, 54812.00
685.6520, 54809.00
686.8090, 55360.00
687.9670, 54845.00
689.1240, 55159.00
690.2810, 55223.00
691.4380, 54832.00
692.5950, 54845.00
693.7520, 54832.00
694.9080, 55064.00
696.0650, 54723.00
697.2210, 54646.00
698.3770, 54665.00
699.5330, 54529.00
700.6880, 54420.71
701.8440, 54139.00
702.9990, 54111.00
704.1550, 53864.00
705.3100, 53679.00
706.4650, 53675.00
707.6190, 53923.00
708.7740, 53487.00
709.9290, 53570.00
711.0830, 53246.00
712.2370, 53454.00
713.3910, 53460.00
714.5450, 53355.00
715.6980, 53336.00
716.8520, 53245.00
718.0050, 53343.00
719.1580, 53557.00
720.3110, 53414.00
721.4640, 53316.00
722.6170, 53611.00
723.7700, 53406.00
724.9220, 53238.00
726.0740, 53331.00
727.2260, 53311.00
728.3780, 53588.00
729.5300, 53367.00
730.6810, 53215.00
731.8330, 53573.00
732.9840, 53501.00
734.1350, 53287.00
735.2860, 53388.00
736.4370, 53203.00
737.5880, 53433.00
738.7380, 53413.00
739.8880, 53406.60
741.0390, 53488.00
742.1890, 53418.00
743.3380, 53388.00
744.4880, 53374.00
745.6380, 53148.00
746.7870, 53253.54
747.9360, 53539.00
749.0850, 53356.00
750.2340, 53583.00
751.3830, 53665.00
752.5310, 53860.00
753.6800, 53722.00
754.8280, 53649.00
755.9760, 53484.00
757.1240, 53510.00
758.2720, 53500.86
759.4190, 53453.47
760.5670, 53625.00
761.7140, 53438.00
762.8610, 53529.00
764.0080, 53522.00
765.1550, 53659.00
766.3020, 53913.00
767.4480, 53709.00
768.5950, 53796.00
769.7410, 54145.00
770.8870, 53919.00
772.0330, 53862.00
773.1780, 53880.00
774.3240, 53761.71
775.4690, 54236.00
776.6140, 53709.00
777.7590, 53864.00
778.9040, 53921.00
780.0490, 53479.00
781.1940, 53796.00
782.3380, 54017.00
783.4820, 53585.00
784.6260, 53813.00
785.7700, 53356.00
786.9140, 53631.00
788.0580, 53923.00
789.2010, 53653.00
790.3450, 53776.00
791.4880, 53604.00
792.6310, 53730.00
793.7730, 53711.00
794.9160, 53837.00
796.0590, 53880.00
797.2010, 53880.00
798.3430, 53735.00
799.4850, 53862.00
800.6270, 54146.00
801.7690, 53941.00
802.9100, 54009.00
804.0520, 53924.00
805.1930, 53885.56
806.3340, 53875.39
807.4750, 53853.00
808.6160, 53860.00
809.7560, 53851.00
810.8970, 53960.00
812.0370, 54148.00
813.1770, 54084.00
814.3170, 54110.00
815.4570, 53960.00
816.5960, 54188.00
817.7360, 54066.00
818.8750, 54379.00
820.0140, 53934.00
821.1530, 54359.00
822.2920, 53709.00
823.4310, 53952.00
824.5690, 54394.00
825.7070, 54900.00
826.8460, 54238.00
827.9840, 54224.00
829.1220, 54383.00
830.2590, 54422.00
831.3970, 54122.00
832.5340, 54282.00
833.6710, 54137.00
834.8080, 54264.00
835.9450, 54524.00
837.0820, 54545.00
838.2190, 54466.00
839.3550, 54307.00
840.4910, 54446.00
841.6270, 54459.00
842.7630, 54493.00
843.8990, 54544.00
845.0350, 54595.00
846.1700, 54767.00
847.3060, 54667.00
848.4410, 54999.00
849.5760, 54962.00
850.7100, 54839.00
851.8450, 55004.00
852.9800, 55306.00
854.1140, 55098.00
855.2480, 55470.00
856.3820, 55206.00
857.5160, 56033.00
858.6500, 55507.00
859.7830, 55464.00
860.9170, 56651.00
862.0500, 56405.00
863.1830, 56285.00
864.3160, 56756.00
865.4480, 56735.00
866.5810, 57424.00
867.7130, 57687.00
868.8460, 58072.00
869.9780, 58266.00
871.1100, 58682.00
872.2410, 59821.00
873.3730, 59478.00
874.5050, 59896.00
875.6360, 60138.00
876.7670, 60009.00
877.8980, 60373.00
879.0290, 59601.00
880.1590, 59553.00
881.2900, 58788.00
882.4200, 58629.00
883.5500, 57947.00
884.6800, 57379.00
885.8100, 57277.00
886.9400, 56786.00
888.0690, 56271.00
889.1990, 56216.00
890.3280, 56300.00
891.4570, 56183.00
892.5860, 55706.00
893.7140, 55526.00
894.8430, 55511.00
895.9710, 55729.00
897.1000, 55546.00
898.2280, 55545.00
899.3560, 55572.00
900.4830, 55405.00
901.6110, 55526.00
902.7380, 55697.00
903.8660, 55410.00
904.9930, 55467.00
906.1200, 55455.00
907.2460, 55411.00
908.3730, 55280.00
909.5000, 55595.00
910.6260, 55205.00
911.7520, 55281.00
912.8780, 55457.00
914.0040, 55129.00
915.1290, 55386.00
916.2550, 55436.00
917.3800, 55432.00
918.5050, 55599.00
919.6300, 55113.00
920.7550, 55383.00
921.8800, 55333.00
923.0040, 55306.00
924.1290, 55507.00
925.2530, 55316.00
926.3770, 55206.00
927.5010, 55317.18
928.6250, 55426.00
929.7480, 55477.00
930.8720, 55368.00
931.9950, 55568.00
933.1180, 55606.00
934.2410, 55312.00
935.3640, 55351.00
936.4860, 55573.00
937.6090, 55312.00
938.7310, 55628.00
939.8530, 55464.00
940.9750, 55652.00
942.0970, 55989.00
943.2180, 55649.00
944.3400, 55523.00
945.4610, 55579.00
946.5820, 55753.00
947.7030, 55678.00
948.8240, 55876.00
949.9450, 55992.00
951.0650, 55842.00
952.1860, 55883.00
953.3060, 55863.00
954.4260, 55799.00
955.5460, 56009.00
956.6650, 56008.00
957.7850, 55996.04
958.9040, 55797.00
960.0230, 55970.00
961.1420, 55897.00
962.2610, 55939.00
963.3800, 55974.00
964.4990, 55970.00
965.6170, 55955.03
966.7350, 56029.00
967.8530, 55917.00
968.9710, 55790.00
970.0890, 55844.91
971.2070, 55852.38
972.3240, 55951.00
973.4410, 56057.00
974.5580, 55948.00
975.6750, 56100.00
976.7920, 56101.46
977.9090, 56119.48
979.0250, 56253.00
980.1410, 56100.00
981.2580, 56311.00
982.3740, 56136.00
983.4890, 56414.00
984.6050, 56408.00
985.7200, 56250.00
986.8360, 56470.00
987.9510, 56404.00
989.0660, 56372.00
990.1810, 56338.00
991.2950, 56404.00
992.4100, 56393.00
993.5240, 56454.00
994.6390, 56637.00
995.7530, 56482.00
996.8660, 56772.00
997.9800, 56974.00
999.0940, 56450.00
1000.207, 56652.00
1001.320, 56551.00
1002.433, 56652.00
1003.546, 56811.00
1004.659, 56552.00
1005.772, 56603.00
1006.884, 56461.00
1007.996, 56878.00
1009.108, 56654.00
1010.220, 56855.00
1011.332, 56743.00
1012.444, 56650.00
1013.555, 56728.00
1014.666, 56563.00
1015.777, 56750.00
1016.888, 56724.76
1017.999, 56804.00
1019.110, 56752.00
1020.220, 56791.00
1021.331, 56684.00
1022.441, 56683.59
1023.551, 56692.44
1024.661, 56634.00
1025.770, 56753.00
1026.880, 56759.00
1027.989, 56857.00
1029.098, 56645.00
1030.207, 56716.00
1031.316, 56786.00
1032.425, 56878.00
1033.533, 56979.00
1034.642, 56826.00
1035.750, 56944.00
1036.858, 56780.00
1037.966, 56794.00
1039.073, 57028.00
1040.181, 56765.00
1041.288, 56781.00
1042.396, 57015.00
1043.503, 57116.00
1044.610, 57250.00
1045.716, 57312.31
1046.823, 57534.00
1047.929, 57241.00
1049.036, 57098.00
1050.142, 56787.00
1051.248, 56953.13
1052.353, 56960.35
1053.459, 57345.00
1054.564, 57206.00
1055.670, 57386.00
1056.775, 57316.00
1057.880, 57321.64
1058.985, 57051.00
1060.089, 57264.00
1061.194, 57287.00
1062.298, 57148.00
1063.402, 57522.00
1064.506, 57483.00
1065.610, 57505.00
1066.713, 57823.00
1067.817, 57672.00
1068.920, 57413.00
1070.023, 57706.00
1071.126, 57609.00
1072.229, 57332.00
1073.332, 57353.00
1074.435, 57230.00
1075.537, 57223.00
1076.639, 57616.00
1077.741, 57478.00
1078.843, 57559.00
1079.945, 57232.00
1081.046, 57341.00
1082.148, 57554.00
1083.249, 57429.00
1084.350, 57734.00
1085.451, 57514.00
1086.551, 57500.00
1087.652, 57288.00
1088.752, 57250.00
1089.853, 57203.00
1090.953, 57428.00
1092.053, 57061.00
1093.152, 57378.00
1094.252, 57336.00
1095.351, 57388.00
1096.451, 57269.00
1097.550, 57321.00
1098.649, 57305.00
1099.748, 57536.00
1100.846, 57177.00
1101.945, 57450.00
1103.043, 57406.00
1104.141, 57272.00
1105.239, 57484.00
1106.337, 57346.00
1107.434, 57476.00
1108.532, 57089.00
1109.629, 57191.00
1110.726, 57215.00
1111.823, 57298.00
1112.920, 57292.00
1114.017, 57280.00
1115.113, 57189.00
1116.210, 57353.00
1117.306, 56960.00
1118.402, 57742.00
1119.498, 57502.06
1120.593, 57686.00
1121.689, 57424.00
1122.784, 57484.00
1123.879, 57158.00
1124.974, 57202.00
1126.069, 57446.00
1127.164, 57204.00
1128.259, 57367.00
1129.353, 57245.20
1130.447, 57146.00
1131.541, 57018.00
1132.635, 56909.00
1133.729, 56818.00
1134.822, 56989.00
1135.916, 56918.00
1137.009, 56839.00
1138.102, 56875.00
1139.195, 56695.00
1140.288, 56550.00
1141.380, 56927.00
1142.473, 56853.00
1143.565, 56946.00
1144.657, 57117.00
1145.749, 56837.00
1146.841, 56744.00
1147.932, 56751.00
1149.024, 56531.00
1150.115, 56550.79
1151.206, 56664.00
1152.297, 56485.00
1153.388, 56546.00
1154.479, 56505.00
1155.569, 56665.00
1156.659, 56774.00
1157.750, 56531.00
1158.839, 56643.00
1159.929, 56513.00
1161.019, 56604.00
1162.108, 56491.00
1163.198, 56696.00
1164.287, 56630.27
1165.376, 56361.00
1166.465, 56609.00
1167.553, 56636.00
1168.642, 56626.00
1169.730, 56779.00
1170.818, 56554.00
1171.906, 56612.00
1172.994, 56583.00
1174.082, 56397.00
1175.170, 56394.00
1176.257, 56623.00
1177.344, 56452.00
1178.431, 56454.00
1179.518, 56380.00
1180.605, 56348.85
1181.691, 56372.00
1182.778, 56409.00
1183.864, 56550.00
1184.950, 56485.55
1186.036, 56569.00
1187.122, 56428.00
1188.207, 56375.00
1189.292, 56367.71
1190.378, 56477.00
1191.463, 56501.00
1192.548, 56498.00
1193.632, 56613.00
1194.717, 56370.00
1195.801, 56357.00
1196.886, 56436.00
1197.970, 56445.00
1199.054, 56485.99
1200.137, 56428.00
1201.221, 56555.00
1202.305, 56457.02
1203.388, 56452.00
1204.471, 56269.00
1205.554, 56532.00
1206.637, 56213.00
1207.719, 56584.00
1208.802, 56552.00
1209.884, 56061.00
1210.966, 56569.00
1212.048, 56581.00
1213.130, 56636.00
1214.212, 56552.00
1215.293, 56681.00
1216.374, 56493.75
1217.456, 56596.00
1218.536, 56251.00
1219.617, 56350.00
1220.698, 56450.00
1221.778, 56495.00
1222.859, 56408.00
1223.939, 56272.00
1225.019, 56381.00
1226.099, 56244.50
1227.178, 56457.00
1228.258, 56170.00
1229.337, 56396.00
1230.417, 56490.00
1231.496, 56761.00
1232.574, 56343.00
1233.653, 56544.00
1234.732, 56462.00
1235.810, 56501.00
1236.888, 56837.00
1237.966, 56449.00
1239.044, 56876.00
1240.122, 56567.00
1241.199, 56731.00
1242.277, 56252.00
1243.354, 56500.00
1244.431, 56181.00
1245.508, 56314.00
1246.585, 56330.00
1247.661, 56207.00
1248.738, 56614.00
1249.814, 56451.00
1250.890, 56636.00
1251.966, 56609.00
1253.042, 56468.00
1254.117, 56413.00
1255.193, 56463.00
1256.268, 56375.00
1257.343, 56462.00
1258.418, 56535.00
1259.493, 56660.00
1260.567, 56559.00
1261.642, 56367.00
1262.716, 56592.00
1263.790, 56555.00
1264.864, 56736.00
1265.938, 56730.00
1267.011, 56653.26
1268.085, 56788.00
1269.158, 56551.00
1270.231, 56639.54
1271.304, 56406.00
1272.377, 56584.00
1273.450, 56550.00
1274.522, 56332.00
1275.594, 56428.00
1276.666, 56109.00
1277.738, 56418.00
1278.810, 56230.00
1279.882, 56230.00
1280.953, 56655.00
1282.025, 56350.00
1283.096, 56752.00
1284.167, 57119.00
1285.238, 56623.00
1286.308, 56815.00
1287.379, 56559.00
1288.449, 56735.00
1289.519, 56490.00
1290.589, 56509.00
1291.659, 56967.00
1292.729, 56346.00
1293.798, 56763.00
1294.868, 56618.00
1295.937, 56619.00
1297.006, 56634.00
1298.075, 56396.00
1299.143, 56507.00
1300.212, 56718.00
1301.280, 56498.00
1302.348, 56977.00
1303.416, 56753.15
1304.484, 56786.00
1305.552, 56737.00
1306.620, 56665.54
1307.687, 56854.00
1308.754, 56618.00
1309.821, 56658.00
1310.888, 56664.00
1311.955, 56947.00
1313.021, 56762.00
1314.088, 56939.00
1315.154, 56603.00
1316.220, 56683.00
1317.286, 56641.00
1318.352, 56751.00
1319.417, 56788.03
1320.483, 56703.00
1321.548, 56817.00
1322.613, 56711.00
1323.678, 56505.00
1324.743, 56627.00
1325.807, 56679.00
1326.872, 56839.00
1327.936, 56826.48
1329.000, 56869.00
1330.064, 56834.00
1331.128, 56758.00
1332.191, 56789.00
1333.255, 56710.00
1334.318, 56852.00
1335.381, 57030.00
1336.444, 57062.00
1337.507, 56628.00
1338.569, 56691.00
1339.632, 56972.00
1340.694, 56526.00
1341.756, 56721.00
1342.818, 56579.00
1343.880, 57170.00
1344.941, 56764.00
1346.003, 56645.00
1347.064, 56799.00
1348.125, 56660.00
1349.186, 57166.00
1350.247, 56675.00
1351.308, 56846.00
1352.368, 57117.00
1353.428, 56789.00
1354.489, 56824.00
1355.549, 56796.00
1356.608, 57056.00
1357.668, 56948.53
1358.727, 57259.00
1359.787, 56812.00
1360.846, 57051.00
1361.905, 56850.00
1362.964, 56825.00
1364.022, 56539.00
1365.081, 56461.00
1366.139, 56684.00
1367.197, 56769.00
1368.255, 56800.00
1369.313, 56979.00
1370.371, 56956.00
1371.428, 56697.00
1372.486, 56795.00
1373.543, 56688.40
1374.600, 56808.46
1375.657, 56881.47
1376.713, 56909.94
1377.770, 56760.52
1378.826, 56840.81
1379.882, 56829.04
1380.938, 56813.48
1381.994, 56926.10
1383.050, 56802.55
1384.106, 56913.13
1385.161, 56930.24
1386.216, 56990.12
1387.271, 56957.38
1388.326, 56953.25
1389.381, 57041.77
1390.435, 57078.98
1391.490, 57035.57
1392.544, 56938.00
1393.598, 57001.00
1394.652, 57089.00
1395.705, 56835.00
1396.759, 57027.00
1397.812, 56971.00
1398.866, 56733.00
1399.919, 57004.00
1400.972, 56888.00
1402.024, 57273.00
1403.077, 57094.00
1404.129, 56998.00
1405.181, 56970.00
1406.233, 57038.00
1407.285, 56925.00
1408.337, 56972.00
1409.389, 57113.00
1410.440, 56967.00
1411.491, 57045.00
1412.542, 57010.00
1413.593, 57001.48
1414.644, 57170.00
1415.695, 56935.00
1416.745, 56925.00
1417.795, 56690.00
1418.845, 56791.00
1419.895, 56861.00
1420.945, 57275.00
1421.995, 57085.00
1423.044, 57249.00
1424.093, 56982.00
1425.142, 57201.00
1426.191, 56924.00
1427.240, 56700.00
1428.289, 56753.00
1429.337, 56860.00
1430.385, 57093.00
1431.433, 57060.00
1432.481, 57159.17
1433.529, 57168.00
1434.577, 57075.00
1435.624, 57100.00
1436.672, 56767.00
1437.719, 57079.00
1438.766, 56773.00
1439.812, 56954.00
1440.859, 57035.00
1441.905, 57024.00
1442.952, 57140.00
1443.998, 57214.00
1445.044, 57040.00
1446.090, 57386.00
1447.135, 57055.00
1448.181, 57311.00
1449.226, 57238.00
1450.271, 56875.00
1451.316, 56777.00
1452.361, 56936.00
1453.405, 56994.00
1454.450, 57290.00
1455.494, 56955.00
1456.538, 56861.00
1457.582, 57090.00
1458.626, 57052.00
1459.670, 57195.00
1460.713, 56761.00
1461.757, 56870.00
1462.800, 56934.00
1463.843, 57344.00
1464.886, 57270.00
1465.928, 56985.00
1466.971, 57270.00
1468.013, 57176.00
1469.055, 57118.00
1470.097, 57172.00
1471.139, 56920.00
1472.181, 56967.56
1473.222, 57182.00
1474.263, 56904.00
1475.305, 57078.00
1476.346, 57052.00
1477.386, 57081.00
1478.427, 57372.00
1479.468, 57167.00
1480.508, 57187.00
1481.548, 57220.00
1482.588, 57417.00
1483.628, 57286.00
1484.668, 57197.00
1485.707, 57471.00
1486.747, 57236.00
1487.786, 57175.00
1488.825, 57187.00
1489.864, 56952.00
1490.902, 57199.00
1491.941, 56857.00
1492.979, 57168.00
1494.017, 56931.00
1495.055, 57118.00
1496.093, 57239.00
1497.131, 56926.00
1498.168, 56772.00
1499.206, 57346.00
1500.243, 56925.00
1501.280, 57136.00
1502.317, 56870.00
1503.354, 57004.00
1504.390, 57347.00
1505.426, 57227.00
1506.463, 57205.00
1507.499, 57617.00
1508.535, 57078.00
1509.570, 57098.00
1510.606, 57090.00
1511.641, 57359.00
1512.676, 57228.00
1513.711, 57113.00
1514.746, 57250.00
1515.781, 57054.00
1516.816, 57050.00
1517.850, 57191.00
1518.884, 56989.00
1519.918, 57296.00
1520.952, 57353.00
1521.986, 56925.00
1523.019, 57065.00
1524.053, 57084.00
1525.086, 57498.00
1526.119, 57305.00
1527.152, 57479.00
1528.185, 57344.00
1529.217, 57357.00
1530.250, 57399.00
1531.282, 57234.00
1532.314, 57121.00
1533.346, 57187.35
1534.377, 57275.00
1535.409, 57275.00
1536.440, 57203.00
1537.472, 57228.00
1538.503, 57173.93
1539.534, 57083.00
1540.564, 57183.31
1541.595, 57302.23
1542.625, 57374.09
1543.656, 57401.43
1544.686, 57250.87
1545.716, 57330.02
1546.745, 57317.09
1547.775, 57300.41
1548.804, 57411.88
1549.834, 57287.19
1550.863, 57396.63
1551.892, 57412.60
1552.920, 57471.34
1553.949, 57437.46
1554.977, 57432.19
1556.006, 57519.58
1557.034, 57555.66
1558.062, 57511.10
1559.089, 57572.55
1560.117, 57444.60
1561.144, 57482.85
1562.172, 57592.82
1563.199, 57552.92
1564.226, 57222.00
1565.252, 57219.00
1566.279, 57367.00
1567.305, 57405.00
1568.332, 57259.00
1569.358, 57444.00
1570.384, 57310.00
1571.409, 57498.00
##END=



