##NAMES=Ferberite
##RRUFFID=R050632
##IDEAL CHEMISTRY=Fe^2+^W^6+^O_4_
##LOCALITY=Chance mine, Boulder, Colorado, USA
##OWNER=RRUFF
##SOURCE=University of Arizona Mineral Museum
##DESCRIPTION=Dark brown rectangular prismatic crystals
##STATUS=The identification of this mineral has been confirmed by X-ray diffraction and chemical analysis
##URL=rruff.info/R050632
##MEASURED CHEMISTRY=Fe^2+^_1.00_WO_4_
##PIN_ID=L00968
##ORIENTATION=Laser parallel to c* (0 0 1). Fiducial mark perpendicular to laser is parallel to a [1 0 0]
156.2290, 13421.17
157.4550, 13079.00
158.6810, 13062.00
159.9080, 12856.00
161.1340, 12868.00
162.3590, 13049.00
163.5850, 13345.00
164.8110, 13723.00
166.0360, 13766.00
167.2610, 13774.00
168.4860, 13682.00
169.7110, 13818.00
170.9360, 14103.00
172.1610, 14100.00
173.3850, 14260.00
174.6100, 13880.00
175.8340, 14038.00
177.0580, 14107.00
178.2820, 14229.00
179.5050, 14588.00
180.7290, 14486.00
181.9520, 14711.00
183.1760, 14377.00
184.3990, 14514.00
185.6220, 14576.00
186.8450, 14752.00
188.0670, 15257.00
189.2900, 15119.18
190.5120, 14735.00
191.7340, 15155.00
192.9560, 15246.00
194.1780, 15426.00
195.4000, 15626.89
196.6220, 15748.13
197.8430, 15822.46
199.0640, 15852.40
200.2860, 15705.04
201.5070, 15786.63
202.7270, 15776.45
203.9480, 15762.52
205.1690, 15876.34
206.3890, 15754.75
207.6090, 15866.53
208.8290, 15885.15
210.0490, 15604.00
211.2690, 15099.00
212.4890, 15111.00
213.7080, 14988.00
214.9280, 14753.00
216.1470, 14565.34
217.3660, 14574.00
218.5850, 14049.00
219.8030, 13801.00
221.0220, 13649.00
222.2400, 13741.00
223.4590, 13511.00
224.6770, 13449.00
225.8950, 13399.00
227.1120, 13428.00
228.3300, 13296.00
229.5480, 13145.00
230.7650, 13150.00
231.9820, 13150.00
233.1990, 13179.00
234.4160, 13211.00
235.6330, 13067.00
236.8490, 12967.00
238.0660, 12978.00
239.2820, 12953.00
240.4980, 12909.58
241.7140, 12930.51
242.9300, 12898.00
244.1460, 12937.00
245.3610, 12939.55
246.5770, 12948.53
247.7920, 12971.00
249.0070, 12988.00
250.2220, 13004.22
251.4370, 12954.75
252.6510, 13100.41
253.8660, 13199.19
255.0800, 13253.57
256.2940, 13130.62
257.5080, 13236.65
258.7220, 13250.91
259.9360, 13261.41
261.1490, 13399.63
262.3630, 13302.48
263.5760, 13438.67
264.7890, 13481.70
266.0020, 13567.37
267.2150, 13560.71
268.4270, 13582.54
269.6400, 13696.75
270.8520, 13610.00
272.0640, 13627.00
273.2760, 13587.00
274.4880, 13746.00
275.7000, 13847.00
276.9120, 13820.00
278.1230, 13823.00
279.3340, 13776.00
280.5450, 13754.27
281.7560, 13605.00
282.9670, 13692.00
284.1780, 13642.00
285.3880, 13619.00
286.5980, 13733.00
287.8090, 13595.00
289.0190, 13684.00
290.2290, 13587.00
291.4380, 13559.00
292.6480, 13709.00
293.8570, 13682.00
295.0670, 13764.00
296.2760, 13676.00
297.4850, 14045.00
298.6930, 13991.00
299.9020, 13857.00
301.1110, 14070.00
302.3190, 13929.00
303.5270, 14056.00
304.7350, 13996.00
305.9430, 14129.00
307.1510, 14091.00
308.3580, 14104.96
309.5660, 14117.00
310.7730, 14121.00
311.9800, 14197.00
313.1870, 14246.00
314.3940, 14450.00
315.6010, 14639.00
316.8070, 14688.00
318.0130, 14871.00
319.2200, 14906.00
320.4260, 15065.00
321.6310, 15355.00
322.8370, 15586.00
324.0430, 15653.00
325.2480, 16073.00
326.4540, 16108.00
327.6590, 16328.00
328.8640, 16273.00
330.0680, 16411.00
331.2730, 16504.00
332.4780, 16245.00
333.6820, 16183.00
334.8860, 16031.00
336.0900, 15889.00
337.2940, 15803.00
338.4980, 15742.00
339.7010, 15695.00
340.9050, 15643.00
342.1080, 15657.00
343.3110, 15584.00
344.5140, 15527.31
345.7170, 15477.11
346.9200, 15369.00
348.1220, 15369.00
349.3240, 15282.00
350.5270, 15296.00
351.7290, 15170.00
352.9310, 15261.00
354.1320, 15150.00
355.3340, 15026.00
356.5350, 15031.00
357.7370, 14851.00
358.9380, 14957.00
360.1390, 14754.00
361.3400, 14714.48
362.5400, 14813.00
363.7410, 14614.00
364.9410, 14713.00
366.1410, 14792.00
367.3410, 14626.00
368.5410, 14531.00
369.7410, 14611.00
370.9400, 14502.00
372.1400, 14462.00
373.3390, 14492.00
374.5380, 14332.00
375.7370, 14352.00
376.9360, 14376.00
378.1350, 14229.00
379.3330, 14352.00
380.5310, 14314.00
381.7300, 14253.00
382.9280, 14399.00
384.1260, 14160.00
385.3230, 14335.00
386.5210, 14149.00
387.7180, 14361.00
388.9160, 14400.00
390.1130, 14514.00
391.3100, 14367.00
392.5060, 14455.00
393.7030, 14645.00
394.9000, 14673.00
396.0960, 14852.00
397.2920, 15105.00
398.4880, 15319.00
399.6840, 15341.00
400.8800, 15514.00
402.0750, 15384.00
403.2710, 15208.00
404.4660, 14901.00
405.6610, 14796.93
406.8560, 14722.00
408.0510, 14559.00
409.2450, 14520.33
410.4400, 14330.00
411.6340, 14350.00
412.8280, 14210.00
414.0220, 13997.00
415.2160, 13864.00
416.4100, 13814.00
417.6030, 13664.00
418.7970, 13749.00
419.9900, 13750.00
421.1830, 13704.00
422.3760, 13696.00
423.5690, 13713.00
424.7610, 13686.00
425.9540, 13675.00
427.1460, 13678.40
428.3380, 13653.17
429.5300, 13674.00
430.7220, 13640.00
431.9140, 13632.00
433.1050, 13668.00
434.2970, 13626.00
435.4880, 13597.02
436.6790, 13695.00
437.8700, 13514.00
439.0610, 13761.00
440.2510, 13787.00
441.4420, 13650.00
442.6320, 13769.00
443.8220, 13775.00
445.0120, 13632.00
446.2020, 13723.00
447.3910, 13597.00
448.5810, 13779.00
449.7700, 13771.00
450.9600, 13791.00
452.1490, 13692.00
453.3370, 13711.81
454.5260, 13809.00
455.7150, 13739.00
456.9030, 13775.00
458.0910, 13915.00
459.2800, 13638.00
460.4670, 13883.00
461.6550, 13794.00
462.8430, 13865.00
464.0300, 13886.00
465.2180, 13804.00
466.4050, 13749.00
467.5920, 14056.00
468.7790, 13980.00
469.9650, 13949.00
471.1520, 14012.00
472.3380, 13964.00
473.5250, 14008.00
474.7110, 13961.00
475.8970, 14056.00
477.0820, 13947.00
478.2680, 13910.00
479.4540, 14111.00
480.6390, 14059.00
481.8240, 14106.00
483.0090, 14189.00
484.1940, 14195.00
485.3780, 14130.00
486.5630, 14241.00
487.7470, 14188.00
488.9320, 14285.00
490.1160, 14407.00
491.3000, 14427.00
492.4830, 14327.00
493.6670, 14358.00
494.8500, 14270.00
496.0340, 14321.79
497.2170, 14595.00
498.4000, 14520.00
499.5820, 14550.00
500.7650, 14840.00
501.9480, 14746.00
503.1300, 14872.00
504.3120, 14853.00
505.4940, 14891.14
506.6760, 14907.00
507.8580, 14897.00
509.0390, 15045.00
510.2210, 14869.00
511.4020, 14967.00
512.5830, 15168.00
513.7640, 15192.00
514.9450, 15151.00
516.1250, 15245.00
517.3060, 15242.00
518.4860, 15324.00
519.6660, 15353.00
520.8460, 15594.00
522.0260, 15460.00
523.2060, 15560.15
524.3850, 15439.00
525.5650, 15500.00
526.7440, 15595.00
527.9230, 15382.00
529.1020, 15487.00
530.2810, 15424.00
531.4590, 15649.00
532.6380, 15634.00
533.8160, 15530.00
534.9940, 15377.00
536.1720, 15503.00
537.3500, 15476.00
538.5270, 15500.00
539.7050, 15345.00
540.8820, 15374.00
542.0590, 15425.00
543.2360, 15357.00
544.4130, 15350.00
545.5900, 15238.00
546.7660, 15284.00
547.9430, 15170.00
549.1190, 15067.00
550.2950, 15018.00
551.4710, 15032.00
552.6470, 14959.00
553.8220, 15005.00
554.9980, 14920.00
556.1730, 14957.00
557.3480, 14894.00
558.5230, 14920.00
559.6980, 14880.00
560.8730, 14851.00
562.0470, 14934.00
563.2220, 14796.00
564.3960, 14783.00
565.5700, 14820.00
566.7440, 14906.00
567.9170, 14781.00
569.0910, 14828.00
570.2640, 14830.92
571.4380, 14796.11
572.6110, 14865.00
573.7840, 14797.00
574.9570, 14827.00
576.1290, 14850.00
577.3020, 14828.00
578.4740, 14711.00
579.6460, 14708.00
580.8180, 14623.00
581.9900, 14491.00
583.1620, 14509.00
584.3330, 14487.00
585.5040, 14372.00
586.6760, 14484.00
587.8470, 14388.00
589.0180, 14554.00
590.1880, 14398.00
591.3590, 14460.00
592.5290, 14384.00
593.7000, 14357.00
594.8700, 14373.00
596.0400, 14352.00
597.2090, 14336.00
598.3790, 14512.00
599.5490, 14347.00
600.7180, 14458.00
601.8870, 14331.00
603.0560, 14401.00
604.2250, 14486.00
605.3940, 14563.00
606.5620, 14491.00
607.7300, 14373.00
608.8990, 14430.76
610.0670, 14453.00
611.2350, 14476.00
612.4020, 14432.00
613.5700, 14515.00
614.7370, 14456.12
615.9050, 14477.65
617.0720, 14381.00
618.2390, 14485.00
619.4060, 14453.00
620.5720, 14454.00
621.7390, 14468.00
622.9050, 14478.00
624.0710, 14403.00
625.2370, 14465.00
626.4030, 14465.00
627.5690, 14426.00
628.7340, 14496.00
629.9000, 14333.00
631.0650, 14430.00
632.2300, 14381.00
633.3950, 14422.86
634.5600, 14467.09
635.7240, 14500.00
636.8890, 14549.00
638.0530, 14462.00
639.2170, 14492.00
640.3810, 14432.00
641.5450, 14405.32
642.7080, 14485.00
643.8720, 14466.00
645.0350, 14546.00
646.1980, 14494.44
647.3610, 14708.00
648.5240, 14482.00
649.6870, 14495.00
650.8490, 14690.00
652.0120, 14469.00
653.1740, 14607.00
654.3360, 14570.00
655.4980, 14541.00
656.6600, 14520.00
657.8210, 14557.62
658.9830, 14586.48
660.1440, 14639.00
661.3050, 14684.00
662.4660, 14677.00
663.6270, 14674.00
664.7870, 14794.00
665.9480, 14769.00
667.1080, 14710.00
668.2680, 14930.00
669.4280, 14714.00
670.5880, 14899.00
671.7480, 14839.00
672.9070, 15057.00
674.0670, 14860.00
675.2260, 15116.00
676.3850, 14950.00
677.5440, 15037.16
678.7030, 15361.00
679.8610, 15140.00
681.0200, 15308.00
682.1780, 15329.00
683.3360, 15439.00
684.4940, 15424.00
685.6520, 15434.75
686.8090, 15473.45
687.9670, 15432.00
689.1240, 15467.00
690.2810, 15543.00
691.4380, 15474.00
692.5950, 15440.00
693.7520, 15382.00
694.9080, 15323.00
696.0650, 15325.00
697.2210, 15233.00
698.3770, 15167.00
699.5330, 15119.00
700.6880, 15251.00
701.8440, 15131.00
702.9990, 14921.00
704.1550, 15070.00
705.3100, 15172.00
706.4650, 14957.00
707.6190, 14967.00
708.7740, 14940.00
709.9290, 14919.00
711.0830, 14892.75
712.2370, 15008.00
713.3910, 14715.47
714.5450, 14824.96
715.6980, 14887.55
716.8520, 14905.75
718.0050, 14746.64
719.1580, 14816.50
720.3110, 14794.59
721.4640, 14768.92
722.6170, 14871.00
723.7700, 14737.69
724.9220, 14837.74
726.0740, 14844.63
727.2260, 14894.16
728.3780, 14851.37
729.5300, 14837.09
730.6810, 14810.00
731.8330, 14739.00
732.9840, 14773.00
734.1350, 14820.00
735.2860, 14955.00
736.4370, 14857.00
737.5880, 14745.00
738.7380, 14700.00
739.8880, 14881.00
741.0390, 14883.00
742.1890, 14799.00
743.3380, 15019.00
744.4880, 14843.00
745.6380, 14759.00
746.7870, 15092.00
747.9360, 14978.87
749.0850, 15016.00
750.2340, 15059.00
751.3830, 15083.00
752.5310, 14999.00
753.6800, 15094.00
754.8280, 15040.00
755.9760, 15054.00
757.1240, 15178.00
758.2720, 14966.00
759.4190, 15379.00
760.5670, 15218.37
761.7140, 15151.00
762.8610, 15202.00
764.0080, 15096.00
765.1550, 15196.00
766.3020, 15214.00
767.4480, 15321.00
768.5950, 15134.00
769.7410, 15236.00
770.8870, 15359.00
772.0330, 15433.00
773.1780, 15225.00
774.3240, 15258.00
775.4690, 15238.00
776.6140, 15405.00
777.7590, 15140.00
778.9040, 15217.00
780.0490, 15144.00
781.1940, 15130.00
782.3380, 15292.00
783.4820, 15383.00
784.6260, 15230.00
785.7700, 15164.00
786.9140, 15237.00
788.0580, 15206.00
789.2010, 15179.00
790.3450, 15195.00
791.4880, 15110.00
792.6310, 15308.00
793.7730, 15662.00
794.9160, 15423.66
796.0590, 15465.30
797.2010, 15189.00
798.3430, 15152.00
799.4850, 15147.00
800.6270, 15040.00
801.7690, 15141.00
802.9100, 15269.00
804.0520, 15239.00
805.1930, 15190.00
806.3340, 15043.00
807.4750, 15179.00
808.6160, 15200.00
809.7560, 15194.00
810.8970, 15055.00
812.0370, 15156.00
813.1770, 15299.00
814.3170, 15030.00
815.4570, 15163.00
816.5960, 15183.00
817.7360, 15141.00
818.8750, 15165.00
820.0140, 15229.88
821.1530, 15358.00
822.2920, 15389.00
823.4310, 15420.87
824.5690, 15485.00
825.7070, 15418.00
826.8460, 15372.00
827.9840, 15445.00
829.1220, 15551.00
830.2590, 15690.00
831.3970, 15594.00
832.5340, 15571.00
833.6710, 15748.00
834.8080, 15713.00
835.9450, 15866.00
837.0820, 16015.00
838.2190, 16061.00
839.3550, 16146.00
840.4910, 16145.76
841.6270, 16319.58
842.7630, 16399.00
843.8990, 16648.27
845.0350, 16807.61
846.1700, 16962.00
847.3060, 17141.00
848.4410, 17319.25
849.5760, 17435.00
850.7100, 17717.00
851.8450, 17902.00
852.9800, 18144.00
854.1140, 18519.00
855.2480, 18668.00
856.3820, 19196.00
857.5160, 19468.00
858.6500, 19625.00
859.7830, 20316.00
860.9170, 20673.00
862.0500, 21104.00
863.1830, 21701.00
864.3160, 22322.09
865.4480, 23200.00
866.5810, 23853.00
867.7130, 24735.00
868.8460, 25659.61
869.9780, 26544.80
871.1100, 27814.00
872.2410, 28462.00
873.3730, 29668.00
874.5050, 30564.00
875.6360, 30841.00
876.7670, 30928.00
877.8980, 30801.00
879.0290, 29847.00
880.1590, 28614.00
881.2900, 27396.00
882.4200, 26012.00
883.5500, 24496.00
884.6800, 23431.00
885.8100, 22236.00
886.9400, 21202.00
888.0690, 20411.69
889.1990, 19564.43
890.3280, 19073.00
891.4570, 18389.00
892.5860, 17952.00
893.7140, 17779.00
894.8430, 17355.00
895.9710, 17168.00
897.1000, 16878.00
898.2280, 16616.00
899.3560, 16342.00
900.4830, 16300.00
901.6110, 16168.00
902.7380, 16091.00
903.8660, 15899.00
904.9930, 15812.00
906.1200, 15809.00
907.2460, 15793.00
908.3730, 15751.58
909.5000, 15724.00
910.6260, 15706.00
911.7520, 15630.00
912.8780, 15604.00
914.0040, 15687.00
915.1290, 15717.00
916.2550, 15635.00
917.3800, 15606.00
918.5050, 15641.35
919.6300, 15708.00
920.7550, 15735.00
921.8800, 15780.42
923.0040, 15770.00
924.1290, 15826.00
925.2530, 15788.00
926.3770, 15737.00
927.5010, 15742.00
928.6250, 15814.00
929.7480, 15904.00
930.8720, 15973.00
931.9950, 15705.00
933.1180, 15996.00
934.2410, 15926.00
935.3640, 15776.21
936.4860, 15948.34
937.6090, 16073.62
938.7310, 16154.46
939.8530, 16057.98
940.9750, 16190.47
942.0970, 16231.20
943.2180, 16268.12
944.3400, 16084.00
945.4610, 16093.00
946.5820, 16149.00
947.7030, 16007.00
948.8240, 16033.00
949.9450, 15923.00
951.0650, 15795.00
952.1860, 15638.00
953.3060, 15574.50
954.4260, 15377.00
955.5460, 15454.00
956.6650, 15224.00
957.7850, 15201.00
958.9040, 15112.00
960.0230, 14951.00
961.1420, 14812.00
962.2610, 15008.00
963.3800, 14918.00
964.4990, 14798.00
965.6170, 14916.00
966.7350, 14649.00
967.8530, 14767.00
968.9710, 14583.00
970.0890, 14761.00
971.2070, 14682.00
972.3240, 14660.00
973.4410, 14500.00
974.5580, 14592.00
975.6750, 14558.00
976.7920, 14457.00
977.9090, 14369.00
979.0250, 14415.96
980.1410, 14469.00
981.2580, 14481.00
982.3740, 14701.00
983.4890, 14681.00
984.6050, 14426.00
985.7200, 14571.00
986.8360, 14621.00
987.9510, 14509.00
989.0660, 14589.00
990.1810, 14615.00
991.2950, 14732.00
992.4100, 14619.00
993.5240, 14652.00
994.6390, 14675.00
995.7530, 14760.00
996.8660, 14661.00
997.9800, 14797.00
999.0940, 14725.07
1000.207, 14702.00
1001.320, 14740.00
1002.433, 14698.12
1003.546, 14727.00
1004.659, 14687.32
1005.772, 14641.02
1006.884, 14632.00
1007.996, 14731.00
1009.108, 14703.82
1010.220, 14674.00
1011.332, 14746.00
1012.444, 14589.00
1013.555, 14587.00
1014.666, 14596.00
1015.777, 14565.00
1016.888, 14591.00
1017.999, 14537.48
1019.110, 14644.46
1020.220, 14704.54
1021.331, 14720.24
1022.441, 14558.62
1023.551, 14625.96
1024.661, 14601.55
1025.770, 14573.38
1026.880, 14672.95
1027.989, 14537.12
1029.098, 14634.67
1030.207, 14639.06
1031.316, 14686.08
1032.425, 14640.78
1033.533, 14624.00
1034.642, 14699.57
1035.750, 14724.00
1036.858, 14668.07
1037.966, 14717.81
1039.073, 14578.75
1040.181, 14605.37
1041.288, 14703.45
1042.396, 14652.17
1043.503, 14703.59
1044.610, 14715.90
1045.716, 14721.00
1046.823, 14762.00
1047.929, 14694.00
1049.036, 14622.00
1050.142, 14622.00
1051.248, 14700.00
1052.353, 14752.00
1053.459, 14723.00
1054.564, 14735.00
1055.670, 14727.72
1056.775, 14679.00
1057.880, 14689.00
1058.985, 14687.00
1060.089, 14656.00
1061.194, 14659.00
1062.298, 14778.00
1063.402, 14644.00
1064.506, 14721.00
1065.610, 14847.00
1066.713, 14696.00
1067.817, 14777.00
1068.920, 14690.00
1070.023, 14629.00
1071.126, 14678.00
1072.229, 14608.00
1073.332, 14729.00
1074.435, 14724.16
1075.537, 14761.00
1076.639, 14766.00
1077.741, 14773.20
1078.843, 14734.00
1079.945, 14706.00
1081.046, 14713.00
1082.148, 14678.00
1083.249, 14696.00
1084.350, 14677.00
1085.451, 14807.00
1086.551, 14760.83
1087.652, 14563.00
1088.752, 14719.00
1089.853, 14646.00
1090.953, 14559.00
1092.053, 14551.00
1093.152, 14566.00
1094.252, 14695.00
1095.351, 14572.00
1096.451, 14447.00
1097.550, 14513.00
1098.649, 14390.00
1099.748, 14429.00
1100.846, 14508.00
1101.945, 14495.00
1103.043, 14375.00
1104.141, 14446.00
1105.239, 14316.00
1106.337, 14376.90
1107.434, 14480.51
1108.532, 14537.22
1109.629, 14549.55
1110.726, 14384.57
1111.823, 14448.55
1112.920, 14420.77
1114.017, 14389.23
1115.113, 14485.44
1116.210, 14346.24
1117.306, 14440.42
1118.402, 14441.45
1119.498, 14485.11
1120.593, 14436.45
1121.689, 14416.30
1122.784, 14488.51
1123.879, 14509.58
1124.974, 14450.29
1126.069, 14496.67
1127.164, 14354.25
1128.259, 14377.50
1129.353, 14472.23
1130.447, 14417.59
1131.541, 14465.65
1132.635, 14474.60
1133.729, 14305.78
1134.822, 14446.12
1135.916, 14452.75
1137.009, 14322.11
1138.102, 14451.86
1139.195, 14340.14
1140.288, 14314.61
1141.380, 14353.95
1142.473, 14325.66
1143.565, 14403.99
1144.657, 14379.61
1145.749, 14346.06
1146.841, 14352.55
1147.932, 14245.58
1149.024, 14349.11
1150.115, 14308.85
1151.206, 14340.07
1152.297, 14387.49
1153.388, 14310.85
1154.479, 14365.55
1155.569, 14216.58
1156.659, 14238.03
1157.750, 14241.13
1158.839, 14353.16
1159.929, 14205.18
1161.019, 14221.90
1162.108, 14308.74
1163.198, 14297.46
1164.287, 14327.21
1165.376, 14235.51
1166.465, 14257.90
1167.553, 14248.84
1168.642, 14348.46
1169.730, 14362.28
1170.818, 14272.64
1171.906, 14183.45
1172.994, 14290.88
1174.082, 14211.95
1175.170, 14233.56
1176.257, 14151.33
1177.344, 14158.76
1178.431, 14164.77
1179.518, 14216.74
1180.605, 14129.34
1181.691, 14222.73
1182.778, 14211.62
1183.864, 14231.30
1184.950, 14247.56
1186.036, 14123.60
1187.122, 14114.58
1188.207, 14270.04
1189.292, 14120.22
1190.378, 14123.33
1191.463, 14077.00
1192.548, 14067.00
1193.632, 13919.00
1194.717, 13976.00
1195.801, 13933.00
1196.886, 13891.35
1197.970, 13992.00
1199.054, 13886.00
1200.137, 13940.00
1201.221, 14030.00
1202.305, 14041.00
1203.388, 13910.00
1204.471, 14022.00
1205.554, 13927.00
1206.637, 13871.00
1207.719, 13958.00
1208.802, 13861.00
1209.884, 13939.00
1210.966, 13943.00
1212.048, 13996.00
1213.130, 13912.00
1214.212, 13882.00
1215.293, 14059.00
1216.374, 14178.00
1217.456, 14179.55
1218.536, 14153.74
1219.617, 14190.00
1220.698, 14155.18
1221.778, 14129.04
1222.859, 14073.00
1223.939, 14067.00
1225.019, 13946.00
1226.099, 13945.00
1227.178, 13889.00
1228.258, 14133.00
1229.337, 13981.00
1230.417, 14123.00
1231.496, 14043.00
1232.574, 14095.00
1233.653, 13931.00
1234.732, 14036.00
1235.810, 14132.00
1236.888, 13926.00
1237.966, 14095.00
1239.044, 13987.00
1240.122, 14012.00
1241.199, 14028.00
1242.277, 14013.71
1243.354, 13919.05
1244.431, 14024.96
1245.508, 14083.96
1246.585, 14098.59
1247.661, 13935.90
1248.738, 14002.17
1249.814, 13976.69
1250.890, 13947.45
1251.966, 14045.95
1253.042, 13909.05
1254.117, 14005.53
1255.193, 14008.84
1256.268, 14054.80
1257.343, 14008.43
1258.418, 13990.57
1259.493, 14065.07
1260.567, 14088.44
1261.642, 14031.44
1262.716, 14080.10
1263.790, 13939.98
1264.864, 13965.52
1265.938, 14062.54
1267.011, 14010.19
1268.085, 14022.00
1269.158, 14075.00
1270.231, 13946.00
1271.304, 13983.00
1272.377, 14068.00
1273.450, 14093.00
1274.522, 13982.00
1275.594, 14048.00
1276.666, 14045.94
1277.738, 13919.00
1278.810, 14077.00
1279.882, 14068.00
1280.953, 14010.00
1282.025, 13903.00
1283.096, 13978.00
1284.167, 14034.00
1285.238, 13956.00
1286.308, 14032.00
1287.379, 13977.00
1288.449, 13969.00
1289.519, 13902.00
1290.589, 13919.27
1291.659, 13890.00
1292.729, 13929.00
1293.798, 13998.00
1294.868, 13967.00
1295.937, 14052.00
1297.006, 13943.00
1298.075, 14089.00
1299.143, 14140.00
1300.212, 14078.00
1301.280, 14075.00
1302.348, 13990.00
1303.416, 13924.00
1304.484, 14062.00
1305.552, 13975.00
1306.620, 14062.00
1307.687, 13984.00
1308.754, 14078.00
1309.821, 14012.00
1310.888, 13962.00
1311.955, 14134.00
1313.021, 14004.00
1314.088, 14014.00
1315.154, 13901.00
1316.220, 14020.00
1317.286, 14058.00
1318.352, 14077.00
1319.417, 14096.00
1320.483, 14035.00
1321.548, 14031.00
1322.613, 14022.00
1323.678, 14007.00
1324.743, 14083.00
1325.807, 13978.00
1326.872, 13976.00
1327.936, 14020.00
1329.000, 13890.00
1330.064, 14118.00
1331.128, 13885.00
1332.191, 13965.00
1333.255, 14001.00
1334.318, 13978.00
1335.381, 14081.00
1336.444, 13963.00
1337.507, 13989.00
1338.569, 13985.00
1339.632, 14023.00
1340.694, 14073.00
1341.756, 13816.00
1342.818, 13920.61
1343.880, 14035.00
1344.941, 13931.00
1346.003, 14096.00
1347.064, 14129.00
1348.125, 14036.00
1349.186, 13997.00
1350.247, 14081.00
1351.308, 13905.00
1352.368, 13727.00
1353.428, 13975.00
1354.489, 14017.00
1355.549, 13956.00
1356.608, 14047.00
1357.668, 13955.00
1358.727, 13964.00
1359.787, 14081.00
1360.846, 13773.00
1361.905, 13970.00
1362.964, 14070.00
1364.022, 13850.00
1365.081, 14011.00
1366.139, 14009.00
1367.197, 14031.00
1368.255, 13781.00
1369.313, 13902.00
1370.371, 13974.00
1371.428, 13823.00
1372.486, 14065.00
1373.543, 13909.00
1374.600, 13936.00
1375.657, 13921.00
1376.713, 13885.00
1377.770, 13945.00
1378.826, 14020.00
1379.882, 13797.00
1380.938, 13956.00
1381.994, 13815.00
1383.050, 13883.00
1384.106, 13892.00
1385.161, 13982.00
1386.216, 13844.00
1387.271, 13999.00
1388.326, 13804.00
1389.381, 13830.00
1390.435, 14041.00
1391.490, 13993.00
1392.544, 13815.00
1393.598, 13923.00
1394.652, 13842.00
1395.705, 13867.00
1396.759, 14041.00
1397.812, 13963.00
1398.866, 13727.00
1399.919, 13778.00
1400.972, 13917.00
1402.024, 13918.00
1403.077, 13950.00
1404.129, 13828.00
1405.181, 13864.42
1406.233, 13983.64
1407.285, 14055.95
1408.337, 14083.88
1409.389, 13934.49
1410.440, 14014.05
1411.491, 14001.86
1412.542, 13985.91
1413.593, 14097.70
1414.644, 13974.10
1415.695, 14083.86
1416.745, 14100.46
1417.795, 14159.69
1418.845, 14126.60
1419.895, 13832.00
1420.945, 13874.00
1421.995, 13714.00
1423.044, 13743.00
1424.093, 13848.00
1425.142, 13920.00
1426.191, 13695.00
1427.240, 13918.00
1428.289, 13889.00
1429.337, 13730.00
1430.385, 13774.00
1431.433, 13973.00
1432.481, 13779.00
1433.529, 13936.00
1434.577, 13845.00
1435.624, 13908.00
1436.672, 13961.00
1437.719, 13926.00
1438.766, 13947.00
1439.812, 13901.85
1440.859, 13905.00
1441.905, 13883.00
1442.952, 13817.00
1443.998, 14002.00
1445.044, 13924.00
1446.090, 13955.00
1447.135, 13917.00
1448.181, 13872.00
1449.226, 13919.00
1450.271, 13922.00
1451.316, 13990.00
1452.361, 13988.00
1453.405, 13922.00
1454.450, 13914.00
1455.494, 13999.00
1456.538, 13953.00
1457.582, 13873.00
1458.626, 13874.00
1459.670, 13752.00
1460.713, 13783.00
1461.757, 13753.84
1462.800, 13758.27
1463.843, 13799.00
1464.886, 13822.00
1465.928, 13951.00
1466.971, 14000.00
1468.013, 13926.00
1469.055, 13863.00
1470.097, 13982.00
1471.139, 13895.00
1472.181, 13909.00
1473.222, 13935.00
1474.263, 13910.32
1475.305, 13919.74
1476.346, 13906.00
1477.386, 13926.00
1478.427, 13879.00
1479.468, 13924.00
1480.508, 13823.00
1481.548, 14036.00
1482.588, 13823.00
1483.628, 14039.00
1484.668, 13940.00
1485.707, 14012.00
1486.747, 13837.00
1487.786, 14046.00
1488.825, 13978.00
1489.864, 13761.00
1490.902, 13811.00
1491.941, 14025.00
1492.979, 13915.00
1494.017, 13959.00
1495.055, 14005.00
1496.093, 13949.00
1497.131, 13970.55
1498.168, 13811.00
1499.206, 13935.00
1500.243, 13895.00
1501.280, 13879.00
1502.317, 13966.00
1503.354, 13818.00
1504.390, 13953.00
1505.426, 13955.00
1506.463, 13926.00
1507.499, 14000.00
1508.535, 13976.00
1509.570, 13980.96
1510.606, 14006.00
1511.641, 13940.00
1512.676, 14003.00
1513.711, 13925.00
1514.746, 13920.00
1515.781, 13928.00
1516.816, 13905.00
1517.850, 14048.00
1518.884, 14102.00
1519.918, 13974.00
1520.952, 14090.00
1521.986, 14048.00
1523.019, 13967.00
1524.053, 13985.00
1525.086, 14094.00
1526.119, 13966.00
1527.152, 14037.00
1528.185, 13941.00
1529.217, 13880.00
1530.250, 13936.00
1531.282, 13673.00
1532.314, 14047.00
1533.346, 13988.00
1534.377, 14020.00
1535.409, 13874.00
1536.440, 13952.00
1537.472, 13898.00
1538.503, 14023.00
1539.534, 14046.00
1540.564, 13978.00
1541.595, 13990.00
1542.625, 14065.00
1543.656, 13794.00
1544.686, 13801.60
1545.716, 13920.58
1546.745, 13992.65
1547.775, 14020.34
1548.804, 13870.71
1549.834, 13950.05
1550.863, 13937.63
1551.892, 13921.44
1552.920, 14032.98
1553.949, 13909.14
1554.977, 14018.66
1556.006, 14035.04
1557.034, 14094.04
1558.062, 14060.71
1559.089, 14055.89
1560.117, 14143.43
1561.144, 14179.83
1562.172, 14135.87
1563.199, 14055.00
1564.226, 13916.00
1565.252, 14034.00
1566.279, 14033.00
1567.305, 14065.00
1568.332, 14129.00
1569.358, 14021.00
1570.384, 14030.00
1571.409, 14129.00
##END=



