##NAMES=Ferberite
##RRUFFID=R040044
##IDEAL CHEMISTRY=Fe^2+^W^6+^O_4_
##LOCALITY=Chocote, Bolivia
##OWNER=RRUFF
##SOURCE=University of Arizona Mineral Museum
##DESCRIPTION=Black tabular single crystal
##STATUS=The identification of this mineral has been confirmed by X-ray diffraction and chemical analysis
##URL=rruff.info/R040044
##MEASURED CHEMISTRY=(Fe_0.82_Mn_0.08_Mg_0.07_Pb_0.03_)_Î£=1_W_1.00_O_4_
##PIN_ID=M00030
##ORIENTATION=Laser parallel to -c* (0 0 -1). Fiducial mark perpendicular to laser is parallel to a [1 0 0]
164.8110, 36127.00
166.0360, 35371.00
167.2610, 35203.00
168.4860, 35380.00
169.7110, 35537.00
170.9360, 35699.00
172.1610, 35897.00
173.3850, 36102.00
174.6100, 36576.00
175.8340, 36945.00
177.0580, 36957.00
178.2820, 37357.00
179.5050, 36895.00
180.7290, 36391.00
181.9520, 35910.00
183.1760, 35739.00
184.3990, 35559.00
185.6220, 35349.00
186.8450, 35276.00
188.0670, 35063.00
189.2900, 35169.00
190.5120, 35540.00
191.7340, 35343.82
192.9560, 35697.00
194.1780, 35283.00
195.4000, 35752.00
196.6220, 35762.00
197.8430, 35650.00
199.0640, 35986.00
200.2860, 36243.00
201.5070, 36259.00
202.7270, 35739.00
203.9480, 35048.00
205.1690, 34440.00
206.3890, 33982.00
207.6090, 34027.00
208.8290, 33802.00
210.0490, 34225.00
211.2690, 34384.00
212.4890, 34693.00
213.7080, 34805.00
214.9280, 34003.00
216.1470, 34185.00
217.3660, 33957.00
218.5850, 33753.00
219.8030, 33891.00
221.0220, 33548.00
222.2400, 33552.00
223.4590, 33471.00
224.6770, 33654.00
225.8950, 33527.00
227.1120, 33206.00
228.3300, 33508.00
229.5480, 33222.00
230.7650, 33260.00
231.9820, 33279.00
233.1990, 33420.00
234.4160, 33519.00
235.6330, 33536.00
236.8490, 33444.00
238.0660, 33496.75
239.2820, 33544.00
240.4980, 33450.00
241.7140, 33464.00
242.9300, 33387.00
244.1460, 33290.00
245.3610, 33331.00
246.5770, 33265.00
247.7920, 33346.00
249.0070, 33222.01
250.2220, 33354.82
251.4370, 33444.06
252.6510, 33492.03
253.8660, 33375.30
255.0800, 33471.26
256.2940, 33481.97
257.5080, 33489.19
258.7220, 33615.09
259.9360, 33522.29
261.1490, 33646.28
262.3630, 33683.75
263.5760, 33760.80
264.7890, 33752.07
266.0020, 33769.84
267.2150, 33873.42
268.4270, 33929.45
269.6400, 33910.86
270.8520, 33990.40
272.0640, 33894.55
273.2760, 33952.61
274.4880, 34077.07
275.7000, 34062.76
276.9120, 34143.87
278.1230, 34188.61
279.3340, 34068.19
280.5450, 34235.00
281.7560, 34277.60
282.9670, 34192.64
284.1780, 34349.61
285.3880, 34282.22
286.5980, 34294.90
287.8090, 34367.87
289.0190, 34393.00
290.2290, 34398.00
291.4380, 34525.00
292.6480, 34560.00
293.8570, 34916.00
295.0670, 35045.00
296.2760, 35334.00
297.4850, 35414.00
298.6930, 35238.00
299.9020, 35463.00
301.1110, 35222.00
302.3190, 34968.00
303.5270, 35203.00
304.7350, 35313.00
305.9430, 34963.00
307.1510, 34828.00
308.3580, 34860.00
309.5660, 34704.20
310.7730, 35037.00
311.9800, 34707.00
313.1870, 34892.00
314.3940, 35024.00
315.6010, 34860.00
316.8070, 34914.00
318.0130, 34915.00
319.2200, 35024.70
320.4260, 35277.00
321.6310, 35365.00
322.8370, 35564.00
324.0430, 35738.00
325.2480, 35888.00
326.4540, 35953.00
327.6590, 36116.00
328.8640, 36228.00
330.0680, 35959.90
331.2730, 36036.24
332.4780, 36069.00
333.6820, 36060.55
334.8860, 35887.36
336.0900, 35926.89
337.2940, 35881.18
338.4980, 35831.96
339.7010, 35901.45
340.9050, 35752.23
342.1080, 35819.84
343.3110, 35800.89
344.5140, 35854.00
345.7170, 36020.00
346.9200, 35936.00
348.1220, 35821.00
349.3240, 35751.00
350.5270, 35785.00
351.7290, 35739.02
352.9310, 35869.00
354.1320, 35735.00
355.3340, 35827.00
356.5350, 35778.00
357.7370, 35688.00
358.9380, 35621.00
360.1390, 35706.00
361.3400, 35957.00
362.5400, 35587.00
363.7410, 35838.00
364.9410, 35874.00
366.1410, 35730.00
367.3410, 35445.39
368.5410, 35582.12
369.7410, 35675.27
370.9400, 35727.16
372.1400, 35614.34
373.3390, 35714.22
374.5380, 35728.84
375.7370, 35739.97
376.9360, 35869.79
378.1350, 35780.89
379.3330, 35908.80
380.5310, 35950.14
381.7300, 36031.14
382.9280, 36026.32
384.1260, 36002.00
385.3230, 36094.63
386.5210, 35816.00
387.7180, 36167.00
388.9160, 35953.00
390.1130, 35885.00
391.3100, 35947.00
392.5060, 35942.00
393.7030, 36094.00
394.9000, 36073.26
396.0960, 36351.00
397.2920, 36160.00
398.4880, 36218.00
399.6840, 36395.00
400.8800, 36345.00
402.0750, 36385.00
403.2710, 36207.00
404.4660, 36027.00
405.6610, 36201.00
406.8560, 36368.00
408.0510, 36245.00
409.2450, 36215.00
410.4400, 36243.00
411.6340, 36098.00
412.8280, 36194.00
414.0220, 36243.48
415.2160, 36591.00
416.4100, 36445.00
417.6030, 36516.00
418.7970, 36593.00
419.9900, 36520.00
421.1830, 36475.00
422.3760, 36455.00
423.5690, 36482.00
424.7610, 36442.17
425.9540, 36621.00
427.1460, 36473.00
428.3380, 36498.00
429.5300, 36654.00
430.7220, 36827.00
431.9140, 36734.00
433.1050, 36774.35
434.2970, 36474.00
435.4880, 36764.00
436.6790, 36470.00
437.8700, 36720.00
439.0610, 36643.00
440.2510, 36740.00
441.4420, 36652.00
442.6320, 36758.00
443.8220, 36612.00
445.0120, 36842.00
446.2020, 36728.00
447.3910, 36889.00
448.5810, 36810.00
449.7700, 37000.00
450.9600, 36903.00
452.1490, 36910.00
453.3370, 36796.00
454.5260, 36881.44
455.7150, 36961.98
456.9030, 37093.00
458.0910, 37088.00
459.2800, 37274.00
460.4670, 37017.00
461.6550, 37019.00
462.8430, 37043.00
464.0300, 37122.00
465.2180, 37078.00
466.4050, 37176.00
467.5920, 37219.00
468.7790, 36874.27
469.9650, 37351.88
471.1520, 37637.79
472.3380, 37742.23
473.5250, 37121.87
474.7110, 37437.45
475.8970, 37377.93
477.0820, 37303.00
478.2680, 37750.32
479.4540, 37235.34
480.6390, 37674.34
481.8240, 37763.00
483.0090, 37740.00
484.1940, 37771.00
485.3780, 37708.00
486.5630, 37697.00
487.7470, 37933.00
488.9320, 37992.85
490.1160, 37989.77
491.3000, 38226.00
492.4830, 38044.00
493.6670, 37869.00
494.8500, 38068.00
496.0340, 38137.00
497.2170, 38033.00
498.4000, 38156.32
499.5820, 38282.00
500.7650, 38275.00
501.9480, 38327.00
503.1300, 38545.00
504.3120, 38611.00
505.4940, 38488.00
506.6760, 38350.00
507.8580, 38308.00
509.0390, 38801.00
510.2210, 38498.00
511.4020, 38730.00
512.5830, 38877.00
513.7640, 38805.00
514.9450, 38737.00
516.1250, 38615.00
517.3060, 38725.00
518.4860, 38916.00
519.6660, 38581.00
520.8460, 38757.00
522.0260, 38848.00
523.2060, 38675.00
524.3850, 38936.00
525.5650, 38820.00
526.7440, 38647.00
527.9230, 38838.00
529.1020, 38817.00
530.2810, 38676.00
531.4590, 38735.00
532.6380, 38908.00
533.8160, 38692.00
534.9940, 38737.00
536.1720, 38846.00
537.3500, 39163.00
538.5270, 38944.00
539.7050, 39005.00
540.8820, 39061.00
542.0590, 38983.00
543.2360, 39013.00
544.4130, 39163.00
545.5900, 38930.00
546.7660, 39114.00
547.9430, 39020.00
549.1190, 39023.00
550.2950, 39153.00
551.4710, 39247.00
552.6470, 39126.00
553.8220, 39230.00
554.9980, 39083.00
556.1730, 39224.00
557.3480, 39040.00
558.5230, 39291.00
559.6980, 39240.00
560.8730, 39329.00
562.0470, 39202.00
563.2220, 39383.00
564.3960, 39041.00
565.5700, 39061.00
566.7440, 39417.00
567.9170, 39203.23
569.0910, 39346.00
570.2640, 39316.00
571.4380, 39072.00
572.6110, 39342.00
573.7840, 38721.00
574.9570, 38740.00
576.1290, 38748.00
577.3020, 38838.00
578.4740, 38722.00
579.6460, 38809.00
580.8180, 38696.70
581.9900, 38493.00
583.1620, 38475.00
584.3330, 38481.00
585.5040, 38356.00
586.6760, 38144.00
587.8470, 38197.71
589.0180, 38224.00
590.1880, 38201.00
591.3590, 38265.00
592.5290, 38277.00
593.7000, 38262.00
594.8700, 38322.71
596.0400, 38306.00
597.2090, 38413.00
598.3790, 38440.00
599.5490, 38168.95
600.7180, 38601.51
601.8870, 38842.34
603.0560, 38901.74
604.2250, 38236.30
605.3940, 38506.85
606.5620, 38402.29
607.7300, 38282.36
608.8990, 38684.64
610.0670, 38124.63
611.2350, 38518.63
612.4020, 38538.00
613.5700, 38481.00
614.7370, 38339.00
615.9050, 38306.00
617.0720, 38492.00
618.2390, 38711.00
619.4060, 38563.00
620.5720, 38553.00
621.7390, 38622.00
622.9050, 38362.00
624.0710, 38741.00
625.2370, 38777.00
626.4030, 38406.00
627.5690, 38665.00
628.7340, 38499.00
629.9000, 38646.00
631.0650, 38625.00
632.2300, 38801.00
633.3950, 38854.00
634.5600, 38858.00
635.7240, 38831.00
636.8890, 38763.00
638.0530, 38855.00
639.2170, 38824.40
640.3810, 38877.55
641.5450, 38890.00
642.7080, 38875.00
643.8720, 38961.00
645.0350, 38716.00
646.1980, 38713.00
647.3610, 39077.00
648.5240, 38824.00
649.6870, 39058.00
650.8490, 38962.00
652.0120, 38944.00
653.1740, 39096.00
654.3360, 39023.00
655.4980, 39059.00
656.6600, 39258.00
657.8210, 39347.00
658.9830, 39463.00
660.1440, 39511.45
661.3050, 39422.00
662.4660, 39468.00
663.6270, 39462.00
664.7870, 39274.00
665.9480, 39595.00
667.1080, 39396.00
668.2680, 39644.00
669.4280, 39658.00
670.5880, 39930.00
671.7480, 39585.00
672.9070, 39947.00
674.0670, 39775.00
675.2260, 39948.00
676.3850, 40205.00
677.5440, 40314.00
678.7030, 40281.00
679.8610, 40364.00
681.0200, 40594.00
682.1780, 40493.00
683.3360, 40911.00
684.4940, 40782.00
685.6520, 40603.00
686.8090, 40983.00
687.9670, 40811.27
689.1240, 40835.00
690.2810, 40825.00
691.4380, 41198.00
692.5950, 41181.00
693.7520, 41233.00
694.9080, 40820.25
696.0650, 40844.57
697.2210, 40825.37
698.3770, 40764.94
699.5330, 40539.77
700.6880, 40527.39
701.8440, 40429.70
702.9990, 40328.57
704.1550, 40346.07
705.3100, 40144.93
706.4650, 40160.61
707.6190, 40089.80
708.7740, 40058.54
709.9290, 39941.50
711.0830, 39851.02
712.2370, 39846.35
713.3910, 39794.16
714.5450, 39613.00
715.6980, 39771.00
716.8520, 39748.00
718.0050, 39784.00
719.1580, 39702.00
720.3110, 39630.00
721.4640, 39655.00
722.6170, 39606.00
723.7700, 39478.00
724.9220, 39869.00
726.0740, 39672.00
727.2260, 39623.00
728.3780, 39447.00
729.5300, 39721.00
730.6810, 39593.00
731.8330, 39859.00
732.9840, 39569.00
734.1350, 39331.00
735.2860, 39885.00
736.4370, 39752.00
737.5880, 39788.00
738.7380, 39737.00
739.8880, 39707.00
741.0390, 39652.00
742.1890, 39722.00
743.3380, 39772.00
744.4880, 39831.00
745.6380, 39863.00
746.7870, 39723.00
747.9360, 40013.00
749.0850, 39704.00
750.2340, 40046.00
751.3830, 39872.00
752.5310, 40049.00
753.6800, 40000.00
754.8280, 40263.00
755.9760, 40160.00
757.1240, 40044.00
758.2720, 40214.00
759.4190, 40337.00
760.5670, 40396.00
761.7140, 40548.52
762.8610, 40629.39
764.0080, 40753.00
765.1550, 40795.00
766.3020, 40828.00
767.4480, 40845.00
768.5950, 40951.00
769.7410, 40949.00
770.8870, 41096.00
772.0330, 40981.00
773.1780, 41279.00
774.3240, 40964.00
775.4690, 41437.00
776.6140, 41316.00
777.7590, 41117.00
778.9040, 41123.00
780.0490, 41211.00
781.1940, 41441.00
782.3380, 41363.00
783.4820, 40995.00
784.6260, 41330.00
785.7700, 40927.00
786.9140, 41209.00
788.0580, 41214.00
789.2010, 40898.00
790.3450, 41203.00
791.4880, 41199.00
792.6310, 41298.00
793.7730, 41133.00
794.9160, 40979.00
796.0590, 41090.00
797.2010, 40972.00
798.3430, 40857.00
799.4850, 40979.00
800.6270, 41015.00
801.7690, 41129.00
802.9100, 41196.00
804.0520, 41145.00
805.1930, 40748.00
806.3340, 40764.00
807.4750, 40964.00
808.6160, 41028.00
809.7560, 41103.00
810.8970, 40827.00
812.0370, 41055.00
813.1770, 41172.00
814.3170, 40820.00
815.4570, 41045.00
816.5960, 40875.00
817.7360, 40745.00
818.8750, 40969.00
820.0140, 41040.00
821.1530, 40991.00
822.2920, 41057.00
823.4310, 40851.00
824.5690, 41076.00
825.7070, 41115.00
826.8460, 41036.00
827.9840, 41353.00
829.1220, 41294.00
830.2590, 41260.00
831.3970, 41008.00
832.5340, 41073.00
833.6710, 41286.00
834.8080, 41273.00
835.9450, 41631.00
837.0820, 41396.00
838.2190, 41358.00
839.3550, 41809.00
840.4910, 41590.00
841.6270, 41795.00
842.7630, 41737.00
843.8990, 41790.00
845.0350, 42327.00
846.1700, 42020.00
847.3060, 42266.00
848.4410, 42314.00
849.5760, 42333.00
850.7100, 42721.00
851.8450, 42938.00
852.9800, 43221.00
854.1140, 43532.00
855.2480, 43608.00
856.3820, 44160.00
857.5160, 44405.00
858.6500, 44587.00
859.7830, 45149.00
860.9170, 45728.00
862.0500, 46143.00
863.1830, 46783.00
864.3160, 47232.00
865.4480, 48255.00
866.5810, 49049.00
867.7130, 50097.00
868.8460, 50965.00
869.9780, 52367.00
871.1100, 53861.00
872.2410, 54739.00
873.3730, 56157.00
874.5050, 57266.00
875.6360, 58854.00
876.7670, 59318.00
877.8980, 60288.00
879.0290, 60854.00
880.1590, 60308.00
881.2900, 60012.00
882.4200, 59228.00
883.5500, 58179.00
884.6800, 57532.00
885.8100, 56505.00
886.9400, 55305.00
888.0690, 54240.29
889.1990, 53056.00
890.3280, 51766.00
891.4570, 50893.00
892.5860, 49787.00
893.7140, 48704.00
894.8430, 47950.00
895.9710, 47410.00
897.1000, 46789.00
898.2280, 46140.00
899.3560, 45610.00
900.4830, 45091.00
901.6110, 44745.52
902.7380, 44451.00
903.8660, 44189.00
904.9930, 43979.00
906.1200, 43707.00
907.2460, 43136.00
908.3730, 43311.00
909.5000, 42939.00
910.6260, 42604.00
911.7520, 42580.00
912.8780, 42416.00
914.0040, 42477.00
915.1290, 42506.00
916.2550, 42664.00
917.3800, 42047.00
918.5050, 42054.00
919.6300, 42085.00
920.7550, 41890.00
921.8800, 42105.00
923.0040, 41896.00
924.1290, 41995.00
925.2530, 41933.00
926.3770, 42093.00
927.5010, 42049.49
928.6250, 42032.46
929.7480, 41970.00
930.8720, 41978.00
931.9950, 41824.00
933.1180, 41845.00
934.2410, 42184.00
935.3640, 41870.00
936.4860, 41874.00
937.6090, 41869.00
938.7310, 41670.00
939.8530, 42012.00
940.9750, 41864.00
942.0970, 41790.00
943.2180, 41940.00
944.3400, 41902.00
945.4610, 41713.00
946.5820, 42190.00
947.7030, 41645.00
948.8240, 41705.00
949.9450, 41886.00
951.0650, 41992.00
952.1860, 41969.00
953.3060, 41946.00
954.4260, 42016.00
955.5460, 42094.00
956.6650, 41938.00
957.7850, 42013.00
958.9040, 41885.00
960.0230, 42008.00
961.1420, 41923.00
962.2610, 41908.27
963.3800, 41981.00
964.4990, 41895.00
965.6170, 42001.00
966.7350, 42086.00
967.8530, 42003.00
968.9710, 42014.00
970.0890, 42139.00
971.2070, 41890.00
972.3240, 42188.00
973.4410, 42170.00
974.5580, 42108.00
975.6750, 42095.00
976.7920, 42223.00
977.9090, 42004.00
979.0250, 42195.00
980.1410, 42440.00
981.2580, 42209.00
982.3740, 42023.00
983.4890, 42197.00
984.6050, 42280.00
985.7200, 42471.00
986.8360, 42395.00
987.9510, 42482.00
989.0660, 42272.00
990.1810, 42490.00
991.2950, 42141.00
992.4100, 42327.00
993.5240, 42641.00
994.6390, 42511.00
995.7530, 42263.00
996.8660, 42423.00
997.9800, 42480.00
999.0940, 42564.00
1000.207, 42268.00
1001.320, 42201.00
1002.433, 42471.00
1003.546, 42330.00
1004.659, 42544.00
1005.772, 42717.00
1006.884, 42556.00
1007.996, 42157.00
1009.108, 42608.00
1010.220, 42567.00
1011.332, 42526.00
1012.444, 42860.00
1013.555, 42711.00
1014.666, 42493.00
1015.777, 42496.00
1016.888, 42660.00
1017.999, 42253.00
1019.110, 42773.00
1020.220, 42706.00
1021.331, 42743.00
1022.441, 42735.00
1023.551, 42601.00
1024.661, 42768.00
1025.770, 42623.00
1026.880, 42545.00
1027.989, 42510.00
1029.098, 42412.00
1030.207, 43037.00
1031.316, 42815.00
1032.425, 42892.00
1033.533, 42673.00
1034.642, 42937.00
1035.750, 42662.00
1036.858, 43313.00
1037.966, 43457.00
1039.073, 42900.00
1040.181, 43072.00
1041.288, 42982.00
1042.396, 42721.00
1043.503, 42960.00
1044.610, 43183.00
1045.716, 43024.00
1046.823, 42918.00
1047.929, 43059.00
1049.036, 43010.00
1050.142, 43206.00
1051.248, 42997.00
1052.353, 43131.00
1053.459, 43248.00
1054.564, 43102.00
1055.670, 43426.00
1056.775, 43180.00
1057.880, 43085.00
1058.985, 43291.00
1060.089, 43176.00
1061.194, 43228.00
1062.298, 43567.00
1063.402, 43327.00
1064.506, 43294.00
1065.610, 43141.00
1066.713, 43160.23
1067.817, 43187.00
1068.920, 43251.00
1070.023, 43234.00
1071.126, 43252.00
1072.229, 43275.00
1073.332, 43346.00
1074.435, 43301.70
1075.537, 43371.05
1076.639, 43254.00
1077.741, 43470.00
1078.843, 43508.00
1079.945, 43586.89
1081.046, 43315.00
1082.148, 43572.00
1083.249, 43559.00
1084.350, 43255.00
1085.451, 43416.00
1086.551, 43527.00
1087.652, 43151.00
1088.752, 43357.00
1089.853, 43312.00
1090.953, 43473.00
1092.053, 43112.00
1093.152, 43374.00
1094.252, 43290.00
1095.351, 43271.00
1096.451, 43427.00
1097.550, 43044.00
1098.649, 43425.00
1099.748, 43181.00
1100.846, 43161.00
1101.945, 43314.00
1103.043, 43140.00
1104.141, 43238.00
1105.239, 43340.00
1106.337, 43079.00
1107.434, 43392.00
1108.532, 43015.00
1109.629, 43267.00
1110.726, 43120.00
1111.823, 43175.00
1112.920, 43134.00
1114.017, 43375.00
1115.113, 43814.00
1116.210, 43469.00
1117.306, 43888.00
1118.402, 43680.00
1119.498, 43614.00
1120.593, 43775.00
1121.689, 43861.00
1122.784, 43822.50
1123.879, 43795.00
1124.974, 43760.00
1126.069, 43808.00
1127.164, 43716.00
1128.259, 43471.00
1129.353, 43393.00
1130.447, 42954.00
1131.541, 43025.00
1132.635, 42631.00
1133.729, 42937.00
1134.822, 42661.00
1135.916, 42906.00
1137.009, 42856.00
1138.102, 42837.00
1139.195, 42937.00
1140.288, 42752.00
1141.380, 42784.00
1142.473, 42645.00
1143.565, 42480.00
1144.657, 42608.00
1145.749, 42815.00
1146.841, 42683.34
1147.932, 42587.00
1149.024, 42621.00
1150.115, 42519.00
1151.206, 42510.00
1152.297, 42613.00
1153.388, 42688.00
1154.479, 42799.00
1155.569, 42665.00
1156.659, 42587.00
1157.750, 42558.09
1158.839, 42551.93
1159.929, 42452.00
1161.019, 42594.00
1162.108, 42660.00
1163.198, 42603.00
1164.287, 42421.00
1165.376, 42461.00
1166.465, 42406.00
1167.553, 42612.00
1168.642, 42470.00
1169.730, 42655.00
1170.818, 42209.00
1171.906, 42506.00
1172.994, 42724.00
1174.082, 42300.00
1175.170, 42543.00
1176.257, 42344.00
1177.344, 42315.00
1178.431, 42466.00
1179.518, 42522.00
1180.605, 42386.00
1181.691, 42462.00
1182.778, 42645.00
1183.864, 42337.00
1184.950, 42562.00
1186.036, 42531.00
1187.122, 42337.00
1188.207, 42335.00
1189.292, 42146.00
1190.378, 42434.00
1191.463, 42618.00
1192.548, 42227.00
1193.632, 42503.00
1194.717, 42599.00
1195.801, 42416.00
1196.886, 42217.00
1197.970, 42335.00
1199.054, 42344.00
1200.137, 42570.00
1201.221, 42446.00
1202.305, 42468.00
1203.388, 42570.00
1204.471, 42601.00
1205.554, 42593.95
1206.637, 42443.00
1207.719, 42517.00
1208.802, 42505.00
1209.884, 42390.00
1210.966, 42421.00
1212.048, 42318.00
1213.130, 42301.73
1214.212, 42529.00
1215.293, 42239.00
1216.374, 42388.00
1217.456, 42336.00
1218.536, 42625.00
1219.617, 42516.00
1220.698, 42559.00
1221.778, 42710.00
1222.859, 42425.00
1223.939, 42453.00
1225.019, 42619.00
1226.099, 42496.00
1227.178, 42450.00
1228.258, 42264.00
1229.337, 42414.00
1230.417, 42308.00
1231.496, 42577.00
1232.574, 42707.00
1233.653, 43041.00
1234.732, 42454.00
1235.810, 42500.00
1236.888, 42560.00
1237.966, 42488.00
1239.044, 42587.00
1240.122, 42566.00
1241.199, 42527.00
1242.277, 42353.00
1243.354, 42485.00
1244.431, 42518.00
1245.508, 42448.00
1246.585, 42528.77
1247.661, 42538.19
1248.738, 42545.00
1249.814, 42542.00
1250.890, 42516.00
1251.966, 42565.46
1253.042, 42371.00
1254.117, 42593.00
1255.193, 42698.00
1256.268, 42586.00
1257.343, 42272.00
1258.418, 42354.00
1259.493, 42613.00
1260.567, 42396.00
1261.642, 42930.00
1262.716, 42470.00
1263.790, 42791.00
1264.864, 42381.00
1265.938, 42504.00
1267.011, 42297.00
1268.085, 42340.00
1269.158, 42540.00
1270.231, 42919.00
1271.304, 42556.00
1272.377, 42643.00
1273.450, 42513.00
1274.522, 42340.00
1275.594, 42428.00
1276.666, 42039.00
1277.738, 42413.00
1278.810, 42262.00
1279.882, 42663.00
1280.953, 42438.00
1282.025, 42622.00
1283.096, 42753.00
1284.167, 42384.00
1285.238, 42463.00
1286.308, 42301.00
1287.379, 42588.00
1288.449, 42675.00
1289.519, 42656.00
1290.589, 42714.00
1291.659, 42664.00
1292.729, 42464.00
1293.798, 42661.00
1294.868, 42479.00
1295.937, 42525.20
1297.006, 42400.00
1298.075, 42543.00
1299.143, 42589.00
1300.212, 42556.00
1301.280, 42633.71
1302.348, 42668.16
1303.416, 42619.00
1304.484, 42749.00
1305.552, 42633.00
1306.620, 42585.00
1307.687, 42885.00
1308.754, 42585.00
1309.821, 43056.00
1310.888, 42591.00
1311.955, 42555.00
1313.021, 42650.00
1314.088, 42807.00
1315.154, 42703.00
1316.220, 42655.00
1317.286, 42731.00
1318.352, 42758.00
1319.417, 42890.00
1320.483, 42866.00
1321.548, 42518.00
1322.613, 42815.00
1323.678, 42834.00
1324.743, 42606.00
1325.807, 42821.00
1326.872, 42951.00
1327.936, 42903.00
1329.000, 42976.14
1330.064, 42775.00
1331.128, 42942.00
1332.191, 42680.00
1333.255, 42691.00
1334.318, 42740.00
1335.381, 42750.00
1336.444, 42503.00
1337.507, 42637.00
1338.569, 43191.00
1339.632, 42748.00
1340.694, 42987.00
1341.756, 42816.00
1342.818, 42844.00
1343.880, 42692.00
1344.941, 42807.00
1346.003, 42761.00
1347.064, 43048.00
1348.125, 42633.00
1349.186, 42620.00
1350.247, 42767.00
1351.308, 43072.00
1352.368, 42964.00
1353.428, 42879.00
1354.489, 43044.00
1355.549, 42990.00
1356.608, 42621.00
1357.668, 42707.00
1358.727, 42644.00
1359.787, 42804.00
1360.846, 42999.00
1361.905, 42834.00
1362.964, 42897.00
1364.022, 42769.00
1365.081, 42706.00
1366.139, 42744.00
1367.197, 42772.00
1368.255, 42867.00
1369.313, 42828.09
1370.371, 42938.00
1371.428, 42785.00
1372.486, 42734.00
1373.543, 42729.00
1374.600, 42725.00
1375.657, 42868.00
1376.713, 43061.00
1377.770, 43001.00
1378.826, 42815.00
1379.882, 43141.00
1380.938, 42815.00
1381.994, 42932.00
1383.050, 43013.00
1384.106, 43113.00
1385.161, 42982.00
1386.216, 42922.00
1387.271, 42805.00
1388.326, 43148.00
1389.381, 43036.00
1390.435, 42916.00
1391.490, 42698.00
1392.544, 42875.00
1393.598, 42844.00
1394.652, 42913.00
1395.705, 43072.00
1396.759, 42951.00
1397.812, 43046.00
1398.866, 42996.00
1399.919, 42843.00
1400.972, 43104.00
1402.024, 42825.00
1403.077, 42839.00
1404.129, 43110.00
1405.181, 43073.00
1406.233, 43161.00
1407.285, 43190.94
1408.337, 43172.00
1409.389, 43161.00
1410.440, 43061.00
1411.491, 43052.00
1412.542, 43051.00
1413.593, 43271.00
1414.644, 43086.00
1415.695, 42845.00
1416.745, 43048.00
1417.795, 43163.00
1418.845, 42910.00
1419.895, 43266.00
1420.945, 42995.00
1421.995, 42883.00
1423.044, 43171.00
1424.093, 42958.00
1425.142, 43268.00
1426.191, 43078.00
1427.240, 42843.00
1428.289, 42996.00
1429.337, 43054.00
1430.385, 43082.00
1431.433, 42899.00
1432.481, 43205.00
1433.529, 43005.00
1434.577, 43017.00
1435.624, 43241.00
1436.672, 43123.00
1437.719, 43193.00
1438.766, 43063.00
1439.812, 43145.00
1440.859, 43171.00
1441.905, 43236.00
1442.952, 43261.00
1443.998, 43383.00
1445.044, 43217.00
1446.090, 43337.00
1447.135, 43102.00
1448.181, 43280.00
1449.226, 43307.00
1450.271, 43145.00
1451.316, 43269.00
1452.361, 43440.00
1453.405, 43073.00
1454.450, 43275.00
1455.494, 43081.00
1456.538, 43467.00
1457.582, 43325.00
1458.626, 43530.00
1459.670, 43007.00
1460.713, 43251.00
1461.757, 43305.00
1462.800, 43077.00
1463.843, 43184.00
1464.886, 43149.00
1465.928, 43431.00
1466.971, 43665.00
1468.013, 43294.00
1469.055, 43288.00
1470.097, 43255.00
1471.139, 43487.00
1472.181, 43222.00
1473.222, 43247.00
1474.263, 43539.00
1475.305, 43300.00
1476.346, 43204.00
1477.386, 43562.00
1478.427, 43413.00
1479.468, 43470.00
1480.508, 43246.00
1481.548, 43281.00
1482.588, 43102.00
1483.628, 43018.00
1484.668, 43534.00
1485.707, 43610.00
1486.747, 43299.00
1487.786, 43433.00
1488.825, 43335.00
1489.864, 43435.00
1490.902, 43471.38
1491.941, 43381.00
1492.979, 43538.00
1494.017, 43414.00
1495.055, 43364.00
1496.093, 43351.00
1497.131, 43340.00
1498.168, 43663.00
1499.206, 43295.00
1500.243, 43431.00
1501.280, 43563.00
1502.317, 43417.00
1503.354, 43197.00
1504.390, 43516.00
1505.426, 43279.00
1506.463, 43563.00
1507.499, 43255.00
1508.535, 43596.00
1509.570, 43579.00
1510.606, 43558.00
1511.641, 43406.00
1512.676, 43379.00
1513.711, 43760.00
1514.746, 43496.00
1515.781, 43694.00
1516.816, 43445.00
1517.850, 43311.00
1518.884, 43408.00
1519.918, 43223.00
1520.952, 43654.00
1521.986, 43475.00
1523.019, 43507.00
1524.053, 43282.00
1525.086, 43347.00
1526.119, 43530.00
1527.152, 43659.00
1528.185, 43635.37
1529.217, 43927.00
1530.250, 43473.00
1531.282, 43770.00
1532.314, 43499.00
1533.346, 43631.00
1534.377, 43713.00
1535.409, 43429.00
1536.440, 43527.00
1537.472, 43686.00
1538.503, 43186.16
1539.534, 43634.91
1540.564, 43891.91
1541.595, 43967.50
1542.625, 43318.23
1543.656, 43604.96
1544.686, 43516.57
1545.716, 43412.81
1546.745, 43831.25
1547.775, 43287.41
1548.804, 43697.57
1549.834, 43726.92
1550.863, 43930.55
1551.892, 43756.77
1552.920, 43699.54
1553.949, 44019.87
1554.977, 44131.14
1556.006, 43913.91
1557.034, 44128.61
1558.062, 43571.57
1559.089, 43691.73
1560.117, 44104.09
1561.144, 43905.82
1562.172, 43849.00
1563.199, 43803.00
1564.226, 43873.00
1565.252, 43676.00
1566.279, 43783.00
1567.305, 43814.00
1568.332, 43755.00
1569.358, 43894.00
1570.384, 43870.00
1571.409, 44219.00
1572.435, 43845.00
##END=



