##NAMES=Ferberite
##RRUFFID=R050090
##IDEAL CHEMISTRY=Fe^2+^W^6+^O_4_
##LOCALITY=Yaogangxian mine, Cheng Zhu City, South Hunan, China
##OWNER=RRUFF
##SOURCE=Rock Currier
##DESCRIPTION=Dark gray tabular crystal
##STATUS=The identification of this mineral has been confirmed by X-ray diffraction and chemical analysis
##URL=rruff.info/R050090
##MEASURED CHEMISTRY=(Fe^2+^_0.56_Mn_0.44_)W_1.00_O_4_
##PIN_ID=L01369
##ORIENTATION=Laser parallel to c* (0 0 1). Fiducial mark perpendicular to laser is parallel to -a [-1 0 0]
98.41600, 6534.000
99.64900, 6503.000
100.8830, 6583.000
102.1160, 6567.000
103.3490, 6523.000
104.5820, 6533.000
105.8150, 6925.000
107.0470, 7522.000
108.2800, 8482.000
109.5120, 8339.757
110.7440, 8133.601
111.9760, 8294.000
113.2080, 7217.000
114.4400, 7150.000
115.6710, 7521.000
116.9030, 8181.000
118.1340, 8349.000
119.3650, 8328.000
120.5960, 8541.000
121.8270, 9075.000
123.0580, 10095.00
124.2880, 11598.00
125.5190, 13130.00
126.7490, 15250.00
127.9790, 17673.00
129.2090, 19680.00
130.4390, 19614.00
131.6680, 17879.00
132.8980, 15600.00
134.1270, 13789.00
135.3560, 13163.00
136.5850, 13140.00
137.8140, 13667.00
139.0430, 14676.00
140.2710, 15979.00
141.5000, 17127.00
142.7280, 18154.00
143.9560, 18532.00
145.1840, 18355.00
146.4120, 17676.00
147.6390, 16984.00
148.8670, 15573.00
150.0940, 14164.00
151.3210, 12004.00
152.5490, 11242.00
153.7750, 10465.00
155.0020, 9542.000
156.2290, 8935.000
157.4550, 8525.000
158.6810, 7905.000
159.9080, 7615.000
161.1340, 7317.000
162.3590, 7310.000
163.5850, 7341.000
164.8110, 7515.000
166.0360, 7801.000
167.2610, 7894.518
168.4860, 8116.000
169.7110, 8080.000
170.9360, 8082.000
172.1610, 7819.000
173.3850, 7476.000
174.6100, 7258.000
175.8340, 7088.000
177.0580, 7025.000
178.2820, 7032.000
179.5050, 6985.000
180.7290, 6945.000
181.9520, 6775.000
183.1760, 6684.000
184.3990, 6691.000
185.6220, 6675.000
186.8450, 6711.731
188.0670, 6802.084
189.2900, 6912.000
190.5120, 7023.000
191.7340, 7172.833
192.9560, 7379.000
194.1780, 7502.000
195.4000, 7682.000
196.6220, 7860.000
197.8430, 8001.000
199.0640, 8012.000
200.2860, 8135.000
201.5070, 8737.000
202.7270, 9354.000
203.9480, 9165.000
205.1690, 9006.000
206.3890, 8142.000
207.6090, 7712.000
208.8290, 7300.000
210.0490, 7012.000
211.2690, 6838.000
212.4890, 6692.000
213.7080, 6563.000
214.9280, 6478.000
216.1470, 6234.000
217.3660, 6076.000
218.5850, 6026.000
219.8030, 5890.375
221.0220, 5833.000
222.2400, 5796.000
223.4590, 5809.000
224.6770, 5841.000
225.8950, 5780.000
227.1120, 5731.000
228.3300, 5866.000
229.5480, 5854.000
230.7650, 5756.000
231.9820, 5850.000
233.1990, 5802.000
234.4160, 5782.000
235.6330, 5796.000
236.8490, 5780.324
238.0660, 5802.000
239.2820, 5782.000
240.4980, 5832.000
241.7140, 5811.000
242.9300, 5770.000
244.1460, 5899.000
245.3610, 5846.000
246.5770, 5855.000
247.7920, 5918.000
249.0070, 5786.000
250.2220, 5868.000
251.4370, 5926.000
252.6510, 6029.000
253.8660, 6039.000
255.0800, 6135.000
256.2940, 6231.419
257.5080, 6424.964
258.7220, 6572.072
259.9360, 6675.239
261.1490, 6602.778
262.3630, 6757.083
263.5760, 6820.466
264.7890, 6880.126
266.0020, 6796.000
267.2150, 6875.000
268.4270, 6810.000
269.6400, 6813.000
270.8520, 6718.000
272.0640, 6649.000
273.2760, 6566.000
274.4880, 6499.000
275.7000, 6480.000
276.9120, 6464.000
278.1230, 6377.000
279.3340, 6431.000
280.5450, 6365.000
281.7560, 6307.000
282.9670, 6290.000
284.1780, 6279.000
285.3880, 6244.000
286.5980, 6222.000
287.8090, 6325.000
289.0190, 6255.000
290.2290, 6332.000
291.4380, 6340.000
292.6480, 6360.000
293.8570, 6385.000
295.0670, 6456.000
296.2760, 6380.000
297.4850, 6457.000
298.6930, 6400.000
299.9020, 6401.000
301.1110, 6386.000
302.3190, 6413.000
303.5270, 6412.000
304.7350, 6422.000
305.9430, 6469.000
307.1510, 6507.684
308.3580, 6583.000
309.5660, 6649.000
310.7730, 6736.000
311.9800, 6856.000
313.1870, 6985.136
314.3940, 7142.000
315.6010, 7323.000
316.8070, 7545.000
318.0130, 7785.000
319.2200, 8094.000
320.4260, 8425.000
321.6310, 8584.000
322.8370, 9007.000
324.0430, 9123.000
325.2480, 9257.000
326.4540, 9157.000
327.6590, 9232.000
328.8640, 9070.000
330.0680, 8891.000
331.2730, 8579.000
332.4780, 8416.000
333.6820, 8183.000
334.8860, 8055.000
336.0900, 7827.000
337.2940, 7599.000
338.4980, 7660.000
339.7010, 7502.000
340.9050, 7328.000
342.1080, 7379.000
343.3110, 7272.000
344.5140, 7129.000
345.7170, 7169.000
346.9200, 7146.000
348.1220, 7084.000
349.3240, 7051.000
350.5270, 7083.000
351.7290, 7120.000
352.9310, 7021.000
354.1320, 7038.000
355.3340, 7006.000
356.5350, 6929.000
357.7370, 7068.000
358.9380, 7022.000
360.1390, 6925.000
361.3400, 6926.000
362.5400, 6858.000
363.7410, 6922.000
364.9410, 7007.000
366.1410, 6936.000
367.3410, 6885.000
368.5410, 6771.000
369.7410, 6796.377
370.9400, 6928.000
372.1400, 6841.000
373.3390, 6918.000
374.5380, 6962.000
375.7370, 6968.000
376.9360, 7066.000
378.1350, 7082.000
379.3330, 7145.000
380.5310, 7167.000
381.7300, 7197.000
382.9280, 7357.000
384.1260, 7330.000
385.3230, 7495.000
386.5210, 7676.000
387.7180, 7817.000
388.9160, 8094.000
390.1130, 8418.000
391.3100, 8784.000
392.5060, 9131.000
393.7030, 9669.000
394.9000, 9993.000
396.0960, 10353.00
397.2920, 10386.95
398.4880, 10518.00
399.6840, 10104.00
400.8800, 9689.000
402.0750, 9172.000
403.2710, 8805.000
404.4660, 8536.000
405.6610, 8132.000
406.8560, 7905.000
408.0510, 7749.000
409.2450, 7747.000
410.4400, 7582.998
411.6340, 7222.000
412.8280, 7444.576
414.0220, 7068.000
415.2160, 7039.000
416.4100, 6852.000
417.6030, 6843.000
418.7970, 6822.000
419.9900, 6693.000
421.1830, 6780.000
422.3760, 6720.000
423.5690, 6631.000
424.7610, 6635.000
425.9540, 6814.000
427.1460, 6660.785
428.3380, 6747.000
429.5300, 6505.000
430.7220, 6596.000
431.9140, 6530.000
433.1050, 6549.000
434.2970, 6552.000
435.4880, 6640.000
436.6790, 6661.000
437.8700, 6733.000
439.0610, 6584.000
440.2510, 6609.000
441.4420, 6615.000
442.6320, 6629.000
443.8220, 6590.000
445.0120, 6822.000
446.2020, 6716.000
447.3910, 6773.000
448.5810, 6659.000
449.7700, 6706.000
450.9600, 6702.000
452.1490, 6751.000
453.3370, 6748.000
454.5260, 6672.000
455.7150, 6803.000
456.9030, 6702.000
458.0910, 6759.000
459.2800, 6761.000
460.4670, 6724.000
461.6550, 6686.000
462.8430, 6702.000
464.0300, 6653.000
465.2180, 6796.000
466.4050, 6715.000
467.5920, 6824.000
468.7790, 6775.000
469.9650, 6797.000
471.1520, 6759.000
472.3380, 6804.000
473.5250, 6775.000
474.7110, 6752.000
475.8970, 6823.000
477.0820, 6777.000
478.2680, 6878.000
479.4540, 6881.000
480.6390, 6905.000
481.8240, 7007.000
483.0090, 6933.000
484.1940, 6978.000
485.3780, 6950.000
486.5630, 7041.000
487.7470, 7038.000
488.9320, 7022.000
490.1160, 6985.000
491.3000, 7029.000
492.4830, 7091.000
493.6670, 7044.000
494.8500, 7130.000
496.0340, 7203.000
497.2170, 7114.000
498.4000, 7241.000
499.5820, 7298.000
500.7650, 7484.000
501.9480, 7451.000
503.1300, 7599.000
504.3120, 7645.000
505.4940, 7747.000
506.6760, 7828.000
507.8580, 7831.000
509.0390, 7791.000
510.2210, 7783.000
511.4020, 7837.000
512.5830, 7851.000
513.7640, 7790.000
514.9450, 7978.000
516.1250, 7781.000
517.3060, 7741.000
518.4860, 7815.000
519.6660, 7725.000
520.8460, 7785.000
522.0260, 7893.000
523.2060, 7743.000
524.3850, 7933.000
525.5650, 7872.000
526.7440, 7926.000
527.9230, 7786.000
529.1020, 7848.000
530.2810, 7955.000
531.4590, 7923.000
532.6380, 8077.000
533.8160, 8019.000
534.9940, 8030.000
536.1720, 8027.000
537.3500, 8045.000
538.5270, 8084.000
539.7050, 7986.000
540.8820, 8028.000
542.0590, 7947.000
543.2360, 7949.000
544.4130, 7794.000
545.5900, 7822.000
546.7660, 7685.000
547.9430, 7691.000
549.1190, 7651.000
550.2950, 7548.000
551.4710, 7609.000
552.6470, 7483.000
553.8220, 7381.000
554.9980, 7410.000
556.1730, 7295.000
557.3480, 7267.000
558.5230, 7224.000
559.6980, 7191.000
560.8730, 7177.000
562.0470, 7058.000
563.2220, 7092.000
564.3960, 7078.000
565.5700, 6957.000
566.7440, 7123.000
567.9170, 7017.000
569.0910, 7092.000
570.2640, 6973.000
571.4380, 7007.000
572.6110, 7076.000
573.7840, 7065.000
574.9570, 7072.550
576.1290, 7093.599
577.3020, 7018.000
578.4740, 7039.000
579.6460, 6976.000
580.8180, 6970.490
581.9900, 6944.837
583.1620, 6965.000
584.3330, 6890.000
585.5040, 6903.000
586.6760, 6880.000
587.8470, 6863.854
589.0180, 6867.582
590.1880, 6877.000
591.3590, 6884.000
592.5290, 6936.000
593.7000, 6994.000
594.8700, 6978.000
596.0400, 7015.000
597.2090, 7163.000
598.3790, 7063.000
599.5490, 7131.000
600.7180, 7055.000
601.8870, 7189.000
603.0560, 7140.000
604.2250, 7153.000
605.3940, 7332.000
606.5620, 7245.000
607.7300, 7340.000
608.8990, 7258.000
610.0670, 7327.000
611.2350, 7352.000
612.4020, 7385.000
613.5700, 7425.965
614.7370, 7475.000
615.9050, 7514.000
617.0720, 7515.000
618.2390, 7611.000
619.4060, 7652.000
620.5720, 7617.000
621.7390, 7759.000
622.9050, 7785.000
624.0710, 7901.000
625.2370, 7906.000
626.4030, 8086.000
627.5690, 7972.000
628.7340, 8072.000
629.9000, 8305.000
631.0650, 8217.000
632.2300, 8182.000
633.3950, 8330.000
634.5600, 8255.000
635.7240, 8330.000
636.8890, 8322.000
638.0530, 8209.000
639.2170, 8328.000
640.3810, 8290.000
641.5450, 8141.000
642.7080, 8158.000
643.8720, 8262.000
645.0350, 8042.000
646.1980, 7969.000
647.3610, 8051.000
648.5240, 7962.000
649.6870, 7924.000
650.8490, 7959.000
652.0120, 8022.000
653.1740, 7879.000
654.3360, 7872.000
655.4980, 8010.000
656.6600, 7924.000
657.8210, 7946.000
658.9830, 8007.000
660.1440, 8069.000
661.3050, 8076.134
662.4660, 7966.000
663.6270, 8117.000
664.7870, 8127.000
665.9480, 8176.000
667.1080, 8387.000
668.2680, 8348.198
669.4280, 8251.000
670.5880, 8398.000
671.7480, 8458.000
672.9070, 8494.000
674.0670, 8462.000
675.2260, 8590.000
676.3850, 8636.323
677.5440, 8785.000
678.7030, 8787.000
679.8610, 8913.000
681.0200, 8916.434
682.1780, 9069.000
683.3360, 9094.000
684.4940, 9099.000
685.6520, 9163.000
686.8090, 9268.000
687.9670, 9191.000
689.1240, 9244.000
690.2810, 9234.000
691.4380, 9091.000
692.5950, 9150.000
693.7520, 9209.000
694.9080, 9120.000
696.0650, 9157.000
697.2210, 8972.000
698.3770, 8996.000
699.5330, 8926.000
700.6880, 8722.000
701.8440, 8644.000
702.9990, 8652.000
704.1550, 8441.000
705.3100, 8406.000
706.4650, 8274.000
707.6190, 8168.000
708.7740, 8289.000
709.9290, 8123.000
711.0830, 8026.000
712.2370, 8094.000
713.3910, 7903.000
714.5450, 8056.000
715.6980, 7890.000
716.8520, 7837.000
718.0050, 7801.000
719.1580, 7701.000
720.3110, 7674.049
721.4640, 7673.000
722.6170, 7609.000
723.7700, 7650.000
724.9220, 7673.000
726.0740, 7606.000
727.2260, 7634.000
728.3780, 7508.000
729.5300, 7538.000
730.6810, 7539.000
731.8330, 7680.000
732.9840, 7509.000
734.1350, 7515.000
735.2860, 7630.000
736.4370, 7505.000
737.5880, 7498.000
738.7380, 7648.000
739.8880, 7648.000
741.0390, 7667.000
742.1890, 7674.000
743.3380, 7705.000
744.4880, 7774.000
745.6380, 7829.000
746.7870, 7754.000
747.9360, 7807.000
749.0850, 7929.000
750.2340, 7844.000
751.3830, 8101.000
752.5310, 8010.000
753.6800, 8075.000
754.8280, 8221.000
755.9760, 8391.000
757.1240, 8450.000
758.2720, 8464.000
759.4190, 8650.000
760.5670, 8756.000
761.7140, 8861.000
762.8610, 8985.810
764.0080, 9108.000
765.1550, 9197.000
766.3020, 9263.000
767.4480, 9389.000
768.5950, 9423.000
769.7410, 9487.000
770.8870, 9414.000
772.0330, 9453.000
773.1780, 9542.000
774.3240, 9364.000
775.4690, 9403.000
776.6140, 9283.000
777.7590, 9232.000
778.9040, 9221.000
780.0490, 9212.000
781.1940, 9140.270
782.3380, 9095.680
783.4820, 9020.000
784.6260, 8941.000
785.7700, 8902.000
786.9140, 8803.000
788.0580, 8798.000
789.2010, 8790.000
790.3450, 8701.000
791.4880, 8730.000
792.6310, 8718.000
793.7730, 8608.000
794.9160, 8572.000
796.0590, 8590.000
797.2010, 8617.000
798.3430, 8551.000
799.4850, 8471.000
800.6270, 8567.000
801.7690, 8452.000
802.9100, 8427.000
804.0520, 8527.000
805.1930, 8453.000
806.3340, 8353.000
807.4750, 8374.000
808.6160, 8415.000
809.7560, 8462.000
810.8970, 8448.000
812.0370, 8492.597
813.1770, 8424.000
814.3170, 8529.000
815.4570, 8558.000
816.5960, 8553.000
817.7360, 8632.728
818.8750, 8625.282
820.0140, 8687.000
821.1530, 8655.000
822.2920, 8585.000
823.4310, 8604.000
824.5690, 8613.000
825.7070, 8673.000
826.8460, 8846.000
827.9840, 8700.000
829.1220, 8910.000
830.2590, 8953.000
831.3970, 9016.000
832.5340, 9026.000
833.6710, 9100.000
834.8080, 9133.000
835.9450, 9150.000
837.0820, 9422.000
838.2190, 9326.000
839.3550, 9580.000
840.4910, 9691.000
841.6270, 9861.000
842.7630, 9985.000
843.8990, 9994.000
845.0350, 10269.00
846.1700, 10390.00
847.3060, 10747.00
848.4410, 10908.00
849.5760, 11165.00
850.7100, 11376.00
851.8450, 11943.00
852.9800, 12375.00
854.1140, 12773.00
855.2480, 13066.00
856.3820, 13839.00
857.5160, 14331.00
858.6500, 14954.00
859.7830, 16099.00
860.9170, 17087.00
862.0500, 18002.00
863.1830, 18862.00
864.3160, 20082.00
865.4480, 21821.00
866.5810, 23586.00
867.7130, 25572.00
868.8460, 27715.00
869.9780, 30301.00
871.1100, 33287.00
872.2410, 36896.00
873.3730, 40408.00
874.5050, 44537.00
875.6360, 48496.00
876.7670, 52217.00
877.8980, 55566.00
879.0290, 57520.00
880.1590, 58963.00
881.2900, 58884.00
882.4200, 57115.00
883.5500, 54095.00
884.6800, 50546.00
885.8100, 46041.00
886.9400, 41500.00
888.0690, 37236.00
889.1990, 32875.00
890.3280, 29294.00
891.4570, 26154.00
892.5860, 23259.00
893.7140, 20855.00
894.8430, 19057.00
895.9710, 17468.00
897.1000, 16242.00
898.2280, 15023.00
899.3560, 14086.00
900.4830, 13399.00
901.6110, 12781.00
902.7380, 12297.00
903.8660, 11795.00
904.9930, 11512.00
906.1200, 11048.00
907.2460, 10692.00
908.3730, 10500.00
909.5000, 10208.00
910.6260, 10024.00
911.7520, 9813.000
912.8780, 9712.000
914.0040, 9536.000
915.1290, 9326.000
916.2550, 9286.000
917.3800, 9255.000
918.5050, 9143.000
919.6300, 9050.000
920.7550, 8923.000
921.8800, 8859.530
923.0040, 8915.000
924.1290, 8727.000
925.2530, 8667.000
926.3770, 8600.000
927.5010, 8448.000
928.6250, 8554.000
929.7480, 8568.000
930.8720, 8463.000
931.9950, 8394.000
933.1180, 8450.000
934.2410, 8385.000
935.3640, 8269.000
936.4860, 8348.000
937.6090, 8251.000
938.7310, 8242.000
939.8530, 8356.000
940.9750, 8176.000
942.0970, 8296.000
943.2180, 8207.000
944.3400, 8178.000
945.4610, 8259.000
946.5820, 8164.000
947.7030, 8202.000
948.8240, 8151.000
949.9450, 8057.000
951.0650, 8214.000
952.1860, 8165.000
953.3060, 8174.000
954.4260, 8156.000
955.5460, 8099.000
956.6650, 8205.000
957.7850, 8043.000
958.9040, 8177.000
960.0230, 8134.000
961.1420, 8130.219
962.2610, 8122.765
963.3800, 8118.000
964.4990, 8088.000
965.6170, 8001.000
966.7350, 8109.000
967.8530, 8031.000
968.9710, 8202.000
970.0890, 8038.000
971.2070, 8000.000
972.3240, 7956.000
973.4410, 7926.813
974.5580, 8007.000
975.6750, 8003.000
976.7920, 8002.000
977.9090, 8152.000
979.0250, 8090.000
980.1410, 8019.000
981.2580, 8149.000
982.3740, 8160.000
983.4890, 8045.000
984.6050, 8098.000
985.7200, 8160.000
986.8360, 8315.000
987.9510, 8220.155
989.0660, 8196.898
990.1810, 8146.000
991.2950, 7961.000
992.4100, 8087.000
993.5240, 7943.000
994.6390, 8031.000
995.7530, 8142.000
996.8660, 8019.000
997.9800, 7904.000
999.0940, 8012.000
1000.207, 7946.000
1001.320, 8054.000
1002.433, 8083.000
1003.546, 7947.000
1004.659, 8014.000
1005.772, 7980.702
1006.884, 7999.000
1007.996, 8013.000
1009.108, 7941.000
1010.220, 8021.000
1011.332, 8071.000
1012.444, 8079.000
1013.555, 7993.000
1014.666, 8033.000
1015.777, 7951.000
1016.888, 8149.000
1017.999, 8041.000
1019.110, 8074.000
1020.220, 7965.000
1021.331, 8031.000
1022.441, 7948.000
1023.551, 8080.000
1024.661, 8046.000
1025.770, 8048.000
1026.880, 7994.000
1027.989, 8021.000
1029.098, 7982.000
1030.207, 8058.000
1031.316, 8022.693
1032.425, 8082.000
1033.533, 7990.000
1034.642, 8014.000
1035.750, 7992.032
1036.858, 8009.000
1037.966, 8078.000
1039.073, 8096.000
1040.181, 8222.000
1041.288, 8059.000
1042.396, 8094.000
1043.503, 8003.000
1044.610, 8106.000
1045.716, 8155.000
1046.823, 8053.000
1047.929, 8142.000
1049.036, 8097.000
1050.142, 8088.000
1051.248, 8191.000
1052.353, 8243.000
1053.459, 8186.000
1054.564, 8146.000
1055.670, 8286.000
1056.775, 8277.000
1057.880, 8261.000
1058.985, 8301.537
1060.089, 8240.000
1061.194, 8278.000
1062.298, 8247.000
1063.402, 8206.000
1064.506, 8259.000
1065.610, 8232.000
1066.713, 8200.000
1067.817, 8327.000
1068.920, 8276.000
1070.023, 8335.000
1071.126, 8202.957
1072.229, 8307.540
1073.332, 8365.686
1074.435, 8379.889
1075.537, 8218.539
1076.639, 8283.881
1077.741, 8258.375
1078.843, 8229.145
1079.945, 8326.393
1081.046, 8190.578
1082.148, 8285.820
1083.249, 8288.830
1084.350, 8334.053
1085.451, 8287.867
1086.551, 8269.916
1087.652, 8343.401
1088.752, 8366.258
1089.853, 8309.549
1090.953, 8357.457
1092.053, 8218.451
1093.152, 8243.466
1094.252, 8339.246
1095.351, 8287.136
1096.451, 8336.715
1097.550, 8347.566
1098.649, 8182.409
1099.748, 8323.348
1100.846, 8331.912
1101.945, 8325.000
1103.043, 8304.000
1104.141, 8204.000
1105.239, 8177.000
1106.337, 8237.000
1107.434, 8300.000
1108.532, 8239.000
1109.629, 8166.000
1110.726, 8232.000
1111.823, 8336.000
1112.920, 8319.000
1114.017, 8216.000
1115.113, 8227.000
1116.210, 8170.000
1117.306, 8339.000
1118.402, 8273.000
1119.498, 8299.000
1120.593, 8237.000
1121.689, 8285.000
1122.784, 8405.000
1123.879, 8356.000
1124.974, 8304.000
1126.069, 8433.000
1127.164, 8387.000
1128.259, 8364.824
1129.353, 8258.000
1130.447, 8307.000
1131.541, 8248.000
1132.635, 8290.000
1133.729, 8247.000
1134.822, 8229.000
1135.916, 8309.000
1137.009, 8187.000
1138.102, 8163.000
1139.195, 8301.000
1140.288, 8341.000
1141.380, 8248.000
1142.473, 8331.000
1143.565, 8311.000
1144.657, 8336.000
1145.749, 8420.000
1146.841, 8250.000
1147.932, 8257.000
1149.024, 8262.000
1150.115, 8297.000
1151.206, 8325.000
1152.297, 8316.000
1153.388, 8306.000
1154.479, 8351.000
1155.569, 8261.000
1156.659, 8295.000
1157.750, 8355.000
1158.839, 8323.000
1159.929, 8378.000
1161.019, 8337.000
1162.108, 8256.000
1163.198, 8178.000
1164.287, 8341.000
1165.376, 8272.000
1166.465, 8303.000
1167.553, 8283.000
1168.642, 8250.000
1169.730, 8296.000
1170.818, 8248.000
1171.906, 8302.000
1172.994, 8286.000
1174.082, 8370.000
1175.170, 8342.000
1176.257, 8326.000
1177.344, 8340.000
1178.431, 8331.000
1179.518, 8254.000
1180.605, 8247.000
1181.691, 8242.376
1182.778, 8236.000
1183.864, 8251.000
1184.950, 8249.554
1186.036, 8238.257
1187.122, 8260.000
1188.207, 8272.000
1189.292, 8338.000
1190.378, 8363.000
1191.463, 8381.000
1192.548, 8378.000
1193.632, 8458.000
1194.717, 8346.000
1195.801, 8459.000
1196.886, 8403.043
1197.970, 8338.000
1199.054, 8404.000
1200.137, 8288.000
1201.221, 8410.000
1202.305, 8330.000
1203.388, 8267.000
1204.471, 8372.000
1205.554, 8367.000
1206.637, 8403.000
1207.719, 8509.000
1208.802, 8400.000
1209.884, 8300.000
1210.966, 8442.000
1212.048, 8443.000
1213.130, 8285.000
1214.212, 8538.000
1215.293, 8433.101
1216.374, 8480.000
1217.456, 8399.000
1218.536, 8542.000
1219.617, 8460.000
1220.698, 8557.000
1221.778, 8518.000
1222.859, 8473.000
1223.939, 8422.000
1225.019, 8434.000
1226.099, 8377.000
1227.178, 8507.000
1228.258, 8463.000
1229.337, 8483.000
1230.417, 8374.000
1231.496, 8606.000
1232.574, 8654.000
1233.653, 8524.000
1234.732, 8447.000
1235.810, 8551.000
1236.888, 8491.000
1237.966, 8525.000
1239.044, 8440.000
1240.122, 8537.000
1241.199, 8576.000
1242.277, 8548.000
1243.354, 8589.000
1244.431, 8589.576
1245.508, 8549.641
1246.585, 8566.000
1247.661, 8561.000
1248.738, 8466.000
1249.814, 8672.000
1250.890, 8548.000
1251.966, 8603.000
1253.042, 8497.000
1254.117, 8537.000
1255.193, 8456.000
1256.268, 8390.000
1257.343, 8538.000
1258.418, 8481.000
1259.493, 8489.000
1260.567, 8485.000
1261.642, 8526.000
1262.716, 8467.000
1263.790, 8679.000
1264.864, 8416.000
1265.938, 8569.000
1267.011, 8638.000
1268.085, 8467.000
1269.158, 8564.000
1270.231, 8529.000
1271.304, 8361.000
1272.377, 8580.000
1273.450, 8524.000
1274.522, 8510.000
1275.594, 8481.000
1276.666, 8595.000
1277.738, 8523.000
1278.810, 8622.000
1279.882, 8489.000
1280.953, 8519.000
1282.025, 8565.000
1283.096, 8497.000
1284.167, 8640.000
1285.238, 8519.000
1286.308, 8539.000
1287.379, 8474.000
1288.449, 8643.000
1289.519, 8617.000
1290.589, 8629.000
1291.659, 8602.000
1292.729, 8689.000
1293.798, 8626.000
1294.868, 8656.000
1295.937, 8575.000
1297.006, 8629.000
1298.075, 8702.000
1299.143, 8665.000
1300.212, 8661.000
1301.280, 8736.000
1302.348, 8608.000
1303.416, 8700.000
1304.484, 8615.000
1305.552, 8644.000
1306.620, 8705.000
1307.687, 8678.000
1308.754, 8592.000
1309.821, 8744.000
1310.888, 8639.000
1311.955, 8578.000
1313.021, 8614.000
1314.088, 8723.000
1315.154, 8528.000
1316.220, 8715.000
1317.286, 8696.000
1318.352, 8611.000
1319.417, 8661.000
1320.483, 8635.000
1321.548, 8756.000
1322.613, 8618.000
1323.678, 8679.000
1324.743, 8770.000
1325.807, 8601.000
1326.872, 8653.000
1327.936, 8701.000
1329.000, 8656.000
1330.064, 8699.000
1331.128, 8748.000
1332.191, 8642.000
1333.255, 8685.000
1334.318, 8764.000
1335.381, 8793.000
1336.444, 8752.000
1337.507, 8714.000
1338.569, 8794.000
1339.632, 8694.000
1340.694, 8975.000
1341.756, 8837.040
1342.818, 8907.000
1343.880, 8712.000
1344.941, 8801.000
1346.003, 8748.000
1347.064, 8671.000
1348.125, 8857.000
1349.186, 8774.000
1350.247, 8820.000
1351.308, 8817.000
1352.368, 8711.000
1353.428, 8806.000
1354.489, 8795.000
1355.549, 8772.000
1356.608, 8798.000
1357.668, 8807.000
1358.727, 8800.000
1359.787, 8756.000
1360.846, 8769.980
1361.905, 8764.000
1362.964, 8762.000
1364.022, 8787.000
1365.081, 8778.439
1366.139, 8866.000
1367.197, 8767.000
1368.255, 8759.000
1369.313, 8823.000
1370.371, 8863.000
1371.428, 8697.000
1372.486, 8903.000
1373.543, 8807.000
1374.600, 8942.000
1375.657, 8796.000
1376.713, 8870.000
1377.770, 8853.000
1378.826, 8810.000
1379.882, 8860.000
1380.938, 8764.000
1381.994, 8802.000
1383.050, 8908.000
1384.106, 8865.000
1385.161, 8878.000
1386.216, 8974.000
1387.271, 8879.000
1388.326, 8905.000
1389.381, 8883.061
1390.435, 8878.000
1391.490, 8867.000
1392.544, 8802.000
1393.598, 8892.000
1394.652, 8816.000
1395.705, 8844.000
1396.759, 8855.000
1397.812, 8858.000
1398.866, 8854.297
1399.919, 8836.000
1400.972, 8840.987
1402.024, 8784.000
1403.077, 8806.000
1404.129, 8827.000
1405.181, 8966.000
1406.233, 9029.000
1407.285, 8940.000
1408.337, 8773.000
1409.389, 8894.000
1410.440, 8847.000
1411.491, 8964.000
1412.542, 8860.000
1413.593, 8791.000
1414.644, 8905.000
1415.695, 8976.000
1416.745, 8933.000
1417.795, 8872.000
1418.845, 8923.000
1419.895, 8906.000
1420.945, 8949.000
1421.995, 8923.000
1423.044, 9014.000
1424.093, 8986.000
1425.142, 8980.000
1426.191, 8891.000
1427.240, 8981.000
1428.289, 8970.000
1429.337, 8938.000
1430.385, 8958.000
1431.433, 9020.000
1432.481, 8972.000
1433.529, 8979.000
1434.577, 8941.000
1435.624, 9047.000
1436.672, 8975.000
1437.719, 8938.000
1438.766, 9044.000
1439.812, 8948.000
1440.859, 8978.000
1441.905, 9071.000
1442.952, 9043.000
1443.998, 8995.000
1445.044, 9029.000
1446.090, 9039.000
1447.135, 8993.000
1448.181, 9075.000
1449.226, 8961.000
1450.271, 8990.000
1451.316, 9046.000
1452.361, 9168.000
1453.405, 9074.000
1454.450, 9094.000
1455.494, 9154.000
1456.538, 8935.000
1457.582, 9047.000
1458.626, 9004.000
1459.670, 9058.000
1460.713, 8997.000
1461.757, 9060.000
1462.800, 9111.000
1463.843, 9033.000
1464.886, 9047.000
1465.928, 9054.000
1466.971, 9013.000
1468.013, 9051.833
1469.055, 9053.000
1470.097, 9086.000
1471.139, 9112.000
1472.181, 9105.000
1473.222, 9057.000
1474.263, 9144.000
1475.305, 9079.000
1476.346, 9129.000
1477.386, 9114.000
1478.427, 9178.000
1479.468, 9178.000
1480.508, 9065.000
1481.548, 9220.000
1482.588, 9256.000
1483.628, 9148.000
1484.668, 9200.000
1485.707, 9129.000
1486.747, 9299.000
1487.786, 9201.118
1488.825, 9196.000
1489.864, 9053.000
1490.902, 9223.000
1491.941, 9078.000
1492.979, 9230.000
1494.017, 9237.000
1495.055, 9256.000
1496.093, 9210.000
1497.131, 9221.000
1498.168, 9208.000
1499.206, 9077.000
1500.243, 9135.000
1501.280, 9116.000
1502.317, 9203.000
1503.354, 9265.000
1504.390, 9181.000
1505.426, 9188.000
1506.463, 9193.000
1507.499, 9262.000
1508.535, 9145.000
1509.570, 9272.000
1510.606, 9156.000
1511.641, 9309.000
1512.676, 9282.000
1513.711, 9361.000
1514.746, 9279.000
1515.781, 9267.000
1516.816, 9264.000
1517.850, 9264.000
1518.884, 9244.757
1519.918, 9351.000
1520.952, 9260.000
1521.986, 9280.000
1523.019, 9397.000
1524.053, 9262.000
1525.086, 9362.000
1526.119, 9361.000
1527.152, 9432.000
1528.185, 9275.000
1529.217, 9378.000
1530.250, 9287.000
1531.282, 9266.000
1532.314, 9330.000
1533.346, 9271.000
1534.377, 9288.000
1535.409, 9271.000
1536.440, 9450.000
1537.472, 9345.000
1538.503, 9213.000
1539.534, 9453.000
1540.564, 9218.248
1541.595, 9334.992
1542.625, 9405.289
1543.656, 9431.654
1544.686, 9282.454
1545.716, 9359.945
1546.745, 9346.579
1547.775, 9329.499
1548.804, 9438.886
1549.834, 9315.220
1550.863, 9422.603
1551.892, 9437.749
1552.920, 9495.101
1553.949, 9461.052
1554.977, 9455.228
1556.006, 9540.851
1557.034, 9575.835
1558.062, 9531.254
1559.089, 9591.277
1560.117, 9464.397
1561.144, 9501.527
1562.172, 9609.434
1563.199, 9569.438
1564.226, 9631.134
1565.252, 9654.090
1566.279, 9501.049
1567.305, 9654.092
1568.332, 9571.000
1569.358, 9591.000
1570.384, 9530.000
1571.409, 9569.000
1572.435, 9593.000
##END=



