##NAMES=Ferberite
##RRUFFID=R050090
##IDEAL CHEMISTRY=Fe^2+^W^6+^O_4_
##LOCALITY=Yaogangxian mine, Cheng Zhu City, South Hunan, China
##OWNER=RRUFF
##SOURCE=Rock Currier
##DESCRIPTION=Dark gray tabular crystal
##STATUS=The identification of this mineral has been confirmed by X-ray diffraction and chemical analysis
##URL=rruff.info/R050090
##MEASURED CHEMISTRY=(Fe^2+^_0.56_Mn_0.44_)W_1.00_O_4_
##PIN_ID=L01753
##ORIENTATION=Laser parallel to a* (1 0 0). Fiducial mark perpendicular to laser is parallel to b [0 1 0]
98.41600, 8875.681
99.64900, 9209.000
100.8830, 8791.000
102.1160, 8700.000
103.3490, 8373.631
104.5820, 8598.370
105.8150, 8776.672
107.0470, 8910.934
108.2800, 8869.739
109.5120, 9055.140
110.7440, 9149.693
111.9760, 9240.521
113.2080, 9457.827
114.4400, 9442.070
115.6710, 9657.274
116.9030, 10288.00
118.1340, 10578.00
119.3650, 10536.00
120.5960, 10947.00
121.8270, 11563.00
123.0580, 12205.00
124.2880, 12970.00
125.5190, 13222.00
126.7490, 13120.00
127.9790, 12949.00
129.2090, 12825.00
130.4390, 12418.00
131.6680, 11576.00
132.8980, 10944.00
134.1270, 10124.00
135.3560, 9539.000
136.5850, 9421.000
137.8140, 9251.000
139.0430, 9120.000
140.2710, 9326.000
141.5000, 9036.000
142.7280, 8918.000
143.9560, 8738.000
145.1840, 8483.000
146.4120, 8522.000
147.6390, 8628.000
148.8670, 8618.000
150.0940, 8541.000
151.3210, 8637.000
152.5490, 8821.000
153.7750, 8926.000
155.0020, 8798.000
156.2290, 8716.000
157.4550, 8612.000
158.6810, 8584.802
159.9080, 8559.000
161.1340, 8580.000
162.3590, 8687.480
163.5850, 8581.000
164.8110, 8970.000
166.0360, 9142.000
167.2610, 9282.000
168.4860, 9294.000
169.7110, 9338.000
170.9360, 9236.000
172.1610, 9360.000
173.3850, 9166.000
174.6100, 9150.000
175.8340, 8971.000
177.0580, 9031.000
178.2820, 9072.000
179.5050, 8995.000
180.7290, 8996.000
181.9520, 9039.000
183.1760, 9100.000
184.3990, 9091.534
185.6220, 9191.000
186.8450, 9141.000
188.0670, 9143.000
189.2900, 9249.000
190.5120, 9357.000
191.7340, 9463.000
192.9560, 9595.857
194.1780, 9828.000
195.4000, 9906.000
196.6220, 10172.00
197.8430, 10420.00
199.0640, 10532.00
200.2860, 10728.00
201.5070, 11089.00
202.7270, 11378.00
203.9480, 11602.00
205.1690, 11320.00
206.3890, 10606.00
207.6090, 10103.00
208.8290, 9733.000
210.0490, 9489.000
211.2690, 9323.000
212.4890, 9215.000
213.7080, 9093.000
214.9280, 9058.000
216.1470, 8854.000
217.3660, 8637.000
218.5850, 8619.000
219.8030, 8588.000
221.0220, 8403.000
222.2400, 8329.000
223.4590, 8456.000
224.6770, 8470.000
225.8950, 8381.000
227.1120, 8579.000
228.3300, 8459.000
229.5480, 8212.000
230.7650, 8376.000
231.9820, 8496.000
233.1990, 8455.000
234.4160, 8530.076
235.6330, 8512.587
236.8490, 8493.000
238.0660, 8490.000
239.2820, 8413.000
240.4980, 8457.000
241.7140, 8424.000
242.9300, 8373.000
244.1460, 8382.000
245.3610, 8399.000
246.5770, 8549.000
247.7920, 8501.000
249.0070, 8590.000
250.2220, 8631.000
251.4370, 8596.000
252.6510, 8690.000
253.8660, 8790.000
255.0800, 8701.747
256.2940, 8837.540
257.5080, 8926.894
258.7220, 8972.306
259.9360, 8842.165
261.1490, 8938.690
262.3630, 8944.394
263.5760, 8946.346
264.7890, 9074.778
266.0020, 8970.147
267.2150, 9096.573
268.4270, 9187.000
269.6400, 9115.000
270.8520, 9144.000
272.0640, 9111.000
273.2760, 8937.000
274.4880, 8897.000
275.7000, 8876.986
276.9120, 8904.000
278.1230, 8849.000
279.3340, 8718.000
280.5450, 8624.000
281.7560, 8703.000
282.9670, 8655.000
284.1780, 8668.000
285.3880, 8670.000
286.5980, 8679.002
287.8090, 8699.000
289.0190, 8745.000
290.2290, 8765.127
291.4380, 8833.000
292.6480, 8839.000
293.8570, 8915.000
295.0670, 8923.000
296.2760, 8990.000
297.4850, 8913.000
298.6930, 8868.000
299.9020, 8908.000
301.1110, 8893.000
302.3190, 8919.000
303.5270, 8952.000
304.7350, 8981.000
305.9430, 8999.000
307.1510, 9050.448
308.3580, 9061.068
309.5660, 9175.000
310.7730, 9193.000
311.9800, 9310.000
313.1870, 9588.000
314.3940, 9783.000
315.6010, 9944.662
316.8070, 10088.00
318.0130, 10298.00
319.2200, 10365.00
320.4260, 10562.00
321.6310, 10666.00
322.8370, 10562.00
324.0430, 10685.00
325.2480, 10698.00
326.4540, 10717.00
327.6590, 10716.00
328.8640, 10717.00
330.0680, 10535.00
331.2730, 10304.00
332.4780, 10226.00
333.6820, 10010.00
334.8860, 9894.000
336.0900, 9712.000
337.2940, 9716.000
338.4980, 9619.000
339.7010, 9539.000
340.9050, 9546.000
342.1080, 9544.000
343.3110, 9468.000
344.5140, 9448.000
345.7170, 9425.000
346.9200, 9431.000
348.1220, 9375.000
349.3240, 9326.000
350.5270, 9252.000
351.7290, 9255.642
352.9310, 9240.000
354.1320, 9258.000
355.3340, 9253.000
356.5350, 9244.000
357.7370, 9223.000
358.9380, 9229.000
360.1390, 9106.000
361.3400, 9105.000
362.5400, 9020.000
363.7410, 9121.000
364.9410, 8968.000
366.1410, 9037.000
367.3410, 9141.000
368.5410, 9108.000
369.7410, 9017.000
370.9400, 8962.000
372.1400, 8959.000
373.3390, 8976.000
374.5380, 9029.000
375.7370, 8980.000
376.9360, 8959.000
378.1350, 9005.000
379.3330, 8988.126
380.5310, 8908.000
381.7300, 9039.000
382.9280, 9054.000
384.1260, 9112.000
385.3230, 8997.000
386.5210, 9164.000
387.7180, 9141.000
388.9160, 9178.000
390.1130, 9300.000
391.3100, 9392.000
392.5060, 9539.000
393.7030, 9574.000
394.9000, 9504.000
396.0960, 9673.000
397.2920, 9700.000
398.4880, 9502.000
399.6840, 9514.000
400.8800, 9381.000
402.0750, 9395.000
403.2710, 9324.000
404.4660, 9235.000
405.6610, 9238.000
406.8560, 9085.000
408.0510, 9093.017
409.2450, 9093.831
410.4400, 9100.000
411.6340, 9114.000
412.8280, 9097.001
414.0220, 9154.000
415.2160, 9058.000
416.4100, 9004.000
417.6030, 8963.000
418.7970, 9023.000
419.9900, 9135.000
421.1830, 9073.000
422.3760, 9122.000
423.5690, 9061.000
424.7610, 9042.000
425.9540, 9099.000
427.1460, 9185.000
428.3380, 9084.000
429.5300, 9108.000
430.7220, 9070.000
431.9140, 9234.000
433.1050, 9219.000
434.2970, 9233.000
435.4880, 9271.000
436.6790, 9237.000
437.8700, 9354.000
439.0610, 9288.000
440.2510, 9285.000
441.4420, 9116.000
442.6320, 9262.000
443.8220, 9253.000
445.0120, 9224.000
446.2020, 9375.000
447.3910, 9399.000
448.5810, 9363.000
449.7700, 9414.000
450.9600, 9447.000
452.1490, 9447.000
453.3370, 9361.000
454.5260, 9443.000
455.7150, 9341.000
456.9030, 9491.000
458.0910, 9330.000
459.2800, 9409.000
460.4670, 9463.000
461.6550, 9534.000
462.8430, 9547.000
464.0300, 9599.000
465.2180, 9514.000
466.4050, 9444.000
467.5920, 9431.000
468.7790, 9483.000
469.9650, 9461.000
471.1520, 9599.000
472.3380, 9564.000
473.5250, 9463.000
474.7110, 9583.000
475.8970, 9600.000
477.0820, 9628.000
478.2680, 9577.000
479.4540, 9644.000
480.6390, 9650.000
481.8240, 9590.000
483.0090, 9582.000
484.1940, 9640.000
485.3780, 9683.000
486.5630, 9713.000
487.7470, 9795.000
488.9320, 9672.000
490.1160, 9701.000
491.3000, 9781.000
492.4830, 9884.000
493.6670, 9993.000
494.8500, 9755.000
496.0340, 9897.000
497.2170, 9833.000
498.4000, 9963.000
499.5820, 10200.00
500.7650, 10187.00
501.9480, 10127.00
503.1300, 10260.00
504.3120, 10190.00
505.4940, 10388.00
506.6760, 10284.00
507.8580, 10205.00
509.0390, 10266.00
510.2210, 10148.00
511.4020, 10226.00
512.5830, 10157.00
513.7640, 10303.00
514.9450, 10182.00
516.1250, 10307.00
517.3060, 10228.00
518.4860, 10164.00
519.6660, 10206.00
520.8460, 10307.00
522.0260, 10105.00
523.2060, 10287.00
524.3850, 10319.00
525.5650, 10278.00
526.7440, 10378.00
527.9230, 10337.00
529.1020, 10419.00
530.2810, 10396.00
531.4590, 10450.00
532.6380, 10364.00
533.8160, 10320.00
534.9940, 10412.00
536.1720, 10399.05
537.3500, 10424.00
538.5270, 10425.00
539.7050, 10399.40
540.8820, 10393.87
542.0590, 10344.00
543.2360, 10321.00
544.4130, 10296.00
545.5900, 10207.00
546.7660, 10155.00
547.9430, 10126.00
549.1190, 10117.00
550.2950, 10330.00
551.4710, 10007.00
552.6470, 9933.000
553.8220, 9789.000
554.9980, 9990.000
556.1730, 9908.000
557.3480, 9856.000
558.5230, 9876.000
559.6980, 9764.000
560.8730, 9763.000
562.0470, 9737.000
563.2220, 9671.000
564.3960, 9710.000
565.5700, 9670.000
566.7440, 9763.000
567.9170, 9743.000
569.0910, 9686.000
570.2640, 9732.000
571.4380, 9867.000
572.6110, 9573.000
573.7840, 9777.000
574.9570, 9538.000
576.1290, 9610.000
577.3020, 9549.000
578.4740, 9511.000
579.6460, 9590.000
580.8180, 9628.000
581.9900, 9710.000
583.1620, 9662.000
584.3330, 9435.000
585.5040, 9649.000
586.6760, 9549.000
587.8470, 9660.000
589.0180, 9621.000
590.1880, 9548.000
591.3590, 9688.000
592.5290, 9606.000
593.7000, 9627.000
594.8700, 9710.000
596.0400, 9707.000
597.2090, 9771.000
598.3790, 9575.000
599.5490, 9703.000
600.7180, 9640.000
601.8870, 9637.000
603.0560, 9683.000
604.2250, 9772.000
605.3940, 9779.000
606.5620, 9820.000
607.7300, 9695.000
608.8990, 9785.341
610.0670, 9897.667
611.2350, 9963.555
612.4020, 9985.496
613.5700, 9831.888
614.7370, 9904.966
615.9050, 9887.202
617.0720, 9865.708
618.2390, 9970.691
619.4060, 9842.612
620.5720, 9945.585
621.7390, 9956.329
622.9050, 9911.000
624.0710, 9870.000
625.2370, 9906.000
626.4030, 9867.000
627.5690, 9886.000
628.7340, 9906.000
629.9000, 9872.000
631.0650, 9928.000
632.2300, 9977.000
633.3950, 9939.000
634.5600, 9998.045
635.7240, 9937.000
636.8890, 10067.00
638.0530, 10073.00
639.2170, 10143.00
640.3810, 10086.00
641.5450, 9976.000
642.7080, 10031.00
643.8720, 10034.42
645.0350, 10071.85
646.1980, 10130.00
647.3610, 10209.00
648.5240, 10201.00
649.6870, 10252.00
650.8490, 10302.00
652.0120, 10292.00
653.1740, 10288.00
654.3360, 10260.00
655.4980, 10407.00
656.6600, 10569.00
657.8210, 10698.00
658.9830, 10288.00
660.1440, 10437.00
661.3050, 10358.00
662.4660, 10573.00
663.6270, 10597.00
664.7870, 10541.00
665.9480, 10701.00
667.1080, 10684.00
668.2680, 10677.00
669.4280, 10714.00
670.5880, 10783.00
671.7480, 10938.00
672.9070, 10920.00
674.0670, 11171.00
675.2260, 11011.00
676.3850, 11047.00
677.5440, 11169.00
678.7030, 11066.00
679.8610, 11172.00
681.0200, 11298.00
682.1780, 11156.00
683.3360, 11355.00
684.4940, 11344.00
685.6520, 11510.00
686.8090, 11571.00
687.9670, 11482.00
689.1240, 11506.00
690.2810, 11622.00
691.4380, 11546.00
692.5950, 11676.00
693.7520, 11586.01
694.9080, 11487.00
696.0650, 11371.00
697.2210, 11355.00
698.3770, 11133.00
699.5330, 11250.00
700.6880, 11286.00
701.8440, 11063.00
702.9990, 11173.00
704.1550, 11042.00
705.3100, 10996.00
706.4650, 10857.00
707.6190, 10931.00
708.7740, 10774.00
709.9290, 10812.00
711.0830, 10689.00
712.2370, 10666.00
713.3910, 10698.00
714.5450, 10571.00
715.6980, 10741.00
716.8520, 10682.00
718.0050, 10591.00
719.1580, 10507.00
720.3110, 10592.00
721.4640, 10471.00
722.6170, 10517.00
723.7700, 10419.00
724.9220, 10459.00
726.0740, 10510.00
727.2260, 10452.00
728.3780, 10554.00
729.5300, 10554.00
730.6810, 10417.00
731.8330, 10512.00
732.9840, 10497.00
734.1350, 10405.00
735.2860, 10426.00
736.4370, 10502.00
737.5880, 10537.00
738.7380, 10393.00
739.8880, 10610.00
741.0390, 10737.00
742.1890, 10636.00
743.3380, 10549.00
744.4880, 10609.00
745.6380, 10745.00
746.7870, 10699.00
747.9360, 10814.00
749.0850, 10739.00
750.2340, 10782.00
751.3830, 10751.00
752.5310, 10928.00
753.6800, 10989.00
754.8280, 10981.00
755.9760, 11282.00
757.1240, 11103.00
758.2720, 11170.00
759.4190, 11117.00
760.5670, 11263.00
761.7140, 11253.00
762.8610, 11377.00
764.0080, 11436.00
765.1550, 11500.00
766.3020, 11476.00
767.4480, 11488.00
768.5950, 11718.00
769.7410, 11661.00
770.8870, 11595.00
772.0330, 11719.00
773.1780, 11547.00
774.3240, 11568.00
775.4690, 11500.00
776.6140, 11499.00
777.7590, 11481.00
778.9040, 11432.81
780.0490, 11432.93
781.1940, 11383.00
782.3380, 11420.00
783.4820, 11458.00
784.6260, 11490.00
785.7700, 11458.89
786.9140, 11401.22
788.0580, 11379.00
789.2010, 11305.00
790.3450, 11270.00
791.4880, 11425.00
792.6310, 11453.00
793.7730, 11381.00
794.9160, 11390.00
796.0590, 11338.00
797.2010, 11335.00
798.3430, 11266.00
799.4850, 11292.17
800.6270, 11270.08
801.7690, 11353.00
802.9100, 11263.00
804.0520, 11321.00
805.1930, 11320.00
806.3340, 11501.00
807.4750, 11477.36
808.6160, 11513.20
809.7560, 11535.00
810.8970, 11538.00
812.0370, 11598.00
813.1770, 11658.00
814.3170, 11526.00
815.4570, 11559.00
816.5960, 11496.00
817.7360, 11615.00
818.8750, 11668.00
820.0140, 11774.00
821.1530, 11742.00
822.2920, 11761.00
823.4310, 11869.00
824.5690, 11846.00
825.7070, 11915.00
826.8460, 11808.00
827.9840, 11968.00
829.1220, 11688.00
830.2590, 11903.00
831.3970, 11856.00
832.5340, 12029.00
833.6710, 12104.00
834.8080, 12000.00
835.9450, 12236.00
837.0820, 12246.00
838.2190, 12393.00
839.3550, 12550.00
840.4910, 12565.00
841.6270, 12705.30
842.7630, 12750.00
843.8990, 12881.00
845.0350, 12958.00
846.1700, 13040.00
847.3060, 13134.00
848.4410, 13323.35
849.5760, 13567.00
850.7100, 13765.00
851.8450, 13924.00
852.9800, 14191.00
854.1140, 14395.00
855.2480, 14693.00
856.3820, 14944.00
857.5160, 15416.00
858.6500, 15916.00
859.7830, 16308.00
860.9170, 16875.00
862.0500, 17634.00
863.1830, 18127.00
864.3160, 18952.00
865.4480, 19697.00
866.5810, 20688.00
867.7130, 22069.00
868.8460, 23405.00
869.9780, 24830.00
871.1100, 26327.00
872.2410, 27810.00
873.3730, 29571.00
874.5050, 31338.00
875.6360, 33329.00
876.7670, 33951.00
877.8980, 34348.00
879.0290, 34574.00
880.1590, 33933.00
881.2900, 33099.00
882.4200, 32006.00
883.5500, 30389.00
884.6800, 28705.00
885.8100, 26942.00
886.9400, 25159.00
888.0690, 23439.00
889.1990, 21881.00
890.3280, 20353.00
891.4570, 19254.00
892.5860, 18145.00
893.7140, 17134.00
894.8430, 16408.81
895.9710, 15971.00
897.1000, 15247.00
898.2280, 14770.00
899.3560, 14472.00
900.4830, 14113.00
901.6110, 13969.00
902.7380, 13680.00
903.8660, 13331.00
904.9930, 13228.00
906.1200, 13039.92
907.2460, 12966.00
908.3730, 12838.00
909.5000, 12638.00
910.6260, 12510.00
911.7520, 12502.00
912.8780, 12487.00
914.0040, 12487.00
915.1290, 12278.00
916.2550, 12259.00
917.3800, 12177.00
918.5050, 12250.00
919.6300, 12268.00
920.7550, 12191.00
921.8800, 12004.00
923.0040, 11905.00
924.1290, 11912.00
925.2530, 11797.00
926.3770, 11841.00
927.5010, 11849.00
928.6250, 11847.00
929.7480, 11923.00
930.8720, 11839.00
931.9950, 11649.00
933.1180, 11906.00
934.2410, 11900.00
935.3640, 11566.00
936.4860, 11704.00
937.6090, 11698.00
938.7310, 11828.00
939.8530, 11682.00
940.9750, 11680.00
942.0970, 11738.00
943.2180, 11790.00
944.3400, 11637.00
945.4610, 11707.00
946.5820, 11609.00
947.7030, 11579.00
948.8240, 11717.00
949.9450, 11646.00
951.0650, 11588.00
952.1860, 11689.00
953.3060, 11608.00
954.4260, 11663.00
955.5460, 11709.00
956.6650, 11729.00
957.7850, 11629.00
958.9040, 11612.00
960.0230, 11619.00
961.1420, 11635.00
962.2610, 11654.00
963.3800, 11519.00
964.4990, 11638.00
965.6170, 11666.00
966.7350, 11552.00
967.8530, 11681.00
968.9710, 11685.00
970.0890, 11707.00
971.2070, 11685.00
972.3240, 11717.00
973.4410, 11680.65
974.5580, 11661.00
975.6750, 11638.00
976.7920, 11581.00
977.9090, 11607.00
979.0250, 11609.57
980.1410, 11763.00
981.2580, 11650.00
982.3740, 11757.00
983.4890, 11744.00
984.6050, 11763.00
985.7200, 11749.23
986.8360, 11716.46
987.9510, 11670.00
989.0660, 11679.00
990.1810, 11654.00
991.2950, 11731.00
992.4100, 11859.00
993.5240, 11856.70
994.6390, 11921.00
995.7530, 11893.00
996.8660, 11824.00
997.9800, 11737.00
999.0940, 11903.00
1000.207, 11855.00
1001.320, 11771.00
1002.433, 11850.00
1003.546, 11819.00
1004.659, 11788.00
1005.772, 11890.00
1006.884, 11727.00
1007.996, 11776.00
1009.108, 11907.00
1010.220, 11801.00
1011.332, 11929.00
1012.444, 11837.00
1013.555, 11976.00
1014.666, 11872.00
1015.777, 11762.00
1016.888, 11942.00
1017.999, 11886.00
1019.110, 11989.00
1020.220, 11925.00
1021.331, 12025.00
1022.441, 12131.00
1023.551, 12191.00
1024.661, 12184.75
1025.770, 12225.00
1026.880, 12089.00
1027.989, 12077.00
1029.098, 11978.00
1030.207, 11953.00
1031.316, 11976.00
1032.425, 12007.00
1033.533, 12010.00
1034.642, 12027.00
1035.750, 12095.00
1036.858, 12242.00
1037.966, 12205.00
1039.073, 12221.00
1040.181, 12246.00
1041.288, 12120.00
1042.396, 12254.00
1043.503, 12098.00
1044.610, 12113.00
1045.716, 12206.00
1046.823, 12234.00
1047.929, 12350.00
1049.036, 12341.00
1050.142, 12284.00
1051.248, 12400.00
1052.353, 12343.00
1053.459, 12231.00
1054.564, 12361.00
1055.670, 12244.00
1056.775, 12310.00
1057.880, 12274.00
1058.985, 12407.00
1060.089, 12311.00
1061.194, 12465.00
1062.298, 12406.00
1063.402, 12570.00
1064.506, 12501.00
1065.610, 12428.00
1066.713, 12475.00
1067.817, 12494.00
1068.920, 12449.00
1070.023, 12557.00
1071.126, 12514.00
1072.229, 12782.00
1073.332, 12688.00
1074.435, 12689.00
1075.537, 12596.00
1076.639, 12563.00
1077.741, 12730.00
1078.843, 12577.00
1079.945, 12603.00
1081.046, 12725.00
1082.148, 12576.04
1083.249, 12736.00
1084.350, 12505.00
1085.451, 12590.00
1086.551, 12741.00
1087.652, 12669.00
1088.752, 12627.00
1089.853, 12596.00
1090.953, 12594.82
1092.053, 12669.00
1093.152, 12624.00
1094.252, 12669.00
1095.351, 12671.00
1096.451, 12559.00
1097.550, 12653.00
1098.649, 12621.68
1099.748, 12583.00
1100.846, 12683.00
1101.945, 12657.00
1103.043, 12742.00
1104.141, 12762.79
1105.239, 12667.00
1106.337, 12803.00
1107.434, 12749.00
1108.532, 12738.00
1109.629, 12777.00
1110.726, 12704.00
1111.823, 12819.00
1112.920, 12680.00
1114.017, 12761.00
1115.113, 12791.00
1116.210, 12976.00
1117.306, 13016.00
1118.402, 12890.00
1119.498, 13097.00
1120.593, 13038.22
1121.689, 13012.00
1122.784, 13018.00
1123.879, 13129.00
1124.974, 13008.00
1126.069, 13161.00
1127.164, 13144.00
1128.259, 13125.00
1129.353, 13207.00
1130.447, 13190.00
1131.541, 13071.00
1132.635, 13153.00
1133.729, 13037.00
1134.822, 13131.00
1135.916, 13006.00
1137.009, 13113.00
1138.102, 13031.00
1139.195, 13163.00
1140.288, 13136.00
1141.380, 13020.00
1142.473, 13253.00
1143.565, 13067.00
1144.657, 13132.00
1145.749, 13322.00
1146.841, 13246.00
1147.932, 13316.00
1149.024, 13161.00
1150.115, 13131.00
1151.206, 13265.00
1152.297, 13169.00
1153.388, 13153.00
1154.479, 13218.00
1155.569, 13179.18
1156.659, 13284.00
1157.750, 13245.00
1158.839, 13321.00
1159.929, 13436.00
1161.019, 13404.00
1162.108, 13420.00
1163.198, 13424.55
1164.287, 13353.00
1165.376, 13385.00
1166.465, 13351.00
1167.553, 13340.00
1168.642, 13448.00
1169.730, 13414.00
1170.818, 13472.00
1171.906, 13609.00
1172.994, 13604.00
1174.082, 13481.00
1175.170, 13476.00
1176.257, 13592.00
1177.344, 13428.00
1178.431, 13532.00
1179.518, 13489.00
1180.605, 13523.00
1181.691, 13624.00
1182.778, 13570.00
1183.864, 13670.00
1184.950, 13817.00
1186.036, 13675.00
1187.122, 13540.00
1188.207, 13781.00
1189.292, 13652.00
1190.378, 13796.00
1191.463, 13603.00
1192.548, 13728.00
1193.632, 13737.00
1194.717, 13823.00
1195.801, 13798.00
1196.886, 13797.00
1197.970, 13932.00
1199.054, 13970.00
1200.137, 13821.00
1201.221, 13772.00
1202.305, 13888.00
1203.388, 13765.00
1204.471, 13879.00
1205.554, 13866.00
1206.637, 13937.00
1207.719, 13958.33
1208.802, 14017.00
1209.884, 13981.00
1210.966, 14066.00
1212.048, 14070.00
1213.130, 14039.00
1214.212, 14047.17
1215.293, 14017.93
1216.374, 14023.00
1217.456, 13980.00
1218.536, 14049.00
1219.617, 14069.00
1220.698, 14168.00
1221.778, 14266.00
1222.859, 14401.00
1223.939, 14320.00
1225.019, 14330.00
1226.099, 14234.00
1227.178, 14318.00
1228.258, 14385.00
1229.337, 14173.00
1230.417, 14264.00
1231.496, 14239.00
1232.574, 14362.00
1233.653, 14450.00
1234.732, 14385.00
1235.810, 14534.00
1236.888, 14497.00
1237.966, 14536.00
1239.044, 14479.00
1240.122, 14488.46
1241.199, 14482.80
1242.277, 14496.00
1243.354, 14467.00
1244.431, 14504.00
1245.508, 14494.00
1246.585, 14599.00
1247.661, 14659.00
1248.738, 14706.00
1249.814, 14669.00
1250.890, 14686.31
1251.966, 14679.00
1253.042, 14593.00
1254.117, 14593.00
1255.193, 14442.00
1256.268, 14585.00
1257.343, 14464.00
1258.418, 14475.00
1259.493, 14611.00
1260.567, 14630.00
1261.642, 14766.00
1262.716, 14889.85
1263.790, 14964.35
1264.864, 15131.00
1265.938, 15079.00
1267.011, 15094.00
1268.085, 14956.00
1269.158, 15103.00
1270.231, 14947.00
1271.304, 14903.00
1272.377, 15089.00
1273.450, 14997.00
1274.522, 15110.00
1275.594, 15280.00
1276.666, 15214.00
1277.738, 15176.00
1278.810, 15280.00
1279.882, 15378.00
1280.953, 15220.00
1282.025, 15317.00
1283.096, 15220.00
1284.167, 15320.00
1285.238, 15334.00
1286.308, 15408.00
1287.379, 15474.86
1288.449, 15618.00
1289.519, 15607.00
1290.589, 15619.00
1291.659, 15676.00
1292.729, 15571.00
1293.798, 15696.00
1294.868, 15731.00
1295.937, 15666.00
1297.006, 15589.00
1298.075, 15543.00
1299.143, 15595.67
1300.212, 15795.00
1301.280, 15751.00
1302.348, 15858.00
1303.416, 15943.00
1304.484, 15874.00
1305.552, 15922.00
1306.620, 16129.00
1307.687, 15784.00
1308.754, 16021.00
1309.821, 15837.00
1310.888, 15872.00
1311.955, 16094.00
1313.021, 16044.00
1314.088, 15928.00
1315.154, 16067.00
1316.220, 16110.00
1317.286, 16157.00
1318.352, 16178.00
1319.417, 16237.00
1320.483, 16271.00
1321.548, 16176.00
1322.613, 16201.00
1323.678, 16293.00
1324.743, 16097.00
1325.807, 16032.00
1326.872, 16172.00
1327.936, 16394.00
1329.000, 16576.00
1330.064, 16568.14
1331.128, 16626.00
1332.191, 16496.00
1333.255, 16602.00
1334.318, 16527.00
1335.381, 16509.00
1336.444, 16355.00
1337.507, 16381.00
1338.569, 16635.00
1339.632, 16494.00
1340.694, 16550.00
1341.756, 16735.00
1342.818, 16560.00
1343.880, 16607.00
1344.941, 16767.00
1346.003, 16724.00
1347.064, 16621.00
1348.125, 16572.00
1349.186, 16637.00
1350.247, 16672.00
1351.308, 16676.00
1352.368, 16766.87
1353.428, 16703.00
1354.489, 16881.00
1355.549, 16875.00
1356.608, 16842.00
1357.668, 16841.00
1358.727, 16863.67
1359.787, 16729.00
1360.846, 16901.00
1361.905, 16920.00
1362.964, 16878.00
1364.022, 16749.00
1365.081, 16683.00
1366.139, 16912.00
1367.197, 16910.00
1368.255, 16930.00
1369.313, 17036.00
1370.371, 16930.00
1371.428, 16966.00
1372.486, 16998.00
1373.543, 16961.93
1374.600, 16973.00
1375.657, 16910.00
1376.713, 16958.00
1377.770, 16822.00
1378.826, 16770.00
1379.882, 16960.00
1380.938, 17120.00
1381.994, 16912.00
1383.050, 17201.00
1384.106, 17017.00
1385.161, 17032.00
1386.216, 17085.00
1387.271, 17086.00
1388.326, 17084.00
1389.381, 16996.00
1390.435, 17032.00
1391.490, 16898.00
1392.544, 17006.00
1393.598, 17010.00
1394.652, 16967.00
1395.705, 17032.00
1396.759, 17053.00
1397.812, 17085.00
1398.866, 16875.00
1399.919, 17117.00
1400.972, 16972.00
1402.024, 16832.00
1403.077, 17198.00
1404.129, 16829.00
1405.181, 16975.00
1406.233, 16974.00
1407.285, 17119.00
1408.337, 17079.00
1409.389, 16946.00
1410.440, 17155.00
1411.491, 17112.00
1412.542, 16863.00
1413.593, 17162.00
1414.644, 16984.00
1415.695, 16989.00
1416.745, 17003.00
1417.795, 17043.00
1418.845, 16985.00
1419.895, 16934.00
1420.945, 17023.00
1421.995, 17093.00
1423.044, 17048.00
1424.093, 17143.00
1425.142, 17130.00
1426.191, 17129.00
1427.240, 17211.00
1428.289, 17060.00
1429.337, 17047.00
1430.385, 17116.00
1431.433, 16973.00
1432.481, 17069.00
1433.529, 17103.00
1434.577, 17165.00
1435.624, 17152.00
1436.672, 17288.00
1437.719, 17078.00
1438.766, 17214.00
1439.812, 17347.00
1440.859, 17212.00
1441.905, 17177.00
1442.952, 16986.00
1443.998, 16965.00
1445.044, 16956.84
1446.090, 16961.00
1447.135, 17018.00
1448.181, 17119.00
1449.226, 17176.00
1450.271, 17267.00
1451.316, 17267.54
1452.361, 17328.00
1453.405, 17230.00
1454.450, 17126.00
1455.494, 17056.00
1456.538, 17239.00
1457.582, 17163.00
1458.626, 17204.00
1459.670, 17336.00
1460.713, 17306.00
1461.757, 17213.00
1462.800, 17351.00
1463.843, 17343.00
1464.886, 17357.00
1465.928, 17377.00
1466.971, 17526.25
1468.013, 17479.00
1469.055, 17448.89
1470.097, 17273.00
1471.139, 17260.00
1472.181, 17366.00
1473.222, 17236.00
1474.263, 17322.00
1475.305, 17404.00
1476.346, 17404.00
1477.386, 17483.00
1478.427, 17587.00
1479.468, 17716.00
1480.508, 17550.00
1481.548, 17482.00
1482.588, 17515.00
1483.628, 17425.00
1484.668, 17599.00
1485.707, 17323.00
1486.747, 17283.00
1487.786, 17480.00
1488.825, 17626.00
1489.864, 17853.00
1490.902, 17727.00
1491.941, 17812.00
1492.979, 17835.00
1494.017, 17760.00
1495.055, 17911.00
1496.093, 17790.00
1497.131, 17835.00
1498.168, 17978.00
1499.206, 17838.00
1500.243, 17859.00
1501.280, 17866.00
1502.317, 17991.00
1503.354, 18015.00
1504.390, 18128.00
1505.426, 18037.00
1506.463, 17923.00
1507.499, 18065.00
1508.535, 18079.00
1509.570, 18105.00
1510.606, 18117.00
1511.641, 18041.00
1512.676, 18174.00
1513.711, 18292.00
1514.746, 18317.00
1515.781, 18189.00
1516.816, 18566.00
1517.850, 18515.00
1518.884, 18398.00
1519.918, 18595.00
1520.952, 18534.00
1521.986, 18299.00
1523.019, 18568.00
1524.053, 18411.00
1525.086, 18371.00
1526.119, 18637.00
1527.152, 18643.00
1528.185, 18621.00
1529.217, 18802.00
1530.250, 18875.00
1531.282, 19025.00
1532.314, 18851.00
1533.346, 19011.00
1534.377, 19057.00
1535.409, 18823.00
1536.440, 18865.00
1537.472, 18861.00
1538.503, 18802.00
1539.534, 19024.00
1540.564, 18818.00
1541.595, 18968.00
1542.625, 19306.00
1543.656, 19441.00
1544.686, 19188.00
1545.716, 19379.00
1546.745, 19362.00
1547.775, 19645.00
1548.804, 19468.89
1549.834, 19851.00
1550.863, 19242.00
1551.892, 19530.00
1552.920, 19630.00
1553.949, 19729.00
1554.977, 19824.41
1556.006, 19816.53
1557.034, 19855.00
1558.062, 19785.00
1559.089, 19721.00
1560.117, 19733.00
1561.144, 19538.00
1562.172, 19546.55
1563.199, 19713.00
1564.226, 19461.00
1565.252, 19551.00
1566.279, 19521.00
1567.305, 19866.00
1568.332, 19942.00
1569.358, 19904.00
1570.384, 20088.00
1571.409, 19969.00
1572.435, 20073.00
##END=



