##NAMES=Ferberite
##RRUFFID=R050090
##IDEAL CHEMISTRY=Fe^2+^W^6+^O_4_
##LOCALITY=Yaogangxian mine, Cheng Zhu City, South Hunan, China
##OWNER=RRUFF
##SOURCE=Rock Currier
##DESCRIPTION=Dark gray tabular crystal
##STATUS=The identification of this mineral has been confirmed by X-ray diffraction and chemical analysis
##URL=rruff.info/R050090
##MEASURED CHEMISTRY=(Fe^2+^_0.56_Mn_0.44_)W_1.00_O_4_
##PIN_ID=L01304
##ORIENTATION=Laser parallel to -b* (0 -1 0). Fiducial mark perpendicular to laser is parallel to c [0 0 1]
98.41600, 18511.00
99.64900, 18362.00
100.8830, 18651.00
102.1160, 18465.00
103.3490, 18426.00
104.5820, 18908.00
105.8150, 19313.00
107.0470, 19596.00
108.2800, 19932.82
109.5120, 20227.47
110.7440, 20381.72
111.9760, 20492.00
113.2080, 20563.00
114.4400, 21037.00
115.6710, 21658.00
116.9030, 21933.00
118.1340, 21902.00
119.3650, 22033.00
120.5960, 21824.00
121.8270, 21495.00
123.0580, 21930.00
124.2880, 22518.00
125.5190, 23503.00
126.7490, 23198.00
127.9790, 22643.00
129.2090, 21789.00
130.4390, 21329.00
131.6680, 20376.00
132.8980, 19808.00
134.1270, 18992.00
135.3560, 18680.00
136.5850, 18688.00
137.8140, 18704.00
139.0430, 18551.00
140.2710, 18499.00
141.5000, 18373.00
142.7280, 18096.00
143.9560, 17819.00
145.1840, 17786.00
146.4120, 17721.00
147.6390, 17865.00
148.8670, 17713.67
150.0940, 17779.33
151.3210, 17540.00
152.5490, 17793.00
153.7750, 17773.00
155.0020, 17737.00
156.2290, 17605.00
157.4550, 17640.00
158.6810, 17514.00
159.9080, 17557.00
161.1340, 17552.00
162.3590, 17807.00
163.5850, 17760.74
164.8110, 18292.00
166.0360, 17819.00
167.2610, 17696.00
168.4860, 17714.00
169.7110, 18069.00
170.9360, 18151.00
172.1610, 18111.00
173.3850, 17970.00
174.6100, 17845.00
175.8340, 18028.00
177.0580, 18006.00
178.2820, 17906.00
179.5050, 17953.00
180.7290, 17990.54
181.9520, 18109.00
183.1760, 18177.00
184.3990, 18278.00
185.6220, 18415.00
186.8450, 18222.00
188.0670, 18398.00
189.2900, 18639.00
190.5120, 18663.00
191.7340, 19042.00
192.9560, 19290.00
194.1780, 19394.00
195.4000, 19726.00
196.6220, 20277.00
197.8430, 20998.00
199.0640, 21347.00
200.2860, 21598.00
201.5070, 22640.00
202.7270, 23046.00
203.9480, 22870.00
205.1690, 22649.00
206.3890, 21744.00
207.6090, 21203.00
208.8290, 20647.00
210.0490, 20129.00
211.2690, 19733.00
212.4890, 19330.76
213.7080, 19018.00
214.9280, 18756.00
216.1470, 18567.00
217.3660, 18473.00
218.5850, 18248.00
219.8030, 18133.78
221.0220, 17822.00
222.2400, 17877.00
223.4590, 17733.00
224.6770, 17626.00
225.8950, 17790.00
227.1120, 17710.00
228.3300, 17584.00
229.5480, 17562.00
230.7650, 17571.00
231.9820, 17596.00
233.1990, 17629.00
234.4160, 17659.00
235.6330, 17676.00
236.8490, 17730.00
238.0660, 17729.00
239.2820, 17616.00
240.4980, 17811.00
241.7140, 17787.00
242.9300, 17670.00
244.1460, 17456.00
245.3610, 17628.00
246.5770, 17678.00
247.7920, 17851.00
249.0070, 17753.00
250.2220, 18102.00
251.4370, 18028.00
252.6510, 17924.00
253.8660, 18101.00
255.0800, 18436.00
256.2940, 18343.00
257.5080, 18225.76
258.7220, 18325.02
259.9360, 18377.84
261.1490, 18386.72
262.3630, 18220.05
263.5760, 18280.07
264.7890, 18190.00
266.0020, 18205.00
267.2150, 18069.00
268.4270, 17939.00
269.6400, 17948.00
270.8520, 18041.00
272.0640, 17870.00
273.2760, 17749.00
274.4880, 17645.00
275.7000, 17834.00
276.9120, 17958.00
278.1230, 17883.00
279.3340, 17833.00
280.5450, 17924.00
281.7560, 17858.00
282.9670, 17813.00
284.1780, 17957.00
285.3880, 17882.00
286.5980, 17849.00
287.8090, 17992.00
289.0190, 18096.00
290.2290, 18014.00
291.4380, 18188.00
292.6480, 18230.00
293.8570, 18359.00
295.0670, 18370.00
296.2760, 18460.00
297.4850, 18565.00
298.6930, 18540.00
299.9020, 18683.00
301.1110, 18714.00
302.3190, 18873.00
303.5270, 18963.00
304.7350, 19191.00
305.9430, 19601.00
307.1510, 19792.00
308.3580, 20149.00
309.5660, 20461.00
310.7730, 20879.00
311.9800, 21353.00
313.1870, 21909.00
314.3940, 22596.00
315.6010, 23344.00
316.8070, 24215.00
318.0130, 25320.00
319.2200, 26137.00
320.4260, 26808.00
321.6310, 27555.00
322.8370, 27950.00
324.0430, 27979.00
325.2480, 27961.00
326.4540, 27743.00
327.6590, 26949.00
328.8640, 26390.00
330.0680, 25883.00
331.2730, 25207.00
332.4780, 24557.00
333.6820, 23829.00
334.8860, 23204.00
336.0900, 22734.00
337.2940, 22232.00
338.4980, 21722.00
339.7010, 21290.00
340.9050, 21014.00
342.1080, 20517.00
343.3110, 20620.00
344.5140, 20126.00
345.7170, 20193.00
346.9200, 19881.00
348.1220, 19971.00
349.3240, 19587.00
350.5270, 19498.00
351.7290, 19606.00
352.9310, 19460.00
354.1320, 19417.00
355.3340, 19251.00
356.5350, 18952.00
357.7370, 19116.00
358.9380, 19100.00
360.1390, 18856.00
361.3400, 18876.00
362.5400, 18916.00
363.7410, 18882.00
364.9410, 18984.00
366.1410, 18662.00
367.3410, 18645.00
368.5410, 18699.00
369.7410, 18749.00
370.9400, 18714.00
372.1400, 18644.00
373.3390, 18809.00
374.5380, 18635.00
375.7370, 18620.00
376.9360, 18499.00
378.1350, 18549.00
379.3330, 18660.00
380.5310, 18538.00
381.7300, 18581.00
382.9280, 18557.00
384.1260, 18617.00
385.3230, 18647.00
386.5210, 18688.00
387.7180, 18668.00
388.9160, 18768.40
390.1130, 18936.00
391.3100, 18847.00
392.5060, 19169.00
393.7030, 19015.00
394.9000, 19030.00
396.0960, 19010.00
397.2920, 19138.00
398.4880, 19031.00
399.6840, 18964.00
400.8800, 19061.00
402.0750, 18844.00
403.2710, 19038.00
404.4660, 18851.00
405.6610, 19033.00
406.8560, 18958.00
408.0510, 18925.00
409.2450, 18758.00
410.4400, 18617.00
411.6340, 18721.00
412.8280, 18757.00
414.0220, 18850.00
415.2160, 18688.00
416.4100, 18734.00
417.6030, 18820.00
418.7970, 18746.00
419.9900, 18844.00
421.1830, 18800.00
422.3760, 18809.00
423.5690, 18875.00
424.7610, 18824.00
425.9540, 18875.00
427.1460, 18787.00
428.3380, 18929.00
429.5300, 18928.00
430.7220, 18925.00
431.9140, 18833.00
433.1050, 18997.00
434.2970, 19093.00
435.4880, 18963.00
436.6790, 19034.00
437.8700, 19206.00
439.0610, 19132.00
440.2510, 19184.00
441.4420, 19242.00
442.6320, 19081.00
443.8220, 19250.00
445.0120, 19293.00
446.2020, 19261.00
447.3910, 19240.00
448.5810, 19216.00
449.7700, 19206.00
450.9600, 19264.00
452.1490, 19258.00
453.3370, 19249.96
454.5260, 19156.00
455.7150, 19205.00
456.9030, 19202.00
458.0910, 19159.00
459.2800, 19191.00
460.4670, 19380.00
461.6550, 19384.00
462.8430, 19384.00
464.0300, 19285.00
465.2180, 19316.08
466.4050, 19273.00
467.5920, 19301.00
468.7790, 19194.00
469.9650, 19158.00
471.1520, 19353.00
472.3380, 19291.00
473.5250, 19363.00
474.7110, 19275.00
475.8970, 19401.00
477.0820, 19408.00
478.2680, 19368.00
479.4540, 19359.00
480.6390, 19346.00
481.8240, 19397.00
483.0090, 19424.00
484.1940, 19442.00
485.3780, 19391.00
486.5630, 19514.00
487.7470, 19483.00
488.9320, 19536.00
490.1160, 19395.00
491.3000, 19425.00
492.4830, 19474.00
493.6670, 19482.00
494.8500, 19506.00
496.0340, 19499.12
497.2170, 19508.00
498.4000, 19484.00
499.5820, 19577.00
500.7650, 19617.00
501.9480, 19572.00
503.1300, 19548.00
504.3120, 19774.00
505.4940, 19652.00
506.6760, 19718.00
507.8580, 19840.00
509.0390, 19822.00
510.2210, 19699.00
511.4020, 19717.00
512.5830, 19767.00
513.7640, 19741.91
514.9450, 19803.57
516.1250, 19798.00
517.3060, 19910.00
518.4860, 19944.00
519.6660, 20027.00
520.8460, 20076.00
522.0260, 20070.00
523.2060, 20192.00
524.3850, 20062.00
525.5650, 20311.00
526.7440, 20451.00
527.9230, 20300.00
529.1020, 20234.00
530.2810, 20264.00
531.4590, 20342.00
532.6380, 20349.43
533.8160, 20518.00
534.9940, 20463.00
536.1720, 20574.00
537.3500, 20646.00
538.5270, 20482.00
539.7050, 20744.00
540.8820, 20744.00
542.0590, 20646.00
543.2360, 20661.84
544.4130, 20585.08
545.5900, 20439.00
546.7660, 20472.00
547.9430, 20348.00
549.1190, 20321.00
550.2950, 20173.00
551.4710, 20143.00
552.6470, 20272.00
553.8220, 20218.00
554.9980, 20298.00
556.1730, 20173.00
557.3480, 20192.74
558.5230, 20183.00
559.6980, 20129.00
560.8730, 20130.00
562.0470, 20045.00
563.2220, 20118.00
564.3960, 20087.00
565.5700, 20153.00
566.7440, 20202.00
567.9170, 20103.00
569.0910, 20135.02
570.2640, 20099.00
571.4380, 20018.00
572.6110, 20038.00
573.7840, 19864.00
574.9570, 19880.00
576.1290, 20047.00
577.3020, 19891.00
578.4740, 20019.00
579.6460, 19747.00
580.8180, 19779.00
581.9900, 19869.00
583.1620, 19687.00
584.3330, 19571.00
585.5040, 19521.00
586.6760, 19594.00
587.8470, 19554.00
589.0180, 19733.00
590.1880, 19541.00
591.3590, 19830.00
592.5290, 19648.00
593.7000, 19563.00
594.8700, 19731.00
596.0400, 19822.00
597.2090, 19560.00
598.3790, 19788.00
599.5490, 19779.00
600.7180, 19605.00
601.8870, 19700.00
603.0560, 19826.00
604.2250, 19762.00
605.3940, 19729.00
606.5620, 19791.00
607.7300, 19793.00
608.8990, 19809.99
610.0670, 19665.00
611.2350, 19814.00
612.4020, 19768.00
613.5700, 19684.00
614.7370, 20157.00
615.9050, 19947.46
617.0720, 19995.00
618.2390, 19941.00
619.4060, 19780.00
620.5720, 19889.00
621.7390, 19876.00
622.9050, 19971.00
624.0710, 19934.00
625.2370, 19892.00
626.4030, 19907.00
627.5690, 19970.00
628.7340, 19880.00
629.9000, 19994.00
631.0650, 19916.00
632.2300, 19992.00
633.3950, 19985.00
634.5600, 19897.00
635.7240, 19852.00
636.8890, 19911.00
638.0530, 19941.00
639.2170, 19946.82
640.3810, 20060.00
641.5450, 20014.00
642.7080, 19992.00
643.8720, 20067.00
645.0350, 19991.00
646.1980, 20093.00
647.3610, 20052.00
648.5240, 19946.00
649.6870, 20124.00
650.8490, 20288.00
652.0120, 20136.00
653.1740, 20020.00
654.3360, 20152.00
655.4980, 20208.00
656.6600, 20405.00
657.8210, 20136.00
658.9830, 19987.00
660.1440, 20267.00
661.3050, 20318.00
662.4660, 20462.00
663.6270, 20508.00
664.7870, 20487.00
665.9480, 20538.00
667.1080, 20635.00
668.2680, 20563.00
669.4280, 20717.00
670.5880, 20806.00
671.7480, 20942.00
672.9070, 20756.00
674.0670, 20832.00
675.2260, 21001.00
676.3850, 21129.00
677.5440, 21274.00
678.7030, 21518.00
679.8610, 21651.00
681.0200, 22032.00
682.1780, 22209.00
683.3360, 22298.00
684.4940, 22333.00
685.6520, 22515.00
686.8090, 22763.00
687.9670, 22860.00
689.1240, 23197.00
690.2810, 23422.00
691.4380, 23460.00
692.5950, 23725.00
693.7520, 23488.00
694.9080, 23650.00
696.0650, 23678.00
697.2210, 23374.00
698.3770, 23568.00
699.5330, 23314.00
700.6880, 23092.00
701.8440, 22926.00
702.9990, 22710.00
704.1550, 22639.00
705.3100, 22426.00
706.4650, 22134.00
707.6190, 22112.00
708.7740, 21806.00
709.9290, 21666.00
711.0830, 21578.00
712.2370, 21782.00
713.3910, 21145.00
714.5450, 21060.00
715.6980, 21206.00
716.8520, 20937.00
718.0050, 21012.00
719.1580, 20833.00
720.3110, 20761.00
721.4640, 20686.00
722.6170, 20777.00
723.7700, 20669.00
724.9220, 20563.00
726.0740, 20627.00
727.2260, 20517.00
728.3780, 20602.00
729.5300, 20524.00
730.6810, 20375.00
731.8330, 20454.00
732.9840, 20544.00
734.1350, 20447.00
735.2860, 20579.00
736.4370, 20314.00
737.5880, 20607.00
738.7380, 20402.00
739.8880, 20416.00
741.0390, 20335.00
742.1890, 20470.00
743.3380, 20421.00
744.4880, 20359.00
745.6380, 20305.00
746.7870, 20427.00
747.9360, 20349.00
749.0850, 20492.00
750.2340, 20493.00
751.3830, 20370.00
752.5310, 20537.00
753.6800, 20506.00
754.8280, 20395.00
755.9760, 20344.00
757.1240, 20538.00
758.2720, 20484.00
759.4190, 20572.00
760.5670, 20497.00
761.7140, 20478.00
762.8610, 20658.00
764.0080, 20672.00
765.1550, 20395.00
766.3020, 20590.00
767.4480, 20565.00
768.5950, 20693.00
769.7410, 20675.00
770.8870, 20577.00
772.0330, 20704.00
773.1780, 20557.00
774.3240, 20565.00
775.4690, 20650.00
776.6140, 20611.00
777.7590, 20575.00
778.9040, 20669.00
780.0490, 20690.30
781.1940, 20653.00
782.3380, 20826.00
783.4820, 20657.00
784.6260, 20662.00
785.7700, 20728.36
786.9140, 20682.00
788.0580, 20680.00
789.2010, 20655.75
790.3450, 20632.00
791.4880, 20582.00
792.6310, 20567.00
793.7730, 20557.00
794.9160, 20569.55
796.0590, 20728.00
797.2010, 20670.00
798.3430, 20691.00
799.4850, 20829.00
800.6270, 20716.00
801.7690, 20951.00
802.9100, 20595.00
804.0520, 20867.00
805.1930, 20908.00
806.3340, 20645.00
807.4750, 20847.00
808.6160, 20781.00
809.7560, 20871.00
810.8970, 20879.00
812.0370, 20975.00
813.1770, 20972.00
814.3170, 20895.00
815.4570, 20995.00
816.5960, 21074.00
817.7360, 20852.00
818.8750, 21027.00
820.0140, 21031.00
821.1530, 20714.00
822.2920, 21164.00
823.4310, 21150.00
824.5690, 21444.00
825.7070, 21400.53
826.8460, 21421.00
827.9840, 21304.00
829.1220, 21164.00
830.2590, 21281.00
831.3970, 21278.00
832.5340, 21127.00
833.6710, 21263.00
834.8080, 21421.00
835.9450, 21401.00
837.0820, 21555.00
838.2190, 21754.00
839.3550, 21555.00
840.4910, 21709.00
841.6270, 21941.00
842.7630, 21846.00
843.8990, 22031.00
845.0350, 22155.00
846.1700, 22207.00
847.3060, 22477.00
848.4410, 22498.00
849.5760, 22801.00
850.7100, 22989.00
851.8450, 23093.00
852.9800, 23662.00
854.1140, 23836.00
855.2480, 24245.00
856.3820, 24348.00
857.5160, 24920.00
858.6500, 25467.00
859.7830, 26201.00
860.9170, 26611.00
862.0500, 27472.00
863.1830, 27955.00
864.3160, 28841.00
865.4480, 30112.00
866.5810, 31359.00
867.7130, 32500.00
868.8460, 34441.00
869.9780, 36181.00
871.1100, 38287.00
872.2410, 40865.00
873.3730, 43748.00
874.5050, 47006.00
875.6360, 50733.00
876.7670, 54236.00
877.8980, 57835.00
879.0290, 60896.00
880.1590, 62436.00
881.2900, 63136.00
882.4200, 62597.00
883.5500, 60231.00
884.6800, 56882.00
885.8100, 52705.00
886.9400, 48619.00
888.0690, 44967.00
889.1990, 41173.00
890.3280, 38042.00
891.4570, 35611.00
892.5860, 32967.00
893.7140, 31315.00
894.8430, 29822.00
895.9710, 28538.00
897.1000, 27284.00
898.2280, 26653.00
899.3560, 25819.00
900.4830, 25111.00
901.6110, 24728.00
902.7380, 24372.00
903.8660, 23954.00
904.9930, 23672.15
906.1200, 23496.00
907.2460, 23126.00
908.3730, 22911.00
909.5000, 22701.00
910.6260, 22435.00
911.7520, 22590.00
912.8780, 22391.00
914.0040, 22209.00
915.1290, 21998.00
916.2550, 22040.00
917.3800, 21711.00
918.5050, 21862.00
919.6300, 21759.00
920.7550, 21926.00
921.8800, 21754.00
923.0040, 21820.00
924.1290, 21735.00
925.2530, 21502.00
926.3770, 21708.00
927.5010, 21441.00
928.6250, 21334.00
929.7480, 21418.00
930.8720, 21449.00
931.9950, 21348.00
933.1180, 21249.00
934.2410, 21282.00
935.3640, 21420.00
936.4860, 21425.00
937.6090, 21431.20
938.7310, 21436.94
939.8530, 21346.00
940.9750, 21349.00
942.0970, 21232.00
943.2180, 21156.00
944.3400, 21333.00
945.4610, 21295.00
946.5820, 21156.00
947.7030, 21098.00
948.8240, 21065.00
949.9450, 21184.00
951.0650, 21212.00
952.1860, 21193.54
953.3060, 21275.00
954.4260, 21191.00
955.5460, 21207.00
956.6650, 21284.00
957.7850, 21216.77
958.9040, 21039.00
960.0230, 21208.00
961.1420, 21051.00
962.2610, 21110.00
963.3800, 21208.00
964.4990, 21133.00
965.6170, 21108.00
966.7350, 21227.00
967.8530, 21139.00
968.9710, 21173.00
970.0890, 21235.00
971.2070, 21057.00
972.3240, 21140.00
973.4410, 21055.00
974.5580, 21202.00
975.6750, 21155.00
976.7920, 21208.00
977.9090, 20987.00
979.0250, 21086.00
980.1410, 21164.00
981.2580, 21111.00
982.3740, 21274.00
983.4890, 20978.00
984.6050, 21048.00
985.7200, 21032.00
986.8360, 21151.00
987.9510, 21098.00
989.0660, 21401.00
990.1810, 21016.00
991.2950, 21032.00
992.4100, 21269.00
993.5240, 21118.00
994.6390, 21145.00
995.7530, 21172.00
996.8660, 21177.00
997.9800, 21208.00
999.0940, 21309.00
1000.207, 20993.00
1001.320, 21072.00
1002.433, 21080.00
1003.546, 21257.00
1004.659, 21075.00
1005.772, 21062.00
1006.884, 21306.00
1007.996, 21264.00
1009.108, 21128.00
1010.220, 21186.00
1011.332, 21199.00
1012.444, 21287.00
1013.555, 21207.00
1014.666, 21100.00
1015.777, 21240.00
1016.888, 21083.00
1017.999, 21222.00
1019.110, 21242.00
1020.220, 21254.00
1021.331, 21157.00
1022.441, 21292.00
1023.551, 21239.00
1024.661, 21415.00
1025.770, 21133.00
1026.880, 21328.00
1027.989, 21222.00
1029.098, 21238.00
1030.207, 21151.00
1031.316, 21352.00
1032.425, 21228.00
1033.533, 21288.00
1034.642, 21194.00
1035.750, 21436.00
1036.858, 21126.00
1037.966, 21354.00
1039.073, 21323.00
1040.181, 21389.00
1041.288, 21399.00
1042.396, 21489.00
1043.503, 21365.00
1044.610, 21450.00
1045.716, 21289.00
1046.823, 21439.00
1047.929, 21489.00
1049.036, 21443.00
1050.142, 21593.00
1051.248, 21482.00
1052.353, 21319.00
1053.459, 21379.00
1054.564, 21588.00
1055.670, 21419.00
1056.775, 21292.00
1057.880, 21498.00
1058.985, 21407.00
1060.089, 21476.00
1061.194, 21314.00
1062.298, 21546.00
1063.402, 21397.00
1064.506, 21424.00
1065.610, 21473.00
1066.713, 21380.00
1067.817, 21476.00
1068.920, 21581.00
1070.023, 21602.00
1071.126, 21454.00
1072.229, 21457.00
1073.332, 21558.00
1074.435, 21655.00
1075.537, 21459.00
1076.639, 21469.00
1077.741, 21580.00
1078.843, 21457.00
1079.945, 21612.00
1081.046, 21475.00
1082.148, 21266.00
1083.249, 21621.00
1084.350, 21423.00
1085.451, 21569.00
1086.551, 21578.00
1087.652, 21514.00
1088.752, 21691.00
1089.853, 21533.00
1090.953, 21491.00
1092.053, 21451.00
1093.152, 21471.00
1094.252, 21492.00
1095.351, 21521.00
1096.451, 21591.00
1097.550, 21402.00
1098.649, 21614.00
1099.748, 21514.00
1100.846, 21612.00
1101.945, 21476.00
1103.043, 21437.00
1104.141, 21392.00
1105.239, 21376.79
1106.337, 21427.00
1107.434, 21392.00
1108.532, 21464.00
1109.629, 21432.00
1110.726, 21397.00
1111.823, 21412.20
1112.920, 21625.00
1114.017, 21420.00
1115.113, 21499.00
1116.210, 21590.00
1117.306, 21485.00
1118.402, 21753.00
1119.498, 21481.00
1120.593, 21702.00
1121.689, 21762.00
1122.784, 21766.00
1123.879, 21592.00
1124.974, 21798.00
1126.069, 21687.00
1127.164, 21633.00
1128.259, 21638.00
1129.353, 21506.06
1130.447, 21465.07
1131.541, 21410.00
1132.635, 21254.00
1133.729, 21428.00
1134.822, 21225.00
1135.916, 21401.00
1137.009, 21403.00
1138.102, 21426.00
1139.195, 21286.00
1140.288, 21169.00
1141.380, 21296.00
1142.473, 21311.00
1143.565, 21271.00
1144.657, 21396.00
1145.749, 21394.00
1146.841, 21475.00
1147.932, 21430.00
1149.024, 21404.22
1150.115, 21235.00
1151.206, 21303.00
1152.297, 21256.00
1153.388, 21239.00
1154.479, 21207.00
1155.569, 21260.00
1156.659, 21474.00
1157.750, 21091.00
1158.839, 21504.00
1159.929, 21263.00
1161.019, 21282.00
1162.108, 21363.00
1163.198, 21276.00
1164.287, 21191.00
1165.376, 21100.00
1166.465, 21236.00
1167.553, 21211.00
1168.642, 21479.00
1169.730, 21168.00
1170.818, 21207.62
1171.906, 21345.00
1172.994, 21046.00
1174.082, 21171.00
1175.170, 21217.00
1176.257, 21345.00
1177.344, 21202.00
1178.431, 21099.00
1179.518, 21286.00
1180.605, 21151.00
1181.691, 21312.00
1182.778, 21164.00
1183.864, 21156.00
1184.950, 21147.00
1186.036, 21112.67
1187.122, 21146.00
1188.207, 21193.00
1189.292, 21093.00
1190.378, 21259.00
1191.463, 21333.00
1192.548, 21204.00
1193.632, 21189.00
1194.717, 21205.00
1195.801, 21117.00
1196.886, 21113.00
1197.970, 21232.00
1199.054, 21256.00
1200.137, 21192.00
1201.221, 21113.00
1202.305, 21184.00
1203.388, 21076.00
1204.471, 21136.38
1205.554, 21053.00
1206.637, 21204.00
1207.719, 21267.00
1208.802, 21264.00
1209.884, 21061.00
1210.966, 21205.00
1212.048, 21177.00
1213.130, 21131.00
1214.212, 21344.00
1215.293, 21346.00
1216.374, 21258.00
1217.456, 21294.95
1218.536, 21281.31
1219.617, 21117.00
1220.698, 21344.00
1221.778, 21165.00
1222.859, 21263.00
1223.939, 21186.00
1225.019, 21201.00
1226.099, 21356.00
1227.178, 21146.00
1228.258, 21395.00
1229.337, 21295.00
1230.417, 21403.00
1231.496, 21052.00
1232.574, 21256.00
1233.653, 21166.00
1234.732, 21222.00
1235.810, 21167.00
1236.888, 21172.00
1237.966, 21233.00
1239.044, 21181.00
1240.122, 21224.00
1241.199, 21368.00
1242.277, 21237.00
1243.354, 21346.00
1244.431, 21352.00
1245.508, 21315.00
1246.585, 21327.00
1247.661, 21388.00
1248.738, 21169.00
1249.814, 21051.00
1250.890, 21141.00
1251.966, 21296.00
1253.042, 21289.00
1254.117, 21342.50
1255.193, 21262.00
1256.268, 21312.00
1257.343, 21252.00
1258.418, 21156.00
1259.493, 21209.00
1260.567, 21250.00
1261.642, 21413.00
1262.716, 21267.00
1263.790, 21290.00
1264.864, 21133.00
1265.938, 21172.00
1267.011, 21172.22
1268.085, 21131.00
1269.158, 21240.00
1270.231, 21223.00
1271.304, 21258.00
1272.377, 21253.00
1273.450, 21186.00
1274.522, 21288.00
1275.594, 21164.00
1276.666, 21177.00
1277.738, 21055.00
1278.810, 21233.00
1279.882, 21149.00
1280.953, 21288.00
1282.025, 21240.00
1283.096, 21352.00
1284.167, 21295.00
1285.238, 21291.00
1286.308, 21406.00
1287.379, 21277.00
1288.449, 21317.00
1289.519, 21257.00
1290.589, 21218.00
1291.659, 21225.00
1292.729, 21317.00
1293.798, 21409.00
1294.868, 21431.00
1295.937, 21342.00
1297.006, 21430.00
1298.075, 21049.00
1299.143, 21279.00
1300.212, 21219.00
1301.280, 21294.00
1302.348, 21417.00
1303.416, 21378.00
1304.484, 21244.00
1305.552, 21428.00
1306.620, 21270.00
1307.687, 21244.00
1308.754, 21353.00
1309.821, 21351.00
1310.888, 21151.00
1311.955, 21422.00
1313.021, 21176.00
1314.088, 21275.00
1315.154, 21103.00
1316.220, 21243.00
1317.286, 21245.00
1318.352, 21301.00
1319.417, 21188.00
1320.483, 21342.00
1321.548, 21425.00
1322.613, 21237.00
1323.678, 21208.00
1324.743, 21127.00
1325.807, 21156.00
1326.872, 21167.53
1327.936, 21197.00
1329.000, 21256.00
1330.064, 21196.00
1331.128, 21221.00
1332.191, 21286.00
1333.255, 21307.00
1334.318, 21374.00
1335.381, 21329.00
1336.444, 21240.00
1337.507, 21170.00
1338.569, 21268.00
1339.632, 21259.00
1340.694, 21306.00
1341.756, 21393.00
1342.818, 21319.00
1343.880, 21369.00
1344.941, 21305.00
1346.003, 21380.00
1347.064, 21328.00
1348.125, 21460.00
1349.186, 21368.00
1350.247, 21129.00
1351.308, 21201.00
1352.368, 21278.00
1353.428, 21303.00
1354.489, 21364.00
1355.549, 21189.00
1356.608, 21275.00
1357.668, 21299.00
1358.727, 21470.00
1359.787, 21182.00
1360.846, 21306.00
1361.905, 21230.00
1362.964, 21264.00
1364.022, 21182.00
1365.081, 21323.00
1366.139, 21391.00
1367.197, 21346.00
1368.255, 21210.00
1369.313, 21308.00
1370.371, 21301.00
1371.428, 21277.00
1372.486, 21336.00
1373.543, 21283.00
1374.600, 21328.00
1375.657, 21384.00
1376.713, 21397.00
1377.770, 21207.00
1378.826, 21411.00
1379.882, 21346.00
1380.938, 21159.00
1381.994, 21486.00
1383.050, 21392.00
1384.106, 21382.00
1385.161, 21299.00
1386.216, 21382.00
1387.271, 21493.00
1388.326, 21463.00
1389.381, 21490.00
1390.435, 21398.00
1391.490, 21417.00
1392.544, 21403.49
1393.598, 21413.00
1394.652, 21397.00
1395.705, 21323.00
1396.759, 21309.00
1397.812, 21476.00
1398.866, 21315.00
1399.919, 21653.00
1400.972, 21258.00
1402.024, 21348.00
1403.077, 21248.00
1404.129, 21529.00
1405.181, 21550.00
1406.233, 21245.00
1407.285, 21334.00
1408.337, 21442.00
1409.389, 21360.00
1410.440, 21302.00
1411.491, 21383.00
1412.542, 21325.00
1413.593, 21443.00
1414.644, 21369.00
1415.695, 21266.00
1416.745, 21379.92
1417.795, 21467.31
1418.845, 21508.27
1419.895, 21505.29
1420.945, 21326.75
1421.995, 21374.91
1423.044, 21332.23
1424.093, 21285.83
1425.142, 21365.91
1426.191, 21212.92
1427.240, 21290.99
1428.289, 21276.83
1429.337, 21304.90
1430.385, 21241.56
1431.433, 21206.46
1432.481, 21262.79
1433.529, 21268.49
1434.577, 21194.63
1435.624, 21252.00
1436.672, 21307.00
1437.719, 21318.00
1438.766, 21393.00
1439.812, 21281.00
1440.859, 21397.00
1441.905, 21310.00
1442.952, 21452.00
1443.998, 21483.00
1445.044, 21486.00
1446.090, 21463.00
1447.135, 21463.00
1448.181, 21614.00
1449.226, 21287.00
1450.271, 21555.00
1451.316, 21463.00
1452.361, 21451.00
1453.405, 21456.00
1454.450, 21361.00
1455.494, 21276.00
1456.538, 21418.00
1457.582, 21337.00
1458.626, 21522.00
1459.670, 21356.00
1460.713, 21512.00
1461.757, 21301.00
1462.800, 21444.00
1463.843, 21594.00
1464.886, 21679.00
1465.928, 21370.00
1466.971, 21503.00
1468.013, 21371.00
1469.055, 21391.00
1470.097, 21641.00
1471.139, 21704.00
1472.181, 21531.00
1473.222, 21456.00
1474.263, 21460.00
1475.305, 21512.00
1476.346, 21382.00
1477.386, 21634.00
1478.427, 21486.00
1479.468, 21464.00
1480.508, 21407.00
1481.548, 21341.00
1482.588, 21559.00
1483.628, 21528.00
1484.668, 21558.00
1485.707, 21474.00
1486.747, 21484.95
1487.786, 21377.00
1488.825, 21472.00
1489.864, 21461.00
1490.902, 21484.00
1491.941, 21451.00
1492.979, 21597.00
1494.017, 21385.00
1495.055, 21333.00
1496.093, 21499.00
1497.131, 21488.00
1498.168, 21504.00
1499.206, 21499.00
1500.243, 21479.00
1501.280, 21463.00
1502.317, 21435.00
1503.354, 21437.00
1504.390, 21542.00
1505.426, 21335.00
1506.463, 21653.00
1507.499, 21409.00
1508.535, 21568.00
1509.570, 21637.00
1510.606, 21484.00
1511.641, 21473.00
1512.676, 21675.00
1513.711, 21468.00
1514.746, 21538.00
1515.781, 21322.00
1516.816, 21525.00
1517.850, 21512.00
1518.884, 21472.00
1519.918, 21675.00
1520.952, 21481.00
1521.986, 21660.00
1523.019, 21427.00
1524.053, 21586.00
1525.086, 21576.00
1526.119, 21517.00
1527.152, 21534.00
1528.185, 21494.00
1529.217, 21549.00
1530.250, 21798.00
1531.282, 21457.00
1532.314, 21733.00
1533.346, 21742.00
1534.377, 21608.00
1535.409, 21629.00
1536.440, 21487.00
1537.472, 21271.00
1538.503, 21357.00
1539.534, 21565.00
1540.564, 21385.00
1541.595, 21476.00
1542.625, 21710.00
1543.656, 21624.00
1544.686, 21653.00
1545.716, 21665.00
1546.745, 21489.00
1547.775, 21597.00
1548.804, 21584.00
1549.834, 21860.00
1550.863, 21927.00
1551.892, 21882.00
1552.920, 21967.00
1553.949, 21979.39
1554.977, 21944.03
1556.006, 21975.00
1557.034, 21863.00
1558.062, 21709.00
1559.089, 21631.00
1560.117, 21574.00
1561.144, 21480.18
1562.172, 21472.00
1563.199, 21428.00
1564.226, 21487.00
1565.252, 21628.00
1566.279, 21571.00
1567.305, 21601.00
1568.332, 21523.00
1569.358, 21446.00
1570.384, 21449.00
1571.409, 21745.00
1572.435, 21482.00
##END=



