##NAMES=Ferro-actinolite
##RRUFFID=R060189
##IDEAL CHEMISTRY=[box]Ca_2_Mg_2.5-0_Fe^2+^_2.5-5_Si_8_O_22_(OH)_2_
##LOCALITY=Merry Widow mine, Vancouver Island, British Columbia, Canada
##OWNER=RRUFF
##SOURCE=Lloyd Twaites
##DESCRIPTION=Parallel aggregate of green fibers
##STATUS=The identification of this mineral has been confirmed by X-ray diffraction and chemical analysis
##URL=rruff.info/R060189
##MEASURED CHEMISTRY=[box](Ca_1.94_Na_0.06_)_Σ=2_(Fe^2+^_2.55_Mg_2.15_Fe^3+^_0.20_Al_0.05_Mn_0.05_)_Σ=5_(Si_0.98_Al_0.02_)_8_O_22_(OH)_2_
95.94800, 6518.000
97.18200, 6511.000
98.41600, 6534.000
99.64900, 6695.000
100.8830, 6984.000
102.1160, 6875.000
103.3490, 7146.000
104.5820, 7363.000
105.8150, 7804.000
107.0470, 8681.000
108.2800, 9150.000
109.5120, 9873.000
110.7440, 10156.00
111.9760, 9241.000
113.2080, 8714.000
114.4400, 8714.000
115.6710, 8962.000
116.9030, 9217.000
118.1340, 9084.000
119.3650, 8868.000
120.5960, 8525.000
121.8270, 8492.000
123.0580, 8648.000
124.2880, 8615.665
125.5190, 8989.000
126.7490, 9019.000
127.9790, 9203.000
129.2090, 9668.000
130.4390, 9873.000
131.6680, 10130.00
132.8980, 10074.00
134.1270, 10131.00
135.3560, 10256.00
136.5850, 10816.00
137.8140, 11603.00
139.0430, 12682.00
140.2710, 14519.00
141.5000, 16170.00
142.7280, 18358.00
143.9560, 21036.00
145.1840, 23788.00
146.4120, 26993.00
147.6390, 28977.00
148.8670, 28521.00
150.0940, 26009.00
151.3210, 22466.00
152.5490, 19320.00
153.7750, 17073.00
155.0020, 15275.00
156.2290, 13978.00
157.4550, 13443.00
158.6810, 12884.00
159.9080, 12845.00
161.1340, 12952.00
162.3590, 13295.00
163.5850, 14238.00
164.8110, 15208.00
166.0360, 16640.00
167.2610, 18488.00
168.4860, 20582.00
169.7110, 22874.00
170.9360, 25222.00
172.1610, 26532.00
173.3850, 26082.00
174.6100, 24383.00
175.8340, 21983.00
177.0580, 19732.00
178.2820, 17754.00
179.5050, 16283.00
180.7290, 15179.00
181.9520, 14258.00
183.1760, 13556.00
184.3990, 13185.00
185.6220, 13132.00
186.8450, 12881.00
188.0670, 13088.00
189.2900, 13181.00
190.5120, 13452.00
191.7340, 13468.00
192.9560, 13887.00
194.1780, 14006.00
195.4000, 14455.00
196.6220, 14767.00
197.8430, 15211.00
199.0640, 15698.00
200.2860, 16309.00
201.5070, 17074.00
202.7270, 17846.00
203.9480, 18497.00
205.1690, 18842.00
206.3890, 19437.00
207.6090, 20221.00
208.8290, 21345.00
210.0490, 22718.00
211.2690, 24095.00
212.4890, 25553.00
213.7080, 26763.00
214.9280, 28065.00
216.1470, 29433.00
217.3660, 29773.00
218.5850, 29879.00
219.8030, 29171.00
221.0220, 28122.00
222.2400, 26954.00
223.4590, 25397.00
224.6770, 23505.00
225.8950, 21790.00
227.1120, 19950.00
228.3300, 18740.00
229.5480, 17175.00
230.7650, 16162.00
231.9820, 15223.00
233.1990, 14440.00
234.4160, 13909.00
235.6330, 13174.00
236.8490, 12982.00
238.0660, 12620.00
239.2820, 12302.00
240.4980, 12086.00
241.7140, 11907.00
242.9300, 11646.00
244.1460, 11514.00
245.3610, 11411.00
246.5770, 11212.00
247.7920, 11240.00
249.0070, 10945.00
250.2220, 10990.00
251.4370, 10923.00
252.6510, 10893.00
253.8660, 10906.00
255.0800, 10755.00
256.2940, 10771.00
257.5080, 10706.00
258.7220, 10652.00
259.9360, 11064.00
261.1490, 11346.00
262.3630, 10908.00
263.5760, 10601.00
264.7890, 10501.00
266.0020, 10625.00
267.2150, 10529.00
268.4270, 10535.00
269.6400, 10468.00
270.8520, 10429.00
272.0640, 10516.00
273.2760, 10479.00
274.4880, 10626.00
275.7000, 10747.00
276.9120, 10668.00
278.1230, 10733.00
279.3340, 10778.00
280.5450, 10854.00
281.7560, 10929.00
282.9670, 11014.00
284.1780, 11028.00
285.3880, 11049.00
286.5980, 11186.00
287.8090, 11012.00
289.0190, 10996.00
290.2290, 11023.00
291.4380, 10882.00
292.6480, 10966.00
293.8570, 10917.00
295.0670, 10870.00
296.2760, 10688.00
297.4850, 10596.00
298.6930, 10505.00
299.9020, 10414.00
301.1110, 10288.00
302.3190, 10257.47
303.5270, 10349.00
304.7350, 10210.00
305.9430, 10209.00
307.1510, 10240.00
308.3580, 10109.00
309.5660, 10062.00
310.7730, 10063.00
311.9800, 10094.00
313.1870, 10238.00
314.3940, 10170.00
315.6010, 10076.00
316.8070, 10260.00
318.0130, 10298.00
319.2200, 10149.00
320.4260, 10308.00
321.6310, 10471.00
322.8370, 10418.00
324.0430, 10630.00
325.2480, 10647.00
326.4540, 10651.00
327.6590, 10841.00
328.8640, 10749.00
330.0680, 10743.00
331.2730, 10944.00
332.4780, 10938.00
333.6820, 11018.00
334.8860, 11138.00
336.0900, 11092.00
337.2940, 11289.00
338.4980, 11278.00
339.7010, 11491.00
340.9050, 11621.00
342.1080, 11646.00
343.3110, 11647.00
344.5140, 11823.00
345.7170, 11971.00
346.9200, 12155.00
348.1220, 12075.00
349.3240, 12314.00
350.5270, 12301.00
351.7290, 12640.00
352.9310, 12734.00
354.1320, 12663.00
355.3340, 12797.00
356.5350, 12656.00
357.7370, 12734.00
358.9380, 12685.00
360.1390, 12548.00
361.3400, 12214.00
362.5400, 11985.00
363.7410, 12036.00
364.9410, 11741.00
366.1410, 11582.00
367.3410, 11234.00
368.5410, 11254.00
369.7410, 11270.00
370.9400, 11159.00
372.1400, 11051.00
373.3390, 11122.00
374.5380, 11182.00
375.7370, 11121.00
376.9360, 11106.00
378.1350, 11279.00
379.3330, 11223.00
380.5310, 11228.00
381.7300, 11238.15
382.9280, 11061.00
384.1260, 11103.00
385.3230, 10986.00
386.5210, 10773.00
387.7180, 10749.00
388.9160, 10600.00
390.1130, 10462.00
391.3100, 10353.00
392.5060, 10157.00
393.7030, 9858.000
394.9000, 9895.000
396.0960, 9647.000
397.2920, 9528.000
398.4880, 9498.000
399.6840, 9510.000
400.8800, 9514.000
402.0750, 9289.000
403.2710, 9153.000
404.4660, 9279.000
405.6610, 9070.000
406.8560, 9046.000
408.0510, 8970.000
409.2450, 8897.000
410.4400, 8797.000
411.6340, 8719.000
412.8280, 8834.000
414.0220, 8698.000
415.2160, 8621.000
416.4100, 8677.000
417.6030, 8525.000
418.7970, 8550.000
419.9900, 8625.000
421.1830, 8523.000
422.3760, 8617.000
423.5690, 8547.000
424.7610, 8763.000
425.9540, 8765.000
427.1460, 8888.000
428.3380, 8779.000
429.5300, 8970.000
430.7220, 9032.000
431.9140, 8945.000
433.1050, 8817.000
434.2970, 8718.000
435.4880, 8671.000
436.6790, 8611.000
437.8700, 8572.000
439.0610, 8468.000
440.2510, 8418.000
441.4420, 8382.000
442.6320, 8315.232
443.8220, 8329.000
445.0120, 8255.000
446.2020, 8249.000
447.3910, 8289.000
448.5810, 8177.000
449.7700, 8257.000
450.9600, 8185.000
452.1490, 8195.000
453.3370, 8323.000
454.5260, 8223.000
455.7150, 8253.000
456.9030, 8268.000
458.0910, 8239.000
459.2800, 8262.000
460.4670, 8250.000
461.6550, 8325.000
462.8430, 8360.000
464.0300, 8281.000
465.2180, 8188.000
466.4050, 8282.000
467.5920, 8238.000
468.7790, 8256.000
469.9650, 8285.000
471.1520, 8373.000
472.3380, 8374.852
473.5250, 8385.405
474.7110, 8416.000
475.8970, 8354.000
477.0820, 8353.000
478.2680, 8320.000
479.4540, 8352.000
480.6390, 8434.000
481.8240, 8410.000
483.0090, 8505.000
484.1940, 8350.000
485.3780, 8473.000
486.5630, 8546.000
487.7470, 8410.000
488.9320, 8487.000
490.1160, 8381.000
491.3000, 8684.000
492.4830, 8736.000
493.6670, 8774.000
494.8500, 8811.000
496.0340, 8882.333
497.2170, 8911.761
498.4000, 8998.000
499.5820, 9027.000
500.7650, 9027.000
501.9480, 9153.000
503.1300, 9184.000
504.3120, 9329.000
505.4940, 9313.000
506.6760, 9255.000
507.8580, 9290.000
509.0390, 9517.000
510.2210, 9630.000
511.4020, 9615.000
512.5830, 9597.000
513.7640, 9782.000
514.9450, 9842.000
516.1250, 9897.000
517.3060, 10105.00
518.4860, 10138.00
519.6660, 10315.00
520.8460, 10478.00
522.0260, 10528.00
523.2060, 10567.00
524.3850, 10549.00
525.5650, 10519.52
526.7440, 10461.77
527.9230, 10367.00
529.1020, 10286.00
530.2810, 10219.29
531.4590, 10142.19
532.6380, 10059.00
533.8160, 9999.000
534.9940, 9878.000
536.1720, 9781.000
537.3500, 9741.000
538.5270, 9793.000
539.7050, 9805.000
540.8820, 9700.000
542.0590, 9594.000
543.2360, 9612.000
544.4130, 9554.000
545.5900, 9430.000
546.7660, 9385.000
547.9430, 9348.125
549.1190, 9467.000
550.2950, 9256.000
551.4710, 9316.000
552.6470, 9159.000
553.8220, 9313.000
554.9980, 9240.985
556.1730, 9174.243
557.3480, 9243.000
558.5230, 9052.000
559.6980, 9122.000
560.8730, 9131.000
562.0470, 9098.000
563.2220, 9069.000
564.3960, 8986.000
565.5700, 9059.000
566.7440, 9033.000
567.9170, 8934.000
569.0910, 8877.000
570.2640, 9041.000
571.4380, 8861.000
572.6110, 8925.000
573.7840, 8790.000
574.9570, 8753.000
576.1290, 8782.000
577.3020, 8792.000
578.4740, 8706.000
579.6460, 8549.000
580.8180, 8539.000
581.9900, 8570.000
583.1620, 8562.000
584.3330, 8545.000
585.5040, 8469.000
586.6760, 8397.000
587.8470, 8436.757
589.0180, 8506.000
590.1880, 8486.000
591.3590, 8535.000
592.5290, 8511.000
593.7000, 8473.000
594.8700, 8582.000
596.0400, 8635.000
597.2090, 8557.000
598.3790, 8644.000
599.5490, 8732.000
600.7180, 8697.000
601.8870, 8678.000
603.0560, 8726.000
604.2250, 8830.000
605.3940, 8849.672
606.5620, 8972.000
607.7300, 8965.000
608.8990, 9056.000
610.0670, 9110.000
611.2350, 9100.000
612.4020, 9144.000
613.5700, 9280.000
614.7370, 9479.000
615.9050, 9513.000
617.0720, 9493.000
618.2390, 9670.000
619.4060, 9650.000
620.5720, 9858.000
621.7390, 10040.00
622.9050, 10225.00
624.0710, 10206.00
625.2370, 10378.00
626.4030, 10567.00
627.5690, 10740.00
628.7340, 10950.00
629.9000, 11131.00
631.0650, 11434.00
632.2300, 11691.65
633.3950, 12092.00
634.5600, 12331.00
635.7240, 12630.00
636.8890, 13021.43
638.0530, 13482.00
639.2170, 13821.00
640.3810, 14177.00
641.5450, 14488.00
642.7080, 15057.00
643.8720, 15561.00
645.0350, 16355.00
646.1980, 16872.00
647.3610, 17500.00
648.5240, 18474.00
649.6870, 19509.00
650.8490, 20841.00
652.0120, 22113.00
653.1740, 23826.00
654.3360, 26102.00
655.4980, 28677.00
656.6600, 31779.00
657.8210, 35089.00
658.9830, 39092.00
660.1440, 43418.00
661.3050, 47671.00
662.4660, 51948.00
663.6270, 54975.00
664.7870, 56978.00
665.9480, 57125.00
667.1080, 54923.00
668.2680, 51490.00
669.4280, 46560.00
670.5880, 41775.00
671.7480, 36571.00
672.9070, 32266.00
674.0670, 28442.00
675.2260, 24956.00
676.3850, 22626.00
677.5440, 20614.00
678.7030, 18893.00
679.8610, 17505.00
681.0200, 16308.00
682.1780, 15500.00
683.3360, 14772.00
684.4940, 14092.00
685.6520, 13495.00
686.8090, 12988.00
687.9670, 12495.00
689.1240, 12131.00
690.2810, 11709.00
691.4380, 11410.00
692.5950, 11108.64
693.7520, 10894.00
694.9080, 10643.00
696.0650, 10464.00
697.2210, 10354.00
698.3770, 10129.00
699.5330, 10117.00
700.6880, 9977.000
701.8440, 9700.000
702.9990, 9820.000
704.1550, 9672.000
705.3100, 9625.000
706.4650, 9566.000
707.6190, 9346.000
708.7740, 9280.000
709.9290, 9305.000
711.0830, 9270.000
712.2370, 9282.000
713.3910, 9203.000
714.5450, 9172.000
715.6980, 9109.000
716.8520, 9186.000
718.0050, 9058.000
719.1580, 9213.000
720.3110, 9114.000
721.4640, 9183.000
722.6170, 9230.000
723.7700, 9111.000
724.9220, 9189.000
726.0740, 9155.000
727.2260, 9116.000
728.3780, 9232.000
729.5300, 9272.000
730.6810, 9347.000
731.8330, 9287.000
732.9840, 9280.000
734.1350, 9466.000
735.2860, 9256.000
736.4370, 9461.000
737.5880, 9311.000
738.7380, 9374.000
739.8880, 9278.000
741.0390, 9369.000
742.1890, 9217.000
743.3380, 9195.000
744.4880, 9214.000
745.6380, 9122.000
746.7870, 9128.000
747.9360, 9155.000
749.0850, 9102.000
750.2340, 9069.873
751.3830, 9065.000
752.5310, 8972.000
753.6800, 8899.000
754.8280, 8906.000
755.9760, 8903.000
757.1240, 9059.000
758.2720, 8856.000
759.4190, 8936.000
760.5670, 8903.000
761.7140, 8822.000
762.8610, 8820.000
764.0080, 8759.000
765.1550, 9031.000
766.3020, 8658.000
767.4480, 8926.000
768.5950, 8831.000
769.7410, 8901.000
770.8870, 8795.000
772.0330, 8739.000
773.1780, 8728.000
774.3240, 8691.381
775.4690, 8820.000
776.6140, 8704.000
777.7590, 8692.000
778.9040, 8728.000
780.0490, 8640.000
781.1940, 8697.000
782.3380, 8583.000
783.4820, 8579.000
784.6260, 8732.000
785.7700, 8552.000
786.9140, 8616.000
788.0580, 8636.000
789.2010, 8601.000
790.3450, 8502.000
791.4880, 8368.000
792.6310, 8600.000
793.7730, 8485.000
794.9160, 8540.000
796.0590, 8657.000
797.2010, 8660.000
798.3430, 8670.626
799.4850, 8517.000
800.6270, 8594.000
801.7690, 8559.000
802.9100, 8460.000
804.0520, 8601.000
805.1930, 8714.000
806.3340, 8730.000
807.4750, 8655.000
808.6160, 8811.000
809.7560, 8735.000
810.8970, 8543.000
812.0370, 8680.000
813.1770, 8646.000
814.3170, 8858.000
815.4570, 8760.000
816.5960, 8752.000
817.7360, 8886.000
818.8750, 8850.000
820.0140, 8746.000
821.1530, 8680.000
822.2920, 8686.754
823.4310, 8815.000
824.5690, 8772.000
825.7070, 8760.000
826.8460, 8931.000
827.9840, 8779.000
829.1220, 8889.000
830.2590, 8823.000
831.3970, 8985.000
832.5340, 8799.000
833.6710, 8840.000
834.8080, 9314.000
835.9450, 9416.000
837.0820, 8932.000
838.2190, 9047.000
839.3550, 8727.000
840.4910, 8932.000
841.6270, 8944.000
842.7630, 8779.000
843.8990, 9072.000
845.0350, 9066.000
846.1700, 9108.000
847.3060, 9051.000
848.4410, 9006.000
849.5760, 8885.000
850.7100, 9012.000
851.8450, 8986.000
852.9800, 9155.000
854.1140, 9164.000
855.2480, 9266.000
856.3820, 9251.000
857.5160, 9206.000
858.6500, 9380.000
859.7830, 9365.000
860.9170, 9393.000
862.0500, 9377.000
863.1830, 9331.000
864.3160, 9319.000
865.4480, 9454.000
866.5810, 9441.000
867.7130, 9594.000
868.8460, 9541.000
869.9780, 9595.000
871.1100, 9640.000
872.2410, 9535.000
873.3730, 9832.000
874.5050, 9840.000
875.6360, 9756.000
876.7670, 9914.000
877.8980, 9945.000
879.0290, 9929.000
880.1590, 10115.00
881.2900, 10118.00
882.4200, 10145.00
883.5500, 10095.00
884.6800, 10169.59
885.8100, 10371.00
886.9400, 10331.00
888.0690, 10500.00
889.1990, 10678.00
890.3280, 10788.00
891.4570, 10856.00
892.5860, 10938.00
893.7140, 11229.00
894.8430, 11155.00
895.9710, 11353.00
897.1000, 11278.00
898.2280, 11442.00
899.3560, 11605.00
900.4830, 11566.00
901.6110, 11519.00
902.7380, 11625.00
903.8660, 11709.00
904.9930, 11701.00
906.1200, 11915.00
907.2460, 11937.00
908.3730, 12037.00
909.5000, 12202.00
910.6260, 12478.00
911.7520, 12760.00
912.8780, 12966.00
914.0040, 13183.86
915.1290, 13090.00
916.2550, 13588.00
917.3800, 13688.00
918.5050, 13962.00
919.6300, 14279.00
920.7550, 14711.00
921.8800, 14964.00
923.0040, 15045.00
924.1290, 15237.00
925.2530, 15076.00
926.3770, 15029.00
927.5010, 14938.00
928.6250, 14568.00
929.7480, 14411.00
930.8720, 14075.00
931.9950, 13787.00
933.1180, 13507.00
934.2410, 13317.00
935.3640, 13352.00
936.4860, 13232.00
937.6090, 12999.00
938.7310, 13174.00
939.8530, 13028.00
940.9750, 12965.00
942.0970, 12947.00
943.2180, 12954.00
944.3400, 12837.00
945.4610, 12821.00
946.5820, 12907.00
947.7030, 12892.00
948.8240, 12831.12
949.9450, 12686.00
951.0650, 12687.00
952.1860, 12615.00
953.3060, 12590.00
954.4260, 12459.00
955.5460, 12519.00
956.6650, 12492.22
957.7850, 12605.00
958.9040, 12549.00
960.0230, 12538.00
961.1420, 12592.00
962.2610, 12532.00
963.3800, 12555.00
964.4990, 12453.00
965.6170, 12551.00
966.7350, 12502.00
967.8530, 12554.00
968.9710, 12492.00
970.0890, 12432.00
971.2070, 12406.00
972.3240, 12214.00
973.4410, 12432.00
974.5580, 12207.00
975.6750, 12423.00
976.7920, 12326.00
977.9090, 12345.00
979.0250, 12265.00
980.1410, 12383.00
981.2580, 12343.00
982.3740, 12339.00
983.4890, 12362.00
984.6050, 12369.00
985.7200, 12387.00
986.8360, 12381.00
987.9510, 12602.00
989.0660, 12477.00
990.1810, 12738.00
991.2950, 12472.00
992.4100, 12819.00
993.5240, 12886.00
994.6390, 12879.00
995.7530, 12995.00
996.8660, 13146.00
997.9800, 13149.00
999.0940, 13371.00
1000.207, 13395.00
1001.320, 13706.00
1002.433, 13800.00
1003.546, 13941.00
1004.659, 14142.00
1005.772, 14298.00
1006.884, 14474.00
1007.996, 14669.00
1009.108, 14777.00
1010.220, 15076.00
1011.332, 15131.00
1012.444, 15318.00
1013.555, 15653.00
1014.666, 15601.00
1015.777, 15565.00
1016.888, 15772.00
1017.999, 16007.00
1019.110, 16226.00
1020.220, 16532.00
1021.331, 16547.00
1022.441, 16771.00
1023.551, 17015.00
1024.661, 16933.00
1025.770, 17250.00
1026.880, 17201.00
1027.989, 17508.00
1029.098, 17839.00
1030.207, 18025.00
1031.316, 18248.00
1032.425, 18552.00
1033.533, 19327.00
1034.642, 19839.00
1035.750, 20349.00
1036.858, 21386.00
1037.966, 22145.00
1039.073, 22986.89
1040.181, 23983.00
1041.288, 24840.00
1042.396, 25930.00
1043.503, 27030.00
1044.610, 27212.00
1045.716, 27866.00
1046.823, 27763.00
1047.929, 27571.00
1049.036, 27197.00
1050.142, 26595.00
1051.248, 25870.00
1052.353, 25227.00
1053.459, 24239.00
1054.564, 23669.00
1055.670, 23207.00
1056.775, 22881.00
1057.880, 22620.00
1058.985, 22257.00
1060.089, 21850.00
1061.194, 21245.68
1062.298, 20674.00
1063.402, 19784.00
1064.506, 18869.00
1065.610, 17923.00
1066.713, 17141.00
1067.817, 16250.00
1068.920, 15510.00
1070.023, 15009.00
1071.126, 14470.00
1072.229, 14101.00
1073.332, 13724.00
1074.435, 13411.54
1075.537, 13145.57
1076.639, 12949.00
1077.741, 12724.00
1078.843, 12582.00
1079.945, 12464.00
1081.046, 12319.79
1082.148, 12201.40
1083.249, 12106.00
1084.350, 12003.00
1085.451, 11901.00
1086.551, 11893.00
1087.652, 11810.00
1088.752, 11820.00
1089.853, 11638.00
1090.953, 11589.00
1092.053, 11533.00
1093.152, 11413.00
1094.252, 11427.00
1095.351, 11418.00
1096.451, 11306.00
1097.550, 11284.00
1098.649, 11334.00
1099.748, 11314.00
1100.846, 11233.00
1101.945, 11317.00
1103.043, 11268.00
1104.141, 11170.00
1105.239, 11222.00
1106.337, 11172.00
1107.434, 11088.00
1108.532, 11035.00
1109.629, 10974.00
1110.726, 10975.00
1111.823, 10890.00
1112.920, 10990.00
1114.017, 10882.00
1115.113, 10793.00
1116.210, 10946.00
1117.306, 10944.00
1118.402, 11067.00
1119.498, 11019.00
1120.593, 11024.00
1121.689, 10990.00
1122.784, 10939.00
1123.879, 11004.00
1124.974, 10883.00
1126.069, 10859.00
1127.164, 11014.00
1128.259, 10854.00
1129.353, 10819.00
1130.447, 10862.00
1131.541, 10696.00
1132.635, 10597.00
1133.729, 10658.00
1134.822, 10440.00
1135.916, 10494.00
1137.009, 10551.00
1138.102, 10509.00
1139.195, 10332.00
1140.288, 10462.00
1141.380, 10395.00
1142.473, 10379.00
1143.565, 10377.00
1144.657, 10319.00
1145.749, 10356.00
1146.841, 10519.00
1147.932, 10524.00
1149.024, 10522.00
1150.115, 10313.00
1151.206, 10292.00
1152.297, 10356.00
1153.388, 10383.00
1154.479, 10437.00
1155.569, 10360.00
1156.659, 10415.00
1157.750, 10201.00
1158.839, 10353.00
1159.929, 10270.00
1161.019, 10453.00
1162.108, 10382.00
1163.198, 10266.00
1164.287, 10364.00
1165.376, 10364.00
1166.465, 10338.00
1167.553, 10416.00
1168.642, 10275.00
1169.730, 10368.00
1170.818, 10323.00
1171.906, 10290.00
1172.994, 10413.00
1174.082, 10353.00
1175.170, 10353.00
1176.257, 10416.00
1177.344, 10343.00
1178.431, 10378.00
1179.518, 10398.00
1180.605, 10257.00
1181.691, 10365.00
1182.778, 10371.00
1183.864, 10469.00
1184.950, 10395.00
1186.036, 10386.00
1187.122, 10354.00
1188.207, 10414.00
1189.292, 10428.00
1190.378, 10422.00
1191.463, 10302.00
1192.548, 10411.00
1193.632, 10370.00
1194.717, 10539.00
1195.801, 10432.00
1196.886, 10420.00
1197.970, 10469.00
1199.054, 10408.00
1200.137, 10475.00
1201.221, 10457.00
1202.305, 10464.00
1203.388, 10391.00
1204.471, 10596.00
1205.554, 10548.00
1206.637, 10602.00
1207.719, 10477.00
1208.802, 10446.00
1209.884, 10502.00
1210.966, 10416.76
1212.048, 10537.00
1213.130, 10409.00
1214.212, 10465.00
1215.293, 10574.00
1216.374, 10571.00
1217.456, 10546.00
1218.536, 10466.00
1219.617, 10510.00
1220.698, 10588.00
1221.778, 10516.00
1222.859, 10518.00
1223.939, 10552.00
1225.019, 10656.00
1226.099, 10703.00
1227.178, 10742.00
1228.258, 10754.10
1229.337, 10639.00
1230.417, 10715.00
1231.496, 10608.00
1232.574, 10558.00
1233.653, 10578.00
1234.732, 10578.00
1235.810, 10567.99
1236.888, 10692.00
1237.966, 10622.00
1239.044, 10570.00
1240.122, 10699.00
1241.199, 10822.00
1242.277, 10755.00
1243.354, 10634.00
1244.431, 10857.00
1245.508, 10761.00
1246.585, 10745.00
1247.661, 10792.00
1248.738, 10729.00
1249.814, 10793.00
1250.890, 10754.00
1251.966, 10704.00
1253.042, 10785.00
1254.117, 10819.00
1255.193, 10781.00
1256.268, 11001.00
1257.343, 10833.00
1258.418, 10856.00
1259.493, 10967.00
1260.567, 10725.00
1261.642, 10789.00
1262.716, 10877.00
1263.790, 10894.00
1264.864, 10884.48
1265.938, 10882.96
1267.011, 10804.00
1268.085, 10808.00
1269.158, 10771.00
1270.231, 10732.93
1271.304, 10861.00
1272.377, 10797.00
1273.450, 10899.00
1274.522, 10957.00
1275.594, 10983.00
1276.666, 10980.00
1277.738, 10887.00
1278.810, 11076.00
1279.882, 11077.00
1280.953, 11036.00
1282.025, 10896.00
1283.096, 11016.00
1284.167, 10967.00
1285.238, 10946.00
1286.308, 11043.00
1287.379, 10933.00
1288.449, 11094.00
1289.519, 11126.00
1290.589, 11078.00
1291.659, 11250.00
1292.729, 11002.00
1293.798, 11111.00
1294.868, 11080.00
1295.937, 11130.00
1297.006, 11209.00
1298.075, 11112.00
1299.143, 11107.00
1300.212, 11048.00
1301.280, 11193.00
1302.348, 11043.00
1303.416, 11148.00
1304.484, 11169.00
1305.552, 11140.00
1306.620, 11152.00
1307.687, 11249.00
1308.754, 11136.00
1309.821, 11325.00
1310.888, 11178.00
1311.955, 11210.00
1313.021, 11156.00
1314.088, 11237.00
1315.154, 11286.00
1316.220, 11403.00
1317.286, 11263.00
1318.352, 11264.00
1319.417, 11219.00
1320.483, 11230.00
1321.548, 11167.00
1322.613, 11244.00
1323.678, 11217.00
1324.743, 11364.00
1325.807, 11289.00
1326.872, 11371.00
1327.936, 11335.00
1329.000, 11115.00
1330.064, 11314.00
1331.128, 11255.00
1332.191, 11379.00
1333.255, 11268.00
1334.318, 11318.00
1335.381, 11204.00
1336.444, 11260.00
1337.507, 11366.00
1338.569, 11275.00
1339.632, 11341.00
1340.694, 11489.00
1341.756, 11292.00
1342.818, 11380.00
1343.880, 11458.00
1344.941, 11312.00
1346.003, 11461.00
1347.064, 11428.00
1348.125, 11485.00
1349.186, 11344.00
1350.247, 11362.00
1351.308, 11508.00
1352.368, 11425.00
1353.428, 11504.00
1354.489, 11501.00
1355.549, 11532.00
1356.608, 11531.16
1357.668, 11388.00
1358.727, 11454.00
1359.787, 11501.00
1360.846, 11368.00
1361.905, 11484.00
1362.964, 11525.00
1364.022, 11452.00
1365.081, 11352.00
1366.139, 11382.00
1367.197, 11484.00
1368.255, 11440.00
1369.313, 11393.00
1370.371, 11595.00
1371.428, 11518.00
1372.486, 11335.00
1373.543, 11476.00
1374.600, 11434.00
1375.657, 11477.00
1376.713, 11548.00
1377.770, 11389.00
1378.826, 11465.00
1379.882, 11594.00
1380.938, 11431.00
1381.994, 11573.00
1383.050, 11559.00
1384.106, 11526.00
1385.161, 11687.00
1386.216, 11434.00
1387.271, 11597.00
1388.326, 11648.00
1389.381, 11696.00
1390.435, 11624.00
1391.490, 11642.00
1392.544, 11490.00
1393.598, 11613.00
1394.652, 11524.00
1395.705, 11554.00
1396.759, 11598.00
1397.812, 11583.00
1398.866, 11637.00
1399.919, 11654.00
1400.972, 11632.00
1402.024, 11681.00
1403.077, 11661.00
1404.129, 11635.35
1405.181, 11666.00
1406.233, 11565.00
1407.285, 11604.00
1408.337, 11582.90
1409.389, 11612.00
1410.440, 11649.00
1411.491, 11683.00
1412.542, 11688.00
1413.593, 11816.00
1414.644, 11667.00
1415.695, 11767.00
1416.745, 11752.00
1417.795, 11688.00
1418.845, 11800.00
1419.895, 11831.00
1420.945, 11868.00
1421.995, 11870.69
1423.044, 11698.00
1424.093, 11826.00
1425.142, 11695.00
1426.191, 11678.00
1427.240, 11775.00
1428.289, 11924.00
1429.337, 11881.00
1430.385, 11920.17
1431.433, 11848.00
1432.481, 11833.00
1433.529, 11762.00
1434.577, 11650.00
1435.624, 11949.00
1436.672, 11706.00
1437.719, 11962.00
1438.766, 11822.00
1439.812, 11802.00
1440.859, 11859.00
1441.905, 11838.00
1442.952, 11925.00
1443.998, 11902.00
1445.044, 12023.00
1446.090, 11846.00
1447.135, 11858.00
1448.181, 11896.00
1449.226, 11900.00
1450.271, 11868.00
1451.316, 12009.00
1452.361, 11935.00
1453.405, 11844.00
1454.450, 11971.00
1455.494, 11887.00
1456.538, 12017.00
1457.582, 11790.00
1458.626, 12084.00
1459.670, 12040.00
1460.713, 12042.00
1461.757, 12136.00
1462.800, 12161.00
1463.843, 12119.00
1464.886, 12063.00
1465.928, 12066.00
1466.971, 12089.00
1468.013, 12000.00
1469.055, 12011.00
1470.097, 12070.00
1471.139, 12044.00
1472.181, 12060.00
1473.222, 12030.00
1474.263, 12128.00
1475.305, 12064.00
1476.346, 12002.00
1477.386, 12227.00
1478.427, 12105.00
1479.468, 12259.00
1480.508, 12203.00
1481.548, 12286.00
1482.588, 12257.00
1483.628, 12174.00
1484.668, 12240.00
1485.707, 12222.00
1486.747, 12263.00
1487.786, 12170.00
1488.825, 12202.00
1489.864, 12295.00
1490.902, 12384.00
1491.941, 12340.00
1492.979, 12281.00
1494.017, 12444.00
1495.055, 12284.00
1496.093, 12431.00
1497.131, 12456.00
1498.168, 12394.00
1499.206, 12316.00
1500.243, 12366.09
1501.280, 12394.00
1502.317, 12419.00
1503.354, 12508.00
1504.390, 12527.00
1505.426, 12441.00
1506.463, 12320.00
1507.499, 12486.00
1508.535, 12512.00
1509.570, 12602.00
1510.606, 12591.00
1511.641, 12567.00
1512.676, 12664.00
1513.711, 12636.00
1514.746, 12656.64
1515.781, 12565.00
1516.816, 12665.00
1517.850, 12641.00
1518.884, 12639.00
1519.918, 12649.00
1520.952, 12737.00
1521.986, 12732.00
1523.019, 12875.00
1524.053, 12733.00
1525.086, 12668.00
1526.119, 12745.00
1527.152, 12665.00
1528.185, 12816.00
1529.217, 12820.00
1530.250, 12771.00
1531.282, 12692.00
1532.314, 12848.00
1533.346, 12832.00
1534.377, 12918.00
1535.409, 12972.00
1536.440, 12925.00
1537.472, 12969.00
1538.503, 12936.00
1539.534, 12874.00
1540.564, 12961.00
1541.595, 12821.00
1542.625, 13005.00
1543.656, 13054.00
1544.686, 12940.00
1545.716, 13069.00
1546.745, 12963.00
1547.775, 12895.00
1548.804, 12990.00
1549.834, 13135.00
1550.863, 12953.00
1551.892, 13116.00
1552.920, 13169.00
1553.949, 13286.00
1554.977, 13361.00
1556.006, 13320.00
1557.034, 13167.00
1558.062, 13140.00
1559.089, 13130.70
1560.117, 13119.00
1561.144, 13172.00
1562.172, 13152.00
1563.199, 13180.00
1564.226, 13010.00
1565.252, 13119.00
1566.279, 13023.00
1567.305, 13065.00
1568.332, 13215.00
1569.358, 13106.00
1570.384, 13205.00
##END=



