##NAMES=Fluorapatite
##RRUFFID=R050401
##IDEAL CHEMISTRY=Ca_5_(PO_4_)_3_F
##LOCALITY=Urbano mine, Golconda District, Minas Gerais, Brazil
##OWNER=RRUFF
##SOURCE=Bob Downs
##DESCRIPTION=Pale purple hexagonal prism associated with albite R050402
##STATUS=The identification of this mineral has been confirmed by X-ray diffraction and chemical analysis
##URL=rruff.info/R050401
##MEASURED CHEMISTRY=(Ca_0.99_Mn_0.01_)_5_(P_1.00_O_4_)_3_F_1.00_
##PIN_ID=L01966
##ORIENTATION=Laser parallel to a* (1 0 0). Fiducial mark perpendicular to laser is parallel to c [0 0 1]
140.2710, 5363.000
141.5000, 5318.000
142.7280, 5462.000
143.9560, 5427.000
145.1840, 5474.000
146.4120, 5444.000
147.6390, 5470.000
148.8670, 5539.000
150.0940, 5584.000
151.3210, 5587.000
152.5490, 5624.000
153.7750, 5573.000
155.0020, 5650.000
156.2290, 5651.000
157.4550, 5725.000
158.6810, 5722.000
159.9080, 5681.000
161.1340, 5756.000
162.3590, 5782.000
163.5850, 5799.000
164.8110, 5905.000
166.0360, 5983.000
167.2610, 5886.000
168.4860, 6013.000
169.7110, 5911.000
170.9360, 6063.000
172.1610, 5930.000
173.3850, 6025.000
174.6100, 6079.000
175.8340, 5993.000
177.0580, 6103.000
178.2820, 6168.000
179.5050, 6085.000
180.7290, 6073.000
181.9520, 6198.000
183.1760, 6257.000
184.3990, 6171.000
185.6220, 6177.000
186.8450, 6237.000
188.0670, 6296.000
189.2900, 6277.000
190.5120, 6307.000
191.7340, 6299.000
192.9560, 6371.000
194.1780, 6463.000
195.4000, 6414.000
196.6220, 6522.000
197.8430, 6531.724
199.0640, 6428.000
200.2860, 6570.000
201.5070, 6538.000
202.7270, 6513.000
203.9480, 6508.000
205.1690, 6515.161
206.3890, 6676.000
207.6090, 6550.000
208.8290, 6675.000
210.0490, 6686.000
211.2690, 6652.000
212.4890, 6710.000
213.7080, 6746.000
214.9280, 6791.000
216.1470, 6797.000
217.3660, 6792.000
218.5850, 6934.000
219.8030, 6909.000
221.0220, 6821.000
222.2400, 7013.000
223.4590, 6944.000
224.6770, 6975.000
225.8950, 6986.000
227.1120, 7046.000
228.3300, 7041.000
229.5480, 7030.000
230.7650, 7083.052
231.9820, 7205.000
233.1990, 7130.000
234.4160, 7254.000
235.6330, 7229.000
236.8490, 7256.000
238.0660, 7272.000
239.2820, 7289.000
240.4980, 7324.000
241.7140, 7291.000
242.9300, 7314.000
244.1460, 7326.000
245.3610, 7404.000
246.5770, 7395.000
247.7920, 7455.000
249.0070, 7463.000
250.2220, 7523.000
251.4370, 7548.000
252.6510, 7593.000
253.8660, 7620.000
255.0800, 7659.000
256.2940, 7660.000
257.5080, 7742.000
258.7220, 7767.000
259.9360, 7759.000
261.1490, 7900.000
262.3630, 7808.000
263.5760, 7831.000
264.7890, 7876.000
266.0020, 8008.000
267.2150, 7952.000
268.4270, 8002.000
269.6400, 8105.000
270.8520, 8112.000
272.0640, 8143.000
273.2760, 8163.000
274.4880, 8154.000
275.7000, 8163.000
276.9120, 8146.000
278.1230, 8210.000
279.3340, 8230.000
280.5450, 8243.000
281.7560, 8318.000
282.9670, 8338.000
284.1780, 8303.000
285.3880, 8285.000
286.5980, 8382.000
287.8090, 8451.000
289.0190, 8378.000
290.2290, 8435.000
291.4380, 8629.000
292.6480, 8520.000
293.8570, 8465.000
295.0670, 8368.000
296.2760, 8489.000
297.4850, 8545.000
298.6930, 8668.000
299.9020, 8687.326
301.1110, 8716.000
302.3190, 8743.000
303.5270, 8657.000
304.7350, 8719.000
305.9430, 8766.000
307.1510, 8917.000
308.3580, 8955.000
309.5660, 8988.558
310.7730, 9023.000
311.9800, 9015.000
313.1870, 8939.000
314.3940, 8952.000
315.6010, 9086.000
316.8070, 9007.000
318.0130, 9166.000
319.2200, 9000.000
320.4260, 9159.000
321.6310, 9208.000
322.8370, 9180.000
324.0430, 9179.000
325.2480, 9235.000
326.4540, 9277.000
327.6590, 9374.000
328.8640, 9455.000
330.0680, 9378.000
331.2730, 9363.000
332.4780, 9427.000
333.6820, 9553.000
334.8860, 9520.000
336.0900, 9546.000
337.2940, 9500.000
338.4980, 9596.000
339.7010, 9645.000
340.9050, 9593.000
342.1080, 9799.000
343.3110, 9789.000
344.5140, 9669.000
345.7170, 9702.000
346.9200, 9724.000
348.1220, 9869.000
349.3240, 9803.000
350.5270, 9852.000
351.7290, 9856.000
352.9310, 9947.000
354.1320, 9986.000
355.3340, 10065.00
356.5350, 9980.000
357.7370, 10044.00
358.9380, 10069.00
360.1390, 10193.00
361.3400, 10132.00
362.5400, 10225.00
363.7410, 10263.00
364.9410, 10170.00
366.1410, 10348.00
367.3410, 10232.00
368.5410, 10343.00
369.7410, 10343.00
370.9400, 10525.00
372.1400, 10529.00
373.3390, 10448.00
374.5380, 10501.00
375.7370, 10515.00
376.9360, 10614.00
378.1350, 10558.00
379.3330, 10717.00
380.5310, 10605.00
381.7300, 10754.00
382.9280, 10675.00
384.1260, 10797.00
385.3230, 10853.00
386.5210, 10840.00
387.7180, 10958.00
388.9160, 10964.00
390.1130, 10975.00
391.3100, 11074.00
392.5060, 10974.00
393.7030, 11076.00
394.9000, 11209.00
396.0960, 11146.00
397.2920, 11092.00
398.4880, 11264.00
399.6840, 11232.00
400.8800, 11262.00
402.0750, 11397.00
403.2710, 11330.00
404.4660, 11269.00
405.6610, 11379.00
406.8560, 11504.00
408.0510, 11340.00
409.2450, 11543.00
410.4400, 11421.00
411.6340, 11498.00
412.8280, 11641.00
414.0220, 11687.00
415.2160, 11599.00
416.4100, 11580.00
417.6030, 11713.00
418.7970, 11685.00
419.9900, 11742.44
421.1830, 11770.00
422.3760, 11819.00
423.5690, 11949.00
424.7610, 11992.00
425.9540, 11979.00
427.1460, 12166.00
428.3380, 12093.00
429.5300, 12100.00
430.7220, 12148.00
431.9140, 12218.00
433.1050, 12262.00
434.2970, 12358.00
435.4880, 12363.00
436.6790, 12386.00
437.8700, 12511.00
439.0610, 12423.00
440.2510, 12517.00
441.4420, 12674.00
442.6320, 12566.00
443.8220, 12665.00
445.0120, 12835.00
446.2020, 12807.00
447.3910, 12847.00
448.5810, 12840.00
449.7700, 12768.00
450.9600, 12979.00
452.1490, 12944.00
453.3370, 12921.00
454.5260, 12904.00
455.7150, 12945.00
456.9030, 12947.54
458.0910, 12801.00
459.2800, 13052.00
460.4670, 13093.00
461.6550, 13248.00
462.8430, 13136.00
464.0300, 13142.00
465.2180, 13048.00
466.4050, 13184.00
467.5920, 13259.00
468.7790, 13235.00
469.9650, 13441.00
471.1520, 13357.00
472.3380, 13415.00
473.5250, 13416.00
474.7110, 13427.00
475.8970, 13457.00
477.0820, 13543.00
478.2680, 13538.00
479.4540, 13603.00
480.6390, 13765.00
481.8240, 13669.00
483.0090, 13793.00
484.1940, 13879.00
485.3780, 13733.00
486.5630, 13892.00
487.7470, 13902.00
488.9320, 14129.00
490.1160, 13982.00
491.3000, 14060.00
492.4830, 13924.00
493.6670, 13970.80
494.8500, 14192.00
496.0340, 14063.00
497.2170, 14150.00
498.4000, 14232.00
499.5820, 14310.00
500.7650, 14356.69
501.9480, 14392.09
503.1300, 14423.00
504.3120, 14441.00
505.4940, 14447.00
506.6760, 14502.00
507.8580, 14432.00
509.0390, 14673.00
510.2210, 14747.00
511.4020, 14737.00
512.5830, 14699.00
513.7640, 14831.00
514.9450, 14807.00
516.1250, 14884.00
517.3060, 14782.00
518.4860, 14967.00
519.6660, 15050.00
520.8460, 14993.00
522.0260, 15184.00
523.2060, 15033.00
524.3850, 15161.00
525.5650, 15225.00
526.7440, 15269.00
527.9230, 15305.00
529.1020, 15351.51
530.2810, 15389.00
531.4590, 15440.00
532.6380, 15461.00
533.8160, 15534.00
534.9940, 15506.00
536.1720, 15584.00
537.3500, 15629.00
538.5270, 15751.00
539.7050, 15676.00
540.8820, 15716.00
542.0590, 15750.00
543.2360, 15708.00
544.4130, 15817.00
545.5900, 15916.00
546.7660, 16067.00
547.9430, 16020.00
549.1190, 16109.00
550.2950, 15926.00
551.4710, 16073.00
552.6470, 16114.00
553.8220, 16209.00
554.9980, 16291.00
556.1730, 16258.00
557.3480, 16235.00
558.5230, 16430.00
559.6980, 16255.00
560.8730, 16471.00
562.0470, 16542.00
563.2220, 16510.00
564.3960, 16524.00
565.5700, 16654.00
566.7440, 16690.00
567.9170, 16829.00
569.0910, 16821.00
570.2640, 16931.00
571.4380, 17023.76
572.6110, 17029.00
573.7840, 17189.00
574.9570, 17178.00
576.1290, 17176.00
577.3020, 17260.00
578.4740, 17441.00
579.6460, 17521.00
580.8180, 17582.00
581.9900, 17580.00
583.1620, 17717.00
584.3330, 17686.11
585.5040, 17461.00
586.6760, 17652.00
587.8470, 17583.00
589.0180, 17505.00
590.1880, 17711.00
591.3590, 17660.00
592.5290, 17731.00
593.7000, 17729.00
594.8700, 17822.00
596.0400, 17788.00
597.2090, 17921.00
598.3790, 17881.00
599.5490, 18057.00
600.7180, 18147.00
601.8870, 18122.00
603.0560, 18107.00
604.2250, 18315.00
605.3940, 18336.00
606.5620, 18407.00
607.7300, 18416.00
608.8990, 18600.00
610.0670, 18595.00
611.2350, 18732.00
612.4020, 18591.00
613.5700, 18520.00
614.7370, 18710.00
615.9050, 18685.00
617.0720, 18685.00
618.2390, 18838.00
619.4060, 18759.00
620.5720, 18721.00
621.7390, 18986.00
622.9050, 18923.00
624.0710, 18882.00
625.2370, 19057.00
626.4030, 18966.00
627.5690, 19055.00
628.7340, 19023.00
629.9000, 19148.00
631.0650, 19130.00
632.2300, 19104.00
633.3950, 19230.00
634.5600, 19316.00
635.7240, 19462.00
636.8890, 19535.00
638.0530, 19353.00
639.2170, 19505.00
640.3810, 19569.00
641.5450, 19600.00
642.7080, 19705.86
643.8720, 19634.00
645.0350, 19818.00
646.1980, 19911.00
647.3610, 19911.00
648.5240, 19860.00
649.6870, 19994.00
650.8490, 20173.00
652.0120, 20127.00
653.1740, 20159.00
654.3360, 20200.00
655.4980, 20052.00
656.6600, 20358.00
657.8210, 20361.00
658.9830, 20456.00
660.1440, 20371.00
661.3050, 20474.00
662.4660, 20424.00
663.6270, 20631.00
664.7870, 20663.00
665.9480, 20715.00
667.1080, 20751.00
668.2680, 20745.00
669.4280, 20725.00
670.5880, 20971.00
671.7480, 20984.00
672.9070, 20808.00
674.0670, 20982.00
675.2260, 20931.00
676.3850, 21128.00
677.5440, 21034.00
678.7030, 21218.00
679.8610, 21048.00
681.0200, 21193.00
682.1780, 21290.00
683.3360, 21321.00
684.4940, 21182.00
685.6520, 21514.00
686.8090, 21582.00
687.9670, 21371.00
689.1240, 21574.00
690.2810, 21857.00
691.4380, 21710.00
692.5950, 21696.00
693.7520, 21738.00
694.9080, 21897.00
696.0650, 22031.00
697.2210, 22027.00
698.3770, 22136.00
699.5330, 22108.00
700.6880, 22297.00
701.8440, 22100.00
702.9990, 22259.00
704.1550, 22233.00
705.3100, 22229.00
706.4650, 22189.00
707.6190, 22357.00
708.7740, 22556.00
709.9290, 22647.00
711.0830, 22556.00
712.2370, 22581.00
713.3910, 22496.00
714.5450, 22853.00
715.6980, 22779.00
716.8520, 22820.00
718.0050, 23041.00
719.1580, 22949.00
720.3110, 22943.00
721.4640, 23049.00
722.6170, 23317.00
723.7700, 23279.00
724.9220, 23369.24
726.0740, 23377.00
727.2260, 23438.00
728.3780, 23386.00
729.5300, 23526.00
730.6810, 23696.00
731.8330, 23577.00
732.9840, 23658.00
734.1350, 23623.00
735.2860, 23658.00
736.4370, 23728.45
737.5880, 23696.00
738.7380, 23941.00
739.8880, 23915.00
741.0390, 24164.00
742.1890, 24078.00
743.3380, 24088.00
744.4880, 24250.00
745.6380, 24283.00
746.7870, 24154.00
747.9360, 24343.00
749.0850, 24600.00
750.2340, 24362.00
751.3830, 24446.00
752.5310, 24614.00
753.6800, 24494.00
754.8280, 24515.00
755.9760, 24737.00
757.1240, 24703.00
758.2720, 24700.00
759.4190, 24947.00
760.5670, 24625.00
761.7140, 25066.00
762.8610, 25086.00
764.0080, 24918.00
765.1550, 24962.00
766.3020, 25172.00
767.4480, 25202.00
768.5950, 25149.00
769.7410, 25236.00
770.8870, 25359.00
772.0330, 25400.00
773.1780, 25518.00
774.3240, 25512.00
775.4690, 25484.00
776.6140, 25588.00
777.7590, 25624.00
778.9040, 25623.00
780.0490, 25705.00
781.1940, 25695.00
782.3380, 25949.00
783.4820, 25987.00
784.6260, 26155.00
785.7700, 26211.53
786.9140, 26202.00
788.0580, 26266.00
789.2010, 26297.52
790.3450, 26318.63
791.4880, 26380.00
792.6310, 26394.00
793.7730, 26430.00
794.9160, 26509.00
796.0590, 26485.00
797.2010, 26501.00
798.3430, 26755.00
799.4850, 26795.00
800.6270, 26698.00
801.7690, 27059.00
802.9100, 26804.00
804.0520, 27002.00
805.1930, 26934.00
806.3340, 27013.00
807.4750, 27043.00
808.6160, 27249.00
809.7560, 27258.00
810.8970, 27147.00
812.0370, 27181.00
813.1770, 27482.00
814.3170, 27404.00
815.4570, 27576.00
816.5960, 27651.00
817.7360, 27631.00
818.8750, 27573.00
820.0140, 27701.00
821.1530, 27903.00
822.2920, 27979.00
823.4310, 28098.57
824.5690, 28119.00
825.7070, 28218.00
826.8460, 28281.84
827.9840, 28296.98
829.1220, 28355.00
830.2590, 28358.00
831.3970, 28266.00
832.5340, 28342.00
833.6710, 28226.00
834.8080, 28195.00
835.9450, 28734.00
837.0820, 28436.00
838.2190, 28776.00
839.3550, 28749.00
840.4910, 28693.00
841.6270, 28565.00
842.7630, 28633.82
843.8990, 28658.26
845.0350, 28781.00
846.1700, 28903.00
847.3060, 29091.00
848.4410, 29349.00
849.5760, 29103.00
850.7100, 29391.00
851.8450, 29052.00
852.9800, 29449.00
854.1140, 29228.00
855.2480, 29469.00
856.3820, 29658.00
857.5160, 29518.00
858.6500, 29494.00
859.7830, 29758.00
860.9170, 29830.00
862.0500, 29915.00
863.1830, 29897.00
864.3160, 29996.00
865.4480, 30143.00
866.5810, 30197.00
867.7130, 30185.00
868.8460, 30305.00
869.9780, 30328.00
871.1100, 30181.00
872.2410, 30133.00
873.3730, 30475.00
874.5050, 30499.00
875.6360, 30309.00
876.7670, 30520.00
877.8980, 30510.00
879.0290, 30560.00
880.1590, 30796.00
881.2900, 30649.00
882.4200, 30876.00
883.5500, 30643.00
884.6800, 30804.00
885.8100, 30952.00
886.9400, 31175.00
888.0690, 31033.00
889.1990, 31202.00
890.3280, 31568.00
891.4570, 31172.00
892.5860, 31346.00
893.7140, 31518.00
894.8430, 31604.00
895.9710, 31677.04
897.1000, 31479.00
898.2280, 31643.00
899.3560, 31789.00
900.4830, 31589.00
901.6110, 31882.00
902.7380, 31800.00
903.8660, 31944.00
904.9930, 32222.00
906.1200, 32411.00
907.2460, 31885.00
908.3730, 32263.00
909.5000, 32212.00
910.6260, 32296.00
911.7520, 32351.00
912.8780, 32347.00
914.0040, 32418.00
915.1290, 32441.00
916.2550, 32739.00
917.3800, 32682.00
918.5050, 32559.00
919.6300, 32940.00
920.7550, 32651.00
921.8800, 32779.00
923.0040, 32835.00
924.1290, 33169.00
925.2530, 32828.00
926.3770, 33184.00
927.5010, 33033.00
928.6250, 33099.00
929.7480, 33226.00
930.8720, 33252.00
931.9950, 33484.00
933.1180, 33551.00
934.2410, 33698.00
935.3640, 33801.00
936.4860, 33877.46
937.6090, 33695.00
938.7310, 33939.00
939.8530, 33948.00
940.9750, 33771.00
942.0970, 33957.00
943.2180, 34063.00
944.3400, 33969.00
945.4610, 34325.00
946.5820, 34300.00
947.7030, 34472.00
948.8240, 34566.00
949.9450, 34482.00
951.0650, 34570.00
952.1860, 34654.00
953.3060, 34685.00
954.4260, 35016.00
955.5460, 35331.00
956.6650, 35325.00
957.7850, 35546.00
958.9040, 36311.00
960.0230, 37157.00
961.1420, 38152.00
962.2610, 39290.00
963.3800, 40292.00
964.4990, 40805.00
965.6170, 40368.00
966.7350, 39507.00
967.8530, 38204.00
968.9710, 37137.00
970.0890, 36515.00
971.2070, 36148.00
972.3240, 36059.00
973.4410, 35824.00
974.5580, 35759.45
975.6750, 35568.00
976.7920, 35784.00
977.9090, 35874.00
979.0250, 36046.00
980.1410, 36117.00
981.2580, 36148.00
982.3740, 36229.00
983.4890, 36136.00
984.6050, 36367.00
985.7200, 36221.00
986.8360, 36549.00
987.9510, 36317.00
989.0660, 36550.00
990.1810, 36614.00
991.2950, 36828.00
992.4100, 36592.00
993.5240, 36606.00
994.6390, 36755.00
995.7530, 36714.00
996.8660, 36934.00
997.9800, 36930.00
999.0940, 37162.00
1000.207, 36929.00
1001.320, 36967.00
1002.433, 36942.00
1003.546, 37129.00
1004.659, 37123.00
1005.772, 37354.00
1006.884, 37391.00
1007.996, 37399.00
1009.108, 37410.00
1010.220, 37415.47
1011.332, 37414.99
1012.444, 37453.00
1013.555, 37430.00
1014.666, 37542.00
1015.777, 37604.00
1016.888, 37808.00
1017.999, 37851.00
1019.110, 38046.00
1020.220, 38016.00
1021.331, 38283.00
1022.441, 38196.00
1023.551, 38206.00
1024.661, 38104.00
1025.770, 38329.00
1026.880, 38410.00
1027.989, 38348.00
1029.098, 38545.00
1030.207, 38815.00
1031.316, 38852.00
1032.425, 38707.00
1033.533, 38930.00
1034.642, 38849.00
1035.750, 38968.00
1036.858, 39104.00
1037.966, 39071.00
1039.073, 38913.00
1040.181, 39231.00
1041.288, 39060.00
1042.396, 39435.00
1043.503, 39315.00
1044.610, 39506.00
1045.716, 39272.00
1046.823, 39627.00
1047.929, 39281.00
1049.036, 39580.00
1050.142, 39703.00
1051.248, 39600.00
1052.353, 40100.00
1053.459, 39881.00
1054.564, 39844.00
1055.670, 39861.00
1056.775, 39780.00
1057.880, 40266.00
1058.985, 40314.00
1060.089, 40307.00
1061.194, 40130.00
1062.298, 40508.00
1063.402, 40551.00
1064.506, 40345.00
1065.610, 40474.00
1066.713, 40510.00
1067.817, 40570.00
1068.920, 40601.00
1070.023, 40501.00
1071.126, 40651.00
1072.229, 40603.00
1073.332, 40891.00
1074.435, 41079.00
1075.537, 40810.00
1076.639, 41216.00
1077.741, 41390.00
1078.843, 41145.00
1079.945, 41302.00
1081.046, 41388.00
1082.148, 41471.00
1083.249, 41659.00
1084.350, 41443.00
1085.451, 41360.00
1086.551, 41639.00
1087.652, 41654.00
1088.752, 41737.00
1089.853, 41547.00
1090.953, 41864.00
1092.053, 41740.00
1093.152, 41959.00
1094.252, 41908.00
1095.351, 41850.00
1096.451, 41872.00
1097.550, 42126.00
1098.649, 41898.00
1099.748, 42287.00
1100.846, 42429.00
1101.945, 42482.00
1103.043, 42260.00
1104.141, 42806.00
1105.239, 42270.00
1106.337, 42473.00
1107.434, 42640.00
1108.532, 42568.00
1109.629, 42778.00
1110.726, 42620.00
1111.823, 42644.00
1112.920, 42764.00
1114.017, 42955.00
1115.113, 43203.00
1116.210, 43047.00
1117.306, 43339.00
1118.402, 43221.00
1119.498, 43156.00
1120.593, 43264.00
1121.689, 43301.00
1122.784, 43367.00
1123.879, 43608.00
1124.974, 43470.00
1126.069, 43447.00
1127.164, 43668.00
1128.259, 43559.00
1129.353, 43955.00
1130.447, 43814.00
1131.541, 43870.00
1132.635, 43846.00
1133.729, 43999.00
1134.822, 44189.00
1135.916, 44170.00
1137.009, 44173.00
1138.102, 44353.00
1139.195, 44500.00
1140.288, 44567.00
1141.380, 44601.95
1142.473, 44478.00
1143.565, 44576.00
1144.657, 44623.00
1145.749, 44645.00
1146.841, 44676.00
1147.932, 44737.00
1149.024, 44618.00
1150.115, 44845.00
1151.206, 44742.00
1152.297, 45024.00
1153.388, 45283.00
1154.479, 44993.00
1155.569, 45117.00
1156.659, 45211.00
1157.750, 45373.00
1158.839, 45314.00
1159.929, 45307.00
1161.019, 45547.00
1162.108, 45390.00
1163.198, 45392.00
1164.287, 45224.00
1165.376, 45748.00
1166.465, 45774.00
1167.553, 45829.00
1168.642, 45687.00
1169.730, 46180.00
1170.818, 46026.00
1171.906, 45861.00
1172.994, 46292.00
1174.082, 45982.00
1175.170, 46319.00
1176.257, 46215.00
1177.344, 46193.00
1178.431, 46325.00
1179.518, 46515.00
1180.605, 46691.00
1181.691, 46512.00
1182.778, 46472.00
1183.864, 46454.00
1184.950, 46606.00
1186.036, 46746.00
1187.122, 47128.00
1188.207, 46977.00
1189.292, 46796.00
1190.378, 47228.00
1191.463, 47093.00
1192.548, 46892.00
1193.632, 47389.00
1194.717, 47130.00
1195.801, 47132.00
1196.886, 47280.00
1197.970, 47311.00
1199.054, 47362.01
1200.137, 47480.00
1201.221, 47436.00
1202.305, 47439.00
1203.388, 47442.00
1204.471, 47444.00
1205.554, 47617.00
1206.637, 47672.64
1207.719, 47841.00
1208.802, 47871.00
1209.884, 47915.00
1210.966, 47895.00
1212.048, 47935.00
1213.130, 48231.00
1214.212, 48066.00
1215.293, 48091.00
1216.374, 48009.00
1217.456, 48471.00
1218.536, 48145.00
1219.617, 48159.00
1220.698, 48677.00
1221.778, 48356.00
1222.859, 48458.00
1223.939, 48600.00
1225.019, 48525.00
1226.099, 48559.00
1227.178, 48853.00
1228.258, 48516.00
1229.337, 49022.00
1230.417, 48520.00
1231.496, 49165.00
1232.574, 48714.00
1233.653, 48896.00
1234.732, 49041.00
1235.810, 49263.00
1236.888, 49091.00
1237.966, 49133.00
1239.044, 49272.00
1240.122, 49296.00
1241.199, 49474.00
1242.277, 49360.00
1243.354, 49538.00
1244.431, 49454.00
1245.508, 49717.00
1246.585, 49766.00
1247.661, 49520.00
1248.738, 49937.00
1249.814, 49985.00
1250.890, 49794.00
1251.966, 49753.00
1253.042, 49795.00
1254.117, 49991.00
1255.193, 50175.00
1256.268, 50107.00
1257.343, 50072.00
1258.418, 50450.00
1259.493, 50210.00
1260.567, 50487.00
1261.642, 50327.00
1262.716, 50432.00
1263.790, 50616.00
1264.864, 50344.00
1265.938, 50738.00
1267.011, 50727.00
1268.085, 50789.00
1269.158, 50550.00
1270.231, 50597.00
1271.304, 50709.00
1272.377, 50643.67
1273.450, 50939.00
1274.522, 50761.00
1275.594, 50929.00
1276.666, 51079.00
1277.738, 51069.00
1278.810, 50995.00
1279.882, 51152.00
1280.953, 51304.00
1282.025, 51355.00
1283.096, 51146.00
1284.167, 51333.00
1285.238, 51426.00
1286.308, 51244.00
1287.379, 51552.00
1288.449, 51221.00
1289.519, 51174.00
1290.589, 51500.00
1291.659, 51645.00
1292.729, 51293.00
1293.798, 51272.00
1294.868, 51587.00
1295.937, 51425.00
1297.006, 51622.00
1298.075, 51810.00
1299.143, 51697.00
1300.212, 52252.00
1301.280, 52100.00
1302.348, 51863.00
1303.416, 52195.00
1304.484, 52351.00
1305.552, 52393.00
1306.620, 52379.00
1307.687, 52216.00
1308.754, 52403.00
1309.821, 52725.00
1310.888, 52745.00
1311.955, 52552.00
1313.021, 52960.00
1314.088, 52792.00
1315.154, 52891.00
1316.220, 52889.00
1317.286, 53095.00
1318.352, 53019.00
1319.417, 53316.00
1320.483, 53272.00
1321.548, 53300.69
1322.613, 53204.00
1323.678, 53317.00
1324.743, 53340.00
1325.807, 53416.00
1326.872, 53456.33
1327.936, 53060.00
1329.000, 53471.00
1330.064, 53373.00
1331.128, 53263.00
1332.191, 53913.00
1333.255, 53545.00
1334.318, 53865.00
1335.381, 53778.00
1336.444, 54017.00
1337.507, 53926.00
1338.569, 54098.00
1339.632, 53901.00
1340.694, 54013.00
1341.756, 54030.00
1342.818, 54305.00
1343.880, 54113.00
1344.941, 54294.00
1346.003, 54350.00
1347.064, 54429.00
1348.125, 53973.00
1349.186, 54431.00
1350.247, 54305.00
1351.308, 54736.00
1352.368, 54419.00
1353.428, 54547.00
1354.489, 54559.00
1355.549, 54860.00
1356.608, 54809.00
1357.668, 54665.00
1358.727, 54651.00
1359.787, 54795.00
1360.846, 54621.00
1361.905, 54878.00
1362.964, 55243.00
1364.022, 54692.00
1365.081, 55060.00
1366.139, 54909.00
1367.197, 54926.00
1368.255, 55190.00
1369.313, 55005.00
1370.371, 55252.00
1371.428, 55401.00
1372.486, 55493.00
1373.543, 55635.00
1374.600, 55460.00
1375.657, 55594.00
1376.713, 55648.00
1377.770, 55510.00
1378.826, 55903.00
1379.882, 55487.00
1380.938, 55516.00
1381.994, 55660.00
1383.050, 55821.00
1384.106, 55963.00
1385.161, 55776.00
1386.216, 55691.00
1387.271, 55842.00
1388.326, 55776.99
1389.381, 55771.00
1390.435, 55971.00
1391.490, 56062.00
1392.544, 56325.00
1393.598, 56387.40
1394.652, 56257.00
1395.705, 56446.00
1396.759, 56272.00
1397.812, 56036.00
1398.866, 56274.00
1399.919, 56463.00
1400.972, 56394.00
1402.024, 56375.00
1403.077, 56444.00
1404.129, 56438.29
1405.181, 56656.00
1406.233, 56615.00
1407.285, 56600.00
1408.337, 56868.00
1409.389, 56816.00
1410.440, 56728.00
1411.491, 56640.00
1412.542, 56800.00
1413.593, 56951.00
1414.644, 56813.00
1415.695, 56885.00
1416.745, 57143.00
1417.795, 57184.00
1418.845, 57150.00
1419.895, 57218.00
1420.945, 57464.00
1421.995, 57255.00
1423.044, 57498.00
1424.093, 57426.00
1425.142, 57437.00
1426.191, 57467.00
1427.240, 57512.23
1428.289, 57552.26
1429.337, 57672.00
1430.385, 57590.00
1431.433, 57637.00
1432.481, 57508.00
1433.529, 57675.00
1434.577, 57493.00
1435.624, 57789.00
1436.672, 57754.00
1437.719, 57786.00
1438.766, 58035.00
1439.812, 57905.00
1440.859, 58132.00
1441.905, 58108.00
1442.952, 58344.00
1443.998, 58190.00
1445.044, 58142.00
1446.090, 58380.00
1447.135, 58368.00
1448.181, 58430.44
1449.226, 58487.00
1450.271, 58541.00
1451.316, 58411.00
1452.361, 58504.00
1453.405, 58475.00
1454.450, 58482.00
1455.494, 58499.00
1456.538, 58793.00
1457.582, 59001.00
1458.626, 58758.00
1459.670, 58412.00
1460.713, 58684.00
1461.757, 58735.00
1462.800, 58931.00
1463.843, 58788.00
1464.886, 59029.00
1465.928, 58985.00
1466.971, 59080.00
1468.013, 59195.23
1469.055, 59245.00
1470.097, 59309.00
1471.139, 59221.00
1472.181, 59113.00
1473.222, 59468.00
1474.263, 59045.00
1475.305, 59507.00
1476.346, 59495.00
1477.386, 59234.00
1478.427, 59500.00
1479.468, 59752.00
1480.508, 59481.00
1481.548, 59809.00
1482.588, 59550.00
1483.628, 59625.00
1484.668, 59661.00
1485.707, 59841.00
1486.747, 60108.00
1487.786, 59783.00
1488.825, 59873.00
1489.864, 59758.00
1490.902, 60233.00
1491.941, 60213.00
1492.979, 60087.00
1494.017, 59827.00
1495.055, 59909.00
1496.093, 60105.00
1497.131, 60106.00
1498.168, 60114.00
1499.206, 60241.00
1500.243, 60178.00
1501.280, 60149.00
1502.317, 60188.00
1503.354, 60289.00
1504.390, 60295.00
1505.426, 60488.00
1506.463, 60564.00
1507.499, 60419.00
1508.535, 60592.00
1509.570, 60587.40
1510.606, 60899.00
1511.641, 60672.00
1512.676, 60842.00
1513.711, 60830.00
1514.746, 61053.00
1515.781, 61038.62
1516.816, 61009.00
1517.850, 61066.00
1518.884, 60942.00
1519.918, 60953.00
1520.952, 60953.00
1521.986, 61242.00
1523.019, 61249.00
1524.053, 61114.00
1525.086, 61332.00
1526.119, 61221.00
1527.152, 61205.00
1528.185, 61113.00
1529.217, 61551.00
1530.250, 61228.00
1531.282, 61476.00
1532.314, 61036.00
1533.346, 61372.00
1534.377, 61662.00
1535.409, 61577.00
1536.440, 61551.00
1537.472, 61340.00
1538.503, 61671.00
1539.534, 61605.00
1540.564, 61587.00
1541.595, 61862.00
1542.625, 61867.00
1543.656, 61992.00
1544.686, 61468.00
1545.716, 62005.00
1546.745, 61770.00
1547.775, 61445.00
1548.804, 61863.00
1549.834, 61902.00
1550.863, 61996.00
1551.892, 62138.00
1552.920, 62279.00
1553.949, 61984.00
1554.977, 61993.00
1556.006, 62194.00
1557.034, 62150.00
1558.062, 62320.00
1559.089, 62292.00
1560.117, 62398.82
1561.144, 62560.00
1562.172, 62574.00
1563.199, 62675.00
1564.226, 62723.00
1565.252, 62547.00
1566.279, 62642.00
1567.305, 62598.00
1568.332, 62659.00
1569.358, 62735.00
1570.384, 62832.00
1571.409, 62860.00
##END=



