##NAMES=Fluorapatite
##RRUFFID=R050194
##IDEAL CHEMISTRY=Ca_5_(PO_4_)_3_F
##LOCALITY=Siglo XX mine, Llallagua, Bolivia
##OWNER=RRUFF
##SOURCE=Dave Bunk Minerals
##DESCRIPTION=Purple crystal fragments
##STATUS=The identification of this mineral has been confirmed by X-ray diffraction and chemical analysis
##URL=rruff.info/R050194
##MEASURED CHEMISTRY=Ca_5.00_(P_1.00_O_4_)_3_F_1.00_
##PIN_ID=L01106
##ORIENTATION=Laser parallel to -c* (0 0 -1). Fiducial mark perpendicular to laser is parallel to -a [-1 0 0]
137.8140, 4982.000
139.0430, 5005.000
140.2710, 5012.000
141.5000, 5047.000
142.7280, 5004.000
143.9560, 4959.000
145.1840, 4980.000
146.4120, 5021.000
147.6390, 5050.000
148.8670, 5085.000
150.0940, 5114.000
151.3210, 5074.000
152.5490, 5109.000
153.7750, 5149.000
155.0020, 5245.000
156.2290, 5164.000
157.4550, 5198.000
158.6810, 5219.000
159.9080, 5149.000
161.1340, 5230.000
162.3590, 5197.000
163.5850, 5226.000
164.8110, 5313.000
166.0360, 5282.000
167.2610, 5334.000
168.4860, 5364.000
169.7110, 5401.000
170.9360, 5353.000
172.1610, 5376.000
173.3850, 5423.000
174.6100, 5477.000
175.8340, 5431.000
177.0580, 5435.000
178.2820, 5486.000
179.5050, 5550.000
180.7290, 5507.000
181.9520, 5532.000
183.1760, 5551.000
184.3990, 5542.429
185.6220, 5601.000
186.8450, 5581.000
188.0670, 5598.000
189.2900, 5668.000
190.5120, 5657.947
191.7340, 5721.000
192.9560, 5690.000
194.1780, 5773.000
195.4000, 5784.000
196.6220, 5721.000
197.8430, 5779.000
199.0640, 5801.000
200.2860, 5901.000
201.5070, 5859.000
202.7270, 5860.000
203.9480, 5935.000
205.1690, 5863.000
206.3890, 5952.000
207.6090, 5953.000
208.8290, 6005.000
210.0490, 5963.000
211.2690, 6104.000
212.4890, 6064.000
213.7080, 6072.000
214.9280, 6120.000
216.1470, 6079.000
217.3660, 6146.000
218.5850, 6107.000
219.8030, 6180.000
221.0220, 6209.000
222.2400, 6112.000
223.4590, 6240.000
224.6770, 6216.000
225.8950, 6230.000
227.1120, 6276.000
228.3300, 6285.000
229.5480, 6302.528
230.7650, 6271.000
231.9820, 6348.000
233.1990, 6354.000
234.4160, 6427.000
235.6330, 6408.000
236.8490, 6456.000
238.0660, 6494.000
239.2820, 6555.000
240.4980, 6479.000
241.7140, 6557.000
242.9300, 6501.000
244.1460, 6551.000
245.3610, 6499.000
246.5770, 6522.000
247.7920, 6636.000
249.0070, 6649.000
250.2220, 6593.000
251.4370, 6748.000
252.6510, 6614.000
253.8660, 6645.000
255.0800, 6758.000
256.2940, 6676.000
257.5080, 6789.000
258.7220, 6770.000
259.9360, 6767.000
261.1490, 6843.000
262.3630, 6899.000
263.5760, 6849.000
264.7890, 6879.000
266.0020, 6917.000
267.2150, 7005.000
268.4270, 6949.000
269.6400, 7002.000
270.8520, 7096.000
272.0640, 7007.000
273.2760, 7114.000
274.4880, 7175.000
275.7000, 7088.000
276.9120, 7150.000
278.1230, 7092.000
279.3340, 7207.000
280.5450, 7208.000
281.7560, 7186.000
282.9670, 7227.000
284.1780, 7232.852
285.3880, 7313.000
286.5980, 7276.000
287.8090, 7268.000
289.0190, 7272.000
290.2290, 7408.000
291.4380, 7358.000
292.6480, 7501.000
293.8570, 7399.000
295.0670, 7378.000
296.2760, 7501.000
297.4850, 7488.000
298.6930, 7427.000
299.9020, 7524.000
301.1110, 7484.000
302.3190, 7620.000
303.5270, 7689.000
304.7350, 7663.000
305.9430, 7723.000
307.1510, 7582.000
308.3580, 7647.000
309.5660, 7685.000
310.7730, 7825.000
311.9800, 7808.000
313.1870, 7735.000
314.3940, 7820.000
315.6010, 7891.000
316.8070, 7834.000
318.0130, 7851.000
319.2200, 8001.000
320.4260, 7936.000
321.6310, 7924.000
322.8370, 8110.000
324.0430, 8013.000
325.2480, 8103.000
326.4540, 8048.000
327.6590, 7990.000
328.8640, 8087.000
330.0680, 8132.000
331.2730, 8207.000
332.4780, 8229.096
333.6820, 8147.000
334.8860, 8268.000
336.0900, 8148.000
337.2940, 8184.000
338.4980, 8328.000
339.7010, 8348.000
340.9050, 8236.000
342.1080, 8417.000
343.3110, 8357.000
344.5140, 8383.000
345.7170, 8402.000
346.9200, 8408.000
348.1220, 8474.000
349.3240, 8534.000
350.5270, 8541.000
351.7290, 8527.000
352.9310, 8554.000
354.1320, 8579.000
355.3340, 8588.000
356.5350, 8667.000
357.7370, 8655.000
358.9380, 8674.000
360.1390, 8607.000
361.3400, 8762.000
362.5400, 8724.000
363.7410, 8919.000
364.9410, 8805.000
366.1410, 8868.000
367.3410, 8785.000
368.5410, 8828.000
369.7410, 8862.942
370.9400, 8953.000
372.1400, 8951.000
373.3390, 9002.000
374.5380, 9030.000
375.7370, 9047.000
376.9360, 9077.704
378.1350, 9060.000
379.3330, 9103.000
380.5310, 9106.245
381.7300, 9089.000
382.9280, 9138.000
384.1260, 9221.000
385.3230, 9203.000
386.5210, 9164.000
387.7180, 9266.000
388.9160, 9315.000
390.1130, 9284.000
391.3100, 9349.000
392.5060, 9426.000
393.7030, 9366.000
394.9000, 9471.000
396.0960, 9500.000
397.2920, 9502.000
398.4880, 9633.000
399.6840, 9526.000
400.8800, 9656.000
402.0750, 9634.000
403.2710, 9686.000
404.4660, 9625.000
405.6610, 9822.000
406.8560, 9808.000
408.0510, 9779.000
409.2450, 9676.000
410.4400, 9853.000
411.6340, 9866.000
412.8280, 9741.000
414.0220, 9905.000
415.2160, 9967.000
416.4100, 9914.000
417.6030, 9922.000
418.7970, 9967.000
419.9900, 9888.000
421.1830, 10017.00
422.3760, 10131.00
423.5690, 10052.00
424.7610, 10111.00
425.9540, 10126.00
427.1460, 10238.00
428.3380, 10244.00
429.5300, 10342.00
430.7220, 10360.00
431.9140, 10222.00
433.1050, 10276.00
434.2970, 10422.00
435.4880, 10419.00
436.6790, 10540.00
437.8700, 10564.92
439.0610, 10460.00
440.2510, 10589.00
441.4420, 10579.00
442.6320, 10534.00
443.8220, 10654.00
445.0120, 10682.00
446.2020, 10736.00
447.3910, 10759.00
448.5810, 10772.00
449.7700, 10866.00
450.9600, 10805.00
452.1490, 10790.00
453.3370, 10843.00
454.5260, 10923.00
455.7150, 10895.00
456.9030, 10963.00
458.0910, 10986.00
459.2800, 11074.00
460.4670, 10978.00
461.6550, 10983.00
462.8430, 11064.00
464.0300, 11137.00
465.2180, 11196.00
466.4050, 11263.00
467.5920, 11226.00
468.7790, 11316.00
469.9650, 11207.00
471.1520, 11292.00
472.3380, 11358.00
473.5250, 11316.00
474.7110, 11390.00
475.8970, 11392.20
477.0820, 11488.00
478.2680, 11420.00
479.4540, 11419.00
480.6390, 11428.04
481.8240, 11447.01
483.0090, 11494.00
484.1940, 11542.00
485.3780, 11610.00
486.5630, 11659.00
487.7470, 11675.00
488.9320, 11770.00
490.1160, 11778.00
491.3000, 11734.00
492.4830, 11808.00
493.6670, 11822.00
494.8500, 11977.00
496.0340, 12075.00
497.2170, 11864.00
498.4000, 12016.00
499.5820, 12207.00
500.7650, 12086.00
501.9480, 11913.00
503.1300, 12037.00
504.3120, 12206.00
505.4940, 12223.00
506.6760, 12274.00
507.8580, 12213.00
509.0390, 12307.00
510.2210, 12346.00
511.4020, 12266.00
512.5830, 12390.00
513.7640, 12446.00
514.9450, 12417.00
516.1250, 12595.00
517.3060, 12668.00
518.4860, 12440.00
519.6660, 12550.00
520.8460, 12664.00
522.0260, 12798.00
523.2060, 12816.51
524.3850, 12853.00
525.5650, 12814.00
526.7440, 12800.00
527.9230, 12726.00
529.1020, 12767.00
530.2810, 12810.00
531.4590, 12801.00
532.6380, 12959.00
533.8160, 12966.00
534.9940, 13071.00
536.1720, 12986.00
537.3500, 13204.00
538.5270, 13107.00
539.7050, 13253.00
540.8820, 13107.00
542.0590, 13320.00
543.2360, 13266.00
544.4130, 13211.00
545.5900, 13258.00
546.7660, 13396.00
547.9430, 13401.00
549.1190, 13521.00
550.2950, 13529.00
551.4710, 13507.00
552.6470, 13427.00
553.8220, 13760.00
554.9980, 13570.00
556.1730, 13724.00
557.3480, 13564.00
558.5230, 13647.00
559.6980, 13808.00
560.8730, 13731.00
562.0470, 13810.00
563.2220, 13858.00
564.3960, 13830.00
565.5700, 13825.00
566.7440, 14047.00
567.9170, 13896.00
569.0910, 14191.00
570.2640, 14114.00
571.4380, 14085.00
572.6110, 14244.00
573.7840, 14205.00
574.9570, 14152.00
576.1290, 14237.00
577.3020, 14379.00
578.4740, 14620.00
579.6460, 14593.00
580.8180, 14598.00
581.9900, 14520.00
583.1620, 14571.59
584.3330, 14568.97
585.5040, 14653.00
586.6760, 14623.00
587.8470, 14672.00
589.0180, 14700.00
590.1880, 14698.93
591.3590, 14693.00
592.5290, 14724.00
593.7000, 14884.00
594.8700, 14915.00
596.0400, 14989.00
597.2090, 15083.00
598.3790, 15062.00
599.5490, 15040.00
600.7180, 14975.00
601.8870, 15158.00
603.0560, 15244.00
604.2250, 15249.00
605.3940, 15361.00
606.5620, 15466.00
607.7300, 15441.00
608.8990, 15275.00
610.0670, 15486.00
611.2350, 15386.00
612.4020, 15463.00
613.5700, 15475.00
614.7370, 15534.00
615.9050, 15634.00
617.0720, 15418.00
618.2390, 15718.00
619.4060, 15677.00
620.5720, 15696.00
621.7390, 15925.00
622.9050, 15763.00
624.0710, 15814.00
625.2370, 15905.00
626.4030, 15814.00
627.5690, 15810.00
628.7340, 16089.00
629.9000, 16060.00
631.0650, 15948.00
632.2300, 16278.00
633.3950, 16118.00
634.5600, 16145.00
635.7240, 16367.00
636.8890, 16202.00
638.0530, 16345.00
639.2170, 16289.00
640.3810, 16430.00
641.5450, 16513.00
642.7080, 16483.00
643.8720, 16537.00
645.0350, 16536.00
646.1980, 16559.00
647.3610, 16548.00
648.5240, 16671.00
649.6870, 16644.00
650.8490, 16837.00
652.0120, 16845.00
653.1740, 16793.00
654.3360, 16911.00
655.4980, 16900.00
656.6600, 16797.00
657.8210, 17061.00
658.9830, 16949.00
660.1440, 17152.00
661.3050, 16946.00
662.4660, 17143.00
663.6270, 17176.00
664.7870, 17543.00
665.9480, 17389.00
667.1080, 17459.00
668.2680, 17375.00
669.4280, 17476.00
670.5880, 17466.00
671.7480, 17377.00
672.9070, 17507.00
674.0670, 17490.65
675.2260, 17485.00
676.3850, 17577.00
677.5440, 17715.00
678.7030, 17747.00
679.8610, 17819.98
681.0200, 17876.00
682.1780, 17837.00
683.3360, 17902.00
684.4940, 17774.00
685.6520, 18018.00
686.8090, 18011.00
687.9670, 18134.00
689.1240, 18078.00
690.2810, 18174.00
691.4380, 18286.00
692.5950, 18314.94
693.7520, 18242.00
694.9080, 18435.00
696.0650, 18380.00
697.2210, 18356.00
698.3770, 18468.00
699.5330, 18449.00
700.6880, 18436.00
701.8440, 18441.00
702.9990, 18511.71
704.1550, 18672.00
705.3100, 18650.00
706.4650, 18776.00
707.6190, 18759.00
708.7740, 18839.00
709.9290, 18905.30
711.0830, 18873.00
712.2370, 19077.00
713.3910, 19038.00
714.5450, 19204.00
715.6980, 19193.00
716.8520, 19334.00
718.0050, 19205.00
719.1580, 19246.00
720.3110, 19334.00
721.4640, 19340.00
722.6170, 19430.78
723.7700, 19512.00
724.9220, 19556.00
726.0740, 19629.00
727.2260, 19632.00
728.3780, 19645.00
729.5300, 19684.00
730.6810, 19715.06
731.8330, 19842.00
732.9840, 19832.00
734.1350, 19836.00
735.2860, 19943.00
736.4370, 19893.00
737.5880, 20176.00
738.7380, 19943.00
739.8880, 20144.00
741.0390, 20103.00
742.1890, 20107.00
743.3380, 20224.00
744.4880, 20247.00
745.6380, 20212.00
746.7870, 20355.00
747.9360, 20450.00
749.0850, 20518.00
750.2340, 20637.00
751.3830, 20535.00
752.5310, 20658.00
753.6800, 20510.00
754.8280, 20736.00
755.9760, 20580.00
757.1240, 20764.00
758.2720, 21112.00
759.4190, 20852.00
760.5670, 20924.00
761.7140, 21070.00
762.8610, 20934.00
764.0080, 21132.00
765.1550, 21024.00
766.3020, 21322.00
767.4480, 21328.00
768.5950, 21211.00
769.7410, 21185.00
770.8870, 21258.00
772.0330, 21512.00
773.1780, 21477.00
774.3240, 21580.00
775.4690, 21389.00
776.6140, 21689.00
777.7590, 21774.00
778.9040, 21552.00
780.0490, 21763.00
781.1940, 21741.00
782.3380, 22030.00
783.4820, 21870.00
784.6260, 21998.00
785.7700, 21892.00
786.9140, 21998.00
788.0580, 22017.00
789.2010, 22017.00
790.3450, 22093.84
791.4880, 22169.00
792.6310, 22204.00
793.7730, 22302.00
794.9160, 22391.00
796.0590, 22408.00
797.2010, 22421.00
798.3430, 22462.00
799.4850, 22461.01
800.6270, 22653.00
801.7690, 22462.00
802.9100, 22673.00
804.0520, 22666.00
805.1930, 22855.00
806.3340, 22901.00
807.4750, 22752.00
808.6160, 23157.00
809.7560, 22983.00
810.8970, 23095.00
812.0370, 23205.00
813.1770, 23221.00
814.3170, 23365.00
815.4570, 23390.00
816.5960, 23317.00
817.7360, 23344.00
818.8750, 23604.00
820.0140, 23452.00
821.1530, 23393.00
822.2920, 23801.00
823.4310, 23581.00
824.5690, 23837.00
825.7070, 23653.00
826.8460, 23822.00
827.9840, 23738.00
829.1220, 23794.00
830.2590, 23844.00
831.3970, 23857.00
832.5340, 23945.17
833.6710, 24031.42
834.8080, 24105.00
835.9450, 24229.00
837.0820, 24324.00
838.2190, 24369.00
839.3550, 24437.00
840.4910, 24429.00
841.6270, 24480.00
842.7630, 24560.00
843.8990, 24479.00
845.0350, 24568.00
846.1700, 24625.00
847.3060, 24628.00
848.4410, 24780.00
849.5760, 24728.00
850.7100, 24750.00
851.8450, 24847.00
852.9800, 24929.00
854.1140, 25079.00
855.2480, 25204.00
856.3820, 25043.00
857.5160, 25258.00
858.6500, 25127.00
859.7830, 25230.00
860.9170, 25333.00
862.0500, 25212.00
863.1830, 25437.00
864.3160, 25454.00
865.4480, 25433.00
866.5810, 25657.00
867.7130, 25756.00
868.8460, 25668.00
869.9780, 25731.00
871.1100, 25745.00
872.2410, 25953.00
873.3730, 25787.00
874.5050, 26102.00
875.6360, 26182.00
876.7670, 26103.00
877.8980, 26149.00
879.0290, 26237.00
880.1590, 26364.00
881.2900, 26390.00
882.4200, 26327.00
883.5500, 26179.00
884.6800, 26575.00
885.8100, 26623.00
886.9400, 26490.00
888.0690, 26731.00
889.1990, 26620.00
890.3280, 26563.00
891.4570, 26609.00
892.5860, 26776.00
893.7140, 26755.00
894.8430, 26895.00
895.9710, 26925.00
897.1000, 27192.00
898.2280, 27042.00
899.3560, 27160.00
900.4830, 27106.00
901.6110, 27088.00
902.7380, 27279.00
903.8660, 27298.00
904.9930, 27477.00
906.1200, 27526.50
907.2460, 27410.00
908.3730, 27641.00
909.5000, 27663.00
910.6260, 27726.00
911.7520, 27603.00
912.8780, 27675.00
914.0040, 27694.00
915.1290, 27712.00
916.2550, 28175.00
917.3800, 27896.00
918.5050, 28326.00
919.6300, 28095.00
920.7550, 28355.00
921.8800, 28315.00
923.0040, 28319.00
924.1290, 28380.00
925.2530, 28365.00
926.3770, 28505.00
927.5010, 28567.00
928.6250, 28465.00
929.7480, 28761.00
930.8720, 28530.00
931.9950, 28788.00
933.1180, 28746.00
934.2410, 28927.00
935.3640, 28736.00
936.4860, 29054.00
937.6090, 28918.00
938.7310, 28942.00
939.8530, 29191.00
940.9750, 29114.00
942.0970, 29167.00
943.2180, 29421.00
944.3400, 29482.00
945.4610, 29375.00
946.5820, 29483.00
947.7030, 29502.00
948.8240, 29537.00
949.9450, 29729.00
951.0650, 29739.00
952.1860, 29757.00
953.3060, 30071.00
954.4260, 29835.00
955.5460, 30340.00
956.6650, 29965.00
957.7850, 30429.00
958.9040, 30329.00
960.0230, 30606.00
961.1420, 31046.00
962.2610, 31403.00
963.3800, 31778.00
964.4990, 32139.00
965.6170, 32120.03
966.7350, 32337.00
967.8530, 31818.00
968.9710, 31579.00
970.0890, 31058.00
971.2070, 31063.00
972.3240, 31047.00
973.4410, 30909.00
974.5580, 30828.00
975.6750, 30957.00
976.7920, 30922.00
977.9090, 31192.00
979.0250, 31037.00
980.1410, 31382.00
981.2580, 31298.00
982.3740, 30988.00
983.4890, 31330.00
984.6050, 31303.00
985.7200, 31345.00
986.8360, 31485.00
987.9510, 31729.00
989.0660, 31667.00
990.1810, 31445.00
991.2950, 31655.00
992.4100, 31831.00
993.5240, 31892.00
994.6390, 32034.00
995.7530, 31892.00
996.8660, 31974.00
997.9800, 32018.00
999.0940, 32018.62
1000.207, 32310.00
1001.320, 32159.00
1002.433, 32309.00
1003.546, 32470.00
1004.659, 32281.00
1005.772, 32653.00
1006.884, 32461.00
1007.996, 32516.00
1009.108, 32531.00
1010.220, 32806.00
1011.332, 32875.00
1012.444, 32896.00
1013.555, 32860.00
1014.666, 32973.00
1015.777, 32948.00
1016.888, 33080.00
1017.999, 33066.00
1019.110, 33122.58
1020.220, 33170.00
1021.331, 33225.00
1022.441, 33362.00
1023.551, 33446.00
1024.661, 33402.00
1025.770, 33538.00
1026.880, 33675.00
1027.989, 33497.00
1029.098, 33630.00
1030.207, 33758.00
1031.316, 33573.00
1032.425, 34047.00
1033.533, 33965.00
1034.642, 34005.00
1035.750, 33970.00
1036.858, 34203.00
1037.966, 34079.00
1039.073, 34296.00
1040.181, 34315.00
1041.288, 34313.00
1042.396, 34436.00
1043.503, 34284.00
1044.610, 34426.00
1045.716, 34659.00
1046.823, 34456.00
1047.929, 34607.00
1049.036, 34712.00
1050.142, 34665.00
1051.248, 34975.00
1052.353, 35098.00
1053.459, 35121.00
1054.564, 35150.00
1055.670, 35034.00
1056.775, 35144.00
1057.880, 35235.00
1058.985, 35162.00
1060.089, 35427.00
1061.194, 35476.00
1062.298, 35340.00
1063.402, 35459.00
1064.506, 35429.00
1065.610, 35482.99
1066.713, 35538.00
1067.817, 35625.00
1068.920, 35746.00
1070.023, 35801.00
1071.126, 35967.00
1072.229, 36058.00
1073.332, 36041.00
1074.435, 36128.00
1075.537, 35959.00
1076.639, 36508.00
1077.741, 36302.00
1078.843, 36529.00
1079.945, 36446.00
1081.046, 36650.00
1082.148, 36690.00
1083.249, 36500.00
1084.350, 36648.00
1085.451, 36587.00
1086.551, 36661.00
1087.652, 36816.00
1088.752, 36998.00
1089.853, 37160.00
1090.953, 37211.91
1092.053, 36801.00
1093.152, 37309.00
1094.252, 37077.00
1095.351, 37152.00
1096.451, 37221.00
1097.550, 37341.00
1098.649, 37392.24
1099.748, 37434.00
1100.846, 37459.00
1101.945, 37570.00
1103.043, 37468.00
1104.141, 37637.00
1105.239, 37701.00
1106.337, 37648.00
1107.434, 37752.00
1108.532, 37901.00
1109.629, 37769.00
1110.726, 37883.00
1111.823, 38041.00
1112.920, 37962.00
1114.017, 38044.00
1115.113, 38445.00
1116.210, 38351.00
1117.306, 38572.00
1118.402, 38835.00
1119.498, 38375.00
1120.593, 38531.00
1121.689, 38580.00
1122.784, 38924.00
1123.879, 38879.00
1124.974, 39207.00
1126.069, 39080.00
1127.164, 38798.00
1128.259, 38928.00
1129.353, 39146.00
1130.447, 39280.00
1131.541, 39376.86
1132.635, 39467.85
1133.729, 39498.00
1134.822, 39563.00
1135.916, 39540.00
1137.009, 39598.00
1138.102, 39765.00
1139.195, 39633.00
1140.288, 39486.00
1141.380, 39841.00
1142.473, 39846.00
1143.565, 39760.00
1144.657, 40013.00
1145.749, 39897.00
1146.841, 40123.00
1147.932, 40166.82
1149.024, 40104.00
1150.115, 40273.00
1151.206, 40307.00
1152.297, 40295.00
1153.388, 40574.00
1154.479, 40556.75
1155.569, 40549.00
1156.659, 40682.00
1157.750, 40650.00
1158.839, 40653.00
1159.929, 40732.00
1161.019, 40717.00
1162.108, 40732.00
1163.198, 40949.00
1164.287, 41041.36
1165.376, 40957.00
1166.465, 41325.00
1167.553, 41409.00
1168.642, 41349.00
1169.730, 41274.00
1170.818, 41556.00
1171.906, 41504.00
1172.994, 41606.00
1174.082, 41591.00
1175.170, 41544.00
1176.257, 41708.00
1177.344, 41708.00
1178.431, 41812.00
1179.518, 41973.00
1180.605, 41968.12
1181.691, 42048.97
1182.778, 42038.00
1183.864, 42104.00
1184.950, 42132.00
1186.036, 42156.00
1187.122, 42065.00
1188.207, 42288.00
1189.292, 42287.00
1190.378, 42266.00
1191.463, 42521.00
1192.548, 42651.00
1193.632, 42538.00
1194.717, 42778.00
1195.801, 42749.00
1196.886, 42786.00
1197.970, 42973.00
1199.054, 42727.00
1200.137, 43031.00
1201.221, 43122.00
1202.305, 43081.00
1203.388, 43258.18
1204.471, 43295.00
1205.554, 43357.00
1206.637, 43358.00
1207.719, 43321.00
1208.802, 43281.00
1209.884, 43368.00
1210.966, 43557.00
1212.048, 43526.11
1213.130, 43481.00
1214.212, 43628.00
1215.293, 43600.00
1216.374, 43717.00
1217.456, 43689.00
1218.536, 44009.00
1219.617, 43884.00
1220.698, 44430.00
1221.778, 44174.00
1222.859, 44160.00
1223.939, 44104.00
1225.019, 44495.00
1226.099, 44146.00
1227.178, 44472.00
1228.258, 44489.00
1229.337, 44510.00
1230.417, 44618.00
1231.496, 44548.00
1232.574, 44623.97
1233.653, 44564.00
1234.732, 44758.00
1235.810, 44653.00
1236.888, 44845.00
1237.966, 44886.00
1239.044, 44938.00
1240.122, 45189.00
1241.199, 45455.00
1242.277, 45390.10
1243.354, 45176.00
1244.431, 45337.00
1245.508, 45482.00
1246.585, 45498.00
1247.661, 45624.00
1248.738, 45538.00
1249.814, 45615.00
1250.890, 45594.00
1251.966, 45622.00
1253.042, 46012.00
1254.117, 45812.00
1255.193, 45937.00
1256.268, 45816.00
1257.343, 45895.00
1258.418, 46271.00
1259.493, 45933.00
1260.567, 46249.00
1261.642, 46041.73
1262.716, 46523.82
1263.790, 46818.70
1264.864, 46936.42
1265.938, 46346.38
1267.011, 46670.21
1268.085, 46627.84
1269.158, 46570.39
1270.231, 47022.86
1271.304, 46535.71
1272.377, 46980.09
1273.450, 47052.62
1274.522, 47295.29
1275.594, 47169.43
1276.666, 47157.40
1277.738, 47514.01
1278.810, 47666.50
1279.882, 47498.21
1280.953, 47751.65
1282.025, 47251.58
1283.096, 47412.71
1284.167, 47859.14
1285.238, 47709.35
1286.308, 47969.46
1287.379, 48073.50
1288.449, 47467.89
1289.519, 48096.32
1290.589, 48191.07
1291.659, 47737.86
1292.729, 48324.00
1293.798, 47946.27
1294.868, 47912.63
1295.937, 48137.83
1297.006, 48093.13
1298.075, 48473.96
1299.143, 48444.80
1300.212, 48379.07
1301.280, 48473.12
1302.348, 48114.24
1303.416, 48595.64
1304.484, 48503.06
1305.552, 48695.79
1306.620, 48953.20
1307.687, 48715.37
1308.754, 49001.78
1309.821, 48475.22
1310.888, 48628.90
1311.955, 48709.33
1313.021, 49224.51
1314.088, 48701.91
1315.154, 48836.65
1316.220, 49251.27
1317.286, 49274.26
1318.352, 49461.00
1319.417, 49162.91
1320.483, 49320.29
1321.548, 49352.08
1322.613, 49681.00
1323.678, 49503.00
1324.743, 49432.00
1325.807, 49924.00
1326.872, 49805.00
1327.936, 49639.00
1329.000, 49974.00
1330.064, 50052.00
1331.128, 50198.00
1332.191, 50043.00
1333.255, 50134.00
1334.318, 50279.00
1335.381, 49937.00
1336.444, 50196.00
1337.507, 50103.00
1338.569, 50344.00
1339.632, 50472.00
1340.694, 50561.00
1341.756, 50682.00
1342.818, 50557.00
1343.880, 50638.00
1344.941, 50850.00
1346.003, 50527.00
1347.064, 50966.00
1348.125, 50944.00
1349.186, 51234.00
1350.247, 51134.00
1351.308, 51189.00
1352.368, 51169.00
1353.428, 51198.97
1354.489, 51211.50
1355.549, 51321.00
1356.608, 51265.00
1357.668, 51361.00
1358.727, 51466.00
1359.787, 51471.00
1360.846, 51554.09
1361.905, 51715.00
1362.964, 51693.00
1364.022, 51651.00
1365.081, 51812.00
1366.139, 51679.00
1367.197, 51825.00
1368.255, 52003.00
1369.313, 52168.00
1370.371, 52132.00
1371.428, 51825.00
1372.486, 52180.00
1373.543, 52513.00
1374.600, 52088.00
1375.657, 52524.00
1376.713, 52177.00
1377.770, 52147.00
1378.826, 52456.00
1379.882, 52590.00
1380.938, 52474.00
1381.994, 52788.00
1383.050, 52632.00
1384.106, 52526.00
1385.161, 52848.00
1386.216, 52783.00
1387.271, 52983.00
1388.326, 52566.00
1389.381, 53043.00
1390.435, 52808.00
1391.490, 52803.00
1392.544, 53041.00
1393.598, 53057.00
1394.652, 53235.00
1395.705, 53283.00
1396.759, 53302.89
1397.812, 53461.00
1398.866, 53367.00
1399.919, 53485.00
1400.972, 53639.00
1402.024, 53320.00
1403.077, 53948.00
1404.129, 53637.00
1405.181, 53905.00
1406.233, 53845.00
1407.285, 53926.00
1408.337, 54026.00
1409.389, 54012.43
1410.440, 53881.00
1411.491, 53994.00
1412.542, 54151.00
1413.593, 53991.00
1414.644, 54280.00
1415.695, 54188.00
1416.745, 54324.00
1417.795, 54298.00
1418.845, 54360.14
1419.895, 54421.00
1420.945, 54513.00
1421.995, 54643.00
1423.044, 54756.98
1424.093, 54872.00
1425.142, 54766.00
1426.191, 54870.00
1427.240, 54631.00
1428.289, 55033.00
1429.337, 54810.00
1430.385, 55091.00
1431.433, 55059.00
1432.481, 55027.00
1433.529, 55191.00
1434.577, 55155.00
1435.624, 55279.00
1436.672, 55122.00
1437.719, 55542.00
1438.766, 55243.00
1439.812, 55621.00
1440.859, 55629.00
1441.905, 55658.00
1442.952, 55463.00
1443.998, 55895.00
1445.044, 55560.00
1446.090, 55684.00
1447.135, 55845.00
1448.181, 55805.00
1449.226, 55841.00
1450.271, 55832.00
1451.316, 56077.00
1452.361, 56063.00
1453.405, 56178.00
1454.450, 56285.40
1455.494, 56302.00
1456.538, 56456.00
1457.582, 56552.00
1458.626, 56643.00
1459.670, 56221.00
1460.713, 56561.00
1461.757, 56011.00
1462.800, 56453.00
1463.843, 57058.00
1464.886, 56619.00
1465.928, 56800.00
1466.971, 56711.00
1468.013, 56751.00
1469.055, 56807.00
1470.097, 56814.00
1471.139, 56904.47
1472.181, 57199.00
1473.222, 57110.00
1474.263, 57365.00
1475.305, 57571.00
1476.346, 57394.00
1477.386, 57551.00
1478.427, 57339.00
1479.468, 57400.00
1480.508, 57435.00
1481.548, 57545.00
1482.588, 57580.00
1483.628, 57626.87
1484.668, 57852.00
1485.707, 57738.00
1486.747, 57766.00
1487.786, 57904.00
1488.825, 58068.00
1489.864, 58182.00
1490.902, 57843.00
1491.941, 58276.00
1492.979, 58127.00
1494.017, 58435.00
1495.055, 58140.00
1496.093, 58002.00
1497.131, 58286.00
1498.168, 58286.00
1499.206, 58091.00
1500.243, 58410.00
1501.280, 58525.00
1502.317, 58506.00
1503.354, 58455.00
1504.390, 58720.00
1505.426, 58579.00
1506.463, 58847.00
1507.499, 58874.00
1508.535, 58673.00
1509.570, 59085.00
1510.606, 58867.00
1511.641, 59079.00
1512.676, 58735.00
1513.711, 59074.00
1514.746, 59263.00
1515.781, 59370.00
1516.816, 59495.83
1517.850, 59213.00
1518.884, 59549.00
1519.918, 59530.00
1520.952, 59505.00
1521.986, 59770.00
1523.019, 59377.00
1524.053, 59624.00
1525.086, 59754.00
1526.119, 59480.00
1527.152, 59625.00
1528.185, 60014.00
1529.217, 59982.00
1530.250, 60166.00
1531.282, 60126.00
1532.314, 60044.00
1533.346, 59976.00
1534.377, 60210.00
1535.409, 60179.00
1536.440, 60354.00
1537.472, 60316.00
1538.503, 60363.00
1539.534, 60432.00
1540.564, 60215.00
1541.595, 60355.00
1542.625, 60811.00
1543.656, 60379.00
1544.686, 60416.00
1545.716, 60131.00
1546.745, 60729.00
1547.775, 60567.00
1548.804, 60532.00
1549.834, 60879.00
1550.863, 60681.00
1551.892, 60947.00
1552.920, 60851.00
1553.949, 60707.00
1554.977, 61065.00
1556.006, 60782.00
1557.034, 60992.00
1558.062, 61223.00
1559.089, 61100.00
1560.117, 61062.00
1561.144, 61249.00
1562.172, 61017.00
1563.199, 61252.00
1564.226, 61474.00
1565.252, 61144.00
1566.279, 61255.00
1567.305, 61202.00
1568.332, 61589.00
1569.358, 61295.00
1570.384, 61336.00
1571.409, 61973.00
##END=



