##NAMES=Fluorapatite
##RRUFFID=R060070
##IDEAL CHEMISTRY=Ca_5_(PO_4_)_3_F
##LOCALITY=Panasqueira, Portugal
##OWNER=RRUFF
##SOURCE=Dave Bunk
##DESCRIPTION=Green hexagonal tablet
##STATUS=The identification of this mineral has been confirmed by X-ray diffraction and chemical analysis
##URL=rruff.info/R060070
##MEASURED CHEMISTRY=(Ca_0.99_Mn_0.01_)_5_(P_1.00_O_4_)_3_F_1.00_
##PIN_ID=L01870
##ORIENTATION=Laser parallel to -c* (0 0 -1). Fiducial mark perpendicular to laser is parallel to -a [-1 0 0]
127.9790, 4065.000
129.2090, 4008.000
130.4390, 4134.000
131.6680, 4138.000
132.8980, 4167.000
134.1270, 4280.000
135.3560, 4170.000
136.5850, 4229.000
137.8140, 4330.000
139.0430, 4328.000
140.2710, 4301.000
141.5000, 4392.000
142.7280, 4392.000
143.9560, 4399.000
145.1840, 4452.000
146.4120, 4452.833
147.6390, 4424.000
148.8670, 4492.000
150.0940, 4472.000
151.3210, 4489.000
152.5490, 4543.000
153.7750, 4530.000
155.0020, 4525.000
156.2290, 4560.000
157.4550, 4506.000
158.6810, 4601.000
159.9080, 4587.000
161.1340, 4636.000
162.3590, 4650.000
163.5850, 4710.000
164.8110, 4684.000
166.0360, 4749.000
167.2610, 4697.000
168.4860, 4698.000
169.7110, 4749.000
170.9360, 4821.000
172.1610, 4811.000
173.3850, 4854.000
174.6100, 4904.000
175.8340, 4892.000
177.0580, 4828.000
178.2820, 4898.000
179.5050, 4922.000
180.7290, 4994.000
181.9520, 4913.000
183.1760, 5000.000
184.3990, 5027.000
185.6220, 4996.000
186.8450, 5051.000
188.0670, 5112.000
189.2900, 5124.000
190.5120, 5141.000
191.7340, 5103.000
192.9560, 5068.000
194.1780, 5120.000
195.4000, 5177.000
196.6220, 5134.000
197.8430, 5173.000
199.0640, 5218.000
200.2860, 5279.000
201.5070, 5229.000
202.7270, 5229.000
203.9480, 5307.000
205.1690, 5453.000
206.3890, 5314.000
207.6090, 5391.000
208.8290, 5495.000
210.0490, 5349.000
211.2690, 5407.000
212.4890, 5482.000
213.7080, 5485.000
214.9280, 5571.000
216.1470, 5558.052
217.3660, 5455.000
218.5850, 5539.000
219.8030, 5578.000
221.0220, 5567.000
222.2400, 5657.000
223.4590, 5672.000
224.6770, 5636.000
225.8950, 5588.000
227.1120, 5621.000
228.3300, 5683.000
229.5480, 5758.000
230.7650, 5707.000
231.9820, 5790.000
233.1990, 5727.000
234.4160, 5777.000
235.6330, 5748.000
236.8490, 5732.000
238.0660, 5853.000
239.2820, 5958.000
240.4980, 5909.000
241.7140, 5917.000
242.9300, 5897.000
244.1460, 5876.000
245.3610, 5943.000
246.5770, 5948.000
247.7920, 6073.000
249.0070, 6021.000
250.2220, 6073.000
251.4370, 6099.000
252.6510, 5982.000
253.8660, 6186.000
255.0800, 6170.000
256.2940, 6199.000
257.5080, 6323.000
258.7220, 6158.000
259.9360, 6228.000
261.1490, 6212.000
262.3630, 6313.000
263.5760, 6328.613
264.7890, 6364.000
266.0020, 6400.000
267.2150, 6400.000
268.4270, 6439.000
269.6400, 6394.000
270.8520, 6370.000
272.0640, 6379.000
273.2760, 6512.000
274.4880, 6475.000
275.7000, 6536.000
276.9120, 6453.000
278.1230, 6533.000
279.3340, 6488.000
280.5450, 6602.000
281.7560, 6565.000
282.9670, 6660.000
284.1780, 6661.000
285.3880, 6682.000
286.5980, 6729.000
287.8090, 6695.000
289.0190, 6710.000
290.2290, 6690.459
291.4380, 6782.000
292.6480, 6657.000
293.8570, 6803.000
295.0670, 6843.000
296.2760, 6783.000
297.4850, 6848.000
298.6930, 6878.000
299.9020, 7039.000
301.1110, 6979.000
302.3190, 7031.000
303.5270, 7116.000
304.7350, 7043.000
305.9430, 7001.000
307.1510, 7101.000
308.3580, 7026.000
309.5660, 7088.000
310.7730, 7162.000
311.9800, 7174.000
313.1870, 7040.000
314.3940, 7084.000
315.6010, 7190.000
316.8070, 7222.000
318.0130, 7363.000
319.2200, 7315.000
320.4260, 7415.000
321.6310, 7398.000
322.8370, 7426.628
324.0430, 7394.000
325.2480, 7472.000
326.4540, 7497.000
327.6590, 7507.000
328.8640, 7483.000
330.0680, 7535.000
331.2730, 7471.000
332.4780, 7619.000
333.6820, 7625.000
334.8860, 7708.000
336.0900, 7687.000
337.2940, 7608.000
338.4980, 7735.000
339.7010, 7696.000
340.9050, 7607.000
342.1080, 7699.000
343.3110, 7676.000
344.5140, 7817.000
345.7170, 7847.000
346.9200, 7814.000
348.1220, 7766.000
349.3240, 7741.000
350.5270, 7927.000
351.7290, 7842.000
352.9310, 8037.000
354.1320, 7970.000
355.3340, 8052.000
356.5350, 8017.000
357.7370, 7981.000
358.9380, 8125.000
360.1390, 8054.000
361.3400, 8146.000
362.5400, 8185.000
363.7410, 8240.000
364.9410, 8229.000
366.1410, 8255.000
367.3410, 8328.000
368.5410, 8292.000
369.7410, 8381.000
370.9400, 8424.000
372.1400, 8350.000
373.3390, 8508.000
374.5380, 8426.000
375.7370, 8450.000
376.9360, 8448.000
378.1350, 8521.000
379.3330, 8522.000
380.5310, 8495.000
381.7300, 8637.000
382.9280, 8644.000
384.1260, 8669.000
385.3230, 8686.000
386.5210, 8671.000
387.7180, 8768.000
388.9160, 8677.000
390.1130, 8840.000
391.3100, 8759.000
392.5060, 8863.000
393.7030, 8939.000
394.9000, 8948.000
396.0960, 9011.913
397.2920, 8866.000
398.4880, 9095.000
399.6840, 8976.000
400.8800, 9062.000
402.0750, 9003.000
403.2710, 9160.000
404.4660, 8998.000
405.6610, 9131.000
406.8560, 9181.000
408.0510, 9345.000
409.2450, 9193.000
410.4400, 9249.000
411.6340, 9274.000
412.8280, 9364.000
414.0220, 9446.000
415.2160, 9407.000
416.4100, 9434.000
417.6030, 9448.000
418.7970, 9411.000
419.9900, 9442.000
421.1830, 9508.000
422.3760, 9475.000
423.5690, 9623.000
424.7610, 9637.000
425.9540, 9625.000
427.1460, 9665.000
428.3380, 9665.000
429.5300, 9716.000
430.7220, 9777.000
431.9140, 9662.000
433.1050, 9688.000
434.2970, 9859.000
435.4880, 9809.000
436.6790, 9991.000
437.8700, 10090.00
439.0610, 10020.00
440.2510, 10033.00
441.4420, 10046.00
442.6320, 10130.00
443.8220, 10190.00
445.0120, 10263.00
446.2020, 10194.00
447.3910, 10153.00
448.5810, 10241.00
449.7700, 10263.00
450.9600, 10347.00
452.1490, 10379.23
453.3370, 10256.00
454.5260, 10404.00
455.7150, 10405.00
456.9030, 10320.00
458.0910, 10452.00
459.2800, 10483.00
460.4670, 10456.00
461.6550, 10515.00
462.8430, 10545.00
464.0300, 10536.41
465.2180, 10599.00
466.4050, 10539.00
467.5920, 10608.00
468.7790, 10617.18
469.9650, 10762.00
471.1520, 10807.00
472.3380, 10801.00
473.5250, 10951.00
474.7110, 11033.00
475.8970, 10918.00
477.0820, 10992.00
478.2680, 11008.00
479.4540, 11046.00
480.6390, 11070.00
481.8240, 11211.00
483.0090, 11103.00
484.1940, 11053.00
485.3780, 11373.00
486.5630, 11157.00
487.7470, 11274.00
488.9320, 11253.00
490.1160, 11337.00
491.3000, 11334.00
492.4830, 11364.00
493.6670, 11412.00
494.8500, 11470.00
496.0340, 11486.00
497.2170, 11544.40
498.4000, 11672.00
499.5820, 11604.00
500.7650, 11634.00
501.9480, 11592.00
503.1300, 11709.00
504.3120, 11805.00
505.4940, 11646.00
506.6760, 11712.00
507.8580, 11705.00
509.0390, 11865.00
510.2210, 11909.00
511.4020, 12013.00
512.5830, 12005.00
513.7640, 11950.00
514.9450, 11999.00
516.1250, 12016.56
517.3060, 12180.00
518.4860, 12139.00
519.6660, 12199.00
520.8460, 12311.00
522.0260, 12284.00
523.2060, 12283.00
524.3850, 12421.00
525.5650, 12378.51
526.7440, 12370.00
527.9230, 12396.00
529.1020, 12429.00
530.2810, 12424.00
531.4590, 12530.00
532.6380, 12630.00
533.8160, 12573.00
534.9940, 12719.00
536.1720, 12629.00
537.3500, 12781.00
538.5270, 12837.00
539.7050, 12748.00
540.8820, 12876.00
542.0590, 12826.00
543.2360, 12931.00
544.4130, 12933.00
545.5900, 13000.00
546.7660, 12956.00
547.9430, 13000.00
549.1190, 13165.00
550.2950, 13068.00
551.4710, 13155.00
552.6470, 13063.00
553.8220, 13282.00
554.9980, 13367.00
556.1730, 13236.00
557.3480, 13341.00
558.5230, 13563.00
559.6980, 13469.00
560.8730, 13466.00
562.0470, 13462.00
563.2220, 13526.00
564.3960, 13608.00
565.5700, 13574.00
566.7440, 13668.00
567.9170, 13749.00
569.0910, 13733.00
570.2640, 13726.00
571.4380, 13961.00
572.6110, 13845.00
573.7840, 13992.00
574.9570, 13931.00
576.1290, 13999.00
577.3020, 14195.00
578.4740, 14192.00
579.6460, 14031.00
580.8180, 14201.00
581.9900, 14326.00
583.1620, 14173.00
584.3330, 14219.00
585.5040, 14313.00
586.6760, 14308.00
587.8470, 14471.00
589.0180, 14528.00
590.1880, 14357.00
591.3590, 14491.00
592.5290, 14500.00
593.7000, 14680.00
594.8700, 14609.00
596.0400, 14753.00
597.2090, 14679.00
598.3790, 14785.00
599.5490, 14792.00
600.7180, 14813.00
601.8870, 14806.00
603.0560, 14967.00
604.2250, 14948.00
605.3940, 14956.00
606.5620, 15087.00
607.7300, 15058.00
608.8990, 15098.00
610.0670, 15087.00
611.2350, 15112.00
612.4020, 15157.44
613.5700, 15212.86
614.7370, 15248.00
615.9050, 15395.00
617.0720, 15433.00
618.2390, 15573.00
619.4060, 15546.00
620.5720, 15356.00
621.7390, 15618.00
622.9050, 15526.00
624.0710, 15619.00
625.2370, 15749.00
626.4030, 15702.00
627.5690, 15775.00
628.7340, 15883.00
629.9000, 15987.00
631.0650, 15951.00
632.2300, 15863.00
633.3950, 15819.00
634.5600, 16045.00
635.7240, 15985.00
636.8890, 16191.00
638.0530, 16111.00
639.2170, 16118.00
640.3810, 16150.00
641.5450, 16299.00
642.7080, 16329.00
643.8720, 16397.00
645.0350, 16326.00
646.1980, 16511.00
647.3610, 16483.00
648.5240, 16478.00
649.6870, 16666.00
650.8490, 16698.00
652.0120, 16795.00
653.1740, 16700.00
654.3360, 16872.00
655.4980, 16898.00
656.6600, 16856.00
657.8210, 16930.00
658.9830, 16875.00
660.1440, 16936.00
661.3050, 16937.00
662.4660, 17109.00
663.6270, 17169.00
664.7870, 17163.00
665.9480, 17186.00
667.1080, 17299.00
668.2680, 17287.00
669.4280, 17392.00
670.5880, 17555.00
671.7480, 17532.00
672.9070, 17441.00
674.0670, 17564.00
675.2260, 17622.00
676.3850, 17732.00
677.5440, 17731.00
678.7030, 17831.67
679.8610, 18049.00
681.0200, 17915.00
682.1780, 17924.00
683.3360, 17814.00
684.4940, 18046.00
685.6520, 17897.00
686.8090, 17963.00
687.9670, 18109.00
689.1240, 17917.00
690.2810, 18365.00
691.4380, 18146.00
692.5950, 18165.00
693.7520, 18397.00
694.9080, 18412.00
696.0650, 18348.00
697.2210, 18438.00
698.3770, 18529.00
699.5330, 18550.00
700.6880, 18637.90
701.8440, 18625.00
702.9990, 18728.00
704.1550, 18829.00
705.3100, 18805.00
706.4650, 18846.00
707.6190, 18777.00
708.7740, 18894.00
709.9290, 19024.00
711.0830, 19192.00
712.2370, 19057.00
713.3910, 19367.00
714.5450, 19378.00
715.6980, 19109.00
716.8520, 19273.00
718.0050, 19379.00
719.1580, 19405.00
720.3110, 19505.98
721.4640, 19400.00
722.6170, 19572.00
723.7700, 19503.00
724.9220, 19447.00
726.0740, 19637.00
727.2260, 19728.00
728.3780, 19963.00
729.5300, 19834.00
730.6810, 19937.00
731.8330, 20007.00
732.9840, 19861.00
734.1350, 19839.00
735.2860, 19945.00
736.4370, 20171.00
737.5880, 20234.00
738.7380, 20231.00
739.8880, 20325.00
741.0390, 20491.00
742.1890, 20285.00
743.3380, 20328.00
744.4880, 20328.00
745.6380, 20584.00
746.7870, 20631.00
747.9360, 20654.00
749.0850, 20762.00
750.2340, 20842.00
751.3830, 20665.00
752.5310, 20717.00
753.6800, 21070.00
754.8280, 20929.00
755.9760, 20997.00
757.1240, 21150.00
758.2720, 21026.00
759.4190, 21140.00
760.5670, 21289.00
761.7140, 21478.00
762.8610, 21340.00
764.0080, 21320.00
765.1550, 21384.00
766.3020, 21391.00
767.4480, 21504.00
768.5950, 21444.00
769.7410, 21533.96
770.8870, 21685.00
772.0330, 21644.00
773.1780, 21730.00
774.3240, 21773.04
775.4690, 21835.00
776.6140, 21999.00
777.7590, 22056.00
778.9040, 22167.00
780.0490, 22220.00
781.1940, 22127.00
782.3380, 22419.00
783.4820, 22125.00
784.6260, 22344.00
785.7700, 22387.00
786.9140, 22365.00
788.0580, 22303.00
789.2010, 22400.00
790.3450, 22583.00
791.4880, 22689.00
792.6310, 22780.00
793.7730, 22726.00
794.9160, 23011.00
796.0590, 22798.00
797.2010, 22809.00
798.3430, 22987.00
799.4850, 23013.00
800.6270, 23207.00
801.7690, 23236.02
802.9100, 23267.00
804.0520, 23295.00
805.1930, 23294.00
806.3340, 23271.00
807.4750, 23480.00
808.6160, 23259.00
809.7560, 23425.00
810.8970, 23667.00
812.0370, 23479.00
813.1770, 23612.00
814.3170, 23571.00
815.4570, 23815.00
816.5960, 23982.00
817.7360, 23843.00
818.8750, 23873.00
820.0140, 23970.00
821.1530, 24175.00
822.2920, 24203.00
823.4310, 24190.00
824.5690, 24308.00
825.7070, 24103.00
826.8460, 24165.00
827.9840, 24526.00
829.1220, 24464.00
830.2590, 24853.00
831.3970, 24535.00
832.5340, 24786.00
833.6710, 24604.00
834.8080, 24755.00
835.9450, 24798.00
837.0820, 24905.00
838.2190, 24841.00
839.3550, 24871.00
840.4910, 25117.00
841.6270, 25250.00
842.7630, 25058.00
843.8990, 25351.00
845.0350, 25141.00
846.1700, 25402.00
847.3060, 25349.00
848.4410, 25605.00
849.5760, 25454.00
850.7100, 25503.00
851.8450, 25619.00
852.9800, 25473.00
854.1140, 25736.00
855.2480, 25894.00
856.3820, 25644.00
857.5160, 25971.00
858.6500, 26012.00
859.7830, 25801.00
860.9170, 26136.00
862.0500, 26132.00
863.1830, 26330.00
864.3160, 26089.00
865.4480, 26364.00
866.5810, 26371.00
867.7130, 26418.00
868.8460, 26553.00
869.9780, 26576.00
871.1100, 26517.00
872.2410, 26550.00
873.3730, 26733.00
874.5050, 26950.00
875.6360, 27037.00
876.7670, 26963.00
877.8980, 26973.00
879.0290, 27027.00
880.1590, 27108.00
881.2900, 27155.00
882.4200, 27315.00
883.5500, 27348.96
884.6800, 27445.06
885.8100, 27419.00
886.9400, 27517.00
888.0690, 27436.00
889.1990, 27274.00
890.3280, 27480.00
891.4570, 27760.00
892.5860, 27593.00
893.7140, 27793.00
894.8430, 28054.00
895.9710, 27747.00
897.1000, 28056.00
898.2280, 28123.00
899.3560, 28033.00
900.4830, 28066.00
901.6110, 28017.00
902.7380, 28201.00
903.8660, 28230.00
904.9930, 28426.00
906.1200, 28584.00
907.2460, 28535.00
908.3730, 28657.00
909.5000, 28514.00
910.6260, 28529.00
911.7520, 28699.00
912.8780, 28910.00
914.0040, 28821.00
915.1290, 29034.00
916.2550, 29067.06
917.3800, 29003.00
918.5050, 29154.00
919.6300, 29114.00
920.7550, 29077.00
921.8800, 29103.00
923.0040, 29330.00
924.1290, 29288.00
925.2530, 29426.00
926.3770, 29552.00
927.5010, 29409.00
928.6250, 29750.00
929.7480, 29625.00
930.8720, 29821.00
931.9950, 29812.00
933.1180, 29903.00
934.2410, 29787.00
935.3640, 29924.00
936.4860, 29930.00
937.6090, 30110.00
938.7310, 30116.00
939.8530, 30381.00
940.9750, 30225.00
942.0970, 30509.00
943.2180, 30483.00
944.3400, 30280.00
945.4610, 30604.00
946.5820, 30606.00
947.7030, 30607.00
948.8240, 30784.00
949.9450, 30910.00
951.0650, 31074.00
952.1860, 31152.00
953.3060, 31279.97
954.4260, 31146.00
955.5460, 31468.00
956.6650, 31405.00
957.7850, 31441.00
958.9040, 31804.00
960.0230, 31668.00
961.1420, 31970.00
962.2610, 32446.00
963.3800, 32491.00
964.4990, 32619.00
965.6170, 32596.00
966.7350, 32612.00
967.8530, 32393.00
968.9710, 32472.00
970.0890, 32491.00
971.2070, 32402.00
972.3240, 32455.25
973.4410, 32467.20
974.5580, 32400.00
975.6750, 32549.00
976.7920, 32426.00
977.9090, 32451.00
979.0250, 32708.00
980.1410, 32286.00
981.2580, 32522.00
982.3740, 32477.00
983.4890, 32809.00
984.6050, 32758.00
985.7200, 32620.00
986.8360, 32693.00
987.9510, 32897.00
989.0660, 33170.00
990.1810, 32893.00
991.2950, 32872.00
992.4100, 33164.00
993.5240, 33352.00
994.6390, 33437.00
995.7530, 33485.00
996.8660, 33483.00
997.9800, 33565.00
999.0940, 33421.00
1000.207, 33702.00
1001.320, 33577.00
1002.433, 33731.00
1003.546, 33712.00
1004.659, 33943.00
1005.772, 33983.66
1006.884, 33989.00
1007.996, 34144.00
1009.108, 34159.00
1010.220, 34221.00
1011.332, 34414.00
1012.444, 34211.00
1013.555, 34370.00
1014.666, 34656.00
1015.777, 34526.00
1016.888, 34787.00
1017.999, 34793.00
1019.110, 34833.00
1020.220, 34761.00
1021.331, 34957.00
1022.441, 34915.00
1023.551, 35190.00
1024.661, 35256.00
1025.770, 35095.00
1026.880, 35090.00
1027.989, 35015.00
1029.098, 35071.75
1030.207, 35468.00
1031.316, 35335.00
1032.425, 35438.00
1033.533, 35746.00
1034.642, 35746.00
1035.750, 35626.00
1036.858, 35954.00
1037.966, 35844.00
1039.073, 35776.00
1040.181, 36113.00
1041.288, 35891.00
1042.396, 35926.00
1043.503, 36024.00
1044.610, 36211.00
1045.716, 36241.00
1046.823, 36391.00
1047.929, 36344.00
1049.036, 36403.00
1050.142, 36669.00
1051.248, 36635.00
1052.353, 36872.00
1053.459, 36831.00
1054.564, 36784.00
1055.670, 36981.00
1056.775, 37029.00
1057.880, 36954.00
1058.985, 37045.00
1060.089, 37243.00
1061.194, 37173.00
1062.298, 37480.00
1063.402, 37283.00
1064.506, 37499.00
1065.610, 37430.00
1066.713, 37563.00
1067.817, 37695.00
1068.920, 37779.00
1070.023, 37796.00
1071.126, 37764.00
1072.229, 37843.11
1073.332, 37980.00
1074.435, 38035.00
1075.537, 37908.00
1076.639, 38201.00
1077.741, 38048.00
1078.843, 38400.00
1079.945, 38482.00
1081.046, 38330.00
1082.148, 38478.00
1083.249, 38315.00
1084.350, 38702.00
1085.451, 38601.00
1086.551, 38639.00
1087.652, 38757.00
1088.752, 38893.00
1089.853, 38933.00
1090.953, 39023.00
1092.053, 39096.00
1093.152, 38977.00
1094.252, 38972.00
1095.351, 39214.00
1096.451, 39418.00
1097.550, 39552.00
1098.649, 39432.00
1099.748, 39677.00
1100.846, 39580.00
1101.945, 39610.00
1103.043, 39778.00
1104.141, 39823.00
1105.239, 39921.00
1106.337, 39995.99
1107.434, 40099.00
1108.532, 40104.00
1109.629, 40086.00
1110.726, 40119.00
1111.823, 40231.00
1112.920, 40284.29
1114.017, 40429.00
1115.113, 40536.00
1116.210, 40585.02
1117.306, 40698.80
1118.402, 40682.00
1119.498, 40780.00
1120.593, 40811.00
1121.689, 40676.00
1122.784, 40945.00
1123.879, 41055.00
1124.974, 41039.00
1126.069, 41253.00
1127.164, 41259.00
1128.259, 41457.00
1129.353, 41124.00
1130.447, 41568.00
1131.541, 41453.00
1132.635, 41784.00
1133.729, 41789.00
1134.822, 41625.00
1135.916, 41852.00
1137.009, 41807.00
1138.102, 41969.00
1139.195, 42071.00
1140.288, 41974.00
1141.380, 41735.00
1142.473, 42168.00
1143.565, 42282.00
1144.657, 42080.00
1145.749, 42201.00
1146.841, 42434.00
1147.932, 42443.00
1149.024, 42422.00
1150.115, 42500.00
1151.206, 42545.68
1152.297, 42710.00
1153.388, 42769.00
1154.479, 42851.00
1155.569, 42924.43
1156.659, 42977.00
1157.750, 42983.00
1158.839, 43077.00
1159.929, 43027.00
1161.019, 43291.00
1162.108, 43194.00
1163.198, 42767.00
1164.287, 43266.00
1165.376, 43967.00
1166.465, 43696.00
1167.553, 43691.00
1168.642, 43671.00
1169.730, 43935.00
1170.818, 43808.00
1171.906, 43944.88
1172.994, 44301.00
1174.082, 44128.00
1175.170, 43920.00
1176.257, 44077.00
1177.344, 44108.00
1178.431, 44192.00
1179.518, 44211.00
1180.605, 44510.00
1181.691, 44553.00
1182.778, 44777.00
1183.864, 44819.28
1184.950, 44786.00
1186.036, 44880.00
1187.122, 44889.00
1188.207, 44946.00
1189.292, 44819.00
1190.378, 45121.00
1191.463, 45226.00
1192.548, 45102.00
1193.632, 45366.00
1194.717, 45143.00
1195.801, 45210.00
1196.886, 45800.00
1197.970, 45205.00
1199.054, 45559.00
1200.137, 45303.00
1201.221, 45598.00
1202.305, 45837.00
1203.388, 45881.00
1204.471, 45531.00
1205.554, 46221.00
1206.637, 45976.00
1207.719, 45741.00
1208.802, 46071.00
1209.884, 46301.00
1210.966, 46425.00
1212.048, 46211.00
1213.130, 46478.00
1214.212, 46467.91
1215.293, 46580.00
1216.374, 46632.00
1217.456, 46734.00
1218.536, 46822.00
1219.617, 46843.00
1220.698, 46845.85
1221.778, 46818.00
1222.859, 46800.00
1223.939, 46870.00
1225.019, 46918.00
1226.099, 47386.00
1227.178, 47346.00
1228.258, 47431.00
1229.337, 47349.00
1230.417, 47516.00
1231.496, 47425.00
1232.574, 47673.00
1233.653, 47614.00
1234.732, 47629.00
1235.810, 47847.00
1236.888, 47875.00
1237.966, 47950.00
1239.044, 47846.00
1240.122, 48122.00
1241.199, 48034.00
1242.277, 48308.00
1243.354, 48385.00
1244.431, 48447.00
1245.508, 48282.00
1246.585, 48536.00
1247.661, 48642.00
1248.738, 48502.00
1249.814, 48636.00
1250.890, 48755.00
1251.966, 48737.00
1253.042, 48775.00
1254.117, 48659.00
1255.193, 48742.00
1256.268, 48935.00
1257.343, 48851.00
1258.418, 49072.00
1259.493, 49028.00
1260.567, 49066.00
1261.642, 49130.00
1262.716, 49299.00
1263.790, 49499.00
1264.864, 49363.00
1265.938, 49529.00
1267.011, 49506.00
1268.085, 49706.00
1269.158, 49464.00
1270.231, 49543.00
1271.304, 49873.00
1272.377, 49484.00
1273.450, 49393.00
1274.522, 50168.00
1275.594, 49661.00
1276.666, 50201.00
1277.738, 50141.00
1278.810, 50275.00
1279.882, 50544.00
1280.953, 50438.00
1282.025, 50399.00
1283.096, 50037.00
1284.167, 50250.00
1285.238, 50182.00
1286.308, 50137.00
1287.379, 50271.00
1288.449, 50438.00
1289.519, 50468.93
1290.589, 50680.00
1291.659, 50659.00
1292.729, 50778.00
1293.798, 50898.00
1294.868, 50921.00
1295.937, 50849.00
1297.006, 50733.00
1298.075, 51184.00
1299.143, 50965.00
1300.212, 51266.00
1301.280, 50852.00
1302.348, 51378.00
1303.416, 51321.00
1304.484, 51578.00
1305.552, 51588.00
1306.620, 51574.00
1307.687, 51675.00
1308.754, 51800.00
1309.821, 51854.00
1310.888, 52019.00
1311.955, 52009.00
1313.021, 52020.00
1314.088, 52272.00
1315.154, 52327.00
1316.220, 52650.00
1317.286, 52325.00
1318.352, 52761.00
1319.417, 52529.00
1320.483, 52621.00
1321.548, 52695.00
1322.613, 52682.00
1323.678, 52600.00
1324.743, 52966.00
1325.807, 52886.00
1326.872, 53172.00
1327.936, 53059.00
1329.000, 52902.00
1330.064, 53338.00
1331.128, 53426.00
1332.191, 53292.00
1333.255, 53210.00
1334.318, 53446.00
1335.381, 53391.00
1336.444, 53652.00
1337.507, 53766.00
1338.569, 53740.00
1339.632, 53841.00
1340.694, 53830.00
1341.756, 53664.00
1342.818, 53922.00
1343.880, 53940.00
1344.941, 54163.00
1346.003, 53861.00
1347.064, 54183.00
1348.125, 54190.00
1349.186, 54121.00
1350.247, 54343.00
1351.308, 54374.00
1352.368, 54643.00
1353.428, 54667.08
1354.489, 54699.99
1355.549, 54794.00
1356.608, 54649.00
1357.668, 54764.00
1358.727, 54675.00
1359.787, 55056.00
1360.846, 55028.00
1361.905, 55018.00
1362.964, 55304.00
1364.022, 55042.00
1365.081, 55509.00
1366.139, 55213.00
1367.197, 55393.00
1368.255, 55515.00
1369.313, 55184.00
1370.371, 55509.00
1371.428, 55456.00
1372.486, 55423.00
1373.543, 55386.00
1374.600, 55460.44
1375.657, 55955.00
1376.713, 55648.00
1377.770, 55705.00
1378.826, 55798.00
1379.882, 55506.00
1380.938, 56012.00
1381.994, 55912.00
1383.050, 56037.00
1384.106, 55708.00
1385.161, 56057.00
1386.216, 56337.00
1387.271, 56237.00
1388.326, 56198.00
1389.381, 56422.00
1390.435, 56709.00
1391.490, 56369.00
1392.544, 56650.00
1393.598, 56603.00
1394.652, 56856.00
1395.705, 56784.00
1396.759, 56815.00
1397.812, 56611.00
1398.866, 56973.00
1399.919, 56712.00
1400.972, 56996.00
1402.024, 57274.00
1403.077, 57238.00
1404.129, 57051.00
1405.181, 56975.00
1406.233, 57339.00
1407.285, 57324.00
1408.337, 57621.00
1409.389, 57448.00
1410.440, 57456.00
1411.491, 57508.00
1412.542, 57789.00
1413.593, 57584.00
1414.644, 57837.00
1415.695, 57482.00
1416.745, 57566.00
1417.795, 57933.00
1418.845, 57877.00
1419.895, 58058.00
1420.945, 57913.00
1421.995, 58025.00
1423.044, 58163.00
1424.093, 58317.00
1425.142, 58497.00
1426.191, 58520.29
1427.240, 58504.00
1428.289, 58562.00
1429.337, 58405.00
1430.385, 58407.00
1431.433, 58843.00
1432.481, 58317.00
1433.529, 58747.00
1434.577, 58557.00
1435.624, 58648.00
1436.672, 58877.00
1437.719, 58859.00
1438.766, 58762.00
1439.812, 58974.00
1440.859, 59076.00
1441.905, 59117.00
1442.952, 59224.00
1443.998, 59478.00
1445.044, 59238.00
1446.090, 59457.00
1447.135, 59292.00
1448.181, 59321.00
1449.226, 59448.00
1450.271, 59637.00
1451.316, 59864.00
1452.361, 59471.00
1453.405, 59685.00
1454.450, 59819.00
1455.494, 59556.00
1456.538, 59710.00
1457.582, 59808.00
1458.626, 59651.00
1459.670, 60208.00
1460.713, 60060.00
1461.757, 60111.00
1462.800, 60113.00
1463.843, 60230.00
1464.886, 60228.19
1465.928, 60298.41
1466.971, 60255.00
1468.013, 60466.00
1469.055, 60450.00
1470.097, 60635.00
1471.139, 60435.00
1472.181, 60703.00
1473.222, 60770.00
1474.263, 60712.00
1475.305, 60862.00
1476.346, 60677.00
1477.386, 61021.00
1478.427, 60863.00
1479.468, 60946.00
1480.508, 61074.00
1481.548, 61121.00
1482.588, 61148.00
1483.628, 61027.00
1484.668, 61199.00
1485.707, 61429.00
1486.747, 61250.00
1487.786, 61167.00
1488.825, 61394.00
1489.864, 61364.00
1490.902, 61660.00
1491.941, 61732.00
1492.979, 61494.00
1494.017, 61900.00
1495.055, 61651.00
1496.093, 61881.00
1497.131, 62026.00
1498.168, 61685.00
1499.206, 61651.00
1500.243, 61897.00
1501.280, 61961.00
1502.317, 61988.00
1503.354, 62020.00
1504.390, 62187.00
1505.426, 61864.00
1506.463, 62256.00
1507.499, 62581.00
1508.535, 62506.00
1509.570, 62316.00
1510.606, 62426.00
1511.641, 62221.00
1512.676, 62494.00
1513.711, 62454.00
1514.746, 62671.00
1515.781, 62753.00
1516.816, 62599.00
1517.850, 62730.00
1518.884, 62876.00
1519.918, 62811.00
1520.952, 63309.00
1521.986, 63020.00
1523.019, 62801.00
1524.053, 63187.00
1525.086, 62909.00
1526.119, 63093.00
1527.152, 63421.00
1528.185, 63244.00
1529.217, 63427.00
1530.250, 63170.00
1531.282, 63491.00
1532.314, 63490.00
1533.346, 63407.00
1534.377, 63294.00
1535.409, 63722.00
1536.440, 63719.00
1537.472, 63483.00
1538.503, 63794.00
1539.534, 63608.00
1540.564, 63221.00
1541.595, 63756.00
1542.625, 63668.00
1543.656, 63750.00
1544.686, 63922.00
1545.716, 63968.00
1546.745, 63808.00
1547.775, 64045.00
1548.804, 63848.00
1549.834, 64007.00
1550.863, 64092.00
1551.892, 64122.00
1552.920, 64082.00
1553.949, 64491.00
1554.977, 64212.00
1556.006, 64178.00
1557.034, 64226.00
1558.062, 64612.00
1559.089, 64393.00
1560.117, 64533.00
1561.144, 64416.00
1562.172, 64614.00
1563.199, 64517.00
1564.226, 64722.00
1565.252, 64758.00
1566.279, 64820.00
1567.305, 64690.00
1568.332, 64636.00
1569.358, 65158.00
1570.384, 64789.00
1571.409, 65535.00
##END=



