##NAMES=Fluorapatite
##RRUFFID=R060333
##IDEAL CHEMISTRY=Ca_5_(PO_4_)_3_F
##LOCALITY=Lovozero Massif, Kola Peninsula, U.S.S.R.
##OWNER=RRUFF
##SOURCE=Michael Scott
##DESCRIPTION=Colorless fragment associated with red villiaumite
##STATUS=The identification of this mineral has been confirmed by X-ray diffraction and chemical analysis
##URL=rruff.info/R060333
##MEASURED CHEMISTRY=(Ca_4.29_Sr_0.47_Na_0.12_Ce_0.07_La_0.06_)_Σ=5_((P_0.99_Si_0.01_)_Σ=1_O_4_)_3_F_1.00_
##PIN_ID=L00852
##ORIENTATION=Laser parallel to c* (0 0 1). Fiducial mark perpendicular to laser is parallel to -a [-1 0 0]
164.2210, 4879.000
165.4520, 4880.000
166.6830, 4874.000
167.9140, 4843.000
169.1450, 4871.000
170.3760, 4843.000
171.6060, 4877.000
172.8360, 4843.000
174.0660, 4821.000
175.2960, 4864.000
176.5260, 4946.000
177.7550, 4818.000
178.9840, 4875.000
180.2130, 4991.000
181.4420, 4898.000
182.6710, 4932.000
183.9000, 4925.000
185.1280, 4955.000
186.3560, 4964.000
187.5840, 4981.000
188.8120, 5010.000
190.0400, 4998.000
191.2670, 5035.000
192.4950, 5019.274
193.7220, 5070.000
194.9490, 5024.000
196.1750, 5063.000
197.4020, 5130.000
198.6280, 5156.000
199.8540, 5123.000
201.0800, 5208.000
202.3060, 5199.000
203.5320, 5283.000
204.7570, 5257.000
205.9830, 5299.000
207.2080, 5233.000
208.4330, 5345.000
209.6570, 5330.000
210.8820, 5401.000
212.1060, 5298.000
213.3310, 5396.000
214.5550, 5354.000
215.7780, 5376.000
217.0020, 5479.000
218.2260, 5439.000
219.4490, 5438.000
220.6720, 5439.000
221.8950, 5551.000
223.1180, 5545.000
224.3400, 5615.000
225.5630, 5582.000
226.7850, 5578.000
228.0070, 5636.000
229.2290, 5685.000
230.4500, 5654.000
231.6720, 5776.000
232.8930, 5748.000
234.1140, 5793.000
235.3350, 5838.000
236.5560, 5891.000
237.7770, 5922.000
238.9970, 5921.000
240.2170, 5893.000
241.4370, 5868.000
242.6570, 5886.000
243.8770, 5934.000
245.0960, 6052.000
246.3160, 5953.000
247.5350, 6022.000
248.7540, 6136.000
249.9730, 6152.000
251.1910, 6224.082
252.4100, 6264.772
253.6280, 6308.000
254.8460, 6333.000
256.0640, 6358.000
257.2810, 6401.000
258.4990, 6398.000
259.7160, 6447.000
260.9330, 6388.000
262.1500, 6454.000
263.3670, 6394.000
264.5840, 6394.000
265.8000, 6432.000
267.0170, 6471.000
268.2330, 6511.000
269.4490, 6454.000
270.6640, 6337.000
271.8800, 6303.000
273.0950, 6402.000
274.3100, 6287.000
275.5260, 6373.000
276.7400, 6329.000
277.9550, 6367.000
279.1690, 6339.000
280.3840, 6397.000
281.5980, 6461.000
282.8120, 6376.000
284.0260, 6353.000
285.2390, 6436.000
286.4530, 6483.000
287.6660, 6460.000
288.8790, 6568.000
290.0920, 6475.000
291.3040, 6540.000
292.5170, 6631.000
293.7290, 6602.000
294.9410, 6537.000
296.1530, 6595.000
297.3650, 6666.000
298.5770, 6629.000
299.7880, 6734.000
301.0000, 6761.000
302.2110, 6788.000
303.4220, 6767.000
304.6320, 6920.000
305.8430, 6946.000
307.0530, 6913.000
308.2630, 6796.000
309.4730, 6809.000
310.6830, 6917.000
311.8930, 6866.000
313.1030, 6843.000
314.3120, 6831.000
315.5210, 6878.000
316.7300, 6939.000
317.9390, 6897.000
319.1470, 6919.000
320.3560, 6929.340
321.5640, 6951.000
322.7720, 6952.000
323.9800, 6937.000
325.1880, 6968.000
326.3950, 6971.000
327.6030, 6920.000
328.8100, 7059.000
330.0170, 7065.000
331.2240, 7059.000
332.4300, 6935.000
333.6370, 7054.000
334.8430, 7022.000
336.0490, 7038.000
337.2550, 7133.000
338.4610, 7109.000
339.6660, 7130.000
340.8720, 7221.000
342.0770, 7174.000
343.2820, 7099.000
344.4870, 7182.000
345.6920, 7134.000
346.8960, 7265.000
348.1010, 7274.000
349.3050, 7320.000
350.5090, 7211.000
351.7130, 7379.000
352.9160, 7296.000
354.1200, 7314.000
355.3230, 7331.000
356.5260, 7366.000
357.7290, 7350.000
358.9320, 7500.000
360.1350, 7624.000
361.3370, 7499.000
362.5390, 7451.000
363.7410, 7490.000
364.9430, 7540.000
366.1450, 7619.000
367.3470, 7596.000
368.5480, 7690.000
369.7490, 7660.000
370.9500, 7671.000
372.1510, 7723.000
373.3520, 7801.000
374.5520, 7797.000
375.7530, 7742.000
376.9530, 7745.000
378.1530, 7840.000
379.3520, 7791.000
380.5520, 7874.000
381.7510, 7714.000
382.9510, 7813.000
384.1500, 7859.000
385.3490, 7947.000
386.5480, 7898.000
387.7460, 7992.000
388.9440, 7840.000
390.1430, 7882.000
391.3410, 7845.000
392.5390, 8056.000
393.7360, 7937.000
394.9340, 7938.000
396.1310, 8166.000
397.3280, 8046.000
398.5250, 8265.000
399.7220, 7988.000
400.9190, 8091.000
402.1150, 8140.000
403.3120, 8205.000
404.5080, 8287.000
405.7040, 8304.312
406.8990, 8252.000
408.0950, 8358.000
409.2900, 8325.000
410.4860, 8364.000
411.6810, 8430.000
412.8760, 8484.000
414.0700, 8412.000
415.2650, 8441.000
416.4590, 8499.000
417.6540, 8509.000
418.8480, 8583.000
420.0420, 8728.000
421.2350, 8678.000
422.4290, 8817.000
423.6220, 8807.000
424.8150, 8859.000
426.0080, 8743.000
427.2010, 8883.000
428.3940, 8930.000
429.5860, 9157.000
430.7790, 9064.000
431.9710, 9284.000
433.1630, 9496.000
434.3540, 9398.000
435.5460, 9551.000
436.7370, 9524.000
437.9290, 9619.000
439.1200, 9939.000
440.3110, 9900.000
441.5010, 10115.00
442.6920, 10129.00
443.8820, 10246.00
445.0730, 10388.00
446.2630, 10454.00
447.4530, 10416.00
448.6420, 10360.00
449.8320, 10255.00
451.0210, 10257.00
452.2100, 10342.00
453.3990, 10195.00
454.5880, 10043.00
455.7770, 10099.00
456.9660, 9949.000
458.1540, 9920.000
459.3420, 9882.000
460.5300, 9897.000
461.7180, 9822.000
462.9050, 9910.000
464.0930, 9805.000
465.2800, 9810.000
466.4670, 9774.000
467.6540, 9795.000
468.8410, 9677.000
470.0280, 9842.000
471.2140, 9781.000
472.4000, 9700.000
473.5870, 9789.000
474.7720, 9753.000
475.9580, 9861.000
477.1440, 9783.000
478.3290, 9829.000
479.5140, 9808.000
480.6990, 9893.000
481.8840, 9772.000
483.0690, 9967.000
484.2540, 9909.000
485.4380, 9833.000
486.6220, 9898.000
487.8060, 9967.000
488.9900, 9957.000
490.1740, 10013.00
491.3570, 9979.000
492.5410, 10072.00
493.7240, 9935.000
494.9070, 10054.00
496.0900, 10293.00
497.2720, 10214.00
498.4550, 10197.00
499.6370, 10210.00
500.8190, 10110.00
502.0010, 10201.00
503.1830, 10319.00
504.3650, 10252.00
505.5460, 10419.00
506.7280, 10307.00
507.9090, 10331.00
509.0900, 10287.00
510.2710, 10440.00
511.4510, 10473.00
512.6320, 10407.00
513.8120, 10489.00
514.9920, 10414.00
516.1720, 10637.00
517.3520, 10575.00
518.5310, 10729.00
519.7110, 10574.00
520.8900, 10569.00
522.0690, 10776.00
523.2480, 10782.00
524.4270, 10728.00
525.6050, 10970.00
526.7840, 10710.00
527.9620, 10778.00
529.1400, 10927.00
530.3180, 10851.00
531.4960, 10947.00
532.6730, 10917.00
533.8510, 10908.00
535.0280, 11075.00
536.2050, 10958.00
537.3820, 11090.00
538.5590, 11059.00
539.7350, 11075.00
540.9120, 11201.00
542.0880, 11252.00
543.2640, 11229.00
544.4400, 11400.00
545.6150, 11319.00
546.7910, 11318.00
547.9660, 11348.00
549.1410, 11538.00
550.3170, 11345.00
551.4910, 11573.00
552.6660, 11559.00
553.8410, 11553.00
555.0150, 11597.00
556.1890, 11591.00
557.3630, 11600.00
558.5370, 11549.00
559.7110, 11643.00
560.8840, 11944.00
562.0570, 11893.00
563.2310, 12033.00
564.4040, 12001.00
565.5760, 12037.00
566.7490, 12059.00
567.9220, 12246.00
569.0940, 12406.00
570.2660, 12384.00
571.4380, 12696.00
572.6100, 12820.00
573.7820, 12876.00
574.9530, 13165.00
576.1240, 13207.00
577.2960, 13456.00
578.4670, 13630.00
579.6370, 13913.00
580.8080, 13811.00
581.9790, 13885.00
583.1490, 13628.00
584.3190, 13523.00
585.4890, 13135.00
586.6590, 13008.00
587.8280, 13144.00
588.9980, 12932.00
590.1670, 12888.00
591.3360, 13069.00
592.5050, 12925.00
593.6740, 13172.00
594.8430, 13154.00
596.0110, 13218.00
597.1790, 13318.00
598.3480, 13384.28
599.5160, 13342.00
600.6830, 13619.00
601.8510, 13753.00
603.0180, 13916.00
604.1860, 13894.00
605.3530, 14047.96
606.5200, 14344.00
607.6870, 14216.00
608.8530, 14178.00
610.0200, 14208.00
611.1860, 13986.00
612.3520, 13714.00
613.5180, 13921.00
614.6840, 13708.00
615.8500, 13859.00
617.0150, 13662.00
618.1800, 13776.00
619.3450, 13691.00
620.5100, 13455.00
621.6750, 13519.00
622.8400, 13482.00
624.0040, 13452.00
625.1690, 13414.00
626.3330, 13426.56
627.4970, 13431.89
628.6610, 13480.00
629.8240, 13498.00
630.9880, 13565.00
632.1510, 13628.00
633.3140, 13794.00
634.4770, 13715.00
635.6400, 13817.00
636.8020, 13892.00
637.9650, 13880.00
639.1270, 14066.00
640.2890, 13926.00
641.4510, 14018.00
642.6130, 14123.00
643.7750, 14342.00
644.9360, 14193.00
646.0980, 14155.00
647.2590, 14423.00
648.4200, 14278.00
649.5810, 14502.00
650.7410, 14579.00
651.9020, 14321.00
653.0620, 14489.00
654.2220, 14565.00
655.3820, 14602.00
656.5420, 14721.00
657.7020, 14725.00
658.8610, 14659.00
660.0200, 14783.00
661.1800, 14798.00
662.3390, 14956.00
663.4970, 14902.00
664.6560, 14961.00
665.8150, 14864.00
666.9730, 14885.14
668.1310, 14882.83
669.2890, 14887.00
670.4470, 14886.00
671.6050, 14907.00
672.7620, 14911.00
673.9200, 15044.00
675.0770, 15090.00
676.2340, 15095.00
677.3910, 15014.00
678.5470, 15014.00
679.7040, 15086.00
680.8600, 15188.00
682.0160, 15071.00
683.1720, 15228.00
684.3280, 15249.00
685.4840, 15306.00
686.6390, 15191.00
687.7950, 15144.00
688.9500, 15405.00
690.1050, 15503.00
691.2600, 15350.00
692.4150, 15370.00
693.5690, 15516.00
694.7240, 15625.00
695.8780, 15428.00
697.0320, 15601.00
698.1860, 15648.00
699.3400, 15825.00
700.4930, 15659.00
701.6470, 15832.00
702.8000, 15703.00
703.9530, 15973.00
705.1060, 15979.00
706.2590, 15755.00
707.4110, 16006.00
708.5640, 16050.00
709.7160, 16013.00
710.8680, 15929.00
712.0200, 16193.00
713.1720, 16215.00
714.3230, 16166.00
715.4750, 16147.00
716.6260, 16162.00
717.7770, 16302.00
718.9280, 16380.00
720.0790, 16364.00
721.2300, 16445.00
722.3800, 16501.00
723.5300, 16430.00
724.6810, 16559.00
725.8300, 16568.00
726.9800, 16626.00
728.1300, 16636.00
729.2790, 16705.24
730.4290, 16765.00
731.5780, 16842.00
732.7270, 16725.00
733.8760, 16774.00
735.0240, 16856.00
736.1730, 16758.00
737.3210, 16971.00
738.4700, 17038.00
739.6180, 16988.00
740.7650, 17197.00
741.9130, 17153.00
743.0610, 17204.00
744.2080, 17197.00
745.3550, 17246.00
746.5020, 17294.00
747.6490, 17256.00
748.7960, 17381.00
749.9430, 17329.00
751.0890, 17436.00
752.2350, 17328.00
753.3810, 17459.00
754.5270, 17614.00
755.6730, 17685.00
756.8190, 17699.00
757.9640, 17589.00
759.1090, 17721.00
760.2540, 17686.00
761.3990, 17777.00
762.5440, 17698.00
763.6890, 17798.00
764.8330, 17949.00
765.9780, 18055.00
767.1220, 18040.00
768.2660, 18069.00
769.4100, 18020.00
770.5530, 17998.00
771.6970, 18118.00
772.8400, 18319.00
773.9830, 18272.00
775.1260, 18523.00
776.2690, 18432.00
777.4120, 18411.00
778.5540, 18329.00
779.6970, 18362.00
780.8390, 18472.00
781.9810, 18358.00
783.1230, 18680.00
784.2650, 18532.00
785.4060, 18630.00
786.5480, 18995.00
787.6890, 18638.00
788.8300, 18892.00
789.9710, 18930.00
791.1120, 18838.00
792.2520, 18883.00
793.3930, 18863.00
794.5330, 19068.00
795.6730, 19010.00
796.8130, 19114.00
797.9530, 19107.00
799.0930, 19446.00
800.2320, 19265.00
801.3710, 19534.00
802.5110, 19220.00
803.6500, 19550.00
804.7880, 19354.00
805.9270, 19307.00
807.0660, 19517.00
808.2040, 19536.00
809.3420, 19737.00
810.4800, 19648.00
811.6180, 19829.00
812.7560, 19672.00
813.8930, 19589.00
815.0310, 19873.00
816.1680, 20054.00
817.3050, 19892.00
818.4420, 19933.00
819.5790, 20140.00
820.7150, 20018.00
821.8520, 20022.00
822.9880, 20092.00
824.1240, 20229.00
825.2600, 20294.00
826.3960, 20221.00
827.5320, 20263.00
828.6670, 20380.00
829.8020, 20395.00
830.9380, 20498.00
832.0730, 20522.00
833.2080, 20608.00
834.3420, 20631.00
835.4770, 20698.08
836.6110, 20791.44
837.7450, 20801.00
838.8790, 20921.00
840.0130, 20932.00
841.1470, 20849.00
842.2810, 20797.00
843.4140, 20904.00
844.5470, 21043.00
845.6800, 21182.00
846.8130, 21093.00
847.9460, 21085.00
849.0790, 21221.00
850.2110, 21378.00
851.3440, 21415.00
852.4760, 21251.00
853.6080, 21236.00
854.7400, 21541.00
855.8710, 21330.00
857.0030, 21508.00
858.1340, 21535.00
859.2650, 21814.00
860.3960, 21909.00
861.5270, 21747.00
862.6580, 21788.00
863.7890, 21932.00
864.9190, 21775.00
866.0490, 21962.00
867.1790, 22076.00
868.3090, 22111.00
869.4390, 22284.00
870.5690, 22251.00
871.6980, 22174.00
872.8270, 22111.00
873.9570, 22175.02
875.0860, 22220.94
876.2140, 22298.00
877.3430, 22491.00
878.4720, 22516.00
879.6000, 22745.00
880.7280, 22704.00
881.8560, 22795.26
882.9840, 22754.00
884.1120, 22891.00
885.2390, 22846.00
886.3670, 22912.00
887.4940, 22956.00
888.6210, 22832.00
889.7480, 23148.00
890.8750, 22896.00
892.0020, 22914.00
893.1280, 23195.00
894.2540, 23309.00
895.3810, 23103.00
896.5070, 23245.00
897.6320, 23286.00
898.7580, 23380.00
899.8840, 23210.00
901.0090, 23171.00
902.1340, 23349.00
903.2590, 23399.00
904.3840, 23438.00
905.5090, 23692.00
906.6340, 23647.00
907.7580, 23827.00
908.8820, 23717.00
910.0060, 23844.00
911.1300, 23858.00
912.2540, 23915.00
913.3780, 23742.00
914.5010, 24025.00
915.6250, 23910.00
916.7480, 24057.00
917.8710, 24362.00
918.9940, 24225.00
920.1160, 24352.00
921.2390, 24263.00
922.3610, 24130.00
923.4840, 24383.00
924.6060, 24604.00
925.7280, 24696.00
926.8490, 24620.00
927.9710, 24713.00
929.0930, 24804.00
930.2140, 25016.00
931.3350, 24770.00
932.4560, 24963.00
933.5770, 24923.00
934.6980, 25022.00
935.8180, 25175.00
936.9380, 25160.00
938.0590, 25311.00
939.1790, 25373.00
940.2990, 25775.00
941.4180, 25605.00
942.5380, 25954.00
943.6570, 26353.00
944.7770, 26418.00
945.8960, 26728.00
947.0150, 27023.00
948.1340, 27438.00
949.2520, 27852.00
950.3710, 28527.00
951.4890, 29878.00
952.6070, 31321.00
953.7260, 33239.14
954.8430, 35406.00
955.9610, 38084.00
957.0790, 41070.00
958.1960, 44296.00
959.3130, 47732.00
960.4310, 50067.00
961.5480, 52196.00
962.6640, 52531.00
963.7810, 51649.00
964.8970, 49008.00
966.0140, 45591.00
967.1300, 42563.00
968.2460, 39305.00
969.3620, 36367.00
970.4780, 34335.00
971.5930, 32610.00
972.7090, 31089.00
973.8240, 29991.00
974.9390, 29259.00
976.0540, 28568.00
977.1690, 28096.00
978.2830, 27912.00
979.3980, 27671.00
980.5120, 27599.00
981.6260, 27453.13
982.7400, 27457.00
983.8540, 27259.00
984.9680, 27289.00
986.0820, 27173.00
987.1950, 27279.00
988.3080, 27288.00
989.4210, 27451.00
990.5340, 27676.00
991.6470, 27431.00
992.7600, 27462.00
993.8720, 27716.00
994.9850, 27530.00
996.0970, 27555.00
997.2090, 27886.00
998.3210, 27779.00
999.4320, 27764.00
1000.544, 27815.00
1001.655, 27873.25
1002.767, 28109.00
1003.878, 28076.00
1004.989, 28194.00
1006.100, 28204.00
1007.210, 28322.00
1008.321, 28105.00
1009.431, 28409.00
1010.541, 28663.00
1011.651, 28341.00
1012.761, 28525.00
1013.871, 28432.00
1014.980, 28476.00
1016.090, 28813.00
1017.199, 28703.00
1018.308, 28821.00
1019.417, 29180.00
1020.526, 29029.00
1021.635, 29230.00
1022.743, 29294.00
1023.852, 29468.00
1024.960, 29097.00
1026.068, 29717.00
1027.176, 29563.00
1028.283, 29607.00
1029.391, 30117.00
1030.498, 30203.00
1031.606, 30342.00
1032.713, 30113.00
1033.820, 30162.00
1034.927, 30102.00
1036.033, 30052.00
1037.140, 29935.00
1038.246, 29959.20
1039.353, 29972.22
1040.459, 30058.00
1041.564, 30094.00
1042.670, 30121.26
1043.776, 30190.13
1044.881, 30187.00
1045.987, 30344.00
1047.092, 30418.67
1048.197, 30599.00
1049.302, 30697.00
1050.406, 30812.00
1051.511, 30911.00
1052.615, 30883.00
1053.720, 30948.00
1054.824, 31030.00
1055.928, 31159.00
1057.031, 31147.00
1058.135, 31345.00
1059.238, 31211.00
1060.342, 31195.00
1061.445, 31153.00
1062.548, 31437.00
1063.651, 31168.00
1064.754, 31578.00
1065.856, 31440.00
1066.959, 31462.00
1068.061, 31307.00
1069.163, 31470.00
1070.265, 31534.00
1071.367, 31498.00
1072.469, 31661.00
1073.570, 31961.00
1074.671, 31929.00
1075.773, 32218.00
1076.874, 31950.00
1077.975, 31668.00
1079.075, 31987.00
1080.176, 32074.00
1081.276, 32132.00
1082.377, 32055.00
1083.477, 32145.00
1084.577, 32089.00
1085.677, 32088.00
1086.777, 32015.00
1087.876, 32066.00
1088.975, 32130.00
1090.075, 32205.00
1091.174, 32256.44
1092.273, 32495.00
1093.372, 32338.00
1094.470, 32338.00
1095.569, 32299.00
1096.667, 32575.00
1097.765, 32209.00
1098.863, 32649.00
1099.961, 32961.00
1101.059, 32904.00
1102.157, 32669.00
1103.254, 32571.00
1104.351, 32905.00
1105.449, 32878.00
1106.546, 32977.00
1107.642, 33033.00
1108.739, 33046.00
1109.836, 33096.00
1110.932, 33177.00
1112.028, 33024.00
1113.124, 33233.00
1114.220, 33212.00
1115.316, 33317.00
1116.412, 33474.00
1117.507, 33511.00
1118.603, 33606.00
1119.698, 33712.00
1120.793, 33918.00
1121.888, 33994.78
1122.983, 33898.00
1124.077, 34158.00
1125.172, 33989.00
1126.266, 33909.00
1127.360, 33907.00
1128.454, 34193.00
1129.548, 33953.00
1130.642, 34133.00
1131.735, 34334.00
1132.829, 34341.00
1133.922, 34478.00
1135.015, 34431.00
1136.108, 34465.00
1137.201, 34664.00
1138.294, 34387.00
1139.386, 34644.00
1140.478, 34477.00
1141.571, 34892.00
1142.663, 34626.00
1143.755, 34707.00
1144.846, 34880.00
1145.938, 35030.00
1147.030, 34833.00
1148.121, 34830.00
1149.212, 35023.00
1150.303, 35273.00
1151.394, 35031.00
1152.485, 35169.00
1153.575, 35270.00
1154.666, 35332.00
1155.756, 35446.00
1156.846, 35448.00
1157.936, 35655.00
1159.026, 35715.00
1160.116, 35716.00
1161.205, 35758.00
1162.295, 35778.00
1163.384, 35722.00
1164.473, 36266.00
1165.562, 35776.00
1166.651, 36152.00
1167.739, 36156.00
1168.828, 36079.00
1169.916, 36240.00
1171.005, 36217.00
1172.093, 36235.00
1173.181, 36373.00
1174.268, 36520.00
1175.356, 36198.00
1176.443, 36628.00
1177.531, 36360.00
1178.618, 36456.00
1179.705, 36635.00
1180.792, 36842.00
1181.879, 36776.00
1182.965, 36704.00
1184.052, 36813.00
1185.138, 36921.00
1186.224, 37053.00
1187.310, 37068.00
1188.396, 36994.00
1189.482, 37082.00
1190.567, 37174.00
1191.653, 37301.00
1192.738, 37343.00
1193.823, 37329.00
1194.908, 37594.00
1195.993, 37118.00
1197.077, 37519.00
1198.162, 37413.00
1199.246, 37683.00
1200.331, 37780.00
1201.415, 37719.00
1202.499, 37675.00
1203.582, 37621.00
1204.666, 37676.11
1205.750, 37856.00
1206.833, 37794.00
1207.916, 37968.00
1208.999, 37990.00
1210.082, 38103.00
1211.165, 37999.00
1212.248, 38075.00
1213.330, 38264.00
1214.412, 38399.00
1215.495, 38266.00
1216.577, 38644.00
1217.658, 38509.00
1218.740, 38693.00
1219.822, 38787.00
1220.903, 38688.00
1221.985, 38460.00
1223.066, 38847.00
1224.147, 38728.00
1225.228, 38823.00
1226.308, 38930.00
1227.389, 38945.00
1228.469, 39141.00
1229.550, 39153.00
1230.630, 39017.00
1231.710, 39211.00
1232.790, 39253.00
1233.869, 39133.00
1234.949, 39126.00
1236.028, 39371.00
1237.108, 39450.00
1238.187, 39673.00
1239.266, 39636.00
1240.344, 39227.00
1241.423, 39746.00
1242.502, 39399.00
1243.580, 39536.00
1244.658, 39453.00
1245.736, 39542.00
1246.814, 39483.00
1247.892, 39532.00
1248.970, 39712.00
1250.047, 39620.00
1251.125, 39804.00
1252.202, 40075.00
1253.279, 40267.00
1254.356, 40057.00
1255.433, 40103.00
1256.509, 40400.00
1257.586, 40364.00
1258.662, 40493.00
1259.738, 40535.00
1260.814, 40605.00
1261.890, 40756.00
1262.966, 40758.00
1264.042, 40855.00
1265.117, 40823.00
1266.193, 40900.00
1267.268, 40872.00
1268.343, 40913.00
1269.418, 41100.00
1270.492, 41156.00
1271.567, 41004.00
1272.642, 41004.00
1273.716, 41181.00
1274.790, 41438.00
1275.864, 41251.00
1276.938, 41206.00
1278.012, 41317.00
1279.085, 41316.00
1280.159, 41244.00
1281.232, 41579.00
1282.305, 41434.00
1283.378, 41174.00
1284.451, 41213.00
1285.524, 41462.00
1286.597, 41180.00
1287.669, 41422.00
1288.741, 41747.00
1289.813, 41301.00
1290.885, 41610.00
1291.957, 41622.00
1293.029, 41798.00
1294.101, 41914.00
1295.172, 41751.00
1296.243, 42169.00
1297.315, 42127.00
1298.386, 42155.00
1299.456, 42008.00
1300.527, 42081.00
1301.598, 42249.00
1302.668, 42288.00
1303.738, 42413.74
1304.809, 42550.87
1305.879, 42614.00
1306.948, 42800.00
1308.018, 42889.00
1309.088, 42949.00
1310.157, 43368.00
1311.226, 43265.00
1312.296, 43213.00
1313.365, 43426.00
1314.433, 43147.00
1315.502, 43310.00
1316.571, 43281.00
1317.639, 43607.00
1318.707, 43583.00
1319.776, 43435.00
1320.844, 43837.00
1321.911, 43869.00
1322.979, 43671.00
1324.047, 43973.00
1325.114, 43848.00
1326.181, 43970.00
1327.249, 44058.00
1328.316, 43947.00
1329.382, 43885.00
1330.449, 44139.00
1331.516, 43974.00
1332.582, 44312.00
1333.648, 44365.00
1334.715, 44412.00
1335.781, 44620.00
1336.846, 44498.00
1337.912, 44687.00
1338.978, 44610.00
1340.043, 44715.00
1341.108, 44792.00
1342.174, 44955.00
1343.239, 44991.00
1344.303, 44843.00
1345.368, 44790.00
1346.433, 44938.00
1347.497, 44983.00
1348.561, 44969.00
1349.626, 44981.00
1350.690, 45179.00
1351.753, 45179.00
1352.817, 45129.00
1353.881, 45370.00
1354.944, 45224.00
1356.007, 45520.00
1357.071, 45346.00
1358.134, 45577.00
1359.196, 45652.00
1360.259, 45090.00
1361.322, 45598.00
1362.384, 45588.00
1363.447, 45304.00
1364.509, 45857.00
1365.571, 46107.00
1366.633, 45714.00
1367.694, 46284.00
1368.756, 45787.00
1369.817, 45771.00
1370.879, 45903.00
1371.940, 46054.00
1373.001, 46291.00
1374.062, 46397.00
1375.122, 46224.00
1376.183, 46481.00
1377.244, 46402.00
1378.304, 46340.00
1379.364, 46404.00
1380.424, 46818.00
1381.484, 46431.00
1382.544, 46868.00
1383.603, 46719.00
1384.663, 46580.00
1385.722, 46770.00
1386.781, 46913.00
1387.840, 46886.00
1388.899, 46993.00
1389.958, 46876.00
1391.017, 46908.00
1392.075, 47285.00
1393.134, 47131.00
1394.192, 47186.00
1395.250, 47526.00
1396.308, 47340.00
1397.365, 47255.00
1398.423, 47593.00
1399.481, 47346.00
1400.538, 47481.00
1401.595, 47671.00
1402.652, 47613.00
1403.709, 47784.00
1404.766, 47798.00
1405.823, 47914.00
1406.879, 48003.00
1407.936, 47873.00
1408.992, 47848.00
1410.048, 47985.00
1411.104, 47833.00
1412.160, 48281.00
1413.215, 48144.00
1414.271, 48356.00
1415.326, 48076.00
1416.382, 47959.00
1417.437, 48324.00
1418.492, 48275.00
1419.546, 48629.00
1420.601, 48467.00
1421.656, 48480.00
1422.710, 48645.00
1423.764, 48836.00
1424.819, 48757.00
1425.873, 49002.00
1426.926, 48749.00
1427.980, 49088.00
1429.034, 48915.00
1430.087, 48926.00
1431.140, 49107.00
1432.194, 48789.00
1433.247, 49100.00
1434.299, 49232.00
1435.352, 49165.00
1436.405, 49362.00
1437.457, 49085.00
1438.510, 49333.00
1439.562, 49415.00
1440.614, 49256.00
1441.666, 49558.00
1442.717, 49678.00
1443.769, 49552.00
1444.821, 49541.00
1445.872, 49854.00
1446.923, 49987.00
1447.974, 49937.00
1449.025, 49716.00
1450.076, 49881.00
1451.127, 49938.00
1452.177, 49969.00
1453.227, 49863.00
1454.278, 49984.00
1455.328, 50056.82
1456.378, 50210.00
1457.428, 50211.00
1458.477, 50556.00
1459.527, 50408.00
1460.576, 50527.00
1461.625, 50385.00
1462.675, 50643.00
1463.724, 50655.00
1464.772, 50990.00
1465.821, 50817.00
1466.870, 50793.00
1467.918, 50598.00
1468.966, 51004.00
1470.015, 50874.00
1471.063, 50811.00
1472.110, 50695.00
1473.158, 51308.00
1474.206, 51041.00
1475.253, 51103.00
1476.301, 50742.00
1477.348, 51188.00
1478.395, 51377.00
1479.442, 51225.00
1480.488, 51585.00
1481.535, 51443.00
1482.582, 51681.00
1483.628, 51511.00
1484.674, 51363.00
1485.720, 51703.00
1486.766, 51561.00
1487.812, 51446.00
1488.858, 51421.00
1489.903, 51571.00
1490.949, 51332.00
1491.994, 51684.00
1493.039, 51996.00
1494.084, 52098.00
1495.129, 52079.00
1496.173, 52225.00
1497.218, 51931.00
1498.262, 52213.00
1499.307, 52346.00
1500.351, 52100.00
1501.395, 52042.00
1502.439, 52335.00
1503.483, 52323.00
1504.526, 52343.00
1505.570, 52487.00
1506.613, 52536.00
1507.656, 52683.00
1508.699, 52726.15
1509.742, 52789.12
1510.785, 52815.00
1511.827, 52871.00
1512.870, 52905.00
1513.912, 52920.66
1514.955, 52804.00
1515.997, 52869.00
1517.039, 52987.00
1518.080, 53026.00
1519.122, 53197.00
1520.164, 53037.00
1521.205, 53190.00
1522.246, 53200.00
1523.288, 53473.00
1524.329, 53201.00
1525.369, 53548.00
1526.410, 53315.00
1527.451, 53597.00
1528.491, 53781.00
1529.531, 53568.00
1530.572, 53708.00
1531.612, 53772.00
1532.652, 53624.00
1533.691, 53774.00
1534.731, 53956.00
1535.770, 54364.00
1536.810, 54130.00
1537.849, 54332.18
1538.888, 54086.00
1539.927, 54235.00
1540.966, 54003.00
1542.005, 54049.84
1543.043, 54208.00
1544.082, 54126.00
1545.120, 54144.00
1546.158, 54239.00
1547.196, 54237.16
1548.234, 54240.00
1549.272, 54290.00
1550.309, 54358.78
1551.347, 54609.00
1552.384, 54544.00
1553.421, 54553.00
1554.458, 54623.00
1555.495, 54539.59
1556.532, 54769.00
1557.568, 54573.00
1558.605, 54678.00
1559.641, 54984.00
1560.678, 54793.00
1561.714, 54809.00
1562.750, 54903.00
1563.785, 55311.00
##END=



