##NAMES=Fluor-uvite
##RRUFFID=R050172
##IDEAL CHEMISTRY=CaMg_3_(Al_5_Mg)(Si_6_O_18_)(BO_3_)_3_(OH)_3_F
##LOCALITY=Pierrepont, New York, USA
##OWNER=RRUFF
##SOURCE=Marcus Origlieri
##DESCRIPTION=Black prismatic crystal
##STATUS=The identification of this mineral has been confirmed by X-ray diffraction and chemical analysis
##URL=rruff.info/R050172
##MEASURED CHEMISTRY=(Ca_0.64_Na_0.36_)(Mg_0.56_Fe^2+^_0.34_Al_0.08_Ti_0.02_)_3_(Mg_1.00_Al_5.00_)(BO_3_)_3_Si_6.00_O_18_((OH)_3.45_F_0.55_)
##PIN_ID=M00231
##ORIENTATION=Laser parallel to c* (0 0 1). Fiducial mark perpendicular to laser is parallel to -a [-1 0 0]
166.1800, 21869.00
167.4110, 21366.00
168.6410, 21229.00
169.8720, 21218.00
171.1020, 21205.00
172.3320, 20972.00
173.5620, 20911.00
174.7910, 20809.00
176.0210, 20629.00
177.2500, 20592.45
178.4790, 20551.00
179.7080, 20452.00
180.9370, 20469.00
182.1650, 20408.62
183.3940, 20108.00
184.6220, 20191.00
185.8500, 20088.00
187.0780, 19980.00
188.3050, 20017.00
189.5330, 20016.00
190.7600, 20102.00
191.9870, 20108.00
193.2140, 19989.00
194.4410, 19829.00
195.6680, 19943.00
196.8940, 20138.00
198.1200, 20108.00
199.3470, 20329.00
200.5720, 20343.00
201.7980, 20588.00
203.0240, 20552.00
204.2490, 20093.00
205.4740, 19901.00
206.6990, 19556.00
207.9240, 19530.00
209.1490, 19358.00
210.3740, 19264.00
211.5980, 19236.00
212.8220, 19212.00
214.0460, 19091.00
215.2700, 18842.00
216.4930, 18654.00
217.7170, 18553.00
218.9400, 18422.00
220.1630, 18116.00
221.3860, 18109.00
222.6090, 17804.00
223.8320, 17532.00
225.0540, 17378.00
226.2760, 17338.00
227.4980, 17244.00
228.7200, 17091.00
229.9420, 17084.00
231.1630, 16814.00
232.3850, 16806.00
233.6060, 16810.00
234.8270, 16641.00
236.0480, 16616.00
237.2690, 16357.00
238.4890, 16333.47
239.7090, 16375.00
240.9290, 16236.00
242.1490, 16011.00
243.3690, 16005.00
244.5890, 15855.00
245.8080, 15549.00
247.0270, 15563.00
248.2470, 15518.00
249.4650, 15264.00
250.6840, 15295.00
251.9030, 15111.00
253.1210, 15276.00
254.3390, 15138.00
255.5570, 15027.00
256.7750, 15033.00
257.9930, 15120.00
259.2100, 15155.19
260.4280, 15137.19
261.6450, 15125.98
262.8620, 15056.00
264.0790, 15021.00
265.2950, 14906.00
266.5120, 14855.00
267.7280, 14788.00
268.9440, 14671.00
270.1600, 14738.00
271.3760, 14624.00
272.5920, 14581.00
273.8070, 14628.00
275.0220, 14409.00
276.2370, 14542.00
277.4520, 14571.00
278.6670, 14441.00
279.8820, 14411.00
281.0960, 14364.00
282.3100, 14257.00
283.5240, 14305.00
284.7380, 14297.00
285.9520, 14313.00
287.1650, 14280.00
288.3780, 14268.00
289.5920, 14126.00
290.8050, 14101.00
292.0170, 14115.00
293.2300, 14169.00
294.4430, 14099.00
295.6550, 13962.00
296.8670, 14106.00
298.0790, 14121.00
299.2910, 14214.00
300.5020, 14116.00
301.7140, 14176.00
302.9250, 14281.00
304.1360, 14309.00
305.3470, 14366.00
306.5580, 14283.00
307.7680, 14339.00
308.9780, 14366.00
310.1890, 14394.72
311.3990, 14470.59
312.6090, 14520.00
313.8180, 14614.00
315.0280, 14687.00
316.2370, 14753.00
317.4460, 14772.00
318.6550, 15062.00
319.8640, 15096.00
321.0730, 15046.00
322.2810, 15199.00
323.4890, 15139.00
324.6980, 15366.00
325.9060, 15427.00
327.1130, 15307.00
328.3210, 15549.00
329.5280, 15409.00
330.7360, 15518.00
331.9430, 15645.00
333.1500, 15641.00
334.3560, 15630.00
335.5630, 15606.00
336.7690, 15651.15
337.9760, 15649.00
339.1820, 15777.00
340.3870, 15761.00
341.5930, 15895.00
342.7990, 15869.00
344.0040, 16070.00
345.2090, 16094.00
346.4140, 16114.00
347.6190, 16199.00
348.8240, 16220.00
350.0280, 16132.82
351.2330, 16411.08
352.4370, 16611.15
353.6410, 16737.80
354.8440, 16542.05
356.0480, 16784.82
357.2520, 16865.46
358.4550, 16948.64
359.6580, 17280.71
360.8610, 17181.68
362.0640, 17529.32
363.2660, 17627.00
364.4690, 17811.00
365.6710, 17993.00
366.8730, 18122.00
368.0750, 18215.80
369.2770, 18439.00
370.4780, 18302.00
371.6800, 18346.00
372.8810, 18305.00
374.0820, 17971.00
375.2830, 18044.00
376.4830, 17937.00
377.6840, 17918.00
378.8840, 17491.00
380.0840, 17315.00
381.2840, 17265.00
382.4840, 17116.00
383.6840, 17075.00
384.8830, 16879.00
386.0830, 16550.00
387.2820, 16500.60
388.4810, 16462.00
389.6800, 16263.00
390.8780, 16255.00
392.0770, 16202.00
393.2750, 16020.00
394.4730, 15970.87
395.6710, 15849.00
396.8690, 15678.00
398.0660, 15716.00
399.2640, 15432.00
400.4610, 15417.00
401.6580, 15482.00
402.8550, 15288.00
404.0520, 15342.00
405.2490, 15344.00
406.4450, 15439.00
407.6410, 15301.00
408.8370, 15151.00
410.0330, 15125.00
411.2290, 15159.00
412.4240, 15116.00
413.6200, 15145.00
414.8150, 14988.00
416.0100, 14941.00
417.2050, 14965.00
418.4000, 14921.00
419.5940, 14965.00
420.7880, 14850.00
421.9830, 14674.00
423.1770, 14685.00
424.3700, 14515.00
425.5640, 14599.00
426.7580, 14622.00
427.9510, 14506.00
429.1440, 14434.00
430.3370, 14413.00
431.5300, 14395.00
432.7220, 14435.00
433.9150, 14398.00
435.1070, 14345.00
436.2990, 14436.00
437.4910, 14392.15
438.6830, 14357.00
439.8750, 14378.00
441.0660, 14359.00
442.2570, 14297.00
443.4480, 14415.00
444.6390, 14420.00
445.8300, 14342.00
447.0210, 14373.58
448.2110, 14303.00
449.4010, 14319.00
450.5910, 14297.00
451.7810, 14297.00
452.9710, 14329.00
454.1610, 14521.00
455.3500, 14433.00
456.5390, 14443.00
457.7280, 14563.00
458.9170, 14358.00
460.1060, 14485.00
461.2940, 14409.00
462.4830, 14525.00
463.6710, 14564.00
464.8590, 14733.00
466.0470, 14556.00
467.2350, 14717.00
468.4220, 14678.00
469.6090, 14665.00
470.7970, 14686.00
471.9840, 14720.00
473.1700, 14793.00
474.3570, 14791.48
475.5440, 14818.00
476.7300, 14820.00
477.9160, 14839.85
479.1020, 14861.10
480.2880, 14893.00
481.4740, 14950.00
482.6590, 15073.00
483.8440, 15100.00
485.0300, 15165.00
486.2140, 15073.00
487.3990, 15138.00
488.5840, 15136.00
489.7680, 15170.00
490.9530, 15211.00
492.1370, 15194.00
493.3210, 15248.06
494.5040, 15300.00
495.6880, 15304.00
496.8720, 15340.00
498.0550, 15331.00
499.2380, 15298.00
500.4210, 15291.00
501.6040, 15261.00
502.7860, 15243.86
503.9690, 15257.00
505.1510, 15216.00
506.3330, 15187.00
507.5150, 15190.73
508.6970, 15199.94
509.8780, 15210.00
511.0600, 15255.00
512.2410, 15249.26
513.4220, 15262.48
514.6030, 15329.00
515.7840, 15363.00
516.9640, 15437.00
518.1440, 15506.00
519.3250, 15543.00
520.5050, 15438.00
521.6850, 15686.00
522.8640, 15618.00
524.0440, 15840.00
525.2230, 15848.00
526.4020, 15929.00
527.5820, 15858.00
528.7600, 16016.00
529.9390, 15908.00
531.1180, 16092.00
532.2960, 16038.00
533.4740, 15888.00
534.6520, 16031.00
535.8300, 16130.00
537.0080, 16287.00
538.1850, 16081.00
539.3630, 16133.00
540.5400, 16252.00
541.7170, 16148.00
542.8940, 16167.00
544.0700, 16068.00
545.2470, 16109.27
546.4230, 16213.00
547.5990, 16183.00
548.7750, 16209.00
549.9510, 16225.00
551.1270, 16197.69
552.3020, 16137.00
553.4780, 16133.00
554.6530, 16068.00
555.8280, 15818.36
557.0030, 16002.23
558.1770, 16098.29
559.3520, 16111.23
560.5260, 15792.16
561.7000, 15901.83
562.8740, 15839.68
564.0480, 15770.49
565.2220, 15940.50
566.3950, 15669.74
567.5680, 15835.98
568.7420, 15642.82
569.9150, 15836.84
571.0870, 15943.04
572.2600, 15966.13
573.4320, 15657.20
574.6050, 15777.00
575.7770, 15724.99
576.9490, 15665.93
578.1210, 15846.08
579.2920, 15585.44
580.4640, 15761.80
581.6350, 15805.00
582.8060, 15865.00
583.9770, 15756.00
585.1480, 15689.00
586.3190, 15691.00
587.4890, 15659.00
588.6590, 15507.00
589.8290, 15640.00
590.9990, 15483.00
592.1690, 15446.00
593.3390, 15249.00
594.5080, 15275.00
595.6770, 15236.00
596.8470, 15062.00
598.0160, 15196.00
599.1840, 15235.00
600.3530, 15208.00
601.5210, 15144.21
602.6900, 15198.42
603.8580, 15217.53
605.0260, 15203.38
606.1930, 15056.46
607.3610, 15081.00
608.5280, 15036.84
609.6960, 14989.84
610.8630, 15038.54
612.0300, 14910.93
613.1970, 14958.12
614.3630, 14935.55
615.5300, 14944.89
616.6960, 14885.11
617.8620, 14846.68
619.0280, 14877.43
620.1940, 14869.88
621.3590, 14704.00
622.5250, 14627.00
623.6900, 14611.00
624.8550, 14619.00
626.0200, 14576.00
627.1850, 14492.00
628.3490, 14383.00
629.5140, 14322.00
630.6780, 14332.00
631.8420, 14355.00
633.0060, 14306.00
634.1700, 14239.00
635.3330, 14021.00
636.4970, 14138.00
637.6600, 13953.00
638.8230, 14095.00
639.9860, 14091.00
641.1490, 14049.00
642.3110, 13976.00
643.4740, 13983.00
644.6360, 14113.00
645.7980, 14041.00
646.9600, 13981.00
648.1220, 14148.00
649.2840, 14508.00
650.4450, 14105.00
651.6060, 14364.00
652.7670, 14596.00
653.9280, 14547.00
655.0890, 14503.00
656.2500, 14741.00
657.4100, 14891.00
658.5700, 14717.00
659.7300, 14773.00
660.8900, 14654.00
662.0500, 14631.00
663.2100, 14513.00
664.3690, 14567.00
665.5280, 14504.00
666.6880, 14395.00
667.8460, 14351.00
669.0050, 14208.00
670.1640, 14422.00
671.3220, 14277.00
672.4810, 14384.00
673.6390, 14540.00
674.7970, 14142.00
675.9540, 14334.00
677.1120, 14319.00
678.2690, 14407.00
679.4270, 14452.00
680.5840, 14374.00
681.7410, 14526.00
682.8980, 14394.00
684.0540, 14437.00
685.2110, 14700.00
686.3670, 14799.00
687.5230, 14737.00
688.6790, 14800.00
689.8350, 14874.00
690.9900, 14756.00
692.1460, 14899.00
693.3010, 15025.00
694.4560, 14998.00
695.6110, 15188.00
696.7660, 15116.00
697.9210, 15237.00
699.0750, 15335.00
700.2290, 15376.00
701.3840, 15608.00
702.5370, 15711.00
703.6910, 15791.00
704.8450, 15972.00
705.9980, 16119.00
707.1520, 16294.00
708.3050, 16534.00
709.4580, 16897.00
710.6110, 17146.00
711.7630, 17473.00
712.9160, 17802.00
714.0680, 18170.22
715.2200, 18649.00
716.3720, 18958.87
717.5240, 19439.00
718.6760, 19815.00
719.8270, 20341.00
720.9780, 20775.00
722.1300, 21223.00
723.2810, 21528.00
724.4310, 21626.00
725.5820, 21813.00
726.7330, 21683.00
727.8830, 21783.00
729.0330, 21892.00
730.1830, 21832.32
731.3330, 21954.46
732.4830, 22029.74
733.6320, 22060.02
734.7810, 21945.78
735.9310, 21991.29
737.0800, 21956.36
738.2290, 21906.90
739.3770, 21941.43
740.5260, 21787.90
741.6740, 21797.51
742.8220, 21725.64
743.9700, 21674.01
745.1180, 21503.00
746.2660, 21798.00
747.4130, 21571.00
748.5610, 21762.00
749.7080, 21753.00
750.8550, 21781.00
752.0020, 21657.00
753.1490, 21798.00
754.2950, 21760.00
755.4420, 21774.00
756.5880, 21985.00
757.7340, 21869.00
758.8800, 21584.00
760.0250, 21789.00
761.1710, 21740.00
762.3160, 21761.00
763.4620, 21852.00
764.6070, 22109.00
765.7520, 22089.00
766.8960, 22111.00
768.0410, 22286.00
769.1850, 22186.00
770.3300, 22136.00
771.4740, 22378.00
772.6180, 22118.00
773.7610, 21943.00
774.9050, 21586.00
776.0480, 21237.00
777.1920, 20922.00
778.3350, 20515.00
779.4780, 20099.00
780.6200, 19958.00
781.7630, 19701.00
782.9060, 19315.00
784.0480, 19080.00
785.1900, 18863.00
786.3320, 18551.00
787.4740, 18477.00
788.6150, 18182.00
789.7570, 18174.00
790.8980, 17931.00
792.0390, 17742.64
793.1800, 17570.00
794.3210, 17325.00
795.4620, 16945.00
796.6020, 16694.00
797.7420, 16567.00
798.8830, 16254.00
800.0230, 16207.00
801.1620, 15720.00
802.3020, 15393.00
803.4420, 15478.00
804.5810, 15079.00
805.7200, 14655.00
806.8590, 14517.00
807.9980, 14342.00
809.1370, 14154.00
810.2750, 14011.00
811.4140, 13754.00
812.5520, 13691.00
813.6900, 13610.00
814.8280, 13608.00
815.9650, 13447.00
817.1030, 13246.00
818.2400, 13168.00
819.3780, 13055.00
820.5150, 12925.00
821.6520, 12795.00
822.7880, 12873.00
823.9250, 12619.00
825.0610, 12602.00
826.1980, 12670.00
827.3340, 12518.00
828.4700, 12400.00
829.6050, 12437.00
830.7410, 12288.00
831.8760, 12207.00
833.0120, 12181.74
834.1470, 12125.55
835.2820, 12129.00
836.4160, 12112.00
837.5510, 12174.00
838.6860, 12186.00
839.8200, 12015.00
840.9540, 11906.00
842.0880, 12113.00
843.2220, 12079.00
844.3550, 12196.00
845.4890, 12087.00
846.6220, 12183.00
847.7550, 12120.00
848.8880, 12192.00
850.0210, 12202.00
851.1540, 12009.00
852.2860, 12158.00
853.4190, 12166.00
854.5510, 12209.00
855.6830, 11978.00
856.8150, 12084.00
857.9460, 12109.00
859.0780, 12209.00
860.2090, 12198.00
861.3410, 12231.00
862.4720, 12155.00
863.6020, 12281.00
864.7330, 12240.29
865.8640, 12245.65
866.9940, 12266.00
868.1240, 12261.00
869.2540, 12319.00
870.3840, 12383.00
871.5140, 12527.00
872.6440, 12411.00
873.7730, 12173.00
874.9020, 12199.00
876.0320, 12400.00
877.1600, 12221.00
878.2890, 12478.00
879.4180, 12309.00
880.5460, 12528.00
881.6750, 12556.00
882.8030, 12462.00
883.9310, 12529.00
885.0590, 12460.00
886.1860, 12478.00
887.3140, 12551.00
888.4410, 12416.00
889.5680, 12482.00
890.6950, 12456.00
891.8220, 12595.00
892.9490, 12587.00
894.0750, 12538.00
895.2020, 12576.00
896.3280, 12838.00
897.4540, 12645.00
898.5800, 12764.00
899.7050, 12571.00
900.8310, 12784.00
901.9560, 12767.00
903.0820, 12832.00
904.2070, 12739.00
905.3320, 12751.00
906.4560, 12737.00
907.5810, 12920.00
908.7050, 12992.00
909.8300, 12988.00
910.9540, 12962.00
912.0780, 13003.00
913.2010, 12946.00
914.3250, 13011.00
915.4480, 13012.00
916.5720, 12913.00
917.6950, 13148.00
918.8180, 13087.00
919.9410, 13073.00
921.0630, 13195.00
922.1860, 13238.00
923.3080, 13188.00
924.4300, 13236.00
925.5520, 13303.00
926.6740, 13177.00
927.7960, 13318.00
928.9170, 13196.00
930.0390, 13398.00
931.1600, 13343.00
932.2810, 13424.00
933.4020, 13463.00
934.5230, 13363.00
935.6430, 13511.00
936.7640, 13619.00
937.8840, 13568.00
939.0040, 13747.00
940.1240, 13786.00
941.2440, 13814.00
942.3630, 13867.00
943.4830, 13922.00
944.6020, 13999.00
945.7210, 14001.00
946.8400, 14160.00
947.9590, 14265.00
949.0770, 14164.00
950.1960, 14111.00
951.3140, 14298.00
952.4320, 14283.00
953.5500, 14360.00
954.6680, 14435.00
955.7860, 14391.00
956.9030, 14458.00
958.0210, 14459.00
959.1380, 14405.00
960.2550, 14604.00
961.3720, 14816.00
962.4890, 14849.00
963.6050, 14904.00
964.7220, 14761.00
965.8380, 14949.00
966.9540, 14760.00
968.0700, 14923.00
969.1860, 14970.00
970.3010, 15011.00
971.4170, 14897.00
972.5320, 15080.00
973.6470, 15003.00
974.7620, 15008.00
975.8770, 15090.00
976.9910, 15102.82
978.1060, 15132.96
979.2200, 15202.00
980.3340, 15121.00
981.4480, 15072.00
982.5620, 14933.00
983.6760, 15079.00
984.7890, 14926.00
985.9030, 14875.00
987.0160, 15018.00
988.1290, 14988.00
989.2420, 14929.00
990.3550, 15076.00
991.4670, 15039.00
992.5800, 14908.00
993.6920, 14905.00
994.8040, 14843.00
995.9160, 14866.00
997.0280, 14646.00
998.1390, 14652.00
999.2510, 14723.00
1000.362, 14519.00
1001.473, 14648.00
1002.584, 14854.00
1003.695, 14692.00
1004.805, 14726.00
1005.916, 14730.00
1007.026, 14632.00
1008.136, 14671.00
1009.246, 14694.00
1010.356, 14609.00
1011.466, 14720.00
1012.576, 14718.00
1013.685, 14736.00
1014.794, 14809.00
1015.903, 14803.46
1017.012, 14770.00
1018.121, 14841.00
1019.229, 14742.00
1020.338, 14752.00
1021.446, 14971.00
1022.554, 14852.00
1023.662, 14878.00
1024.770, 14761.00
1025.878, 14899.00
1026.985, 14870.00
1028.092, 15097.00
1029.200, 14971.00
1030.307, 15039.00
1031.413, 15167.00
1032.520, 15115.00
1033.627, 15019.00
1034.733, 15166.00
1035.839, 15225.00
1036.945, 15181.00
1038.051, 15248.00
1039.157, 15174.00
1040.262, 15361.00
1041.368, 15307.00
1042.473, 15286.00
1043.578, 15162.00
1044.683, 15411.00
1045.788, 15312.00
1046.893, 15277.00
1047.997, 15356.00
1049.101, 15277.00
1050.205, 15185.00
1051.309, 15194.00
1052.413, 15201.00
1053.517, 15267.00
1054.621, 15238.00
1055.724, 15344.00
1056.827, 15271.00
1057.930, 15357.00
1059.033, 15268.00
1060.136, 15493.00
1061.238, 15170.00
1062.341, 15317.00
1063.443, 15289.00
1064.545, 15506.00
1065.647, 15404.00
1066.749, 15336.00
1067.850, 15295.00
1068.952, 15298.00
1070.053, 15266.00
1071.154, 15258.30
1072.255, 15136.00
1073.356, 15272.00
1074.457, 15068.00
1075.557, 15119.00
1076.658, 15008.00
1077.758, 14954.00
1078.858, 14966.00
1079.958, 14931.00
1081.057, 14929.00
1082.157, 14869.69
1083.256, 14783.00
1084.356, 14781.00
1085.455, 14790.00
1086.554, 14844.00
1087.653, 14816.00
1088.751, 14819.07
1089.850, 14663.00
1090.948, 14733.00
1092.046, 14669.00
1093.144, 14518.00
1094.242, 14620.00
1095.340, 14524.00
1096.437, 14496.00
1097.534, 14615.00
1098.632, 14532.00
1099.729, 14491.00
1100.826, 14413.00
1101.922, 14361.00
1103.019, 14297.00
1104.115, 14229.00
1105.212, 14212.00
1106.308, 14108.00
1107.404, 14164.00
1108.499, 14139.00
1109.595, 14033.00
1110.691, 14076.00
1111.786, 13962.00
1112.881, 13866.00
1113.976, 13896.00
1115.071, 13800.13
1116.166, 13860.00
1117.260, 13764.00
1118.355, 13748.00
1119.449, 13840.00
1120.543, 13865.00
1121.637, 13801.00
1122.731, 13779.00
1123.824, 13729.00
1124.918, 13735.00
1126.011, 13706.00
1127.104, 13626.00
1128.197, 13491.00
1129.290, 13685.00
1130.382, 13572.00
1131.475, 13426.00
1132.567, 13582.00
1133.659, 13646.00
1134.751, 13514.00
1135.843, 13420.00
1136.935, 13437.00
1138.027, 13438.00
1139.118, 13570.00
1140.209, 13571.00
1141.300, 13500.00
1142.391, 13415.00
1143.482, 13370.00
1144.573, 13361.22
1145.663, 13340.00
1146.754, 13372.00
1147.844, 13450.00
1148.934, 13437.00
1150.024, 13431.00
1151.113, 13426.00
1152.203, 13365.00
1153.292, 13335.00
1154.381, 13293.00
1155.470, 13371.00
1156.559, 13178.00
1157.648, 13386.00
1158.737, 13278.00
1159.825, 13378.00
1160.913, 13320.00
1162.001, 13357.00
1163.089, 13296.00
1164.177, 13310.00
1165.265, 13238.00
1166.352, 13209.00
1167.440, 13273.00
1168.527, 13316.00
1169.614, 13339.00
1170.701, 13346.00
1171.788, 13399.00
1172.874, 13342.00
1173.961, 13395.00
1175.047, 13405.00
1176.133, 13253.00
1177.219, 13268.00
1178.305, 13247.00
1179.390, 13368.00
1180.476, 13315.00
1181.561, 13259.00
1182.646, 13197.00
1183.731, 13370.00
1184.816, 13157.00
1185.901, 13233.00
1186.985, 13324.00
1188.070, 13130.47
1189.154, 13235.00
1190.238, 13302.36
1191.322, 13334.47
1192.406, 13231.74
1193.489, 13298.47
1194.573, 13294.47
1195.656, 13285.61
1196.739, 13370.42
1197.822, 13276.90
1198.905, 13356.16
1199.988, 13363.62
1201.070, 13401.00
1202.153, 13367.21
1203.235, 13400.00
1204.317, 13402.00
1205.399, 13509.72
1206.481, 13517.72
1207.562, 13627.00
1208.644, 13629.00
1209.725, 13494.00
1210.806, 13614.00
1211.887, 13666.00
1212.968, 13835.00
1214.049, 13706.00
1215.129, 13716.00
1216.209, 13768.00
1217.290, 13776.00
1218.370, 13690.00
1219.450, 13664.00
1220.529, 13726.00
1221.609, 13672.00
1222.688, 13870.00
1223.768, 13833.00
1224.847, 13856.00
1225.926, 13955.00
1227.005, 13948.00
1228.083, 13999.83
1229.162, 14034.46
1230.240, 14060.00
1231.318, 14080.00
1232.396, 14101.00
1233.474, 14108.00
1234.552, 14157.00
1235.629, 14110.61
1236.707, 13999.00
1237.784, 14064.00
1238.861, 14094.00
1239.938, 14158.00
1241.015, 14025.00
1242.092, 14124.00
1243.168, 14204.00
1244.244, 14275.00
1245.321, 14086.00
1246.397, 14092.00
1247.473, 13979.00
1248.548, 14035.00
1249.624, 14073.00
1250.699, 13898.00
1251.775, 14058.00
1252.850, 14023.00
1253.925, 14126.00
1254.999, 14060.00
1256.074, 14059.00
1257.148, 13978.00
1258.223, 13976.82
1259.297, 14047.00
1260.371, 13973.00
1261.445, 13916.00
1262.519, 13941.00
1263.592, 13822.00
1264.666, 13836.00
1265.739, 13913.00
1266.812, 13877.72
1267.885, 13924.81
1268.958, 13899.00
1270.030, 13946.00
1271.103, 13892.00
1272.175, 13844.00
1273.247, 13994.00
1274.319, 13829.00
1275.391, 13817.00
1276.463, 13869.00
1277.535, 13944.00
1278.606, 13936.00
1279.677, 13762.00
1280.748, 13877.00
1281.819, 13867.00
1282.890, 13759.00
1283.961, 13931.00
1285.031, 13675.00
1286.102, 13830.00
1287.172, 13779.00
1288.242, 13862.00
1289.312, 13786.00
1290.381, 13711.00
1291.451, 13739.00
1292.520, 13679.42
1293.590, 13713.03
1294.659, 13649.00
1295.728, 13751.00
1296.797, 13763.00
1297.865, 13706.00
1298.934, 13717.00
1300.002, 13855.00
1301.070, 13767.00
1302.138, 13730.00
1303.206, 13836.00
1304.274, 13649.00
1305.341, 13827.00
1306.409, 13873.00
1307.476, 13886.00
1308.543, 13784.00
1309.610, 13633.00
1310.677, 13700.00
1311.744, 13753.00
1312.810, 13690.00
1313.877, 13716.00
1314.943, 13620.00
1316.009, 13815.00
1317.075, 13773.00
1318.140, 13918.00
1319.206, 13741.00
1320.272, 13751.00
1321.337, 13849.00
1322.402, 13789.00
1323.467, 13812.00
1324.532, 13664.00
1325.596, 13665.00
1326.661, 13801.00
1327.725, 13746.00
1328.790, 13799.00
1329.854, 13663.00
1330.918, 13818.00
1331.981, 13682.00
1333.045, 13644.00
1334.108, 13719.00
1335.172, 13715.00
1336.235, 13650.00
1337.298, 13759.00
1338.361, 13765.00
1339.423, 13686.00
1340.486, 13782.00
1341.548, 13731.00
1342.611, 13541.00
1343.673, 13767.00
1344.735, 13723.00
1345.796, 13800.00
1346.858, 13696.00
1347.919, 13713.00
1348.981, 13757.00
1350.042, 13801.00
1351.103, 13669.00
1352.164, 13721.63
1353.225, 13868.00
1354.285, 13695.00
1355.346, 13702.00
1356.406, 13682.00
1357.466, 13878.00
1358.526, 13599.00
1359.586, 13700.00
1360.645, 13880.00
1361.705, 13804.00
1362.764, 13791.00
1363.823, 13671.00
1364.882, 13668.00
1365.941, 13770.00
1367.000, 13754.00
1368.059, 13605.00
1369.117, 13788.00
1370.175, 13673.00
1371.233, 13809.00
1372.291, 13769.00
1373.349, 13893.00
1374.407, 13859.89
1375.464, 13864.00
1376.522, 13815.00
1377.579, 13763.00
1378.636, 13772.00
1379.693, 13708.00
1380.750, 13723.58
1381.806, 13757.00
1382.863, 13752.00
1383.919, 13781.00
1384.975, 13816.00
1386.031, 13822.00
1387.087, 13601.00
1388.143, 13676.00
1389.199, 13654.00
1390.254, 13581.00
1391.309, 13899.00
1392.364, 13677.00
1393.419, 13695.00
1394.474, 13716.00
1395.529, 13561.00
1396.583, 13678.00
1397.638, 13563.00
1398.692, 13580.00
1399.746, 13639.00
1400.800, 13683.00
1401.853, 13588.00
1402.907, 13663.00
1403.960, 13649.00
1405.014, 13699.00
1406.067, 13572.00
1407.120, 13682.00
1408.173, 13600.00
1409.225, 13511.00
1410.278, 13641.00
1411.330, 13549.00
1412.383, 13578.00
1413.435, 13806.00
1414.487, 13477.00
1415.538, 13743.00
1416.590, 13612.00
1417.641, 13708.00
1418.693, 13737.00
1419.744, 13699.00
1420.795, 13691.00
1421.846, 13587.00
1422.897, 13487.00
1423.947, 13781.00
1424.998, 13604.00
1426.048, 13756.00
1427.098, 13843.00
1428.148, 13856.00
1429.198, 13880.00
1430.247, 13755.00
1431.297, 13671.00
1432.346, 13725.00
1433.396, 13717.00
1434.445, 13726.00
1435.494, 13788.00
1436.542, 13913.00
1437.591, 13792.00
1438.639, 13759.00
1439.688, 13806.00
1440.736, 13625.00
1441.784, 13738.00
1442.832, 13794.00
1443.880, 13820.00
1444.927, 13771.00
1445.975, 13789.00
1447.022, 13961.00
1448.069, 13910.00
1449.116, 13795.00
1450.163, 13919.00
1451.209, 13851.00
1452.256, 13881.00
1453.302, 13908.00
1454.348, 13987.00
1455.394, 13991.00
1456.440, 13957.00
1457.486, 13911.00
1458.532, 13909.00
1459.577, 13892.07
1460.623, 13889.02
1461.668, 13881.00
1462.713, 13917.00
1463.758, 13895.00
1464.802, 13941.00
1465.847, 13954.00
1466.891, 13846.00
1467.936, 13842.00
1468.980, 13864.00
1470.024, 13958.00
1471.067, 13982.00
1472.111, 13900.00
1473.155, 13811.00
1474.198, 14046.00
1475.241, 13742.00
1476.284, 13923.00
1477.327, 13912.00
1478.370, 13827.00
1479.413, 13941.00
1480.455, 13792.00
1481.497, 13908.00
1482.540, 14034.00
1483.582, 13711.00
1484.624, 13795.00
1485.665, 13847.00
1486.707, 13888.00
1487.748, 13947.00
1488.790, 13870.00
1489.831, 13922.00
1490.872, 13929.00
1491.912, 13837.00
1492.953, 13746.00
1493.994, 13841.00
1495.034, 13907.00
1496.074, 13836.00
1497.114, 13853.00
1498.154, 13861.00
1499.194, 13781.00
1500.234, 13989.00
1501.273, 13890.00
1502.313, 13688.00
1503.352, 13857.00
1504.391, 13820.00
1505.430, 13863.00
1506.468, 13975.00
1507.507, 13888.00
1508.545, 13854.00
1509.584, 13816.00
1510.622, 13853.00
1511.660, 13913.00
1512.698, 14020.00
1513.735, 13937.00
1514.773, 13984.00
1515.810, 13948.00
1516.848, 13816.00
1517.885, 13873.00
1518.922, 13853.00
1519.958, 13939.00
1520.995, 13804.00
1522.032, 13758.00
1523.068, 13997.00
1524.104, 13690.00
1525.140, 13851.00
1526.176, 13822.00
1527.212, 13797.17
1528.248, 13848.62
1529.283, 13777.00
1530.318, 13900.00
1531.353, 13694.00
1532.389, 13813.00
1533.423, 13907.00
1534.458, 13761.00
1535.493, 13827.00
1536.527, 13772.00
1537.561, 13738.00
1538.596, 13652.00
1539.630, 13715.00
1540.663, 13862.00
1541.697, 13785.00
1542.731, 13888.00
1543.764, 13683.00
1544.797, 13788.00
1545.830, 13607.00
1546.863, 13805.00
1547.896, 13687.00
##END=



