##NAMES=Fluorapatite
##RRUFFID=R050617
##IDEAL CHEMISTRY=Ca_5_(PO_4_)_3_F
##LOCALITY=Santa Cruz, Sonora, Mexico
##OWNER=RRUFF
##SOURCE=University of Arizona Mineral Museum
##DESCRIPTION=Tan colored hexagonal prism
##STATUS=The identification of this mineral is confirmed by single-crystal X-ray diffraction and chemical analysis.
##URL=rruff.info/R050617
##MEASURED CHEMISTRY=Ca_5.00_(P_1.00_O_4_)_3_(F_0.99_Cl_0.01_)
##PIN_ID=L01712
##ORIENTATION=Laser parallel to c* (0 0 1). Fiducial mark perpendicular to laser is parallel to -b [0 -1 0]
105.8150, 1629.000
107.0470, 1648.000
108.2800, 1714.000
109.5120, 1699.000
110.7440, 1727.000
111.9760, 1679.000
113.2080, 1717.000
114.4400, 1673.000
115.6710, 1710.000
116.9030, 1731.000
118.1340, 1727.000
119.3650, 1752.000
120.5960, 1783.000
121.8270, 1768.000
123.0580, 1807.000
124.2880, 1838.000
125.5190, 1873.000
126.7490, 1908.000
127.9790, 1946.764
129.2090, 1976.000
130.4390, 2042.000
131.6680, 2097.000
132.8980, 2176.000
134.1270, 2184.000
135.3560, 2153.000
136.5850, 2195.000
137.8140, 2229.000
139.0430, 2220.000
140.2710, 2278.000
141.5000, 2278.000
142.7280, 2286.000
143.9560, 2265.000
145.1840, 2213.000
146.4120, 2189.000
147.6390, 2223.000
148.8670, 2184.000
150.0940, 2190.000
151.3210, 2260.000
152.5490, 2260.000
153.7750, 2224.000
155.0020, 2216.000
156.2290, 2244.000
157.4550, 2262.000
158.6810, 2240.000
159.9080, 2221.000
161.1340, 2234.000
162.3590, 2253.000
163.5850, 2167.000
164.8110, 2153.000
166.0360, 2142.000
167.2610, 2206.000
168.4860, 2169.000
169.7110, 2173.000
170.9360, 2169.000
172.1610, 2134.000
173.3850, 2133.000
174.6100, 2155.000
175.8340, 2176.000
177.0580, 2144.000
178.2820, 2161.000
179.5050, 2128.000
180.7290, 2150.000
181.9520, 2160.000
183.1760, 2167.000
184.3990, 2189.000
185.6220, 2186.024
186.8450, 2206.127
188.0670, 2190.000
189.2900, 2224.000
190.5120, 2236.000
191.7340, 2216.000
192.9560, 2245.000
194.1780, 2202.000
195.4000, 2232.000
196.6220, 2240.000
197.8430, 2292.000
199.0640, 2293.875
200.2860, 2274.000
201.5070, 2312.000
202.7270, 2324.000
203.9480, 2329.000
205.1690, 2346.000
206.3890, 2340.000
207.6090, 2347.935
208.8290, 2361.000
210.0490, 2344.000
211.2690, 2348.000
212.4890, 2328.000
213.7080, 2393.000
214.9280, 2375.000
216.1470, 2433.000
217.3660, 2342.000
218.5850, 2388.000
219.8030, 2426.000
221.0220, 2447.000
222.2400, 2456.556
223.4590, 2469.076
224.6770, 2465.000
225.8950, 2472.000
227.1120, 2508.000
228.3300, 2512.000
229.5480, 2597.000
230.7650, 2519.000
231.9820, 2612.000
233.1990, 2565.000
234.4160, 2595.000
235.6330, 2608.000
236.8490, 2592.000
238.0660, 2589.000
239.2820, 2602.000
240.4980, 2597.000
241.7140, 2644.000
242.9300, 2584.000
244.1460, 2570.000
245.3610, 2623.000
246.5770, 2576.000
247.7920, 2565.000
249.0070, 2634.000
250.2220, 2598.000
251.4370, 2632.000
252.6510, 2621.000
253.8660, 2653.000
255.0800, 2697.000
256.2940, 2773.000
257.5080, 2780.000
258.7220, 2862.000
259.9360, 2944.000
261.1490, 2897.000
262.3630, 2924.000
263.5760, 2957.000
264.7890, 2972.000
266.0020, 2956.000
267.2150, 2966.000
268.4270, 2938.000
269.6400, 2943.000
270.8520, 2992.000
272.0640, 2911.000
273.2760, 2915.000
274.4880, 2934.000
275.7000, 2894.000
276.9120, 2859.000
278.1230, 2860.000
279.3340, 2866.000
280.5450, 2849.000
281.7560, 2848.000
282.9670, 2834.000
284.1780, 2934.000
285.3880, 2897.000
286.5980, 2934.000
287.8090, 2929.000
289.0190, 2871.000
290.2290, 2877.000
291.4380, 2935.000
292.6480, 2944.000
293.8570, 3041.000
295.0670, 2977.000
296.2760, 3006.000
297.4850, 2979.000
298.6930, 3073.000
299.9020, 3044.000
301.1110, 3092.000
302.3190, 3110.000
303.5270, 3091.000
304.7350, 3132.000
305.9430, 3062.000
307.1510, 3063.000
308.3580, 3170.000
309.5660, 3123.000
310.7730, 3161.000
311.9800, 3188.000
313.1870, 3139.000
314.3940, 3112.000
315.6010, 3152.000
316.8070, 3174.000
318.0130, 3168.000
319.2200, 3172.137
320.4260, 3114.000
321.6310, 3144.000
322.8370, 3133.000
324.0430, 3121.000
325.2480, 3133.000
326.4540, 3165.000
327.6590, 3162.000
328.8640, 3157.000
330.0680, 3216.000
331.2730, 3195.000
332.4780, 3208.000
333.6820, 3210.000
334.8860, 3192.000
336.0900, 3242.000
337.2940, 3258.000
338.4980, 3208.000
339.7010, 3241.000
340.9050, 3259.000
342.1080, 3264.000
343.3110, 3305.000
344.5140, 3283.000
345.7170, 3312.000
346.9200, 3276.000
348.1220, 3315.000
349.3240, 3349.000
350.5270, 3389.000
351.7290, 3371.000
352.9310, 3374.000
354.1320, 3374.000
355.3340, 3410.000
356.5350, 3406.000
357.7370, 3429.000
358.9380, 3388.000
360.1390, 3470.000
361.3400, 3410.000
362.5400, 3450.000
363.7410, 3459.000
364.9410, 3445.000
366.1410, 3436.000
367.3410, 3467.000
368.5410, 3544.000
369.7410, 3432.000
370.9400, 3526.000
372.1400, 3505.000
373.3390, 3532.000
374.5380, 3584.000
375.7370, 3582.000
376.9360, 3617.000
378.1350, 3578.000
379.3330, 3610.000
380.5310, 3614.000
381.7300, 3636.000
382.9280, 3584.000
384.1260, 3642.000
385.3230, 3625.000
386.5210, 3725.000
387.7180, 3649.000
388.9160, 3637.000
390.1130, 3718.000
391.3100, 3761.000
392.5060, 3736.000
393.7030, 3776.000
394.9000, 3745.000
396.0960, 3786.000
397.2920, 3786.000
398.4880, 3826.000
399.6840, 3821.000
400.8800, 3805.000
402.0750, 3833.000
403.2710, 3879.000
404.4660, 3942.000
405.6610, 3908.000
406.8560, 3913.000
408.0510, 3928.000
409.2450, 3873.000
410.4400, 3900.000
411.6340, 3878.000
412.8280, 3909.391
414.0220, 3954.466
415.2160, 4013.000
416.4100, 4049.000
417.6030, 4146.000
418.7970, 4155.000
419.9900, 4164.000
421.1830, 4129.000
422.3760, 4214.000
423.5690, 4202.000
424.7610, 4309.000
425.9540, 4325.000
427.1460, 4320.000
428.3380, 4362.000
429.5300, 4456.000
430.7220, 4566.000
431.9140, 4508.000
433.1050, 4623.000
434.2970, 4681.000
435.4880, 4678.000
436.6790, 4712.000
437.8700, 4844.000
439.0610, 4907.000
440.2510, 5036.000
441.4420, 5036.000
442.6320, 4999.000
443.8220, 5093.000
445.0120, 5044.000
446.2020, 5117.000
447.3910, 5112.000
448.5810, 4997.000
449.7700, 5079.000
450.9600, 5049.000
452.1490, 4951.000
453.3370, 4828.000
454.5260, 4880.000
455.7150, 4827.000
456.9030, 4708.000
458.0910, 4737.000
459.2800, 4789.000
460.4670, 4699.000
461.6550, 4644.000
462.8430, 4655.000
464.0300, 4658.000
465.2180, 4761.000
466.4050, 4697.000
467.5920, 4831.000
468.7790, 4673.000
469.9650, 4714.000
471.1520, 4774.000
472.3380, 4706.000
473.5250, 4812.000
474.7110, 4832.000
475.8970, 4760.000
477.0820, 4817.000
478.2680, 4791.000
479.4540, 4826.000
480.6390, 4836.395
481.8240, 4833.000
483.0090, 4863.000
484.1940, 4863.000
485.3780, 4890.000
486.5630, 4848.000
487.7470, 4916.000
488.9320, 4918.000
490.1160, 4996.000
491.3000, 4968.000
492.4830, 4935.000
493.6670, 4968.000
494.8500, 5003.000
496.0340, 5018.000
497.2170, 5016.000
498.4000, 5087.000
499.5820, 4989.000
500.7650, 5081.000
501.9480, 5117.000
503.1300, 5011.000
504.3120, 5136.000
505.4940, 5172.000
506.6760, 5178.000
507.8580, 5159.000
509.0390, 5081.000
510.2210, 5180.000
511.4020, 5140.000
512.5830, 5185.000
513.7640, 5237.000
514.9450, 5241.000
516.1250, 5298.000
517.3060, 5255.000
518.4860, 5346.000
519.6660, 5328.000
520.8460, 5309.000
522.0260, 5443.000
523.2060, 5364.000
524.3850, 5404.000
525.5650, 5403.000
526.7440, 5439.000
527.9230, 5455.605
529.1020, 5446.000
530.2810, 5500.000
531.4590, 5525.000
532.6380, 5562.000
533.8160, 5566.000
534.9940, 5502.000
536.1720, 5589.000
537.3500, 5537.000
538.5270, 5632.000
539.7050, 5598.000
540.8820, 5641.000
542.0590, 5749.000
543.2360, 5657.000
544.4130, 5742.000
545.5900, 5754.000
546.7660, 5712.000
547.9430, 5762.000
549.1190, 5716.000
550.2950, 5857.000
551.4710, 5853.000
552.6470, 5778.000
553.8220, 5853.000
554.9980, 5987.000
556.1730, 5928.000
557.3480, 5975.000
558.5230, 6001.000
559.6980, 5945.000
560.8730, 6045.000
562.0470, 6122.000
563.2220, 6067.000
564.3960, 6119.000
565.5700, 6165.000
566.7440, 6136.000
567.9170, 6127.000
569.0910, 6381.000
570.2640, 6459.000
571.4380, 6544.000
572.6110, 6689.000
573.7840, 6820.000
574.9570, 6947.000
576.1290, 7129.000
577.3020, 7055.000
578.4740, 7048.000
579.6460, 7231.000
580.8180, 7140.000
581.9900, 7205.000
583.1620, 7059.000
584.3330, 7010.000
585.5040, 6903.000
586.6760, 6880.000
587.8470, 6725.000
589.0180, 6849.000
590.1880, 6748.000
591.3590, 6814.000
592.5290, 6817.000
593.7000, 6854.000
594.8700, 6823.000
596.0400, 6864.000
597.2090, 6873.000
598.3790, 6970.000
599.5490, 7055.000
600.7180, 7101.000
601.8870, 7140.000
603.0560, 7269.000
604.2250, 7332.000
605.3940, 7278.000
606.5620, 7464.000
607.7300, 7433.000
608.8990, 7371.000
610.0670, 7415.000
611.2350, 7360.000
612.4020, 7261.000
613.5700, 7310.000
614.7370, 7227.000
615.9050, 7330.000
617.0720, 7219.000
618.2390, 7308.000
619.4060, 7312.000
620.5720, 7283.000
621.7390, 7285.000
622.9050, 7288.000
624.0710, 7293.000
625.2370, 7285.000
626.4030, 7216.000
627.5690, 7307.000
628.7340, 7121.000
629.9000, 7220.000
631.0650, 7281.000
632.2300, 7292.000
633.3950, 7361.000
634.5600, 7336.000
635.7240, 7421.000
636.8890, 7400.000
638.0530, 7373.000
639.2170, 7577.000
640.3810, 7526.000
641.5450, 7598.000
642.7080, 7527.000
643.8720, 7614.000
645.0350, 7669.000
646.1980, 7651.000
647.3610, 7706.032
648.5240, 7729.748
649.6870, 7745.000
650.8490, 7791.000
652.0120, 7822.000
653.1740, 7848.000
654.3360, 7860.000
655.4980, 7884.200
656.6600, 7894.000
657.8210, 7903.000
658.9830, 7881.000
660.1440, 7930.519
661.3050, 7957.000
662.4660, 8033.000
663.6270, 8077.000
664.7870, 8164.000
665.9480, 8062.000
667.1080, 8134.000
668.2680, 8015.000
669.4280, 8186.000
670.5880, 8108.000
671.7480, 8126.000
672.9070, 8254.000
674.0670, 8238.000
675.2260, 8314.000
676.3850, 8305.000
677.5440, 8317.000
678.7030, 8378.000
679.8610, 8379.000
681.0200, 8464.000
682.1780, 8452.961
683.3360, 8418.000
684.4940, 8447.000
685.6520, 8498.000
686.8090, 8493.000
687.9670, 8645.000
689.1240, 8699.000
690.2810, 8679.000
691.4380, 8722.000
692.5950, 8634.000
693.7520, 8782.000
694.9080, 8840.000
696.0650, 8793.000
697.2210, 8783.000
698.3770, 8787.000
699.5330, 8834.000
700.6880, 8782.000
701.8440, 8879.000
702.9990, 8951.000
704.1550, 8989.000
705.3100, 8941.000
706.4650, 9017.000
707.6190, 8934.000
708.7740, 9068.000
709.9290, 9100.000
711.0830, 9243.000
712.2370, 9207.000
713.3910, 9172.000
714.5450, 9326.000
715.6980, 9244.000
716.8520, 9309.000
718.0050, 9309.000
719.1580, 9385.000
720.3110, 9400.771
721.4640, 9385.000
722.6170, 9457.000
723.7700, 9496.000
724.9220, 9542.000
726.0740, 9543.000
727.2260, 9580.000
728.3780, 9537.000
729.5300, 9758.000
730.6810, 9666.000
731.8330, 9766.000
732.9840, 9744.000
734.1350, 9697.000
735.2860, 9769.000
736.4370, 9877.000
737.5880, 9948.000
738.7380, 9946.909
739.8880, 9961.000
741.0390, 9918.000
742.1890, 9929.000
743.3380, 9926.000
744.4880, 9953.000
745.6380, 10017.00
746.7870, 10059.00
747.9360, 10088.09
749.0850, 10207.00
750.2340, 10137.00
751.3830, 10242.00
752.5310, 10254.00
753.6800, 10255.00
754.8280, 10300.00
755.9760, 10413.00
757.1240, 10465.00
758.2720, 10386.00
759.4190, 10364.00
760.5670, 10508.00
761.7140, 10385.00
762.8610, 10567.00
764.0080, 10626.00
765.1550, 10709.00
766.3020, 10790.00
767.4480, 10698.00
768.5950, 10671.00
769.7410, 10685.00
770.8870, 10728.11
772.0330, 10863.00
773.1780, 10911.00
774.3240, 10992.00
775.4690, 11094.00
776.6140, 10939.00
777.7590, 11034.00
778.9040, 11073.00
780.0490, 11065.00
781.1940, 11119.00
782.3380, 11145.70
783.4820, 11211.00
784.6260, 11222.00
785.7700, 11294.00
786.9140, 11334.00
788.0580, 11483.00
789.2010, 11468.00
790.3450, 11536.46
791.4880, 11476.00
792.6310, 11595.00
793.7730, 11542.00
794.9160, 11544.00
796.0590, 11615.00
797.2010, 11639.00
798.3430, 11729.00
799.4850, 11741.00
800.6270, 11811.00
801.7690, 11768.00
802.9100, 11814.00
804.0520, 11903.00
805.1930, 11863.00
806.3340, 12002.00
807.4750, 11934.00
808.6160, 12153.00
809.7560, 12016.00
810.8970, 12124.99
812.0370, 12309.00
813.1770, 12256.00
814.3170, 12228.00
815.4570, 12314.00
816.5960, 12336.00
817.7360, 12378.27
818.8750, 12384.00
820.0140, 12468.00
821.1530, 12500.00
822.2920, 12516.73
823.4310, 12589.00
824.5690, 12519.00
825.7070, 12573.00
826.8460, 12786.00
827.9840, 12726.00
829.1220, 12778.00
830.2590, 12800.00
831.3970, 12854.00
832.5340, 12890.00
833.6710, 12901.00
834.8080, 12891.00
835.9450, 12935.55
837.0820, 13072.00
838.2190, 13008.00
839.3550, 13013.00
840.4910, 13062.02
841.6270, 13409.00
842.7630, 13231.00
843.8990, 13315.00
845.0350, 13491.00
846.1700, 13383.00
847.3060, 13423.00
848.4410, 13514.00
849.5760, 13680.00
850.7100, 13708.34
851.8450, 13719.00
852.9800, 13814.00
854.1140, 13796.00
855.2480, 13789.00
856.3820, 13940.00
857.5160, 13949.00
858.6500, 13931.00
859.7830, 13902.00
860.9170, 14099.00
862.0500, 13997.00
863.1830, 14244.00
864.3160, 14205.00
865.4480, 14055.00
866.5810, 14068.00
867.7130, 14222.00
868.8460, 14144.00
869.9780, 14334.00
871.1100, 14309.00
872.2410, 14528.00
873.3730, 14419.00
874.5050, 14425.00
875.6360, 14473.00
876.7670, 14639.00
877.8980, 14624.00
879.0290, 14542.00
880.1590, 14904.00
881.2900, 14696.00
882.4200, 14922.00
883.5500, 14777.00
884.6800, 14937.00
885.8100, 14896.00
886.9400, 15037.00
888.0690, 15115.00
889.1990, 14980.00
890.3280, 15214.00
891.4570, 15202.00
892.5860, 15179.00
893.7140, 15295.00
894.8430, 15224.00
895.9710, 15295.00
897.1000, 15245.00
898.2280, 15397.00
899.3560, 15548.00
900.4830, 15570.00
901.6110, 15582.00
902.7380, 15657.00
903.8660, 15722.00
904.9930, 15755.00
906.1200, 15757.00
907.2460, 15902.00
908.3730, 15758.00
909.5000, 15855.00
910.6260, 15912.00
911.7520, 15854.00
912.8780, 16083.00
914.0040, 16193.00
915.1290, 16073.00
916.2550, 16283.00
917.3800, 16295.00
918.5050, 16470.00
919.6300, 16398.00
920.7550, 16606.00
921.8800, 16371.00
923.0040, 16552.00
924.1290, 16645.00
925.2530, 16651.00
926.3770, 16858.00
927.5010, 16928.00
928.6250, 16658.00
929.7480, 16999.00
930.8720, 16871.00
931.9950, 17050.00
933.1180, 17207.00
934.2410, 17245.00
935.3640, 17238.00
936.4860, 17307.00
937.6090, 17301.00
938.7310, 17427.00
939.8530, 17494.00
940.9750, 17581.00
942.0970, 17731.00
943.2180, 17779.00
944.3400, 17935.22
945.4610, 17950.00
946.5820, 18221.00
947.7030, 18159.00
948.8240, 18296.00
949.9450, 18645.00
951.0650, 18876.00
952.1860, 19123.00
953.3060, 19701.00
954.4260, 20460.00
955.5460, 21760.00
956.6650, 23826.00
957.7850, 26558.00
958.9040, 29310.00
960.0230, 31464.00
961.1420, 33277.00
962.2610, 34594.00
963.3800, 34523.00
964.4990, 34055.00
965.6170, 32240.00
966.7350, 29649.00
967.8530, 26666.00
968.9710, 24352.00
970.0890, 22793.00
971.2070, 21703.00
972.3240, 20972.00
973.4410, 20412.00
974.5580, 20219.00
975.6750, 19846.00
976.7920, 19832.00
977.9090, 19556.00
979.0250, 19437.00
980.1410, 19596.00
981.2580, 19533.00
982.3740, 19657.00
983.4890, 19566.00
984.6050, 19528.00
985.7200, 19674.00
986.8360, 19794.00
987.9510, 19756.00
989.0660, 19883.00
990.1810, 19818.00
991.2950, 19886.00
992.4100, 19891.00
993.5240, 19833.00
994.6390, 20108.00
995.7530, 20007.00
996.8660, 20176.00
997.9800, 20144.00
999.0940, 20304.00
1000.207, 20264.00
1001.320, 20363.57
1002.433, 20307.00
1003.546, 20524.00
1004.659, 20560.00
1005.772, 20629.00
1006.884, 20705.00
1007.996, 20870.00
1009.108, 20904.00
1010.220, 20751.00
1011.332, 20990.00
1012.444, 20831.00
1013.555, 21121.00
1014.666, 21261.00
1015.777, 21262.00
1016.888, 21410.79
1017.999, 21356.00
1019.110, 21502.00
1020.220, 21547.00
1021.331, 21580.00
1022.441, 21749.00
1023.551, 21565.00
1024.661, 21744.00
1025.770, 22157.00
1026.880, 22103.00
1027.989, 22263.00
1029.098, 22417.00
1030.207, 22473.00
1031.316, 22602.00
1032.425, 22658.00
1033.533, 22626.00
1034.642, 22688.00
1035.750, 22685.57
1036.858, 22514.00
1037.966, 22669.00
1039.073, 22709.00
1040.181, 22639.00
1041.288, 22829.00
1042.396, 22830.00
1043.503, 22960.00
1044.610, 22995.00
1045.716, 23003.00
1046.823, 23148.00
1047.929, 23175.00
1049.036, 23065.00
1050.142, 22949.00
1051.248, 23450.00
1052.353, 23461.00
1053.459, 23698.00
1054.564, 23827.00
1055.670, 23887.00
1056.775, 24259.00
1057.880, 24131.00
1058.985, 24249.00
1060.089, 24176.00
1061.194, 24233.00
1062.298, 24171.00
1063.402, 24108.00
1064.506, 24143.00
1065.610, 24078.00
1066.713, 24332.00
1067.817, 24093.00
1068.920, 24412.00
1070.023, 24222.00
1071.126, 24402.00
1072.229, 24417.00
1073.332, 24561.00
1074.435, 24575.00
1075.537, 24841.00
1076.639, 25000.00
1077.741, 24931.00
1078.843, 25188.00
1079.945, 25044.00
1081.046, 25109.00
1082.148, 25042.00
1083.249, 25265.00
1084.350, 25220.00
1085.451, 25040.00
1086.551, 25398.00
1087.652, 25316.00
1088.752, 25577.00
1089.853, 25514.00
1090.953, 25732.00
1092.053, 25687.00
1093.152, 25735.00
1094.252, 25751.00
1095.351, 25862.00
1096.451, 25999.00
1097.550, 25988.00
1098.649, 26110.00
1099.748, 26156.00
1100.846, 26221.16
1101.945, 26310.00
1103.043, 26348.00
1104.141, 26383.00
1105.239, 26397.00
1106.337, 26646.00
1107.434, 26602.00
1108.532, 26573.00
1109.629, 26774.00
1110.726, 27031.00
1111.823, 26828.00
1112.920, 26909.00
1114.017, 27180.00
1115.113, 27152.00
1116.210, 27191.00
1117.306, 26853.00
1118.402, 27264.00
1119.498, 27294.00
1120.593, 27480.00
1121.689, 27672.00
1122.784, 27573.00
1123.879, 27741.00
1124.974, 27814.00
1126.069, 27999.00
1127.164, 27866.00
1128.259, 28007.00
1129.353, 28095.00
1130.447, 28192.00
1131.541, 28434.00
1132.635, 28322.00
1133.729, 28355.00
1134.822, 28505.00
1135.916, 28680.00
1137.009, 28684.12
1138.102, 28446.00
1139.195, 28760.00
1140.288, 28757.00
1141.380, 28809.00
1142.473, 28985.00
1143.565, 28915.00
1144.657, 29344.00
1145.749, 29292.00
1146.841, 29194.00
1147.932, 29564.00
1149.024, 29420.00
1150.115, 29381.00
1151.206, 29675.00
1152.297, 29523.00
1153.388, 29715.00
1154.479, 29835.00
1155.569, 30112.00
1156.659, 29985.00
1157.750, 29909.00
1158.839, 29897.00
1159.929, 30044.00
1161.019, 30206.00
1162.108, 30330.00
1163.198, 30462.00
1164.287, 30560.71
1165.376, 30529.00
1166.465, 30698.00
1167.553, 30688.00
1168.642, 30675.00
1169.730, 30824.00
1170.818, 30844.67
1171.906, 31102.00
1172.994, 30982.00
1174.082, 31179.00
1175.170, 31192.00
1176.257, 31364.00
1177.344, 31526.00
1178.431, 31647.00
1179.518, 31327.00
1180.605, 31682.00
1181.691, 31816.00
1182.778, 31397.00
1183.864, 31864.00
1184.950, 32152.00
1186.036, 31918.00
1187.122, 32199.00
1188.207, 32067.00
1189.292, 32296.00
1190.378, 32414.00
1191.463, 32558.00
1192.548, 32686.12
1193.632, 32752.40
1194.717, 32845.00
1195.801, 32773.00
1196.886, 32741.00
1197.970, 32831.52
1199.054, 33061.00
1200.137, 32921.00
1201.221, 33097.00
1202.305, 33038.00
1203.388, 33173.00
1204.471, 33469.00
1205.554, 33353.00
1206.637, 33681.00
1207.719, 33731.00
1208.802, 33506.00
1209.884, 33849.00
1210.966, 33822.00
1212.048, 34023.00
1213.130, 34089.00
1214.212, 34096.00
1215.293, 34214.00
1216.374, 34271.00
1217.456, 34346.06
1218.536, 34453.94
1219.617, 34509.00
1220.698, 34660.00
1221.778, 34736.00
1222.859, 34847.00
1223.939, 34821.00
1225.019, 34854.00
1226.099, 34977.00
1227.178, 35354.00
1228.258, 35133.00
1229.337, 35452.00
1230.417, 35461.00
1231.496, 35331.00
1232.574, 35527.00
1233.653, 35784.00
1234.732, 36130.00
1235.810, 36157.36
1236.888, 35952.00
1237.966, 36212.00
1239.044, 36176.00
1240.122, 36092.00
1241.199, 36385.00
1242.277, 36305.00
1243.354, 36564.00
1244.431, 36341.00
1245.508, 36747.00
1246.585, 36830.00
1247.661, 36784.00
1248.738, 36830.00
1249.814, 37013.00
1250.890, 37220.00
1251.966, 36880.00
1253.042, 37177.00
1254.117, 36927.00
1255.193, 37298.00
1256.268, 37153.00
1257.343, 37366.00
1258.418, 37432.00
1259.493, 37600.00
1260.567, 37845.00
1261.642, 37989.00
1262.716, 37647.00
1263.790, 38092.00
1264.864, 38362.00
1265.938, 38179.00
1267.011, 38658.00
1268.085, 38291.00
1269.158, 38462.00
1270.231, 38225.00
1271.304, 38620.00
1272.377, 38682.00
1273.450, 38861.00
1274.522, 38972.00
1275.594, 39040.86
1276.666, 39009.00
1277.738, 39166.00
1278.810, 39306.00
1279.882, 39348.00
1280.953, 39484.00
1282.025, 39615.00
1283.096, 39446.00
1284.167, 39776.00
1285.238, 39973.00
1286.308, 39877.00
1287.379, 40024.00
1288.449, 40015.00
1289.519, 40197.00
1290.589, 40348.00
1291.659, 40451.00
1292.729, 40439.00
1293.798, 40331.00
1294.868, 40531.00
1295.937, 40576.00
1297.006, 40944.00
1298.075, 40714.00
1299.143, 40909.00
1300.212, 41001.00
1301.280, 41054.00
1302.348, 41109.00
1303.416, 41361.00
1304.484, 41255.00
1305.552, 41508.00
1306.620, 41476.00
1307.687, 41636.00
1308.754, 42010.00
1309.821, 41945.00
1310.888, 41742.00
1311.955, 42018.00
1313.021, 42065.00
1314.088, 42241.00
1315.154, 42526.00
1316.220, 42567.10
1317.286, 42802.00
1318.352, 42772.00
1319.417, 42816.00
1320.483, 42892.00
1321.548, 42983.00
1322.613, 43106.00
1323.678, 43543.00
1324.743, 43387.00
1325.807, 43420.00
1326.872, 43608.00
1327.936, 43350.00
1329.000, 43557.00
1330.064, 43797.00
1331.128, 43699.00
1332.191, 43987.00
1333.255, 43937.00
1334.318, 43940.00
1335.381, 44119.00
1336.444, 44546.00
1337.507, 44434.00
1338.569, 44646.00
1339.632, 44642.00
1340.694, 44706.00
1341.756, 44774.00
1342.818, 44838.57
1343.880, 44921.46
1344.941, 44971.00
1346.003, 45173.00
1347.064, 45152.00
1348.125, 45444.00
1349.186, 45871.00
1350.247, 45391.00
1351.308, 45899.00
1352.368, 45827.00
1353.428, 46011.00
1354.489, 46036.00
1355.549, 45929.00
1356.608, 46224.00
1357.668, 46282.00
1358.727, 46455.00
1359.787, 46472.00
1360.846, 46634.00
1361.905, 46523.00
1362.964, 46695.00
1364.022, 46915.00
1365.081, 46599.00
1366.139, 47066.00
1367.197, 47158.00
1368.255, 46921.00
1369.313, 47232.00
1370.371, 47536.00
1371.428, 47288.00
1372.486, 47631.00
1373.543, 47965.00
1374.600, 47776.00
1375.657, 48098.00
1376.713, 48103.00
1377.770, 48124.00
1378.826, 48097.00
1379.882, 47966.00
1380.938, 48447.00
1381.994, 48338.00
1383.050, 48678.00
1384.106, 48662.00
1385.161, 48612.00
1386.216, 48934.00
1387.271, 48857.00
1388.326, 49112.00
1389.381, 48915.00
1390.435, 49401.00
1391.490, 49232.00
1392.544, 49278.00
1393.598, 49436.00
1394.652, 49611.00
1395.705, 49875.00
1396.759, 49847.00
1397.812, 49735.00
1398.866, 49805.00
1399.919, 50123.00
1400.972, 50416.00
1402.024, 50375.00
1403.077, 50180.00
1404.129, 50562.00
1405.181, 50651.00
1406.233, 50787.00
1407.285, 51201.00
1408.337, 51022.00
1409.389, 51249.37
1410.440, 51287.00
1411.491, 51402.00
1412.542, 51486.00
1413.593, 51560.00
1414.644, 51691.00
1415.695, 51666.00
1416.745, 51753.30
1417.795, 51866.93
1418.845, 51881.00
1419.895, 52127.00
1420.945, 52297.00
1421.995, 52471.00
1423.044, 52593.00
1424.093, 52625.00
1425.142, 52775.33
1426.191, 52891.00
1427.240, 52927.00
1428.289, 53075.00
1429.337, 53037.00
1430.385, 52943.00
1431.433, 53262.00
1432.481, 53233.00
1433.529, 53591.00
1434.577, 53784.00
1435.624, 53808.00
1436.672, 53668.00
1437.719, 53884.00
1438.766, 54234.00
1439.812, 54071.00
1440.859, 54460.00
1441.905, 54628.00
1442.952, 54425.00
1443.998, 54671.00
1445.044, 54613.00
1446.090, 54511.00
1447.135, 54967.00
1448.181, 55013.00
1449.226, 54976.00
1450.271, 55157.00
1451.316, 55454.00
1452.361, 55379.00
1453.405, 55439.00
1454.450, 55714.00
1455.494, 55617.00
1456.538, 55781.00
1457.582, 55820.00
1458.626, 56036.00
1459.670, 56183.00
1460.713, 56069.00
1461.757, 56199.00
1462.800, 56430.00
1463.843, 56398.00
1464.886, 56519.00
1465.928, 56616.00
1466.971, 56831.00
1468.013, 57067.00
1469.055, 56974.00
1470.097, 57117.00
1471.139, 57457.00
1472.181, 57340.00
1473.222, 57482.00
1474.263, 57708.00
1475.305, 57659.00
1476.346, 58014.00
1477.386, 58064.00
1478.427, 57919.00
1479.468, 58147.00
1480.508, 58110.00
1481.548, 58513.00
1482.588, 58667.00
1483.628, 58636.00
1484.668, 58868.01
1485.707, 59053.00
1486.747, 58936.00
1487.786, 59190.00
1488.825, 58996.00
1489.864, 59584.00
1490.902, 59190.00
1491.941, 59328.00
1492.979, 59690.00
1494.017, 59956.00
1495.055, 59609.00
1496.093, 59883.00
1497.131, 59930.00
1498.168, 60234.00
1499.206, 60168.00
1500.243, 60368.00
1501.280, 60255.00
1502.317, 60601.00
1503.354, 60559.00
1504.390, 60570.00
1505.426, 60762.00
1506.463, 60915.00
1507.499, 61221.00
1508.535, 61135.00
1509.570, 61242.00
1510.606, 61353.00
1511.641, 61263.00
1512.676, 61678.00
1513.711, 61652.00
1514.746, 61711.00
1515.781, 61748.00
1516.816, 61784.00
1517.850, 61854.41
1518.884, 61974.30
1519.918, 62043.00
1520.952, 62201.00
1521.986, 62420.00
1523.019, 62413.00
1524.053, 62844.00
1525.086, 62808.00
1526.119, 62826.00
1527.152, 63246.00
1528.185, 63189.00
1529.217, 63106.00
1530.250, 63063.00
1531.282, 63111.09
1532.314, 63148.12
1533.346, 63392.00
1534.377, 63421.00
1535.409, 63856.00
1536.440, 64202.00
1537.472, 63890.00
1538.503, 64304.00
1539.534, 64235.00
1540.564, 64105.00
1541.595, 64451.00
1542.625, 64325.00
1543.656, 64392.00
1544.686, 64590.00
1545.716, 64480.00
1546.745, 64782.00
1547.775, 64894.00
1548.804, 64768.00
1549.834, 65292.00
1550.863, 65401.00
1551.892, 65208.00
1552.920, 65477.00
1553.949, 65493.00
1554.977, 65407.00
1556.006, 65535.00
1557.034, 65535.00
1558.062, 65535.00
1559.089, 65535.00
1560.117, 65535.00
1561.144, 65535.00
1562.172, 65535.00
1563.199, 65535.00
1564.226, 65535.00
1565.252, 65535.00
1566.279, 65535.00
1567.305, 65535.00
1568.332, 65535.00
1569.358, 65535.00
1570.384, 65535.00
1571.409, 65535.00
##END=



