##NAMES=Fluorite
##RRUFFID=R050046
##IDEAL CHEMISTRY=CaF_2_
##LOCALITY=Shangbao, Lei Yang, Hunan Province, China
##OWNER=RRUFF
##SOURCE=Eugene Schlepp
##DESCRIPTION=Pale purple crystal
##STATUS=The identification of this mineral has been confirmed by X-ray diffraction and chemical analysis
##URL=rruff.info/R050046
##MEASURED CHEMISTRY=Ca_1.000_ F_2.000_
##PIN_ID=L01404
##ORIENTATION=Laser parallel to c* (0 0 1). Fiducial mark perpendicular to laser is parallel to b [0 1 0]
168.1040, 14741.00
169.3320, 14732.18
170.5590, 14776.08
171.7860, 14781.00
173.0130, 14850.00
174.2400, 14890.00
175.4670, 14873.00
176.6930, 15047.00
177.9200, 15029.00
179.1460, 15082.00
180.3720, 15277.00
181.5980, 15126.00
182.8230, 15330.00
184.0490, 15329.00
185.2740, 15433.00
186.5000, 15488.00
187.7250, 15319.00
188.9500, 15511.00
190.1740, 15436.00
191.3990, 15732.00
192.6230, 15573.00
193.8480, 15841.00
195.0720, 15844.00
196.2960, 16011.00
197.5200, 15995.00
198.7430, 16070.00
199.9670, 16298.00
201.1900, 16155.00
202.4130, 16342.00
203.6360, 16232.00
204.8590, 16319.00
206.0820, 16124.00
207.3050, 16047.00
208.5270, 16085.00
209.7490, 16048.10
210.9710, 16168.00
212.1930, 16145.00
213.4150, 16355.00
214.6370, 16410.00
215.8580, 16400.00
217.0790, 16405.00
218.3010, 16516.00
219.5210, 16586.00
220.7420, 16556.00
221.9630, 16604.00
223.1830, 16706.00
224.4040, 16781.00
225.6240, 16911.00
226.8440, 16816.00
228.0640, 16757.00
229.2840, 16881.00
230.5030, 16779.00
231.7230, 16786.00
232.9420, 16931.00
234.1610, 16963.00
235.3800, 17029.00
236.5990, 17144.00
237.8170, 17091.00
239.0360, 17053.00
240.2540, 17308.00
241.4720, 17271.00
242.6900, 17191.00
243.9080, 17418.00
245.1250, 17267.00
246.3430, 17490.00
247.5600, 17223.00
248.7770, 17332.00
249.9940, 17243.00
251.2110, 17569.00
252.4280, 17343.00
253.6450, 17397.00
254.8610, 17587.00
256.0770, 17580.00
257.2930, 17693.00
258.5090, 18439.00
259.7250, 18553.00
260.9400, 18111.00
262.1560, 17769.00
263.3710, 17545.00
264.5860, 17687.00
265.8010, 17634.00
267.0160, 17651.00
268.2310, 17652.00
269.4450, 17763.00
270.6600, 17745.00
271.8740, 17834.00
273.0880, 17721.00
274.3020, 17902.00
275.5150, 18053.00
276.7290, 17962.00
277.9420, 17893.00
279.1550, 17869.00
280.3680, 18009.00
281.5810, 18047.00
282.7940, 18205.00
284.0070, 18207.00
285.2190, 18355.00
286.4310, 18382.81
287.6430, 18386.00
288.8550, 18425.00
290.0670, 18498.00
291.2790, 18471.00
292.4900, 18749.00
293.7020, 18733.00
294.9130, 18782.00
296.1240, 18950.00
297.3350, 18915.00
298.5450, 19063.00
299.7560, 18835.00
300.9660, 19042.00
302.1760, 19140.00
303.3860, 19043.00
304.5960, 19231.00
305.8060, 19315.00
307.0150, 19621.00
308.2250, 19869.00
309.4340, 20087.00
310.6430, 20216.00
311.8520, 20813.00
313.0610, 21312.00
314.2700, 21428.00
315.4780, 22244.00
316.6860, 22598.00
317.8940, 23202.00
319.1020, 23658.00
320.3100, 23891.00
321.5180, 23572.00
322.7250, 23370.00
323.9330, 22845.00
325.1400, 22257.00
326.3470, 21700.00
327.5540, 21348.00
328.7600, 20957.00
329.9670, 20736.00
331.1730, 20379.00
332.3800, 20361.00
333.5860, 20449.00
334.7920, 20175.00
335.9970, 20194.00
337.2030, 20114.00
338.4080, 20211.00
339.6140, 20083.00
340.8190, 20181.00
342.0240, 20147.00
343.2290, 20412.00
344.4330, 20400.00
345.6380, 20151.00
346.8420, 20388.00
348.0460, 20266.00
349.2500, 20274.00
350.4540, 20215.00
351.6580, 20215.72
352.8610, 20753.00
354.0650, 20385.00
355.2680, 20385.00
356.4710, 20752.00
357.6740, 20499.00
358.8760, 20702.00
360.0790, 20357.00
361.2810, 20585.00
362.4840, 20814.00
363.6860, 20697.00
364.8880, 20781.00
366.0900, 20744.00
367.2910, 20891.00
368.4930, 20938.00
369.6940, 20874.00
370.8950, 20975.38
372.0960, 20865.00
373.2970, 21041.00
374.4980, 20811.00
375.6980, 20817.00
376.8980, 20905.00
378.0990, 20749.00
379.2990, 20874.00
380.4980, 20962.00
381.6980, 21010.00
382.8980, 20824.00
384.0970, 21076.00
385.2960, 21033.00
386.4950, 20920.00
387.6940, 21208.00
388.8930, 21181.00
390.0920, 21088.00
391.2900, 21051.00
392.4880, 21230.00
393.6860, 21287.00
394.8840, 21338.00
396.0820, 21378.00
397.2800, 21281.00
398.4770, 21155.00
399.6750, 21342.00
400.8720, 21325.00
402.0690, 21377.00
403.2660, 21180.00
404.4620, 21362.00
405.6590, 21453.00
406.8550, 21371.00
408.0510, 21496.00
409.2480, 21400.00
410.4430, 21435.00
411.6390, 21578.00
412.8350, 21637.36
414.0300, 21620.00
415.2250, 21910.00
416.4200, 21683.00
417.6150, 21746.00
418.8100, 21897.00
420.0050, 21717.00
421.1990, 21852.00
422.3940, 21786.00
423.5880, 21845.00
424.7820, 21761.00
425.9750, 22019.00
427.1690, 22042.00
428.3630, 22050.00
429.5560, 22138.00
430.7490, 22587.00
431.9420, 23070.00
433.1350, 22755.00
434.3280, 22794.00
435.5200, 22266.00
436.7130, 22446.00
437.9050, 22387.00
439.0970, 22434.00
440.2890, 22390.00
441.4810, 22605.00
442.6720, 22668.00
443.8640, 22734.00
445.0550, 22744.00
446.2460, 22893.00
447.4370, 22681.00
448.6280, 22889.00
449.8180, 22889.00
451.0090, 22645.00
452.1990, 22942.00
453.3890, 23072.00
454.5790, 22999.00
455.7690, 22981.00
456.9590, 22944.00
458.1480, 23201.00
459.3380, 23042.00
460.5270, 23076.00
461.7160, 23135.00
462.9050, 23054.00
464.0940, 23180.00
465.2820, 23140.00
466.4700, 23119.00
467.6590, 23098.00
468.8470, 23157.00
470.0350, 23390.00
471.2220, 23266.00
472.4100, 23404.00
473.5970, 23289.00
474.7850, 23636.00
475.9720, 23512.00
477.1590, 23644.00
478.3460, 23578.00
479.5320, 23793.00
480.7190, 23628.00
481.9050, 23892.00
483.0910, 23791.00
484.2770, 23988.00
485.4630, 24247.00
486.6490, 24159.00
487.8340, 24285.00
489.0200, 24217.00
490.2050, 24329.00
491.3900, 24538.00
492.5750, 24399.00
493.7600, 24257.00
494.9440, 24403.00
496.1290, 24326.00
497.3130, 24191.00
498.4970, 24092.00
499.6810, 24182.00
500.8650, 24407.00
502.0480, 24258.00
503.2320, 24254.00
504.4150, 24328.00
505.5980, 24203.00
506.7810, 23963.00
507.9640, 24165.00
509.1460, 24165.00
510.3290, 24386.00
511.5110, 24256.00
512.6930, 24312.00
513.8750, 24289.00
515.0570, 24563.00
516.2390, 24271.00
517.4210, 24311.00
518.6020, 24485.00
519.7830, 24393.00
520.9640, 24377.00
522.1450, 24519.00
523.3260, 24386.00
524.5060, 24209.00
525.6870, 24472.00
526.8670, 24712.00
528.0470, 24436.00
529.2270, 24579.00
530.4070, 24523.00
531.5870, 24853.00
532.7660, 24812.00
533.9450, 24715.00
535.1240, 24805.00
536.3030, 24685.00
537.4820, 24908.00
538.6610, 24885.00
539.8390, 24958.00
541.0180, 24839.00
542.1960, 24899.00
543.3740, 24817.00
544.5520, 25018.00
545.7290, 25014.00
546.9070, 25059.00
548.0840, 25062.00
549.2620, 25325.00
550.4390, 25374.00
551.6160, 25277.00
552.7920, 25151.00
553.9690, 25173.00
555.1450, 25448.00
556.3220, 25473.00
557.4980, 25435.00
558.6740, 25447.00
559.8490, 25493.00
561.0250, 25574.00
562.2000, 25604.30
563.3760, 25646.00
564.5510, 25708.00
565.7260, 25777.00
566.9010, 25827.00
568.0750, 25827.00
569.2500, 25825.00
570.4240, 25933.00
571.5980, 25828.00
572.7720, 26014.00
573.9460, 26029.00
575.1200, 26008.00
576.2930, 25960.00
577.4670, 25981.00
578.6400, 26157.00
579.8130, 25984.00
580.9860, 26147.00
582.1590, 26336.00
583.3310, 26087.00
584.5040, 26118.00
585.6760, 26017.00
586.8480, 26401.00
588.0200, 26219.00
589.1920, 26402.00
590.3630, 26182.00
591.5350, 26461.00
592.7060, 26552.00
593.8770, 26569.00
595.0480, 26516.00
596.2190, 26473.00
597.3900, 26688.00
598.5600, 26580.00
599.7310, 26522.00
600.9010, 26930.00
602.0710, 26879.00
603.2410, 26667.00
604.4100, 26983.00
605.5800, 26799.00
606.7490, 27115.00
607.9190, 27016.00
609.0880, 26942.00
610.2570, 27224.00
611.4250, 27221.00
612.5940, 27006.00
613.7620, 27173.00
614.9310, 27230.00
616.0990, 27299.00
617.2670, 27418.00
618.4340, 27546.00
619.6020, 27546.00
620.7690, 27824.00
621.9370, 27687.00
623.1040, 27950.00
624.2710, 27934.00
625.4380, 27706.00
626.6040, 27881.00
627.7710, 27966.00
628.9370, 27860.00
630.1030, 27929.00
631.2690, 27793.00
632.4350, 28025.00
633.6010, 27876.00
634.7660, 28012.00
635.9320, 27912.00
637.0970, 27893.00
638.2620, 28042.00
639.4270, 28077.00
640.5920, 28008.00
641.7560, 28122.00
642.9210, 28054.00
644.0850, 28006.00
645.2490, 28173.00
646.4130, 28089.00
647.5770, 28273.00
648.7400, 28335.00
649.9040, 28269.00
651.0670, 28287.00
652.2300, 28409.00
653.3930, 28391.50
654.5560, 28397.00
655.7190, 28489.00
656.8810, 28463.00
658.0440, 28524.00
659.2060, 28464.00
660.3680, 28824.00
661.5300, 28509.00
662.6910, 28925.00
663.8530, 28781.00
665.0140, 28960.00
666.1750, 28980.00
667.3360, 28860.00
668.4970, 29129.00
669.6580, 29061.00
670.8190, 28788.00
671.9790, 29290.00
673.1390, 28975.00
674.2990, 29312.00
675.4590, 29205.00
676.6190, 29404.00
677.7790, 29349.00
678.9380, 29385.00
680.0970, 29451.00
681.2570, 29561.00
682.4160, 29580.29
683.5740, 29682.55
684.7330, 29662.00
685.8920, 29827.00
687.0500, 29883.48
688.2080, 29910.00
689.3660, 30229.00
690.5240, 30226.00
691.6820, 30387.00
692.8390, 30361.00
693.9960, 30383.00
695.1540, 30410.00
696.3110, 30538.00
697.4680, 30582.00
698.6240, 30923.00
699.7810, 30678.00
700.9370, 30546.00
702.0940, 30903.00
703.2500, 30814.00
704.4060, 31124.00
705.5610, 31109.00
706.7170, 31201.00
707.8720, 31321.00
709.0280, 31267.90
710.1830, 31188.00
711.3380, 31219.00
712.4920, 31161.00
713.6470, 31138.00
714.8020, 31119.00
715.9560, 31112.00
717.1100, 30924.00
718.2640, 31068.00
719.4180, 30886.00
720.5720, 31034.00
721.7250, 30881.00
722.8780, 31027.00
724.0320, 30963.00
725.1850, 31000.00
726.3380, 31013.00
727.4900, 30961.00
728.6430, 30958.00
729.7950, 31049.00
730.9470, 31020.35
732.1000, 30964.00
733.2510, 31049.00
734.4030, 31112.00
735.5550, 31109.00
736.7060, 31134.00
737.8570, 31155.00
739.0090, 31138.00
740.1600, 31215.00
741.3100, 31208.67
742.4610, 31252.00
743.6110, 31225.00
744.7620, 31329.00
745.9120, 31306.00
747.0620, 31220.00
748.2120, 31280.00
749.3610, 31417.00
750.5110, 31370.00
751.6600, 31582.00
752.8090, 31578.00
753.9580, 31587.00
755.1070, 31597.00
756.2560, 31720.00
757.4050, 31391.00
758.5530, 31672.00
759.7010, 31776.00
760.8490, 31547.00
761.9970, 31736.00
763.1450, 31888.00
764.2920, 31939.00
765.4400, 31928.00
766.5870, 32077.34
767.7340, 32167.00
768.8810, 32109.00
770.0280, 32011.00
771.1740, 31627.00
772.3210, 32114.00
773.4670, 31964.00
774.6130, 32233.00
775.7590, 32383.00
776.9050, 32350.00
778.0510, 32377.00
779.1960, 32531.00
780.3420, 32535.00
781.4870, 32505.00
782.6320, 32605.00
783.7770, 32669.00
784.9210, 32693.00
786.0660, 32789.00
787.2100, 32882.00
788.3540, 32876.00
789.4980, 32775.00
790.6420, 32834.00
791.7860, 32680.00
792.9300, 33006.00
794.0730, 33239.00
795.2160, 33027.00
796.3590, 32971.00
797.5020, 33170.00
798.6450, 32978.00
799.7880, 33333.00
800.9300, 33361.00
802.0720, 33557.00
803.2150, 33642.46
804.3560, 33487.00
805.4980, 33692.00
806.6400, 33688.00
807.7810, 33618.00
808.9230, 33729.00
810.0640, 33664.00
811.2050, 33752.00
812.3460, 33611.00
813.4860, 33940.00
814.6270, 33864.00
815.7670, 34014.00
816.9070, 34216.00
818.0470, 33805.00
819.1870, 34178.00
820.3270, 34169.00
821.4670, 34122.00
822.6060, 34311.00
823.7450, 34362.00
824.8840, 34350.00
826.0230, 34372.00
827.1620, 34524.00
828.3010, 34825.00
829.4390, 34968.00
830.5770, 34925.00
831.7150, 35323.00
832.8530, 35329.00
833.9910, 35565.00
835.1290, 35547.00
836.2660, 35099.00
837.4030, 35120.00
838.5410, 35161.00
839.6780, 35001.00
840.8140, 34898.00
841.9510, 34977.00
843.0870, 34845.00
844.2240, 34916.00
845.3600, 35078.00
846.4960, 34876.00
847.6320, 34757.00
848.7680, 34862.00
849.9030, 35095.00
851.0380, 35202.00
852.1740, 34917.00
853.3090, 34906.00
854.4440, 34946.00
855.5780, 34789.84
856.7130, 35242.00
857.8470, 34816.00
858.9820, 34876.00
860.1160, 35231.00
861.2500, 35055.00
862.3830, 34988.00
863.5170, 35065.00
864.6500, 35293.00
865.7840, 35359.00
866.9170, 35428.00
868.0500, 35697.00
869.1830, 35837.00
870.3150, 35937.00
871.4480, 36229.00
872.5800, 36581.00
873.7120, 36962.00
874.8440, 37249.00
875.9760, 37288.00
877.1080, 37914.00
878.2390, 38303.00
879.3710, 38182.00
880.5020, 38458.00
881.6330, 38114.00
882.7640, 38166.00
883.8940, 37838.00
885.0250, 37348.00
886.1550, 36957.00
887.2850, 36814.00
888.4160, 36652.00
889.5450, 36465.00
890.6750, 36391.00
891.8050, 36275.74
892.9340, 35961.00
894.0630, 36137.00
895.1930, 36055.00
896.3220, 35999.00
897.4500, 36295.00
898.5790, 36253.00
899.7070, 36136.00
900.8360, 36220.00
901.9640, 36587.00
903.0920, 36851.00
904.2200, 37013.00
905.3470, 37643.00
906.4750, 38071.00
907.6020, 38627.00
908.7290, 39304.00
909.8560, 39957.00
910.9830, 40340.00
912.1100, 40624.00
913.2360, 40246.00
914.3630, 40075.00
915.4890, 39730.00
916.6150, 39898.00
917.7410, 39808.00
918.8670, 40839.00
919.9920, 41671.00
921.1180, 42334.00
922.2430, 43273.00
923.3680, 43848.00
924.4930, 43840.00
925.6180, 44597.00
926.7420, 45016.00
927.8670, 45025.00
928.9910, 44100.00
930.1150, 43520.00
931.2390, 43176.00
932.3630, 42395.00
933.4860, 42183.00
934.6100, 41669.00
935.7330, 41617.00
936.8560, 41702.00
937.9790, 41531.00
939.1020, 41371.00
940.2250, 41033.00
941.3470, 41348.00
942.4700, 41542.00
943.5920, 42155.00
944.7140, 42514.00
945.8360, 43892.00
946.9570, 45042.00
948.0790, 44796.00
949.2000, 43945.00
950.3220, 42710.00
951.4430, 41257.00
952.5640, 40554.00
953.6840, 39589.00
954.8050, 39470.00
955.9250, 39124.00
957.0460, 38962.00
958.1660, 39463.00
959.2860, 39137.00
960.4050, 39235.00
961.5250, 39177.00
962.6440, 39282.00
963.7640, 39348.00
964.8830, 39363.00
966.0020, 39500.00
967.1210, 39434.00
968.2390, 39497.00
969.3580, 39568.00
970.4760, 39443.00
971.5940, 39442.00
972.7120, 39253.00
973.8300, 39291.41
974.9480, 39322.62
976.0650, 39322.00
977.1830, 39446.00
978.3000, 39471.00
979.4170, 39447.00
980.5340, 39277.00
981.6500, 39560.00
982.7670, 39443.00
983.8830, 39610.00
985.0000, 39578.00
986.1160, 39274.00
987.2320, 39615.00
988.3470, 39663.00
989.4630, 39666.00
990.5780, 39905.00
991.6940, 39842.00
992.8090, 39793.00
993.9240, 39847.00
995.0380, 39720.00
996.1530, 39814.26
997.2680, 39942.15
998.3820, 39952.00
999.4960, 40113.45
1000.610, 40353.00
1001.724, 40394.00
1002.837, 40523.00
1003.951, 40693.00
1005.064, 40708.00
1006.177, 40872.00
1007.291, 40716.00
1008.403, 40672.00
1009.516, 40847.00
1010.629, 40820.00
1011.741, 41042.00
1012.853, 41187.00
1013.965, 41334.00
1015.077, 41213.00
1016.189, 41401.00
1017.300, 41538.00
1018.412, 41766.00
1019.523, 41929.00
1020.634, 42287.00
1021.745, 42284.00
1022.856, 43056.00
1023.966, 43130.00
1025.077, 43318.00
1026.187, 43937.00
1027.297, 44270.00
1028.407, 44332.00
1029.517, 44703.00
1030.627, 44420.00
1031.736, 44372.00
1032.845, 43985.00
1033.955, 43895.00
1035.064, 43559.00
1036.172, 43287.00
1037.281, 43208.00
1038.390, 43107.18
1039.498, 43010.00
1040.606, 43169.00
1041.714, 43076.00
1042.822, 43172.00
1043.930, 43219.00
1045.037, 43171.00
1046.145, 43065.00
1047.252, 43105.00
1048.359, 43548.00
1049.466, 43235.00
1050.573, 42951.00
1051.679, 43375.00
1052.786, 43265.00
1053.892, 43384.00
1054.998, 43289.00
1056.104, 43402.00
1057.210, 43577.00
1058.315, 43310.00
1059.421, 43596.00
1060.526, 43182.00
1061.631, 43281.00
1062.736, 43461.00
1063.841, 43421.00
1064.946, 43776.00
1066.050, 43520.00
1067.154, 43672.00
1068.258, 43727.00
1069.362, 43957.00
1070.466, 44022.00
1071.570, 44102.00
1072.674, 44245.00
1073.777, 44709.00
1074.880, 44662.00
1075.983, 45068.00
1077.086, 44928.00
1078.189, 44510.00
1079.291, 44055.00
1080.394, 43913.00
1081.496, 43868.00
1082.598, 43733.00
1083.700, 43607.00
1084.802, 43701.00
1085.903, 43849.00
1087.005, 43890.00
1088.106, 43827.00
1089.207, 43648.00
1090.308, 43376.00
1091.409, 43522.00
1092.509, 43168.00
1093.610, 43446.00
1094.710, 43626.00
1095.810, 43594.00
1096.910, 43487.00
1098.010, 43581.00
1099.110, 43547.00
1100.209, 43760.00
1101.309, 43463.00
1102.408, 43766.00
1103.507, 43713.00
1104.606, 43645.00
1105.704, 43936.00
1106.803, 44083.00
1107.901, 44231.00
1108.999, 44390.00
1110.097, 44565.00
1111.195, 44808.00
1112.293, 44825.00
1113.391, 45414.00
1114.488, 45774.00
1115.585, 46048.00
1116.682, 47068.00
1117.779, 47264.00
1118.876, 48169.00
1119.973, 48799.00
1121.069, 49529.00
1122.165, 49947.00
1123.261, 50503.00
1124.357, 50516.00
1125.453, 50379.00
1126.549, 50350.00
1127.644, 49610.00
1128.739, 49171.00
1129.835, 48448.00
1130.930, 48065.00
1132.024, 47636.00
1133.119, 47224.00
1134.214, 47525.00
1135.308, 47009.00
1136.402, 47081.00
1137.496, 46834.00
1138.590, 47024.00
1139.684, 46959.00
1140.777, 46806.00
1141.871, 46823.00
1142.964, 46940.00
1144.057, 46940.39
1145.150, 47098.00
1146.243, 47140.00
1147.335, 47157.00
1148.428, 47284.00
1149.520, 47062.00
1150.612, 47071.00
1151.704, 46947.00
1152.796, 46881.00
1153.887, 46873.00
1154.979, 46794.00
1156.070, 46893.00
1157.161, 46855.60
1158.252, 47015.00
1159.343, 46916.00
1160.433, 46910.00
1161.524, 47025.00
1162.614, 46682.00
1163.704, 46746.00
1164.794, 46816.00
1165.884, 46855.00
1166.974, 46994.00
1168.063, 47097.00
1169.153, 46875.00
1170.242, 46582.00
1171.331, 46796.00
1172.420, 46569.00
1173.508, 46425.00
1174.597, 46386.00
1175.685, 46313.00
1176.774, 46371.00
1177.862, 46236.00
1178.950, 46304.00
1180.037, 46064.00
1181.125, 45818.00
1182.212, 45855.00
1183.300, 45757.48
1184.387, 45782.00
1185.474, 45772.00
1186.560, 45885.00
1187.647, 45828.00
1188.733, 45885.00
1189.820, 45866.08
1190.906, 45496.00
1191.992, 45792.00
1193.078, 45685.00
1194.163, 45605.00
1195.249, 45895.00
1196.334, 45768.00
1197.419, 45590.00
1198.504, 45619.00
1199.589, 45644.00
1200.674, 45948.00
1201.758, 46024.00
1202.843, 45904.00
1203.927, 46025.00
1205.011, 45831.00
1206.095, 45876.00
1207.179, 46091.00
1208.262, 46074.00
1209.345, 45990.00
1210.429, 46170.00
1211.512, 46328.00
1212.595, 46003.00
1213.677, 46162.00
1214.760, 46314.00
1215.842, 46269.00
1216.925, 46367.00
1218.007, 46291.00
1219.089, 46535.00
1220.171, 46649.00
1221.252, 46701.00
1222.334, 46883.00
1223.415, 46849.00
1224.496, 46727.00
1225.577, 46742.00
1226.658, 46667.00
1227.738, 46708.00
1228.819, 46900.00
1229.899, 46820.00
1230.979, 46767.00
1232.060, 46536.00
1233.139, 47019.00
1234.219, 47058.00
1235.299, 46834.00
1236.378, 46942.00
1237.457, 46764.00
1238.536, 47125.00
1239.615, 47135.00
1240.694, 47238.00
1241.772, 47107.00
1242.851, 47088.00
1243.929, 46925.00
1245.007, 47219.00
1246.085, 47429.00
1247.163, 47485.00
1248.240, 47909.00
1249.318, 47526.00
1250.395, 47784.00
1251.472, 47672.00
1252.549, 47866.00
1253.626, 48081.00
1254.703, 47796.00
1255.779, 47959.00
1256.855, 47832.00
1257.931, 48302.00
1259.007, 48270.00
1260.083, 48113.00
1261.159, 48221.00
1262.234, 48131.00
1263.310, 48374.00
1264.385, 48501.00
1265.460, 48507.00
1266.535, 48692.00
1267.610, 48666.00
1268.684, 48503.00
1269.758, 48492.00
1270.833, 48399.00
1271.907, 48606.00
1272.981, 48288.00
1274.054, 48701.00
1275.128, 48822.00
1276.201, 48679.00
1277.275, 48879.00
1278.348, 49081.00
1279.421, 48863.00
1280.493, 48973.00
1281.566, 49049.00
1282.638, 49229.00
1283.711, 49009.00
1284.783, 49014.00
1285.855, 49237.00
1286.927, 49235.00
1287.998, 49300.00
1289.070, 49448.82
1290.141, 49575.00
1291.212, 49639.00
1292.283, 49735.48
1293.354, 49637.00
1294.425, 49837.00
1295.495, 49831.00
1296.566, 49827.00
1297.636, 50075.00
1298.706, 49976.00
1299.776, 50001.00
1300.845, 49926.00
1301.915, 49948.00
1302.984, 49886.93
1304.054, 49951.00
1305.123, 49762.00
1306.191, 49701.00
1307.260, 49613.67
1308.329, 49617.00
1309.397, 49701.00
1310.465, 49558.00
1311.534, 50020.00
1312.602, 49894.00
1313.669, 49668.00
1314.737, 50020.00
1315.804, 50062.00
1316.872, 49989.57
1317.939, 50170.00
1319.006, 49931.00
1320.073, 49804.00
1321.139, 49849.00
1322.206, 49585.00
1323.272, 49650.00
1324.338, 49747.00
1325.404, 49457.00
1326.470, 49349.00
1327.536, 49301.00
1328.601, 49207.00
1329.667, 49110.00
1330.732, 48991.00
1331.797, 49159.00
1332.862, 49140.00
1333.926, 49071.00
1334.991, 48796.00
1336.055, 49020.00
1337.120, 49041.00
1338.184, 48763.00
1339.248, 48439.00
1340.311, 49110.00
1341.375, 48607.00
1342.438, 48677.00
1343.502, 48694.00
1344.565, 48652.00
1345.628, 48753.00
1346.691, 48907.00
1347.753, 48851.00
1348.816, 48751.00
1349.878, 49098.00
1350.940, 49292.00
1352.002, 48954.00
1353.064, 49177.00
1354.126, 49326.00
1355.187, 50024.00
1356.248, 50324.00
1357.310, 50706.00
1358.371, 51047.00
1359.431, 51400.00
1360.492, 51660.00
1361.553, 51922.00
1362.613, 51402.00
1363.673, 51297.00
1364.733, 50718.00
1365.793, 50491.00
1366.853, 49765.00
1367.912, 49550.00
1368.972, 49353.82
1370.031, 49268.00
1371.090, 49274.00
1372.149, 49208.00
1373.208, 49248.65
1374.267, 49371.00
1375.325, 49396.00
1376.383, 49572.00
1377.441, 49762.00
1378.499, 49781.00
1379.557, 49599.00
1380.615, 49769.00
1381.672, 49795.00
1382.730, 49959.72
1383.787, 50292.00
1384.844, 50446.00
1385.901, 50728.00
1386.957, 51040.00
1388.014, 50660.00
1389.070, 50698.00
1390.126, 50684.00
1391.182, 50806.00
1392.238, 50957.00
1393.294, 50890.00
1394.349, 50989.00
1395.405, 50955.00
1396.460, 50993.00
1397.515, 51048.00
1398.570, 50658.00
1399.625, 50325.00
1400.679, 49989.00
1401.734, 49814.00
1402.788, 49602.00
1403.842, 49372.00
1404.896, 49212.00
1405.950, 49035.00
1407.003, 49164.00
1408.057, 49115.00
1409.110, 49034.00
1410.163, 48943.00
1411.216, 49357.00
1412.269, 49223.00
1413.322, 49156.00
1414.374, 49367.00
1415.427, 49159.00
1416.479, 49308.00
1417.531, 49345.00
1418.583, 49292.00
1419.634, 49380.00
1420.686, 49469.00
1421.737, 49417.00
1422.788, 49487.00
1423.839, 49759.00
1424.890, 49845.00
1425.941, 49852.00
1426.992, 50043.00
1428.042, 50125.00
1429.092, 50263.00
1430.142, 50156.00
1431.192, 50071.00
1432.242, 49933.00
1433.291, 50256.00
1434.341, 50287.00
1435.390, 50408.00
1436.439, 50164.00
1437.488, 49963.00
1438.537, 50413.00
1439.586, 50410.00
1440.634, 50795.00
1441.682, 50564.00
1442.731, 50985.00
1443.779, 51201.00
1444.826, 51419.00
1445.874, 51612.32
1446.922, 51953.00
1447.969, 51835.00
1449.016, 52160.00
1450.063, 52239.00
1451.110, 52139.00
1452.157, 52012.00
1453.203, 52259.00
1454.250, 52073.00
1455.296, 52579.00
1456.342, 52447.00
1457.388, 52261.00
1458.433, 52853.00
1459.479, 52930.00
1460.524, 53008.00
1461.570, 53080.00
1462.615, 53093.00
1463.660, 53083.82
1464.705, 53152.00
1465.749, 52973.00
1466.794, 53077.00
1467.838, 52982.00
1468.882, 53063.00
1469.926, 52928.00
1470.970, 52520.00
1472.013, 52983.00
1473.057, 52457.00
1474.100, 53001.00
1475.143, 52824.00
1476.186, 53090.00
1477.229, 52999.00
1478.272, 52720.00
1479.314, 53033.00
1480.357, 52961.00
1481.399, 52869.00
1482.441, 52778.00
1483.483, 53046.00
1484.525, 52935.00
1485.566, 53125.00
1486.608, 52959.00
1487.649, 52970.00
1488.690, 52837.00
1489.731, 53180.00
1490.771, 53203.00
1491.812, 53281.00
1492.853, 53084.00
1493.893, 53379.00
1494.933, 53170.00
1495.973, 53310.00
1497.013, 53396.00
1498.052, 53574.00
1499.092, 53664.00
1500.131, 53594.00
1501.170, 53448.00
1502.209, 53643.00
1503.248, 53504.00
1504.287, 53684.00
1505.325, 54074.00
1506.363, 54200.00
1507.402, 53965.00
1508.440, 54010.00
1509.478, 53897.00
1510.515, 54046.00
1511.553, 54239.00
1512.590, 54201.82
1513.627, 54259.67
1514.664, 54291.00
1515.701, 54253.00
1516.738, 54298.00
1517.775, 54414.00
1518.811, 54094.00
1519.847, 54212.00
1520.883, 54021.00
1521.919, 53980.30
1522.955, 54153.00
1523.991, 53953.00
1525.026, 53989.00
1526.061, 54047.00
1527.096, 53607.00
1528.131, 54017.00
1529.166, 53996.00
1530.201, 53760.00
1531.235, 53502.00
1532.270, 53610.96
1533.304, 54209.00
1534.338, 53669.00
1535.372, 53844.00
1536.405, 53694.00
1537.439, 53651.00
1538.472, 53882.00
1539.505, 53903.00
1540.538, 53765.00
1541.571, 54033.00
1542.604, 53742.00
1543.637, 53959.00
1544.669, 54016.00
1545.701, 54251.00
1546.733, 54173.00
1547.765, 54221.00
1548.797, 54275.00
1549.829, 54105.00
1550.860, 54391.00
1551.891, 54274.00
1552.922, 54244.00
1553.953, 54528.00
1554.984, 54712.00
1556.015, 54479.00
1557.045, 55227.00
1558.076, 54868.00
1559.106, 54858.00
1560.136, 54820.00
1561.165, 55073.00
1562.195, 55043.00
1563.225, 55134.00
1564.254, 55388.00
1565.283, 55613.00
##END=



