##NAMES=Fluorapatite
##RRUFFID=R050194
##IDEAL CHEMISTRY=Ca_5_(PO_4_)_3_F
##LOCALITY=Siglo XX mine, Llallagua, Bolivia
##OWNER=RRUFF
##SOURCE=Dave Bunk Minerals
##DESCRIPTION=Purple crystal fragments
##STATUS=The identification of this mineral has been confirmed by X-ray diffraction and chemical analysis
##URL=rruff.info/R050194
##MEASURED CHEMISTRY=Ca_5.00_(P_1.00_O_4_)_3_F_1.00_
##PIN_ID=L01968
##ORIENTATION=Laser parallel to -a* (-1 0 0). Fiducial mark perpendicular to laser is parallel to -c [0 0 -1]
136.5850, 4342.000
137.8140, 4312.000
139.0430, 4245.000
140.2710, 4269.000
141.5000, 4351.000
142.7280, 4286.000
143.9560, 4365.000
145.1840, 4403.000
146.4120, 4396.000
147.6390, 4418.000
148.8670, 4472.000
150.0940, 4433.000
151.3210, 4460.000
152.5490, 4565.000
153.7750, 4563.000
155.0020, 4558.000
156.2290, 4603.000
157.4550, 4574.000
158.6810, 4570.000
159.9080, 4594.000
161.1340, 4646.000
162.3590, 4626.000
163.5850, 4684.000
164.8110, 4648.000
166.0360, 4678.000
167.2610, 4695.731
168.4860, 4700.749
169.7110, 4739.000
170.9360, 4747.000
172.1610, 4785.000
173.3850, 4826.000
174.6100, 4750.000
175.8340, 4834.000
177.0580, 4831.000
178.2820, 4911.000
179.5050, 4940.874
180.7290, 4960.000
181.9520, 4994.000
183.1760, 4968.000
184.3990, 4950.000
185.6220, 4975.000
186.8450, 4945.000
188.0670, 5015.000
189.2900, 5062.000
190.5120, 4966.000
191.7340, 5157.000
192.9560, 5115.000
194.1780, 5096.000
195.4000, 5161.000
196.6220, 5073.000
197.8430, 5168.000
199.0640, 5187.000
200.2860, 5231.000
201.5070, 5204.000
202.7270, 5175.000
203.9480, 5262.000
205.1690, 5195.000
206.3890, 5300.000
207.6090, 5282.000
208.8290, 5344.000
210.0490, 5370.000
211.2690, 5362.986
212.4890, 5348.000
213.7080, 5368.000
214.9280, 5383.000
216.1470, 5408.000
217.3660, 5432.277
218.5850, 5465.000
219.8030, 5475.000
221.0220, 5501.000
222.2400, 5496.000
223.4590, 5594.000
224.6770, 5488.000
225.8950, 5609.000
227.1120, 5641.000
228.3300, 5639.000
229.5480, 5594.000
230.7650, 5595.000
231.9820, 5611.000
233.1990, 5673.000
234.4160, 5733.000
235.6330, 5659.000
236.8490, 5664.000
238.0660, 5695.252
239.2820, 5712.000
240.4980, 5758.000
241.7140, 5788.000
242.9300, 5829.000
244.1460, 5737.000
245.3610, 5891.000
246.5770, 5941.000
247.7920, 6051.000
249.0070, 5932.000
250.2220, 5919.000
251.4370, 5873.000
252.6510, 5987.000
253.8660, 6024.000
255.0800, 5929.000
256.2940, 5962.000
257.5080, 5958.000
258.7220, 6150.000
259.9360, 6169.000
261.1490, 6141.000
262.3630, 6187.000
263.5760, 6162.000
264.7890, 6103.000
266.0020, 6256.000
267.2150, 6224.000
268.4270, 6147.000
269.6400, 6213.000
270.8520, 6282.000
272.0640, 6359.000
273.2760, 6328.000
274.4880, 6350.000
275.7000, 6317.000
276.9120, 6342.000
278.1230, 6333.000
279.3340, 6375.000
280.5450, 6419.000
281.7560, 6489.000
282.9670, 6521.000
284.1780, 6540.830
285.3880, 6483.000
286.5980, 6568.000
287.8090, 6539.000
289.0190, 6573.000
290.2290, 6579.000
291.4380, 6632.000
292.6480, 6587.000
293.8570, 6567.000
295.0670, 6674.000
296.2760, 6771.000
297.4850, 6747.000
298.6930, 6795.583
299.9020, 6827.000
301.1110, 6787.000
302.3190, 6775.000
303.5270, 6776.000
304.7350, 6753.000
305.9430, 6887.000
307.1510, 6868.000
308.3580, 6798.000
309.5660, 6892.000
310.7730, 6826.000
311.9800, 6862.000
313.1870, 6967.000
314.3940, 7030.000
315.6010, 6989.000
316.8070, 7025.000
318.0130, 7150.000
319.2200, 6948.000
320.4260, 7139.000
321.6310, 7126.000
322.8370, 7257.000
324.0430, 7101.000
325.2480, 7137.000
326.4540, 7111.000
327.6590, 7130.000
328.8640, 7187.000
330.0680, 7320.000
331.2730, 7241.000
332.4780, 7348.000
333.6820, 7240.000
334.8860, 7307.000
336.0900, 7417.000
337.2940, 7387.000
338.4980, 7352.000
339.7010, 7436.000
340.9050, 7455.000
342.1080, 7565.000
343.3110, 7454.000
344.5140, 7543.000
345.7170, 7447.000
346.9200, 7620.000
348.1220, 7641.000
349.3240, 7568.000
350.5270, 7626.000
351.7290, 7718.000
352.9310, 7607.000
354.1320, 7655.000
355.3340, 7706.000
356.5350, 7754.000
357.7370, 7769.000
358.9380, 7755.000
360.1390, 7774.000
361.3400, 7788.406
362.5400, 7786.065
363.7410, 7822.000
364.9410, 7834.000
366.1410, 7834.000
367.3410, 7942.000
368.5410, 7956.000
369.7410, 7987.000
370.9400, 8040.000
372.1400, 8081.000
373.3390, 8083.000
374.5380, 8165.000
375.7370, 8088.000
376.9360, 8206.000
378.1350, 8083.000
379.3330, 8204.000
380.5310, 8176.000
381.7300, 8254.000
382.9280, 8330.973
384.1260, 8262.000
385.3230, 8479.435
386.5210, 8425.593
387.7180, 8464.599
388.9160, 8443.000
390.1130, 8424.000
391.3100, 8457.609
392.5060, 8421.000
393.7030, 8488.000
394.9000, 8583.000
396.0960, 8578.000
397.2920, 8536.000
398.4880, 8611.000
399.6840, 8535.000
400.8800, 8699.000
402.0750, 8638.000
403.2710, 8672.000
404.4660, 8738.000
405.6610, 8699.000
406.8560, 8740.000
408.0510, 8671.000
409.2450, 8758.000
410.4400, 8795.000
411.6340, 8852.000
412.8280, 8879.000
414.0220, 8852.000
415.2160, 8788.000
416.4100, 8944.000
417.6030, 9065.000
418.7970, 9121.000
419.9900, 9081.000
421.1830, 9180.000
422.3760, 9206.000
423.5690, 9125.000
424.7610, 9220.000
425.9540, 9205.000
427.1460, 9432.000
428.3380, 9406.000
429.5300, 9546.000
430.7220, 9400.000
431.9140, 9406.000
433.1050, 9561.000
434.2970, 9503.000
435.4880, 9354.000
436.6790, 9495.000
437.8700, 9489.000
439.0610, 9595.000
440.2510, 9542.000
441.4420, 9614.000
442.6320, 9634.000
443.8220, 9681.000
445.0120, 9735.000
446.2020, 9752.000
447.3910, 9859.000
448.5810, 9642.000
449.7700, 9850.000
450.9600, 9814.000
452.1490, 9799.000
453.3370, 9916.000
454.5260, 9799.000
455.7150, 9935.000
456.9030, 9926.000
458.0910, 9915.000
459.2800, 9807.000
460.4670, 10000.00
461.6550, 9897.000
462.8430, 10028.00
464.0300, 10047.00
465.2180, 10040.00
466.4050, 10147.00
467.5920, 10147.00
468.7790, 10082.00
469.9650, 10243.00
471.1520, 10255.00
472.3380, 10238.00
473.5250, 10307.00
474.7110, 10371.00
475.8970, 10243.00
477.0820, 10407.00
478.2680, 10433.00
479.4540, 10371.00
480.6390, 10410.00
481.8240, 10304.00
483.0090, 10409.00
484.1940, 10601.00
485.3780, 10620.00
486.5630, 10531.00
487.7470, 10585.00
488.9320, 10596.00
490.1160, 10583.00
491.3000, 10729.00
492.4830, 10795.00
493.6670, 10774.00
494.8500, 10759.00
496.0340, 10864.00
497.2170, 10804.00
498.4000, 10952.00
499.5820, 10814.00
500.7650, 10830.00
501.9480, 11051.00
503.1300, 10906.00
504.3120, 11003.00
505.4940, 10985.00
506.6760, 11090.00
507.8580, 10995.00
509.0390, 11151.00
510.2210, 11171.00
511.4020, 11176.00
512.5830, 11132.00
513.7640, 11140.00
514.9450, 11255.00
516.1250, 11232.71
517.3060, 11431.00
518.4860, 11285.00
519.6660, 11456.00
520.8460, 11474.00
522.0260, 11483.00
523.2060, 11621.00
524.3850, 11602.00
525.5650, 11506.00
526.7440, 11586.00
527.9230, 11610.00
529.1020, 11503.00
530.2810, 11623.00
531.4590, 11589.00
532.6380, 11817.00
533.8160, 11882.00
534.9940, 11870.00
536.1720, 11804.00
537.3500, 11935.00
538.5270, 11953.00
539.7050, 12097.00
540.8820, 11968.00
542.0590, 12063.00
543.2360, 12084.00
544.4130, 12236.00
545.5900, 12024.00
546.7660, 12169.00
547.9430, 12162.00
549.1190, 11992.00
550.2950, 12230.00
551.4710, 12351.00
552.6470, 12220.00
553.8220, 12345.00
554.9980, 12325.00
556.1730, 12291.00
557.3480, 12305.00
558.5230, 12461.00
559.6980, 12622.00
560.8730, 12551.00
562.0470, 12548.00
563.2220, 12597.00
564.3960, 12566.00
565.5700, 12551.00
566.7440, 12595.00
567.9170, 12705.00
569.0910, 12902.00
570.2640, 12802.00
571.4380, 12962.00
572.6110, 12927.00
573.7840, 12913.00
574.9570, 12964.00
576.1290, 13006.00
577.3020, 13147.00
578.4740, 13186.00
579.6460, 13203.00
580.8180, 13340.00
581.9900, 13308.00
583.1620, 13253.00
584.3330, 13284.00
585.5040, 13247.00
586.6760, 13210.00
587.8470, 13429.00
589.0180, 13475.00
590.1880, 13391.00
591.3590, 13627.00
592.5290, 13666.00
593.7000, 13653.00
594.8700, 13545.00
596.0400, 13591.00
597.2090, 13637.00
598.3790, 13789.00
599.5490, 13718.00
600.7180, 13765.00
601.8870, 13796.00
603.0560, 13825.00
604.2250, 13747.00
605.3940, 13988.00
606.5620, 13908.00
607.7300, 14022.00
608.8990, 13956.00
610.0670, 14098.00
611.2350, 14161.00
612.4020, 14052.00
613.5700, 14111.00
614.7370, 14238.00
615.9050, 14175.00
617.0720, 14238.00
618.2390, 14270.00
619.4060, 14349.00
620.5720, 14256.00
621.7390, 14323.00
622.9050, 14349.00
624.0710, 14341.00
625.2370, 14480.00
626.4030, 14524.00
627.5690, 14587.00
628.7340, 14640.89
629.9000, 14677.59
631.0650, 14692.00
632.2300, 14719.00
633.3950, 14723.00
634.5600, 14674.00
635.7240, 14706.00
636.8890, 14792.00
638.0530, 14820.39
639.2170, 14992.00
640.3810, 14952.00
641.5450, 14895.00
642.7080, 14910.60
643.8720, 15121.00
645.0350, 14996.00
646.1980, 15157.00
647.3610, 15217.00
648.5240, 15245.00
649.6870, 15259.00
650.8490, 15536.00
652.0120, 15288.00
653.1740, 15511.00
654.3360, 15320.00
655.4980, 15548.00
656.6600, 15408.00
657.8210, 15458.00
658.9830, 15519.00
660.1440, 15708.00
661.3050, 15722.00
662.4660, 15716.00
663.6270, 15888.00
664.7870, 15808.00
665.9480, 15791.00
667.1080, 15797.00
668.2680, 15855.00
669.4280, 15883.69
670.5880, 15922.00
671.7480, 15978.00
672.9070, 16052.00
674.0670, 16052.00
675.2260, 16033.00
676.3850, 16136.00
677.5440, 16068.00
678.7030, 16266.00
679.8610, 16230.00
681.0200, 16210.00
682.1780, 16383.00
683.3360, 16320.00
684.4940, 16332.00
685.6520, 16495.00
686.8090, 16457.00
687.9670, 16671.00
689.1240, 16556.00
690.2810, 16610.00
691.4380, 16833.00
692.5950, 16551.00
693.7520, 16883.00
694.9080, 16590.00
696.0650, 16886.00
697.2210, 16818.00
698.3770, 17014.00
699.5330, 16906.00
700.6880, 16958.00
701.8440, 17231.00
702.9990, 17001.00
704.1550, 17113.00
705.3100, 17055.00
706.4650, 17158.00
707.6190, 17278.00
708.7740, 17242.00
709.9290, 17363.00
711.0830, 17412.00
712.2370, 17342.00
713.3910, 17538.00
714.5450, 17540.00
715.6980, 17500.00
716.8520, 17699.00
718.0050, 17621.00
719.1580, 17499.00
720.3110, 17698.00
721.4640, 17755.00
722.6170, 17865.00
723.7700, 17847.00
724.9220, 17854.00
726.0740, 17830.00
727.2260, 17920.00
728.3780, 17976.00
729.5300, 18042.00
730.6810, 18036.00
731.8330, 18084.00
732.9840, 18304.00
734.1350, 18444.00
735.2860, 18157.00
736.4370, 18530.00
737.5880, 18342.00
738.7380, 18286.00
739.8880, 18387.00
741.0390, 18456.00
742.1890, 18556.00
743.3380, 18605.48
744.4880, 18686.23
745.6380, 18690.00
746.7870, 18780.00
747.9360, 18802.00
749.0850, 18746.00
750.2340, 18826.78
751.3830, 18940.00
752.5310, 18868.00
753.6800, 18920.00
754.8280, 18873.00
755.9760, 18959.00
757.1240, 19276.00
758.2720, 19022.00
759.4190, 19333.00
760.5670, 19189.00
761.7140, 19237.00
762.8610, 19409.00
764.0080, 19370.00
765.1550, 19359.00
766.3020, 19525.00
767.4480, 19492.00
768.5950, 19397.00
769.7410, 19349.00
770.8870, 19395.20
772.0330, 19756.00
773.1780, 19600.00
774.3240, 19702.00
775.4690, 19986.00
776.6140, 19874.00
777.7590, 20032.00
778.9040, 20183.00
780.0490, 19982.00
781.1940, 20007.00
782.3380, 20228.00
783.4820, 20069.00
784.6260, 20219.00
785.7700, 20248.00
786.9140, 20369.00
788.0580, 20213.00
789.2010, 20219.00
790.3450, 20362.00
791.4880, 20419.00
792.6310, 20504.00
793.7730, 20401.00
794.9160, 20539.00
796.0590, 20667.00
797.2010, 20510.00
798.3430, 20768.00
799.4850, 20683.00
800.6270, 20726.00
801.7690, 20748.00
802.9100, 20904.00
804.0520, 21053.00
805.1930, 20944.00
806.3340, 20887.00
807.4750, 21134.00
808.6160, 21149.00
809.7560, 21153.00
810.8970, 21115.00
812.0370, 21146.00
813.1770, 21205.00
814.3170, 21296.00
815.4570, 21375.00
816.5960, 21407.00
817.7360, 21604.00
818.8750, 21751.00
820.0140, 21686.00
821.1530, 21789.00
822.2920, 21671.00
823.4310, 21813.00
824.5690, 21806.00
825.7070, 21700.00
826.8460, 21775.00
827.9840, 22027.00
829.1220, 21859.00
830.2590, 22128.00
831.3970, 22212.00
832.5340, 22166.00
833.6710, 22125.00
834.8080, 22260.00
835.9450, 22028.00
837.0820, 22371.00
838.2190, 22187.00
839.3550, 22280.00
840.4910, 22531.00
841.6270, 22563.00
842.7630, 22497.00
843.8990, 22564.00
845.0350, 22682.00
846.1700, 22663.00
847.3060, 22796.00
848.4410, 22824.58
849.5760, 22811.00
850.7100, 22897.00
851.8450, 22922.00
852.9800, 22918.00
854.1140, 23186.00
855.2480, 23092.00
856.3820, 23228.00
857.5160, 23305.00
858.6500, 23326.00
859.7830, 23271.00
860.9170, 23442.00
862.0500, 23558.00
863.1830, 23472.00
864.3160, 23535.00
865.4480, 23681.00
866.5810, 23389.00
867.7130, 23567.00
868.8460, 23587.00
869.9780, 23787.00
871.1100, 23834.00
872.2410, 23724.00
873.3730, 23890.00
874.5050, 23892.00
875.6360, 23772.00
876.7670, 24002.00
877.8980, 24116.00
879.0290, 24211.00
880.1590, 24132.00
881.2900, 24089.00
882.4200, 24253.00
883.5500, 24391.00
884.6800, 24313.00
885.8100, 24407.00
886.9400, 24326.00
888.0690, 24485.00
889.1990, 24439.00
890.3280, 24586.00
891.4570, 24621.00
892.5860, 24511.00
893.7140, 24763.00
894.8430, 24698.00
895.9710, 24857.00
897.1000, 24802.00
898.2280, 24841.00
899.3560, 24918.00
900.4830, 24867.00
901.6110, 25134.00
902.7380, 25114.00
903.8660, 25271.00
904.9930, 25380.00
906.1200, 25359.00
907.2460, 25310.00
908.3730, 25319.00
909.5000, 25323.00
910.6260, 25549.00
911.7520, 25609.00
912.8780, 25679.00
914.0040, 25728.00
915.1290, 25738.00
916.2550, 25781.00
917.3800, 25932.00
918.5050, 25893.65
919.6300, 25977.00
920.7550, 25921.00
921.8800, 26157.00
923.0040, 26239.00
924.1290, 26168.00
925.2530, 26336.00
926.3770, 26176.00
927.5010, 26293.00
928.6250, 26333.00
929.7480, 26500.00
930.8720, 26349.00
931.9950, 26520.00
933.1180, 26513.00
934.2410, 26464.00
935.3640, 26723.00
936.4860, 26673.00
937.6090, 26888.00
938.7310, 26770.00
939.8530, 26941.00
940.9750, 26936.00
942.0970, 26894.00
943.2180, 27133.00
944.3400, 27242.00
945.4610, 27168.00
946.5820, 27230.00
947.7030, 27174.00
948.8240, 27240.00
949.9450, 27385.00
951.0650, 27612.00
952.1860, 27696.00
953.3060, 27514.00
954.4260, 27760.00
955.5460, 27667.00
956.6650, 27756.00
957.7850, 28042.00
958.9040, 28295.00
960.0230, 28531.00
961.1420, 28913.00
962.2610, 29572.00
963.3800, 29971.00
964.4990, 30442.00
965.6170, 30338.00
966.7350, 29951.00
967.8530, 29219.00
968.9710, 28787.00
970.0890, 28778.00
971.2070, 28507.00
972.3240, 28610.00
973.4410, 28481.00
974.5580, 28370.00
975.6750, 28649.00
976.7920, 28572.00
977.9090, 28620.00
979.0250, 28782.00
980.1410, 28777.00
981.2580, 28982.00
982.3740, 28855.00
983.4890, 29067.00
984.6050, 28871.00
985.7200, 28849.00
986.8360, 29157.00
987.9510, 29300.00
989.0660, 29205.00
990.1810, 29200.00
991.2950, 29342.00
992.4100, 29321.00
993.5240, 29331.00
994.6390, 29617.00
995.7530, 29500.00
996.8660, 29518.00
997.9800, 29626.00
999.0940, 29456.00
1000.207, 29497.00
1001.320, 29670.00
1002.433, 29877.00
1003.546, 29942.00
1004.659, 30018.50
1005.772, 29952.00
1006.884, 30037.00
1007.996, 29944.00
1009.108, 29903.00
1010.220, 30002.00
1011.332, 29992.31
1012.444, 30361.00
1013.555, 30195.00
1014.666, 30356.00
1015.777, 30628.00
1016.888, 30574.00
1017.999, 30543.00
1019.110, 30671.00
1020.220, 30561.00
1021.331, 30672.00
1022.441, 30799.00
1023.551, 30676.00
1024.661, 30936.00
1025.770, 30917.00
1026.880, 30908.00
1027.989, 31196.00
1029.098, 31073.00
1030.207, 31263.37
1031.316, 31323.00
1032.425, 31405.00
1033.533, 31482.00
1034.642, 31520.59
1035.750, 31578.00
1036.858, 31570.00
1037.966, 31613.61
1039.073, 31626.80
1040.181, 31646.00
1041.288, 31693.00
1042.396, 31678.00
1043.503, 31794.00
1044.610, 31969.00
1045.716, 31821.00
1046.823, 32098.00
1047.929, 32042.00
1049.036, 31867.00
1050.142, 32253.00
1051.248, 32391.00
1052.353, 32402.00
1053.459, 32459.00
1054.564, 32481.23
1055.670, 32220.00
1056.775, 32504.00
1057.880, 32429.00
1058.985, 32490.00
1060.089, 32718.00
1061.194, 32717.00
1062.298, 32722.00
1063.402, 32733.00
1064.506, 32823.00
1065.610, 33068.00
1066.713, 33070.00
1067.817, 32867.00
1068.920, 33179.00
1070.023, 33026.00
1071.126, 33173.00
1072.229, 33208.00
1073.332, 33269.00
1074.435, 33389.23
1075.537, 33394.00
1076.639, 33478.35
1077.741, 33523.00
1078.843, 33576.00
1079.945, 33592.00
1081.046, 33603.00
1082.148, 33887.00
1083.249, 33988.00
1084.350, 34054.00
1085.451, 33859.00
1086.551, 33739.00
1087.652, 34046.00
1088.752, 34021.00
1089.853, 34017.00
1090.953, 34352.00
1092.053, 34329.00
1093.152, 34247.00
1094.252, 34135.00
1095.351, 34449.00
1096.451, 34390.00
1097.550, 34390.00
1098.649, 34452.00
1099.748, 34380.00
1100.846, 34485.81
1101.945, 34557.00
1103.043, 34704.00
1104.141, 34784.00
1105.239, 35007.00
1106.337, 34978.00
1107.434, 35106.00
1108.532, 34917.00
1109.629, 35030.00
1110.726, 34836.00
1111.823, 35117.00
1112.920, 35158.00
1114.017, 35351.00
1115.113, 35269.00
1116.210, 35173.00
1117.306, 35507.00
1118.402, 35402.00
1119.498, 35568.00
1120.593, 35662.00
1121.689, 35622.00
1122.784, 35811.00
1123.879, 35788.00
1124.974, 35807.00
1126.069, 35916.70
1127.164, 35999.00
1128.259, 36026.00
1129.353, 36121.00
1130.447, 36106.00
1131.541, 36048.00
1132.635, 36454.00
1133.729, 36314.00
1134.822, 36478.00
1135.916, 36537.00
1137.009, 36401.00
1138.102, 36574.00
1139.195, 36795.00
1140.288, 36473.00
1141.380, 36689.00
1142.473, 36675.00
1143.565, 36589.00
1144.657, 36801.00
1145.749, 36900.00
1146.841, 36690.00
1147.932, 37053.00
1149.024, 37065.00
1150.115, 37077.00
1151.206, 37259.00
1152.297, 37081.00
1153.388, 37111.00
1154.479, 37051.00
1155.569, 37414.00
1156.659, 37226.00
1157.750, 37620.00
1158.839, 37434.00
1159.929, 37591.00
1161.019, 37578.00
1162.108, 37772.00
1163.198, 37880.00
1164.287, 37928.00
1165.376, 38005.00
1166.465, 37868.00
1167.553, 38007.00
1168.642, 38102.00
1169.730, 38086.00
1170.818, 38482.00
1171.906, 38480.00
1172.994, 38058.00
1174.082, 38424.00
1175.170, 38254.00
1176.257, 38598.00
1177.344, 38459.00
1178.431, 38520.00
1179.518, 38414.00
1180.605, 38601.00
1181.691, 38436.00
1182.778, 38947.00
1183.864, 38782.00
1184.950, 39060.00
1186.036, 38982.00
1187.122, 39130.00
1188.207, 38704.00
1189.292, 38864.00
1190.378, 38881.00
1191.463, 39029.00
1192.548, 39078.00
1193.632, 39403.00
1194.717, 39241.00
1195.801, 39222.00
1196.886, 39440.00
1197.970, 39366.00
1199.054, 39404.00
1200.137, 39526.00
1201.221, 39637.00
1202.305, 39616.00
1203.388, 39797.00
1204.471, 39786.00
1205.554, 39822.00
1206.637, 39887.00
1207.719, 39863.00
1208.802, 39756.00
1209.884, 39900.00
1210.966, 40163.00
1212.048, 40530.00
1213.130, 40191.00
1214.212, 40343.00
1215.293, 40388.00
1216.374, 40400.00
1217.456, 40378.00
1218.536, 40522.00
1219.617, 40409.00
1220.698, 40677.00
1221.778, 40853.00
1222.859, 40655.00
1223.939, 40976.00
1225.019, 40972.00
1226.099, 40782.00
1227.178, 41005.00
1228.258, 41022.00
1229.337, 41065.00
1230.417, 40998.00
1231.496, 41152.00
1232.574, 41214.00
1233.653, 41104.00
1234.732, 41385.00
1235.810, 41284.00
1236.888, 41571.00
1237.966, 41387.00
1239.044, 41600.00
1240.122, 41501.00
1241.199, 41838.00
1242.277, 41852.00
1243.354, 41815.00
1244.431, 41882.00
1245.508, 41923.93
1246.585, 41764.00
1247.661, 41998.00
1248.738, 42117.00
1249.814, 42002.00
1250.890, 42303.00
1251.966, 41966.00
1253.042, 42033.00
1254.117, 42256.00
1255.193, 42266.00
1256.268, 42303.00
1257.343, 42250.00
1258.418, 42315.30
1259.493, 42407.00
1260.567, 42404.00
1261.642, 42500.72
1262.716, 42543.50
1263.790, 42671.00
1264.864, 42668.00
1265.938, 42807.00
1267.011, 42912.00
1268.085, 42876.00
1269.158, 42915.00
1270.231, 42873.00
1271.304, 43131.00
1272.377, 42893.00
1273.450, 43290.00
1274.522, 43278.00
1275.594, 43124.00
1276.666, 43163.00
1277.738, 43234.00
1278.810, 43135.46
1279.882, 43168.00
1280.953, 43161.00
1282.025, 43291.00
1283.096, 43320.98
1284.167, 43386.42
1285.238, 43527.00
1286.308, 43529.00
1287.379, 43758.00
1288.449, 43866.00
1289.519, 43769.00
1290.589, 43802.00
1291.659, 44100.00
1292.729, 43776.00
1293.798, 44170.00
1294.868, 44219.00
1295.937, 44178.00
1297.006, 44483.00
1298.075, 44380.00
1299.143, 44254.00
1300.212, 44713.00
1301.280, 44667.00
1302.348, 44524.00
1303.416, 44808.00
1304.484, 44709.00
1305.552, 45034.00
1306.620, 44773.00
1307.687, 44760.00
1308.754, 44938.00
1309.821, 45132.00
1310.888, 44931.00
1311.955, 44944.00
1313.021, 44781.00
1314.088, 44981.00
1315.154, 45412.00
1316.220, 45442.00
1317.286, 45491.00
1318.352, 45381.00
1319.417, 45726.00
1320.483, 45551.00
1321.548, 45601.00
1322.613, 45704.00
1323.678, 45473.00
1324.743, 45643.00
1325.807, 45761.00
1326.872, 45941.00
1327.936, 45714.00
1329.000, 45795.00
1330.064, 46219.00
1331.128, 46012.00
1332.191, 46358.00
1333.255, 46420.00
1334.318, 46283.00
1335.381, 45976.00
1336.444, 46128.00
1337.507, 46243.00
1338.569, 46378.00
1339.632, 46359.00
1340.694, 46420.71
1341.756, 46533.00
1342.818, 46460.00
1343.880, 46490.00
1344.941, 46587.00
1346.003, 46647.00
1347.064, 46573.00
1348.125, 46687.64
1349.186, 46687.70
1350.247, 46833.00
1351.308, 46876.00
1352.368, 47003.00
1353.428, 47360.00
1354.489, 47050.00
1355.549, 46961.00
1356.608, 47356.00
1357.668, 47185.00
1358.727, 47329.00
1359.787, 47141.00
1360.846, 47562.00
1361.905, 47401.00
1362.964, 47707.00
1364.022, 47523.00
1365.081, 47649.00
1366.139, 48033.00
1367.197, 47727.00
1368.255, 47764.00
1369.313, 47716.00
1370.371, 47727.00
1371.428, 48089.00
1372.486, 48179.00
1373.543, 48063.00
1374.600, 48106.00
1375.657, 48039.00
1376.713, 48056.00
1377.770, 48118.00
1378.826, 48243.00
1379.882, 48280.00
1380.938, 48189.00
1381.994, 48466.00
1383.050, 48485.00
1384.106, 48406.00
1385.161, 48854.00
1386.216, 48468.00
1387.271, 48654.00
1388.326, 48752.00
1389.381, 48938.00
1390.435, 48748.00
1391.490, 48868.00
1392.544, 48972.00
1393.598, 48918.00
1394.652, 49076.00
1395.705, 48989.00
1396.759, 49131.00
1397.812, 49262.00
1398.866, 49255.00
1399.919, 49315.00
1400.972, 49409.00
1402.024, 49509.00
1403.077, 49537.73
1404.129, 49591.42
1405.181, 49670.00
1406.233, 49579.00
1407.285, 49772.00
1408.337, 49653.00
1409.389, 49699.00
1410.440, 49739.08
1411.491, 49844.00
1412.542, 49810.00
1413.593, 49765.00
1414.644, 49873.00
1415.695, 49982.00
1416.745, 50253.00
1417.795, 50238.00
1418.845, 49852.00
1419.895, 50076.00
1420.945, 50076.00
1421.995, 50253.00
1423.044, 50454.00
1424.093, 50326.00
1425.142, 50590.00
1426.191, 50456.00
1427.240, 50530.00
1428.289, 50603.33
1429.337, 50404.00
1430.385, 50637.00
1431.433, 50729.00
1432.481, 50634.00
1433.529, 50777.00
1434.577, 50930.00
1435.624, 50838.00
1436.672, 51408.00
1437.719, 51218.00
1438.766, 51124.00
1439.812, 50740.00
1440.859, 51069.00
1441.905, 51183.00
1442.952, 51233.00
1443.998, 51179.00
1445.044, 51417.00
1446.090, 51262.00
1447.135, 51531.00
1448.181, 51656.00
1449.226, 51251.00
1450.271, 51744.00
1451.316, 51581.00
1452.361, 51821.00
1453.405, 51562.00
1454.450, 51927.00
1455.494, 51720.00
1456.538, 51651.00
1457.582, 51749.00
1458.626, 51785.00
1459.670, 51929.00
1460.713, 51894.00
1461.757, 51867.00
1462.800, 51903.00
1463.843, 52220.00
1464.886, 52208.00
1465.928, 52193.00
1466.971, 52457.00
1468.013, 52408.00
1469.055, 52462.31
1470.097, 52601.00
1471.139, 52468.00
1472.181, 52405.00
1473.222, 52393.00
1474.263, 52874.00
1475.305, 52723.00
1476.346, 52806.00
1477.386, 52778.00
1478.427, 52844.00
1479.468, 52705.00
1480.508, 53189.00
1481.548, 52770.00
1482.588, 53003.00
1483.628, 53187.00
1484.668, 52929.00
1485.707, 53137.00
1486.747, 53215.00
1487.786, 52972.00
1488.825, 53471.00
1489.864, 53367.00
1490.902, 53197.00
1491.941, 53494.00
1492.979, 53481.00
1494.017, 53648.00
1495.055, 53424.00
1496.093, 53727.00
1497.131, 53466.00
1498.168, 53828.00
1499.206, 53873.00
1500.243, 53608.00
1501.280, 53653.00
1502.317, 54106.00
1503.354, 53808.00
1504.390, 53638.00
1505.426, 54066.00
1506.463, 53899.00
1507.499, 54072.00
1508.535, 54224.00
1509.570, 53801.00
1510.606, 54348.00
1511.641, 54171.00
1512.676, 54126.00
1513.711, 54201.00
1514.746, 54300.00
1515.781, 54634.00
1516.816, 54295.00
1517.850, 54771.00
1518.884, 54356.00
1519.918, 54503.00
1520.952, 54242.00
1521.986, 54599.00
1523.019, 54719.00
1524.053, 54908.00
1525.086, 54601.00
1526.119, 54746.00
1527.152, 54807.00
1528.185, 55043.00
1529.217, 55056.84
1530.250, 55082.00
1531.282, 55090.00
1532.314, 55249.00
1533.346, 55155.00
1534.377, 55187.00
1535.409, 55314.00
1536.440, 55303.95
1537.472, 55418.00
1538.503, 55431.00
1539.534, 55447.00
1540.564, 55514.00
1541.595, 55610.00
1542.625, 55615.00
1543.656, 55657.00
1544.686, 55490.00
1545.716, 55649.00
1546.745, 55587.00
1547.775, 55732.00
1548.804, 55636.00
1549.834, 55802.00
1550.863, 55755.00
1551.892, 56225.00
1552.920, 55796.00
1553.949, 56096.00
1554.977, 55861.00
1556.006, 56305.00
1557.034, 56227.00
1558.062, 56238.00
1559.089, 56268.00
1560.117, 56212.00
1561.144, 56306.00
1562.172, 56425.00
1563.199, 56404.00
1564.226, 56326.00
1565.252, 56298.00
1566.279, 56509.00
1567.305, 56314.00
1568.332, 56546.00
1569.358, 56599.00
1570.384, 56688.00
1571.409, 57059.00
##END=



