##NAMES=Fluor-buergerite
##RRUFFID=R060132
##IDEAL CHEMISTRY=NaFe^3+^_3_Al_6_(Si_6_O_18_)(BO_3_)_3_O_3_F
##LOCALITY=20 km. south of San Luis Potasi, Mexico
##OWNER=RRUFF
##SOURCE=University of Arizona Mineral Museum
##DESCRIPTION=Brown short prismatic
##STATUS=The identification of this mineral has been confirmed by X-ray diffraction and chemical analysis
##URL=rruff.info/R060132
##MEASURED CHEMISTRY=(Na_0.87_Ca_0.03_[box]_0.10_)(Fe^3+^_0.82_Al_0.12_Mg_0.04_Ti_0.02_)_3_Al_6_(BO_3_)_3_(Si_0.98_Al_0.02_)_6_O_18_(O_0.66_F_0.19_(OH)_0.15_)_4_
##PIN_ID=L00828
##ORIENTATION=Laser parallel to -c* (0 0 -1). Fiducial mark perpendicular to laser is parallel to -a [-1 0 0]
131.6680, 13184.00
132.8980, 13341.00
134.1270, 13339.00
135.3560, 13253.00
136.5850, 13383.00
137.8140, 13409.00
139.0430, 13520.00
140.2710, 13594.38
141.5000, 13735.00
142.7280, 13713.00
143.9560, 13728.00
145.1840, 13705.00
146.4120, 13642.00
147.6390, 13871.00
148.8670, 14000.00
150.0940, 14309.00
151.3210, 14390.00
152.5490, 14561.00
153.7750, 14418.00
155.0020, 14694.00
156.2290, 14551.00
157.4550, 14488.00
158.6810, 14487.00
159.9080, 14541.00
161.1340, 14568.00
162.3590, 14707.00
163.5850, 14830.00
164.8110, 14889.00
166.0360, 15137.00
167.2610, 15141.00
168.4860, 15199.00
169.7110, 15387.00
170.9360, 15392.00
172.1610, 15507.00
173.3850, 15653.00
174.6100, 15679.12
175.8340, 15683.00
177.0580, 15857.00
178.2820, 15731.00
179.5050, 15915.00
180.7290, 16059.00
181.9520, 15915.00
183.1760, 16089.00
184.3990, 16171.00
185.6220, 16153.00
186.8450, 16317.00
188.0670, 16401.00
189.2900, 16542.00
190.5120, 16629.36
191.7340, 16539.00
192.9560, 16686.00
194.1780, 16798.00
195.4000, 16598.00
196.6220, 16638.00
197.8430, 16662.00
199.0640, 16581.00
200.2860, 16759.00
201.5070, 16941.00
202.7270, 17211.00
203.9480, 16823.00
205.1690, 16390.00
206.3890, 15826.00
207.6090, 15773.00
208.8290, 15623.00
210.0490, 15490.00
211.2690, 15546.00
212.4890, 15489.00
213.7080, 15388.00
214.9280, 15475.00
216.1470, 15363.00
217.3660, 15247.00
218.5850, 15542.00
219.8030, 15382.00
221.0220, 15457.00
222.2400, 15526.00
223.4590, 15669.00
224.6770, 15611.00
225.8950, 15688.00
227.1120, 15484.00
228.3300, 15494.00
229.5480, 15712.00
230.7650, 15661.00
231.9820, 15750.00
233.1990, 15640.00
234.4160, 15844.00
235.6330, 15798.00
236.8490, 16006.00
238.0660, 16079.00
239.2820, 16236.00
240.4980, 16302.00
241.7140, 16328.00
242.9300, 16460.02
244.1460, 16535.40
245.3610, 16668.00
246.5770, 16770.00
247.7920, 16912.00
249.0070, 17074.00
250.2220, 17188.00
251.4370, 17609.00
252.6510, 17713.00
253.8660, 17923.00
255.0800, 18467.00
256.2940, 18600.00
257.5080, 18999.00
258.7220, 19477.00
259.9360, 19483.46
261.1490, 19951.00
262.3630, 19631.00
263.5760, 19577.00
264.7890, 19636.00
266.0020, 19694.00
267.2150, 19518.00
268.4270, 19798.00
269.6400, 19711.00
270.8520, 20033.00
272.0640, 19913.00
273.2760, 20161.00
274.4880, 20403.00
275.7000, 20452.00
276.9120, 20421.00
278.1230, 20294.00
279.3340, 20206.61
280.5450, 20047.00
281.7560, 19889.00
282.9670, 19730.00
284.1780, 19562.00
285.3880, 19446.00
286.5980, 19391.00
287.8090, 19345.00
289.0190, 19084.00
290.2290, 19289.00
291.4380, 19206.00
292.6480, 19132.00
293.8570, 19274.00
295.0670, 19216.00
296.2760, 19296.00
297.4850, 19200.00
298.6930, 19160.00
299.9020, 19249.00
301.1110, 19091.00
302.3190, 19297.00
303.5270, 19059.00
304.7350, 19081.00
305.9430, 19001.00
307.1510, 19062.00
308.3580, 18687.00
309.5660, 18890.00
310.7730, 18780.00
311.9800, 18873.00
313.1870, 19047.00
314.3940, 19022.00
315.6010, 19027.00
316.8070, 19295.00
318.0130, 19258.00
319.2200, 19557.00
320.4260, 19496.00
321.6310, 19907.00
322.8370, 20024.00
324.0430, 20155.00
325.2480, 20334.00
326.4540, 20353.00
327.6590, 20301.00
328.8640, 20418.00
330.0680, 20339.00
331.2730, 20253.00
332.4780, 20295.00
333.6820, 20318.00
334.8860, 20203.00
336.0900, 20028.00
337.2940, 20054.00
338.4980, 20129.00
339.7010, 20146.00
340.9050, 20249.00
342.1080, 20216.00
343.3110, 20296.00
344.5140, 20486.00
345.7170, 20398.00
346.9200, 20760.00
348.1220, 20793.00
349.3240, 20937.00
350.5270, 20879.00
351.7290, 20999.00
352.9310, 20941.00
354.1320, 20908.00
355.3340, 20824.00
356.5350, 20841.00
357.7370, 20866.00
358.9380, 20797.00
360.1390, 20913.00
361.3400, 20581.00
362.5400, 20532.00
363.7410, 20346.00
364.9410, 20465.00
366.1410, 20586.00
367.3410, 20605.00
368.5410, 20607.92
369.7410, 20563.00
370.9400, 20508.00
372.1400, 20431.00
373.3390, 20375.00
374.5380, 20374.88
375.7370, 20268.00
376.9360, 20410.00
378.1350, 20270.00
379.3330, 20307.00
380.5310, 20469.00
381.7300, 20327.00
382.9280, 20588.00
384.1260, 20463.00
385.3230, 20669.00
386.5210, 20708.00
387.7180, 20931.00
388.9160, 21119.00
390.1130, 21190.00
391.3100, 21555.00
392.5060, 21638.00
393.7030, 22074.00
394.9000, 22215.00
396.0960, 22487.00
397.2920, 22710.00
398.4880, 23051.00
399.6840, 23199.00
400.8800, 23253.00
402.0750, 23431.00
403.2710, 23486.00
404.4660, 23452.41
405.6610, 23452.08
406.8560, 23283.00
408.0510, 23148.00
409.2450, 22971.00
410.4400, 22783.16
411.6340, 22402.00
412.8280, 22317.00
414.0220, 22086.00
415.2160, 21703.00
416.4100, 21520.00
417.6030, 21280.00
418.7970, 20938.00
419.9900, 20825.00
421.1830, 20770.00
422.3760, 20375.00
423.5690, 20320.00
424.7610, 20327.00
425.9540, 20412.00
427.1460, 20217.00
428.3380, 20358.00
429.5300, 20319.00
430.7220, 20615.00
431.9140, 20504.00
433.1050, 20759.00
434.2970, 20833.00
435.4880, 20652.00
436.6790, 20908.00
437.8700, 21027.00
439.0610, 21226.00
440.2510, 21326.00
441.4420, 21546.00
442.6320, 21707.00
443.8220, 21848.00
445.0120, 22015.00
446.2020, 22230.00
447.3910, 22173.00
448.5810, 22645.00
449.7700, 22513.00
450.9600, 22816.00
452.1490, 22989.00
453.3370, 23092.00
454.5260, 23404.00
455.7150, 23388.00
456.9030, 23646.00
458.0910, 23483.00
459.2800, 23781.00
460.4670, 23838.00
461.6550, 23745.00
462.8430, 23676.00
464.0300, 23666.30
465.2180, 23667.16
466.4050, 23577.00
467.5920, 23684.00
468.7790, 23633.00
469.9650, 23500.00
471.1520, 23372.00
472.3380, 23247.08
473.5250, 23080.00
474.7110, 22864.00
475.8970, 22752.00
477.0820, 22383.00
478.2680, 22379.00
479.4540, 22289.00
480.6390, 22059.00
481.8240, 22059.00
483.0090, 22020.00
484.1940, 21806.00
485.3780, 21619.00
486.5630, 21641.00
487.7470, 21777.00
488.9320, 21579.00
490.1160, 21719.00
491.3000, 21546.00
492.4830, 21788.00
493.6670, 21637.00
494.8500, 21611.00
496.0340, 21845.00
497.2170, 21910.00
498.4000, 21852.00
499.5820, 21691.00
500.7650, 21915.00
501.9480, 21842.00
503.1300, 22089.00
504.3120, 22239.00
505.4940, 22278.00
506.6760, 22756.00
507.8580, 22653.00
509.0390, 23071.00
510.2210, 23146.00
511.4020, 23386.00
512.5830, 23294.00
513.7640, 23447.00
514.9450, 23337.00
516.1250, 23583.00
517.3060, 23362.00
518.4860, 23015.00
519.6660, 23142.00
520.8460, 22950.00
522.0260, 22901.00
523.2060, 22659.00
524.3850, 22692.00
525.5650, 22690.00
526.7440, 22547.00
527.9230, 22480.00
529.1020, 22287.00
530.2810, 22305.00
531.4590, 22167.00
532.6380, 22201.00
533.8160, 22211.00
534.9940, 22175.00
536.1720, 22228.00
537.3500, 22103.00
538.5270, 22300.00
539.7050, 22232.00
540.8820, 22391.00
542.0590, 22681.00
543.2360, 22841.00
544.4130, 22893.00
545.5900, 23032.00
546.7660, 23159.00
547.9430, 23274.80
549.1190, 23429.00
550.2950, 23543.00
551.4710, 23730.00
552.6470, 23854.00
553.8220, 24104.00
554.9980, 23968.00
556.1730, 24244.00
557.3480, 23843.00
558.5230, 24152.00
559.6980, 23991.00
560.8730, 24139.00
562.0470, 24282.00
563.2220, 24146.00
564.3960, 24176.00
565.5700, 24102.00
566.7440, 24195.00
567.9170, 24219.00
569.0910, 24433.00
570.2640, 24637.00
571.4380, 24419.00
572.6110, 24542.00
573.7840, 24907.00
574.9570, 24834.00
576.1290, 25035.00
577.3020, 25099.00
578.4740, 25500.00
579.6460, 25368.00
580.8180, 25672.00
581.9900, 25827.00
583.1620, 26039.00
584.3330, 26293.00
585.5040, 26527.27
586.6760, 26737.00
587.8470, 27054.00
589.0180, 27398.00
590.1880, 27632.00
591.3590, 27905.00
592.5290, 28387.00
593.7000, 28861.00
594.8700, 29394.00
596.0400, 30010.00
597.2090, 30519.00
598.3790, 31185.00
599.5490, 31584.00
600.7180, 32582.00
601.8870, 33219.00
603.0560, 34218.00
604.2250, 34754.00
605.3940, 35697.00
606.5620, 36251.00
607.7300, 37298.00
608.8990, 37867.00
610.0670, 38081.00
611.2350, 39239.00
612.4020, 39433.00
613.5700, 39803.00
614.7370, 40464.00
615.9050, 40985.00
617.0720, 41516.00
618.2390, 41989.00
619.4060, 42454.00
620.5720, 43205.00
621.7390, 44074.00
622.9050, 44631.00
624.0710, 45380.00
625.2370, 46111.00
626.4030, 47076.00
627.5690, 48038.00
628.7340, 48756.00
629.9000, 49843.00
631.0650, 51130.00
632.2300, 51803.00
633.3950, 53149.00
634.5600, 53992.00
635.7240, 54856.00
636.8890, 55372.00
638.0530, 55681.00
639.2170, 55219.00
640.3810, 54706.00
641.5450, 53717.00
642.7080, 52104.00
643.8720, 51306.00
645.0350, 49590.00
646.1980, 48032.00
647.3610, 46538.00
648.5240, 45459.00
649.6870, 44338.00
650.8490, 43052.00
652.0120, 42366.23
653.1740, 41232.00
654.3360, 40824.00
655.4980, 39955.00
656.6600, 38890.00
657.8210, 38132.00
658.9830, 37248.00
660.1440, 36561.00
661.3050, 35329.00
662.4660, 34505.00
663.6270, 33647.00
664.7870, 32586.00
665.9480, 31861.00
667.1080, 31423.00
668.2680, 30408.00
669.4280, 29954.00
670.5880, 29376.00
671.7480, 28720.00
672.9070, 28223.00
674.0670, 27907.00
675.2260, 27112.00
676.3850, 26692.00
677.5440, 26030.00
678.7030, 25424.00
679.8610, 25185.00
681.0200, 24529.00
682.1780, 23944.00
683.3360, 23694.00
684.4940, 23444.00
685.6520, 23064.00
686.8090, 22865.00
687.9670, 22819.00
689.1240, 22619.00
690.2810, 22526.00
691.4380, 22545.00
692.5950, 22620.00
693.7520, 22651.00
694.9080, 22703.42
696.0650, 22582.00
697.2210, 22749.00
698.3770, 22814.00
699.5330, 22713.00
700.6880, 22970.00
701.8440, 22998.00
702.9990, 23007.00
704.1550, 23210.00
705.3100, 23040.00
706.4650, 23249.00
707.6190, 23159.00
708.7740, 23228.00
709.9290, 22945.00
711.0830, 23169.00
712.2370, 22899.00
713.3910, 22838.00
714.5450, 22786.00
715.6980, 22816.00
716.8520, 22646.00
718.0050, 22691.00
719.1580, 22612.00
720.3110, 22593.00
721.4640, 22270.00
722.6170, 22251.00
723.7700, 22162.00
724.9220, 22244.00
726.0740, 22182.07
727.2260, 22295.00
728.3780, 22201.00
729.5300, 22260.00
730.6810, 22396.00
731.8330, 22187.00
732.9840, 22322.00
734.1350, 22250.00
735.2860, 22254.00
736.4370, 22284.00
737.5880, 22139.00
738.7380, 22335.00
739.8880, 22040.00
741.0390, 22092.00
742.1890, 22059.00
743.3380, 22277.00
744.4880, 22252.00
745.6380, 22464.00
746.7870, 22598.00
747.9360, 22851.00
749.0850, 22863.00
750.2340, 23020.94
751.3830, 23169.00
752.5310, 23181.00
753.6800, 23326.00
754.8280, 23340.00
755.9760, 23361.00
757.1240, 23459.00
758.2720, 23372.42
759.4190, 23189.00
760.5670, 23199.00
761.7140, 22893.00
762.8610, 22712.00
764.0080, 22595.00
765.1550, 22397.00
766.3020, 22227.00
767.4480, 22107.00
768.5950, 21927.00
769.7410, 21939.00
770.8870, 21772.00
772.0330, 21706.00
773.1780, 21651.00
774.3240, 21720.66
775.4690, 21768.00
776.6140, 21971.00
777.7590, 22075.00
778.9040, 22201.00
780.0490, 22215.00
781.1940, 22359.00
782.3380, 22755.00
783.4820, 22990.00
784.6260, 23066.00
785.7700, 23503.00
786.9140, 23641.00
788.0580, 23796.00
789.2010, 24066.00
790.3450, 24168.00
791.4880, 24024.00
792.6310, 23697.00
793.7730, 23398.00
794.9160, 23169.00
796.0590, 22835.00
797.2010, 22462.00
798.3430, 22197.00
799.4850, 22075.00
800.6270, 21902.00
801.7690, 21723.00
802.9100, 21805.00
804.0520, 21875.00
805.1930, 21646.00
806.3340, 21617.00
807.4750, 21643.00
808.6160, 21702.00
809.7560, 21684.00
810.8970, 21598.24
812.0370, 21347.00
813.1770, 21346.00
814.3170, 21267.00
815.4570, 21125.00
816.5960, 21266.00
817.7360, 21058.00
818.8750, 21183.00
820.0140, 21086.00
821.1530, 21003.00
822.2920, 21026.00
823.4310, 20784.00
824.5690, 20810.00
825.7070, 20792.00
826.8460, 20783.00
827.9840, 20673.00
829.1220, 20826.00
830.2590, 20631.00
831.3970, 20929.00
832.5340, 20721.00
833.6710, 20782.00
834.8080, 20608.00
835.9450, 20737.00
837.0820, 20727.00
838.2190, 20707.00
839.3550, 20852.00
840.4910, 20684.00
841.6270, 20868.00
842.7630, 20911.00
843.8990, 20625.00
845.0350, 20809.00
846.1700, 20905.00
847.3060, 20773.00
848.4410, 20884.00
849.5760, 20953.00
850.7100, 20723.00
851.8450, 20945.00
852.9800, 20703.00
854.1140, 21080.00
855.2480, 20810.00
856.3820, 20963.00
857.5160, 21012.00
858.6500, 20955.00
859.7830, 20984.00
860.9170, 20996.45
862.0500, 20980.00
863.1830, 21044.00
864.3160, 21100.00
865.4480, 21152.84
866.5810, 21159.14
867.7130, 21178.00
868.8460, 21118.00
869.9780, 21023.00
871.1100, 20923.00
872.2410, 21044.00
873.3730, 21053.00
874.5050, 21253.00
875.6360, 21211.00
876.7670, 21335.00
877.8980, 21280.00
879.0290, 21322.08
880.1590, 21339.00
881.2900, 21325.00
882.4200, 21315.00
883.5500, 21231.00
884.6800, 21457.00
885.8100, 21554.00
886.9400, 21479.00
888.0690, 21501.00
889.1990, 21463.00
890.3280, 21397.00
891.4570, 21569.00
892.5860, 21570.00
893.7140, 21526.00
894.8430, 21569.00
895.9710, 21749.00
897.1000, 21422.00
898.2280, 21611.00
899.3560, 21850.00
900.4830, 21637.00
901.6110, 21778.00
902.7380, 21527.00
903.8660, 21868.00
904.9930, 21876.00
906.1200, 21904.00
907.2460, 21773.00
908.3730, 21903.00
909.5000, 22108.00
910.6260, 21875.00
911.7520, 21935.00
912.8780, 22078.00
914.0040, 22261.00
915.1290, 22259.30
916.2550, 22196.00
917.3800, 22275.00
918.5050, 22306.00
919.6300, 22252.00
920.7550, 22499.00
921.8800, 22326.00
923.0040, 22422.00
924.1290, 22384.00
925.2530, 22306.00
926.3770, 22455.00
927.5010, 22511.00
928.6250, 22558.00
929.7480, 22521.00
930.8720, 22546.00
931.9950, 22633.00
933.1180, 22603.00
934.2410, 22713.00
935.3640, 22682.00
936.4860, 22678.00
937.6090, 22910.00
938.7310, 22877.00
939.8530, 22896.00
940.9750, 23004.65
942.0970, 23018.86
943.2180, 23081.00
944.3400, 23169.00
945.4610, 23127.00
946.5820, 23240.00
947.7030, 23285.00
948.8240, 23407.00
949.9450, 23434.00
951.0650, 23590.00
952.1860, 23475.00
953.3060, 23590.00
954.4260, 23544.00
955.5460, 23671.00
956.6650, 23811.00
957.7850, 23608.00
958.9040, 23906.00
960.0230, 23959.00
961.1420, 23787.00
962.2610, 23990.00
963.3800, 23928.00
964.4990, 24039.00
965.6170, 24058.00
966.7350, 24101.00
967.8530, 24125.00
968.9710, 24106.00
970.0890, 24139.00
971.2070, 24289.00
972.3240, 24451.00
973.4410, 24510.00
974.5580, 24424.00
975.6750, 24489.00
976.7920, 24483.00
977.9090, 24544.00
979.0250, 24592.00
980.1410, 24706.00
981.2580, 24743.00
982.3740, 24661.00
983.4890, 24808.00
984.6050, 24736.00
985.7200, 24789.00
986.8360, 24816.00
987.9510, 24895.00
989.0660, 25196.00
990.1810, 25020.00
991.2950, 25110.15
992.4100, 25191.00
993.5240, 25023.00
994.6390, 25031.00
995.7530, 24972.00
996.8660, 24970.57
997.9800, 24970.41
999.0940, 25077.00
1000.207, 24987.00
1001.320, 25124.00
1002.433, 25152.00
1003.546, 25283.00
1004.659, 25346.02
1005.772, 25267.00
1006.884, 25442.00
1007.996, 25559.00
1009.108, 25520.00
1010.220, 25493.00
1011.332, 25601.00
1012.444, 25611.00
1013.555, 25677.00
1014.666, 25701.00
1015.777, 25669.00
1016.888, 25851.00
1017.999, 25932.00
1019.110, 25920.00
1020.220, 25909.00
1021.331, 25311.07
1022.441, 25722.49
1023.551, 25948.67
1024.661, 25999.56
1025.770, 25350.17
1026.880, 25605.05
1027.989, 25497.54
1029.098, 25375.18
1030.207, 25757.34
1031.316, 25209.81
1032.425, 25274.00
1033.533, 25138.00
1034.642, 25276.00
1035.750, 25357.00
1036.858, 25434.00
1037.966, 25445.00
1039.073, 25287.00
1040.181, 25059.00
1041.288, 25346.00
1042.396, 25149.00
1043.503, 25313.00
1044.610, 25293.00
1045.716, 25509.00
1046.823, 25480.00
1047.929, 25370.00
1049.036, 25469.00
1050.142, 25402.00
1051.248, 25878.00
1052.353, 25773.00
1053.459, 25971.00
1054.564, 25774.00
1055.670, 25966.00
1056.775, 26185.00
1057.880, 26257.00
1058.985, 26217.00
1060.089, 26493.00
1061.194, 26423.00
1062.298, 26358.00
1063.402, 26531.00
1064.506, 26472.00
1065.610, 26273.00
1066.713, 26414.00
1067.817, 26516.00
1068.920, 26030.00
1070.023, 26002.00
1071.126, 26116.00
1072.229, 25923.00
1073.332, 25918.00
1074.435, 25916.00
1075.537, 25844.00
1076.639, 25655.00
1077.741, 25476.00
1078.843, 25509.00
1079.945, 25609.00
1081.046, 25607.00
1082.148, 25668.00
1083.249, 25472.00
1084.350, 25616.00
1085.451, 25475.00
1086.551, 25570.00
1087.652, 25388.00
1088.752, 25299.00
1089.853, 25429.00
1090.953, 25561.00
1092.053, 25553.00
1093.152, 25569.00
1094.252, 25606.00
1095.351, 25512.00
1096.451, 25700.00
1097.550, 25509.00
1098.649, 25907.00
1099.748, 26535.00
1100.846, 25388.00
1101.945, 25189.00
1103.043, 25504.00
1104.141, 25455.00
1105.239, 25333.00
1106.337, 25362.00
1107.434, 25403.00
1108.532, 25504.00
1109.629, 25421.00
1110.726, 25612.00
1111.823, 25421.00
1112.920, 25368.00
1114.017, 25542.00
1115.113, 25576.00
1116.210, 25322.00
1117.306, 25312.00
1118.402, 25469.00
1119.498, 25683.00
1120.593, 25532.00
1121.689, 25273.00
1122.784, 25262.00
1123.879, 25238.00
1124.974, 25472.00
1126.069, 25446.00
1127.164, 25362.00
1128.259, 25655.00
1129.353, 25234.00
1130.447, 25301.00
1131.541, 25018.00
1132.635, 25436.00
1133.729, 25272.00
1134.822, 25325.00
1135.916, 25411.00
1137.009, 25355.00
1138.102, 25368.15
1139.195, 25237.00
1140.288, 25324.00
1141.380, 25222.00
1142.473, 25261.00
1143.565, 25250.00
1144.657, 25233.91
1145.749, 25239.96
1146.841, 25239.00
1147.932, 25255.00
1149.024, 25246.00
1150.115, 25330.00
1151.206, 25153.00
1152.297, 25275.00
1153.388, 25232.00
1154.479, 25296.00
1155.569, 25198.00
1156.659, 25129.00
1157.750, 25208.00
1158.839, 25088.00
1159.929, 25476.00
1161.019, 25281.00
1162.108, 25452.00
1163.198, 25398.00
1164.287, 25453.00
1165.376, 25609.00
1166.465, 25693.00
1167.553, 25674.00
1168.642, 25410.00
1169.730, 25471.00
1170.818, 25454.00
1171.906, 25426.00
1172.994, 25454.00
1174.082, 25300.00
1175.170, 25604.00
1176.257, 25666.00
1177.344, 25385.00
1178.431, 25725.00
1179.518, 25814.00
1180.605, 25754.00
1181.691, 25622.00
1182.778, 25711.00
1183.864, 25719.00
1184.950, 25660.00
1186.036, 25711.00
1187.122, 25840.00
1188.207, 25958.00
1189.292, 25871.00
1190.378, 25789.00
1191.463, 25972.00
1192.548, 25943.00
1193.632, 25843.00
1194.717, 25776.00
1195.801, 25928.00
1196.886, 25998.00
1197.970, 26018.00
1199.054, 26038.00
1200.137, 26092.00
1201.221, 26067.00
1202.305, 26270.00
1203.388, 26090.00
1204.471, 26256.00
1205.554, 26085.00
1206.637, 26149.00
1207.719, 26105.00
1208.802, 26232.00
1209.884, 26173.00
1210.966, 26459.00
1212.048, 26214.00
1213.130, 26280.00
1214.212, 26519.00
1215.293, 26430.00
1216.374, 26484.00
1217.456, 26724.00
1218.536, 26453.00
1219.617, 26627.00
1220.698, 26744.00
1221.778, 26579.00
1222.859, 26766.00
1223.939, 26866.00
1225.019, 26974.00
1226.099, 26931.00
1227.178, 27268.00
1228.258, 27108.00
1229.337, 27174.00
1230.417, 27467.00
1231.496, 27333.00
1232.574, 27775.00
1233.653, 27673.00
1234.732, 27724.00
1235.810, 28124.00
1236.888, 28218.00
1237.966, 28216.00
1239.044, 28529.00
1240.122, 28676.00
1241.199, 28935.00
1242.277, 29049.00
1243.354, 29176.00
1244.431, 28989.00
1245.508, 29233.00
1246.585, 29368.00
1247.661, 29277.79
1248.738, 29577.00
1249.814, 29292.00
1250.890, 29293.00
1251.966, 29458.00
1253.042, 29523.00
1254.117, 29200.00
1255.193, 29176.00
1256.268, 29402.00
1257.343, 29433.00
1258.418, 29723.00
1259.493, 29767.00
1260.567, 29674.00
1261.642, 29700.00
1262.716, 29716.00
1263.790, 29798.00
1264.864, 29871.59
1265.938, 29859.48
1267.011, 30109.00
1268.085, 29804.00
1269.158, 29960.00
1270.231, 29849.00
1271.304, 29698.00
1272.377, 29958.00
1273.450, 29798.00
1274.522, 29665.00
1275.594, 29805.00
1276.666, 30133.00
1277.738, 30412.00
1278.810, 29859.00
1279.882, 30085.00
1280.953, 29741.00
1282.025, 29778.00
1283.096, 30011.00
1284.167, 30226.00
1285.238, 30220.00
1286.308, 30438.00
1287.379, 30290.00
1288.449, 30478.00
1289.519, 30601.00
1290.589, 30682.00
1291.659, 30654.00
1292.729, 30640.00
1293.798, 30537.00
1294.868, 30487.00
1295.937, 30390.00
1297.006, 30540.00
1298.075, 30310.00
1299.143, 30226.00
1300.212, 29974.00
1301.280, 30223.00
1302.348, 30172.00
1303.416, 29985.00
1304.484, 29765.00
1305.552, 30113.00
1306.620, 29940.00
1307.687, 30511.00
1308.754, 30398.95
1309.821, 30307.00
1310.888, 30406.00
1311.955, 30367.00
1313.021, 30394.00
1314.088, 30417.11
1315.154, 30301.00
1316.220, 30440.00
1317.286, 30364.00
1318.352, 30377.00
1319.417, 30214.00
1320.483, 30334.00
1321.548, 30119.00
1322.613, 30090.00
1323.678, 29990.00
1324.743, 30077.00
1325.807, 30024.04
1326.872, 30205.00
1327.936, 30025.00
1329.000, 30168.00
1330.064, 30189.00
1331.128, 30183.00
1332.191, 30334.00
1333.255, 30249.00
1334.318, 30239.00
1335.381, 30006.00
1336.444, 30025.00
1337.507, 29993.44
1338.569, 29962.26
1339.632, 30014.00
1340.694, 30060.00
1341.756, 30062.00
1342.818, 30098.34
1343.880, 30082.84
1344.941, 30112.00
1346.003, 30111.00
1347.064, 30073.00
1348.125, 30230.00
1349.186, 30233.00
1350.247, 30322.00
1351.308, 30204.00
1352.368, 30285.00
1353.428, 30205.00
1354.489, 30067.00
1355.549, 30086.00
1356.608, 30007.55
1357.668, 30088.00
1358.727, 30035.00
1359.787, 30167.00
1360.846, 30391.00
1361.905, 30014.00
1362.964, 29880.00
1364.022, 30092.00
1365.081, 29996.00
1366.139, 29905.00
1367.197, 29881.00
1368.255, 29726.00
1369.313, 29754.00
1370.371, 29718.00
1371.428, 29855.00
1372.486, 29694.00
1373.543, 29467.00
1374.600, 29370.00
1375.657, 29545.00
1376.713, 29498.00
1377.770, 29660.00
1378.826, 29590.00
1379.882, 29490.00
1380.938, 29505.00
1381.994, 29613.00
1383.050, 29317.00
1384.106, 29488.00
1385.161, 29545.00
1386.216, 29371.00
1387.271, 29486.00
1388.326, 29499.00
1389.381, 29520.00
1390.435, 29613.00
1391.490, 29440.00
1392.544, 29382.00
1393.598, 29686.00
1394.652, 29510.00
1395.705, 29757.00
1396.759, 29589.00
1397.812, 29491.00
1398.866, 29575.00
1399.919, 29543.00
1400.972, 29538.00
1402.024, 29591.00
1403.077, 29687.00
1404.129, 29661.00
1405.181, 29746.01
1406.233, 29449.00
1407.285, 29781.00
1408.337, 29748.00
1409.389, 29607.00
1410.440, 29754.00
1411.491, 29440.00
1412.542, 29692.00
1413.593, 29548.00
1414.644, 29717.00
1415.695, 29491.00
1416.745, 29824.00
1417.795, 29430.00
1418.845, 29500.00
1419.895, 29589.00
1420.945, 29601.00
1421.995, 29705.00
1423.044, 29532.00
1424.093, 29576.00
1425.142, 29639.00
1426.191, 29757.00
1427.240, 29751.80
1428.289, 29714.72
1429.337, 29878.00
1430.385, 29509.00
1431.433, 29755.00
1432.481, 29599.00
1433.529, 29462.00
1434.577, 29820.00
1435.624, 29850.00
1436.672, 29639.00
1437.719, 29524.00
1438.766, 29805.00
1439.812, 29633.00
1440.859, 29826.00
1441.905, 29606.00
1442.952, 29740.00
1443.998, 29883.00
1445.044, 29684.00
1446.090, 29677.00
1447.135, 29639.00
1448.181, 29773.00
1449.226, 29703.00
1450.271, 29831.00
1451.316, 29938.00
1452.361, 29905.17
1453.405, 29989.42
1454.450, 29908.00
1455.494, 30010.00
1456.538, 30004.00
1457.582, 29959.00
1458.626, 29951.00
1459.670, 29924.00
1460.713, 30047.00
1461.757, 30046.00
1462.800, 30021.00
1463.843, 29923.00
1464.886, 30078.00
1465.928, 30059.00
1466.971, 29950.00
1468.013, 30104.00
1469.055, 29962.00
1470.097, 30140.00
1471.139, 30055.00
1472.181, 30047.00
1473.222, 29900.00
1474.263, 30091.00
1475.305, 30117.00
1476.346, 30172.00
1477.386, 30139.00
1478.427, 30104.00
1479.468, 30342.00
1480.508, 30409.00
1481.548, 30224.00
1482.588, 30394.00
1483.628, 30289.00
1484.668, 30220.00
1485.707, 30254.00
1486.747, 30353.00
1487.786, 30318.26
1488.825, 30439.00
1489.864, 30311.00
1490.902, 30483.00
1491.941, 30413.00
1492.979, 30592.00
1494.017, 30430.00
1495.055, 30611.00
1496.093, 30426.00
1497.131, 30530.00
1498.168, 30694.00
1499.206, 30714.00
1500.243, 30683.00
1501.280, 30641.00
1502.317, 30697.00
1503.354, 30859.00
1504.390, 30802.85
1505.426, 30729.00
1506.463, 30817.00
1507.499, 30751.00
1508.535, 30776.00
1509.570, 30698.00
1510.606, 30790.00
1511.641, 30828.00
1512.676, 31010.00
1513.711, 30933.00
1514.746, 31029.28
1515.781, 30903.00
1516.816, 31032.00
1517.850, 31163.00
1518.884, 31017.00
1519.918, 31183.00
1520.952, 31156.00
1521.986, 31083.00
1523.019, 31135.00
1524.053, 31132.00
1525.086, 31289.00
1526.119, 31107.00
1527.152, 31183.00
1528.185, 30993.00
1529.217, 31430.00
1530.250, 31229.00
1531.282, 31294.00
1532.314, 31146.00
1533.346, 31182.00
1534.377, 31246.00
1535.409, 31334.00
1536.440, 31289.00
1537.472, 31438.00
1538.503, 31552.00
1539.534, 31397.00
1540.564, 31551.00
1541.595, 31391.00
1542.625, 31272.00
1543.656, 31416.00
1544.686, 31642.00
1545.716, 31628.00
1546.745, 31520.00
1547.775, 31623.00
1548.804, 31525.00
1549.834, 31612.46
1550.863, 31572.00
1551.892, 31817.00
1552.920, 31906.00
1553.949, 32098.00
1554.977, 32098.00
1556.006, 32128.10
1557.034, 31999.00
1558.062, 32011.00
1559.089, 32023.00
1560.117, 31833.00
1561.144, 31894.00
1562.172, 31888.00
1563.199, 31919.00
1564.226, 32170.00
1565.252, 32137.00
1566.279, 32140.00
1567.305, 32291.00
1568.332, 32111.00
1569.358, 32174.00
1570.384, 32310.00
##END=



