##NAMES=Fluorapatite
##RRUFFID=R050194
##IDEAL CHEMISTRY=Ca_5_(PO_4_)_3_F
##LOCALITY=Siglo XX mine, Llallagua, Bolivia
##OWNER=RRUFF
##SOURCE=Dave Bunk Minerals
##DESCRIPTION=Purple crystal fragments
##STATUS=The identification of this mineral has been confirmed by X-ray diffraction and chemical analysis
##URL=rruff.info/R050194
##MEASURED CHEMISTRY=Ca_5.00_(P_1.00_O_4_)_3_F_1.00_
##PIN_ID=L01968
##ORIENTATION=Laser parallel to -a* (-1 0 0). Fiducial mark perpendicular to laser is parallel to -c [0 0 -1]
136.5850, 5027.000
137.8140, 5091.000
139.0430, 5101.211
140.2710, 5125.542
141.5000, 5086.000
142.7280, 5100.000
143.9560, 5109.000
145.1840, 5090.000
146.4120, 5142.000
147.6390, 5088.000
148.8670, 5165.000
150.0940, 5102.000
151.3210, 5226.000
152.5490, 5239.000
153.7750, 5247.000
155.0020, 5282.000
156.2290, 5286.000
157.4550, 5324.000
158.6810, 5318.000
159.9080, 5360.000
161.1340, 5403.000
162.3590, 5298.000
163.5850, 5423.000
164.8110, 5371.000
166.0360, 5441.000
167.2610, 5447.000
168.4860, 5472.000
169.7110, 5506.000
170.9360, 5539.000
172.1610, 5610.000
173.3850, 5549.000
174.6100, 5553.000
175.8340, 5512.000
177.0580, 5641.000
178.2820, 5677.000
179.5050, 5615.000
180.7290, 5778.000
181.9520, 5710.000
183.1760, 5786.000
184.3990, 5728.000
185.6220, 5792.000
186.8450, 5841.000
188.0670, 5816.000
189.2900, 5821.000
190.5120, 5815.000
191.7340, 5896.000
192.9560, 5843.000
194.1780, 5865.000
195.4000, 5968.000
196.6220, 5970.000
197.8430, 6009.000
199.0640, 6024.000
200.2860, 6011.000
201.5070, 5935.000
202.7270, 5993.000
203.9480, 6055.000
205.1690, 6036.000
206.3890, 6104.000
207.6090, 6084.000
208.8290, 6196.000
210.0490, 6259.000
211.2690, 6261.000
212.4890, 6250.000
213.7080, 6269.000
214.9280, 6320.000
216.1470, 6258.000
217.3660, 6265.000
218.5850, 6436.000
219.8030, 6415.000
221.0220, 6408.000
222.2400, 6528.000
223.4590, 6540.000
224.6770, 6411.000
225.8950, 6387.000
227.1120, 6469.000
228.3300, 6550.000
229.5480, 6562.000
230.7650, 6581.000
231.9820, 6700.000
233.1990, 6591.000
234.4160, 6598.000
235.6330, 6694.000
236.8490, 6732.000
238.0660, 6626.000
239.2820, 6631.000
240.4980, 6745.000
241.7140, 6701.000
242.9300, 6827.000
244.1460, 6831.000
245.3610, 6786.000
246.5770, 6916.000
247.7920, 6878.000
249.0070, 6869.000
250.2220, 6912.000
251.4370, 6904.000
252.6510, 6945.000
253.8660, 6955.000
255.0800, 6973.000
256.2940, 6964.000
257.5080, 7053.000
258.7220, 7005.000
259.9360, 7152.000
261.1490, 7151.000
262.3630, 7055.000
263.5760, 7227.000
264.7890, 7266.000
266.0020, 7155.000
267.2150, 7299.000
268.4270, 7276.000
269.6400, 7273.000
270.8520, 7216.000
272.0640, 7239.000
273.2760, 7353.000
274.4880, 7460.000
275.7000, 7341.000
276.9120, 7413.000
278.1230, 7329.000
279.3340, 7351.105
280.5450, 7406.000
281.7560, 7439.000
282.9670, 7436.000
284.1780, 7573.000
285.3880, 7581.000
286.5980, 7671.000
287.8090, 7568.000
289.0190, 7685.000
290.2290, 7777.000
291.4380, 7740.000
292.6480, 7593.000
293.8570, 7815.000
295.0670, 7783.000
296.2760, 7726.000
297.4850, 7824.000
298.6930, 7814.000
299.9020, 7816.000
301.1110, 7915.000
302.3190, 7904.000
303.5270, 7993.000
304.7350, 7847.000
305.9430, 8099.000
307.1510, 7853.000
308.3580, 8104.000
309.5660, 8110.000
310.7730, 8040.000
311.9800, 8154.000
313.1870, 8101.000
314.3940, 8122.000
315.6010, 8190.000
316.8070, 8178.000
318.0130, 8243.000
319.2200, 8241.000
320.4260, 8335.000
321.6310, 8331.000
322.8370, 8289.000
324.0430, 8254.000
325.2480, 8335.000
326.4540, 8370.000
327.6590, 8420.000
328.8640, 8381.000
330.0680, 8429.000
331.2730, 8407.000
332.4780, 8483.000
333.6820, 8468.000
334.8860, 8414.000
336.0900, 8620.000
337.2940, 8691.000
338.4980, 8692.000
339.7010, 8697.000
340.9050, 8627.000
342.1080, 8655.000
343.3110, 8661.000
344.5140, 8779.000
345.7170, 8782.000
346.9200, 8844.000
348.1220, 8761.000
349.3240, 8875.000
350.5270, 8897.000
351.7290, 8957.000
352.9310, 8994.000
354.1320, 9040.000
355.3340, 9014.000
356.5350, 8993.000
357.7370, 9053.000
358.9380, 9017.000
360.1390, 9082.000
361.3400, 9095.000
362.5400, 9160.000
363.7410, 9211.000
364.9410, 9266.000
366.1410, 9336.000
367.3410, 9294.000
368.5410, 9263.000
369.7410, 9441.000
370.9400, 9357.000
372.1400, 9290.000
373.3390, 9406.000
374.5380, 9445.000
375.7370, 9471.000
376.9360, 9447.000
378.1350, 9654.000
379.3330, 9525.000
380.5310, 9662.000
381.7300, 9593.000
382.9280, 9608.000
384.1260, 9576.000
385.3230, 9665.000
386.5210, 9609.000
387.7180, 9754.000
388.9160, 9766.000
390.1130, 9778.000
391.3100, 9712.000
392.5060, 9896.000
393.7030, 9924.000
394.9000, 9902.000
396.0960, 9981.000
397.2920, 10024.00
398.4880, 9925.000
399.6840, 9964.000
400.8800, 10157.00
402.0750, 10049.00
403.2710, 10086.00
404.4660, 10023.00
405.6610, 10182.00
406.8560, 10196.00
408.0510, 10162.00
409.2450, 10354.00
410.4400, 10207.00
411.6340, 10324.00
412.8280, 10300.00
414.0220, 10351.00
415.2160, 10487.00
416.4100, 10493.00
417.6030, 10411.00
418.7970, 10583.00
419.9900, 10444.00
421.1830, 10586.00
422.3760, 10712.00
423.5690, 10681.00
424.7610, 10625.00
425.9540, 10852.00
427.1460, 10911.00
428.3380, 10935.00
429.5300, 11009.48
430.7220, 11017.40
431.9140, 11000.00
433.1050, 11045.00
434.2970, 10991.00
435.4880, 11003.00
436.6790, 11006.00
437.8700, 10982.00
439.0610, 11144.00
440.2510, 10988.00
441.4420, 11019.00
442.6320, 11171.00
443.8220, 11111.00
445.0120, 11304.00
446.2020, 11332.00
447.3910, 11281.00
448.5810, 11282.00
449.7700, 11396.00
450.9600, 11396.00
452.1490, 11389.00
453.3370, 11355.00
454.5260, 11501.00
455.7150, 11369.00
456.9030, 11510.00
458.0910, 11405.00
459.2800, 11430.00
460.4670, 11567.00
461.6550, 11686.00
462.8430, 11701.43
464.0300, 11652.00
465.2180, 11760.00
466.4050, 11730.00
467.5920, 11748.00
468.7790, 11860.00
469.9650, 11869.00
471.1520, 11811.00
472.3380, 11858.00
473.5250, 11949.00
474.7110, 11826.00
475.8970, 12045.00
477.0820, 12096.00
478.2680, 12019.00
479.4540, 12184.00
480.6390, 12034.00
481.8240, 12123.00
483.0090, 12267.00
484.1940, 12262.00
485.3780, 12200.00
486.5630, 12184.00
487.7470, 12325.00
488.9320, 12344.00
490.1160, 12487.00
491.3000, 12584.00
492.4830, 12416.00
493.6670, 12500.00
494.8500, 12423.00
496.0340, 12482.00
497.2170, 12649.00
498.4000, 12548.00
499.5820, 12544.00
500.7650, 12723.00
501.9480, 12781.00
503.1300, 12649.00
504.3120, 12835.00
505.4940, 12768.00
506.6760, 12843.00
507.8580, 13081.00
509.0390, 12851.00
510.2210, 12941.00
511.4020, 13071.00
512.5830, 13075.00
513.7640, 13109.00
514.9450, 13089.00
516.1250, 13221.00
517.3060, 13138.00
518.4860, 13150.00
519.6660, 13337.00
520.8460, 13277.00
522.0260, 13403.00
523.2060, 13279.00
524.3850, 13452.00
525.5650, 13463.00
526.7440, 13581.00
527.9230, 13604.64
529.1020, 13465.00
530.2810, 13592.00
531.4590, 13636.00
532.6380, 13559.00
533.8160, 13607.00
534.9940, 13683.00
536.1720, 13626.00
537.3500, 13818.00
538.5270, 13643.00
539.7050, 13825.00
540.8820, 13878.00
542.0590, 14023.00
543.2360, 14070.00
544.4130, 14083.00
545.5900, 14243.00
546.7660, 14179.00
547.9430, 14155.00
549.1190, 14007.00
550.2950, 14266.00
551.4710, 14218.00
552.6470, 14286.00
553.8220, 14330.00
554.9980, 14329.00
556.1730, 14415.00
557.3480, 14355.00
558.5230, 14248.00
559.6980, 14585.00
560.8730, 14440.00
562.0470, 14612.00
563.2220, 14618.00
564.3960, 14676.00
565.5700, 14777.00
566.7440, 14701.00
567.9170, 14862.00
569.0910, 14777.00
570.2640, 14911.00
571.4380, 14896.00
572.6110, 15009.00
573.7840, 14921.00
574.9570, 15011.00
576.1290, 15092.00
577.3020, 15064.00
578.4740, 15218.00
579.6460, 15217.00
580.8180, 15170.00
581.9900, 15360.00
583.1620, 15410.00
584.3330, 15491.00
585.5040, 15467.00
586.6760, 15410.00
587.8470, 15484.00
589.0180, 15554.00
590.1880, 15675.00
591.3590, 15636.00
592.5290, 15690.00
593.7000, 15751.00
594.8700, 15734.00
596.0400, 15685.00
597.2090, 15799.00
598.3790, 15831.00
599.5490, 15902.00
600.7180, 15746.00
601.8870, 15849.00
603.0560, 15967.00
604.2250, 16139.00
605.3940, 16109.00
606.5620, 16114.00
607.7300, 16279.00
608.8990, 16150.00
610.0670, 16300.00
611.2350, 16281.00
612.4020, 16244.00
613.5700, 16460.00
614.7370, 16340.00
615.9050, 16411.00
617.0720, 16332.00
618.2390, 16458.00
619.4060, 16547.00
620.5720, 16632.00
621.7390, 16605.00
622.9050, 16710.00
624.0710, 16693.00
625.2370, 16803.00
626.4030, 16909.00
627.5690, 16820.00
628.7340, 16832.00
629.9000, 16862.00
631.0650, 17096.00
632.2300, 16878.00
633.3950, 16994.00
634.5600, 17215.00
635.7240, 17128.00
636.8890, 17025.00
638.0530, 17364.00
639.2170, 17242.00
640.3810, 17334.00
641.5450, 17217.00
642.7080, 17399.00
643.8720, 17361.00
645.0350, 17437.00
646.1980, 17688.00
647.3610, 17571.00
648.5240, 17612.00
649.6870, 17655.00
650.8490, 17646.00
652.0120, 17755.00
653.1740, 17776.00
654.3360, 17852.00
655.4980, 17735.00
656.6600, 17728.00
657.8210, 17699.00
658.9830, 17923.00
660.1440, 17857.00
661.3050, 18054.00
662.4660, 18240.00
663.6270, 18160.00
664.7870, 18159.00
665.9480, 18288.00
667.1080, 18241.00
668.2680, 18277.00
669.4280, 18332.00
670.5880, 18400.00
671.7480, 18501.00
672.9070, 18466.00
674.0670, 18681.00
675.2260, 18765.00
676.3850, 18549.00
677.5440, 18585.00
678.7030, 18777.00
679.8610, 18689.00
681.0200, 18820.00
682.1780, 18864.00
683.3360, 18887.00
684.4940, 18949.00
685.6520, 18965.00
686.8090, 19156.00
687.9670, 19146.00
689.1240, 19160.00
690.2810, 18961.00
691.4380, 19157.00
692.5950, 19186.00
693.7520, 19293.00
694.9080, 19350.00
696.0650, 19446.00
697.2210, 19421.00
698.3770, 19610.00
699.5330, 19524.00
700.6880, 19524.00
701.8440, 19747.00
702.9990, 19778.00
704.1550, 19590.00
705.3100, 19725.00
706.4650, 19700.00
707.6190, 19906.00
708.7740, 19923.00
709.9290, 19854.00
711.0830, 20027.00
712.2370, 19955.00
713.3910, 20044.00
714.5450, 20093.00
715.6980, 20132.59
716.8520, 20203.80
718.0050, 20270.00
719.1580, 20310.00
720.3110, 20361.00
721.4640, 20396.00
722.6170, 20538.00
723.7700, 20398.00
724.9220, 20403.00
726.0740, 20687.00
727.2260, 20659.00
728.3780, 20541.00
729.5300, 20843.00
730.6810, 20863.00
731.8330, 20835.00
732.9840, 20925.00
734.1350, 20909.00
735.2860, 20911.00
736.4370, 20887.00
737.5880, 21001.00
738.7380, 21114.00
739.8880, 21152.02
741.0390, 21257.19
742.1890, 21301.00
743.3380, 21370.00
744.4880, 21446.00
745.6380, 21418.00
746.7870, 21508.00
747.9360, 21603.00
749.0850, 21566.00
750.2340, 21540.00
751.3830, 21682.00
752.5310, 21739.00
753.6800, 21622.00
754.8280, 21843.00
755.9760, 22002.00
757.1240, 21879.00
758.2720, 21951.00
759.4190, 21651.00
760.5670, 22048.00
761.7140, 21928.00
762.8610, 22050.00
764.0080, 22129.00
765.1550, 22156.00
766.3020, 22257.00
767.4480, 22455.00
768.5950, 22422.55
769.7410, 22606.00
770.8870, 22466.00
772.0330, 22564.00
773.1780, 22638.00
774.3240, 22602.00
775.4690, 22635.00
776.6140, 22741.00
777.7590, 22669.00
778.9040, 22660.00
780.0490, 22673.00
781.1940, 22734.18
782.3380, 23056.00
783.4820, 22939.00
784.6260, 23061.00
785.7700, 23179.00
786.9140, 23177.00
788.0580, 23195.00
789.2010, 23149.00
790.3450, 23258.00
791.4880, 23299.00
792.6310, 23351.00
793.7730, 23616.00
794.9160, 23482.00
796.0590, 23610.00
797.2010, 23593.00
798.3430, 23515.00
799.4850, 23895.00
800.6270, 23801.00
801.7690, 23894.00
802.9100, 23944.00
804.0520, 23914.95
805.1930, 24039.00
806.3340, 23970.00
807.4750, 24065.00
808.6160, 24210.00
809.7560, 24194.00
810.8970, 24273.00
812.0370, 24440.00
813.1770, 24275.00
814.3170, 24333.00
815.4570, 24516.00
816.5960, 24399.00
817.7360, 24668.00
818.8750, 24676.00
820.0140, 24580.00
821.1530, 24855.00
822.2920, 24803.00
823.4310, 24750.00
824.5690, 25059.00
825.7070, 24861.00
826.8460, 25060.00
827.9840, 25186.00
829.1220, 25289.00
830.2590, 25339.20
831.3970, 24969.00
832.5340, 25296.00
833.6710, 25332.00
834.8080, 25187.00
835.9450, 25395.00
837.0820, 25516.00
838.2190, 25470.00
839.3550, 25520.00
840.4910, 25451.00
841.6270, 25511.01
842.7630, 25684.00
843.8990, 25688.00
845.0350, 25814.00
846.1700, 26077.00
847.3060, 26042.00
848.4410, 25966.00
849.5760, 25975.00
850.7100, 26240.00
851.8450, 26018.00
852.9800, 25936.00
854.1140, 26137.00
855.2480, 26474.00
856.3820, 26438.00
857.5160, 26373.00
858.6500, 26308.00
859.7830, 26480.00
860.9170, 26786.00
862.0500, 26585.00
863.1830, 26643.00
864.3160, 26598.00
865.4480, 26916.00
866.5810, 26960.00
867.7130, 27087.00
868.8460, 26904.00
869.9780, 27130.00
871.1100, 27014.00
872.2410, 27245.00
873.3730, 27262.00
874.5050, 27121.00
875.6360, 27180.00
876.7670, 27187.64
877.8980, 27522.00
879.0290, 27317.00
880.1590, 27413.00
881.2900, 27554.00
882.4200, 27526.00
883.5500, 27734.00
884.6800, 27705.00
885.8100, 27689.00
886.9400, 27888.00
888.0690, 27959.00
889.1990, 28053.00
890.3280, 27946.00
891.4570, 27833.00
892.5860, 27985.00
893.7140, 28282.00
894.8430, 28294.00
895.9710, 27922.00
897.1000, 28373.00
898.2280, 28165.00
899.3560, 28487.00
900.4830, 28419.00
901.6110, 28368.00
902.7380, 28467.00
903.8660, 28625.00
904.9930, 28692.00
906.1200, 28703.00
907.2460, 28674.00
908.3730, 28707.00
909.5000, 28786.00
910.6260, 28831.00
911.7520, 28975.00
912.8780, 28987.88
914.0040, 29188.00
915.1290, 29054.00
916.2550, 29343.00
917.3800, 29393.00
918.5050, 29180.00
919.6300, 29233.00
920.7550, 29330.00
921.8800, 29445.00
923.0040, 29505.03
924.1290, 29675.00
925.2530, 29636.00
926.3770, 29790.00
927.5010, 29814.00
928.6250, 29908.00
929.7480, 30017.00
930.8720, 29899.00
931.9950, 29921.00
933.1180, 29810.00
934.2410, 29895.00
935.3640, 30102.00
936.4860, 30383.00
937.6090, 30176.00
938.7310, 30170.00
939.8530, 30564.00
940.9750, 30313.00
942.0970, 30583.00
943.2180, 30476.00
944.3400, 30720.00
945.4610, 30696.00
946.5820, 30935.00
947.7030, 30906.00
948.8240, 30857.00
949.9450, 31073.00
951.0650, 31144.00
952.1860, 31061.00
953.3060, 31090.00
954.4260, 31328.00
955.5460, 31521.00
956.6650, 31431.00
957.7850, 31681.00
958.9040, 31898.00
960.0230, 32154.00
961.1420, 32671.00
962.2610, 33261.00
963.3800, 33810.00
964.4990, 33986.00
965.6170, 33771.00
966.7350, 33403.00
967.8530, 32834.00
968.9710, 32400.00
970.0890, 32332.00
971.2070, 32113.00
972.3240, 32355.00
973.4410, 32195.00
974.5580, 32278.00
975.6750, 32351.00
976.7920, 32143.00
977.9090, 32659.00
979.0250, 32277.00
980.1410, 32288.00
981.2580, 32469.00
982.3740, 32784.00
983.4890, 32510.00
984.6050, 32728.00
985.7200, 32638.00
986.8360, 32736.00
987.9510, 32717.00
989.0660, 32917.00
990.1810, 33002.00
991.2950, 33075.00
992.4100, 33000.00
993.5240, 32967.00
994.6390, 33113.00
995.7530, 33082.00
996.8660, 33323.00
997.9800, 33489.00
999.0940, 33281.00
1000.207, 33403.00
1001.320, 33594.00
1002.433, 33497.00
1003.546, 33365.00
1004.659, 33889.00
1005.772, 33570.00
1006.884, 33832.00
1007.996, 33970.00
1009.108, 34028.00
1010.220, 34186.00
1011.332, 34075.00
1012.444, 34082.00
1013.555, 34309.00
1014.666, 34069.00
1015.777, 34242.00
1016.888, 34146.00
1017.999, 34278.00
1019.110, 34571.00
1020.220, 34509.00
1021.331, 34516.00
1022.441, 34774.00
1023.551, 34454.00
1024.661, 34803.00
1025.770, 34650.00
1026.880, 34796.00
1027.989, 34788.00
1029.098, 34730.00
1030.207, 35180.00
1031.316, 34935.00
1032.425, 35141.00
1033.533, 35298.00
1034.642, 35162.00
1035.750, 35424.00
1036.858, 35231.00
1037.966, 35514.00
1039.073, 35639.00
1040.181, 35693.00
1041.288, 35760.00
1042.396, 35608.00
1043.503, 35577.00
1044.610, 35653.00
1045.716, 35590.23
1046.823, 35726.90
1047.929, 35637.00
1049.036, 35956.00
1050.142, 36049.00
1051.248, 36100.00
1052.353, 36447.00
1053.459, 36420.00
1054.564, 36312.00
1055.670, 36418.00
1056.775, 36178.00
1057.880, 36450.00
1058.985, 36521.00
1060.089, 36682.00
1061.194, 36606.00
1062.298, 36833.00
1063.402, 36629.00
1064.506, 37128.00
1065.610, 36896.00
1066.713, 37067.00
1067.817, 37130.00
1068.920, 37058.00
1070.023, 37144.00
1071.126, 37136.00
1072.229, 37268.00
1073.332, 37522.00
1074.435, 37485.00
1075.537, 37401.00
1076.639, 37242.00
1077.741, 37487.00
1078.843, 37400.00
1079.945, 37767.00
1081.046, 37717.00
1082.148, 37791.00
1083.249, 38140.00
1084.350, 37892.00
1085.451, 37948.00
1086.551, 38029.00
1087.652, 38060.00
1088.752, 38255.00
1089.853, 38217.00
1090.953, 38346.59
1092.053, 38384.00
1093.152, 38465.00
1094.252, 38494.09
1095.351, 38536.19
1096.451, 38479.00
1097.550, 38569.00
1098.649, 38478.00
1099.748, 38415.00
1100.846, 38782.00
1101.945, 38977.00
1103.043, 38634.00
1104.141, 38911.00
1105.239, 38846.00
1106.337, 38922.00
1107.434, 39003.00
1108.532, 39157.00
1109.629, 39077.00
1110.726, 39386.00
1111.823, 39430.00
1112.920, 39288.00
1114.017, 39783.00
1115.113, 39561.00
1116.210, 39599.00
1117.306, 39586.00
1118.402, 39665.00
1119.498, 39527.00
1120.593, 39545.00
1121.689, 39793.00
1122.784, 39795.00
1123.879, 40187.00
1124.974, 39974.00
1126.069, 39765.00
1127.164, 40010.00
1128.259, 40256.00
1129.353, 40001.00
1130.447, 40235.00
1131.541, 40124.00
1132.635, 40328.00
1133.729, 40375.00
1134.822, 40474.00
1135.916, 40544.55
1137.009, 40569.00
1138.102, 40677.00
1139.195, 40734.00
1140.288, 40912.00
1141.380, 40791.00
1142.473, 40934.00
1143.565, 41175.00
1144.657, 40973.00
1145.749, 41120.00
1146.841, 41141.00
1147.932, 41189.00
1149.024, 41193.00
1150.115, 41080.00
1151.206, 41202.00
1152.297, 41370.00
1153.388, 41330.00
1154.479, 41578.00
1155.569, 41436.00
1156.659, 41615.00
1157.750, 41668.00
1158.839, 41934.00
1159.929, 41961.00
1161.019, 41743.00
1162.108, 41748.00
1163.198, 41768.00
1164.287, 41940.00
1165.376, 41988.00
1166.465, 42241.00
1167.553, 42184.00
1168.642, 42258.00
1169.730, 42350.00
1170.818, 42347.00
1171.906, 42616.00
1172.994, 42616.00
1174.082, 42672.00
1175.170, 42741.00
1176.257, 42692.00
1177.344, 42879.00
1178.431, 42708.00
1179.518, 42857.00
1180.605, 43047.00
1181.691, 42828.00
1182.778, 42914.00
1183.864, 43302.00
1184.950, 42910.00
1186.036, 43249.00
1187.122, 43090.00
1188.207, 43198.00
1189.292, 43285.00
1190.378, 43575.00
1191.463, 43544.00
1192.548, 43538.00
1193.632, 43667.00
1194.717, 43702.00
1195.801, 43703.00
1196.886, 43459.00
1197.970, 43747.00
1199.054, 43785.00
1200.137, 44047.00
1201.221, 44167.00
1202.305, 44013.00
1203.388, 44035.00
1204.471, 44192.00
1205.554, 44186.00
1206.637, 44407.00
1207.719, 44331.00
1208.802, 44507.00
1209.884, 44308.00
1210.966, 44574.00
1212.048, 44397.00
1213.130, 44617.00
1214.212, 44512.00
1215.293, 44628.00
1216.374, 44979.00
1217.456, 44948.00
1218.536, 45053.74
1219.617, 45031.00
1220.698, 45011.00
1221.778, 45271.00
1222.859, 45129.00
1223.939, 45367.00
1225.019, 45416.00
1226.099, 45189.00
1227.178, 45442.00
1228.258, 45585.00
1229.337, 45460.00
1230.417, 45615.00
1231.496, 45500.00
1232.574, 45612.00
1233.653, 45628.00
1234.732, 45669.00
1235.810, 45957.00
1236.888, 45754.00
1237.966, 45893.41
1239.044, 46015.00
1240.122, 45919.00
1241.199, 46041.00
1242.277, 46026.00
1243.354, 46253.00
1244.431, 46124.00
1245.508, 46323.00
1246.585, 46311.00
1247.661, 46248.00
1248.738, 46604.00
1249.814, 46512.00
1250.890, 46799.00
1251.966, 46619.00
1253.042, 46656.00
1254.117, 46823.00
1255.193, 46751.00
1256.268, 47013.00
1257.343, 46712.00
1258.418, 47126.00
1259.493, 47119.00
1260.567, 46990.00
1261.642, 47179.00
1262.716, 47001.00
1263.790, 47111.00
1264.864, 47274.00
1265.938, 47199.00
1267.011, 47067.00
1268.085, 47696.00
1269.158, 47395.00
1270.231, 47544.00
1271.304, 47337.00
1272.377, 47505.00
1273.450, 47400.00
1274.522, 47675.00
1275.594, 47472.00
1276.666, 47800.00
1277.738, 47597.00
1278.810, 47603.00
1279.882, 48073.00
1280.953, 47753.00
1282.025, 47909.00
1283.096, 47685.00
1284.167, 47936.00
1285.238, 48033.00
1286.308, 48275.00
1287.379, 48339.00
1288.449, 48573.00
1289.519, 48407.00
1290.589, 48566.00
1291.659, 48631.00
1292.729, 48670.00
1293.798, 48839.00
1294.868, 48873.00
1295.937, 48669.00
1297.006, 49147.00
1298.075, 48938.00
1299.143, 48674.00
1300.212, 49176.00
1301.280, 49161.00
1302.348, 49348.00
1303.416, 49004.00
1304.484, 49451.00
1305.552, 49383.00
1306.620, 49484.00
1307.687, 49491.00
1308.754, 49296.00
1309.821, 49719.00
1310.888, 49763.00
1311.955, 49562.00
1313.021, 49646.00
1314.088, 49754.00
1315.154, 49774.00
1316.220, 49546.00
1317.286, 50079.00
1318.352, 49774.00
1319.417, 50074.00
1320.483, 50038.00
1321.548, 50008.00
1322.613, 50187.00
1323.678, 49997.00
1324.743, 50299.00
1325.807, 50143.00
1326.872, 50433.00
1327.936, 50246.00
1329.000, 50473.00
1330.064, 50680.00
1331.128, 50444.00
1332.191, 50782.00
1333.255, 50834.00
1334.318, 50733.00
1335.381, 50809.00
1336.444, 50831.64
1337.507, 50827.00
1338.569, 50981.00
1339.632, 51054.00
1340.694, 51224.00
1341.756, 51079.00
1342.818, 51434.00
1343.880, 51108.00
1344.941, 51424.00
1346.003, 51427.00
1347.064, 51321.00
1348.125, 51172.00
1349.186, 51389.00
1350.247, 51359.00
1351.308, 51280.00
1352.368, 52007.00
1353.428, 51894.00
1354.489, 51747.00
1355.549, 52162.00
1356.608, 51813.00
1357.668, 51922.00
1358.727, 52081.00
1359.787, 52094.00
1360.846, 52021.00
1361.905, 52087.00
1362.964, 51977.00
1364.022, 52184.00
1365.081, 52171.00
1366.139, 52298.00
1367.197, 52263.00
1368.255, 52593.00
1369.313, 52530.00
1370.371, 52663.00
1371.428, 52466.00
1372.486, 52619.00
1373.543, 52844.00
1374.600, 52555.00
1375.657, 52773.00
1376.713, 52863.00
1377.770, 52559.00
1378.826, 53011.00
1379.882, 53129.00
1380.938, 52991.00
1381.994, 52771.00
1383.050, 52725.00
1384.106, 53164.00
1385.161, 53389.00
1386.216, 53255.00
1387.271, 53162.00
1388.326, 53262.00
1389.381, 53327.00
1390.435, 53617.00
1391.490, 53615.00
1392.544, 53510.00
1393.598, 53820.00
1394.652, 53554.00
1395.705, 53888.00
1396.759, 53656.00
1397.812, 53931.00
1398.866, 54199.00
1399.919, 53716.00
1400.972, 54008.00
1402.024, 53614.00
1403.077, 54327.00
1404.129, 54172.00
1405.181, 54094.00
1406.233, 54005.00
1407.285, 54170.00
1408.337, 54351.00
1409.389, 54169.00
1410.440, 54425.00
1411.491, 54735.00
1412.542, 54310.00
1413.593, 54831.00
1414.644, 54443.00
1415.695, 54816.00
1416.745, 54467.00
1417.795, 54566.00
1418.845, 54605.00
1419.895, 54756.00
1420.945, 54753.00
1421.995, 54979.00
1423.044, 54971.00
1424.093, 55080.00
1425.142, 55151.00
1426.191, 54995.00
1427.240, 55045.00
1428.289, 55117.00
1429.337, 55348.00
1430.385, 55171.00
1431.433, 55329.00
1432.481, 55366.00
1433.529, 55627.00
1434.577, 55425.00
1435.624, 55427.00
1436.672, 55714.00
1437.719, 55655.00
1438.766, 55770.00
1439.812, 55653.00
1440.859, 55860.00
1441.905, 55754.00
1442.952, 55697.00
1443.998, 55957.00
1445.044, 55971.00
1446.090, 56086.00
1447.135, 56185.00
1448.181, 55959.00
1449.226, 56091.00
1450.271, 56132.00
1451.316, 56303.00
1452.361, 56310.00
1453.405, 56243.00
1454.450, 56093.00
1455.494, 56381.00
1456.538, 56589.00
1457.582, 56299.00
1458.626, 56722.00
1459.670, 56716.00
1460.713, 56694.00
1461.757, 56610.00
1462.800, 56829.00
1463.843, 56664.00
1464.886, 56729.00
1465.928, 56959.00
1466.971, 57085.00
1468.013, 57054.00
1469.055, 57156.00
1470.097, 57138.00
1471.139, 57102.00
1472.181, 57148.00
1473.222, 57198.53
1474.263, 57125.00
1475.305, 57366.00
1476.346, 57610.00
1477.386, 57698.00
1478.427, 57607.00
1479.468, 57499.00
1480.508, 58109.00
1481.548, 57404.00
1482.588, 57812.00
1483.628, 57816.00
1484.668, 57304.00
1485.707, 57955.00
1486.747, 57935.00
1487.786, 57639.00
1488.825, 57620.00
1489.864, 58054.00
1490.902, 57925.00
1491.941, 57748.00
1492.979, 58222.00
1494.017, 58157.00
1495.055, 58363.00
1496.093, 58110.00
1497.131, 58021.00
1498.168, 58310.00
1499.206, 58259.00
1500.243, 58327.00
1501.280, 58635.00
1502.317, 58646.00
1503.354, 58484.00
1504.390, 58744.00
1505.426, 58372.00
1506.463, 58749.00
1507.499, 58752.00
1508.535, 58735.00
1509.570, 58755.00
1510.606, 58779.21
1511.641, 59046.00
1512.676, 58861.00
1513.711, 58841.00
1514.746, 58896.00
1515.781, 59353.00
1516.816, 58931.00
1517.850, 59220.00
1518.884, 59231.00
1519.918, 59107.00
1520.952, 59464.00
1521.986, 59219.00
1523.019, 59063.00
1524.053, 59511.00
1525.086, 59434.00
1526.119, 59520.00
1527.152, 59552.00
1528.185, 59673.00
1529.217, 59913.00
1530.250, 59710.00
1531.282, 59832.00
1532.314, 60068.00
1533.346, 59756.00
1534.377, 59781.00
1535.409, 60160.00
1536.440, 59964.00
1537.472, 59995.00
1538.503, 59958.00
1539.534, 60113.00
1540.564, 59926.00
1541.595, 60447.00
1542.625, 60190.00
1543.656, 60291.00
1544.686, 60231.00
1545.716, 60029.00
1546.745, 60472.00
1547.775, 60395.00
1548.804, 60068.00
1549.834, 60332.00
1550.863, 60525.00
1551.892, 60713.00
1552.920, 60707.00
1553.949, 60838.00
1554.977, 60659.00
1556.006, 60753.00
1557.034, 60700.00
1558.062, 60729.00
1559.089, 60880.00
1560.117, 60830.00
1561.144, 60818.00
1562.172, 60846.00
1563.199, 61025.00
1564.226, 61015.00
1565.252, 61181.00
1566.279, 61266.00
1567.305, 61109.00
1568.332, 61077.00
1569.358, 61251.00
1570.384, 61254.00
1571.409, 61801.00
##END=



