##NAMES=Fluorapophyllite-(K)
##RRUFFID=R060554
##IDEAL CHEMISTRY=KCa_4_Si_8_O_20_F&#183;8H_2_O
##LOCALITY=unknown
##OWNER=RRUFF
##SOURCE=Gemological Institute of America
##DESCRIPTION=Colorless polished fragment
##STATUS=The identification of this mineral has been confirmed by X-ray diffraction and chemical analysis
##URL=rruff.info/R060554
##MEASURED CHEMISTRY=(K_0.88_Na_0.12_)Ca_4.00_Si_8.00_O_20_F_1.00_Â·8H2O
##PIN_ID=L01258
##ORIENTATION=Laser parallel to c* (0 0 1). Fiducial mark perpendicular to laser is parallel to a [1 0 0]
53.91000, 567.0000
55.14900, 561.0000
56.38700, 570.0000
57.62600, 573.0000
58.86400, 583.0000
60.10300, 614.0000
61.34100, 661.0000
62.57900, 672.0000
63.81700, 738.0000
65.05400, 774.0000
66.29200, 867.0000
67.52900, 989.0000
68.76700, 1214.000
70.00400, 1478.000
71.24100, 1656.000
72.47700, 1967.000
73.71400, 2419.000
74.95100, 3095.000
76.18700, 3997.000
77.42300, 4869.000
78.65900, 6164.000
79.89500, 7839.000
81.13100, 9949.000
82.36700, 12299.00
83.60200, 14986.00
84.83700, 17840.00
86.07200, 20795.00
87.30800, 23264.00
88.54200, 25111.00
89.77700, 26015.00
91.01200, 26022.00
92.24600, 24915.00
93.48000, 23314.00
94.71400, 21997.00
95.94800, 21030.00
97.18200, 20638.00
98.41600, 20874.00
99.64900, 21097.00
100.8830, 22573.00
102.1160, 25704.00
103.3490, 29821.00
104.5820, 34474.00
105.8150, 37939.00
107.0470, 39216.00
108.2800, 38359.00
109.5120, 34191.00
110.7440, 28236.00
111.9760, 23648.00
113.2080, 20697.00
114.4400, 18699.00
115.6710, 17757.00
116.9030, 17504.00
118.1340, 18104.00
119.3650, 19237.00
120.5960, 20878.00
121.8270, 21952.00
123.0580, 22575.00
124.2880, 22671.00
125.5190, 22396.00
126.7490, 21920.00
127.9790, 21449.00
129.2090, 21005.00
130.4390, 20494.00
131.6680, 19240.00
132.8980, 17902.00
134.1270, 15903.00
135.3560, 13902.00
136.5850, 12154.00
137.8140, 10793.00
139.0430, 10063.00
140.2710, 9456.000
141.5000, 9179.000
142.7280, 9100.545
143.9560, 9168.000
145.1840, 9654.000
146.4120, 10306.00
147.6390, 11161.00
148.8670, 12519.00
150.0940, 14356.00
151.3210, 16328.00
152.5490, 18220.00
153.7750, 20119.00
155.0020, 22791.00
156.2290, 26118.00
157.4550, 29545.00
158.6810, 32737.00
159.9080, 34952.00
161.1340, 35417.00
162.3590, 34396.00
163.5850, 31404.00
164.8110, 27672.00
166.0360, 23762.00
167.2610, 20256.00
168.4860, 17483.00
169.7110, 15391.00
170.9360, 14570.00
172.1610, 14277.00
173.3850, 14748.00
174.6100, 15644.14
175.8340, 17175.27
177.0580, 19247.00
178.2820, 21957.00
179.5050, 25128.00
180.7290, 28954.00
181.9520, 32891.00
183.1760, 35853.00
184.3990, 36891.00
185.6220, 36979.00
186.8450, 34920.00
188.0670, 32108.00
189.2900, 28901.00
190.5120, 26404.00
191.7340, 24468.00
192.9560, 23528.00
194.1780, 23349.00
195.4000, 23999.00
196.6220, 25729.00
197.8430, 27947.00
199.0640, 30986.00
200.2860, 34291.00
201.5070, 38668.00
202.7270, 43259.00
203.9480, 48359.00
205.1690, 53871.00
206.3890, 59204.00
207.6090, 63065.00
208.8290, 65535.00
210.0490, 65528.00
211.2690, 63968.00
212.4890, 60288.00
213.7080, 56600.00
214.9280, 52505.00
216.1470, 48305.00
217.3660, 45092.00
218.5850, 42612.00
219.8030, 40533.00
221.0220, 39890.00
222.2400, 39224.00
223.4590, 38578.00
224.6770, 38183.00
225.8950, 37469.00
227.1120, 36323.00
228.3300, 34943.00
229.5480, 32598.00
230.7650, 29968.00
231.9820, 27663.00
233.1990, 24529.00
234.4160, 21791.00
235.6330, 19428.00
236.8490, 17474.00
238.0660, 15586.00
239.2820, 13947.00
240.4980, 12835.00
241.7140, 11809.00
242.9300, 11160.00
244.1460, 10352.00
245.3610, 9732.000
246.5770, 9437.000
247.7920, 9185.000
249.0070, 9029.000
250.2220, 8746.000
251.4370, 8813.000
252.6510, 8780.000
253.8660, 9005.000
255.0800, 9321.000
256.2940, 9712.000
257.5080, 10472.00
258.7220, 10828.92
259.9360, 11580.00
261.1490, 11878.00
262.3630, 12617.00
263.5760, 13205.00
264.7890, 13653.00
266.0020, 14023.00
267.2150, 13744.00
268.4270, 13460.00
269.6400, 12818.00
270.8520, 11997.00
272.0640, 11420.00
273.2760, 10836.00
274.4880, 10370.00
275.7000, 10116.00
276.9120, 9988.187
278.1230, 10008.00
279.3340, 10211.00
280.5450, 10534.00
281.7560, 11006.63
282.9670, 11731.00
284.1780, 12483.00
285.3880, 13473.00
286.5980, 14643.00
287.8090, 16065.00
289.0190, 17590.00
290.2290, 19259.00
291.4380, 20942.00
292.6480, 22694.00
293.8570, 24305.00
295.0670, 25325.00
296.2760, 26241.00
297.4850, 26063.00
298.6930, 25468.00
299.9020, 23953.00
301.1110, 22175.00
302.3190, 20338.00
303.5270, 18231.00
304.7350, 16601.00
305.9430, 15104.00
307.1510, 14031.00
308.3580, 13020.00
309.5660, 12151.00
310.7730, 11502.00
311.9800, 11070.00
313.1870, 10720.00
314.3940, 10626.00
315.6010, 10435.00
316.8070, 10313.00
318.0130, 10415.00
319.2200, 10428.00
320.4260, 10643.00
321.6310, 10952.00
322.8370, 11339.00
324.0430, 11771.00
325.2480, 12204.00
326.4540, 12495.00
327.6590, 13055.00
328.8640, 13638.00
330.0680, 14357.00
331.2730, 14814.00
332.4780, 15435.00
333.6820, 15689.00
334.8860, 16104.00
336.0900, 16185.00
337.2940, 16102.00
338.4980, 15656.00
339.7010, 14799.00
340.9050, 14254.00
342.1080, 13212.00
343.3110, 12374.00
344.5140, 11511.00
345.7170, 10493.00
346.9200, 9762.000
348.1220, 8990.000
349.3240, 8641.000
350.5270, 9031.000
351.7290, 7647.000
352.9310, 9131.000
354.1320, 8251.000
355.3340, 7735.944
356.5350, 7906.000
357.7370, 6624.000
358.9380, 6392.000
360.1390, 6435.000
361.3400, 6429.000
362.5400, 6440.000
363.7410, 6482.000
364.9410, 6634.000
366.1410, 6739.000
367.3410, 6801.000
368.5410, 6862.000
369.7410, 6804.000
370.9400, 6849.000
372.1400, 6821.000
373.3390, 6732.000
374.5380, 6557.000
375.7370, 6310.000
376.9360, 6244.000
378.1350, 5919.000
379.3330, 5722.000
380.5310, 5727.000
381.7300, 5533.000
382.9280, 5460.000
384.1260, 5456.000
385.3230, 5547.000
386.5210, 5570.000
387.7180, 5612.000
388.9160, 5686.248
390.1130, 5710.000
391.3100, 5833.000
392.5060, 5924.000
393.7030, 6035.000
394.9000, 6069.000
396.0960, 6151.000
397.2920, 6243.987
398.4880, 6349.000
399.6840, 6415.000
400.8800, 6468.000
402.0750, 6520.000
403.2710, 6593.000
404.4660, 6660.000
405.6610, 6663.000
406.8560, 6716.000
408.0510, 6879.000
409.2450, 6922.000
410.4400, 7085.000
411.6340, 7309.000
412.8280, 7488.000
414.0220, 7786.000
415.2160, 8177.000
416.4100, 8725.000
417.6030, 9493.000
418.7970, 10518.00
419.9900, 11806.00
421.1830, 13743.00
422.3760, 16183.00
423.5690, 18840.00
424.7610, 21592.00
425.9540, 25070.00
427.1460, 29245.00
428.3380, 34150.00
429.5300, 37846.00
430.7220, 40256.00
431.9140, 40061.00
433.1050, 37356.00
434.2970, 33085.00
435.4880, 27905.00
436.6790, 23177.00
437.8700, 19069.00
439.0610, 15954.00
440.2510, 13727.00
441.4420, 12062.00
442.6320, 11063.00
443.8220, 10242.00
445.0120, 9653.000
446.2020, 9177.000
447.3910, 8825.000
448.5810, 8655.000
449.7700, 8581.000
450.9600, 8598.000
452.1490, 8538.000
453.3370, 8803.000
454.5260, 8910.000
455.7150, 9333.000
456.9030, 9607.000
458.0910, 9952.000
459.2800, 10280.00
460.4670, 10423.00
461.6550, 10506.00
462.8430, 10449.00
464.0300, 10352.00
465.2180, 10239.00
466.4050, 9784.000
467.5920, 9392.000
468.7790, 8903.000
469.9650, 8667.000
471.1520, 8270.000
472.3380, 7971.000
473.5250, 7962.000
474.7110, 7827.000
475.8970, 7819.000
477.0820, 7895.000
478.2680, 8024.000
479.4540, 8234.000
480.6390, 8511.000
481.8240, 8751.000
483.0090, 8746.000
484.1940, 8756.000
485.3780, 8554.000
486.5630, 8302.000
487.7470, 8213.000
488.9320, 7911.000
490.1160, 7609.000
491.3000, 7368.000
492.4830, 7159.000
493.6670, 7070.000
494.8500, 6905.000
496.0340, 6956.000
497.2170, 6769.000
498.4000, 6925.000
499.5820, 6840.000
500.7650, 6913.000
501.9480, 6721.000
503.1300, 6900.000
504.3120, 6895.000
505.4940, 6957.000
506.6760, 7015.000
507.8580, 7101.000
509.0390, 7146.000
510.2210, 7211.000
511.4020, 7150.000
512.5830, 7310.000
513.7640, 7388.000
514.9450, 7417.000
516.1250, 7559.000
517.3060, 7672.560
518.4860, 7875.000
519.6660, 7991.000
520.8460, 8167.000
522.0260, 8369.000
523.2060, 8702.000
524.3850, 8927.000
525.5650, 9345.000
526.7440, 9583.000
527.9230, 9937.000
529.1020, 10313.00
530.2810, 10843.00
531.4590, 10965.00
532.6380, 11566.00
533.8160, 11716.00
534.9940, 12045.00
536.1720, 12227.00
537.3500, 12523.00
538.5270, 12485.00
539.7050, 12565.00
540.8820, 12489.00
542.0590, 12312.00
543.2360, 12410.00
544.4130, 12387.00
545.5900, 12353.00
546.7660, 12157.00
547.9430, 12219.00
549.1190, 12325.00
550.2950, 12639.00
551.4710, 12732.00
552.6470, 13027.00
553.8220, 12988.00
554.9980, 13061.00
556.1730, 13148.00
557.3480, 13477.00
558.5230, 13667.00
559.6980, 14038.00
560.8730, 14577.00
562.0470, 15096.00
563.2220, 15655.00
564.3960, 16325.00
565.5700, 17113.00
566.7440, 17988.00
567.9170, 18900.00
569.0910, 20100.00
570.2640, 21410.00
571.4380, 22544.00
572.6110, 24226.00
573.7840, 26004.00
574.9570, 27745.00
576.1290, 29380.00
577.3020, 31088.00
578.4740, 32407.00
579.6460, 33756.00
580.8180, 34607.00
581.9900, 35141.00
583.1620, 35155.00
584.3330, 34245.00
585.5040, 33402.00
586.6760, 31853.00
587.8470, 30187.00
589.0180, 28518.00
590.1880, 26199.00
591.3590, 24433.00
592.5290, 22766.00
593.7000, 20906.00
594.8700, 19645.00
596.0400, 18309.00
597.2090, 17089.00
598.3790, 16215.00
599.5490, 15395.00
600.7180, 14805.00
601.8870, 14192.00
603.0560, 13700.32
604.2250, 13286.00
605.3940, 12940.00
606.5620, 12668.00
607.7300, 12432.00
608.8990, 12284.00
610.0670, 12141.00
611.2350, 11924.00
612.4020, 11821.00
613.5700, 11925.00
614.7370, 11795.00
615.9050, 11879.00
617.0720, 11884.00
618.2390, 11928.00
619.4060, 11909.00
620.5720, 12070.00
621.7390, 12047.00
622.9050, 12191.00
624.0710, 12198.00
625.2370, 12206.00
626.4030, 12353.00
627.5690, 12399.00
628.7340, 12579.00
629.9000, 12540.00
631.0650, 12698.00
632.2300, 12860.00
633.3950, 13065.00
634.5600, 13087.00
635.7240, 13435.00
636.8890, 13555.00
638.0530, 13645.00
639.2170, 14202.00
640.3810, 14480.00
641.5450, 14829.00
642.7080, 15319.00
643.8720, 15630.00
645.0350, 16499.00
646.1980, 16872.00
647.3610, 17876.00
648.5240, 18525.00
649.6870, 19446.00
650.8490, 20411.00
652.0120, 21330.00
653.1740, 22227.00
654.3360, 23178.00
655.4980, 24462.00
656.6600, 25310.00
657.8210, 26238.00
658.9830, 26715.00
660.1440, 27258.00
661.3050, 27613.00
662.4660, 27607.00
663.6270, 27446.00
664.7870, 26820.00
665.9480, 26027.00
667.1080, 24989.00
668.2680, 24149.00
669.4280, 22828.00
670.5880, 21647.00
671.7480, 20286.00
672.9070, 19023.00
674.0670, 18054.00
675.2260, 16868.00
676.3850, 15782.00
677.5440, 14929.00
678.7030, 14076.00
679.8610, 13341.00
681.0200, 12593.00
682.1780, 12099.00
683.3360, 11509.00
684.4940, 11006.00
685.6520, 10402.00
686.8090, 10009.00
687.9670, 9745.000
689.1240, 9383.000
690.2810, 9200.000
691.4380, 8756.000
692.5950, 8515.000
693.7520, 8343.000
694.9080, 8037.000
696.0650, 7891.000
697.2210, 7826.000
698.3770, 7661.000
699.5330, 7377.000
700.6880, 7237.000
701.8440, 7101.000
702.9990, 7080.000
704.1550, 6956.000
705.3100, 6880.000
706.4650, 6831.000
707.6190, 6769.000
708.7740, 6786.000
709.9290, 6631.000
711.0830, 6592.000
712.2370, 6649.000
713.3910, 6465.000
714.5450, 6464.000
715.6980, 6565.000
716.8520, 6409.000
718.0050, 6463.000
719.1580, 6341.000
720.3110, 6407.000
721.4640, 6393.000
722.6170, 6368.000
723.7700, 6282.000
724.9220, 6269.000
726.0740, 6231.000
727.2260, 6248.000
728.3780, 6300.000
729.5300, 6280.000
730.6810, 6221.000
731.8330, 6280.000
732.9840, 6215.000
734.1350, 6232.000
735.2860, 6186.000
736.4370, 6175.000
737.5880, 6243.000
738.7380, 6134.000
739.8880, 6095.000
741.0390, 6227.000
742.1890, 6331.000
743.3380, 6314.000
744.4880, 6404.000
745.6380, 6452.000
746.7870, 6426.000
747.9360, 6494.000
749.0850, 6631.000
750.2340, 6578.000
751.3830, 6875.000
752.5310, 6890.000
753.6800, 7163.000
754.8280, 7310.000
755.9760, 7606.000
757.1240, 7853.000
758.2720, 7968.000
759.4190, 8507.000
760.5670, 8571.000
761.7140, 8889.000
762.8610, 9092.000
764.0080, 9239.000
765.1550, 9333.467
766.3020, 9346.055
767.4480, 9303.000
768.5950, 9191.000
769.7410, 9006.405
770.8870, 8767.000
772.0330, 8559.000
773.1780, 8318.000
774.3240, 8062.000
775.4690, 7944.000
776.6140, 7841.000
777.7590, 8033.000
778.9040, 8079.000
780.0490, 8246.000
781.1940, 8428.000
782.3380, 8652.882
783.4820, 8891.000
784.6260, 9274.000
785.7700, 9557.000
786.9140, 10007.00
788.0580, 10386.00
789.2010, 10664.00
790.3450, 10755.00
791.4880, 10627.00
792.6310, 10238.00
793.7730, 9932.000
794.9160, 9454.000
796.0590, 9014.000
797.2010, 8468.000
798.3430, 8128.000
799.4850, 7946.000
800.6270, 7623.000
801.7690, 7499.000
802.9100, 7334.000
804.0520, 7271.000
805.1930, 7114.000
806.3340, 7101.000
807.4750, 7090.000
808.6160, 7086.000
809.7560, 7061.000
810.8970, 7086.000
812.0370, 7023.000
813.1770, 7144.000
814.3170, 7216.000
815.4570, 7125.000
816.5960, 7275.000
817.7360, 7188.000
818.8750, 7291.000
820.0140, 7445.000
821.1530, 7388.000
822.2920, 7449.000
823.4310, 7599.000
824.5690, 7662.000
825.7070, 7656.000
826.8460, 7849.000
827.9840, 7799.000
829.1220, 8005.000
830.2590, 8009.000
831.3970, 8123.000
832.5340, 8260.000
833.6710, 8219.000
834.8080, 8315.000
835.9450, 8218.000
837.0820, 8350.000
838.2190, 8357.000
839.3550, 8380.000
840.4910, 8306.000
841.6270, 8531.000
842.7630, 8578.000
843.8990, 8329.000
845.0350, 8217.000
846.1700, 8358.000
847.3060, 8274.000
848.4410, 8143.000
849.5760, 8127.000
850.7100, 8169.000
851.8450, 7999.000
852.9800, 8049.000
854.1140, 7959.000
855.2480, 7945.000
856.3820, 7947.000
857.5160, 7718.000
858.6500, 7630.000
859.7830, 7672.000
860.9170, 7526.000
862.0500, 7622.000
863.1830, 7519.000
864.3160, 7467.000
865.4480, 7403.000
866.5810, 7335.000
867.7130, 7277.000
868.8460, 7209.000
869.9780, 7204.000
871.1100, 7193.000
872.2410, 7160.000
873.3730, 7146.707
874.5050, 7048.000
875.6360, 7074.000
876.7670, 7041.778
877.8980, 7107.000
879.0290, 7063.000
880.1590, 7006.000
881.2900, 7084.000
882.4200, 7021.000
883.5500, 7049.000
884.6800, 7005.000
885.8100, 7067.000
886.9400, 7070.000
888.0690, 7046.000
889.1990, 7053.000
890.3280, 7043.000
891.4570, 7003.000
892.5860, 7015.000
893.7140, 6974.000
894.8430, 7050.000
895.9710, 7048.000
897.1000, 6981.000
898.2280, 7031.000
899.3560, 6950.000
900.4830, 7068.000
901.6110, 6955.000
902.7380, 6944.000
903.8660, 6918.000
904.9930, 6962.000
906.1200, 6816.000
907.2460, 6892.000
908.3730, 6831.000
909.5000, 6809.000
910.6260, 6796.000
911.7520, 6849.000
912.8780, 6737.000
914.0040, 6680.000
915.1290, 6745.000
916.2550, 6777.000
917.3800, 6631.000
918.5050, 6822.000
919.6300, 6714.000
920.7550, 6681.000
921.8800, 6669.000
923.0040, 6697.000
924.1290, 6612.000
925.2530, 6742.000
926.3770, 6670.000
927.5010, 6700.000
928.6250, 6665.000
929.7480, 6689.000
930.8720, 6631.000
931.9950, 6716.000
933.1180, 6722.000
934.2410, 6703.000
935.3640, 6649.000
936.4860, 6711.000
937.6090, 6709.000
938.7310, 6741.000
939.8530, 6795.000
940.9750, 6771.000
942.0970, 6737.000
943.2180, 6821.000
944.3400, 6805.373
945.4610, 6914.000
946.5820, 6858.000
947.7030, 6989.000
948.8240, 7021.000
949.9450, 6979.000
951.0650, 7056.000
952.1860, 7018.000
953.3060, 7212.000
954.4260, 7103.000
955.5460, 7174.000
956.6650, 7120.000
957.7850, 7244.000
958.9040, 7298.000
960.0230, 7292.000
961.1420, 7364.000
962.2610, 7492.000
963.3800, 7588.000
964.4990, 7679.000
965.6170, 7856.000
966.7350, 7963.000
967.8530, 8119.000
968.9710, 8278.000
970.0890, 8286.000
971.2070, 8266.000
972.3240, 8142.000
973.4410, 7990.000
974.5580, 7883.000
975.6750, 7606.000
976.7920, 7580.000
977.9090, 7529.000
979.0250, 7446.000
980.1410, 7483.000
981.2580, 7572.000
982.3740, 7501.000
983.4890, 7539.000
984.6050, 7623.000
985.7200, 7562.000
986.8360, 7766.000
987.9510, 7782.000
989.0660, 7961.000
990.1810, 8020.000
991.2950, 8104.000
992.4100, 8225.000
993.5240, 8368.689
994.6390, 8525.000
995.7530, 8770.000
996.8660, 9039.000
997.9800, 9365.000
999.0940, 9626.000
1000.207, 9903.000
1001.320, 10486.00
1002.433, 10680.00
1003.546, 11205.00
1004.659, 11178.00
1005.772, 11483.00
1006.884, 11417.00
1007.996, 11121.00
1009.108, 10899.00
1010.220, 10582.00
1011.332, 10155.00
1012.444, 9782.000
1013.555, 9393.000
1014.666, 9164.876
1015.777, 8957.000
1016.888, 8835.000
1017.999, 8764.000
1019.110, 8750.065
1020.220, 8716.491
1021.331, 8720.000
1022.441, 8739.000
1023.551, 8740.000
1024.661, 8849.179
1025.770, 9020.000
1026.880, 9106.000
1027.989, 9281.000
1029.098, 9454.000
1030.207, 9644.000
1031.316, 9925.023
1032.425, 10292.00
1033.533, 10544.00
1034.642, 10966.00
1035.750, 11325.00
1036.858, 11629.00
1037.966, 12159.00
1039.073, 12557.00
1040.181, 13171.00
1041.288, 13794.00
1042.396, 14516.00
1043.503, 15761.00
1044.610, 16925.00
1045.716, 18255.00
1046.823, 19918.00
1047.929, 22342.00
1049.036, 24929.00
1050.142, 28435.00
1051.248, 32411.00
1052.353, 36987.00
1053.459, 42554.00
1054.564, 48106.00
1055.670, 53827.00
1056.775, 58793.00
1057.880, 62157.00
1058.985, 63763.00
1060.089, 62807.00
1061.194, 58745.00
1062.298, 53165.00
1063.402, 46841.00
1064.506, 40243.00
1065.610, 34227.00
1066.713, 29559.00
1067.817, 25590.00
1068.920, 22568.00
1070.023, 19847.00
1071.126, 17731.00
1072.229, 15845.00
1073.332, 14487.00
1074.435, 13136.00
1075.537, 12111.00
1076.639, 11303.00
1077.741, 10659.00
1078.843, 10198.00
1079.945, 9632.000
1081.046, 9208.000
1082.148, 8929.000
1083.249, 8670.000
1084.350, 8440.000
1085.451, 8302.000
1086.551, 8160.000
1087.652, 8030.952
1088.752, 7833.000
1089.853, 7853.000
1090.953, 7674.000
1092.053, 7620.000
1093.152, 7452.000
1094.252, 7520.000
1095.351, 7406.000
1096.451, 7311.000
1097.550, 7408.000
1098.649, 7438.000
1099.748, 7447.000
1100.846, 7501.000
1101.945, 7534.000
1103.043, 7562.000
1104.141, 7618.000
1105.239, 7676.000
1106.337, 7964.000
1107.434, 8232.000
1108.532, 8368.000
1109.629, 8611.000
1110.726, 8864.000
1111.823, 9120.000
1112.920, 9362.000
1114.017, 9290.000
1115.113, 9191.000
1116.210, 8997.000
1117.306, 8685.000
1118.402, 8291.000
1119.498, 7959.000
1120.593, 7818.000
1121.689, 7539.000
1122.784, 7359.000
1123.879, 7124.000
1124.974, 7089.000
1126.069, 6943.000
1127.164, 6950.000
1128.259, 6866.000
1129.353, 6807.000
1130.447, 6771.000
1131.541, 6671.000
1132.635, 6750.000
1133.729, 6729.000
1134.822, 6671.000
1135.916, 6686.000
1137.009, 6641.939
1138.102, 6604.233
1139.195, 6587.000
1140.288, 6534.000
1141.380, 6505.000
1142.473, 6500.000
1143.565, 6605.000
1144.657, 6525.000
1145.749, 6573.000
1146.841, 6461.000
1147.932, 6435.000
1149.024, 6501.000
1150.115, 6501.000
1151.206, 6492.000
1152.297, 6516.000
1153.388, 6546.000
1154.479, 6484.000
1155.569, 6544.000
1156.659, 6578.000
1157.750, 6574.000
1158.839, 6501.000
1159.929, 6529.000
1161.019, 6520.000
1162.108, 6522.000
1163.198, 6508.000
1164.287, 6510.931
1165.376, 6573.000
1166.465, 6503.000
1167.553, 6520.000
1168.642, 6497.000
1169.730, 6361.000
1170.818, 6359.000
1171.906, 6480.000
1172.994, 6577.000
1174.082, 6486.000
1175.170, 6523.000
1176.257, 6511.000
1177.344, 6575.000
1178.431, 6631.000
1179.518, 6475.000
1180.605, 6546.000
1181.691, 6562.000
1182.778, 6614.000
1183.864, 6611.065
1184.950, 6617.452
1186.036, 6578.000
1187.122, 6592.000
1188.207, 6551.000
1189.292, 6514.000
1190.378, 6556.000
1191.463, 6483.000
1192.548, 6605.000
1193.632, 6569.000
1194.717, 6631.000
1195.801, 6533.000
1196.886, 6512.000
1197.970, 6574.000
1199.054, 6529.000
1200.137, 6546.857
1201.221, 6603.000
1202.305, 6548.000
1203.388, 6561.000
1204.471, 6563.609
1205.554, 6599.000
1206.637, 6593.000
1207.719, 6616.000
1208.802, 6573.000
1209.884, 6642.000
1210.966, 6601.000
1212.048, 6655.000
1213.130, 6601.000
1214.212, 6628.000
1215.293, 6679.000
1216.374, 6617.000
1217.456, 6661.000
1218.536, 6675.000
1219.617, 6674.000
1220.698, 6738.000
1221.778, 6651.000
1222.859, 6721.000
1223.939, 6755.000
1225.019, 6666.000
1226.099, 6739.000
1227.178, 6684.000
1228.258, 6673.000
1229.337, 6695.000
1230.417, 6721.000
1231.496, 6711.287
1232.574, 6739.000
1233.653, 6707.000
1234.732, 6688.000
1235.810, 6680.503
1236.888, 6688.000
1237.966, 6691.000
1239.044, 6757.000
1240.122, 6771.000
1241.199, 6803.000
1242.277, 6830.000
1243.354, 6725.000
1244.431, 6727.000
1245.508, 6754.000
1246.585, 6703.000
1247.661, 6791.000
1248.738, 6759.000
1249.814, 6690.000
1250.890, 6834.000
1251.966, 6719.000
1253.042, 6882.000
1254.117, 6764.000
1255.193, 6809.000
1256.268, 6808.000
1257.343, 6783.000
1258.418, 6797.000
1259.493, 6780.000
1260.567, 6812.000
1261.642, 6747.000
1262.716, 6822.000
1263.790, 6812.000
1264.864, 6753.000
1265.938, 6839.000
1267.011, 6827.000
1268.085, 6754.000
1269.158, 6779.000
1270.231, 6816.000
1271.304, 6814.000
1272.377, 6846.055
1273.450, 6848.310
1274.522, 6893.000
1275.594, 6854.000
1276.666, 6883.000
1277.738, 6890.000
1278.810, 6860.000
1279.882, 6857.000
1280.953, 6839.000
1282.025, 6827.000
1283.096, 6937.000
1284.167, 6917.000
1285.238, 6866.000
1286.308, 6925.000
1287.379, 6854.000
1288.449, 6876.000
1289.519, 6795.000
1290.589, 6869.000
1291.659, 6880.000
1292.729, 6869.000
1293.798, 6901.000
1294.868, 6836.000
1295.937, 6846.000
1297.006, 6853.026
1298.075, 6950.000
1299.143, 6865.000
1300.212, 6911.000
1301.280, 6896.000
1302.348, 6930.000
1303.416, 6898.000
1304.484, 6848.000
1305.552, 6887.000
1306.620, 6780.000
1307.687, 6873.000
1308.754, 6860.000
1309.821, 6940.000
1310.888, 6963.000
1311.955, 6875.000
1313.021, 6891.000
1314.088, 6939.000
1315.154, 6923.985
1316.220, 6949.000
1317.286, 6967.000
1318.352, 7000.000
1319.417, 6996.000
1320.483, 7009.000
1321.548, 6996.048
1322.613, 7012.101
1323.678, 6962.000
1324.743, 7010.000
1325.807, 7012.000
1326.872, 6952.000
1327.936, 7103.000
1329.000, 6915.000
1330.064, 6966.000
1331.128, 7031.000
1332.191, 6955.000
1333.255, 7030.000
1334.318, 7012.000
1335.381, 7015.000
1336.444, 7002.000
1337.507, 6975.000
1338.569, 6973.000
1339.632, 7016.000
1340.694, 6996.000
1341.756, 7140.000
1342.818, 7079.000
1343.880, 7043.000
1344.941, 6965.000
1346.003, 7066.000
1347.064, 7031.000
1348.125, 7108.000
1349.186, 7101.000
1350.247, 7070.000
1351.308, 7023.000
1352.368, 7036.583
1353.428, 7052.000
1354.489, 7043.000
1355.549, 7083.539
1356.608, 7014.000
1357.668, 7156.000
1358.727, 7165.000
1359.787, 7203.000
1360.846, 7097.000
1361.905, 7146.000
1362.964, 7065.000
1364.022, 7102.000
1365.081, 7214.000
1366.139, 7209.000
1367.197, 7184.000
1368.255, 7166.000
1369.313, 7128.000
1370.371, 7146.000
1371.428, 7106.000
1372.486, 7232.000
1373.543, 7211.000
1374.600, 7219.000
1375.657, 7195.000
1376.713, 7161.000
1377.770, 7158.000
1378.826, 7162.948
1379.882, 7122.000
1380.938, 7209.000
1381.994, 7206.000
1383.050, 7248.690
1384.106, 7247.000
1385.161, 7271.000
1386.216, 7246.000
1387.271, 7247.000
1388.326, 7208.000
1389.381, 7157.000
1390.435, 7259.000
1391.490, 7316.000
1392.544, 7301.000
1393.598, 7254.000
1394.652, 7344.000
1395.705, 7354.000
1396.759, 7297.000
1397.812, 7208.000
1398.866, 7259.000
1399.919, 7222.000
1400.972, 7243.000
1402.024, 7375.000
1403.077, 7376.000
1404.129, 7310.000
1405.181, 7371.000
1406.233, 7342.000
1407.285, 7444.000
1408.337, 7498.000
1409.389, 7324.000
1410.440, 7302.000
1411.491, 7448.000
1412.542, 7318.000
1413.593, 7412.000
1414.644, 7362.000
1415.695, 7329.000
1416.745, 7364.000
1417.795, 7447.000
1418.845, 7360.000
1419.895, 7517.000
1420.945, 7403.000
1421.995, 7391.000
1423.044, 7544.000
1424.093, 7573.000
1425.142, 7550.000
1426.191, 7415.000
1427.240, 7527.000
1428.289, 7551.000
1429.337, 7452.000
1430.385, 7555.000
1431.433, 7531.000
1432.481, 7602.000
1433.529, 7605.000
1434.577, 7529.000
1435.624, 7624.000
1436.672, 7725.000
1437.719, 7541.000
1438.766, 7654.000
1439.812, 7564.000
1440.859, 7612.000
1441.905, 7688.000
1442.952, 7665.000
1443.998, 7719.959
1445.044, 7665.000
1446.090, 7743.000
1447.135, 7723.000
1448.181, 7673.000
1449.226, 7811.000
1450.271, 7777.000
1451.316, 7710.000
1452.361, 7753.000
1453.405, 7784.000
1454.450, 7819.000
1455.494, 7925.000
1456.538, 7966.000
1457.582, 7852.000
1458.626, 7798.000
1459.670, 7859.000
1460.713, 7843.000
1461.757, 7892.000
1462.800, 7900.159
1463.843, 7858.000
1464.886, 7929.000
1465.928, 7950.000
1466.971, 7986.000
1468.013, 7949.000
1469.055, 7963.000
1470.097, 7946.000
1471.139, 8019.000
1472.181, 8058.000
1473.222, 7995.000
1474.263, 8117.000
1475.305, 8004.000
1476.346, 8184.000
1477.386, 8205.000
1478.427, 8064.000
1479.468, 8130.000
1480.508, 8161.000
1481.548, 8233.000
1482.588, 8158.000
1483.628, 8119.000
1484.668, 8300.000
1485.707, 8168.000
1486.747, 8149.000
1487.786, 8148.000
1488.825, 8379.000
1489.864, 8412.000
1490.902, 8320.000
1491.941, 8360.000
1492.979, 8313.000
1494.017, 8269.000
1495.055, 8389.000
1496.093, 8432.000
1497.131, 8434.000
1498.168, 8447.000
1499.206, 8482.000
1500.243, 8502.000
1501.280, 8406.000
1502.317, 8461.000
1503.354, 8491.000
1504.390, 8558.000
1505.426, 8492.000
1506.463, 8516.000
1507.499, 8520.000
1508.535, 8453.000
1509.570, 8555.000
1510.606, 8607.000
1511.641, 8661.000
1512.676, 8691.476
1513.711, 8579.000
1514.746, 8709.000
1515.781, 8666.000
1516.816, 8657.000
1517.850, 8719.000
1518.884, 8642.000
1519.918, 8734.000
1520.952, 8697.000
1521.986, 8645.000
1523.019, 8646.000
1524.053, 8646.000
1525.086, 8644.806
1526.119, 8646.000
1527.152, 8670.000
1528.185, 8665.000
1529.217, 8662.000
1530.250, 8627.601
1531.282, 8734.000
1532.314, 8578.000
1533.346, 8644.000
1534.377, 8724.000
1535.409, 8642.000
1536.440, 8738.000
1537.472, 8593.000
1538.503, 8629.000
1539.534, 8627.000
1540.564, 8685.000
1541.595, 8591.000
1542.625, 8587.000
1543.656, 8587.000
1544.686, 8601.000
1545.716, 8662.000
1546.745, 8599.000
1547.775, 8643.000
1548.804, 8608.000
1549.834, 8545.000
1550.863, 8597.811
1551.892, 8724.000
1552.920, 8667.000
1553.949, 8681.000
1554.977, 8746.000
1556.006, 8710.000
1557.034, 8660.000
1558.062, 8643.000
1559.089, 8576.000
1560.117, 8560.000
1561.144, 8687.000
1562.172, 8652.000
1563.199, 8618.000
1564.226, 8565.000
1565.252, 8705.000
1566.279, 8581.000
1567.305, 8676.000
1568.332, 8704.000
1569.358, 8618.000
1570.384, 8718.000
1571.409, 8668.000
1572.435, 8700.000
##END=



