##NAMES=Fluorapatite
##RRUFFID=R060333
##IDEAL CHEMISTRY=Ca_5_(PO_4_)_3_F
##LOCALITY=Lovozero Massif, Kola Peninsula, U.S.S.R.
##OWNER=RRUFF
##SOURCE=Michael Scott
##DESCRIPTION=Colorless fragment associated with red villiaumite
##STATUS=The identification of this mineral has been confirmed by X-ray diffraction and chemical analysis
##URL=rruff.info/R060333
##MEASURED CHEMISTRY=(Ca_4.29_Sr_0.47_Na_0.12_Ce_0.07_La_0.06_)_Σ=5_((P_0.99_Si_0.01_)_Σ=1_O_4_)_3_F_1.00_
##PIN_ID=L00852
##ORIENTATION=Laser parallel to c* (0 0 1). Fiducial mark perpendicular to laser is parallel to -a [-1 0 0]
164.2210, 5585.000
165.4520, 5555.000
166.6830, 5541.000
167.9140, 5589.000
169.1450, 5455.000
170.3760, 5529.000
171.6060, 5674.000
172.8360, 5519.000
174.0660, 5509.000
175.2960, 5510.000
176.5260, 5522.000
177.7550, 5597.000
178.9840, 5542.000
180.2130, 5654.000
181.4420, 5587.000
182.6710, 5641.000
183.9000, 5640.000
185.1280, 5681.000
186.3560, 5631.000
187.5840, 5628.000
188.8120, 5741.000
190.0400, 5678.000
191.2670, 5816.000
192.4950, 5754.000
193.7220, 5774.000
194.9490, 5812.000
196.1750, 5810.000
197.4020, 5866.000
198.6280, 5906.000
199.8540, 5922.000
201.0800, 5911.000
202.3060, 6041.000
203.5320, 5966.000
204.7570, 6046.000
205.9830, 6084.000
207.2080, 6028.000
208.4330, 6029.000
209.6570, 6050.000
210.8820, 6190.000
212.1060, 6191.000
213.3310, 6132.000
214.5550, 6179.000
215.7780, 6105.000
217.0020, 6262.000
218.2260, 6205.000
219.4490, 6220.000
220.6720, 6240.000
221.8950, 6363.000
223.1180, 6378.000
224.3400, 6456.000
225.5630, 6506.294
226.7850, 6463.000
228.0070, 6593.000
229.2290, 6578.000
230.4500, 6622.000
231.6720, 6660.000
232.8930, 6703.000
234.1140, 6690.000
235.3350, 6720.000
236.5560, 6699.000
237.7770, 6823.000
238.9970, 6721.000
240.2170, 6780.000
241.4370, 6753.000
242.6570, 6717.000
243.8770, 6844.000
245.0960, 6858.000
246.3160, 6909.000
247.5350, 6934.000
248.7540, 7057.000
249.9730, 7010.000
251.1910, 7091.000
252.4100, 7126.000
253.6280, 7259.000
254.8460, 7178.000
256.0640, 7276.000
257.2810, 7161.000
258.4990, 7278.000
259.7160, 7438.000
260.9330, 7365.000
262.1500, 7377.000
263.3670, 7421.000
264.5840, 7430.000
265.8000, 7432.776
267.0170, 7408.000
268.2330, 7397.773
269.4490, 7372.000
270.6640, 7298.000
271.8800, 7292.000
273.0950, 7262.000
274.3100, 7364.000
275.5260, 7319.000
276.7400, 7371.000
277.9550, 7371.000
279.1690, 7350.000
280.3840, 7321.000
281.5980, 7365.000
282.8120, 7447.000
284.0260, 7334.000
285.2390, 7417.000
286.4530, 7331.000
287.6660, 7408.000
288.8790, 7481.000
290.0920, 7494.000
291.3040, 7565.000
292.5170, 7586.000
293.7290, 7600.000
294.9410, 7646.000
296.1530, 7649.000
297.3650, 7761.000
298.5770, 7812.000
299.7880, 7842.151
301.0000, 7860.000
302.2110, 7898.000
303.4220, 7922.000
304.6320, 7925.000
305.8430, 7873.000
307.0530, 8022.000
308.2630, 7996.000
309.4730, 7989.000
310.6830, 7896.000
311.8930, 8051.000
313.1030, 7952.000
314.3120, 8045.000
315.5210, 7983.000
316.7300, 7995.000
317.9390, 7977.000
319.1470, 8059.000
320.3560, 8027.000
321.5640, 8025.000
322.7720, 7958.000
323.9800, 8094.000
325.1880, 8092.000
326.3950, 8073.000
327.6030, 8010.000
328.8100, 8066.000
330.0170, 8070.000
331.2240, 8105.000
332.4300, 8151.000
333.6370, 8131.000
334.8430, 8184.000
336.0490, 8305.000
337.2550, 8123.000
338.4610, 8290.000
339.6660, 8281.000
340.8720, 8268.000
342.0770, 8356.000
343.2820, 8455.000
344.4870, 8343.000
345.6920, 8415.000
346.8960, 8454.000
348.1010, 8569.000
349.3050, 8492.000
350.5090, 8490.000
351.7130, 8546.000
352.9160, 8516.000
354.1200, 8591.000
355.3230, 8592.000
356.5260, 8615.000
357.7290, 8654.981
358.9320, 8626.000
360.1350, 8687.000
361.3370, 8775.000
362.5390, 8743.000
363.7410, 8679.000
364.9430, 8823.000
366.1450, 8748.000
367.3470, 8825.000
368.5480, 8721.000
369.7490, 9010.000
370.9500, 8865.000
372.1510, 8908.000
373.3520, 9073.000
374.5520, 8897.000
375.7530, 9066.000
376.9530, 9024.000
378.1530, 9032.000
379.3520, 9085.000
380.5520, 9050.000
381.7510, 9160.000
382.9510, 9056.000
384.1500, 9078.000
385.3490, 9146.000
386.5480, 9109.000
387.7460, 9146.000
388.9440, 9179.058
390.1430, 9151.000
391.3410, 9261.000
392.5390, 9254.000
393.7360, 9320.000
394.9340, 9249.000
396.1310, 9441.000
397.3280, 9355.000
398.5250, 9468.000
399.7220, 9485.000
400.9190, 9403.000
402.1150, 9618.000
403.3120, 9481.000
404.5080, 9614.000
405.7040, 9525.000
406.8990, 9631.000
408.0950, 9680.000
409.2900, 9714.000
410.4860, 9825.000
411.6810, 9841.000
412.8760, 9816.000
414.0700, 9875.000
415.2650, 9889.000
416.4590, 9969.000
417.6540, 10013.03
418.8480, 10087.00
420.0420, 10123.00
421.2350, 10118.00
422.4290, 10158.00
423.6220, 10221.00
424.8150, 10266.00
426.0080, 10413.00
427.2010, 10415.00
428.3940, 10504.00
429.5860, 10671.00
430.7790, 10528.00
431.9710, 10677.00
433.1630, 11071.00
434.3540, 10999.00
435.5460, 11070.00
436.7370, 11237.00
437.9290, 11338.00
439.1200, 11495.00
440.3110, 11619.00
441.5010, 11799.00
442.6920, 11771.00
443.8820, 12058.00
445.0730, 12003.00
446.2630, 12003.00
447.4530, 12154.00
448.6420, 12082.00
449.8320, 12068.00
451.0210, 12043.00
452.2100, 11934.00
453.3990, 11685.00
454.5880, 11777.00
455.7770, 11621.00
456.9660, 11705.00
458.1540, 11585.00
459.3420, 11624.00
460.5300, 11455.00
461.7180, 11502.00
462.9050, 11312.00
464.0930, 11362.00
465.2800, 11387.00
466.4670, 11431.00
467.6540, 11425.00
468.8410, 11372.00
470.0280, 11493.00
471.2140, 11421.00
472.4000, 11329.00
473.5870, 11474.00
474.7720, 11442.00
475.9580, 11430.00
477.1440, 11461.00
478.3290, 11406.00
479.5140, 11500.00
480.6990, 11347.00
481.8840, 11462.00
483.0690, 11460.00
484.2540, 11556.00
485.4380, 11552.00
486.6220, 11637.00
487.8060, 11629.00
488.9900, 11620.00
490.1740, 11835.00
491.3570, 11790.00
492.5410, 11853.46
493.7240, 11844.00
494.9070, 11892.00
496.0900, 11886.00
497.2720, 11888.00
498.4550, 11916.00
499.6370, 11955.00
500.8190, 12035.00
502.0010, 11902.00
503.1830, 12001.00
504.3650, 11909.00
505.5460, 12027.00
506.7280, 11946.00
507.9090, 12212.00
509.0900, 12168.00
510.2710, 12258.00
511.4510, 12274.00
512.6320, 12257.00
513.8120, 12314.00
514.9920, 12367.00
516.1720, 12457.00
517.3520, 12410.00
518.5310, 12364.00
519.7110, 12414.00
520.8900, 12610.00
522.0690, 12629.00
523.2480, 12533.00
524.4270, 12488.00
525.6050, 12742.00
526.7840, 12697.00
527.9620, 12754.00
529.1400, 12842.00
530.3180, 12830.00
531.4960, 12854.00
532.6730, 12903.00
533.8510, 12913.00
535.0280, 12926.00
536.2050, 12952.92
537.3820, 12942.00
538.5590, 12992.00
539.7350, 13049.00
540.9120, 13082.00
542.0880, 13166.00
543.2640, 13119.00
544.4400, 13195.13
545.6150, 13370.00
546.7910, 13291.00
547.9660, 13391.00
549.1410, 13462.00
550.3170, 13448.00
551.4910, 13473.00
552.6660, 13472.00
553.8410, 13685.00
555.0150, 13547.00
556.1890, 13593.00
557.3630, 13773.00
558.5370, 13743.00
559.7110, 13781.00
560.8840, 13726.00
562.0570, 13894.00
563.2310, 14036.00
564.4040, 14083.00
565.5760, 14087.00
566.7490, 14030.00
567.9220, 14272.00
569.0940, 14522.00
570.2660, 14498.00
571.4380, 14766.00
572.6100, 14882.00
573.7820, 15044.00
574.9530, 15356.00
576.1240, 15563.00
577.2960, 15737.00
578.4670, 15911.00
579.6370, 16043.00
580.8080, 16035.82
581.9790, 16163.00
583.1490, 15872.00
584.3190, 15793.00
585.4890, 15553.00
586.6590, 15162.00
587.8280, 15268.00
588.9980, 15236.00
590.1670, 15420.00
591.3360, 15265.00
592.5050, 15307.00
593.6740, 15377.00
594.8430, 15335.00
596.0110, 15553.00
597.1790, 15649.00
598.3480, 15839.00
599.5160, 15854.00
600.6830, 16051.00
601.8510, 16203.00
603.0180, 16216.00
604.1860, 16580.00
605.3530, 16654.00
606.5200, 16790.00
607.6870, 16784.00
608.8530, 16604.00
610.0200, 16450.00
611.1860, 16263.00
612.3520, 16013.00
613.5180, 16181.00
614.6840, 16261.00
615.8500, 16249.00
617.0150, 15976.00
618.1800, 16091.00
619.3450, 15953.00
620.5100, 15931.00
621.6750, 15941.00
622.8400, 15897.00
624.0040, 15713.00
625.1690, 15991.00
626.3330, 15939.00
627.4970, 16062.00
628.6610, 15896.00
629.8240, 15905.00
630.9880, 16074.00
632.1510, 16133.00
633.3140, 16207.00
634.4770, 16255.00
635.6400, 16296.00
636.8020, 16304.00
637.9650, 16377.00
639.1270, 16401.00
640.2890, 16457.30
641.4510, 16590.00
642.6130, 16584.00
643.7750, 16649.00
644.9360, 16737.00
646.0980, 16647.00
647.2590, 17010.00
648.4200, 16789.00
649.5810, 17041.00
650.7410, 16940.00
651.9020, 17082.00
653.0620, 17217.00
654.2220, 17183.00
655.3820, 17213.00
656.5420, 17305.00
657.7020, 17355.00
658.8610, 17403.23
660.0200, 17477.00
661.1800, 17497.00
662.3390, 17475.00
663.4970, 17512.00
664.6560, 17522.00
665.8150, 17421.00
666.9730, 17463.00
668.1310, 17438.00
669.2890, 17626.00
670.4470, 17561.00
671.6050, 17629.00
672.7620, 17712.00
673.9200, 17699.00
675.0770, 17671.00
676.2340, 17882.00
677.3910, 17660.00
678.5470, 17730.00
679.7040, 17906.00
680.8600, 17971.00
682.0160, 17902.00
683.1720, 17973.00
684.3280, 18141.00
685.4840, 17942.00
686.6390, 18085.00
687.7950, 18143.00
688.9500, 18088.00
690.1050, 18222.00
691.2600, 18327.00
692.4150, 18282.00
693.5690, 18380.50
694.7240, 18269.00
695.8780, 18469.00
697.0320, 18436.00
698.1860, 18525.00
699.3400, 18554.00
700.4930, 18558.59
701.6470, 18450.00
702.8000, 18635.00
703.9530, 18626.00
705.1060, 18773.00
706.2590, 18831.00
707.4110, 18873.61
708.5640, 19048.00
709.7160, 18941.00
710.8680, 19044.00
712.0200, 19019.00
713.1720, 19247.00
714.3230, 19027.00
715.4750, 19048.00
716.6260, 19272.00
717.7770, 19381.00
718.9280, 19325.00
720.0790, 19447.00
721.2300, 19441.00
722.3800, 19550.00
723.5300, 19555.08
724.6810, 19727.00
725.8300, 19586.00
726.9800, 19565.00
728.1300, 19617.00
729.2790, 19734.00
730.4290, 19754.00
731.5780, 19844.00
732.7270, 19802.00
733.8760, 19932.00
735.0240, 19929.00
736.1730, 19857.00
737.3210, 19881.00
738.4700, 20228.00
739.6180, 20030.00
740.7650, 20359.00
741.9130, 20245.00
743.0610, 20345.00
744.2080, 20403.00
745.3550, 20363.00
746.5020, 20506.00
747.6490, 20496.00
748.7960, 20394.00
749.9430, 20315.00
751.0890, 20576.00
752.2350, 20672.00
753.3810, 20612.00
754.5270, 20754.00
755.6730, 20888.00
756.8190, 20894.00
757.9640, 20945.00
759.1090, 20897.00
760.2540, 21049.00
761.3990, 21039.00
762.5440, 20987.00
763.6890, 21065.00
764.8330, 21145.00
765.9780, 21244.00
767.1220, 21410.00
768.2660, 21306.00
769.4100, 21635.00
770.5530, 21508.00
771.6970, 21508.00
772.8400, 21493.00
773.9830, 21719.00
775.1260, 21718.00
776.2690, 21839.00
777.4120, 21766.00
778.5540, 21859.00
779.6970, 21813.00
780.8390, 21979.00
781.9810, 21737.00
783.1230, 21941.00
784.2650, 22104.00
785.4060, 22107.00
786.5480, 22297.00
787.6890, 22257.00
788.8300, 22135.00
789.9710, 22513.00
791.1120, 22459.00
792.2520, 22413.00
793.3930, 22530.00
794.5330, 22647.00
795.6730, 22590.00
796.8130, 22688.37
797.9530, 22620.00
799.0930, 22748.00
800.2320, 22696.00
801.3710, 22711.00
802.5110, 22831.00
803.6500, 22719.00
804.7880, 23017.00
805.9270, 23014.00
807.0660, 23102.00
808.2040, 23243.00
809.3420, 23168.00
810.4800, 23136.00
811.6180, 23436.00
812.7560, 23283.00
813.8930, 23473.00
815.0310, 23438.00
816.1680, 23599.00
817.3050, 23604.00
818.4420, 23813.00
819.5790, 23700.00
820.7150, 23876.00
821.8520, 23955.00
822.9880, 23907.00
824.1240, 23918.00
825.2600, 23967.00
826.3960, 24080.00
827.5320, 24073.38
828.6670, 24136.81
829.8020, 24134.00
830.9380, 24217.00
832.0730, 24285.00
833.2080, 24353.00
834.3420, 24328.00
835.4770, 24311.00
836.6110, 24599.00
837.7450, 24611.00
838.8790, 24792.00
840.0130, 24770.00
841.1470, 24684.00
842.2810, 25040.00
843.4140, 24776.00
844.5470, 25078.00
845.6800, 25155.00
846.8130, 25031.00
847.9460, 25061.00
849.0790, 25263.00
850.2110, 25272.00
851.3440, 25227.00
852.4760, 25463.00
853.6080, 25566.00
854.7400, 25550.00
855.8710, 25541.00
857.0030, 25603.00
858.1340, 25513.00
859.2650, 25740.00
860.3960, 25806.00
861.5270, 25950.00
862.6580, 25880.00
863.7890, 25970.00
864.9190, 26036.00
866.0490, 25937.00
867.1790, 26207.00
868.3090, 26171.00
869.4390, 26474.00
870.5690, 26291.00
871.6980, 26264.00
872.8270, 26481.00
873.9570, 26479.00
875.0860, 26717.00
876.2140, 26638.00
877.3430, 26876.00
878.4720, 26922.26
879.6000, 26795.00
880.7280, 26996.00
881.8560, 27036.00
882.9840, 26912.00
884.1120, 26971.00
885.2390, 27001.36
886.3670, 27055.00
887.4940, 27150.00
888.6210, 27166.00
889.7480, 27285.00
890.8750, 27275.00
892.0020, 27312.20
893.1280, 27346.00
894.2540, 27357.00
895.3810, 27386.00
896.5070, 27448.00
897.6320, 27445.25
898.7580, 27488.12
899.8840, 27460.00
901.0090, 27627.00
902.1340, 27630.00
903.2590, 27877.00
904.3840, 27899.00
905.5090, 27948.00
906.6340, 28025.88
907.7580, 28243.00
908.8820, 28079.00
910.0060, 28136.00
911.1300, 28194.00
912.2540, 28053.00
913.3780, 28332.00
914.5010, 28428.00
915.6250, 28608.00
916.7480, 28710.11
917.8710, 28849.00
918.9940, 28823.00
920.1160, 29007.00
921.2390, 29002.00
922.3610, 29089.57
923.4840, 28855.00
924.6060, 29154.00
925.7280, 29157.00
926.8490, 28998.00
927.9710, 29296.00
929.0930, 29480.00
930.2140, 29504.00
931.3350, 29519.00
932.4560, 29686.00
933.5770, 29710.00
934.6980, 29793.27
935.8180, 29884.41
936.9380, 29987.00
938.0590, 30045.00
939.1790, 30254.00
940.2990, 30373.00
941.4180, 30604.00
942.5380, 30902.00
943.6570, 31148.00
944.7770, 31697.00
945.8960, 31738.00
947.0150, 32013.00
948.1340, 32511.00
949.2520, 33187.00
950.3710, 34179.00
951.4890, 35283.00
952.6070, 36924.00
953.7260, 38917.00
954.8430, 41494.00
955.9610, 45136.00
957.0790, 48578.00
958.1960, 52510.00
959.3130, 55719.00
960.4310, 58470.00
961.5480, 60456.00
962.6640, 60190.00
963.7810, 58955.00
964.8970, 56297.00
966.0140, 52392.00
967.1300, 48635.00
968.2460, 45443.00
969.3620, 42594.00
970.4780, 40150.98
971.5930, 37971.00
972.7090, 36542.00
973.8240, 35340.00
974.9390, 34584.00
976.0540, 33801.00
977.1690, 33416.00
978.2830, 32949.00
979.3980, 32965.00
980.5120, 32570.00
981.6260, 32672.00
982.7400, 32246.00
983.8540, 32278.00
984.9680, 32494.00
986.0820, 32482.00
987.1950, 32533.00
988.3080, 32754.00
989.4210, 32644.00
990.5340, 32789.00
991.6470, 32534.00
992.7600, 32795.00
993.8720, 32768.00
994.9850, 32892.00
996.0970, 33085.00
997.2090, 32992.00
998.3210, 33146.00
999.4320, 32971.00
1000.544, 33135.00
1001.655, 33204.00
1002.767, 33409.00
1003.878, 33517.00
1004.989, 33390.00
1006.100, 33295.00
1007.210, 33605.00
1008.321, 33679.00
1009.431, 33418.00
1010.541, 33780.00
1011.651, 33859.00
1012.761, 33815.00
1013.871, 34218.00
1014.980, 34049.00
1016.090, 34135.00
1017.199, 34033.00
1018.308, 34250.00
1019.417, 34437.00
1020.526, 34616.00
1021.635, 34536.00
1022.743, 34783.00
1023.852, 35022.00
1024.960, 34938.00
1026.068, 35120.00
1027.176, 35154.00
1028.283, 35203.00
1029.391, 35600.00
1030.498, 35767.00
1031.606, 35766.00
1032.713, 35883.00
1033.820, 35962.00
1034.927, 35927.40
1036.033, 35836.00
1037.140, 35864.00
1038.246, 35793.00
1039.353, 35744.00
1040.459, 35881.00
1041.564, 35882.00
1042.670, 35787.00
1043.776, 36084.00
1044.881, 36177.00
1045.987, 36054.00
1047.092, 36140.00
1048.197, 36234.68
1049.302, 36480.00
1050.406, 36466.00
1051.511, 36592.00
1052.615, 36656.43
1053.720, 36686.00
1054.824, 36886.00
1055.928, 37006.00
1057.031, 37022.00
1058.135, 36819.00
1059.238, 37264.00
1060.342, 36911.00
1061.445, 36977.00
1062.548, 36851.00
1063.651, 37054.00
1064.754, 37129.00
1065.856, 37107.00
1066.959, 37384.00
1068.061, 37126.00
1069.163, 37406.00
1070.265, 37449.00
1071.367, 37369.00
1072.469, 37639.00
1073.570, 37845.00
1074.671, 37888.00
1075.773, 38017.00
1076.874, 38032.00
1077.975, 38164.00
1079.075, 38237.00
1080.176, 38216.00
1081.276, 38038.00
1082.377, 38304.00
1083.477, 38412.00
1084.577, 38206.00
1085.677, 37915.00
1086.777, 38332.00
1087.876, 38031.00
1088.975, 38118.00
1090.075, 38406.00
1091.174, 38230.00
1092.273, 38491.00
1093.372, 38647.00
1094.470, 38615.00
1095.569, 38669.00
1096.667, 38583.00
1097.765, 38715.00
1098.863, 38732.00
1099.961, 38903.00
1101.059, 39075.00
1102.157, 38984.00
1103.254, 39163.00
1104.351, 38999.00
1105.449, 39333.00
1106.546, 39124.00
1107.642, 39317.00
1108.739, 39337.00
1109.836, 39268.00
1110.932, 39550.00
1112.028, 39448.00
1113.124, 39813.00
1114.220, 39730.00
1115.316, 39905.00
1116.412, 39678.00
1117.507, 39800.00
1118.603, 39907.00
1119.698, 40286.00
1120.793, 40337.00
1121.888, 40353.00
1122.983, 40466.00
1124.077, 40494.00
1125.172, 40647.00
1126.266, 40445.00
1127.360, 40606.00
1128.454, 40543.00
1129.548, 40605.00
1130.642, 40712.00
1131.735, 40595.00
1132.829, 41002.00
1133.922, 41023.00
1135.015, 41000.00
1136.108, 40958.00
1137.201, 40983.00
1138.294, 41155.00
1139.386, 40935.00
1140.478, 41253.00
1141.571, 41411.00
1142.663, 41337.00
1143.755, 41236.00
1144.846, 41314.09
1145.938, 41339.45
1147.030, 41441.00
1148.121, 41555.00
1149.212, 41856.00
1150.303, 42020.00
1151.394, 41938.00
1152.485, 41797.00
1153.575, 42003.00
1154.666, 42223.00
1155.756, 42272.00
1156.846, 42258.00
1157.936, 42389.00
1159.026, 42279.00
1160.116, 42383.00
1161.205, 42506.00
1162.295, 42476.00
1163.384, 42567.00
1164.473, 42630.00
1165.562, 42751.00
1166.651, 42769.00
1167.739, 42658.00
1168.828, 43027.00
1169.916, 43154.00
1171.005, 42895.00
1172.093, 42955.00
1173.181, 43101.00
1174.268, 43128.00
1175.356, 43311.00
1176.443, 43448.00
1177.531, 43511.00
1178.618, 43643.48
1179.705, 43376.00
1180.792, 43877.00
1181.879, 43649.00
1182.965, 43857.00
1184.052, 44005.00
1185.138, 43762.00
1186.224, 43997.00
1187.310, 44053.00
1188.396, 44012.00
1189.482, 44184.00
1190.567, 44254.00
1191.653, 44367.00
1192.738, 44344.00
1193.823, 44424.00
1194.908, 44520.00
1195.993, 44529.26
1197.077, 44616.00
1198.162, 44596.00
1199.246, 44868.00
1200.331, 44890.00
1201.415, 44962.00
1202.499, 44891.00
1203.582, 45069.00
1204.666, 45042.00
1205.750, 45078.00
1206.833, 45329.00
1207.916, 45516.00
1208.999, 45426.00
1210.082, 45506.00
1211.165, 45590.00
1212.248, 45421.00
1213.330, 45609.00
1214.412, 45740.00
1215.495, 45659.00
1216.577, 45932.00
1217.658, 45988.00
1218.740, 45869.00
1219.822, 46060.83
1220.903, 45970.00
1221.985, 46156.00
1223.066, 46249.00
1224.147, 46194.00
1225.228, 46511.00
1226.308, 46556.00
1227.389, 46417.00
1228.469, 46348.00
1229.550, 46480.00
1230.630, 46766.00
1231.710, 46737.00
1232.790, 46657.00
1233.869, 46918.00
1234.949, 46789.00
1236.028, 47205.00
1237.108, 46894.00
1238.187, 47204.00
1239.266, 47175.00
1240.344, 47103.00
1241.423, 47398.00
1242.502, 47220.00
1243.580, 47083.00
1244.658, 47372.00
1245.736, 47127.00
1246.814, 47232.00
1247.892, 47220.00
1248.970, 47406.00
1250.047, 47456.00
1251.125, 47449.00
1252.202, 47672.00
1253.279, 47812.00
1254.356, 47772.00
1255.433, 47821.00
1256.509, 48101.00
1257.586, 48119.00
1258.662, 48179.00
1259.738, 48013.00
1260.814, 48285.00
1261.890, 48274.00
1262.966, 48496.00
1264.042, 48336.00
1265.117, 48439.00
1266.193, 48542.88
1267.268, 48659.00
1268.343, 48741.00
1269.418, 48850.00
1270.492, 48914.00
1271.567, 48794.00
1272.642, 48603.00
1273.716, 48844.00
1274.790, 49222.00
1275.864, 48924.00
1276.938, 49248.00
1278.012, 49350.00
1279.085, 49318.00
1280.159, 49340.00
1281.232, 49018.00
1282.305, 49264.00
1283.378, 48845.00
1284.451, 49549.00
1285.524, 49341.00
1286.597, 49710.00
1287.669, 49745.00
1288.741, 49673.00
1289.813, 49559.00
1290.885, 49854.00
1291.957, 49651.00
1293.029, 49897.00
1294.101, 50153.00
1295.172, 50307.00
1296.243, 50285.00
1297.315, 50105.00
1298.386, 50342.00
1299.456, 50241.00
1300.527, 50482.00
1301.598, 50537.00
1302.668, 50575.00
1303.738, 50682.26
1304.809, 50756.86
1305.879, 50775.00
1306.948, 51038.00
1308.018, 51106.00
1309.088, 51421.00
1310.157, 51451.16
1311.226, 51526.00
1312.296, 51466.00
1313.365, 51549.00
1314.433, 51369.00
1315.502, 51569.00
1316.571, 51520.00
1317.639, 51965.00
1318.707, 52154.00
1319.776, 51859.00
1320.844, 52287.00
1321.911, 51983.00
1322.979, 52193.00
1324.047, 52184.00
1325.114, 51987.00
1326.181, 52014.00
1327.249, 52278.00
1328.316, 52445.00
1329.382, 52509.00
1330.449, 52396.00
1331.516, 52779.00
1332.582, 52696.00
1333.648, 52605.00
1334.715, 52750.00
1335.781, 53019.00
1336.846, 53130.00
1337.912, 53215.00
1338.978, 53076.00
1340.043, 52817.00
1341.108, 53193.00
1342.174, 53350.00
1343.239, 53178.00
1344.303, 53443.00
1345.368, 53573.00
1346.433, 53580.00
1347.497, 53500.00
1348.561, 53327.00
1349.626, 53582.00
1350.690, 53611.00
1351.753, 53857.00
1352.817, 54037.00
1353.881, 54046.00
1354.944, 53804.00
1356.007, 54201.00
1357.071, 54058.00
1358.134, 54172.00
1359.196, 54213.00
1360.259, 54237.00
1361.322, 54309.00
1362.384, 53943.00
1363.447, 54362.00
1364.509, 54596.00
1365.571, 54629.00
1366.633, 54305.00
1367.694, 54580.00
1368.756, 54504.00
1369.817, 54655.00
1370.879, 54429.00
1371.940, 54968.00
1373.001, 54725.00
1374.062, 54901.00
1375.122, 55037.00
1376.183, 55120.00
1377.244, 55212.00
1378.304, 54938.00
1379.364, 55022.00
1380.424, 55337.00
1381.484, 55683.00
1382.544, 55476.00
1383.603, 55229.00
1384.663, 55549.00
1385.722, 55563.00
1386.781, 55609.00
1387.840, 55692.00
1388.899, 55748.37
1389.958, 55777.04
1391.017, 55927.00
1392.075, 55886.00
1393.134, 55996.00
1394.192, 56187.00
1395.250, 56011.00
1396.308, 56292.00
1397.365, 56403.00
1398.423, 56541.00
1399.481, 56465.00
1400.538, 56549.00
1401.595, 56484.00
1402.652, 56465.97
1403.709, 56769.00
1404.766, 56564.00
1405.823, 56566.00
1406.879, 56968.00
1407.936, 56759.00
1408.992, 56644.00
1410.048, 57274.00
1411.104, 56955.00
1412.160, 57266.00
1413.215, 57094.00
1414.271, 57271.00
1415.326, 57370.00
1416.382, 57263.00
1417.437, 57360.00
1418.492, 57267.00
1419.546, 57155.00
1420.601, 57476.00
1421.656, 57826.00
1422.710, 57540.00
1423.764, 57812.00
1424.819, 57639.00
1425.873, 57803.00
1426.926, 57938.00
1427.980, 57873.84
1429.034, 58073.00
1430.087, 58016.00
1431.140, 57886.00
1432.194, 58213.00
1433.247, 58445.00
1434.299, 58474.00
1435.352, 58143.00
1436.405, 58492.00
1437.457, 58397.00
1438.510, 58621.00
1439.562, 58492.00
1440.614, 58688.00
1441.666, 58878.00
1442.717, 58813.00
1443.769, 59028.00
1444.821, 59009.00
1445.872, 58929.00
1446.923, 59028.00
1447.974, 59040.86
1449.025, 58961.00
1450.076, 59163.00
1451.127, 59370.00
1452.177, 59402.00
1453.227, 59249.00
1454.278, 59420.00
1455.328, 59584.00
1456.378, 59660.00
1457.428, 59896.00
1458.477, 59756.00
1459.527, 59563.00
1460.576, 59847.00
1461.625, 60048.00
1462.675, 59964.00
1463.724, 60192.00
1464.772, 60366.00
1465.821, 60335.00
1466.870, 60107.00
1467.918, 60465.00
1468.966, 60282.00
1470.015, 60376.00
1471.063, 60125.00
1472.110, 60577.00
1473.158, 60600.00
1474.206, 60436.00
1475.253, 60483.00
1476.301, 60318.00
1477.348, 60604.00
1478.395, 60737.00
1479.442, 60684.00
1480.488, 60965.00
1481.535, 61290.00
1482.582, 61118.00
1483.628, 61024.00
1484.674, 60895.00
1485.720, 61014.00
1486.766, 60822.00
1487.812, 60936.05
1488.858, 61242.00
1489.903, 61219.00
1490.949, 61237.00
1491.994, 61632.00
1493.039, 61441.00
1494.084, 61671.00
1495.129, 61551.00
1496.173, 61824.00
1497.218, 61665.00
1498.262, 61745.00
1499.307, 61992.00
1500.351, 61478.00
1501.395, 61734.00
1502.439, 61999.00
1503.483, 61955.00
1504.526, 62265.00
1505.570, 62289.00
1506.613, 61995.00
1507.656, 62288.00
1508.699, 62257.00
1509.742, 62243.00
1510.785, 62439.00
1511.827, 62509.00
1512.870, 62485.00
1513.912, 62476.00
1514.955, 62536.75
1515.997, 62630.00
1517.039, 62636.00
1518.080, 62716.00
1519.122, 62785.33
1520.164, 62898.00
1521.205, 63075.00
1522.246, 63024.00
1523.288, 63173.00
1524.329, 63192.00
1525.369, 63405.00
1526.410, 63323.32
1527.451, 63135.00
1528.491, 63180.00
1529.531, 63258.00
1530.572, 63174.00
1531.612, 63456.00
1532.652, 63269.00
1533.691, 63199.00
1534.731, 63578.00
1535.770, 63368.00
1536.810, 63564.00
1537.849, 63501.00
1538.888, 63567.51
1539.927, 63477.00
1540.966, 63686.00
1542.005, 63905.00
1543.043, 63845.00
1544.082, 64084.00
1545.120, 63682.00
1546.158, 64268.00
1547.196, 64386.00
1548.234, 64001.00
1549.272, 64126.00
1550.309, 64399.00
1551.347, 64245.00
1552.384, 64211.00
1553.421, 64068.00
1554.458, 64549.00
1555.495, 64375.00
1556.532, 64573.00
1557.568, 64472.00
1558.605, 64636.00
1559.641, 64382.00
1560.678, 64523.00
1561.714, 64569.00
1562.750, 65100.00
1563.785, 65108.00
##END=



