##NAMES=Fluorapatite
##RRUFFID=R060184
##IDEAL CHEMISTRY=Ca_5_(PO_4_)_3_F
##LOCALITY=Yates mine, Otter Lake, Quebec, Canada
##OWNER=RRUFF
##SOURCE=Lloyd Twaites
##DESCRIPTION=Green colored fragment of a hexagonal prism
##STATUS=The identification of this mineral has been confirmed by X-ray diffraction and chemical analysis
##URL=rruff.info/R060184
##MEASURED CHEMISTRY=(Ca_0.99_Ce_0.01_)_5.00_((P_0.98_Si_0.01_S_0.01_)O_4_)_3_F_1.00_
##PIN_ID=M00887
##ORIENTATION=Laser parallel to c* (0 0 1). Fiducial mark perpendicular to laser is parallel to a [1 0 0]
170.5590, 3166.000
171.7860, 3149.000
173.0130, 3128.000
174.2400, 3121.000
175.4670, 3045.000
176.6930, 3113.000
177.9200, 3088.000
179.1460, 3020.000
180.3720, 3056.000
181.5980, 3032.000
182.8230, 2956.000
184.0490, 2999.000
185.2740, 3010.000
186.5000, 3015.000
187.7250, 3012.000
188.9500, 2988.000
190.1740, 3026.000
191.3990, 2975.000
192.6230, 3052.000
193.8480, 2995.000
195.0720, 3047.000
196.2960, 3016.000
197.5200, 3028.000
198.7430, 3000.000
199.9670, 3148.000
201.1900, 3112.000
202.4130, 3161.000
203.6360, 3206.000
204.8590, 3210.000
206.0820, 3220.000
207.3050, 3249.000
208.5270, 3284.000
209.7490, 3293.808
210.9710, 3323.000
212.1930, 3340.000
213.4150, 3335.000
214.6370, 3387.000
215.8580, 3358.000
217.0790, 3433.000
218.3010, 3379.000
219.5210, 3379.000
220.7420, 3454.000
221.9630, 3507.000
223.1830, 3485.000
224.4040, 3534.000
225.6240, 3564.930
226.8440, 3526.000
228.0640, 3627.000
229.2840, 3662.000
230.5030, 3659.000
231.7230, 3611.000
232.9420, 3639.073
234.1610, 3613.000
235.3800, 3647.000
236.5990, 3621.000
237.8170, 3628.000
239.0360, 3536.000
240.2540, 3577.000
241.4720, 3584.000
242.6900, 3629.000
243.9080, 3621.000
245.1250, 3627.063
246.3430, 3645.308
247.5600, 3619.000
248.7770, 3672.000
249.9940, 3680.545
251.2110, 3712.000
252.4280, 3694.000
253.6450, 3772.000
254.8610, 3779.000
256.0770, 3954.000
257.2930, 3985.000
258.5090, 4027.000
259.7250, 4172.000
260.9400, 4177.000
262.1560, 4232.000
263.3710, 4259.000
264.5860, 4323.000
265.8010, 4332.000
267.0160, 4383.000
268.2310, 4381.000
269.4450, 4362.000
270.6600, 4250.000
271.8740, 4201.000
273.0880, 4208.000
274.3020, 4112.000
275.5150, 4120.000
276.7290, 4155.000
277.9420, 4148.000
279.1550, 4083.000
280.3680, 4013.000
281.5810, 4093.000
282.7940, 4061.000
284.0070, 4057.000
285.2190, 4062.000
286.4310, 4074.000
287.6430, 4032.000
288.8550, 3997.000
290.0670, 3998.000
291.2790, 4007.779
292.4900, 4071.000
293.7020, 4069.000
294.9130, 4106.000
296.1240, 4135.000
297.3350, 4169.440
298.5450, 4193.000
299.7560, 4270.000
300.9660, 4249.000
302.1760, 4320.000
303.3860, 4328.000
304.5960, 4352.979
305.8060, 4383.548
307.0150, 4398.000
308.2250, 4420.000
309.4340, 4425.000
310.6430, 4440.000
311.8520, 4428.000
313.0610, 4391.000
314.2700, 4382.000
315.4780, 4352.968
316.6860, 4251.000
317.8940, 4280.000
319.1020, 4247.000
320.3100, 4165.000
321.5180, 4244.000
322.7250, 4145.000
323.9330, 4182.000
325.1400, 4154.000
326.3470, 4106.000
327.5540, 4171.000
328.7600, 4142.000
329.9670, 4125.000
331.1730, 4117.000
332.3800, 4101.000
333.5860, 4070.000
334.7920, 4078.000
335.9970, 4061.000
337.2030, 4098.000
338.4080, 4095.000
339.6140, 4094.320
340.8190, 4077.000
342.0240, 4097.000
343.2290, 4110.000
344.4330, 4128.000
345.6380, 4127.815
346.8420, 4118.496
348.0460, 4121.000
349.2500, 4113.045
350.4540, 4085.000
351.6580, 4100.000
352.8610, 4100.260
354.0650, 4094.000
355.2680, 4135.000
356.4710, 4132.000
357.6740, 4153.000
358.8760, 4136.000
360.0790, 4173.000
361.2810, 4182.000
362.4840, 4135.000
363.6860, 4185.000
364.8880, 4213.000
366.0900, 4314.000
367.2910, 4220.000
368.4930, 4154.000
369.6940, 4202.000
370.8950, 4296.000
372.0960, 4364.000
373.2970, 4243.000
374.4980, 4321.000
375.6980, 4301.000
376.8980, 4376.000
378.0990, 4362.000
379.2990, 4372.000
380.4980, 4353.000
381.6980, 4403.000
382.8980, 4329.000
384.0970, 4486.000
385.2960, 4399.000
386.4950, 4428.000
387.6940, 4422.000
388.8930, 4534.000
390.0920, 4503.000
391.2900, 4592.000
392.4880, 4539.000
393.6860, 4548.000
394.8840, 4510.000
396.0820, 4570.000
397.2800, 4586.000
398.4770, 4667.000
399.6750, 4668.000
400.8720, 4711.000
402.0690, 4752.687
403.2660, 4763.000
404.4620, 4815.000
405.6590, 4855.000
406.8550, 4867.000
408.0510, 4954.000
409.2480, 4924.000
410.4430, 4945.000
411.6390, 4955.000
412.8350, 5024.000
414.0300, 5178.000
415.2250, 5162.000
416.4200, 5322.000
417.6150, 5345.000
418.8100, 5453.000
420.0050, 5553.000
421.1990, 5649.000
422.3940, 5847.000
423.5880, 6003.000
424.7820, 6202.000
425.9750, 6341.000
427.1690, 6596.000
428.3630, 6707.000
429.5560, 6855.000
430.7490, 6933.000
431.9420, 7038.000
433.1350, 6983.000
434.3280, 7026.000
435.5200, 7003.000
436.7130, 7162.000
437.9050, 7322.000
439.0970, 7249.000
440.2890, 7423.000
441.4810, 7567.000
442.6720, 7757.000
443.8640, 7654.000
445.0550, 7564.000
446.2460, 7667.000
447.4370, 7556.000
448.6280, 7377.000
449.8180, 7274.000
451.0090, 7089.000
452.1990, 6903.000
453.3890, 6703.000
454.5790, 6514.000
455.7690, 6492.000
456.9590, 6342.000
458.1480, 6135.000
459.3380, 6095.000
460.5270, 6153.000
461.7160, 5937.000
462.9050, 5934.000
464.0940, 5835.000
465.2820, 5862.000
466.4700, 5820.000
467.6590, 5777.000
468.8470, 5702.000
470.0350, 5771.000
471.2220, 5699.000
472.4100, 5711.000
473.5970, 5743.000
474.7850, 5709.000
475.9720, 5705.094
477.1590, 5686.000
478.3460, 5669.000
479.5320, 5656.000
480.7190, 5674.000
481.9050, 5652.000
483.0910, 5669.000
484.2770, 5714.000
485.4630, 5688.000
486.6490, 5709.000
487.8340, 5751.000
489.0200, 5756.000
490.2050, 5677.000
491.3900, 5708.000
492.5750, 5694.000
493.7600, 5750.000
494.9440, 5710.000
496.1290, 5682.000
497.3130, 5777.000
498.4970, 5706.000
499.6810, 5811.000
500.8650, 5793.000
502.0480, 5828.000
503.2320, 5760.000
504.4150, 5781.000
505.5980, 5837.000
506.7810, 5940.000
507.9640, 5863.000
509.1460, 5787.000
510.3290, 5945.000
511.5110, 5964.000
512.6930, 5981.000
513.8750, 6036.000
515.0570, 5955.000
516.2390, 5994.000
517.4210, 6071.000
518.6020, 6112.000
519.7830, 6038.000
520.9640, 6030.000
522.1450, 6122.000
523.3260, 6108.000
524.5060, 6140.000
525.6870, 6209.000
526.8670, 6264.000
528.0470, 6178.000
529.2270, 6177.000
530.4070, 6184.716
531.5870, 6323.000
532.7660, 6211.000
533.9450, 6320.000
535.1240, 6381.000
536.3030, 6322.000
537.4820, 6341.000
538.6610, 6393.000
539.8390, 6497.000
541.0180, 6366.000
542.1960, 6418.000
543.3740, 6508.000
544.5520, 6657.000
545.7290, 6572.000
546.9070, 6661.000
548.0840, 6615.000
549.2620, 6639.000
550.4390, 6653.000
551.6160, 6676.000
552.7920, 6737.000
553.9690, 6789.000
555.1450, 6748.000
556.3220, 6813.000
557.4980, 6852.000
558.6740, 6920.000
559.8490, 7047.000
561.0250, 7044.000
562.2000, 7004.000
563.3760, 7101.000
564.5510, 7231.000
565.7260, 7277.000
566.9010, 7370.000
568.0750, 7475.000
569.2500, 7643.000
570.4240, 7767.000
571.5980, 8043.000
572.7720, 8293.000
573.9460, 8692.000
575.1200, 9078.000
576.2930, 9598.000
577.4670, 9979.000
578.6400, 10513.00
579.8130, 10566.00
580.9860, 10436.00
582.1590, 10171.00
583.3310, 9564.000
584.5040, 9274.000
585.6760, 9100.000
586.8480, 8923.000
588.0200, 8898.000
589.1920, 8650.000
590.3630, 8770.000
591.5350, 8601.000
592.7060, 8516.000
593.8770, 8420.000
595.0480, 8335.000
596.2190, 8398.000
597.3900, 8388.000
598.5600, 8486.512
599.7310, 8561.000
600.9010, 8772.000
602.0710, 8858.000
603.2410, 9072.000
604.4100, 9239.000
605.5800, 9289.000
606.7490, 9329.000
607.9190, 9197.000
609.0880, 9107.000
610.2570, 9044.000
611.4250, 9007.000
612.5940, 8984.000
613.7620, 8929.000
614.9310, 8945.000
616.0990, 8938.000
617.2670, 8682.000
618.4340, 8416.000
619.6020, 8362.000
620.7690, 8243.000
621.9370, 8224.000
623.1040, 8267.000
624.2710, 8333.000
625.4380, 8191.000
626.6040, 8308.000
627.7710, 8265.000
628.9370, 8331.000
630.1030, 8321.000
631.2690, 8462.000
632.4350, 8454.000
633.6010, 8449.000
634.7660, 8568.000
635.9320, 8599.000
637.0970, 8683.000
638.2620, 8789.000
639.4270, 8817.719
640.5920, 8877.000
641.7560, 8893.000
642.9210, 8961.000
644.0850, 8958.000
645.2490, 8865.000
646.4130, 9011.000
647.5770, 9213.000
648.7400, 8956.000
649.9040, 9201.000
651.0670, 9175.000
652.2300, 9232.000
653.3930, 9164.000
654.5560, 9170.412
655.7190, 9170.838
656.8810, 9114.000
658.0440, 9160.000
659.2060, 9096.000
660.3680, 9084.000
661.5300, 8993.000
662.6910, 9097.000
663.8530, 9010.000
665.0140, 8944.000
666.1750, 9082.000
667.3360, 8985.000
668.4970, 8918.000
669.6580, 9018.000
670.8190, 8905.000
671.9790, 9023.000
673.1390, 8991.000
674.2990, 9054.000
675.4590, 8973.000
676.6190, 9107.000
677.7790, 9149.000
678.9380, 9099.000
680.0970, 9081.000
681.2570, 9035.000
682.4160, 9060.000
683.5740, 9058.145
684.7330, 9116.000
685.8920, 9105.000
687.0500, 9135.000
688.2080, 9171.000
689.3660, 9167.116
690.5240, 9224.000
691.6820, 9174.000
692.8390, 9181.000
693.9960, 9166.065
695.1540, 9203.919
696.3110, 9202.000
697.4680, 9272.000
698.6240, 9344.000
699.7810, 9300.000
700.9370, 9484.000
702.0940, 9337.000
703.2500, 9497.000
704.4060, 9388.000
705.5610, 9527.000
706.7170, 9496.000
707.8720, 9505.000
709.0280, 9628.000
710.1830, 9593.000
711.3380, 9551.000
712.4920, 9765.000
713.6470, 9675.000
714.8020, 9725.000
715.9560, 9794.000
717.1100, 9748.000
718.2640, 9841.000
719.4180, 9778.000
720.5720, 9844.000
721.7250, 9803.000
722.8780, 9815.000
724.0320, 9823.000
725.1850, 9849.000
726.3380, 9870.000
727.4900, 9892.064
728.6430, 9893.000
729.7950, 9934.000
730.9470, 9916.000
732.1000, 9912.924
733.2510, 9968.217
734.4030, 9955.000
735.5550, 10083.00
736.7060, 10143.00
737.8570, 10231.00
739.0090, 10175.00
740.1600, 10139.00
741.3100, 10176.00
742.4610, 10343.00
743.6110, 10319.00
744.7620, 10333.00
745.9120, 10364.00
747.0620, 10356.00
748.2120, 10458.00
749.3610, 10315.00
750.5110, 10307.00
751.6600, 10555.00
752.8090, 10424.00
753.9580, 10522.00
755.1070, 10424.00
756.2560, 10532.00
757.4050, 10507.00
758.5530, 10557.00
759.7010, 10523.00
760.8490, 10655.00
761.9970, 10644.00
763.1450, 10715.00
764.2920, 10746.00
765.4400, 10766.00
766.5870, 10703.00
767.7340, 10677.00
768.8810, 10748.00
770.0280, 10778.00
771.1740, 10842.00
772.3210, 10872.34
773.4670, 10923.76
774.6130, 10952.00
775.7590, 10994.00
776.9050, 11080.00
778.0510, 11060.00
779.1960, 10866.00
780.3420, 10978.00
781.4870, 10965.00
782.6320, 11190.00
783.7770, 11078.00
784.9210, 11113.00
786.0660, 11157.00
787.2100, 11188.00
788.3540, 11128.00
789.4980, 11169.00
790.6420, 11200.80
791.7860, 11230.00
792.9300, 11299.00
794.0730, 11370.00
795.2160, 11415.00
796.3590, 11397.00
797.5020, 11449.00
798.6450, 11396.00
799.7880, 11485.00
800.9300, 11448.00
802.0720, 11558.00
803.2150, 11651.00
804.3560, 11578.00
805.4980, 11510.00
806.6400, 11555.00
807.7810, 11763.00
808.9230, 11627.00
810.0640, 11734.00
811.2050, 11671.00
812.3460, 11650.00
813.4860, 11705.00
814.6270, 11743.00
815.7670, 11789.00
816.9070, 11889.00
818.0470, 11861.00
819.1870, 11977.00
820.3270, 11994.00
821.4670, 11964.00
822.6060, 11949.00
823.7450, 12101.00
824.8840, 12019.00
826.0230, 12109.00
827.1620, 12147.00
828.3010, 12026.00
829.4390, 12146.00
830.5770, 12352.00
831.7150, 12304.00
832.8530, 12233.00
833.9910, 12168.00
835.1290, 12378.00
836.2660, 12456.00
837.4030, 12478.00
838.5410, 12475.00
839.6780, 12653.00
840.8140, 12439.00
841.9510, 12605.00
843.0870, 12489.00
844.2240, 12653.00
845.3600, 12643.00
846.4960, 12623.00
847.6320, 12649.00
848.7680, 12707.00
849.9030, 12743.28
851.0380, 12960.00
852.1740, 12875.00
853.3090, 12992.00
854.4440, 13067.00
855.5780, 12979.00
856.7130, 12995.00
857.8470, 13164.00
858.9820, 12963.00
860.1160, 13230.00
861.2500, 13310.00
862.3830, 13321.00
863.5170, 13467.00
864.6500, 13462.00
865.7840, 13320.00
866.9170, 13314.00
868.0500, 13413.00
869.1830, 13502.00
870.3150, 13350.00
871.4480, 13397.00
872.5800, 13288.00
873.7120, 13506.00
874.8440, 13556.00
875.9760, 13449.00
877.1080, 13671.00
878.2390, 13380.00
879.3710, 13407.00
880.5020, 13632.00
881.6330, 13658.00
882.7640, 13519.00
883.8940, 13718.00
885.0250, 13820.00
886.1550, 13592.00
887.2850, 13624.00
888.4160, 13774.00
889.5450, 13759.00
890.6750, 13702.00
891.8050, 13942.00
892.9340, 13955.00
894.0630, 13955.00
895.1930, 13931.00
896.3220, 13971.00
897.4500, 14017.92
898.5790, 14064.00
899.7070, 14183.00
900.8360, 14178.00
901.9640, 14301.00
903.0920, 14404.00
904.2200, 14282.00
905.3470, 14408.00
906.4750, 14276.00
907.6020, 14383.00
908.7290, 14374.00
909.8560, 14432.00
910.9830, 14561.00
912.1100, 14390.00
913.2360, 14505.00
914.3630, 14583.00
915.4890, 14735.00
916.6150, 14644.00
917.7410, 14673.00
918.8670, 14575.00
919.9920, 14705.00
921.1180, 14789.00
922.2430, 14747.00
923.3680, 14744.00
924.4930, 14978.00
925.6180, 15005.00
926.7420, 15013.00
927.8670, 15067.00
928.9910, 15129.00
930.1150, 15143.00
931.2390, 15260.00
932.3630, 15301.32
933.4860, 15349.00
934.6100, 15451.00
935.7330, 15532.00
936.8560, 15642.00
937.9790, 15854.00
939.1020, 16040.00
940.2250, 16157.00
941.3470, 16399.00
942.4700, 16613.00
943.5920, 16771.00
944.7140, 17340.00
945.8360, 17577.00
946.9570, 17862.00
948.0790, 18582.00
949.2000, 19084.00
950.3220, 20015.00
951.4430, 21111.00
952.5640, 22501.00
953.6840, 24519.00
954.8050, 26682.00
955.9250, 29834.00
957.0460, 33944.00
958.1660, 38712.00
959.2860, 44432.00
960.4050, 50159.00
961.5250, 55925.00
962.6440, 60374.00
963.7640, 61413.00
964.8830, 58142.00
966.0020, 52302.00
967.1210, 45766.00
968.2390, 39279.00
969.3580, 33747.00
970.4760, 29499.00
971.5940, 26178.00
972.7120, 23569.00
973.8300, 21972.00
974.9480, 20536.00
976.0650, 19608.00
977.1830, 18988.00
978.3000, 18436.00
979.4170, 17960.00
980.5340, 17872.00
981.6500, 17641.00
982.7670, 17236.00
983.8830, 17317.00
985.0000, 17091.00
986.1160, 17208.00
987.2320, 17094.00
988.3470, 17206.00
989.4630, 17197.00
990.5780, 17063.00
991.6940, 16909.00
992.8090, 16906.00
993.9240, 16935.42
995.0380, 17076.00
996.1530, 17129.00
997.2680, 17218.00
998.3820, 17292.00
999.4960, 17536.00
1000.610, 17554.00
1001.724, 17657.00
1002.837, 17651.00
1003.951, 17906.00
1005.064, 18137.00
1006.177, 18215.00
1007.291, 18282.00
1008.403, 18479.00
1009.516, 18433.00
1010.629, 18241.00
1011.741, 18356.00
1012.853, 18344.00
1013.965, 18375.00
1015.077, 18249.00
1016.189, 18343.00
1017.300, 18287.00
1018.412, 18332.00
1019.523, 18500.00
1020.634, 18619.00
1021.745, 18595.00
1022.856, 18703.00
1023.966, 18893.00
1025.077, 19095.00
1026.187, 19237.00
1027.297, 19399.00
1028.407, 19479.00
1029.517, 19809.00
1030.627, 20045.00
1031.736, 20123.00
1032.845, 20163.00
1033.955, 20191.00
1035.064, 19943.00
1036.172, 20111.00
1037.281, 19871.00
1038.390, 19783.00
1039.498, 19684.00
1040.606, 19656.00
1041.714, 19624.53
1042.822, 19575.00
1043.930, 19628.00
1045.037, 19693.00
1046.145, 19709.00
1047.252, 19531.00
1048.359, 19808.00
1049.466, 19727.00
1050.573, 19910.00
1051.679, 19971.00
1052.786, 19858.00
1053.892, 20252.00
1054.998, 20205.00
1056.104, 20379.00
1057.210, 20507.00
1058.315, 20399.00
1059.421, 20524.00
1060.526, 20555.00
1061.631, 20661.00
1062.736, 20365.00
1063.841, 20424.00
1064.946, 20503.00
1066.050, 20565.00
1067.154, 20664.00
1068.258, 20722.00
1069.362, 20902.00
1070.466, 21045.00
1071.570, 20947.00
1072.674, 20932.00
1073.777, 20940.00
1074.880, 20743.00
1075.983, 20861.00
1077.086, 20646.00
1078.189, 20799.00
1079.291, 20538.00
1080.394, 20569.00
1081.496, 20356.00
1082.598, 20323.00
1083.700, 20391.00
1084.802, 20321.00
1085.903, 20298.00
1087.005, 20272.00
1088.106, 20228.00
1089.207, 20218.64
1090.308, 20161.00
1091.409, 20174.00
1092.509, 20160.99
1093.610, 20273.00
1094.710, 20196.00
1095.810, 20247.00
1096.910, 20332.00
1098.010, 20316.00
1099.110, 20375.00
1100.209, 20307.00
1101.309, 20358.84
1102.408, 20404.69
1103.507, 20421.00
1104.606, 20530.00
1105.704, 20577.00
1106.803, 20640.00
1107.901, 20875.00
1108.999, 20880.00
1110.097, 20937.00
1111.195, 20905.00
1112.293, 20811.00
1113.391, 20829.28
1114.488, 20933.00
1115.585, 20869.00
1116.682, 20987.00
1117.779, 21224.00
1118.876, 21101.00
1119.973, 21134.00
1121.069, 21420.00
1122.165, 21288.00
1123.261, 21319.00
1124.357, 21468.00
1125.453, 21171.00
1126.549, 21342.00
1127.644, 21395.00
1128.739, 21221.00
1129.835, 21542.00
1130.930, 21564.00
1132.024, 21456.00
1133.119, 21618.00
1134.214, 21330.00
1135.308, 21650.00
1136.402, 21532.00
1137.496, 21588.00
1138.590, 21647.00
1139.684, 21634.00
1140.777, 21681.00
1141.871, 21933.00
1142.964, 21878.00
1144.057, 21984.00
1145.150, 21948.00
1146.243, 21981.60
1147.335, 21949.00
1148.428, 22057.00
1149.520, 22015.00
1150.612, 22099.00
1151.704, 22028.00
1152.796, 22415.00
1153.887, 21951.00
1154.979, 22208.00
1156.070, 21985.00
1157.161, 22338.00
1158.252, 22326.00
1159.343, 22138.00
1160.433, 22493.00
1161.524, 22202.00
1162.614, 22180.00
1163.704, 22395.00
1164.794, 22331.00
1165.884, 22603.00
1166.974, 22578.00
1168.063, 22566.00
1169.153, 22590.00
1170.242, 22540.00
1171.331, 22545.09
1172.420, 22570.17
1173.508, 22541.00
1174.597, 22653.00
1175.685, 22707.00
1176.774, 22798.00
1177.862, 22849.00
1178.950, 22873.35
1180.037, 22839.00
1181.125, 22890.00
1182.212, 22935.00
1183.300, 22924.00
1184.387, 23015.00
1185.474, 22885.00
1186.560, 22982.00
1187.647, 22964.00
1188.733, 23037.00
1189.820, 23026.00
1190.906, 23072.00
1191.992, 23024.00
1193.078, 23129.00
1194.163, 23242.00
1195.249, 23049.00
1196.334, 23378.00
1197.419, 23213.00
1198.504, 23292.00
1199.589, 23408.00
1200.674, 23453.00
1201.758, 23402.00
1202.843, 23389.00
1203.927, 23524.00
1205.011, 23440.00
1206.095, 23671.00
1207.179, 23349.00
1208.262, 23520.00
1209.345, 23573.00
1210.429, 23558.00
1211.512, 23655.00
1212.595, 23637.00
1213.677, 23788.00
1214.760, 23794.00
1215.842, 23707.00
1216.925, 23953.00
1218.007, 23937.00
1219.089, 23888.00
1220.171, 23891.00
1221.252, 24073.00
1222.334, 23866.00
1223.415, 24036.00
1224.496, 23937.00
1225.577, 24203.00
1226.658, 24094.00
1227.738, 24032.00
1228.819, 23891.00
1229.899, 24194.00
1230.979, 24249.00
1232.060, 24212.00
1233.139, 24357.00
1234.219, 24055.00
1235.299, 24278.00
1236.378, 24275.00
1237.457, 24127.00
1238.536, 24369.00
1239.615, 24360.00
1240.694, 24549.00
1241.772, 24496.00
1242.851, 24454.00
1243.929, 24598.00
1245.007, 24554.00
1246.085, 24497.00
1247.163, 24410.00
1248.240, 24614.00
1249.318, 24582.00
1250.395, 24477.00
1251.472, 24676.00
1252.549, 24710.00
1253.626, 24558.00
1254.703, 24741.00
1255.779, 24764.00
1256.855, 24854.00
1257.931, 24837.00
1259.007, 24863.00
1260.083, 24697.00
1261.159, 24839.00
1262.234, 24753.00
1263.310, 24931.00
1264.385, 24876.00
1265.460, 24766.00
1266.535, 24972.00
1267.610, 24691.00
1268.684, 25067.00
1269.758, 25029.00
1270.833, 25042.00
1271.907, 25150.00
1272.981, 25347.00
1274.054, 25005.00
1275.128, 25280.00
1276.201, 25180.00
1277.275, 25003.00
1278.348, 25159.00
1279.421, 25377.00
1280.493, 25345.00
1281.566, 25418.00
1282.638, 25427.00
1283.711, 25177.00
1284.783, 25479.00
1285.855, 25480.00
1286.927, 25701.00
1287.998, 25503.00
1289.070, 25542.00
1290.141, 25798.00
1291.212, 25626.00
1292.283, 25555.00
1293.354, 25689.00
1294.425, 25581.94
1295.495, 25540.00
1296.566, 25610.00
1297.636, 25726.00
1298.706, 25819.00
1299.776, 26014.00
1300.845, 25940.00
1301.915, 25873.00
1302.984, 25991.00
1304.054, 26277.00
1305.123, 25885.00
1306.191, 26176.00
1307.260, 26000.00
1308.329, 26221.00
1309.397, 26205.00
1310.465, 26134.00
1311.534, 26241.00
1312.602, 26320.00
1313.669, 26446.00
1314.737, 26516.00
1315.804, 26387.00
1316.872, 26393.00
1317.939, 26383.00
1319.006, 26336.00
1320.073, 26412.44
1321.139, 26397.00
1322.206, 26526.00
1323.272, 26628.00
1324.338, 26638.00
1325.404, 26513.00
1326.470, 26710.00
1327.536, 26613.00
1328.601, 26808.00
1329.667, 26821.00
1330.732, 26819.00
1331.797, 26758.00
1332.862, 26779.00
1333.926, 26858.00
1334.991, 26697.00
1336.055, 26850.00
1337.120, 27018.00
1338.184, 26886.00
1339.248, 26896.00
1340.311, 26971.00
1341.375, 27131.00
1342.438, 27090.00
1343.502, 26943.00
1344.565, 26834.00
1345.628, 27104.00
1346.691, 26958.00
1347.753, 27390.00
1348.816, 27132.00
1349.878, 27209.00
1350.940, 27124.00
1352.002, 27134.00
1353.064, 27218.00
1354.126, 27377.00
1355.187, 27245.00
1356.248, 27343.00
1357.310, 27317.00
1358.371, 27269.00
1359.431, 27372.00
1360.492, 27326.00
1361.553, 27726.00
1362.613, 27503.00
1363.673, 27604.00
1364.733, 27420.00
1365.793, 27417.00
1366.853, 27627.00
1367.912, 27442.00
1368.972, 27621.00
1370.031, 27591.00
1371.090, 27563.00
1372.149, 27736.00
1373.208, 27605.00
1374.267, 27540.00
1375.325, 27820.00
1376.383, 27522.00
1377.441, 27759.00
1378.499, 27780.00
1379.557, 27987.00
1380.615, 27979.00
1381.672, 27745.00
1382.730, 27872.00
1383.787, 27861.00
1384.844, 27760.00
1385.901, 27842.00
1386.957, 27817.35
1388.014, 28083.00
1389.070, 27857.00
1390.126, 28101.00
1391.182, 28127.00
1392.238, 28106.00
1393.294, 27955.00
1394.349, 28145.00
1395.405, 28138.00
1396.460, 28226.00
1397.515, 28113.00
1398.570, 28202.00
1399.625, 28324.00
1400.679, 28224.00
1401.734, 28210.00
1402.788, 28432.00
1403.842, 28301.00
1404.896, 28567.00
1405.950, 28344.00
1407.003, 28464.00
1408.057, 28368.00
1409.110, 28636.00
1410.163, 28379.00
1411.216, 28606.00
1412.269, 28464.00
1413.322, 28579.00
1414.374, 28512.00
1415.427, 28535.36
1416.479, 28652.00
1417.531, 28668.00
1418.583, 28752.00
1419.634, 28769.74
1420.686, 28749.00
1421.737, 28775.00
1422.788, 28693.00
1423.839, 28658.02
1424.890, 28909.00
1425.941, 28770.00
1426.992, 28776.00
1428.042, 29062.00
1429.092, 28873.00
1430.142, 29002.00
1431.192, 28764.00
1432.242, 29066.00
1433.291, 29093.00
1434.341, 29092.00
1435.390, 29054.00
1436.439, 29023.00
1437.488, 29040.67
1438.537, 29027.00
1439.586, 29022.00
1440.634, 29256.00
1441.682, 29161.00
1442.731, 29263.00
1443.779, 29286.00
1444.826, 29269.00
1445.874, 29330.03
1446.922, 29330.00
1447.969, 29350.00
1449.016, 29293.00
1450.063, 29233.00
1451.110, 29323.00
1452.157, 29283.09
1453.203, 29374.00
1454.250, 29346.00
1455.296, 29568.00
1456.342, 29678.00
1457.388, 29401.00
1458.433, 29554.00
1459.479, 29758.00
1460.524, 29491.00
1461.570, 29725.00
1462.615, 29625.00
1463.660, 29416.00
1464.705, 29567.00
1465.749, 29719.00
1466.794, 29904.00
1467.838, 29860.00
1468.882, 29756.00
1469.926, 29882.00
1470.970, 29742.00
1472.013, 29893.00
1473.057, 29709.00
1474.100, 29818.00
1475.143, 29910.00
1476.186, 29844.00
1477.229, 29986.00
1478.272, 29862.00
1479.314, 29854.00
1480.357, 30053.00
1481.399, 30136.00
1482.441, 30040.00
1483.483, 30221.00
1484.525, 30061.00
1485.566, 30164.00
1486.608, 30144.00
1487.649, 30175.00
1488.690, 30197.00
1489.731, 29910.00
1490.771, 30233.00
1491.812, 30197.00
1492.853, 30008.00
1493.893, 30359.00
1494.933, 30251.00
1495.973, 30257.00
1497.013, 30265.00
1498.052, 30334.00
1499.092, 30289.00
1500.131, 30176.00
1501.170, 30189.00
1502.209, 30376.00
1503.248, 30603.00
1504.287, 30362.00
1505.325, 30216.00
1506.363, 30577.00
1507.402, 30396.00
1508.440, 30281.00
1509.478, 30705.00
1510.515, 30836.00
1511.553, 30681.00
1512.590, 30487.00
1513.627, 30785.00
1514.664, 30565.00
1515.701, 30631.00
1516.738, 30618.00
1517.775, 30720.00
1518.811, 30750.43
1519.847, 30773.47
1520.883, 30844.00
1521.919, 30816.00
1522.955, 30833.00
1523.991, 30838.00
1525.026, 30744.00
1526.061, 30666.00
1527.096, 30739.00
1528.131, 30900.00
1529.166, 30892.00
1530.201, 31038.00
1531.235, 30758.00
1532.270, 30913.00
1533.304, 31045.00
1534.338, 30909.00
1535.372, 31030.00
1536.405, 31156.00
1537.439, 31092.00
1538.472, 31237.00
1539.505, 31206.00
1540.538, 31187.00
1541.571, 31011.00
1542.604, 31130.00
1543.637, 31314.00
1544.669, 30942.00
1545.701, 31182.00
1546.733, 31160.00
1547.765, 31123.00
1548.797, 31069.00
1549.829, 31251.00
1550.860, 31325.00
1551.891, 31639.00
1552.922, 31528.00
1553.953, 31430.00
1554.984, 31638.00
1556.015, 31536.00
1557.045, 31430.00
1558.076, 31470.00
1559.106, 31570.00
1560.136, 31581.00
1561.165, 31415.00
1562.195, 31438.00
1563.225, 31306.00
1564.254, 31473.00
1565.283, 31705.00
##END=



