##NAMES=Fluorapatite
##RRUFFID=R040098
##IDEAL CHEMISTRY=Ca_5_(PO_4_)_3_F
##LOCALITY=Cerro de Mercado mine, Durango, Mexico
##OWNER=RRUFF
##SOURCE=Marcus Origlieri
##DESCRIPTION=Pale yellow short hexagonal prism
##STATUS=The identification of this mineral has been confirmed by X-ray diffraction and chemical analysis
##URL=rruff.info/R040098
##MEASURED CHEMISTRY=Ca_5.00_((P_0.98_Si_0.01_S_0.01_)O_4_)_3_F_1.00_
##PIN_ID=M00032
##ORIENTATION=Laser parallel to [-1 -1 0]. Fiducial mark perpendicular to laser is parallel to c [0 0 1]
59.67900, 2254.000
60.92500, 2069.000
62.17000, 2199.000
63.41600, 2087.000
64.66100, 1909.000
65.90700, 1650.000
67.15200, 1548.000
68.39700, 1665.000
69.64100, 1764.000
70.88600, 1770.000
72.13000, 1680.000
73.37400, 1580.000
74.61800, 1627.000
75.86200, 1692.000
77.10600, 1804.000
78.34900, 1689.000
79.59300, 1612.000
80.83600, 1529.000
82.07900, 1482.000
83.32100, 1457.000
84.56400, 1427.000
85.80600, 1345.000
87.04800, 1276.000
88.29000, 1250.000
89.53200, 1208.000
90.77400, 1280.000
92.01500, 1241.495
93.25700, 1244.914
94.49800, 1255.000
95.73900, 1220.000
96.98000, 1258.000
98.22000, 1231.000
99.46100, 1253.000
100.7010, 1236.000
101.9410, 1205.000
103.1810, 1198.000
104.4210, 1194.481
105.6600, 1190.000
106.9000, 1223.000
108.1390, 1210.000
109.3780, 1266.000
110.6170, 1208.000
111.8550, 1234.000
113.0940, 1324.000
114.3320, 1370.000
115.5700, 1473.000
116.8080, 1478.000
118.0460, 1477.000
119.2830, 1425.000
120.5210, 1353.000
121.7580, 1257.000
122.9950, 1264.000
124.2320, 1259.000
125.4690, 1231.000
126.7050, 1270.000
127.9410, 1249.000
129.1780, 1273.000
130.4140, 1317.000
131.6490, 1431.000
132.8850, 1466.000
134.1200, 1492.000
135.3560, 1561.000
136.5910, 1552.000
137.8260, 1584.000
139.0610, 1670.000
140.2950, 1607.000
141.5290, 1566.000
142.7640, 1475.000
143.9980, 1387.000
145.2320, 1363.000
146.4650, 1302.000
147.6990, 1271.846
148.9320, 1270.000
150.1650, 1247.000
151.3980, 1246.000
152.6310, 1282.000
153.8640, 1338.000
155.0960, 1375.000
156.3280, 1416.000
157.5600, 1482.000
158.7920, 1488.000
160.0240, 1525.000
161.2560, 1459.000
162.4870, 1448.000
163.7180, 1385.000
164.9490, 1379.000
166.1800, 1400.000
167.4110, 1370.000
168.6410, 1410.000
169.8720, 1407.000
171.1020, 1419.000
172.3320, 1441.000
173.5620, 1431.000
174.7910, 1448.000
176.0210, 1458.000
177.2500, 1501.000
178.4790, 1568.000
179.7080, 1563.000
180.9370, 1629.000
182.1650, 1626.000
183.3940, 1571.000
184.6220, 1611.000
185.8500, 1569.044
187.0780, 1487.000
188.3050, 1525.000
189.5330, 1432.000
190.7600, 1406.000
191.9870, 1388.000
193.2140, 1386.000
194.4410, 1369.006
195.6680, 1315.000
196.8940, 1364.000
198.1200, 1353.000
199.3470, 1375.000
200.5720, 1413.000
201.7980, 1419.981
203.0240, 1442.000
204.2490, 1466.000
205.4740, 1496.000
206.6990, 1524.000
207.9240, 1660.000
209.1490, 1700.149
210.3740, 1770.000
211.5980, 1800.000
212.8220, 1811.000
214.0460, 1795.589
215.2700, 1696.000
216.4930, 1703.000
217.7170, 1649.000
218.9400, 1581.000
220.1630, 1588.000
221.3860, 1581.000
222.6090, 1550.000
223.8320, 1608.000
225.0540, 1590.000
226.2760, 1569.000
227.4980, 1671.000
228.7200, 1668.368
229.9420, 1702.643
231.1630, 1730.000
232.3850, 1757.000
233.6060, 1729.000
234.8270, 1748.000
236.0480, 1689.000
237.2690, 1668.000
238.4890, 1605.000
239.7090, 1570.000
240.9290, 1452.000
242.1490, 1442.000
243.3690, 1413.000
244.5890, 1395.000
245.8080, 1400.000
247.0270, 1407.000
248.2470, 1367.000
249.4650, 1370.000
250.6840, 1358.000
251.9030, 1365.000
253.1210, 1408.000
254.3390, 1332.000
255.5570, 1400.000
256.7750, 1362.000
257.9930, 1407.000
259.2100, 1442.000
260.4280, 1429.000
261.6450, 1476.000
262.8620, 1552.000
264.0790, 1579.000
265.2950, 1666.000
266.5120, 1668.000
267.7280, 1655.000
268.9440, 1749.000
270.1600, 1674.000
271.3760, 1615.000
272.5920, 1666.000
273.8070, 1613.000
275.0220, 1676.000
276.2370, 1657.000
277.4520, 1679.000
278.6670, 1641.000
279.8820, 1735.000
281.0960, 1716.000
282.3100, 1748.000
283.5240, 1791.000
284.7380, 1825.000
285.9520, 1840.251
287.1650, 1865.000
288.3780, 1853.000
289.5920, 1830.000
290.8050, 1809.000
292.0170, 1813.000
293.2300, 1802.000
294.4430, 1752.000
295.6550, 1778.000
296.8670, 1710.000
298.0790, 1666.000
299.2910, 1681.000
300.5020, 1701.000
301.7140, 1701.000
302.9250, 1705.800
304.1360, 1695.526
305.3470, 1692.000
306.5580, 1668.000
307.7680, 1642.000
308.9780, 1639.000
310.1890, 1612.000
311.3990, 1607.377
312.6090, 1622.000
313.8180, 1584.000
315.0280, 1529.000
316.2370, 1489.000
317.4460, 1494.000
318.6550, 1457.000
319.8640, 1469.000
321.0730, 1453.000
322.2810, 1400.000
323.4890, 1442.000
324.6980, 1349.000
325.9060, 1369.000
327.1130, 1440.000
328.3210, 1392.000
329.5280, 1347.000
330.7360, 1379.000
331.9430, 1385.000
333.1500, 1367.000
334.3560, 1393.000
335.5630, 1336.000
336.7690, 1334.000
337.9760, 1342.000
339.1820, 1353.000
340.3870, 1327.000
341.5930, 1317.000
342.7990, 1351.000
344.0040, 1331.000
345.2090, 1358.000
346.4140, 1364.000
347.6190, 1352.000
348.8240, 1359.000
350.0280, 1377.000
351.2330, 1385.000
352.4370, 1356.000
353.6410, 1344.000
354.8440, 1417.000
356.0480, 1323.000
357.2520, 1398.000
358.4550, 1307.000
359.6580, 1381.000
360.8610, 1384.000
362.0640, 1349.000
363.2660, 1290.000
364.4690, 1377.000
365.6710, 1387.000
366.8730, 1394.000
368.0750, 1404.000
369.2770, 1359.000
370.4780, 1367.000
371.6800, 1360.000
372.8810, 1407.000
374.0820, 1394.000
375.2830, 1380.000
376.4830, 1409.125
377.6840, 1397.048
378.8840, 1439.000
380.0840, 1387.000
381.2840, 1400.000
382.4840, 1358.000
383.6840, 1412.000
384.8830, 1396.000
386.0830, 1396.000
387.2820, 1433.000
388.4810, 1487.000
389.6800, 1439.000
390.8780, 1477.626
392.0770, 1465.000
393.2750, 1474.000
394.4730, 1482.000
395.6710, 1453.000
396.8690, 1490.000
398.0660, 1466.000
399.2640, 1525.000
400.4610, 1529.000
401.6580, 1544.000
402.8550, 1537.000
404.0520, 1554.000
405.2490, 1564.000
406.4450, 1571.000
407.6410, 1634.000
408.8370, 1599.000
410.0330, 1692.000
411.2290, 1647.000
412.4240, 1681.000
413.6200, 1735.000
414.8150, 1767.000
416.0100, 1860.000
417.2050, 1921.000
418.4000, 2063.000
419.5940, 2126.000
420.7880, 2251.000
421.9830, 2397.000
423.1770, 2679.000
424.3700, 2955.000
425.5640, 3282.000
426.7580, 3780.000
427.9510, 4134.000
429.1440, 4542.000
430.3370, 4843.000
431.5300, 4916.000
432.7220, 4732.000
433.9150, 4502.000
435.1070, 4138.000
436.2990, 3765.000
437.4910, 3424.000
438.6830, 3179.496
439.8750, 3030.000
441.0660, 2806.000
442.2570, 2716.000
443.4480, 2680.000
444.6390, 2560.000
445.8300, 2638.000
447.0210, 2630.000
448.2110, 2601.000
449.4010, 2557.000
450.5910, 2543.000
451.7810, 2522.000
452.9710, 2402.000
454.1610, 2378.000
455.3500, 2313.000
456.5390, 2252.000
457.7280, 2187.335
458.9170, 2114.793
460.1060, 2060.000
461.2940, 1976.000
462.4830, 1968.000
463.6710, 1924.000
464.8590, 1904.000
466.0470, 1852.000
467.2350, 1802.000
468.4220, 1793.000
469.6090, 1770.000
470.7970, 1750.000
471.9840, 1744.499
473.1700, 1733.000
474.3570, 1720.000
475.5440, 1718.000
476.7300, 1683.000
477.9160, 1715.000
479.1020, 1676.000
480.2880, 1712.000
481.4740, 1699.819
482.6590, 1692.000
483.8440, 1665.000
485.0300, 1694.000
486.2140, 1625.000
487.3990, 1679.000
488.5840, 1643.000
489.7680, 1646.000
490.9530, 1657.000
492.1370, 1624.000
493.3210, 1648.000
494.5040, 1621.000
495.6880, 1623.613
496.8720, 1688.000
498.0550, 1630.000
499.2380, 1657.000
500.4210, 1676.000
501.6040, 1636.000
502.7860, 1649.000
503.9690, 1686.000
505.1510, 1615.000
506.3330, 1663.000
507.5150, 1649.000
508.6970, 1646.000
509.8780, 1652.000
511.0600, 1656.000
512.2410, 1659.000
513.4220, 1673.257
514.6030, 1665.000
515.7840, 1703.000
516.9640, 1713.000
518.1440, 1729.000
519.3250, 1716.000
520.5050, 1692.000
521.6850, 1709.000
522.8640, 1710.000
524.0440, 1731.000
525.2230, 1714.000
526.4020, 1729.000
527.5820, 1762.000
528.7600, 1747.000
529.9390, 1745.000
531.1180, 1706.000
532.2960, 1711.000
533.4740, 1746.000
534.6520, 1755.000
535.8300, 1776.560
537.0080, 1757.000
538.1850, 1795.000
539.3630, 1803.000
540.5400, 1764.000
541.7170, 1736.000
542.8940, 1748.000
544.0700, 1744.000
545.2470, 1743.000
546.4230, 1794.000
547.5990, 1841.000
548.7750, 1838.000
549.9510, 1832.000
551.1270, 1839.000
552.3020, 1833.000
553.4780, 1853.000
554.6530, 1790.000
555.8280, 1861.000
557.0030, 1875.000
558.1770, 1917.000
559.3520, 1860.000
560.5260, 1858.000
561.7000, 1905.000
562.8740, 1878.000
564.0480, 1911.000
565.2220, 1952.000
566.3950, 1979.000
567.5680, 2012.000
568.7420, 2017.000
569.9150, 2000.000
571.0870, 2027.000
572.2600, 2074.540
573.4320, 2119.000
574.6050, 2201.000
575.7770, 2288.000
576.9490, 2347.000
578.1210, 2529.000
579.2920, 2670.000
580.4640, 2827.000
581.6350, 2905.670
582.8060, 3105.000
583.9770, 3063.000
585.1480, 3036.000
586.3190, 3174.000
587.4890, 3511.000
588.6590, 3951.000
589.8290, 4527.000
590.9990, 5035.000
592.1690, 5291.000
593.3390, 4952.000
594.5080, 4405.000
595.6770, 3764.000
596.8470, 3257.000
598.0160, 2902.000
599.1840, 2747.000
600.3530, 2604.000
601.5210, 2633.000
602.6900, 2585.000
603.8580, 2898.000
605.0260, 3501.000
606.1930, 3194.000
607.3610, 3450.000
608.5280, 3434.000
609.6960, 3302.000
610.8630, 2961.000
612.0300, 2647.000
613.1970, 2597.000
614.3630, 2467.000
615.5300, 2482.000
616.6960, 2481.000
617.8620, 2417.000
619.0280, 2437.000
620.1940, 2356.000
621.3590, 2343.000
622.5250, 2378.000
623.6900, 2291.531
624.8550, 2216.000
626.0200, 2190.272
627.1850, 2240.898
628.3490, 2267.966
629.5140, 2272.738
630.6780, 2188.443
631.8420, 2219.162
633.0060, 2203.789
634.1700, 2186.526
635.3330, 2233.435
636.4970, 2162.096
637.6600, 2207.988
638.8230, 2207.084
639.9860, 2201.000
641.1490, 2192.000
642.3110, 2238.000
643.4740, 2229.000
644.6360, 2239.061
645.7980, 2232.000
646.9600, 2264.000
648.1220, 2233.000
649.2840, 2281.000
650.4450, 2318.000
651.6060, 2312.000
652.7670, 2303.000
653.9280, 2377.000
655.0890, 2357.000
656.2500, 2322.000
657.4100, 2376.000
658.5700, 2291.000
659.7300, 2348.000
660.8900, 2368.000
662.0500, 2329.000
663.2100, 2305.000
664.3690, 2320.000
665.5280, 2261.000
666.6880, 2323.000
667.8460, 2285.000
669.0050, 2316.000
670.1640, 2242.000
671.3220, 2244.000
672.4810, 2342.000
673.6390, 2246.470
674.7970, 2303.977
675.9540, 2337.920
677.1120, 2349.573
678.2690, 2272.153
679.4270, 2309.750
680.5840, 2301.252
681.7410, 2290.864
682.8980, 2344.646
684.0540, 2280.178
685.2110, 2332.942
686.3670, 2338.907
687.5230, 2366.290
688.6790, 2347.295
689.8350, 2342.625
690.9900, 2384.343
692.1460, 2400.378
693.3010, 2384.000
694.4560, 2393.000
695.6110, 2417.000
696.7660, 2388.000
697.9210, 2417.000
699.0750, 2401.000
700.2290, 2371.000
701.3840, 2385.000
702.5370, 2377.000
703.6910, 2457.000
704.8450, 2451.000
705.9980, 2437.000
707.1520, 2392.000
708.3050, 2387.000
709.4580, 2468.000
710.6110, 2444.000
711.7630, 2468.000
712.9160, 2470.000
714.0680, 2437.000
715.2200, 2434.000
716.3720, 2518.000
717.5240, 2550.000
718.6760, 2504.000
719.8270, 2465.000
720.9780, 2540.000
722.1300, 2547.000
723.2810, 2534.000
724.4310, 2553.000
725.5820, 2548.000
726.7330, 2533.000
727.8830, 2590.000
729.0330, 2573.000
730.1830, 2532.000
731.3330, 2525.000
732.4830, 2611.000
733.6320, 2603.000
734.7810, 2571.000
735.9310, 2680.000
737.0800, 2647.000
738.2290, 2577.000
739.3770, 2632.000
740.5260, 2608.000
741.6740, 2584.000
742.8220, 2568.000
743.9700, 2619.000
745.1180, 2621.000
746.2660, 2657.000
747.4130, 2669.000
748.5610, 2678.000
749.7080, 2665.000
750.8550, 2639.000
752.0020, 2631.000
753.1490, 2700.000
754.2950, 2662.000
755.4420, 2622.000
756.5880, 2711.000
757.7340, 2788.000
758.8800, 2727.000
760.0250, 2761.000
761.1710, 2761.000
762.3160, 2723.000
763.4620, 2663.000
764.6070, 2688.000
765.7520, 2747.000
766.8960, 2811.000
768.0410, 2793.000
769.1850, 2813.000
770.3300, 2854.000
771.4740, 2779.000
772.6180, 2834.000
773.7610, 2850.000
774.9050, 2882.000
776.0480, 2824.000
777.1920, 2882.000
778.3350, 2871.000
779.4780, 2881.960
780.6200, 2895.208
781.7630, 2919.000
782.9060, 2888.000
784.0480, 2904.000
785.1900, 2880.000
786.3320, 2904.000
787.4740, 2900.000
788.6150, 2884.000
789.7570, 2897.000
790.8980, 2929.000
792.0390, 2880.565
793.1800, 2939.820
794.3210, 2975.514
795.4620, 2988.915
796.6020, 2913.241
797.7420, 2952.582
798.8830, 2945.835
800.0230, 2937.193
801.1620, 2992.716
802.3020, 2929.997
803.4420, 2984.508
804.5810, 2992.217
805.7200, 3048.000
806.8590, 3028.000
807.9980, 3047.000
809.1370, 3071.000
810.2750, 3014.000
811.4140, 3046.000
812.5520, 3030.000
813.6900, 3026.000
814.8280, 3004.000
815.9650, 3081.000
817.1030, 3096.000
818.2400, 3100.000
819.3780, 3100.000
820.5150, 3115.000
821.6520, 3152.000
822.7880, 3143.000
823.9250, 3161.000
825.0610, 3210.000
826.1980, 3127.000
827.3340, 3141.000
828.4700, 3278.000
829.6050, 3174.279
830.7410, 3295.000
831.8760, 3114.000
833.0120, 3199.000
834.1470, 3225.000
835.2820, 3288.000
836.4160, 3280.000
837.5510, 3329.000
838.6860, 3272.000
839.8200, 3252.000
840.9540, 3248.000
842.0880, 3342.000
843.2220, 3249.000
844.3550, 3369.000
845.4890, 3316.000
846.6220, 3285.000
847.7550, 3301.000
848.8880, 3304.000
850.0210, 3384.000
851.1540, 3459.000
852.2860, 3412.000
853.4190, 3420.000
854.5510, 3441.000
855.6830, 3459.000
856.8150, 3534.000
857.9460, 3532.000
859.0780, 3532.000
860.2090, 3606.000
861.3410, 3575.307
862.4720, 3619.000
863.6020, 3554.000
864.7330, 3549.000
865.8640, 3520.802
866.9940, 3494.000
868.1240, 3563.000
869.2540, 3590.000
870.3840, 3679.000
871.5140, 3556.000
872.6440, 3549.000
873.7730, 3569.630
874.9020, 3544.992
876.0320, 3601.000
877.1600, 3583.000
878.2890, 3616.000
879.4180, 3623.000
880.5460, 3630.000
881.6750, 3583.000
882.8030, 3617.000
883.9310, 3635.000
885.0590, 3671.000
886.1860, 3676.000
887.3140, 3701.000
888.4410, 3707.000
889.5680, 3717.000
890.6950, 3678.000
891.8220, 3730.000
892.9490, 3722.000
894.0750, 3760.000
895.2020, 3782.000
896.3280, 4071.000
897.4540, 3939.416
898.5800, 3925.779
899.7050, 3861.000
900.8310, 3740.000
901.9560, 3774.000
903.0820, 3804.000
904.2070, 3854.000
905.3320, 3869.000
906.4560, 3799.000
907.5810, 3867.000
908.7050, 3787.000
909.8300, 3819.000
910.9540, 3820.000
912.0780, 3896.000
913.2010, 3908.000
914.3250, 3854.000
915.4480, 4092.000
916.5720, 4023.145
917.6950, 4186.000
918.8180, 4028.000
919.9410, 4029.000
921.0630, 3975.000
922.1860, 3932.000
923.3080, 3980.000
924.4300, 4003.000
925.5520, 4032.000
926.6740, 4153.000
927.7960, 4061.000
928.9170, 4150.000
930.0390, 4039.000
931.1600, 4080.000
932.2810, 4171.000
933.4020, 4162.000
934.5230, 4175.000
935.6430, 4222.000
936.7640, 4255.000
937.8840, 4291.000
939.0040, 4311.000
940.1240, 4329.000
941.2440, 4406.000
942.3630, 4495.265
943.4830, 4580.071
944.6020, 4686.000
945.7210, 4791.000
946.8400, 4883.671
947.9590, 5005.396
949.0770, 5079.000
950.1960, 5265.000
951.3140, 5370.000
952.4320, 5545.000
953.5500, 5924.000
954.6680, 6151.000
955.7860, 6711.000
956.9030, 7692.000
958.0210, 8937.000
959.1380, 10968.00
960.2550, 13937.00
961.3720, 18276.00
962.4890, 24811.00
963.6050, 31916.00
964.7220, 36617.00
965.8380, 35735.00
966.9540, 30185.00
968.0700, 23498.00
969.1860, 17638.00
970.3010, 13606.00
971.4170, 10953.00
972.5320, 9346.000
973.6470, 8311.000
974.7620, 7257.000
975.8770, 6710.000
976.9910, 6160.000
978.1060, 5755.000
979.2200, 5507.604
980.3340, 5314.000
981.4480, 5242.000
982.5620, 5057.000
983.6760, 5023.000
984.7890, 4914.000
985.9030, 4854.498
987.0160, 4791.000
988.1290, 4805.000
989.2420, 4798.000
990.3550, 4842.000
991.4670, 4878.000
992.5800, 4804.000
993.6920, 4762.000
994.8040, 4848.000
995.9160, 4699.000
997.0280, 4889.000
998.1390, 4849.000
999.2510, 4825.000
1000.362, 4885.000
1001.473, 4923.000
1002.584, 4863.000
1003.695, 4948.000
1004.805, 4999.000
1005.916, 5120.000
1007.026, 5087.000
1008.136, 5106.000
1009.246, 5231.000
1010.356, 5246.000
1011.466, 5331.000
1012.576, 5343.000
1013.685, 5299.000
1014.794, 5240.000
1015.903, 5142.000
1017.012, 5169.000
1018.121, 5251.000
1019.229, 5118.000
1020.338, 5216.000
1021.446, 5195.000
1022.554, 5197.000
1023.662, 5279.000
1024.770, 5330.000
1025.878, 5334.000
1026.985, 5339.000
1028.092, 5489.000
1029.200, 5491.000
1030.307, 5607.000
1031.413, 5933.000
1032.520, 5914.000
1033.627, 6060.000
1034.733, 5919.000
1035.839, 6061.000
1036.945, 6116.000
1038.051, 6185.000
1039.157, 6422.000
1040.262, 6553.000
1041.368, 6785.000
1042.473, 6880.000
1043.578, 6940.000
1044.683, 6769.000
1045.788, 6950.612
1046.893, 7697.000
1047.997, 7457.000
1049.101, 7665.000
1050.205, 8328.080
1051.309, 9347.896
1052.413, 9811.077
1053.517, 9723.569
1054.621, 8771.653
1055.724, 7915.249
1056.827, 7187.000
1057.930, 6772.000
1059.033, 6739.000
1060.136, 6584.000
1061.238, 6467.000
1062.341, 6403.000
1063.443, 6199.000
1064.545, 6122.000
1065.647, 6026.000
1066.749, 5960.000
1067.850, 5964.000
1068.952, 5855.000
1070.053, 5953.000
1071.154, 5900.000
1072.255, 6055.000
1073.356, 5971.000
1074.457, 6079.000
1075.557, 6257.000
1076.658, 6282.000
1077.758, 6571.000
1078.858, 6802.000
1079.958, 6956.000
1081.057, 6962.000
1082.157, 6967.000
1083.256, 6756.000
1084.356, 6560.000
1085.455, 6503.000
1086.554, 6357.000
1087.653, 6194.000
1088.751, 6196.000
1089.850, 6099.000
1090.948, 5919.000
1092.046, 5961.000
1093.144, 5860.000
1094.242, 5916.000
1095.340, 5919.000
1096.437, 5795.000
1097.534, 5935.000
1098.632, 5951.000
1099.729, 5843.000
1100.826, 5940.000
1101.922, 5953.000
1103.019, 5817.000
1104.115, 5986.000
1105.212, 5849.000
1106.308, 5886.000
1107.404, 5996.000
1108.499, 5889.000
1109.595, 5938.000
1110.691, 5978.000
1111.786, 6030.000
1112.881, 5989.000
1113.976, 5987.000
1115.071, 5939.000
1116.166, 6132.000
1117.260, 6088.000
1118.355, 6082.000
1119.449, 6176.000
1120.543, 6082.000
1121.637, 6247.000
1122.731, 6301.000
1123.824, 6236.000
1124.918, 6221.000
1126.011, 6207.000
1127.104, 6209.000
1128.197, 6159.000
1129.290, 6208.000
1130.382, 6171.000
1131.475, 6197.000
1132.567, 6153.000
1133.659, 6315.000
1134.751, 6373.000
1135.843, 6361.081
1136.935, 6268.000
1138.027, 6295.000
1139.118, 6380.000
1140.209, 6229.000
1141.300, 6363.000
1142.391, 6411.000
1143.482, 6339.000
1144.573, 6272.000
1145.663, 6372.000
1146.754, 6388.000
1147.844, 6398.000
1148.934, 6472.000
1150.024, 6417.000
1151.113, 6500.000
1152.203, 6424.000
1153.292, 6486.000
1154.381, 6474.000
1155.470, 6510.000
1156.559, 6547.000
1157.648, 6540.000
1158.737, 6547.000
1159.825, 6586.000
1160.913, 6499.000
1162.001, 6508.000
1163.089, 6542.000
1164.177, 6578.000
1165.265, 6584.000
1166.352, 6511.000
1167.440, 6575.000
1168.527, 6593.000
1169.614, 6507.000
1170.701, 6538.000
1171.788, 6637.000
1172.874, 6617.486
1173.961, 6630.136
1175.047, 6725.000
1176.133, 6584.000
1177.219, 6689.000
1178.305, 6661.000
1179.390, 6662.000
1180.476, 6656.000
1181.561, 6632.000
1182.646, 6746.000
1183.731, 6670.000
1184.816, 6723.000
1185.901, 6678.000
1186.985, 6773.000
1188.070, 6747.000
1189.154, 6841.000
1190.238, 6795.000
1191.322, 6811.000
1192.406, 6853.000
1193.489, 6984.000
1194.573, 6806.000
1195.656, 6812.000
1196.739, 6932.000
1197.822, 6819.000
1198.905, 6909.000
1199.988, 6872.000
1201.070, 6877.000
1202.153, 6970.000
1203.235, 6988.000
1204.317, 6968.000
1205.399, 7045.000
1206.481, 6923.000
1207.562, 7014.000
1208.644, 7110.000
1209.725, 7040.000
1210.806, 7096.000
1211.887, 6970.000
1212.968, 7017.000
1214.049, 7053.000
1215.129, 7143.000
1216.209, 7169.000
1217.290, 7149.000
1218.370, 7177.000
1219.450, 7202.000
1220.529, 7198.639
1221.609, 7245.681
1222.688, 7228.000
1223.768, 7281.000
1224.847, 7330.000
1225.926, 7260.000
1227.005, 7340.000
1228.083, 7447.000
1229.162, 7322.000
1230.240, 7380.000
1231.318, 7323.000
1232.396, 7319.000
1233.474, 7382.000
1234.552, 7483.000
1235.629, 7425.000
1236.707, 7482.000
1237.784, 7542.000
1238.861, 7453.000
1239.938, 7504.000
1241.015, 7453.000
1242.092, 7492.000
1243.168, 7452.000
1244.244, 7482.000
1245.321, 7568.000
1246.397, 7598.000
1247.473, 7569.000
1248.548, 7611.000
1249.624, 7556.000
1250.699, 7531.000
1251.775, 7625.000
1252.850, 7637.000
1253.925, 7530.000
1254.999, 7624.000
1256.074, 7523.000
1257.148, 7687.000
1258.223, 7710.000
1259.297, 7621.000
1260.371, 7665.000
1261.445, 7746.000
1262.519, 7610.000
1263.592, 7647.000
1264.666, 7780.000
1265.739, 7744.000
1266.812, 7737.000
1267.885, 7723.000
1268.958, 7720.646
1270.030, 7741.240
1271.103, 7748.000
1272.175, 7783.000
1273.247, 7784.125
1274.319, 7832.000
1275.391, 7805.000
1276.463, 7817.000
1277.535, 7845.843
1278.606, 7862.477
1279.677, 7922.000
1280.748, 7943.000
1281.819, 7961.000
1282.890, 8016.000
1283.961, 7931.000
1285.031, 8021.000
1286.102, 8014.000
1287.172, 8055.000
1288.242, 7995.000
1289.312, 8096.000
1290.381, 8062.000
1291.451, 8126.000
1292.520, 8041.000
1293.590, 7972.000
1294.659, 8059.000
1295.728, 8150.000
1296.797, 8123.000
1297.865, 8195.000
1298.934, 8236.000
1300.002, 8165.000
1301.070, 8186.000
1302.138, 8174.000
1303.206, 8277.000
1304.274, 8401.000
1305.341, 8251.000
1306.409, 8425.000
1307.476, 8401.000
1308.543, 8397.000
1309.610, 8279.000
1310.677, 8441.000
1311.744, 8331.000
1312.810, 8457.000
1313.877, 8364.000
1314.943, 8405.000
1316.009, 8606.000
1317.075, 8540.000
1318.140, 8560.000
1319.206, 8553.000
1320.272, 8598.000
1321.337, 8621.000
1322.402, 8715.000
1323.467, 8621.000
1324.532, 8572.000
1325.596, 8648.000
1326.661, 8648.000
1327.725, 8731.000
1328.790, 8628.000
1329.854, 8725.000
1330.918, 8594.000
1331.981, 8664.000
1333.045, 8749.000
1334.108, 8746.000
1335.172, 8755.000
1336.235, 8742.206
1337.298, 8608.000
1338.361, 8679.000
1339.423, 8655.000
1340.486, 8656.000
1341.548, 8839.000
1342.611, 8702.000
1343.673, 8855.000
1344.735, 8762.000
1345.796, 8775.000
1346.858, 8820.000
1347.919, 8807.000
1348.981, 8965.000
1350.042, 8932.000
1351.103, 8991.000
1352.164, 8891.000
1353.225, 8937.000
1354.285, 8906.000
1355.346, 8904.000
1356.406, 9054.000
1357.466, 8962.000
1358.526, 9053.000
1359.586, 9080.000
1360.645, 8962.000
1361.705, 9079.000
1362.764, 8994.000
1363.823, 9096.000
1364.882, 9134.000
1365.941, 9177.000
1367.000, 9172.000
1368.059, 9195.344
1369.117, 9266.000
1370.175, 9170.000
1371.233, 9250.000
1372.291, 9169.000
1373.349, 9141.000
1374.407, 9283.000
1375.464, 9219.000
1376.522, 9281.000
1377.579, 9357.000
1378.636, 9296.000
1379.693, 9332.000
1380.750, 9317.000
1381.806, 9394.000
1382.863, 9456.000
1383.919, 9340.000
1384.975, 9443.000
1386.031, 9410.000
1387.087, 9434.000
1388.143, 9464.000
1389.199, 9436.000
1390.254, 9576.000
1391.309, 9382.000
1392.364, 9544.000
1393.419, 9510.000
1394.474, 9646.000
1395.529, 9640.000
1396.583, 9691.874
1397.638, 9915.000
1398.692, 9689.000
1399.746, 9866.514
1400.800, 9675.861
1401.853, 9782.000
1402.907, 9728.000
1403.960, 9633.000
1405.014, 9781.000
1406.067, 9699.000
1407.120, 9675.000
1408.173, 9758.175
1409.225, 9741.104
1410.278, 9824.000
1411.330, 9843.000
1412.383, 9805.000
1413.435, 9884.000
1414.487, 9862.990
1415.538, 9926.000
1416.590, 9874.000
1417.641, 9965.000
1418.693, 9978.000
1419.744, 10037.00
1420.795, 10042.00
1421.846, 10066.73
1422.897, 10162.00
1423.947, 10089.57
1424.998, 10095.00
1426.048, 10087.00
1427.098, 10162.00
1428.148, 10103.00
1429.198, 10074.00
1430.247, 10177.00
1431.297, 10022.00
1432.346, 10165.00
1433.396, 10131.00
1434.445, 10172.00
1435.494, 9945.000
1436.542, 10086.00
1437.591, 10194.00
1438.639, 10179.00
1439.688, 10339.00
1440.736, 10117.00
1441.784, 10268.00
1442.832, 10354.00
1443.880, 10227.00
1444.927, 10234.00
1445.975, 10296.00
1447.022, 10318.00
1448.069, 10306.00
1449.116, 10298.00
1450.163, 10318.84
1451.209, 10426.00
1452.256, 10374.00
1453.302, 10332.00
1454.348, 10408.00
1455.394, 10353.00
1456.440, 10586.00
1457.486, 10287.00
1458.532, 10471.00
1459.577, 10383.00
1460.623, 10653.00
1461.668, 10455.00
1462.713, 10407.00
1463.758, 10479.00
1464.802, 10421.00
1465.847, 10601.00
1466.891, 10770.00
1467.936, 10511.00
1468.980, 10530.00
1470.024, 10762.00
1471.067, 10531.00
1472.111, 10811.00
1473.155, 10699.00
1474.198, 10680.00
1475.241, 10576.00
1476.284, 10776.00
1477.327, 10769.00
1478.370, 10770.00
1479.413, 10776.00
1480.455, 10830.00
1481.497, 10812.13
1482.540, 10816.00
1483.582, 10818.00
1484.624, 10781.00
1485.665, 10799.74
1486.707, 10899.00
1487.748, 10859.00
1488.790, 10933.00
1489.831, 10925.00
1490.872, 10999.00
1491.912, 11022.00
1492.953, 11042.00
1493.994, 11073.00
1495.034, 11060.00
1496.074, 11068.37
1497.114, 11086.84
1498.154, 11049.00
1499.194, 11074.00
1500.234, 11056.00
1501.273, 10952.00
1502.313, 11089.00
1503.352, 11332.00
1504.391, 11168.00
1505.430, 11359.00
1506.468, 11228.00
1507.507, 11154.00
1508.545, 11388.00
1509.584, 11172.00
1510.622, 11297.00
1511.660, 11320.00
1512.698, 11266.00
1513.735, 11412.00
1514.773, 11451.00
1515.810, 11540.00
1516.848, 11548.00
1517.885, 11533.00
1518.922, 11546.00
1519.958, 11654.00
1520.995, 11591.00
1522.032, 11524.00
1523.068, 11657.00
1524.104, 11812.00
1525.140, 11358.74
1526.176, 11688.46
1527.212, 11888.59
1528.248, 11966.11
1529.283, 11553.72
1530.318, 11773.90
1531.353, 11740.57
1532.389, 11696.89
1533.423, 12006.07
1534.458, 11664.93
1535.493, 11968.55
1536.527, 12014.75
1537.561, 11876.00
1538.596, 11864.00
1539.630, 12084.00
1540.663, 11911.00
1541.697, 11991.00
1542.731, 11808.00
1543.764, 11994.00
1544.797, 11980.00
1545.830, 12028.00
1546.863, 12048.00
1547.896, 11968.00
1548.929, 12155.00
1549.961, 11969.00
1550.994, 12070.00
1552.026, 12178.00
1553.058, 12083.00
1554.090, 12222.00
1555.121, 12092.00
1556.153, 12128.00
1557.185, 12200.00
1558.216, 12295.00
1559.247, 12222.00
1560.278, 12250.00
1561.309, 12307.00
1562.340, 12310.00
1563.370, 12284.00
1564.401, 12245.00
1565.431, 12397.00
1566.461, 12362.00
1567.491, 12371.00
1568.521, 12325.00
1569.551, 12337.00
1570.580, 12481.00
1571.610, 12318.00
1572.639, 12476.00
1573.668, 12460.00
1574.697, 12582.00
1575.726, 12703.00
1576.754, 12512.00
1577.783, 12598.00
##END=



