##NAMES=Fluor-buergerite
##RRUFFID=R060132
##IDEAL CHEMISTRY=NaFe^3+^_3_Al_6_(Si_6_O_18_)(BO_3_)_3_O_3_F
##LOCALITY=20 km. south of San Luis Potasi, Mexico
##OWNER=RRUFF
##SOURCE=University of Arizona Mineral Museum
##DESCRIPTION=Brown short prismatic
##STATUS=The identification of this mineral has been confirmed by X-ray diffraction and chemical analysis
##URL=rruff.info/R060132
##MEASURED CHEMISTRY=(Na_0.87_Ca_0.03_[box]_0.10_)(Fe^3+^_0.82_Al_0.12_Mg_0.04_Ti_0.02_)_3_Al_6_(BO_3_)_3_(Si_0.98_Al_0.02_)_6_O_18_(O_0.66_F_0.19_(OH)_0.15_)_4_
##PIN_ID=L01714
##ORIENTATION=Laser parallel to a* (1 0 0). Fiducial mark perpendicular to laser is parallel to -c [0 0 -1]
120.5960, 6785.000
121.8270, 6961.000
123.0580, 7202.000
124.2880, 7373.000
125.5190, 7176.000
126.7490, 7363.000
127.9790, 7580.000
129.2090, 7939.000
130.4390, 8236.000
131.6680, 8460.000
132.8980, 8686.000
134.1270, 8838.000
135.3560, 9219.000
136.5850, 9622.000
137.8140, 10313.00
139.0430, 11004.00
140.2710, 11679.00
141.5000, 12304.00
142.7280, 13215.00
143.9560, 14364.00
145.1840, 15460.00
146.4120, 16870.00
147.6390, 18152.00
148.8670, 19192.00
150.0940, 20003.00
151.3210, 20574.00
152.5490, 20650.00
153.7750, 19692.00
155.0020, 18476.00
156.2290, 16947.00
157.4550, 15534.00
158.6810, 14281.00
159.9080, 13062.00
161.1340, 12085.00
162.3590, 11324.00
163.5850, 10793.00
164.8110, 10333.00
166.0360, 9969.000
167.2610, 9748.000
168.4860, 9525.000
169.7110, 9556.000
170.9360, 9320.000
172.1610, 9265.000
173.3850, 9122.000
174.6100, 9063.000
175.8340, 9053.000
177.0580, 8987.000
178.2820, 9116.000
179.5050, 9226.000
180.7290, 9410.000
181.9520, 9660.000
183.1760, 9816.688
184.3990, 9833.000
185.6220, 10171.00
186.8450, 10369.00
188.0670, 10438.00
189.2900, 10777.00
190.5120, 10899.00
191.7340, 11290.00
192.9560, 11563.00
194.1780, 12090.00
195.4000, 12333.00
196.6220, 12564.00
197.8430, 12972.00
199.0640, 13273.00
200.2860, 13842.00
201.5070, 14337.00
202.7270, 14964.00
203.9480, 14956.00
205.1690, 15250.00
206.3890, 15426.00
207.6090, 16022.00
208.8290, 16744.00
210.0490, 17708.00
211.2690, 18685.00
212.4890, 20113.00
213.7080, 21433.00
214.9280, 23076.00
216.1470, 24704.00
217.3660, 26730.00
218.5850, 29115.00
219.8030, 31703.00
221.0220, 34854.00
222.2400, 38385.00
223.4590, 42137.00
224.6770, 46064.00
225.8950, 50395.00
227.1120, 54633.00
228.3300, 58597.00
229.5480, 61094.00
230.7650, 62349.00
231.9820, 62451.00
233.1990, 61030.00
234.4160, 59263.00
235.6330, 56639.00
236.8490, 53747.00
238.0660, 51051.00
239.2820, 48132.00
240.4980, 45001.00
241.7140, 42735.00
242.9300, 39599.00
244.1460, 37799.00
245.3610, 35707.00
246.5770, 33904.00
247.7920, 32662.00
249.0070, 31399.00
250.2220, 30187.00
251.4370, 29642.00
252.6510, 28641.00
253.8660, 28119.00
255.0800, 27262.00
256.2940, 26547.00
257.5080, 26040.00
258.7220, 25352.00
259.9360, 24704.00
261.1490, 23804.00
262.3630, 22249.00
263.5760, 21161.00
264.7890, 20061.00
266.0020, 19075.00
267.2150, 18147.00
268.4270, 17311.71
269.6400, 16567.90
270.8520, 15881.00
272.0640, 15374.00
273.2760, 14857.00
274.4880, 14572.00
275.7000, 14344.00
276.9120, 14201.00
278.1230, 14020.00
279.3340, 13691.00
280.5450, 13756.00
281.7560, 13781.00
282.9670, 13940.00
284.1780, 14227.00
285.3880, 14344.00
286.5980, 14774.00
287.8090, 15291.00
289.0190, 15989.00
290.2290, 16845.00
291.4380, 17858.00
292.6480, 18385.00
293.8570, 19327.00
295.0670, 20279.00
296.2760, 20945.00
297.4850, 21190.00
298.6930, 21151.00
299.9020, 20648.00
301.1110, 19449.00
302.3190, 18126.00
303.5270, 16846.00
304.7350, 15791.00
305.9430, 14449.00
307.1510, 13628.00
308.3580, 12815.00
309.5660, 12363.00
310.7730, 11992.00
311.9800, 11873.00
313.1870, 11888.00
314.3940, 11936.00
315.6010, 11877.00
316.8070, 12259.00
318.0130, 12299.00
319.2200, 12563.00
320.4260, 12543.00
321.6310, 13023.00
322.8370, 13147.00
324.0430, 13404.00
325.2480, 13660.00
326.4540, 14091.00
327.6590, 14420.00
328.8640, 14955.00
330.0680, 15237.00
331.2730, 15699.00
332.4780, 16062.00
333.6820, 16489.00
334.8860, 17111.00
336.0900, 17664.00
337.2940, 18347.00
338.4980, 18897.00
339.7010, 19435.00
340.9050, 20205.00
342.1080, 21133.00
343.3110, 21701.00
344.5140, 22502.00
345.7170, 23115.00
346.9200, 23936.00
348.1220, 24873.00
349.3240, 25545.00
350.5270, 26543.00
351.7290, 27589.00
352.9310, 28814.00
354.1320, 29980.73
355.3340, 31375.00
356.5350, 32726.00
357.7370, 34325.00
358.9380, 36190.00
360.1390, 37912.00
361.3400, 39939.00
362.5400, 42332.00
363.7410, 44693.00
364.9410, 47077.00
366.1410, 49717.00
367.3410, 52198.00
368.5410, 54330.00
369.7410, 55757.00
370.9400, 56536.00
372.1400, 56331.00
373.3390, 55377.00
374.5380, 53615.00
375.7370, 51202.00
376.9360, 48399.00
378.1350, 45276.00
379.3330, 42547.00
380.5310, 39653.00
381.7300, 36937.00
382.9280, 34525.00
384.1260, 32426.65
385.3230, 30761.00
386.5210, 28967.00
387.7180, 27691.00
388.9160, 26517.00
390.1130, 25512.00
391.3100, 24775.00
392.5060, 23693.00
393.7030, 23126.00
394.9000, 22296.00
396.0960, 21879.00
397.2920, 21222.00
398.4880, 20643.00
399.6840, 20288.00
400.8800, 19886.00
402.0750, 19502.00
403.2710, 19128.45
404.4660, 18736.10
405.6610, 18384.00
406.8560, 17963.91
408.0510, 17617.00
409.2450, 17223.00
410.4400, 16931.00
411.6340, 16579.00
412.8280, 16112.00
414.0220, 15766.00
415.2160, 15537.00
416.4100, 15145.97
417.6030, 15000.00
418.7970, 14589.00
419.9900, 14362.00
421.1830, 14239.00
422.3760, 14118.00
423.5690, 13903.00
424.7610, 13760.00
425.9540, 13564.00
427.1460, 13364.00
428.3380, 13223.00
429.5300, 13038.21
430.7220, 12895.00
431.9140, 12680.00
433.1050, 12693.00
434.2970, 12457.00
435.4880, 12458.00
436.6790, 12409.00
437.8700, 12292.00
439.0610, 12120.00
440.2510, 11952.00
441.4420, 11918.00
442.6320, 11848.00
443.8220, 11751.00
445.0120, 11822.00
446.2020, 11789.00
447.3910, 11592.00
448.5810, 11633.00
449.7700, 11649.00
450.9600, 11695.00
452.1490, 11671.00
453.3370, 11767.00
454.5260, 11647.00
455.7150, 11518.00
456.9030, 11604.00
458.0910, 11560.00
459.2800, 11571.00
460.4670, 11521.00
461.6550, 11611.00
462.8430, 11713.00
464.0300, 11859.00
465.2180, 11971.00
466.4050, 11863.00
467.5920, 11769.00
468.7790, 11946.00
469.9650, 11873.00
471.1520, 11892.00
472.3380, 11781.00
473.5250, 11981.00
474.7110, 11867.54
475.8970, 11905.00
477.0820, 11784.00
478.2680, 11857.00
479.4540, 11826.00
480.6390, 11675.00
481.8240, 11661.00
483.0090, 11497.00
484.1940, 11444.00
485.3780, 11578.00
486.5630, 11580.00
487.7470, 11697.00
488.9320, 11747.00
490.1160, 11814.87
491.3000, 11936.00
492.4830, 11939.00
493.6670, 11981.00
494.8500, 11984.00
496.0340, 12220.00
497.2170, 12357.17
498.4000, 12908.00
499.5820, 12776.00
500.7650, 13045.00
501.9480, 13181.00
503.1300, 13151.00
504.3120, 13416.00
505.4940, 13570.00
506.6760, 13500.00
507.8580, 13790.00
509.0390, 13981.00
510.2210, 14196.00
511.4020, 14735.00
512.5830, 15049.00
513.7640, 15627.00
514.9450, 15839.00
516.1250, 16171.00
517.3060, 16673.00
518.4860, 16805.00
519.6660, 16857.00
520.8460, 17073.00
522.0260, 16966.00
523.2060, 16904.00
524.3850, 16832.00
525.5650, 16677.17
526.7440, 16451.00
527.9230, 16380.00
529.1020, 16094.00
530.2810, 15963.00
531.4590, 15962.00
532.6380, 15547.00
533.8160, 15497.00
534.9940, 15327.00
536.1720, 15198.00
537.3500, 15051.00
538.5270, 14997.00
539.7050, 14804.00
540.8820, 14758.00
542.0590, 14671.00
543.2360, 14664.00
544.4130, 14491.00
545.5900, 14328.00
546.7660, 14317.00
547.9430, 14268.00
549.1190, 14000.00
550.2950, 14043.00
551.4710, 13990.00
552.6470, 13855.00
553.8220, 13800.00
554.9980, 13770.00
556.1730, 13825.00
557.3480, 13581.00
558.5230, 13624.00
559.6980, 13411.00
560.8730, 13535.00
562.0470, 13488.00
563.2220, 13598.00
564.3960, 13696.00
565.5700, 13703.00
566.7440, 13832.00
567.9170, 13929.00
569.0910, 13978.00
570.2640, 14153.00
571.4380, 14358.00
572.6110, 14280.00
573.7840, 14472.00
574.9570, 14619.00
576.1290, 14643.00
577.3020, 14751.00
578.4740, 14964.00
579.6460, 14967.00
580.8180, 15260.00
581.9900, 15348.00
583.1620, 15559.00
584.3330, 15895.00
585.5040, 15948.00
586.6760, 16274.00
587.8470, 16288.00
589.0180, 16610.00
590.1880, 16808.00
591.3590, 17118.00
592.5290, 17358.00
593.7000, 17752.00
594.8700, 17873.00
596.0400, 18431.00
597.2090, 18589.00
598.3790, 19244.00
599.5490, 19493.00
600.7180, 19779.00
601.8870, 20154.00
603.0560, 20283.00
604.2250, 20625.00
605.3940, 20795.00
606.5620, 21002.00
607.7300, 21274.00
608.8990, 21272.00
610.0670, 21395.00
611.2350, 21396.00
612.4020, 21550.00
613.5700, 21815.47
614.7370, 22079.23
615.9050, 22564.00
617.0720, 22956.00
618.2390, 23591.00
619.4060, 24345.00
620.5720, 25368.00
621.7390, 26581.00
622.9050, 27777.00
624.0710, 29494.00
625.2370, 31360.00
626.4030, 33824.00
627.5690, 36687.00
628.7340, 39961.00
629.9000, 43105.00
631.0650, 46666.00
632.2300, 49397.00
633.3950, 51526.00
634.5600, 52492.00
635.7240, 53136.00
636.8890, 52599.00
638.0530, 51120.00
639.2170, 49539.00
640.3810, 47647.00
641.5450, 45510.00
642.7080, 43306.00
643.8720, 41155.00
645.0350, 39152.71
646.1980, 37197.00
647.3610, 35251.00
648.5240, 33489.00
649.6870, 31679.00
650.8490, 30132.00
652.0120, 28631.00
653.1740, 27048.00
654.3360, 25630.00
655.4980, 24204.00
656.6600, 23265.00
657.8210, 22305.00
658.9830, 21263.00
660.1440, 20459.00
661.3050, 19680.00
662.4660, 19042.00
663.6270, 18411.00
664.7870, 17660.00
665.9480, 17200.00
667.1080, 16641.00
668.2680, 16181.00
669.4280, 15576.00
670.5880, 15044.00
671.7480, 14841.00
672.9070, 14516.00
674.0670, 14190.00
675.2260, 13683.00
676.3850, 13543.00
677.5440, 13295.00
678.7030, 12798.00
679.8610, 12665.00
681.0200, 12427.00
682.1780, 12264.00
683.3360, 12062.00
684.4940, 12303.00
685.6520, 12400.00
686.8090, 12468.00
687.9670, 12823.00
689.1240, 13083.00
690.2810, 13410.00
691.4380, 13618.00
692.5950, 14158.00
693.7520, 14477.00
694.9080, 15279.00
696.0650, 15874.00
697.2210, 16548.00
698.3770, 17385.00
699.5330, 18095.00
700.6880, 18536.00
701.8440, 19505.00
702.9990, 20024.00
704.1550, 20396.00
705.3100, 20621.00
706.4650, 20427.00
707.6190, 19905.00
708.7740, 19397.00
709.9290, 18803.00
711.0830, 18040.00
712.2370, 17236.00
713.3910, 16304.00
714.5450, 15529.00
715.6980, 14842.00
716.8520, 13981.00
718.0050, 13211.00
719.1580, 12665.00
720.3110, 12321.00
721.4640, 11755.00
722.6170, 11521.00
723.7700, 11306.00
724.9220, 10829.00
726.0740, 10627.00
727.2260, 10452.00
728.3780, 10387.00
729.5300, 10408.00
730.6810, 10264.00
731.8330, 10099.00
732.9840, 10139.00
734.1350, 10025.00
735.2860, 10035.00
736.4370, 9819.000
737.5880, 9892.000
738.7380, 9768.000
739.8880, 9577.000
741.0390, 9699.000
742.1890, 9611.000
743.3380, 9646.000
744.4880, 9632.000
745.6380, 9508.000
746.7870, 9648.000
747.9360, 9533.000
749.0850, 9372.000
750.2340, 9353.000
751.3830, 9364.000
752.5310, 9270.000
753.6800, 9215.000
754.8280, 9165.000
755.9760, 9085.841
757.1240, 9024.000
758.2720, 8933.000
759.4190, 8880.000
760.5670, 8766.000
761.7140, 8696.000
762.8610, 8558.000
764.0080, 8397.000
765.1550, 8331.000
766.3020, 8112.000
767.4480, 8178.000
768.5950, 8237.000
769.7410, 8365.000
770.8870, 8140.000
772.0330, 8195.000
773.1780, 8062.000
774.3240, 8008.000
775.4690, 8053.000
776.6140, 7945.000
777.7590, 7905.000
778.9040, 7896.000
780.0490, 7828.000
781.1940, 7860.000
782.3380, 7829.000
783.4820, 7932.000
784.6260, 7838.000
785.7700, 7919.000
786.9140, 7683.000
788.0580, 7827.000
789.2010, 7754.000
790.3450, 7605.000
791.4880, 7585.000
792.6310, 7628.000
793.7730, 7726.000
794.9160, 7656.000
796.0590, 7665.000
797.2010, 7698.000
798.3430, 7686.000
799.4850, 7688.000
800.6270, 7693.000
801.7690, 7724.000
802.9100, 7716.000
804.0520, 7639.000
805.1930, 7697.000
806.3340, 7614.000
807.4750, 7658.000
808.6160, 7610.000
809.7560, 7593.000
810.8970, 7736.000
812.0370, 7618.000
813.1770, 7551.000
814.3170, 7628.000
815.4570, 7471.000
816.5960, 7362.000
817.7360, 7462.000
818.8750, 7318.000
820.0140, 7475.000
821.1530, 7438.000
822.2920, 7352.000
823.4310, 7493.000
824.5690, 7461.000
825.7070, 7365.000
826.8460, 7337.000
827.9840, 7277.000
829.1220, 7251.000
830.2590, 7159.000
831.3970, 7148.000
832.5340, 7108.000
833.6710, 7129.000
834.8080, 7144.000
835.9450, 7186.000
837.0820, 7146.000
838.2190, 7100.000
839.3550, 7116.000
840.4910, 7106.000
841.6270, 7052.000
842.7630, 7125.000
843.8990, 7104.000
845.0350, 7079.000
846.1700, 7045.000
847.3060, 7021.000
848.4410, 7165.000
849.5760, 7163.000
850.7100, 7184.000
851.8450, 7231.000
852.9800, 7163.000
854.1140, 7132.000
855.2480, 7192.000
856.3820, 7142.000
857.5160, 7096.000
858.6500, 7100.000
859.7830, 7068.000
860.9170, 7133.000
862.0500, 7196.000
863.1830, 7306.000
864.3160, 7243.000
865.4480, 7212.000
866.5810, 7279.000
867.7130, 7202.000
868.8460, 7175.625
869.9780, 7189.579
871.1100, 7159.837
872.2410, 7197.000
873.3730, 7183.000
874.5050, 7218.000
875.6360, 7275.000
876.7670, 7276.000
877.8980, 7299.159
879.0290, 7349.000
880.1590, 7302.000
881.2900, 7272.000
882.4200, 7253.000
883.5500, 7255.000
884.6800, 7257.561
885.8100, 7220.000
886.9400, 7297.000
888.0690, 7355.000
889.1990, 7391.000
890.3280, 7499.000
891.4570, 7492.000
892.5860, 7510.552
893.7140, 7494.000
894.8430, 7480.000
895.9710, 7483.000
897.1000, 7452.000
898.2280, 7607.000
899.3560, 7505.000
900.4830, 7628.000
901.6110, 7591.000
902.7380, 7690.000
903.8660, 7611.000
904.9930, 7793.000
906.1200, 7795.000
907.2460, 7674.000
908.3730, 7704.000
909.5000, 7673.000
910.6260, 7648.000
911.7520, 7797.000
912.8780, 7650.000
914.0040, 7771.000
915.1290, 7739.000
916.2550, 7866.000
917.3800, 7832.000
918.5050, 7961.000
919.6300, 7868.000
920.7550, 7891.000
921.8800, 7834.000
923.0040, 7849.584
924.1290, 7842.423
925.2530, 7913.000
926.3770, 7878.000
927.5010, 7939.000
928.6250, 8041.000
929.7480, 8177.000
930.8720, 8099.000
931.9950, 8169.000
933.1180, 8161.000
934.2410, 8305.000
935.3640, 8163.000
936.4860, 8284.000
937.6090, 8244.000
938.7310, 8239.000
939.8530, 8481.000
940.9750, 8443.000
942.0970, 8499.000
943.2180, 8504.000
944.3400, 8675.000
945.4610, 8718.000
946.5820, 8626.000
947.7030, 8841.000
948.8240, 8742.000
949.9450, 8787.000
951.0650, 8861.000
952.1860, 8812.000
953.3060, 8976.000
954.4260, 9018.000
955.5460, 9103.000
956.6650, 9100.000
957.7850, 9096.000
958.9040, 9204.340
960.0230, 9286.000
961.1420, 9352.000
962.2610, 9434.240
963.3800, 9542.000
964.4990, 9546.000
965.6170, 9595.000
966.7350, 9599.000
967.8530, 9587.000
968.9710, 9775.000
970.0890, 9812.000
971.2070, 9888.000
972.3240, 9934.000
973.4410, 10088.00
974.5580, 10112.00
975.6750, 9964.000
976.7920, 9866.000
977.9090, 10058.00
979.0250, 10000.00
980.1410, 10054.00
981.2580, 10283.00
982.3740, 10322.00
983.4890, 10462.00
984.6050, 10664.00
985.7200, 10779.00
986.8360, 10827.00
987.9510, 10889.00
989.0660, 11087.00
990.1810, 11260.00
991.2950, 11245.00
992.4100, 11464.00
993.5240, 11787.00
994.6390, 11843.00
995.7530, 12152.00
996.8660, 12545.00
997.9800, 12768.00
999.0940, 12925.00
1000.207, 13308.00
1001.320, 13329.00
1002.433, 13534.00
1003.546, 13510.00
1004.659, 13582.00
1005.772, 13705.00
1006.884, 13738.00
1007.996, 13531.00
1009.108, 13700.00
1010.220, 13373.00
1011.332, 13449.00
1012.444, 13158.00
1013.555, 12853.00
1014.666, 12550.00
1015.777, 12379.00
1016.888, 12253.00
1017.999, 11834.00
1019.110, 11695.00
1020.220, 11561.00
1021.331, 11314.00
1022.441, 11165.00
1023.551, 10944.00
1024.661, 10995.00
1025.770, 10962.00
1026.880, 10623.00
1027.989, 10612.00
1029.098, 10404.00
1030.207, 10205.00
1031.316, 10226.00
1032.425, 10105.00
1033.533, 10079.00
1034.642, 10015.00
1035.750, 9982.000
1036.858, 9966.000
1037.966, 10080.00
1039.073, 10135.00
1040.181, 10120.63
1041.288, 10109.00
1042.396, 10117.00
1043.503, 10126.00
1044.610, 10157.00
1045.716, 10247.00
1046.823, 10421.00
1047.929, 10637.00
1049.036, 10951.00
1050.142, 11038.00
1051.248, 11298.00
1052.353, 11592.00
1053.459, 11622.00
1054.564, 11812.00
1055.670, 11875.00
1056.775, 12106.00
1057.880, 11903.00
1058.985, 12013.00
1060.089, 11797.00
1061.194, 11710.00
1062.298, 11645.00
1063.402, 11502.00
1064.506, 11266.00
1065.610, 11037.00
1066.713, 10855.00
1067.817, 10674.00
1068.920, 10503.00
1070.023, 10273.00
1071.126, 10088.00
1072.229, 9913.000
1073.332, 9800.000
1074.435, 9711.000
1075.537, 9580.000
1076.639, 9645.000
1077.741, 9527.000
1078.843, 9517.000
1079.945, 9347.000
1081.046, 9383.000
1082.148, 9343.000
1083.249, 9238.000
1084.350, 9179.000
1085.451, 9106.000
1086.551, 9104.000
1087.652, 9135.000
1088.752, 9092.000
1089.853, 9060.000
1090.953, 9096.015
1092.053, 9094.175
1093.152, 9098.000
1094.252, 9131.000
1095.351, 9028.000
1096.451, 8982.000
1097.550, 8937.000
1098.649, 8927.000
1099.748, 8796.000
1100.846, 8854.626
1101.945, 8877.000
1103.043, 8922.000
1104.141, 9010.000
1105.239, 9046.000
1106.337, 8999.000
1107.434, 8990.000
1108.532, 8943.000
1109.629, 8869.000
1110.726, 8932.000
1111.823, 8810.000
1112.920, 8756.000
1114.017, 8933.000
1115.113, 8732.000
1116.210, 8912.000
1117.306, 8938.000
1118.402, 8905.000
1119.498, 8885.000
1120.593, 8828.000
1121.689, 8866.000
1122.784, 9197.000
1123.879, 9187.000
1124.974, 9570.000
1126.069, 8775.000
1127.164, 8440.000
1128.259, 8532.000
1129.353, 8473.000
1130.447, 8495.000
1131.541, 8477.000
1132.635, 8509.000
1133.729, 8411.000
1134.822, 8345.000
1135.916, 8317.000
1137.009, 8306.000
1138.102, 8193.000
1139.195, 8274.000
1140.288, 8067.000
1141.380, 8249.000
1142.473, 8274.000
1143.565, 8240.000
1144.657, 8167.000
1145.749, 8297.000
1146.841, 8394.000
1147.932, 8341.000
1149.024, 8337.067
1150.115, 8159.000
1151.206, 8144.000
1152.297, 8127.000
1153.388, 7979.000
1154.479, 8148.000
1155.569, 8190.000
1156.659, 8295.000
1157.750, 8294.000
1158.839, 8351.000
1159.929, 8319.000
1161.019, 8296.000
1162.108, 8319.000
1163.198, 8145.000
1164.287, 8098.000
1165.376, 8132.000
1166.465, 8118.246
1167.553, 8134.904
1168.642, 8274.000
1169.730, 8223.000
1170.818, 8356.000
1171.906, 8496.000
1172.994, 8308.000
1174.082, 8390.000
1175.170, 8338.000
1176.257, 8235.000
1177.344, 8405.000
1178.431, 8248.000
1179.518, 8295.000
1180.605, 8082.000
1181.691, 8327.000
1182.778, 8342.000
1183.864, 8312.000
1184.950, 8468.000
1186.036, 8369.000
1187.122, 8376.000
1188.207, 8362.000
1189.292, 8425.000
1190.378, 8316.000
1191.463, 8363.000
1192.548, 8360.000
1193.632, 8313.000
1194.717, 8290.000
1195.801, 8351.000
1196.886, 8326.462
1197.970, 8465.000
1199.054, 8392.000
1200.137, 8387.000
1201.221, 8497.000
1202.305, 8524.000
1203.388, 8348.000
1204.471, 8497.000
1205.554, 8468.000
1206.637, 8367.000
1207.719, 8391.000
1208.802, 8531.000
1209.884, 8509.000
1210.966, 8611.000
1212.048, 8627.000
1213.130, 8661.000
1214.212, 8580.000
1215.293, 8737.000
1216.374, 8584.000
1217.456, 8736.000
1218.536, 8648.000
1219.617, 8603.000
1220.698, 8796.000
1221.778, 8690.000
1222.859, 8786.000
1223.939, 8959.000
1225.019, 9091.000
1226.099, 9120.000
1227.178, 9217.725
1228.258, 9233.379
1229.337, 9271.000
1230.417, 9259.000
1231.496, 9217.000
1232.574, 9259.000
1233.653, 9361.000
1234.732, 9369.000
1235.810, 9488.000
1236.888, 9556.000
1237.966, 9667.000
1239.044, 9823.000
1240.122, 9713.000
1241.199, 9914.000
1242.277, 9961.000
1243.354, 9789.000
1244.431, 9864.000
1245.508, 9878.000
1246.585, 9707.000
1247.661, 9887.000
1248.738, 10031.00
1249.814, 10024.00
1250.890, 10139.00
1251.966, 10217.00
1253.042, 10224.00
1254.117, 10359.00
1255.193, 10460.00
1256.268, 10538.00
1257.343, 10422.00
1258.418, 10553.00
1259.493, 10582.00
1260.567, 10553.00
1261.642, 10663.00
1262.716, 10823.00
1263.790, 10898.00
1264.864, 10776.00
1265.938, 10820.00
1267.011, 10772.00
1268.085, 10768.08
1269.158, 10780.00
1270.231, 10784.00
1271.304, 10883.00
1272.377, 10884.00
1273.450, 10909.00
1274.522, 11016.00
1275.594, 11147.81
1276.666, 11456.00
1277.738, 11559.00
1278.810, 11986.00
1279.882, 12306.00
1280.953, 12338.00
1282.025, 12672.00
1283.096, 13071.00
1284.167, 13096.00
1285.238, 13368.00
1286.308, 13523.00
1287.379, 13694.00
1288.449, 13610.00
1289.519, 13502.00
1290.589, 13570.00
1291.659, 13370.00
1292.729, 13317.00
1293.798, 13251.00
1294.868, 13042.00
1295.937, 12844.00
1297.006, 12588.00
1298.075, 12451.00
1299.143, 12322.00
1300.212, 12158.00
1301.280, 12338.00
1302.348, 12308.00
1303.416, 12211.00
1304.484, 12324.00
1305.552, 12269.00
1306.620, 12265.00
1307.687, 12211.00
1308.754, 12158.00
1309.821, 12088.00
1310.888, 11931.00
1311.955, 11919.00
1313.021, 11832.00
1314.088, 11865.00
1315.154, 11688.00
1316.220, 11653.00
1317.286, 11752.00
1318.352, 11538.00
1319.417, 11539.00
1320.483, 11298.00
1321.548, 11242.00
1322.613, 11214.00
1323.678, 11153.00
1324.743, 11012.00
1325.807, 10736.00
1326.872, 10876.00
1327.936, 10704.00
1329.000, 10545.00
1330.064, 10749.00
1331.128, 10647.00
1332.191, 10707.00
1333.255, 10541.00
1334.318, 10521.00
1335.381, 10350.00
1336.444, 10385.00
1337.507, 10513.00
1338.569, 10163.00
1339.632, 10100.00
1340.694, 10278.00
1341.756, 10143.00
1342.818, 10149.00
1343.880, 10237.00
1344.941, 10175.00
1346.003, 10224.00
1347.064, 10233.00
1348.125, 10194.00
1349.186, 10121.00
1350.247, 10129.00
1351.308, 10065.00
1352.368, 10011.00
1353.428, 9954.000
1354.489, 9945.000
1355.549, 9978.000
1356.608, 9978.668
1357.668, 10139.00
1358.727, 10093.00
1359.787, 10046.00
1360.846, 10198.00
1361.905, 10086.00
1362.964, 9960.000
1364.022, 9892.000
1365.081, 9788.000
1366.139, 9841.000
1367.197, 9805.000
1368.255, 9786.928
1369.313, 9842.000
1370.371, 9779.000
1371.428, 9832.000
1372.486, 9849.000
1373.543, 9733.000
1374.600, 9773.000
1375.657, 9736.988
1376.713, 9711.000
1377.770, 9681.000
1378.826, 9614.000
1379.882, 9515.000
1380.938, 9543.000
1381.994, 9548.000
1383.050, 9591.000
1384.106, 9713.000
1385.161, 9703.000
1386.216, 9773.000
1387.271, 9681.000
1388.326, 9733.000
1389.381, 9600.000
1390.435, 9647.000
1391.490, 9521.000
1392.544, 9535.000
1393.598, 9537.000
1394.652, 9661.000
1395.705, 9594.000
1396.759, 9690.000
1397.812, 9658.000
1398.866, 9792.000
1399.919, 9789.000
1400.972, 9856.000
1402.024, 9700.000
1403.077, 9793.000
1404.129, 9615.000
1405.181, 9630.000
1406.233, 9625.000
1407.285, 9737.000
1408.337, 9759.000
1409.389, 9673.000
1410.440, 9653.000
1411.491, 9757.000
1412.542, 9776.000
1413.593, 9725.000
1414.644, 9657.000
1415.695, 9650.000
1416.745, 9594.000
1417.795, 9573.000
1418.845, 9579.000
1419.895, 9595.090
1420.945, 9639.958
1421.995, 9665.000
1423.044, 9760.000
1424.093, 9767.317
1425.142, 9811.932
1426.191, 9749.000
1427.240, 9741.000
1428.289, 9715.000
1429.337, 9570.000
1430.385, 9602.000
1431.433, 9588.000
1432.481, 9433.000
1433.529, 9553.000
1434.577, 9519.000
1435.624, 9670.000
1436.672, 10103.00
1437.719, 10318.00
1438.766, 10142.36
1439.812, 9786.000
1440.859, 9680.000
1441.905, 9775.000
1442.952, 9607.000
1443.998, 9598.000
1445.044, 9555.000
1446.090, 9560.000
1447.135, 9436.000
1448.181, 9625.000
1449.226, 9528.000
1450.271, 9741.000
1451.316, 9667.000
1452.361, 9760.000
1453.405, 9658.000
1454.450, 9831.000
1455.494, 9710.000
1456.538, 9572.000
1457.582, 9657.000
1458.626, 9644.000
1459.670, 9600.000
1460.713, 9571.000
1461.757, 9623.000
1462.800, 9604.000
1463.843, 9663.845
1464.886, 9678.000
1465.928, 9778.000
1466.971, 9794.000
1468.013, 9828.000
1469.055, 9829.000
1470.097, 9804.018
1471.139, 9606.000
1472.181, 9712.000
1473.222, 9703.000
1474.263, 9628.000
1475.305, 9711.000
1476.346, 9831.000
1477.386, 9812.000
1478.427, 9766.000
1479.468, 9937.000
1480.508, 9900.000
1481.548, 9818.000
1482.588, 9907.000
1483.628, 9757.000
1484.668, 9881.000
1485.707, 9700.000
1486.747, 9816.000
1487.786, 9844.000
1488.825, 9846.000
1489.864, 9751.000
1490.902, 10016.00
1491.941, 9877.000
1492.979, 10068.00
1494.017, 9936.000
1495.055, 10043.00
1496.093, 9901.000
1497.131, 9958.000
1498.168, 9931.000
1499.206, 9802.000
1500.243, 9877.000
1501.280, 9869.000
1502.317, 9936.000
1503.354, 10018.00
1504.390, 10102.00
1505.426, 10040.00
1506.463, 10177.00
1507.499, 10101.00
1508.535, 10038.00
1509.570, 10087.00
1510.606, 9954.000
1511.641, 10078.00
1512.676, 9937.000
1513.711, 9968.000
1514.746, 9935.000
1515.781, 9990.000
1516.816, 10078.00
1517.850, 10199.00
1518.884, 10139.00
1519.918, 10067.00
1520.952, 10099.00
1521.986, 10025.00
1523.019, 9962.000
1524.053, 10047.00
1525.086, 9832.000
1526.119, 9828.000
1527.152, 9932.000
1528.185, 9891.000
1529.217, 10030.00
1530.250, 9911.000
1531.282, 9997.000
1532.314, 10044.00
1533.346, 10017.00
1534.377, 10164.00
1535.409, 10108.00
1536.440, 9850.000
1537.472, 10066.00
1538.503, 9880.000
1539.534, 9905.000
1540.564, 9828.000
1541.595, 9938.000
1542.625, 9896.000
1543.656, 9938.000
1544.686, 9977.000
1545.716, 9973.000
1546.745, 10140.00
1547.775, 9969.000
1548.804, 10049.00
1549.834, 10119.00
1550.863, 9890.000
1551.892, 9963.000
1552.920, 10138.00
1553.949, 10171.00
1554.977, 10210.00
1556.006, 10006.00
1557.034, 10114.00
1558.062, 10010.00
1559.089, 10183.00
1560.117, 10167.00
1561.144, 10040.00
1562.172, 10022.00
1563.199, 9954.000
1564.226, 9950.000
1565.252, 9975.000
1566.279, 9953.000
1567.305, 9958.000
1568.332, 10091.00
1569.358, 10190.00
1570.384, 10157.00
##END=



