##NAMES=Fluorapophyllite-(K)
##RRUFFID=R040095
##IDEAL CHEMISTRY=KCa_4_Si_8_O_20_F&#183;8H_2_O
##LOCALITY=unknown
##OWNER=RRUFF
##SOURCE=University of Arizona Mineral Museum
##DESCRIPTION=Colorless crystals
##STATUS=The identification of this mineral has been confirmed by X-ray diffraction and chemical analysis
##URL=rruff.info/R040095
##MEASURED CHEMISTRY=(K_0.90_Na_0.04_)Ca_3.96_Si_8.00_O_20_(F_0.82_(OH)_0.18_)Â·8H_2_O
##PIN_ID=L00450
##ORIENTATION=Laser parallel to -a* (-1 0 0). Fiducial mark perpendicular to laser is parallel to c [0 0 1]
79.42100, 15691.00
80.65400, 17175.00
81.88700, 18668.00
83.11900, 20219.00
84.35200, 21579.00
85.58400, 23003.00
86.81600, 25417.00
88.04900, 28136.00
89.28100, 31498.00
90.51200, 33993.00
91.74400, 35354.00
92.97600, 34592.00
94.20700, 34045.00
95.43800, 33199.00
96.66900, 33302.00
97.90100, 34498.00
99.13100, 37330.00
100.3620, 42476.00
101.5930, 49114.00
102.8230, 59332.00
104.0530, 74137.00
105.2840, 89838.00
106.5140, 99301.00
107.7440, 96631.00
108.9730, 83456.00
110.2030, 66573.00
111.4320, 51617.00
112.6620, 40681.00
113.8910, 33161.00
115.1200, 28454.00
116.3490, 25212.00
117.5780, 23591.00
118.8060, 23435.00
120.0350, 24538.00
121.2630, 25478.00
122.4920, 26351.00
123.7200, 26514.00
124.9480, 26106.00
126.1750, 26098.00
127.4030, 25671.00
128.6310, 26228.00
129.8580, 26473.00
131.0850, 26666.00
132.3120, 26802.00
133.5390, 26621.00
134.7660, 27294.00
135.9930, 28688.00
137.2200, 31068.00
138.4460, 33020.00
139.6720, 33171.00
140.8980, 32138.00
142.1240, 28970.00
143.3500, 26406.00
144.5760, 24360.00
145.8020, 22820.00
147.0270, 21813.00
148.2520, 21550.00
149.4780, 21545.00
150.7030, 22217.00
151.9270, 23188.00
153.1520, 24402.00
154.3770, 26015.00
155.6010, 27743.00
156.8260, 30656.00
158.0500, 34215.00
159.2740, 38322.00
160.4980, 42109.00
161.7210, 45191.00
162.9450, 47173.00
164.1690, 48026.00
165.3920, 47656.00
166.6150, 45587.00
167.8380, 41902.00
169.0610, 37317.00
170.2840, 32898.00
171.5070, 29111.00
172.7290, 26584.00
173.9510, 24727.00
175.1740, 23435.00
176.3960, 22983.00
177.6180, 23040.00
178.8390, 23733.00
180.0610, 25200.00
181.2830, 26920.00
182.5040, 29400.00
183.7250, 31699.00
184.9460, 32469.00
186.1670, 32207.00
187.3880, 30600.00
188.6090, 28633.00
189.8290, 26781.00
191.0500, 25511.00
192.2700, 24748.00
193.4900, 24591.00
194.7100, 24888.00
195.9300, 25265.00
197.1490, 26327.00
198.3690, 27881.00
199.5880, 29672.00
200.8080, 31758.00
202.0270, 34260.00
203.2460, 37091.00
204.4650, 39981.00
205.6830, 43509.00
206.9020, 46471.00
208.1200, 49166.00
209.3380, 50334.00
210.5570, 49634.00
211.7750, 47384.00
212.9920, 44145.00
214.2100, 40432.00
215.4280, 37807.00
216.6450, 35317.00
217.8620, 33440.00
219.0790, 32049.00
220.2960, 30926.00
221.5130, 30665.00
222.7300, 30621.00
223.9460, 31121.00
225.1630, 31361.00
226.3790, 31632.00
227.5950, 31759.00
228.8110, 31089.00
230.0270, 29807.00
231.2430, 27999.00
232.4580, 25715.00
233.6740, 23837.00
234.8890, 21717.00
236.1040, 19499.00
237.3190, 17804.00
238.5340, 16631.00
239.7490, 15456.00
240.9630, 14433.00
242.1780, 13887.00
243.3920, 13178.00
244.6060, 12759.63
245.8200, 12430.87
247.0340, 12194.00
248.2470, 12081.00
249.4610, 11903.00
250.6740, 11957.00
251.8880, 11967.00
253.1010, 12185.00
254.3140, 12313.00
255.5270, 12572.00
256.7390, 12966.00
257.9520, 13385.00
259.1640, 13888.00
260.3760, 14380.00
261.5880, 14970.00
262.8000, 15669.00
264.0120, 16437.00
265.2240, 16863.00
266.4350, 17341.00
267.6470, 17343.00
268.8580, 17151.00
270.0690, 16518.00
271.2800, 15883.00
272.4910, 15226.00
273.7020, 14707.00
274.9120, 14245.00
276.1230, 13927.92
277.3330, 13721.00
278.5430, 13592.00
279.7530, 13571.00
280.9630, 13662.00
282.1720, 13851.00
283.3820, 14295.00
284.5910, 14682.00
285.8000, 15305.00
287.0090, 16058.00
288.2180, 16816.00
289.4270, 18004.00
290.6360, 19035.00
291.8440, 20423.00
293.0530, 21718.00
294.2610, 22831.00
295.4690, 24009.00
296.6770, 24906.00
297.8850, 25016.00
299.0920, 24406.00
300.3000, 23776.00
301.5070, 22824.00
302.7140, 22102.00
303.9210, 21332.00
305.1280, 20915.00
306.3350, 20670.00
307.5420, 20670.00
308.7480, 20451.00
309.9540, 20836.00
311.1600, 20879.00
312.3660, 20978.00
313.5720, 21121.00
314.7780, 21467.00
315.9840, 21661.00
317.1890, 22202.00
318.3940, 22199.00
319.6000, 22661.00
320.8050, 22814.00
322.0090, 23170.00
323.2140, 22979.00
324.4190, 22299.00
325.6230, 22183.00
326.8270, 21969.00
328.0320, 21824.00
329.2360, 21509.00
330.4390, 21636.00
331.6430, 21923.00
332.8470, 21955.00
334.0500, 22326.00
335.2530, 22668.00
336.4560, 22485.00
337.6590, 22336.00
338.8620, 22086.00
340.0650, 21542.00
341.2670, 20793.00
342.4700, 19476.00
343.6720, 18427.00
344.8740, 17215.00
346.0760, 16384.00
347.2780, 15756.00
348.4790, 14892.00
349.6810, 14665.00
350.8820, 13762.00
352.0830, 13698.00
353.2840, 13211.00
354.4850, 12817.00
355.6860, 12746.00
356.8870, 12496.00
358.0870, 12322.00
359.2870, 11997.00
360.4880, 11886.00
361.6880, 11729.00
362.8870, 11717.00
364.0870, 11641.00
365.2870, 11725.00
366.4860, 11791.00
367.6850, 11778.00
368.8850, 11863.00
370.0840, 11887.00
371.2820, 11811.00
372.4810, 11787.00
373.6800, 11782.00
374.8780, 11925.00
376.0760, 12005.98
377.2740, 12106.00
378.4720, 12345.00
379.6700, 12494.00
380.8680, 12734.00
382.0650, 13003.00
383.2630, 13226.00
384.4600, 13912.00
385.6570, 14319.00
386.8540, 14953.00
388.0510, 15744.00
389.2470, 16380.00
390.4440, 17136.00
391.6400, 18174.00
392.8360, 18957.00
394.0320, 19962.00
395.2280, 20693.00
396.4240, 21284.00
397.6190, 21606.00
398.8150, 21784.00
400.0100, 21680.00
401.2050, 21371.00
402.4000, 20949.00
403.5950, 20463.00
404.7900, 19879.00
405.9840, 19268.00
407.1790, 18650.00
408.3730, 18322.00
409.5670, 17987.05
410.7610, 17698.00
411.9550, 17704.00
413.1480, 17738.00
414.3420, 17841.00
415.5350, 18225.00
416.7280, 18926.00
417.9220, 19902.00
419.1140, 21061.00
420.3070, 22755.00
421.5000, 24669.00
422.6920, 27387.00
423.8850, 30395.00
425.0770, 34218.00
426.2690, 38515.00
427.4610, 43780.00
428.6520, 49104.00
429.8440, 52328.00
431.0350, 53362.00
432.2260, 50606.00
433.4180, 45244.00
434.6090, 39463.00
435.7990, 33577.00
436.9900, 29013.00
438.1800, 25351.00
439.3710, 22673.00
440.5610, 20791.00
441.7510, 19125.00
442.9410, 17885.00
444.1310, 17082.00
445.3200, 16477.00
446.5100, 16064.00
447.6990, 15692.00
448.8880, 15492.28
450.0770, 15501.00
451.2660, 15405.00
452.4550, 15583.00
453.6430, 15776.00
454.8320, 16078.00
456.0200, 16398.00
457.2080, 16724.00
458.3960, 17240.00
459.5840, 17634.00
460.7720, 17819.00
461.9590, 17856.00
463.1460, 18170.00
464.3340, 18098.00
465.5210, 18156.00
466.7080, 18170.00
467.8940, 18352.00
469.0810, 18742.00
470.2670, 19530.00
471.4540, 20402.00
472.6400, 22051.00
473.8260, 23893.00
475.0120, 26152.00
476.1970, 29051.00
477.3830, 32748.00
478.5680, 36962.00
479.7540, 41700.00
480.9390, 46879.00
482.1240, 51288.00
483.3080, 53775.00
484.4930, 53760.00
485.6780, 51188.00
486.8620, 46651.00
488.0460, 42673.00
489.2300, 37424.00
490.4140, 32633.00
491.5980, 29270.00
492.7810, 26646.00
493.9650, 24567.00
495.1480, 23432.00
496.3310, 22386.00
497.5140, 21537.00
498.6970, 20954.00
499.8800, 20673.00
501.0620, 20262.00
502.2440, 20002.00
503.4270, 19602.00
504.6090, 19380.00
505.7910, 19040.00
506.9720, 18919.00
508.1540, 18656.00
509.3350, 18590.00
510.5170, 18740.00
511.6980, 18624.00
512.8790, 18960.00
514.0600, 19319.00
515.2400, 19456.00
516.4210, 19820.00
517.6010, 20574.00
518.7810, 20941.00
519.9620, 21675.00
521.1410, 22656.00
522.3210, 23572.00
523.5010, 24956.00
524.6800, 26156.00
525.8600, 27530.00
527.0390, 29270.00
528.2180, 31115.00
529.3970, 32883.00
530.5750, 34610.00
531.7540, 36688.00
532.9320, 38735.00
534.1110, 40794.00
535.2890, 42168.00
536.4670, 43277.00
537.6440, 44069.00
538.8220, 44542.00
540.0000, 44436.00
541.1770, 43914.00
542.3540, 43420.00
543.5310, 42412.00
544.7080, 41679.00
545.8850, 40754.00
547.0610, 40010.00
548.2380, 39132.00
549.4140, 38602.00
550.5900, 38104.00
551.7660, 37512.00
552.9420, 37461.00
554.1170, 37373.00
555.2930, 37404.00
556.4680, 37741.00
557.6430, 38298.00
558.8180, 38582.00
559.9930, 39757.00
561.1680, 40283.00
562.3430, 41172.00
563.5170, 42861.00
564.6910, 44480.00
565.8650, 46505.00
567.0390, 48902.00
568.2130, 51825.00
569.3870, 55253.00
570.5600, 59213.03
571.7340, 63602.24
572.9070, 68662.00
574.0800, 73780.00
575.2530, 79721.00
576.4250, 85811.00
577.5980, 91809.00
578.7700, 97910.00
579.9430, 102593.0
581.1150, 106086.0
582.2870, 107609.0
583.4590, 107046.0
584.6300, 103292.0
585.8020, 98036.00
586.9730, 91737.00
588.1440, 84413.00
589.3150, 76582.00
590.4860, 68569.00
591.6570, 61915.00
592.8270, 55238.00
593.9980, 49653.00
595.1680, 44930.00
596.3380, 41089.00
597.5080, 37578.00
598.6780, 34719.00
599.8480, 32333.00
601.0170, 30015.00
602.1860, 28228.00
603.3550, 26880.00
604.5240, 25195.00
605.6930, 23993.00
606.8620, 23346.00
608.0310, 22257.00
609.1990, 21599.00
610.3670, 20927.00
611.5350, 20446.00
612.7030, 19946.00
613.8710, 19628.00
615.0390, 19189.00
616.2060, 18972.00
617.3730, 18815.00
618.5410, 18530.00
619.7080, 18488.00
620.8740, 18274.00
622.0410, 18173.00
623.2080, 18287.00
624.3740, 18230.00
625.5400, 18155.00
626.7060, 18011.00
627.8720, 18063.00
629.0380, 17823.00
630.2040, 17889.00
631.3690, 17622.00
632.5340, 17733.00
633.6990, 17774.00
634.8640, 17940.00
636.0290, 18030.00
637.1940, 18095.00
638.3580, 18212.00
639.5230, 18290.00
640.6870, 18478.00
641.8510, 18587.00
643.0150, 18855.00
644.1790, 19074.00
645.3420, 19433.00
646.5060, 19708.00
647.6690, 20088.00
648.8320, 20633.00
649.9950, 21143.00
651.1580, 21584.00
652.3200, 22119.00
653.4830, 22690.00
654.6450, 23305.00
655.8070, 24021.00
656.9690, 24563.00
658.1310, 24921.00
659.2930, 25420.00
660.4540, 25468.00
661.6160, 25663.00
662.7770, 25736.00
663.9380, 25401.00
665.0990, 25144.00
666.2600, 24473.00
667.4200, 23820.00
668.5810, 22691.00
669.7410, 21787.00
670.9010, 20976.00
672.0610, 20287.00
673.2210, 19036.00
674.3810, 18402.00
675.5400, 17718.00
676.6990, 17099.00
677.8590, 16581.00
679.0180, 16020.00
680.1760, 15471.00
681.3350, 15096.63
682.4940, 14674.65
683.6520, 14404.00
684.8100, 14067.00
685.9680, 13784.00
687.1260, 13628.00
688.2840, 13363.00
689.4420, 13266.00
690.5990, 13232.00
691.7560, 12946.00
692.9140, 12598.00
694.0710, 12976.00
695.2270, 13061.00
696.3840, 12488.00
697.5410, 12216.00
698.6970, 12166.00
699.8530, 12251.00
701.0090, 12177.00
702.1650, 12065.00
703.3210, 11986.00
704.4760, 12008.00
705.6320, 11946.00
706.7870, 11915.70
707.9420, 11925.00
709.0970, 11835.00
710.2520, 11802.00
711.4060, 11736.00
712.5610, 11762.00
713.7150, 11679.00
714.8690, 11685.00
716.0230, 11610.00
717.1770, 11744.00
718.3310, 11711.00
719.4840, 11673.00
720.6380, 11502.00
721.7910, 11582.00
722.9440, 11500.00
724.0970, 11734.00
725.2490, 11614.00
726.4020, 11539.00
727.5540, 11438.00
728.7070, 11682.00
729.8590, 11557.00
731.0110, 11688.00
732.1620, 11395.00
733.3140, 11421.00
734.4650, 11471.00
735.6170, 11476.00
736.7680, 11468.00
737.9190, 11423.00
739.0700, 11612.00
740.2200, 11611.00
741.3710, 11565.00
742.5210, 11341.00
743.6710, 11545.00
744.8210, 11584.00
745.9710, 11535.00
747.1210, 11666.00
748.2700, 11494.00
749.4200, 11781.00
750.5690, 11780.00
751.7180, 11680.00
752.8670, 11909.00
754.0160, 12065.00
755.1640, 11960.00
756.3130, 12092.00
757.4610, 12282.00
758.6090, 12443.00
759.7570, 12675.00
760.9050, 12842.00
762.0530, 12985.40
763.2000, 13081.43
764.3470, 13198.00
765.4940, 13214.00
766.6410, 13201.32
767.7880, 13303.00
768.9350, 13000.00
770.0810, 12874.00
771.2280, 12655.00
772.3740, 12658.00
773.5200, 12521.00
774.6660, 12472.00
775.8120, 12572.00
776.9570, 12595.00
778.1030, 12696.47
779.2480, 12799.63
780.3930, 12977.00
781.5380, 13077.00
782.6830, 13290.00
783.8270, 13531.00
784.9720, 13885.00
786.1160, 14307.00
787.2600, 14877.00
788.4040, 15201.00
789.5480, 15441.00
790.6910, 15565.00
791.8350, 15579.00
792.9780, 15341.00
794.1210, 14863.00
795.2640, 14337.00
796.4070, 14096.00
797.5500, 13685.00
798.6920, 13328.00
799.8350, 13025.00
800.9770, 12827.81
802.1190, 12710.00
803.2610, 12597.00
804.4030, 12487.00
805.5440, 12475.00
806.6850, 12361.00
807.8270, 12374.00
808.9680, 12399.00
810.1090, 12320.00
811.2490, 12478.00
812.3900, 12371.00
813.5300, 12312.00
814.6710, 12496.00
815.8110, 12472.00
816.9510, 12465.00
818.0910, 12495.00
819.2300, 12538.00
820.3700, 12576.43
821.5090, 12639.00
822.6480, 12711.54
823.7870, 12753.00
824.9260, 12866.00
826.0640, 13010.00
827.2030, 13030.72
828.3410, 12857.00
829.4790, 13121.00
830.6170, 13029.00
831.7550, 13066.00
832.8930, 13177.00
834.0310, 13122.00
835.1680, 13167.00
836.3050, 13204.00
837.4420, 13163.00
838.5790, 13302.00
839.7160, 13307.00
840.8520, 13377.00
841.9890, 13311.00
843.1250, 13156.00
844.2610, 13092.00
845.3970, 13120.00
846.5330, 13371.00
847.6680, 13057.00
848.8040, 13128.00
849.9390, 12923.00
851.0740, 13112.00
852.2090, 12957.00
853.3440, 12874.00
854.4780, 12927.00
855.6130, 13045.00
856.7470, 12936.00
857.8810, 13011.00
859.0150, 12899.00
860.1490, 12907.00
861.2830, 12984.00
862.4160, 12889.00
863.5490, 12890.00
864.6830, 12747.00
865.8160, 12765.00
866.9480, 12681.00
868.0810, 12773.00
869.2140, 12621.00
870.3460, 12713.00
871.4780, 12587.00
872.6100, 12599.00
873.7420, 12402.00
874.8740, 12544.00
876.0050, 12615.00
877.1370, 12498.00
878.2680, 12652.00
879.3990, 12614.00
880.5300, 12498.00
881.6600, 12526.00
882.7910, 12647.00
883.9210, 12541.00
885.0520, 12690.00
886.1820, 12532.00
887.3120, 12594.00
888.4410, 12537.00
889.5710, 12542.76
890.7000, 12656.00
891.8300, 12620.00
892.9590, 12703.00
894.0880, 12792.00
895.2160, 12824.00
896.3450, 12671.00
897.4730, 12776.00
898.6020, 12672.00
899.7300, 12678.00
900.8580, 12774.00
901.9860, 12741.00
903.1130, 12763.00
904.2410, 12749.00
905.3680, 12693.00
906.4950, 12622.00
907.6220, 12800.00
908.7490, 12732.00
909.8760, 12798.00
911.0020, 12745.00
912.1280, 12882.00
913.2550, 12723.00
914.3810, 12699.00
915.5060, 12657.00
916.6320, 12802.00
917.7580, 12858.00
918.8830, 12829.57
920.0080, 12856.29
921.1330, 12743.00
922.2580, 12850.00
923.3830, 12722.00
924.5070, 12860.00
925.6310, 12772.00
926.7560, 12798.00
927.8800, 12966.00
929.0040, 12843.00
930.1270, 12714.00
931.2510, 12735.00
932.3740, 12909.00
933.4970, 12847.00
934.6200, 12975.00
935.7430, 12879.00
936.8660, 12993.00
937.9890, 13018.00
939.1110, 12962.00
940.2330, 12925.00
941.3550, 12947.00
942.4770, 12911.52
943.5990, 12902.00
944.7200, 12974.00
945.8420, 13008.00
946.9630, 13057.46
948.0840, 13107.58
949.2050, 13188.00
950.3260, 13188.00
951.4460, 13272.00
952.5670, 13294.00
953.6870, 13315.59
954.8070, 13277.00
955.9270, 13353.00
957.0470, 13378.00
958.1660, 13397.00
959.2860, 13496.00
960.4050, 13377.00
961.5240, 13447.00
962.6430, 13523.00
963.7620, 13493.00
964.8810, 13543.00
965.9990, 13635.00
967.1170, 14042.00
968.2350, 14093.00
969.3530, 14111.00
970.4710, 14181.00
971.5890, 14156.00
972.7060, 14009.00
973.8240, 13927.00
974.9410, 13695.00
976.0580, 13722.00
977.1740, 13625.00
978.2910, 13631.00
979.4080, 13603.00
980.5240, 13546.00
981.6400, 13620.00
982.7560, 13769.00
983.8720, 13903.00
984.9870, 13844.00
986.1030, 13856.00
987.2180, 13873.00
988.3330, 13913.45
989.4480, 13968.00
990.5630, 14236.00
991.6780, 14175.00
992.7920, 14718.00
993.9070, 14855.23
995.0210, 15039.00
996.1350, 15401.00
997.2490, 14850.00
998.3620, 15039.00
999.4760, 15528.00
1000.589, 15694.00
1001.702, 16206.00
1002.815, 16560.00
1003.928, 16743.00
1005.041, 17179.00
1006.153, 17472.00
1007.266, 17357.00
1008.378, 17283.00
1009.490, 16981.00
1010.602, 16426.00
1011.713, 16094.00
1012.825, 15614.00
1013.936, 15363.00
1015.047, 15008.00
1016.158, 14810.00
1017.269, 14775.00
1018.380, 14558.00
1019.490, 14514.00
1020.601, 14616.00
1021.711, 14665.00
1022.821, 14727.00
1023.931, 14856.00
1025.040, 14999.00
1026.150, 15196.28
1027.259, 15482.00
1028.368, 15739.00
1029.477, 16023.00
1030.586, 16461.00
1031.695, 16805.00
1032.803, 17309.00
1033.912, 17591.00
1035.020, 18258.00
1036.128, 18848.00
1037.236, 19172.00
1038.343, 20039.00
1039.451, 20661.00
1040.558, 21582.00
1041.665, 22751.00
1042.772, 24104.00
1043.879, 25693.00
1044.986, 27422.00
1046.093, 29866.00
1047.199, 32892.00
1048.305, 36771.00
1049.411, 41510.00
1050.517, 47257.00
1051.623, 55059.00
1052.728, 63910.00
1053.833, 75185.00
1054.939, 88321.00
1056.044, 102820.0
1057.148, 117613.0
1058.253, 130744.0
1059.358, 140061.0
1060.462, 141177.0
1061.566, 135291.0
1062.670, 123860.0
1063.774, 108914.0
1064.878, 94433.00
1065.981, 81456.00
1067.085, 70042.00
1068.188, 60687.00
1069.291, 52888.00
1070.394, 46613.00
1071.496, 41494.00
1072.599, 37458.00
1073.701, 34266.00
1074.803, 31693.00
1075.905, 29297.00
1077.007, 27664.00
1078.109, 26317.00
1079.210, 24791.00
1080.312, 23992.00
1081.413, 23221.00
1082.514, 22577.00
1083.615, 22199.00
1084.715, 22008.00
1085.816, 21510.00
1086.916, 21471.00
1088.016, 21214.00
1089.116, 20861.00
1090.216, 20438.00
1091.316, 19979.00
1092.415, 19318.00
1093.515, 18853.00
1094.614, 18414.00
1095.713, 17946.93
1096.812, 17514.00
1097.910, 17217.00
1099.009, 16879.00
1100.107, 16636.00
1101.205, 16409.00
1102.303, 16333.00
1103.401, 16187.00
1104.499, 16235.00
1105.596, 16071.00
1106.693, 15672.00
1107.791, 15893.00
1108.888, 15703.00
1109.984, 15797.00
1111.081, 15725.00
1112.177, 15930.00
1113.274, 15818.00
1114.370, 15877.00
1115.466, 15829.00
1116.562, 15714.00
1117.657, 15484.00
1118.753, 15432.00
1119.848, 15307.00
1120.943, 15192.00
1122.038, 14990.00
1123.133, 15053.00
1124.228, 14794.00
1125.322, 14864.00
1126.416, 14763.00
1127.510, 14635.00
1128.604, 14712.00
1129.698, 14605.00
1130.792, 14600.00
1131.885, 14607.00
1132.978, 14475.00
1134.071, 14451.00
1135.164, 14549.00
1136.257, 14414.00
1137.350, 14263.00
1138.442, 14305.00
1139.534, 14519.00
1140.627, 14189.00
1141.718, 14449.00
1142.810, 14338.00
1143.902, 14225.00
1144.993, 14295.00
1146.084, 14202.08
1147.176, 14273.00
1148.266, 14204.00
1149.357, 14193.00
1150.448, 14299.00
1151.538, 14243.00
1152.628, 14248.00
1153.718, 14227.00
1154.808, 14365.00
1155.898, 14153.00
1156.988, 14348.00
1158.077, 14142.00
1159.166, 14384.00
1160.255, 14277.00
1161.344, 14394.00
1162.433, 14316.00
1163.521, 14047.00
1164.610, 14305.00
1165.698, 14392.00
1166.786, 14050.00
1167.874, 14299.00
1168.961, 14459.00
1170.049, 14383.00
1171.136, 14223.00
1172.224, 14220.00
1173.311, 14170.00
1174.397, 14289.00
1175.484, 14275.55
1176.571, 14142.00
1177.657, 14374.00
1178.743, 14103.00
1179.829, 14174.00
1180.915, 14272.00
1182.001, 14110.00
1183.086, 14100.00
1184.171, 14262.00
1185.256, 14308.00
1186.341, 14267.00
1187.426, 14210.00
1188.511, 14143.00
1189.595, 14133.00
1190.680, 14185.00
1191.764, 14227.00
1192.848, 14129.00
1193.932, 14193.69
1195.015, 14078.00
1196.099, 14168.00
1197.182, 14134.00
1198.265, 14009.00
1199.348, 14139.00
1200.431, 14219.00
1201.513, 14257.00
1202.596, 14225.00
1203.678, 14153.00
1204.760, 14163.00
1205.842, 14091.00
1206.924, 14281.00
1208.005, 14142.00
1209.087, 14279.00
1210.168, 14041.00
1211.249, 14128.00
1212.330, 14151.00
1213.411, 14175.00
1214.491, 14263.00
1215.572, 14169.00
1216.652, 14223.00
1217.732, 14287.00
1218.812, 14143.00
1219.891, 14276.00
1220.971, 14209.00
1222.050, 14328.00
1223.129, 14276.00
1224.208, 14333.00
1225.287, 14181.00
1226.366, 14310.00
1227.444, 14299.00
1228.523, 14238.00
1229.601, 14367.00
1230.679, 14362.00
1231.757, 14283.00
1232.834, 14304.00
1233.912, 14361.00
1234.989, 14220.00
1236.066, 14411.00
1237.143, 14415.00
1238.220, 14340.00
1239.297, 14330.00
1240.373, 14287.00
1241.449, 14305.00
1242.526, 14314.94
1243.601, 14383.00
1244.677, 14392.00
1245.753, 14329.00
1246.828, 14404.00
1247.904, 14449.00
1248.979, 14559.00
1250.054, 14580.00
1251.128, 14472.00
1252.203, 14430.00
1253.277, 14297.00
1254.351, 14394.00
1255.426, 14543.00
1256.499, 14517.00
1257.573, 14435.00
1258.647, 14533.00
1259.720, 14364.00
1260.793, 14475.00
1261.866, 14467.00
1262.939, 14474.00
1264.012, 14556.00
1265.084, 14578.00
1266.157, 14582.00
1267.229, 14528.00
1268.301, 14589.00
1269.373, 14659.00
1270.444, 14524.00
1271.516, 14658.00
1272.587, 14740.00
1273.658, 14520.00
1274.729, 14696.00
1275.800, 14816.00
1276.871, 14678.00
1277.941, 14676.00
1279.011, 14636.00
1280.082, 14619.00
1281.151, 14627.00
1282.221, 14663.00
1283.291, 14646.00
1284.360, 14547.00
1285.430, 14597.00
1286.499, 14534.00
1287.568, 14617.00
1288.636, 14529.00
1289.705, 14491.00
1290.773, 14581.00
1291.841, 14582.00
1292.909, 14679.00
1293.977, 14692.00
1295.045, 14634.00
1296.113, 14681.00
1297.180, 14657.00
1298.247, 14658.00
1299.314, 14684.00
1300.381, 14705.00
1301.448, 14615.00
1302.514, 14569.00
1303.580, 14553.00
1304.647, 14783.00
1305.713, 14543.00
1306.778, 14624.00
1307.844, 14467.00
1308.910, 14661.00
1309.975, 14672.00
1311.040, 14897.00
1312.105, 14742.00
1313.170, 14839.00
1314.234, 14656.00
1315.299, 14731.00
1316.363, 14542.00
1317.427, 14647.00
1318.491, 14858.00
1319.555, 14667.00
1320.618, 14755.00
1321.682, 14671.00
1322.745, 14704.00
1323.808, 14600.00
1324.871, 14599.00
1325.933, 14562.00
1326.996, 14637.00
1328.058, 14549.00
1329.121, 14746.00
1330.183, 14620.00
1331.244, 14612.00
1332.306, 14689.00
1333.368, 14555.00
1334.429, 14650.00
1335.490, 14586.00
1336.551, 14721.00
1337.612, 14665.00
1338.672, 14474.00
1339.733, 14798.95
1340.793, 14905.78
1341.853, 14957.72
1342.913, 14957.72
1343.973, 14750.20
1345.033, 14658.00
1346.092, 14720.00
1347.151, 14632.00
1348.210, 14554.00
1349.269, 14711.00
1350.328, 14658.00
1351.386, 14784.00
1352.445, 14562.00
1353.503, 14674.00
1354.561, 14740.00
1355.619, 14750.00
1356.677, 14855.00
1357.734, 14878.00
1358.791, 14796.00
1359.849, 14822.00
1360.906, 14811.32
1361.962, 14622.00
1363.019, 14842.00
1364.075, 14824.00
1365.132, 14889.00
1366.188, 14752.00
1367.244, 14842.00
1368.300, 14880.00
1369.355, 14890.00
1370.411, 14896.00
1371.466, 14919.00
1372.521, 14866.00
1373.576, 14909.24
1374.631, 14880.00
1375.685, 14895.00
1376.740, 14831.00
1377.794, 14838.81
1378.848, 14961.00
1379.902, 14833.00
1380.955, 14943.00
1382.009, 14970.00
1383.062, 14878.00
1384.115, 14970.00
1385.168, 15019.00
1386.221, 14998.00
1387.274, 15027.00
1388.326, 15035.00
1389.379, 14793.49
1390.431, 14917.77
1391.483, 14987.16
1392.534, 15004.60
1393.586, 14814.53
1394.637, 14892.43
1395.689, 14862.93
1396.740, 14829.03
1397.791, 14944.64
1398.841, 14784.75
1399.892, 14897.99
1400.942, 14902.21
1401.993, 14825.00
1403.043, 14980.00
1404.092, 14864.00
1405.142, 15156.00
1406.192, 15078.00
1407.241, 15097.00
1408.290, 15075.00
1409.339, 15023.00
1410.388, 15012.00
1411.437, 15066.00
1412.485, 15129.00
1413.533, 15072.00
1414.581, 15073.00
1415.629, 15189.00
1416.677, 15089.00
1417.725, 15210.00
1418.772, 15179.00
1419.819, 14943.00
1420.867, 15127.00
1421.913, 15289.00
1422.960, 15069.00
1424.007, 15035.00
1425.053, 15138.00
1426.099, 15283.00
1427.145, 15198.00
1428.191, 15314.00
1429.237, 15282.00
1430.282, 15435.00
1431.328, 15358.00
1432.373, 15456.00
1433.418, 15475.00
1434.462, 15544.00
1435.507, 15361.00
1436.552, 15554.00
1437.596, 15379.00
1438.640, 15669.00
1439.684, 15657.00
1440.728, 15738.00
1441.771, 15680.00
1442.815, 15825.00
1443.858, 15957.00
1444.901, 15537.00
1445.944, 15969.00
1446.986, 15816.00
1448.029, 15994.00
1449.071, 15861.00
1450.113, 15825.00
1451.155, 15966.00
1452.197, 16153.00
1453.239, 16013.00
1454.280, 15929.00
1455.322, 16063.00
1456.363, 15942.00
1457.404, 15881.00
1458.444, 16143.00
1459.485, 16000.00
1460.525, 16130.00
1461.566, 15937.00
1462.606, 16114.00
1463.646, 15839.00
1464.685, 15952.00
1465.725, 15922.00
1466.764, 15854.00
1467.803, 15774.00
1468.842, 15863.00
1469.881, 16024.00
1470.920, 15864.00
1471.958, 15883.00
1472.997, 15937.00
1474.035, 15912.00
1475.073, 16027.00
1476.111, 15880.00
1477.148, 15888.00
1478.186, 15922.00
1479.223, 15826.00
1480.260, 16037.00
1481.297, 16055.00
1482.334, 15975.00
1483.370, 15981.00
1484.407, 15844.00
1485.443, 15883.58
1486.479, 16009.00
1487.515, 15944.00
1488.550, 16038.00
1489.586, 16120.00
1490.621, 15948.00
1491.656, 16036.00
1492.691, 16069.00
1493.726, 16050.00
1494.761, 16165.00
1495.795, 16161.00
1496.829, 16024.00
1497.863, 15948.00
1498.897, 15981.00
1499.931, 16086.00
1500.965, 16028.00
1501.998, 16146.00
1503.031, 16246.00
1504.064, 16087.00
1505.097, 16222.00
1506.130, 16278.00
1507.162, 16198.00
1508.195, 16194.00
1509.227, 16371.00
1510.259, 16088.00
1511.291, 16273.00
1512.322, 16423.00
1513.354, 16456.00
1514.385, 16458.05
1515.416, 16378.00
1516.447, 16372.00
1517.478, 16295.00
1518.508, 16374.00
1519.539, 16382.00
1520.569, 16349.00
1521.599, 16408.00
1522.629, 16455.00
1523.658, 16552.00
1524.688, 16581.00
1525.717, 16425.00
1526.746, 16497.00
1527.775, 16457.00
1528.804, 16417.00
1529.833, 16432.00
1530.861, 16419.00
1531.890, 16536.00
1532.918, 16393.00
1533.946, 16485.00
1534.973, 16566.00
1536.001, 16388.00
1537.028, 16504.00
1538.055, 16588.00
1539.082, 16485.00
1540.109, 16342.00
1541.136, 16623.00
1542.163, 16595.00
1543.189, 16721.00
1544.215, 16512.00
1545.241, 16787.00
1546.267, 16714.00
1547.292, 16566.00
1548.318, 16664.00
1549.343, 16540.00
1550.368, 16658.00
1551.393, 16482.00
1552.418, 16534.00
1553.442, 16719.00
1554.467, 16643.00
1555.491, 16809.00
1556.515, 16679.00
1557.539, 16713.00
1558.562, 16813.00
1559.586, 16590.00
1560.609, 16655.00
1561.632, 16691.00
1562.655, 16836.00
1563.678, 16763.00
1564.701, 16833.00
1565.723, 16592.00
1566.745, 16689.00
1567.768, 16594.00
1568.789, 16600.00
1569.811, 16750.00
1570.833, 16733.00
1571.854, 16769.00
1572.875, 16607.00
1573.896, 16785.00
1574.917, 16722.00
1575.938, 16637.00
1576.958, 16711.00
##END=



