##NAMES=Fluorapatite
##RRUFFID=R050369
##IDEAL CHEMISTRY=Ca_5_(PO_4_)_3_F
##LOCALITY=Russia
##OWNER=RRUFF
##SOURCE=Eugene Schlepp
##DESCRIPTION=Blueish-green hexagonal prismatic crystal
##STATUS=The identification of this mineral has been confirmed by X-ray diffraction and chemical analysis
##URL=rruff.info/R050369
##MEASURED CHEMISTRY=(Ca_0.99_Na_0.01_)_5_((P_0.98_S_0.02_)O_4_)_3_F_1.00_
##PIN_ID=L01431
##ORIENTATION=Laser parallel to -c* (0 0 -1). Fiducial mark perpendicular to laser is parallel to b [0 1 0]
107.0470, 2412.000
108.2800, 2550.000
109.5120, 2493.000
110.7440, 2483.000
111.9760, 2398.000
113.2080, 2499.000
114.4400, 2553.000
115.6710, 2567.000
116.9030, 2557.000
118.1340, 2560.000
119.3650, 2621.000
120.5960, 2689.000
121.8270, 2636.000
123.0580, 2657.000
124.2880, 2724.000
125.5190, 2711.000
126.7490, 2733.000
127.9790, 2816.000
129.2090, 2965.000
130.4390, 2897.000
131.6680, 3026.000
132.8980, 3049.000
134.1270, 3189.000
135.3560, 3293.000
136.5850, 3468.000
137.8140, 3670.000
139.0430, 3867.000
140.2710, 4095.000
141.5000, 4134.000
142.7280, 4037.000
143.9560, 3881.000
145.1840, 3596.000
146.4120, 3512.000
147.6390, 3342.000
148.8670, 3217.000
150.0940, 3260.000
151.3210, 3297.000
152.5490, 3292.000
153.7750, 3311.000
155.0020, 3386.000
156.2290, 3475.000
157.4550, 3530.000
158.6810, 3596.000
159.9080, 3634.000
161.1340, 3625.784
162.3590, 3682.000
163.5850, 3588.000
164.8110, 3513.000
166.0360, 3513.000
167.2610, 3531.000
168.4860, 3564.000
169.7110, 3466.000
170.9360, 3454.000
172.1610, 3451.000
173.3850, 3365.000
174.6100, 3433.000
175.8340, 3414.000
177.0580, 3392.000
178.2820, 3281.000
179.5050, 3285.000
180.7290, 3264.000
181.9520, 3230.000
183.1760, 3233.000
184.3990, 3259.000
185.6220, 3163.000
186.8450, 3257.000
188.0670, 3211.000
189.2900, 3222.000
190.5120, 3267.000
191.7340, 3196.000
192.9560, 3245.000
194.1780, 3223.000
195.4000, 3266.000
196.6220, 3316.000
197.8430, 3261.000
199.0640, 3332.000
200.2860, 3305.000
201.5070, 3347.000
202.7270, 3375.000
203.9480, 3354.000
205.1690, 3444.000
206.3890, 3351.000
207.6090, 3404.000
208.8290, 3420.000
210.0490, 3442.000
211.2690, 3543.000
212.4890, 3551.000
213.7080, 3514.000
214.9280, 3518.000
216.1470, 3410.000
217.3660, 3461.000
218.5850, 3559.000
219.8030, 3497.000
221.0220, 3574.000
222.2400, 3432.000
223.4590, 3524.000
224.6770, 3543.000
225.8950, 3563.000
227.1120, 3610.000
228.3300, 3649.585
229.5480, 3654.000
230.7650, 3734.000
231.9820, 3803.000
233.1990, 3803.000
234.4160, 3783.000
235.6330, 3882.000
236.8490, 3853.000
238.0660, 3878.000
239.2820, 3828.000
240.4980, 3808.000
241.7140, 3781.000
242.9300, 3785.000
244.1460, 3749.000
245.3610, 3743.000
246.5770, 3733.292
247.7920, 3660.000
249.0070, 3734.000
250.2220, 3681.000
251.4370, 3716.000
252.6510, 3772.000
253.8660, 3850.000
255.0800, 3820.000
256.2940, 3842.000
257.5080, 3908.000
258.7220, 3898.000
259.9360, 4003.000
261.1490, 4099.000
262.3630, 4150.000
263.5760, 4319.000
264.7890, 4435.000
266.0020, 4535.000
267.2150, 4530.000
268.4270, 4607.000
269.6400, 4552.000
270.8520, 4604.000
272.0640, 4416.000
273.2760, 4338.000
274.4880, 4414.000
275.7000, 4202.000
276.9120, 4192.000
278.1230, 4141.000
279.3340, 4029.000
280.5450, 4049.000
281.7560, 4002.000
282.9670, 3963.000
284.1780, 4006.000
285.3880, 3956.000
286.5980, 4024.000
287.8090, 3989.000
289.0190, 3972.000
290.2290, 4000.449
291.4380, 3952.000
292.6480, 4015.000
293.8570, 4051.000
295.0670, 4054.000
296.2760, 4105.000
297.4850, 4085.000
298.6930, 4135.000
299.9020, 4164.000
301.1110, 4152.000
302.3190, 4173.000
303.5270, 4260.000
304.7350, 4326.000
305.9430, 4364.000
307.1510, 4415.201
308.3580, 4441.000
309.5660, 4469.000
310.7730, 4475.000
311.9800, 4478.000
313.1870, 4396.000
314.3940, 4435.000
315.6010, 4476.000
316.8070, 4500.000
318.0130, 4378.000
319.2200, 4379.000
320.4260, 4295.000
321.6310, 4281.000
322.8370, 4357.000
324.0430, 4214.000
325.2480, 4356.000
326.4540, 4244.000
327.6590, 4261.000
328.8640, 4210.000
330.0680, 4190.000
331.2730, 4151.000
332.4780, 4206.000
333.6820, 4250.000
334.8860, 4206.000
336.0900, 4262.000
337.2940, 4154.000
338.4980, 4179.000
339.7010, 4242.000
340.9050, 4174.000
342.1080, 4223.000
343.3110, 4175.000
344.5140, 4250.000
345.7170, 4249.000
346.9200, 4244.000
348.1220, 4249.000
349.3240, 4271.000
350.5270, 4265.000
351.7290, 4224.000
352.9310, 4257.000
354.1320, 4263.000
355.3340, 4250.000
356.5350, 4278.000
357.7370, 4307.000
358.9380, 4366.000
360.1390, 4368.000
361.3400, 4352.000
362.5400, 4329.000
363.7410, 4290.000
364.9410, 4331.000
366.1410, 4329.000
367.3410, 4406.000
368.5410, 4335.000
369.7410, 4368.000
370.9400, 4401.000
372.1400, 4395.000
373.3390, 4423.000
374.5380, 4385.000
375.7370, 4475.000
376.9360, 4446.000
378.1350, 4491.000
379.3330, 4540.000
380.5310, 4516.000
381.7300, 4475.000
382.9280, 4445.000
384.1260, 4512.000
385.3230, 4503.000
386.5210, 4430.000
387.7180, 4608.000
388.9160, 4533.000
390.1130, 4576.000
391.3100, 4581.000
392.5060, 4644.000
393.7030, 4653.125
394.9000, 4606.000
396.0960, 4667.000
397.2920, 4654.000
398.4880, 4609.000
399.6840, 4639.000
400.8800, 4693.000
402.0750, 4681.000
403.2710, 4668.000
404.4660, 4734.000
405.6610, 4739.000
406.8560, 4679.000
408.0510, 4667.000
409.2450, 4677.896
410.4400, 4817.000
411.6340, 4732.000
412.8280, 4801.000
414.0220, 4880.000
415.2160, 4883.000
416.4100, 4919.000
417.6030, 4965.000
418.7970, 4934.000
419.9900, 4980.000
421.1830, 5094.000
422.3760, 4958.000
423.5690, 5104.000
424.7610, 5135.000
425.9540, 5150.000
427.1460, 5315.000
428.3380, 5337.000
429.5300, 5400.000
430.7220, 5425.000
431.9140, 5480.000
433.1050, 5563.000
434.2970, 5619.890
435.4880, 5749.738
436.6790, 5796.000
437.8700, 6036.000
439.0610, 6183.000
440.2510, 6360.000
441.4420, 6469.000
442.6320, 6579.000
443.8220, 6778.000
445.0120, 6898.000
446.2020, 7058.000
447.3910, 6981.000
448.5810, 6963.000
449.7700, 6979.000
450.9600, 6862.000
452.1490, 6731.000
453.3370, 6525.000
454.5260, 6453.000
455.7150, 6319.000
456.9030, 6111.000
458.0910, 5996.000
459.2800, 5949.000
460.4670, 5775.000
461.6550, 5777.000
462.8430, 5708.000
464.0300, 5676.000
465.2180, 5624.000
466.4050, 5641.000
467.5920, 5586.000
468.7790, 5541.000
469.9650, 5465.000
471.1520, 5462.000
472.3380, 5494.000
473.5250, 5500.000
474.7110, 5475.000
475.8970, 5376.000
477.0820, 5476.000
478.2680, 5436.000
479.4540, 5501.000
480.6390, 5530.000
481.8240, 5476.000
483.0090, 5442.000
484.1940, 5608.000
485.3780, 5438.000
486.5630, 5474.000
487.7470, 5557.000
488.9320, 5520.000
490.1160, 5514.000
491.3000, 5515.000
492.4830, 5569.000
493.6670, 5595.000
494.8500, 5561.000
496.0340, 5524.000
497.2170, 5636.000
498.4000, 5473.000
499.5820, 5529.000
500.7650, 5598.000
501.9480, 5589.000
503.1300, 5642.908
504.3120, 5652.725
505.4940, 5680.000
506.6760, 5668.000
507.8580, 5645.000
509.0390, 5642.000
510.2210, 5678.000
511.4020, 5738.000
512.5830, 5681.000
513.7640, 5620.000
514.9450, 5673.000
516.1250, 5689.000
517.3060, 5756.000
518.4860, 5779.000
519.6660, 5792.000
520.8460, 5759.000
522.0260, 5769.000
523.2060, 5841.000
524.3850, 5796.000
525.5650, 5858.000
526.7440, 5862.000
527.9230, 5896.000
529.1020, 5894.000
530.2810, 5941.000
531.4590, 5975.925
532.6380, 5951.000
533.8160, 5982.757
534.9940, 5965.000
536.1720, 5987.000
537.3500, 6004.000
538.5270, 5994.000
539.7050, 6053.000
540.8820, 5953.000
542.0590, 6086.000
543.2360, 5979.000
544.4130, 6016.000
545.5900, 6014.000
546.7660, 6095.000
547.9430, 6110.000
549.1190, 6127.000
550.2950, 6123.000
551.4710, 6140.286
552.6470, 6142.408
553.8220, 6171.000
554.9980, 6177.000
556.1730, 6214.000
557.3480, 6292.000
558.5230, 6261.000
559.6980, 6230.000
560.8730, 6311.000
562.0470, 6328.000
563.2220, 6377.000
564.3960, 6432.198
565.5700, 6441.457
566.7440, 6517.000
567.9170, 6502.000
569.0910, 6504.000
570.2640, 6589.000
571.4380, 6683.011
572.6110, 6879.000
573.7840, 7004.000
574.9570, 7282.000
576.1290, 7533.000
577.3020, 7917.000
578.4740, 8338.000
579.6460, 8881.000
580.8180, 9420.000
581.9900, 9551.000
583.1620, 9153.000
584.3330, 8578.000
585.5040, 8017.000
586.6760, 7621.000
587.8470, 7381.000
589.0180, 7343.000
590.1880, 7311.000
591.3590, 7315.000
592.5290, 7262.135
593.7000, 7271.000
594.8700, 7182.000
596.0400, 7125.000
597.2090, 7084.000
598.3790, 7201.000
599.5490, 7185.000
600.7180, 7360.000
601.8870, 7554.000
603.0560, 7664.000
604.2250, 7973.000
605.3940, 8344.000
606.5620, 8708.000
607.7300, 8837.000
608.8990, 8696.000
610.0670, 8349.000
611.2350, 8009.000
612.4020, 7768.000
613.5700, 7705.000
614.7370, 7646.000
615.9050, 7780.000
617.0720, 7742.000
618.2390, 7635.000
619.4060, 7627.000
620.5720, 7467.000
621.7390, 7254.000
622.9050, 7203.000
624.0710, 7179.000
625.2370, 7080.000
626.4030, 7167.000
627.5690, 7155.000
628.7340, 7133.000
629.9000, 7094.000
631.0650, 7038.000
632.2300, 7180.000
633.3950, 7213.000
634.5600, 7242.000
635.7240, 7160.000
636.8890, 7153.000
638.0530, 7198.000
639.2170, 7251.000
640.3810, 7282.000
641.5450, 7284.000
642.7080, 7278.000
643.8720, 7253.000
645.0350, 7320.000
646.1980, 7294.000
647.3610, 7383.000
648.5240, 7440.000
649.6870, 7443.000
650.8490, 7465.712
652.0120, 7463.080
653.1740, 7462.000
654.3360, 7417.000
655.4980, 7457.000
656.6600, 7400.000
657.8210, 7493.000
658.9830, 7400.000
660.1440, 7467.000
661.3050, 7473.000
662.4660, 7605.000
663.6270, 7467.000
664.7870, 7635.000
665.9480, 7592.000
667.1080, 7617.000
668.2680, 7624.000
669.4280, 7639.000
670.5880, 7716.000
671.7480, 7700.000
672.9070, 7645.000
674.0670, 7661.000
675.2260, 7744.000
676.3850, 7723.000
677.5440, 7763.000
678.7030, 7735.000
679.8610, 7678.000
681.0200, 7715.000
682.1780, 7820.000
683.3360, 7731.000
684.4940, 7763.000
685.6520, 7710.000
686.8090, 7818.000
687.9670, 7809.000
689.1240, 7830.000
690.2810, 7911.000
691.4380, 7949.000
692.5950, 7914.000
693.7520, 7973.000
694.9080, 7936.000
696.0650, 7893.000
697.2210, 7985.000
698.3770, 7962.000
699.5330, 8022.000
700.6880, 7857.000
701.8440, 8015.000
702.9990, 7921.000
704.1550, 8073.000
705.3100, 8034.000
706.4650, 8013.000
707.6190, 8045.000
708.7740, 8096.000
709.9290, 8191.000
711.0830, 8247.000
712.2370, 8188.000
713.3910, 8320.000
714.5450, 8245.000
715.6980, 8274.000
716.8520, 8259.000
718.0050, 8217.000
719.1580, 8246.000
720.3110, 8099.000
721.4640, 8355.000
722.6170, 8304.000
723.7700, 8410.000
724.9220, 8341.000
726.0740, 8282.000
727.2260, 8268.000
728.3780, 8310.000
729.5300, 8409.000
730.6810, 8367.000
731.8330, 8521.000
732.9840, 8435.000
734.1350, 8439.000
735.2860, 8543.000
736.4370, 8429.000
737.5880, 8436.000
738.7380, 8532.000
739.8880, 8483.000
741.0390, 8528.000
742.1890, 8667.000
743.3380, 8579.000
744.4880, 8592.000
745.6380, 8619.000
746.7870, 8678.000
747.9360, 8591.000
749.0850, 8567.000
750.2340, 8620.000
751.3830, 8610.777
752.5310, 8657.699
753.6800, 8694.000
754.8280, 8756.000
755.9760, 8797.000
757.1240, 8847.000
758.2720, 8926.000
759.4190, 8858.000
760.5670, 8903.000
761.7140, 8837.000
762.8610, 8895.000
764.0080, 8885.922
765.1550, 8978.000
766.3020, 8911.000
767.4480, 8975.000
768.5950, 9016.000
769.7410, 9045.000
770.8870, 8927.000
772.0330, 9095.000
773.1780, 8963.000
774.3240, 8992.000
775.4690, 9140.000
776.6140, 9044.000
777.7590, 9082.000
778.9040, 9063.000
780.0490, 9096.000
781.1940, 9029.000
782.3380, 9252.000
783.4820, 9237.000
784.6260, 9228.000
785.7700, 9220.000
786.9140, 9217.931
788.0580, 9240.965
789.2010, 9244.000
790.3450, 9295.000
791.4880, 9363.000
792.6310, 9382.651
793.7730, 9423.893
794.9160, 9386.000
796.0590, 9452.000
797.2010, 9401.000
798.3430, 9359.000
799.4850, 9452.000
800.6270, 9441.000
801.7690, 9526.000
802.9100, 9515.000
804.0520, 9509.000
805.1930, 9564.313
806.3340, 9517.000
807.4750, 9627.000
808.6160, 9615.000
809.7560, 9633.000
810.8970, 9625.000
812.0370, 9569.000
813.1770, 9637.000
814.3170, 9658.000
815.4570, 9752.000
816.5960, 9766.000
817.7360, 9710.000
818.8750, 9809.000
820.0140, 9750.000
821.1530, 9741.000
822.2920, 9845.000
823.4310, 9792.000
824.5690, 9750.000
825.7070, 9823.000
826.8460, 9986.000
827.9840, 10007.00
829.1220, 9972.000
830.2590, 10065.00
831.3970, 10041.00
832.5340, 9995.000
833.6710, 10043.00
834.8080, 10088.00
835.9450, 10123.00
837.0820, 10130.00
838.2190, 10145.81
839.3550, 10151.77
840.4910, 10138.00
841.6270, 10141.00
842.7630, 10122.00
843.8990, 10093.00
845.0350, 10253.00
846.1700, 10311.00
847.3060, 10252.00
848.4410, 10228.00
849.5760, 10299.00
850.7100, 10414.00
851.8450, 10372.00
852.9800, 10390.00
854.1140, 10461.00
855.2480, 10347.00
856.3820, 10315.00
857.5160, 10423.00
858.6500, 10491.00
859.7830, 10446.00
860.9170, 10599.00
862.0500, 10534.00
863.1830, 10690.00
864.3160, 10631.00
865.4480, 10601.00
866.5810, 10672.00
867.7130, 10632.46
868.8460, 10705.00
869.9780, 10688.00
871.1100, 10698.00
872.2410, 10818.00
873.3730, 10850.00
874.5050, 10766.00
875.6360, 10876.00
876.7670, 10951.00
877.8980, 10802.00
879.0290, 10791.00
880.1590, 10859.00
881.2900, 10821.00
882.4200, 10988.00
883.5500, 10882.00
884.6800, 11015.00
885.8100, 10898.00
886.9400, 10930.00
888.0690, 10912.00
889.1990, 10876.00
890.3280, 11073.00
891.4570, 10997.00
892.5860, 11073.00
893.7140, 11118.78
894.8430, 11117.00
895.9710, 11120.00
897.1000, 11171.00
898.2280, 11063.00
899.3560, 11294.00
900.4830, 11141.00
901.6110, 11237.00
902.7380, 11130.00
903.8660, 11267.00
904.9930, 11202.00
906.1200, 11313.00
907.2460, 11394.00
908.3730, 11367.00
909.5000, 11449.00
910.6260, 11527.00
911.7520, 11374.00
912.8780, 11403.00
914.0040, 11474.00
915.1290, 11410.00
916.2550, 11542.00
917.3800, 11625.00
918.5050, 11566.00
919.6300, 11521.00
920.7550, 11572.00
921.8800, 11618.00
923.0040, 11672.00
924.1290, 11790.00
925.2530, 11712.00
926.3770, 11786.00
927.5010, 11814.00
928.6250, 11766.00
929.7480, 11740.00
930.8720, 11960.00
931.9950, 11989.00
933.1180, 11925.00
934.2410, 12038.00
935.3640, 12017.00
936.4860, 12062.00
937.6090, 12281.00
938.7310, 12065.00
939.8530, 12156.00
940.9750, 12435.00
942.0970, 12517.00
943.2180, 12606.00
944.3400, 12691.00
945.4610, 12845.00
946.5820, 13124.00
947.7030, 13340.00
948.8240, 13383.00
949.9450, 13845.00
951.0650, 14005.00
952.1860, 14380.00
953.3060, 14959.00
954.4260, 15861.00
955.5460, 17168.00
956.6650, 19038.00
957.7850, 21642.00
958.9040, 25119.00
960.0230, 29724.00
961.1420, 35892.00
962.2610, 43986.00
963.3800, 52768.00
964.4990, 59531.00
965.6170, 61091.00
966.7350, 55440.00
967.8530, 45232.00
968.9710, 35356.00
970.0890, 27717.00
971.2070, 22813.00
972.3240, 19661.00
973.4410, 17413.00
974.5580, 16185.00
975.6750, 15055.00
976.7920, 14452.00
977.9090, 14045.00
979.0250, 13749.00
980.1410, 13517.00
981.2580, 13370.00
982.3740, 13324.00
983.4890, 13193.00
984.6050, 13262.00
985.7200, 13283.00
986.8360, 13215.00
987.9510, 13108.00
989.0660, 13114.82
990.1810, 13167.00
991.2950, 13097.00
992.4100, 13105.00
993.5240, 13180.00
994.6390, 13041.00
995.7530, 13113.00
996.8660, 13276.00
997.9800, 13371.00
999.0940, 13189.00
1000.207, 13284.00
1001.320, 13396.00
1002.433, 13530.00
1003.546, 13572.00
1004.659, 13606.00
1005.772, 13856.00
1006.884, 13943.00
1007.996, 14114.00
1009.108, 14314.00
1010.220, 14394.00
1011.332, 14317.00
1012.444, 14278.00
1013.555, 14108.00
1014.666, 14056.00
1015.777, 14010.00
1016.888, 13869.00
1017.999, 13762.00
1019.110, 13881.00
1020.220, 13867.00
1021.331, 13862.00
1022.441, 13838.00
1023.551, 13822.00
1024.661, 13955.58
1025.770, 14240.00
1026.880, 14231.00
1027.989, 14519.00
1029.098, 14615.00
1030.207, 14953.00
1031.316, 15184.00
1032.425, 15343.00
1033.533, 15504.00
1034.642, 15441.00
1035.750, 15268.00
1036.858, 15223.00
1037.966, 15017.00
1039.073, 14613.00
1040.181, 14574.00
1041.288, 14423.00
1042.396, 14431.00
1043.503, 14455.00
1044.610, 14449.00
1045.716, 14502.00
1046.823, 14426.00
1047.929, 14430.00
1049.036, 14490.00
1050.142, 14569.00
1051.248, 14571.00
1052.353, 14776.00
1053.459, 14905.00
1054.564, 14967.00
1055.670, 15083.00
1056.775, 15229.00
1057.880, 15374.00
1058.985, 15698.00
1060.089, 15798.00
1061.194, 15763.00
1062.298, 15609.00
1063.402, 15433.00
1064.506, 15173.00
1065.610, 14988.00
1066.713, 14990.00
1067.817, 14891.00
1068.920, 14997.00
1070.023, 14787.00
1071.126, 14922.00
1072.229, 14978.00
1073.332, 15216.00
1074.435, 15076.00
1075.537, 15252.00
1076.639, 15239.00
1077.741, 15452.00
1078.843, 15480.00
1079.945, 15539.00
1081.046, 15478.00
1082.148, 15476.08
1083.249, 15340.00
1084.350, 15389.00
1085.451, 15285.00
1086.551, 15237.00
1087.652, 15302.00
1088.752, 15072.00
1089.853, 14996.00
1090.953, 15074.00
1092.053, 15060.00
1093.152, 15095.00
1094.252, 15104.00
1095.351, 15002.00
1096.451, 15170.00
1097.550, 15204.00
1098.649, 15138.00
1099.748, 15249.00
1100.846, 15174.00
1101.945, 15185.00
1103.043, 15298.00
1104.141, 15206.00
1105.239, 15222.00
1106.337, 15203.00
1107.434, 15198.00
1108.532, 15164.00
1109.629, 15433.00
1110.726, 15313.00
1111.823, 15362.00
1112.920, 15496.00
1114.017, 15345.00
1115.113, 15443.00
1116.210, 15580.00
1117.306, 15624.00
1118.402, 15724.00
1119.498, 15539.00
1120.593, 15681.00
1121.689, 15844.00
1122.784, 15678.00
1123.879, 15813.00
1124.974, 15835.00
1126.069, 15877.00
1127.164, 15977.00
1128.259, 15864.00
1129.353, 15828.00
1130.447, 15929.00
1131.541, 15868.00
1132.635, 15992.00
1133.729, 15941.00
1134.822, 16057.00
1135.916, 15972.00
1137.009, 16071.00
1138.102, 16169.00
1139.195, 16157.08
1140.288, 16196.50
1141.380, 16237.00
1142.473, 16152.00
1143.565, 16203.00
1144.657, 16129.00
1145.749, 16359.00
1146.841, 16124.00
1147.932, 16208.00
1149.024, 16287.00
1150.115, 16201.00
1151.206, 16344.00
1152.297, 16372.00
1153.388, 16418.00
1154.479, 16452.00
1155.569, 16487.00
1156.659, 16526.00
1157.750, 16427.00
1158.839, 16328.00
1159.929, 16401.00
1161.019, 16310.00
1162.108, 16638.00
1163.198, 16492.00
1164.287, 16602.00
1165.376, 16510.00
1166.465, 16674.00
1167.553, 16618.00
1168.642, 16749.00
1169.730, 16741.00
1170.818, 16838.00
1171.906, 16811.00
1172.994, 16831.00
1174.082, 16756.00
1175.170, 16774.00
1176.257, 16878.00
1177.344, 16895.00
1178.431, 17019.00
1179.518, 16995.00
1180.605, 17108.00
1181.691, 16881.00
1182.778, 16889.00
1183.864, 16934.00
1184.950, 17053.00
1186.036, 16972.00
1187.122, 16906.00
1188.207, 17221.00
1189.292, 17097.00
1190.378, 17069.00
1191.463, 17099.00
1192.548, 17061.00
1193.632, 17168.00
1194.717, 17245.00
1195.801, 17215.00
1196.886, 17283.00
1197.970, 17206.00
1199.054, 17385.00
1200.137, 17330.00
1201.221, 17206.00
1202.305, 17380.00
1203.388, 17303.00
1204.471, 17304.00
1205.554, 17394.00
1206.637, 17329.00
1207.719, 17408.00
1208.802, 17558.00
1209.884, 17576.00
1210.966, 17611.00
1212.048, 17604.00
1213.130, 17621.00
1214.212, 17758.00
1215.293, 17621.00
1216.374, 17786.00
1217.456, 17649.00
1218.536, 17684.00
1219.617, 17633.00
1220.698, 17675.00
1221.778, 17682.02
1222.859, 17797.00
1223.939, 17750.00
1225.019, 17825.00
1226.099, 17923.00
1227.178, 17869.00
1228.258, 17905.00
1229.337, 17861.00
1230.417, 17846.62
1231.496, 18039.00
1232.574, 17882.00
1233.653, 17914.00
1234.732, 18099.00
1235.810, 18038.00
1236.888, 17972.00
1237.966, 18196.00
1239.044, 18063.00
1240.122, 18073.00
1241.199, 18234.00
1242.277, 17965.00
1243.354, 18053.00
1244.431, 18257.00
1245.508, 18313.00
1246.585, 18256.00
1247.661, 18294.00
1248.738, 18315.00
1249.814, 18418.00
1250.890, 18298.00
1251.966, 18322.00
1253.042, 18341.00
1254.117, 18173.00
1255.193, 18214.00
1256.268, 18353.00
1257.343, 18295.00
1258.418, 18481.00
1259.493, 18447.00
1260.567, 18532.00
1261.642, 18423.00
1262.716, 18528.00
1263.790, 18479.00
1264.864, 18572.00
1265.938, 18565.00
1267.011, 18764.00
1268.085, 18545.00
1269.158, 18485.00
1270.231, 18737.00
1271.304, 18653.00
1272.377, 18713.00
1273.450, 18789.00
1274.522, 18664.00
1275.594, 18770.00
1276.666, 18695.00
1277.738, 18742.00
1278.810, 18899.00
1279.882, 18959.00
1280.953, 18878.00
1282.025, 18934.00
1283.096, 18970.00
1284.167, 18900.00
1285.238, 18924.00
1286.308, 18930.00
1287.379, 19001.00
1288.449, 19002.00
1289.519, 19038.00
1290.589, 19155.00
1291.659, 18938.00
1292.729, 19039.00
1293.798, 18964.00
1294.868, 19104.00
1295.937, 19143.00
1297.006, 19075.00
1298.075, 18926.00
1299.143, 18936.00
1300.212, 19080.00
1301.280, 19271.00
1302.348, 19192.00
1303.416, 19209.00
1304.484, 19012.00
1305.552, 19156.00
1306.620, 19151.00
1307.687, 19137.00
1308.754, 19196.00
1309.821, 19360.00
1310.888, 19512.00
1311.955, 19420.00
1313.021, 19562.38
1314.088, 19447.00
1315.154, 19641.00
1316.220, 19594.00
1317.286, 19593.00
1318.352, 19642.00
1319.417, 19688.00
1320.483, 19588.00
1321.548, 19717.00
1322.613, 19725.00
1323.678, 19779.00
1324.743, 19617.00
1325.807, 19706.00
1326.872, 19759.00
1327.936, 19783.00
1329.000, 19856.00
1330.064, 19880.00
1331.128, 19852.00
1332.191, 19927.00
1333.255, 19938.00
1334.318, 19888.00
1335.381, 19924.00
1336.444, 20021.00
1337.507, 20145.00
1338.569, 20049.00
1339.632, 20150.00
1340.694, 20139.00
1341.756, 20129.87
1342.818, 20032.00
1343.880, 20186.00
1344.941, 20113.00
1346.003, 20250.00
1347.064, 20232.00
1348.125, 20124.00
1349.186, 20218.00
1350.247, 20360.00
1351.308, 20175.00
1352.368, 20369.00
1353.428, 20185.00
1354.489, 20485.00
1355.549, 20428.00
1356.608, 20559.00
1357.668, 20431.00
1358.727, 20321.00
1359.787, 20384.00
1360.846, 20396.00
1361.905, 20521.00
1362.964, 20648.00
1364.022, 20447.00
1365.081, 20669.00
1366.139, 20523.00
1367.197, 20455.00
1368.255, 20405.00
1369.313, 20405.20
1370.371, 20443.93
1371.428, 20540.00
1372.486, 20554.00
1373.543, 20730.00
1374.600, 20710.00
1375.657, 20810.00
1376.713, 20792.00
1377.770, 20892.00
1378.826, 20917.71
1379.882, 20932.39
1380.938, 20962.00
1381.994, 20920.00
1383.050, 20878.00
1384.106, 20773.00
1385.161, 20969.00
1386.216, 20727.00
1387.271, 21154.00
1388.326, 21022.00
1389.381, 21001.00
1390.435, 21122.00
1391.490, 20929.00
1392.544, 21125.00
1393.598, 20925.00
1394.652, 21053.00
1395.705, 21122.00
1396.759, 21239.00
1397.812, 21209.00
1398.866, 21154.00
1399.919, 21231.00
1400.972, 21280.00
1402.024, 21211.00
1403.077, 21150.00
1404.129, 21401.00
1405.181, 21154.00
1406.233, 21309.00
1407.285, 21497.00
1408.337, 21469.00
1409.389, 21478.00
1410.440, 21480.00
1411.491, 21335.00
1412.542, 21540.00
1413.593, 21471.00
1414.644, 21572.00
1415.695, 21654.00
1416.745, 21620.00
1417.795, 21565.00
1418.845, 21720.00
1419.895, 21750.00
1420.945, 21838.00
1421.995, 21443.00
1423.044, 21616.00
1424.093, 21693.00
1425.142, 21609.00
1426.191, 21771.00
1427.240, 21764.00
1428.289, 21745.00
1429.337, 21952.00
1430.385, 21739.00
1431.433, 21828.00
1432.481, 21800.00
1433.529, 21919.00
1434.577, 22109.00
1435.624, 22052.00
1436.672, 21992.00
1437.719, 22216.00
1438.766, 22020.00
1439.812, 21919.00
1440.859, 22115.00
1441.905, 22233.00
1442.952, 21873.00
1443.998, 22104.00
1445.044, 22141.00
1446.090, 22256.00
1447.135, 22178.00
1448.181, 22306.00
1449.226, 22345.00
1450.271, 22152.00
1451.316, 22366.00
1452.361, 22300.00
1453.405, 22357.00
1454.450, 22334.00
1455.494, 22328.00
1456.538, 22371.00
1457.582, 22309.00
1458.626, 22458.00
1459.670, 22604.00
1460.713, 22533.00
1461.757, 22473.00
1462.800, 22577.00
1463.843, 22427.00
1464.886, 22584.00
1465.928, 22506.00
1466.971, 22793.00
1468.013, 22535.00
1469.055, 22786.00
1470.097, 22495.00
1471.139, 22679.00
1472.181, 22631.00
1473.222, 22802.00
1474.263, 22850.00
1475.305, 22815.00
1476.346, 22743.00
1477.386, 22694.00
1478.427, 22998.00
1479.468, 23021.00
1480.508, 22862.00
1481.548, 23008.00
1482.588, 22918.00
1483.628, 22957.00
1484.668, 23040.00
1485.707, 23050.00
1486.747, 23090.00
1487.786, 23144.00
1488.825, 23158.80
1489.864, 23205.00
1490.902, 23202.00
1491.941, 23178.00
1492.979, 23173.00
1494.017, 23300.00
1495.055, 23351.00
1496.093, 23188.00
1497.131, 23353.00
1498.168, 23306.00
1499.206, 23171.00
1500.243, 23265.00
1501.280, 23357.00
1502.317, 23284.00
1503.354, 23442.00
1504.390, 23421.00
1505.426, 23320.00
1506.463, 23526.00
1507.499, 23356.00
1508.535, 23641.00
1509.570, 23356.00
1510.606, 23849.00
1511.641, 23459.00
1512.676, 23529.00
1513.711, 23466.00
1514.746, 23523.00
1515.781, 23689.00
1516.816, 23573.00
1517.850, 23787.00
1518.884, 23644.00
1519.918, 23611.00
1520.952, 23724.00
1521.986, 23678.00
1523.019, 23825.00
1524.053, 23895.00
1525.086, 23857.00
1526.119, 23903.00
1527.152, 23849.00
1528.185, 23861.00
1529.217, 23877.00
1530.250, 23917.41
1531.282, 23921.00
1532.314, 24045.00
1533.346, 24054.00
1534.377, 24097.00
1535.409, 24064.00
1536.440, 24021.00
1537.472, 24122.00
1538.503, 24093.00
1539.534, 24073.00
1540.564, 24106.00
1541.595, 24195.00
1542.625, 24183.00
1543.656, 24284.00
1544.686, 24260.45
1545.716, 24258.00
1546.745, 24227.00
1547.775, 24295.00
1548.804, 24286.00
1549.834, 24047.00
1550.863, 24409.00
1551.892, 24321.00
1552.920, 24237.00
1553.949, 24437.00
1554.977, 24135.00
1556.006, 24560.00
1557.034, 24267.00
1558.062, 24374.00
1559.089, 24525.00
1560.117, 24539.00
1561.144, 24498.00
1562.172, 24386.00
1563.199, 24677.00
1564.226, 24580.00
1565.252, 24637.00
1566.279, 24559.00
1567.305, 24403.00
1568.332, 24762.00
1569.358, 24524.00
1570.384, 24783.00
1571.409, 24674.00
1572.435, 24799.00
##END=



