##NAMES=Fluorite
##RRUFFID=R060548
##IDEAL CHEMISTRY=CaF_2_
##LOCALITY=unknown
##OWNER=RRUFF
##SOURCE=Gemological Institute of America
##DESCRIPTION=Pale blue fragment
##STATUS=The identification of this mineral has been confirmed by X-ray diffraction and chemical analysis
##URL=rruff.info/R060548
##MEASURED CHEMISTRY=Ca_1.00_F_2.00_
##PIN_ID=L01039
##ORIENTATION=Laser parallel to -a* (-1 0 0). Fiducial mark perpendicular to laser is parallel to b [0 1 0]
185.1460, 8495.000
186.3730, 8574.000
187.6000, 8510.000
188.8270, 8628.000
190.0530, 8658.000
191.2800, 8627.000
192.5060, 8844.000
193.7320, 8683.000
194.9580, 8810.000
196.1830, 8824.000
197.4090, 8743.000
198.6340, 8727.000
199.8590, 8882.000
201.0840, 8889.000
202.3090, 8924.000
203.5340, 8806.000
204.7580, 8821.000
205.9820, 8644.000
207.2060, 8578.000
208.4300, 8583.000
209.6540, 8524.000
210.8780, 8726.000
212.1010, 8512.819
213.3240, 8788.000
214.5470, 8790.000
215.7700, 8924.000
216.9930, 8976.146
218.2150, 9051.000
219.4380, 9075.000
220.6600, 9241.000
221.8820, 9445.000
223.1040, 9546.000
224.3260, 9807.000
225.5470, 9752.000
226.7680, 9864.000
227.9900, 9735.000
229.2110, 9668.000
230.4310, 9538.000
231.6520, 9515.000
232.8720, 9520.000
234.0930, 9570.000
235.3130, 9670.000
236.5330, 9593.000
237.7530, 9757.000
238.9720, 9913.000
240.1920, 9943.000
241.4110, 10165.00
242.6300, 10304.00
243.8490, 10220.00
245.0680, 10141.00
246.2860, 9809.000
247.5040, 9648.000
248.7230, 9575.000
249.9410, 9724.000
251.1590, 9559.000
252.3760, 9476.000
253.5940, 9611.000
254.8110, 9425.000
256.0280, 9564.000
257.2450, 9609.000
258.4620, 9914.000
259.6790, 10690.00
260.8950, 11256.00
262.1120, 10912.00
263.3280, 10812.00
264.5440, 10556.00
265.7600, 10241.00
266.9750, 9831.000
268.1910, 9528.000
269.4060, 9195.000
270.6210, 9292.000
271.8360, 9063.000
273.0510, 9020.000
274.2650, 9078.000
275.4800, 9002.000
276.6940, 8932.000
277.9080, 9033.000
279.1220, 8908.000
280.3360, 8888.088
281.5490, 8936.000
282.7630, 8779.000
283.9760, 8839.000
285.1890, 8826.000
286.4020, 8793.000
287.6150, 8843.000
288.8270, 8775.000
290.0400, 8870.000
291.2520, 8874.000
292.4640, 8933.000
293.6760, 8944.191
294.8870, 8905.000
296.0990, 8971.000
297.3100, 9024.000
298.5210, 9090.000
299.7320, 9079.000
300.9430, 9148.770
302.1540, 9184.711
303.3640, 9224.000
304.5750, 9290.000
305.7850, 9293.000
306.9950, 9370.000
308.2050, 9479.000
309.4140, 9656.000
310.6240, 9787.000
311.8330, 9857.000
313.0420, 10341.00
314.2510, 10510.00
315.4600, 10996.00
316.6680, 11568.00
317.8770, 12068.00
319.0850, 12956.00
320.2930, 13593.00
321.5010, 14226.00
322.7090, 14305.00
323.9160, 13700.00
325.1240, 13089.00
326.3310, 12486.00
327.5380, 11923.00
328.7450, 11485.85
329.9520, 11059.00
331.1580, 10770.00
332.3650, 10530.00
333.5710, 10360.00
334.7770, 10208.36
335.9830, 10163.61
337.1880, 10065.00
338.3940, 10157.00
339.5990, 10215.00
340.8040, 10197.00
342.0090, 10175.00
343.2140, 10210.00
344.4190, 10194.00
345.6230, 10227.00
346.8280, 10162.00
348.0320, 10302.00
349.2360, 10347.00
350.4400, 10402.00
351.6430, 10346.00
352.8470, 10362.00
354.0500, 10403.00
355.2530, 10444.00
356.4560, 10391.00
357.6590, 10515.00
358.8620, 10466.00
360.0640, 10438.00
361.2660, 10496.00
362.4680, 10414.00
363.6700, 10571.00
364.8720, 10370.00
366.0740, 10283.00
367.2750, 10334.00
368.4760, 10330.00
369.6770, 10280.00
370.8780, 10301.00
372.0790, 10362.00
373.2800, 10208.00
374.4800, 10048.00
375.6800, 10176.00
376.8800, 10052.00
378.0800, 10160.00
379.2800, 9970.000
380.4790, 10162.00
381.6790, 10050.00
382.8780, 10053.00
384.0770, 10099.00
385.2760, 9954.000
386.4750, 10097.00
387.6730, 10137.00
388.8720, 10177.00
390.0700, 10129.00
391.2680, 10139.00
392.4660, 10059.00
393.6630, 10165.00
394.8610, 10031.00
396.0580, 9911.000
397.2550, 9995.000
398.4520, 10042.00
399.6490, 9781.000
400.8460, 9751.000
402.0420, 9827.000
403.2390, 9692.000
404.4350, 9620.000
405.6310, 9630.000
406.8270, 9557.000
408.0220, 9590.000
409.2180, 9536.000
410.4130, 9509.000
411.6080, 9671.000
412.8030, 9575.000
413.9980, 9458.000
415.1920, 9543.544
416.3870, 9456.169
417.5810, 9618.000
418.7750, 9402.000
419.9690, 9516.000
421.1630, 9451.000
422.3570, 9412.000
423.5500, 9560.000
424.7430, 9434.000
425.9360, 9613.000
427.1290, 9587.000
428.3220, 9582.000
429.5150, 9527.000
430.7070, 9426.000
431.8990, 9608.000
433.0910, 9620.000
434.2830, 9803.000
435.4750, 9765.000
436.6670, 9710.000
437.8580, 9554.000
439.0490, 9995.000
440.2400, 9766.000
441.4310, 9857.000
442.6220, 9751.000
443.8130, 9847.000
445.0030, 9939.000
446.1930, 9938.000
447.3830, 9761.000
448.5730, 10046.00
449.7630, 9962.000
450.9520, 10020.00
452.1420, 10136.00
453.3310, 10089.00
454.5200, 10070.00
455.7090, 10085.00
456.8980, 10246.00
458.0860, 10249.00
459.2740, 10266.00
460.4630, 10211.00
461.6510, 10319.00
462.8380, 10190.00
464.0260, 10189.00
465.2140, 10333.00
466.4010, 10330.00
467.5880, 10393.00
468.7750, 10392.00
469.9620, 10437.47
471.1490, 10441.00
472.3350, 10502.00
473.5220, 10491.00
474.7080, 10479.00
475.8940, 10488.00
477.0800, 10419.00
478.2650, 10559.00
479.4510, 10452.00
480.6360, 10579.00
481.8210, 10494.00
483.0060, 10578.00
484.1910, 10630.00
485.3760, 10688.00
486.5600, 10707.00
487.7440, 10798.00
488.9290, 10793.00
490.1130, 10901.00
491.2960, 10844.00
492.4800, 10883.00
493.6630, 10695.00
494.8470, 10730.00
496.0300, 10768.00
497.2130, 10711.00
498.3960, 10747.00
499.5780, 10754.00
500.7610, 10699.88
501.9430, 10692.00
503.1250, 10602.00
504.3070, 10612.06
505.4890, 10552.00
506.6710, 10555.00
507.8520, 10532.53
509.0330, 10530.29
510.2140, 10512.00
511.3950, 10568.00
512.5760, 10596.00
513.7570, 10660.00
514.9370, 10643.21
516.1170, 10706.00
517.2980, 10608.00
518.4780, 10731.00
519.6570, 10729.00
520.8370, 10714.00
522.0160, 10617.00
523.1960, 10554.00
524.3750, 10609.00
525.5540, 10659.00
526.7320, 10633.00
527.9110, 10562.00
529.0890, 10521.00
530.2680, 10618.00
531.4460, 10525.00
532.6240, 10615.00
533.8010, 10884.00
534.9790, 10522.00
536.1560, 10411.00
537.3340, 10747.00
538.5110, 10652.00
539.6880, 10502.00
540.8650, 10519.00
542.0410, 10502.00
543.2180, 10606.00
544.3940, 10575.00
545.5700, 10713.00
546.7460, 10709.00
547.9220, 10779.00
549.0970, 10715.00
550.2730, 10798.00
551.4480, 10743.00
552.6230, 10746.00
553.7980, 10732.00
554.9730, 10778.00
556.1470, 10776.00
557.3210, 10882.00
558.4960, 10929.00
559.6700, 10878.00
560.8440, 11038.00
562.0170, 10938.00
563.1910, 11038.00
564.3640, 11105.00
565.5380, 11142.00
566.7110, 11101.00
567.8840, 10995.00
569.0560, 11231.00
570.2290, 11311.00
571.4010, 11208.00
572.5740, 11225.00
573.7460, 11267.00
574.9180, 11352.00
576.0890, 11251.00
577.2610, 11314.00
578.4320, 11460.00
579.6040, 11307.00
580.7750, 11309.00
581.9450, 11291.00
583.1160, 11485.00
584.2870, 11331.00
585.4570, 11589.00
586.6270, 11493.00
587.7980, 11570.00
588.9670, 11492.00
590.1370, 11588.00
591.3070, 11571.00
592.4760, 11574.00
593.6450, 11624.00
594.8140, 11713.00
595.9830, 11731.00
597.1520, 11699.00
598.3210, 11716.00
599.4890, 11692.00
600.6570, 11870.00
601.8250, 11779.00
602.9930, 11947.00
604.1610, 11934.00
605.3290, 11656.00
606.4960, 11777.00
607.6630, 11661.00
608.8300, 11834.00
609.9970, 11732.00
611.1640, 11834.00
612.3300, 11756.39
613.4970, 11911.00
614.6630, 11766.00
615.8290, 11962.00
616.9950, 12400.00
618.1610, 12943.00
619.3260, 12523.00
620.4920, 12542.00
621.6570, 12759.00
622.8220, 13063.00
623.9870, 13485.00
625.1520, 13630.00
626.3160, 13714.00
627.4810, 13598.87
628.6450, 13441.53
629.8090, 13067.00
630.9730, 12931.00
632.1370, 12663.00
633.3000, 12523.00
634.4640, 12435.00
635.6270, 12323.00
636.7900, 12262.00
637.9530, 12274.00
639.1160, 12250.00
640.2780, 12259.00
641.4410, 12534.00
642.6030, 12639.00
643.7650, 12760.00
644.9270, 12924.00
646.0890, 12947.00
647.2500, 13476.00
648.4120, 13278.42
649.5730, 13480.00
650.7340, 13159.00
651.8950, 13137.00
653.0560, 13192.00
654.2160, 13164.00
655.3770, 13028.00
656.5370, 12758.00
657.6970, 12666.00
658.8570, 12474.00
660.0170, 12664.00
661.1760, 12569.00
662.3360, 12652.00
663.4950, 12749.00
664.6540, 12872.00
665.8130, 13000.00
666.9720, 13118.00
668.1310, 13210.00
669.2890, 13029.00
670.4470, 13085.00
671.6050, 13014.00
672.7630, 12868.00
673.9210, 12989.00
675.0790, 12721.00
676.2360, 12814.00
677.3930, 12799.00
678.5510, 12773.00
679.7080, 13033.00
680.8640, 13091.00
682.0210, 13331.00
683.1770, 13468.00
684.3340, 13592.00
685.4900, 13786.00
686.6460, 14007.00
687.8020, 14266.00
688.9570, 14495.00
690.1130, 14536.00
691.2680, 14712.00
692.4230, 14707.00
693.5780, 14619.00
694.7330, 14583.00
695.8880, 14660.00
697.0420, 14421.00
698.1960, 14304.00
699.3510, 14462.00
700.5040, 14518.00
701.6580, 14485.00
702.8120, 14541.00
703.9650, 14696.00
705.1190, 14792.00
706.2720, 14918.00
707.4250, 14799.00
708.5780, 14885.00
709.7300, 14860.00
710.8830, 14889.00
712.0350, 14944.00
713.1870, 14807.00
714.3390, 14785.00
715.4910, 14559.00
716.6430, 14404.00
717.7940, 14402.00
718.9460, 14105.00
720.0970, 14107.00
721.2480, 13886.00
722.3990, 13955.00
723.5500, 14045.00
724.7000, 13946.22
725.8500, 14023.00
727.0010, 13930.00
728.1510, 13762.00
729.3010, 13773.00
730.4500, 13883.00
731.6000, 13755.00
732.7490, 13790.00
733.8980, 13819.00
735.0470, 13548.00
736.1960, 13709.00
737.3450, 13645.00
738.4940, 13619.00
739.6420, 13575.00
740.7900, 13539.00
741.9380, 13562.00
743.0860, 13454.00
744.2340, 13593.00
745.3810, 13562.00
746.5290, 13478.00
747.6760, 13602.00
748.8230, 13483.00
749.9700, 13650.00
751.1170, 13568.00
752.2630, 13590.00
753.4100, 13887.00
754.5560, 13732.00
755.7020, 13780.00
756.8480, 13678.00
757.9940, 13890.00
759.1390, 14152.00
760.2850, 14344.00
761.4300, 14032.00
762.5750, 14019.00
763.7200, 13855.00
764.8650, 13938.00
766.0100, 14014.00
767.1540, 13825.00
768.2980, 14012.00
769.4420, 13983.00
770.5860, 14100.00
771.7300, 13930.00
772.8740, 13967.00
774.0170, 14182.00
775.1610, 14193.00
776.3040, 14357.00
777.4470, 14381.00
778.5900, 14527.00
779.7320, 14533.00
780.8750, 14648.00
782.0170, 14608.00
783.1590, 14780.00
784.3010, 14646.00
785.4430, 15444.00
786.5850, 15120.37
787.7260, 15147.62
788.8680, 15036.00
790.0090, 14899.00
791.1500, 15122.00
792.2910, 15247.00
793.4310, 15366.00
794.5720, 15302.00
795.7120, 15634.00
796.8520, 15672.00
797.9920, 15888.00
799.1320, 15687.00
800.2720, 15931.00
801.4120, 15910.00
802.5510, 16218.00
803.6900, 16306.00
804.8290, 16469.00
805.9680, 16357.00
807.1070, 16711.00
808.2450, 16571.00
809.3840, 16801.00
810.5220, 16806.00
811.6600, 16918.00
812.7980, 17028.00
813.9360, 17022.97
815.0730, 16916.00
816.2110, 17099.00
817.3480, 16993.00
818.4850, 17119.00
819.6220, 17253.00
820.7590, 17243.00
821.8960, 17211.00
823.0320, 17316.00
824.1680, 17412.00
825.3040, 17376.00
826.4400, 17880.00
827.5760, 17667.00
828.7120, 17946.00
829.8470, 18459.00
830.9830, 18900.00
832.1180, 19759.00
833.2530, 20695.00
834.3880, 21399.00
835.5220, 22208.00
836.6570, 22246.00
837.7910, 22178.00
838.9250, 21800.00
840.0590, 21998.00
841.1930, 21893.00
842.3270, 22429.00
843.4600, 22130.00
844.5940, 21836.00
845.7270, 21630.00
846.8600, 21383.00
847.9930, 21469.00
849.1250, 21329.00
850.2580, 21475.00
851.3900, 21225.75
852.5230, 21281.00
853.6550, 20615.00
854.7870, 20148.00
855.9180, 19511.00
857.0500, 19189.00
858.1810, 18951.00
859.3130, 18499.00
860.4440, 18497.00
861.5750, 18458.00
862.7050, 18098.00
863.8360, 17631.00
864.9660, 17331.00
866.0970, 17276.00
867.2270, 16838.00
868.3570, 16701.00
869.4870, 16436.00
870.6160, 16486.00
871.7460, 16391.00
872.8750, 16312.00
874.0040, 16199.00
875.1330, 16431.00
876.2620, 16340.00
877.3910, 16397.00
878.5190, 16591.00
879.6470, 16409.00
880.7760, 16560.00
881.9040, 16330.00
883.0310, 16234.00
884.1590, 16253.00
885.2870, 16235.00
886.4140, 16060.00
887.5410, 15964.00
888.6680, 16048.00
889.7950, 15975.00
890.9220, 16109.00
892.0480, 16359.00
893.1750, 16430.00
894.3010, 16566.00
895.4270, 16824.00
896.5530, 16794.00
897.6790, 17017.00
898.8040, 17152.00
899.9300, 17089.00
901.0550, 17096.00
902.1800, 17025.00
903.3050, 17177.00
904.4300, 17966.00
905.5540, 18596.00
906.6790, 20029.00
907.8030, 21818.00
908.9270, 25186.00
910.0510, 29702.00
911.1750, 34159.00
912.2990, 36047.00
913.4220, 34184.00
914.5450, 30523.00
915.6690, 27109.00
916.7920, 25311.00
917.9140, 25116.00
919.0370, 26239.00
920.1600, 28286.00
921.2820, 30699.00
922.4040, 31969.00
923.5260, 31995.00
924.6480, 32019.00
925.7700, 34080.00
926.8910, 36766.00
928.0130, 37660.00
929.1340, 35870.00
930.2550, 33054.00
931.3760, 30501.00
932.4970, 28811.00
933.6170, 27634.00
934.7380, 27332.00
935.8580, 28788.00
936.9780, 30679.00
938.0980, 31497.00
939.2180, 29670.00
940.3370, 27384.00
941.4570, 25867.00
942.5760, 25961.00
943.6950, 27927.00
944.8140, 32014.00
945.9330, 39244.00
947.0520, 47492.00
948.1700, 52121.00
949.2890, 49582.00
950.4070, 42245.00
951.5250, 34220.00
952.6430, 28351.00
953.7600, 24201.00
954.8780, 21960.00
955.9950, 20499.00
957.1120, 19826.00
958.2290, 19315.00
959.3460, 19098.00
960.4630, 18990.00
961.5800, 18957.00
962.6960, 18933.00
963.8120, 19042.00
964.9280, 18957.00
966.0440, 18956.00
967.1600, 18827.00
968.2760, 18711.00
969.3910, 18657.00
970.5060, 18326.00
971.6210, 18149.00
972.7360, 18004.00
973.8510, 18035.00
974.9660, 17930.00
976.0800, 17748.00
977.1950, 17632.00
978.3090, 17627.00
979.4230, 17437.00
980.5370, 17528.00
981.6500, 17694.00
982.7640, 17628.00
983.8770, 17584.00
984.9900, 17574.00
986.1030, 17761.00
987.2160, 17728.68
988.3290, 17728.01
989.4420, 17890.00
990.5540, 17668.00
991.6660, 17861.00
992.7780, 17893.00
993.8900, 17980.00
995.0020, 18218.00
996.1140, 18256.00
997.2250, 18378.00
998.3360, 18978.00
999.4470, 19292.00
1000.558, 19867.00
1001.669, 20616.00
1002.780, 20795.00
1003.890, 20814.00
1005.001, 20146.00
1006.111, 19860.00
1007.221, 19632.00
1008.331, 19348.00
1009.440, 19368.00
1010.550, 19713.00
1011.659, 19717.00
1012.768, 19752.00
1013.877, 19960.00
1014.986, 20181.00
1016.095, 20325.00
1017.204, 20473.00
1018.312, 20799.00
1019.420, 20980.00
1020.528, 21270.00
1021.636, 21550.00
1022.744, 21791.00
1023.852, 21947.00
1024.959, 21966.00
1026.066, 22421.00
1027.173, 22162.00
1028.280, 22276.00
1029.387, 22519.00
1030.494, 22256.00
1031.600, 22530.00
1032.707, 22381.00
1033.813, 22351.00
1034.919, 22271.00
1036.025, 22331.00
1037.130, 22438.00
1038.236, 22196.00
1039.341, 22427.00
1040.446, 22289.00
1041.552, 22396.00
1042.656, 22359.00
1043.761, 22400.00
1044.866, 22377.00
1045.970, 22571.00
1047.074, 22642.00
1048.179, 22666.00
1049.282, 22644.00
1050.386, 22748.00
1051.490, 22720.00
1052.593, 22567.00
1053.697, 22587.00
1054.800, 22483.00
1055.903, 22372.00
1057.006, 22370.00
1058.108, 22361.00
1059.211, 22309.72
1060.313, 22289.00
1061.415, 22260.00
1062.517, 22053.00
1063.619, 22008.00
1064.721, 21920.00
1065.823, 21811.00
1066.924, 21761.00
1068.025, 21942.00
1069.126, 21760.00
1070.227, 21924.00
1071.328, 21674.00
1072.429, 21964.00
1073.529, 21898.00
1074.629, 21771.00
1075.729, 21953.00
1076.829, 21928.00
1077.929, 22021.00
1079.029, 21987.00
1080.128, 21959.00
1081.228, 21812.00
1082.327, 21840.12
1083.426, 22003.00
1084.525, 21835.00
1085.623, 21785.00
1086.722, 21797.00
1087.820, 21528.00
1088.919, 21244.00
1090.017, 21426.00
1091.115, 21127.00
1092.212, 21272.00
1093.310, 20979.00
1094.407, 21077.00
1095.505, 20861.00
1096.602, 20912.00
1097.699, 20768.00
1098.795, 20675.00
1099.892, 20869.00
1100.989, 20846.00
1102.085, 20724.00
1103.181, 20739.00
1104.277, 20592.00
1105.373, 20663.00
1106.469, 20856.00
1107.564, 20773.00
1108.660, 20976.00
1109.755, 20891.00
1110.850, 20959.00
1111.945, 20980.00
1113.040, 21101.00
1114.134, 21179.00
1115.229, 21314.00
1116.323, 21294.00
1117.417, 21244.00
1118.511, 21542.00
1119.605, 21673.00
1120.698, 21838.00
1121.792, 22126.00
1122.885, 22127.00
1123.978, 22393.00
1125.071, 22517.00
1126.164, 22653.00
1127.257, 22888.00
1128.349, 23065.00
1129.442, 22690.00
1130.534, 22902.00
1131.626, 23015.00
1132.718, 23173.00
1133.810, 23265.00
1134.901, 23497.65
1135.993, 23730.00
1137.084, 23882.00
1138.175, 24213.00
1139.266, 24240.00
1140.357, 24739.00
1141.448, 24914.00
1142.538, 24860.00
1143.628, 25056.00
1144.719, 25168.00
1145.809, 25263.00
1146.898, 25431.98
1147.988, 25496.29
1149.078, 25602.78
1150.167, 25620.00
1151.256, 25750.00
1152.345, 25729.00
1153.434, 25747.00
1154.523, 25652.00
1155.612, 25462.00
1156.700, 25352.00
1157.788, 25270.00
1158.877, 25504.00
1159.964, 25389.00
1161.052, 25426.00
1162.140, 25355.00
1163.227, 25263.00
1164.315, 25344.00
1165.402, 25251.00
1166.489, 25131.00
1167.576, 24905.00
1168.663, 25158.00
1169.749, 24996.00
1170.836, 24761.00
1171.922, 24872.00
1173.008, 24634.00
1174.094, 24605.00
1175.180, 24599.00
1176.265, 24058.00
1177.351, 24014.00
1178.436, 23694.00
1179.521, 23398.00
1180.606, 23513.00
1181.691, 23142.00
1182.776, 23041.00
1183.860, 23015.00
1184.944, 22752.00
1186.029, 22667.00
1187.113, 22544.00
1188.197, 22541.00
1189.280, 22405.20
1190.364, 22257.00
1191.447, 22195.00
1192.531, 22121.00
1193.614, 22021.00
1194.697, 21813.00
1195.779, 22023.00
1196.862, 21907.00
1197.945, 21845.00
1199.027, 21966.00
1200.109, 22031.00
1201.191, 21911.00
1202.273, 21740.00
1203.355, 22042.00
1204.436, 21848.00
1205.518, 21690.00
1206.599, 21895.00
1207.680, 21773.00
1208.761, 21816.00
1209.842, 21838.00
1210.922, 21817.00
1212.003, 21909.00
1213.083, 22066.00
1214.163, 22267.00
1215.243, 22133.00
1216.323, 22496.00
1217.402, 22257.00
1218.482, 22146.00
1219.561, 22293.00
1220.641, 22418.00
1221.720, 22230.00
1222.798, 22425.00
1223.877, 22553.00
1224.956, 22584.00
1226.034, 22715.00
1227.112, 22723.00
1228.191, 22767.00
1229.269, 22775.00
1230.346, 23007.00
1231.424, 22953.00
1232.501, 23236.00
1233.579, 23438.00
1234.656, 23439.00
1235.733, 23631.00
1236.810, 23717.00
1237.886, 23926.00
1238.963, 24006.89
1240.039, 24172.00
1241.116, 24203.00
1242.192, 24392.00
1243.268, 24531.00
1244.343, 24682.00
1245.419, 24809.00
1246.494, 24940.00
1247.570, 25164.00
1248.645, 25488.00
1249.720, 25556.00
1250.795, 25881.00
1251.869, 25713.00
1252.944, 25829.00
1254.018, 25872.00
1255.093, 26063.00
1256.167, 26293.00
1257.240, 26314.00
1258.314, 26452.00
1259.388, 26356.00
1260.461, 26363.00
1261.535, 26391.00
1262.608, 26501.00
1263.681, 26222.00
1264.753, 26691.00
1265.826, 26353.00
1266.899, 26652.00
1267.971, 26665.00
1269.043, 26663.00
1270.115, 26713.00
1271.187, 26834.00
1272.259, 26789.00
1273.330, 26939.00
1274.402, 26862.00
1275.473, 26848.00
1276.544, 26780.00
1277.615, 26747.03
1278.686, 26784.00
1279.756, 26642.00
1280.827, 26703.00
1281.897, 26580.69
1282.967, 26668.94
1284.037, 26614.00
1285.107, 26882.00
1286.177, 27048.00
1287.247, 27225.00
1288.316, 27353.00
1289.385, 27519.00
1290.454, 27639.00
1291.523, 27958.00
1292.592, 28164.00
1293.661, 28022.00
1294.729, 28426.00
1295.797, 28324.00
1296.866, 27903.00
1297.934, 28131.00
1299.001, 27830.00
1300.069, 27452.00
1301.137, 27384.00
1302.204, 27070.00
1303.271, 27205.00
1304.338, 27141.00
1305.405, 26737.00
1306.472, 26756.00
1307.539, 26637.00
1308.605, 26749.00
1309.671, 26594.00
1310.737, 26575.00
1311.803, 26525.00
1312.869, 26433.00
1313.935, 26511.00
1315.000, 26663.00
1316.066, 26587.00
1317.131, 26607.00
1318.196, 26568.00
1319.261, 26578.00
1320.326, 26380.00
1321.390, 26426.00
1322.455, 26243.00
1323.519, 26065.00
1324.583, 25956.00
1325.647, 25724.87
1326.711, 25552.00
1327.775, 25277.00
1328.838, 24934.00
1329.902, 24642.00
1330.965, 24679.00
1332.028, 24389.00
1333.091, 24369.00
1334.153, 24214.00
1335.216, 24199.00
1336.279, 24213.29
1337.341, 23906.00
1338.403, 24444.00
1339.465, 24614.00
1340.527, 25052.00
1341.588, 23421.00
1342.650, 23364.00
1343.711, 23642.00
1344.772, 23370.00
1345.834, 23511.00
1346.894, 23591.00
1347.955, 23586.00
1349.016, 23578.00
1350.076, 23901.00
1351.136, 24104.69
1352.197, 24431.00
1353.257, 24980.00
1354.316, 25894.00
1355.376, 26746.00
1356.436, 28366.00
1357.495, 30089.00
1358.554, 31707.00
1359.613, 33610.00
1360.672, 34548.00
1361.731, 34654.00
1362.789, 33236.00
1363.848, 31419.00
1364.906, 29320.00
1365.964, 27669.00
1367.022, 26323.00
1368.080, 25013.00
1369.138, 24353.00
1370.195, 23726.00
1371.253, 23446.00
1372.310, 23232.00
1373.367, 23369.00
1374.424, 23493.00
1375.480, 23689.00
1376.537, 24044.00
1377.593, 24119.00
1378.650, 24397.00
1379.706, 24666.00
1380.762, 24732.00
1381.818, 24679.00
1382.873, 24886.00
1383.929, 24914.00
1384.984, 25251.00
1386.039, 25539.00
1387.094, 25515.00
1388.149, 25462.00
1389.204, 25371.00
1390.259, 25461.00
1391.313, 25957.00
1392.367, 26810.00
1393.422, 27703.00
1394.476, 28805.00
1395.529, 29416.00
1396.583, 28957.00
1397.637, 27892.00
1398.690, 26292.00
1399.743, 24893.00
1400.796, 23612.00
1401.849, 22973.00
1402.902, 22021.00
1403.954, 21580.00
1405.007, 21253.00
1406.059, 20988.00
1407.111, 20755.28
1408.163, 20575.64
1409.215, 20489.00
1410.267, 20374.00
1411.318, 20359.00
1412.370, 20420.00
1413.421, 20061.00
1414.472, 20322.00
1415.523, 20176.00
1416.574, 20136.00
1417.624, 20440.00
1418.675, 20275.00
1419.725, 20513.00
1420.775, 20603.00
1421.825, 21009.00
1422.875, 21363.00
1423.925, 21678.00
1424.974, 22303.00
1426.024, 22652.00
1427.073, 23013.00
1428.122, 22892.00
1429.171, 22687.00
1430.220, 22299.00
1431.268, 22103.00
1432.317, 21879.00
1433.365, 21858.00
1434.413, 22171.00
1435.461, 22086.00
1436.509, 22539.00
1437.557, 22759.00
1438.605, 23205.00
1439.652, 23863.00
1440.699, 24364.00
1441.746, 24782.00
1442.793, 25483.00
1443.840, 25889.00
1444.887, 26327.00
1445.933, 26698.00
1446.980, 26868.00
1448.026, 26945.00
1449.072, 26999.00
1450.118, 26542.00
1451.163, 26290.00
1452.209, 26248.00
1453.254, 26234.00
1454.300, 26094.00
1455.345, 25991.00
1456.390, 26139.00
1457.435, 26107.00
1458.479, 26311.00
1459.524, 26398.00
1460.568, 26627.00
1461.612, 27177.00
1462.656, 26854.00
1463.700, 27080.00
1464.744, 26971.00
1465.788, 26790.00
1466.831, 26442.00
1467.874, 26305.00
1468.918, 26011.00
1469.961, 25895.00
1471.003, 25770.00
1472.046, 25483.00
1473.089, 25563.00
1474.131, 25458.00
1475.173, 25281.00
1476.215, 25583.00
1477.257, 25619.00
1478.299, 25494.00
1479.341, 25585.00
1480.382, 25749.00
1481.424, 25654.00
1482.465, 25704.00
1483.506, 25806.00
1484.547, 25896.00
1485.587, 25753.00
1486.628, 25700.00
1487.668, 25677.00
1488.709, 25668.00
1489.749, 25494.00
1490.789, 25633.00
1491.828, 25361.00
1492.868, 25631.00
1493.908, 25591.00
1494.947, 25526.00
1495.986, 25607.00
1497.025, 25555.00
1498.064, 25717.00
1499.103, 25904.00
1500.141, 25699.00
1501.180, 25787.00
1502.218, 25884.00
1503.256, 26116.00
1504.294, 26212.00
1505.332, 26362.00
1506.370, 26490.00
1507.407, 26397.00
1508.445, 26453.00
1509.482, 26631.00
1510.519, 26763.00
1511.556, 26546.00
1512.593, 26727.00
1513.629, 26773.00
1514.666, 26850.00
1515.702, 26565.00
1516.738, 26468.00
1517.774, 26594.00
1518.810, 26327.00
1519.846, 26253.00
1520.882, 26083.00
1521.917, 25826.00
1522.952, 25804.00
1523.987, 25805.00
1525.022, 25993.00
1526.057, 25653.00
1527.092, 25496.00
1528.126, 25286.00
1529.161, 25579.00
1530.195, 25557.00
1531.229, 25409.00
1532.263, 25406.00
1533.297, 25263.00
1534.330, 25511.00
1535.364, 25317.00
1536.397, 25353.00
1537.430, 25598.00
1538.463, 25554.00
1539.496, 25534.00
1540.529, 25596.00
1541.561, 25580.00
1542.594, 25855.00
1543.626, 25921.00
1544.658, 26073.00
1545.690, 26009.00
1546.722, 25959.00
1547.753, 26141.00
1548.785, 26194.00
1549.816, 26310.00
1550.847, 26286.00
1551.878, 26343.00
1552.909, 26412.00
1553.940, 26446.21
1554.971, 26682.00
1556.001, 26632.00
1557.031, 26696.00
1558.062, 26918.00
1559.092, 27133.00
1560.121, 27259.00
1561.151, 27303.00
1562.181, 27490.00
1563.210, 27437.00
1564.239, 27786.00
##END=



