##NAMES=Fluorapatite
##RRUFFID=R060333
##IDEAL CHEMISTRY=Ca_5_(PO_4_)_3_F
##LOCALITY=Lovozero Massif, Kola Peninsula, U.S.S.R.
##OWNER=RRUFF
##SOURCE=Michael Scott
##DESCRIPTION=Colorless fragment associated with red villiaumite
##STATUS=The identification of this mineral has been confirmed by X-ray diffraction and chemical analysis
##URL=rruff.info/R060333
##MEASURED CHEMISTRY=(Ca_4.29_Sr_0.47_Na_0.12_Ce_0.07_La_0.06_)_Σ=5_((P_0.99_Si_0.01_)_Σ=1_O_4_)_3_F_1.00_
##PIN_ID=L01212
##ORIENTATION=Laser parallel to a* (1 0 0). Fiducial mark perpendicular to laser is parallel to -c [0 0 -1]
164.2210, 4803.000
165.4520, 4850.000
166.6830, 4815.000
167.9140, 4834.000
169.1450, 4881.000
170.3760, 4817.000
171.6060, 4796.000
172.8360, 4906.000
174.0660, 4942.000
175.2960, 4865.000
176.5260, 4955.000
177.7550, 4992.000
178.9840, 4986.000
180.2130, 4987.000
181.4420, 5041.000
182.6710, 5059.000
183.9000, 5088.045
185.1280, 5090.053
186.3560, 5123.000
187.5840, 5084.000
188.8120, 5041.000
190.0400, 5056.000
191.2670, 5120.000
192.4950, 5065.000
193.7220, 5041.000
194.9490, 5179.000
196.1750, 5249.000
197.4020, 5281.000
198.6280, 5322.000
199.8540, 5442.000
201.0800, 5485.000
202.3060, 5434.000
203.5320, 5545.000
204.7570, 5585.000
205.9830, 5635.000
207.2080, 5700.000
208.4330, 5628.000
209.6570, 5607.000
210.8820, 5558.000
212.1060, 5532.651
213.3310, 5535.000
214.5550, 5534.000
215.7780, 5538.000
217.0020, 5626.000
218.2260, 5586.448
219.4490, 5662.000
220.6720, 5560.000
221.8950, 5573.000
223.1180, 5558.000
224.3400, 5658.000
225.5630, 5610.000
226.7850, 5707.000
228.0070, 5765.000
229.2290, 5789.000
230.4500, 5817.000
231.6720, 5729.000
232.8930, 5825.000
234.1140, 5839.000
235.3350, 5789.000
236.5560, 5884.000
237.7770, 5777.000
238.9970, 5816.000
240.2170, 5735.000
241.4370, 5745.000
242.6570, 5775.000
243.8770, 5795.000
245.0960, 5825.447
246.3160, 5848.000
247.5350, 5897.000
248.7540, 5911.000
249.9730, 5955.000
251.1910, 5990.985
252.4100, 6017.000
253.6280, 6066.000
254.8460, 6027.000
256.0640, 6055.000
257.2810, 6111.000
258.4990, 6215.000
259.7160, 6188.000
260.9330, 6192.000
262.1500, 6324.000
263.3670, 6219.000
264.5840, 6253.000
265.8000, 6182.000
267.0170, 6237.000
268.2330, 6301.000
269.4490, 6189.000
270.6640, 6227.000
271.8800, 6250.000
273.0950, 6311.000
274.3100, 6255.000
275.5260, 6411.000
276.7400, 6312.000
277.9550, 6355.000
279.1690, 6378.000
280.3840, 6364.000
281.5980, 6432.000
282.8120, 6370.000
284.0260, 6394.000
285.2390, 6494.000
286.4530, 6543.000
287.6660, 6559.587
288.8790, 6539.000
290.0920, 6579.000
291.3040, 6544.220
292.5170, 6538.000
293.7290, 6529.000
294.9410, 6526.000
296.1530, 6529.000
297.3650, 6617.000
298.5770, 6679.000
299.7880, 6599.000
301.0000, 6686.000
302.2110, 6622.000
303.4220, 6616.000
304.6320, 6691.000
305.8430, 6593.000
307.0530, 6559.000
308.2630, 6611.000
309.4730, 6539.000
310.6830, 6650.000
311.8930, 6649.000
313.1030, 6504.000
314.3120, 6670.000
315.5210, 6550.000
316.7300, 6499.000
317.9390, 6612.000
319.1470, 6591.000
320.3560, 6527.000
321.5640, 6624.000
322.7720, 6599.000
323.9800, 6538.000
325.1880, 6577.000
326.3950, 6609.000
327.6030, 6665.000
328.8100, 6644.000
330.0170, 6589.000
331.2240, 6631.000
332.4300, 6642.000
333.6370, 6663.000
334.8430, 6682.000
336.0490, 6647.000
337.2550, 6645.000
338.4610, 6648.000
339.6660, 6742.000
340.8720, 6708.000
342.0770, 6664.000
343.2820, 6705.000
344.4870, 6842.000
345.6920, 6807.000
346.8960, 6801.000
348.1010, 6868.000
349.3050, 6795.000
350.5090, 6815.000
351.7130, 6854.000
352.9160, 6898.000
354.1200, 6901.000
355.3230, 6935.000
356.5260, 6960.000
357.7290, 6927.000
358.9320, 6979.000
360.1350, 7041.000
361.3370, 7094.000
362.5390, 7183.000
363.7410, 7209.433
364.9430, 7114.000
366.1450, 7233.000
367.3470, 7240.000
368.5480, 7157.000
369.7490, 7258.000
370.9500, 7337.000
372.1510, 7180.000
373.3520, 7319.000
374.5520, 7372.000
375.7530, 7306.000
376.9530, 7217.000
378.1530, 7432.000
379.3520, 7294.000
380.5520, 7389.000
381.7510, 7361.000
382.9510, 7323.000
384.1500, 7401.000
385.3490, 7369.000
386.5480, 7415.000
387.7460, 7482.000
388.9440, 7479.000
390.1430, 7437.000
391.3410, 7406.000
392.5390, 7407.868
393.7360, 7606.000
394.9340, 7472.000
396.1310, 7579.000
397.3280, 7764.000
398.5250, 7701.000
399.7220, 7746.000
400.9190, 7692.000
402.1150, 7739.000
403.3120, 7747.000
404.5080, 7875.000
405.7040, 7927.000
406.8990, 7941.000
408.0950, 7818.000
409.2900, 8039.000
410.4860, 8166.000
411.6810, 8038.000
412.8760, 8300.000
414.0700, 8309.000
415.2650, 8376.000
416.4590, 8658.000
417.6540, 8660.000
418.8480, 8781.000
420.0420, 8979.000
421.2350, 9098.000
422.4290, 9291.000
423.6220, 9414.513
424.8150, 9542.495
426.0080, 9666.000
427.2010, 9799.000
428.3940, 9928.000
429.5860, 10098.00
430.7790, 10049.59
431.9710, 9942.000
433.1630, 9945.000
434.3540, 9723.000
435.5460, 9677.000
436.7370, 9688.000
437.9290, 9642.000
439.1200, 9738.000
440.3110, 9738.000
441.5010, 9958.000
442.6920, 9857.000
443.8820, 9927.000
445.0730, 10071.00
446.2630, 9996.000
447.4530, 10084.00
448.6420, 10112.00
449.8320, 10077.00
451.0210, 9932.000
452.2100, 9967.000
453.3990, 9941.000
454.5880, 9729.000
455.7770, 9749.000
456.9660, 9571.000
458.1540, 9589.000
459.3420, 9584.000
460.5300, 9465.000
461.7180, 9392.000
462.9050, 9308.000
464.0930, 9284.000
465.2800, 9315.000
466.4670, 9212.000
467.6540, 9389.000
468.8410, 9195.000
470.0280, 9230.000
471.2140, 9270.000
472.4000, 9164.000
473.5870, 9217.000
474.7720, 9267.000
475.9580, 9217.000
477.1440, 9191.000
478.3290, 9252.000
479.5140, 9216.000
480.6990, 9326.000
481.8840, 9202.000
483.0690, 9269.000
484.2540, 9311.000
485.4380, 9255.000
486.6220, 9292.000
487.8060, 9210.000
488.9900, 9155.000
490.1740, 9293.000
491.3570, 9320.000
492.5410, 9356.000
493.7240, 9175.000
494.9070, 9359.000
496.0900, 9478.000
497.2720, 9544.000
498.4550, 9331.000
499.6370, 9473.000
500.8190, 9511.000
502.0010, 9415.000
503.1830, 9475.000
504.3650, 9476.000
505.5460, 9581.000
506.7280, 9734.000
507.9090, 9550.000
509.0900, 9495.000
510.2710, 9675.000
511.4510, 9717.000
512.6320, 9770.000
513.8120, 9846.000
514.9920, 9788.000
516.1720, 9800.000
517.3520, 9877.000
518.5310, 9901.000
519.7110, 9836.000
520.8900, 9856.000
522.0690, 9845.000
523.2480, 9872.000
524.4270, 9940.000
525.6050, 10075.00
526.7840, 9926.000
527.9620, 10050.00
529.1400, 9931.000
530.3180, 10050.00
531.4960, 10016.00
532.6730, 10211.00
533.8510, 10171.00
535.0280, 10111.00
536.2050, 10224.00
537.3820, 10092.00
538.5590, 10295.00
539.7350, 10277.00
540.9120, 10306.00
542.0880, 10413.00
543.2640, 10477.00
544.4400, 10424.00
545.6150, 10618.00
546.7910, 10510.00
547.9660, 10665.00
549.1410, 10549.00
550.3170, 10621.00
551.4910, 10685.00
552.6660, 10666.00
553.8410, 10736.00
555.0150, 10635.00
556.1890, 10691.00
557.3630, 10723.00
558.5370, 10813.00
559.7110, 10874.62
560.8840, 10920.00
562.0570, 11027.00
563.2310, 11072.00
564.4040, 11134.00
565.5760, 11081.00
566.7490, 11085.00
567.9220, 11224.00
569.0940, 11263.72
570.2660, 11535.00
571.4380, 11525.00
572.6100, 11670.00
573.7820, 11878.00
574.9530, 11967.00
576.1240, 12243.00
577.2960, 12672.00
578.4670, 12952.00
579.6370, 13162.00
580.8080, 13043.00
581.9790, 13079.00
583.1490, 13235.00
584.3190, 13054.00
585.4890, 13301.00
586.6590, 13453.00
587.8280, 13846.00
588.9980, 14145.00
590.1670, 14174.00
591.3360, 13989.00
592.5050, 13776.00
593.6740, 13628.00
594.8430, 13236.00
596.0110, 13162.00
597.1790, 12804.00
598.3480, 12947.00
599.5160, 12806.00
600.6830, 12913.00
601.8510, 13149.00
603.0180, 13539.00
604.1860, 13731.00
605.3530, 13954.00
606.5200, 13821.00
607.6870, 13450.00
608.8530, 13475.00
610.0200, 13114.00
611.1860, 12901.00
612.3520, 12903.00
613.5180, 12856.00
614.6840, 12799.00
615.8500, 12737.00
617.0150, 12701.00
618.1800, 12630.48
619.3450, 12530.00
620.5100, 12512.00
621.6750, 12477.00
622.8400, 12439.00
624.0040, 12431.29
625.1690, 12465.00
626.3330, 12432.00
627.4970, 12372.00
628.6610, 12417.00
629.8240, 12391.00
630.9880, 12410.00
632.1510, 12552.00
633.3140, 12578.00
634.4770, 12561.00
635.6400, 12649.00
636.8020, 12664.00
637.9650, 12589.00
639.1270, 12726.00
640.2890, 12723.00
641.4510, 12776.00
642.6130, 12923.00
643.7750, 12853.00
644.9360, 12993.00
646.0980, 13022.00
647.2590, 12988.00
648.4200, 12972.00
649.5810, 13218.00
650.7410, 13056.00
651.9020, 13354.00
653.0620, 13402.00
654.2220, 13363.00
655.3820, 13324.00
656.5420, 13421.00
657.7020, 13389.00
658.8610, 13451.00
660.0200, 13359.00
661.1800, 13553.00
662.3390, 13580.00
663.4970, 13362.00
664.6560, 13498.00
665.8150, 13567.00
666.9730, 13569.00
668.1310, 13471.00
669.2890, 13631.00
670.4470, 13519.00
671.6050, 13762.00
672.7620, 13553.00
673.9200, 13600.00
675.0770, 13724.00
676.2340, 13700.00
677.3910, 13579.00
678.5470, 13703.00
679.7040, 13702.00
680.8600, 13727.00
682.0160, 13801.00
683.1720, 13720.00
684.3280, 13888.00
685.4840, 13872.00
686.6390, 13915.00
687.7950, 13829.00
688.9500, 14022.00
690.1050, 13866.00
691.2600, 14035.00
692.4150, 14037.00
693.5690, 13985.00
694.7240, 14126.00
695.8780, 14131.00
697.0320, 14215.00
698.1860, 14255.00
699.3400, 14184.00
700.4930, 14119.00
701.6470, 14360.00
702.8000, 14322.00
703.9530, 14440.00
705.1060, 14316.00
706.2590, 14399.00
707.4110, 14266.00
708.5640, 14457.00
709.7160, 14569.00
710.8680, 14439.00
712.0200, 14586.00
713.1720, 14646.00
714.3230, 14669.00
715.4750, 14742.00
716.6260, 14602.00
717.7770, 14829.00
718.9280, 14668.00
720.0790, 14872.00
721.2300, 14858.00
722.3800, 14855.00
723.5300, 14957.00
724.6810, 15073.00
725.8300, 14886.00
726.9800, 14888.00
728.1300, 14987.00
729.2790, 14888.00
730.4290, 15092.00
731.5780, 15057.00
732.7270, 15092.00
733.8760, 15080.00
735.0240, 15229.00
736.1730, 15181.00
737.3210, 15326.00
738.4700, 15374.00
739.6180, 15355.00
740.7650, 15241.00
741.9130, 15276.00
743.0610, 15270.00
744.2080, 15434.00
745.3550, 15530.00
746.5020, 15569.00
747.6490, 15666.10
748.7960, 15515.00
749.9430, 15709.00
751.0890, 15724.00
752.2350, 15605.00
753.3810, 15676.00
754.5270, 15820.00
755.6730, 15810.00
756.8190, 15925.00
757.9640, 15752.00
759.1090, 16004.00
760.2540, 15779.00
761.3990, 15988.00
762.5440, 15970.00
763.6890, 15854.00
764.8330, 15945.00
765.9780, 16013.00
767.1220, 16123.00
768.2660, 16217.05
769.4100, 16146.00
770.5530, 16389.00
771.6970, 16346.00
772.8400, 16337.00
773.9830, 16230.00
775.1260, 16329.00
776.2690, 16390.00
777.4120, 16517.00
778.5540, 16381.00
779.6970, 16640.00
780.8390, 16524.00
781.9810, 16553.00
783.1230, 16614.00
784.2650, 16731.00
785.4060, 16568.00
786.5480, 16828.00
787.6890, 16713.00
788.8300, 16664.00
789.9710, 16685.00
791.1120, 16836.00
792.2520, 16826.00
793.3930, 16962.00
794.5330, 16823.00
795.6730, 16801.00
796.8130, 17184.00
797.9530, 16991.00
799.0930, 17126.00
800.2320, 17058.00
801.3710, 17200.00
802.5110, 17311.00
803.6500, 17119.00
804.7880, 17421.00
805.9270, 17313.00
807.0660, 17189.00
808.2040, 17433.00
809.3420, 17379.00
810.4800, 17381.00
811.6180, 17590.00
812.7560, 17499.00
813.8930, 17696.00
815.0310, 17448.00
816.1680, 17784.00
817.3050, 17556.00
818.4420, 17598.00
819.5790, 17671.00
820.7150, 17782.00
821.8520, 18007.00
822.9880, 17799.00
824.1240, 18086.00
825.2600, 17988.00
826.3960, 18037.00
827.5320, 18077.00
828.6670, 18075.00
829.8020, 18077.00
830.9380, 18155.00
832.0730, 18267.00
833.2080, 18352.00
834.3420, 18219.00
835.4770, 18350.00
836.6110, 18301.00
837.7450, 18512.00
838.8790, 18575.00
840.0130, 18594.00
841.1470, 18678.82
842.2810, 18688.00
843.4140, 18693.00
844.5470, 18699.00
845.6800, 18641.00
846.8130, 18596.00
847.9460, 18832.00
849.0790, 18768.00
850.2110, 18947.00
851.3440, 19221.00
852.4760, 19127.00
853.6080, 19083.00
854.7400, 19125.00
855.8710, 19192.00
857.0030, 19241.00
858.1340, 19241.00
859.2650, 19186.00
860.3960, 19133.00
861.5270, 19214.00
862.6580, 19376.00
863.7890, 19241.00
864.9190, 19562.00
866.0490, 19370.00
867.1790, 19667.00
868.3090, 19751.00
869.4390, 19576.00
870.5690, 19624.00
871.6980, 19574.00
872.8270, 19654.00
873.9570, 19871.00
875.0860, 19851.00
876.2140, 19983.00
877.3430, 19855.00
878.4720, 19976.00
879.6000, 20182.00
880.7280, 20363.00
881.8560, 20124.00
882.9840, 20214.00
884.1120, 20259.00
885.2390, 20144.00
886.3670, 20266.00
887.4940, 20102.00
888.6210, 20178.00
889.7480, 20428.00
890.8750, 20400.00
892.0020, 20451.10
893.1280, 20308.00
894.2540, 20448.00
895.3810, 20300.00
896.5070, 20362.00
897.6320, 20290.00
898.7580, 20447.00
899.8840, 20705.00
901.0090, 20487.00
902.1340, 20638.00
903.2590, 20687.00
904.3840, 20547.00
905.5090, 20746.00
906.6340, 20580.00
907.7580, 20893.00
908.8820, 20946.00
910.0060, 20814.00
911.1300, 21058.00
912.2540, 20929.00
913.3780, 21099.00
914.5010, 20942.00
915.6250, 21090.00
916.7480, 21163.00
917.8710, 21462.00
918.9940, 21354.00
920.1160, 21450.00
921.2390, 21407.00
922.3610, 21469.00
923.4840, 21439.00
924.6060, 21505.00
925.7280, 21350.00
926.8490, 21514.00
927.9710, 21654.00
929.0930, 21873.00
930.2140, 21843.00
931.3350, 21657.00
932.4560, 21854.00
933.5770, 21994.00
934.6980, 22151.00
935.8180, 22345.00
936.9380, 22132.00
938.0590, 22360.00
939.1790, 22502.00
940.2990, 22874.00
941.4180, 22875.00
942.5380, 22976.00
943.6570, 23422.00
944.7770, 23702.00
945.8960, 23977.00
947.0150, 24613.00
948.1340, 25112.00
949.2520, 25732.00
950.3710, 26791.00
951.4890, 27811.00
952.6070, 29680.00
953.7260, 31465.00
954.8430, 34424.00
955.9610, 38129.00
957.0790, 42538.00
958.1960, 47805.00
959.3130, 53091.00
960.4310, 57619.00
961.5480, 59842.00
962.6640, 59676.00
963.7810, 58109.00
964.8970, 54234.00
966.0140, 49703.00
967.1300, 45540.00
968.2460, 41294.00
969.3620, 37870.00
970.4780, 35042.00
971.5930, 32566.00
972.7090, 30303.00
973.8240, 28724.00
974.9390, 27412.00
976.0540, 26303.00
977.1690, 25863.00
978.2830, 25178.00
979.3980, 24817.00
980.5120, 24638.00
981.6260, 24128.00
982.7400, 24149.00
983.8540, 23997.00
984.9680, 24121.00
986.0820, 24112.00
987.1950, 24176.00
988.3080, 24255.00
989.4210, 23762.00
990.5340, 24050.00
991.6470, 24282.00
992.7600, 23968.00
993.8720, 24322.00
994.9850, 24366.00
996.0970, 24341.00
997.2090, 24418.00
998.3210, 24374.00
999.4320, 24580.00
1000.544, 24655.00
1001.655, 24775.00
1002.767, 24669.00
1003.878, 24753.00
1004.989, 24796.00
1006.100, 24773.01
1007.210, 24867.55
1008.321, 24782.00
1009.431, 25020.00
1010.541, 25013.00
1011.651, 25140.00
1012.761, 25109.00
1013.871, 25006.00
1014.980, 25177.00
1016.090, 25095.00
1017.199, 25253.00
1018.308, 25548.00
1019.417, 25656.00
1020.526, 25436.00
1021.635, 25441.00
1022.743, 25724.00
1023.852, 25548.00
1024.960, 25798.00
1026.068, 25924.00
1027.176, 25897.00
1028.283, 26369.00
1029.391, 26163.00
1030.498, 26461.00
1031.606, 26806.00
1032.713, 26748.00
1033.820, 26732.00
1034.927, 26778.00
1036.033, 27008.00
1037.140, 26856.00
1038.246, 26861.00
1039.353, 27245.00
1040.459, 27294.00
1041.564, 27367.00
1042.670, 27310.00
1043.776, 27468.00
1044.881, 27481.00
1045.987, 27757.00
1047.092, 27904.00
1048.197, 27924.00
1049.302, 28181.00
1050.406, 28140.00
1051.511, 28264.00
1052.615, 28259.00
1053.720, 28493.00
1054.824, 28302.00
1055.928, 28335.00
1057.031, 28330.00
1058.135, 28051.00
1059.238, 28043.00
1060.342, 28210.00
1061.445, 27887.00
1062.548, 27809.00
1063.651, 27766.00
1064.754, 27557.00
1065.856, 27627.00
1066.959, 27695.00
1068.061, 27677.00
1069.163, 27886.00
1070.265, 27772.00
1071.367, 27847.00
1072.469, 28032.00
1073.570, 28254.00
1074.671, 28217.00
1075.773, 28719.00
1076.874, 28733.00
1077.975, 28768.00
1079.075, 28775.00
1080.176, 28656.00
1081.276, 28623.00
1082.377, 28678.00
1083.477, 28499.00
1084.577, 28465.00
1085.677, 28504.00
1086.777, 28314.00
1087.876, 28391.00
1088.975, 28231.00
1090.075, 28234.00
1091.174, 28160.00
1092.273, 28466.00
1093.372, 28222.00
1094.470, 28423.00
1095.569, 28244.00
1096.667, 28083.00
1097.765, 28219.00
1098.863, 28381.00
1099.961, 28280.00
1101.059, 28183.00
1102.157, 28507.00
1103.254, 28328.00
1104.351, 28521.00
1105.449, 28566.00
1106.546, 28462.00
1107.642, 28460.00
1108.739, 28525.00
1109.836, 28549.00
1110.932, 28592.34
1112.028, 28728.00
1113.124, 28675.00
1114.220, 28856.00
1115.316, 28881.00
1116.412, 28802.00
1117.507, 28835.00
1118.603, 28985.00
1119.698, 28997.00
1120.793, 29145.00
1121.888, 29067.00
1122.983, 29153.00
1124.077, 29293.00
1125.172, 29456.00
1126.266, 29385.00
1127.360, 29463.00
1128.454, 29289.00
1129.548, 29351.81
1130.642, 29430.00
1131.735, 29392.00
1132.829, 29457.00
1133.922, 29493.00
1135.015, 29595.00
1136.108, 29624.00
1137.201, 29641.00
1138.294, 29721.63
1139.386, 29843.00
1140.478, 29834.00
1141.571, 29821.00
1142.663, 29861.60
1143.755, 29827.00
1144.846, 29971.00
1145.938, 29985.00
1147.030, 30055.00
1148.121, 30063.00
1149.212, 30055.00
1150.303, 30121.11
1151.394, 30160.00
1152.485, 30186.00
1153.575, 30238.94
1154.666, 30320.09
1155.756, 30392.00
1156.846, 30491.00
1157.936, 30601.00
1159.026, 30652.00
1160.116, 30516.00
1161.205, 30744.00
1162.295, 30503.00
1163.384, 30737.00
1164.473, 30727.00
1165.562, 30694.00
1166.651, 30867.00
1167.739, 30838.83
1168.828, 30867.00
1169.916, 30903.00
1171.005, 30911.00
1172.093, 30902.00
1173.181, 31088.00
1174.268, 31260.00
1175.356, 30941.00
1176.443, 31244.00
1177.531, 31306.00
1178.618, 31172.00
1179.705, 31415.00
1180.792, 31203.00
1181.879, 31370.00
1182.965, 31578.00
1184.052, 31606.00
1185.138, 31695.46
1186.224, 31639.00
1187.310, 31757.00
1188.396, 31620.00
1189.482, 31677.00
1190.567, 31841.00
1191.653, 31780.00
1192.738, 32088.00
1193.823, 32059.11
1194.908, 31899.00
1195.993, 32151.00
1197.077, 32148.00
1198.162, 32230.00
1199.246, 32368.89
1200.331, 32355.70
1201.415, 32398.35
1202.499, 32340.00
1203.582, 32375.00
1204.666, 32231.00
1205.750, 32187.00
1206.833, 32350.00
1207.916, 32386.00
1208.999, 32490.00
1210.082, 32514.00
1211.165, 32537.00
1212.248, 32821.00
1213.330, 33008.00
1214.412, 32871.00
1215.495, 32833.00
1216.577, 32903.00
1217.658, 33049.00
1218.740, 32982.00
1219.822, 32984.00
1220.903, 33103.00
1221.985, 33064.00
1223.066, 33140.00
1224.147, 33024.00
1225.228, 33345.00
1226.308, 33351.00
1227.389, 33252.00
1228.469, 33404.00
1229.550, 33372.00
1230.630, 33437.00
1231.710, 33383.00
1232.790, 33588.00
1233.869, 33631.00
1234.949, 33509.00
1236.028, 33364.00
1237.108, 33792.00
1238.187, 33623.00
1239.266, 33784.00
1240.344, 33878.00
1241.423, 33739.00
1242.502, 33851.00
1243.580, 33951.00
1244.658, 33814.00
1245.736, 34031.00
1246.814, 34088.00
1247.892, 34318.00
1248.970, 33859.00
1250.047, 34120.00
1251.125, 34231.00
1252.202, 34142.00
1253.279, 34360.00
1254.356, 34458.00
1255.433, 34449.00
1256.509, 34644.00
1257.586, 34438.00
1258.662, 34361.00
1259.738, 34574.00
1260.814, 34682.00
1261.890, 34425.00
1262.966, 34763.00
1264.042, 34826.00
1265.117, 34971.00
1266.193, 34951.00
1267.268, 35078.00
1268.343, 34915.00
1269.418, 35004.00
1270.492, 34911.00
1271.567, 35097.00
1272.642, 34936.00
1273.716, 34968.00
1274.790, 35176.00
1275.864, 35151.00
1276.938, 35073.00
1278.012, 35201.00
1279.085, 35217.00
1280.159, 35374.00
1281.232, 35138.00
1282.305, 35514.00
1283.378, 35249.00
1284.451, 35468.00
1285.524, 35471.00
1286.597, 35494.00
1287.669, 35563.00
1288.741, 35711.00
1289.813, 35736.00
1290.885, 35800.00
1291.957, 35577.00
1293.029, 35975.00
1294.101, 36108.00
1295.172, 35968.00
1296.243, 35731.00
1297.315, 35885.00
1298.386, 36075.00
1299.456, 35968.00
1300.527, 36129.00
1301.598, 36199.00
1302.668, 36119.00
1303.738, 36407.00
1304.809, 36251.00
1305.879, 36335.00
1306.948, 36660.00
1308.018, 36592.00
1309.088, 36599.00
1310.157, 36687.00
1311.226, 36809.00
1312.296, 36706.00
1313.365, 36812.00
1314.433, 37014.00
1315.502, 36913.00
1316.571, 37054.00
1317.639, 37021.00
1318.707, 37162.00
1319.776, 36988.00
1320.844, 37142.00
1321.911, 37433.00
1322.979, 37226.00
1324.047, 37363.00
1325.114, 37495.00
1326.181, 37316.00
1327.249, 37272.00
1328.316, 37465.00
1329.382, 37341.00
1330.449, 37597.00
1331.516, 37565.00
1332.582, 37533.00
1333.648, 37727.00
1334.715, 37971.00
1335.781, 37691.00
1336.846, 37709.00
1337.912, 37700.00
1338.978, 38105.00
1340.043, 38007.00
1341.108, 37838.00
1342.174, 38090.00
1343.239, 38038.00
1344.303, 37972.00
1345.368, 38114.00
1346.433, 38349.00
1347.497, 38385.00
1348.561, 38400.68
1349.626, 38230.00
1350.690, 38338.00
1351.753, 38441.00
1352.817, 38523.00
1353.881, 38463.00
1354.944, 38570.00
1356.007, 38595.00
1357.071, 38700.00
1358.134, 38655.00
1359.196, 38884.00
1360.259, 38879.00
1361.322, 38847.00
1362.384, 38775.00
1363.447, 38756.00
1364.509, 39020.00
1365.571, 38806.00
1366.633, 39001.00
1367.694, 39118.00
1368.756, 39069.00
1369.817, 39355.00
1370.879, 39208.00
1371.940, 39032.00
1373.001, 39381.00
1374.062, 39111.00
1375.122, 39389.00
1376.183, 39439.00
1377.244, 39565.00
1378.304, 39487.00
1379.364, 39560.00
1380.424, 39845.00
1381.484, 39534.00
1382.544, 39498.00
1383.603, 39646.00
1384.663, 39902.00
1385.722, 39914.00
1386.781, 39951.00
1387.840, 39900.00
1388.899, 39870.00
1389.958, 40064.00
1391.017, 39812.00
1392.075, 39663.00
1393.134, 40101.00
1394.192, 40203.00
1395.250, 40310.00
1396.308, 40046.00
1397.365, 40285.00
1398.423, 40169.00
1399.481, 40587.00
1400.538, 40398.00
1401.595, 40541.00
1402.652, 40526.00
1403.709, 40660.00
1404.766, 40486.00
1405.823, 40442.00
1406.879, 40518.00
1407.936, 40579.00
1408.992, 40567.96
1410.048, 40641.65
1411.104, 40616.00
1412.160, 40738.00
1413.215, 40821.00
1414.271, 40891.75
1415.326, 40940.01
1416.382, 41027.00
1417.437, 40997.00
1418.492, 41134.00
1419.546, 41181.00
1420.601, 41475.00
1421.656, 41209.00
1422.710, 41230.00
1423.764, 41108.00
1424.819, 41451.00
1425.873, 41246.00
1426.926, 41428.00
1427.980, 41741.00
1429.034, 41619.00
1430.087, 41557.00
1431.140, 41685.00
1432.194, 41896.00
1433.247, 41538.00
1434.299, 41865.00
1435.352, 41974.00
1436.405, 41596.00
1437.457, 41914.00
1438.510, 41813.00
1439.562, 42055.00
1440.614, 41874.00
1441.666, 42329.00
1442.717, 42146.00
1443.769, 42243.00
1444.821, 42481.00
1445.872, 42027.00
1446.923, 42203.00
1447.974, 42308.00
1449.025, 42437.00
1450.076, 42425.00
1451.127, 42520.00
1452.177, 42223.00
1453.227, 42601.00
1454.278, 42474.00
1455.328, 42534.00
1456.378, 42772.00
1457.428, 42921.00
1458.477, 42893.00
1459.527, 43037.55
1460.576, 42930.00
1461.625, 43029.00
1462.675, 43111.00
1463.724, 42882.00
1464.772, 42926.00
1465.821, 43067.00
1466.870, 42883.00
1467.918, 43125.00
1468.966, 43288.00
1470.015, 43432.00
1471.063, 43459.00
1472.110, 43613.57
1473.158, 43419.00
1474.206, 43648.00
1475.253, 43651.00
1476.301, 43278.00
1477.348, 43599.00
1478.395, 43479.00
1479.442, 43765.00
1480.488, 43510.00
1481.535, 43893.00
1482.582, 43772.00
1483.628, 43707.00
1484.674, 43827.00
1485.720, 43800.00
1486.766, 43931.00
1487.812, 44132.00
1488.858, 43924.00
1489.903, 44065.00
1490.949, 44243.00
1491.994, 44027.00
1493.039, 44147.00
1494.084, 44213.00
1495.129, 44032.00
1496.173, 44487.00
1497.218, 44128.00
1498.262, 44293.00
1499.307, 44460.00
1500.351, 44453.00
1501.395, 44269.00
1502.439, 44614.00
1503.483, 44667.00
1504.526, 44941.00
1505.570, 44700.00
1506.613, 44674.00
1507.656, 45021.00
1508.699, 44662.00
1509.742, 45015.00
1510.785, 44914.00
1511.827, 44989.00
1512.870, 45233.00
1513.912, 45113.00
1514.955, 45081.00
1515.997, 45161.00
1517.039, 45333.00
1518.080, 45185.00
1519.122, 45269.00
1520.164, 45255.00
1521.205, 45293.00
1522.246, 45435.00
1523.288, 45590.00
1524.329, 45657.27
1525.369, 45716.75
1526.410, 45840.00
1527.451, 45690.00
1528.491, 45735.00
1529.531, 45584.00
1530.572, 45591.00
1531.612, 45467.00
1532.652, 45726.00
1533.691, 46001.00
1534.731, 45622.00
1535.770, 45889.00
1536.810, 45914.00
1537.849, 45939.00
1538.888, 46218.00
1539.927, 46117.00
1540.966, 46023.00
1542.005, 46118.00
1543.043, 46290.00
1544.082, 46536.00
1545.120, 46323.00
1546.158, 46481.00
1547.196, 46188.00
1548.234, 46528.00
1549.272, 46541.00
1550.309, 46609.00
1551.347, 46857.00
1552.384, 46775.00
1553.421, 46889.79
1554.458, 46837.00
1555.495, 46944.00
1556.532, 46722.00
1557.568, 46690.00
1558.605, 46724.00
1559.641, 46910.00
1560.678, 46913.00
1561.714, 47086.00
1562.750, 46936.00
1563.785, 47232.00
##END=



