##NAMES=Fluorapatite
##RRUFFID=R050401
##IDEAL CHEMISTRY=Ca_5_(PO_4_)_3_F
##LOCALITY=Urbano mine, Golconda District, Minas Gerais, Brazil
##OWNER=RRUFF
##SOURCE=Bob Downs
##DESCRIPTION=Pale purple hexagonal prism associated with albite R050402
##STATUS=The identification of this mineral has been confirmed by X-ray diffraction and chemical analysis
##URL=rruff.info/R050401
##MEASURED CHEMISTRY=(Ca_0.99_Mn_0.01_)_5_(P_1.00_O_4_)_3_F_1.00_
##PIN_ID=L01966
##ORIENTATION=Laser parallel to a* (1 0 0). Fiducial mark perpendicular to laser is parallel to c [0 0 1]
140.2710, 2524.000
141.5000, 2498.000
142.7280, 2531.000
143.9560, 2544.000
145.1840, 2584.000
146.4120, 2532.000
147.6390, 2642.000
148.8670, 2605.000
150.0940, 2556.000
151.3210, 2664.000
152.5490, 2681.000
153.7750, 2668.000
155.0020, 2753.000
156.2290, 2714.000
157.4550, 2745.000
158.6810, 2741.000
159.9080, 2705.000
161.1340, 2728.000
162.3590, 2750.000
163.5850, 2739.000
164.8110, 2772.000
166.0360, 2740.000
167.2610, 2750.186
168.4860, 2764.000
169.7110, 2742.000
170.9360, 2748.000
172.1610, 2736.000
173.3850, 2755.000
174.6100, 2743.000
175.8340, 2773.000
177.0580, 2756.000
178.2820, 2742.000
179.5050, 2758.000
180.7290, 2758.000
181.9520, 2774.998
183.1760, 2790.281
184.3990, 2808.000
185.6220, 2825.000
186.8450, 2821.000
188.0670, 2832.991
189.2900, 2889.000
190.5120, 2890.000
191.7340, 2918.000
192.9560, 2933.000
194.1780, 3126.000
195.4000, 2980.000
196.6220, 3103.000
197.8430, 3083.000
199.0640, 3274.000
200.2860, 3342.000
201.5070, 3503.000
202.7270, 3553.000
203.9480, 3694.000
205.1690, 3802.000
206.3890, 3866.000
207.6090, 3929.000
208.8290, 4051.000
210.0490, 4017.000
211.2690, 4014.000
212.4890, 4110.000
213.7080, 4023.000
214.9280, 3836.000
216.1470, 3717.000
217.3660, 3501.000
218.5850, 3468.000
219.8030, 3429.000
221.0220, 3309.000
222.2400, 3291.000
223.4590, 3223.000
224.6770, 3268.000
225.8950, 3241.000
227.1120, 3239.000
228.3300, 3214.000
229.5480, 3277.000
230.7650, 3281.000
231.9820, 3271.000
233.1990, 3318.000
234.4160, 3265.000
235.6330, 3253.000
236.8490, 3274.000
238.0660, 3272.000
239.2820, 3189.000
240.4980, 3186.000
241.7140, 3181.000
242.9300, 3172.000
244.1460, 3173.000
245.3610, 3225.000
246.5770, 3181.000
247.7920, 3170.000
249.0070, 3214.000
250.2220, 3162.000
251.4370, 3149.000
252.6510, 3127.000
253.8660, 3139.730
255.0800, 3161.167
256.2940, 3191.000
257.5080, 3234.000
258.7220, 3261.000
259.9360, 3295.000
261.1490, 3242.000
262.3630, 3298.000
263.5760, 3239.000
264.7890, 3299.000
266.0020, 3239.000
267.2150, 3245.000
268.4270, 3245.000
269.6400, 3328.000
270.8520, 3270.000
272.0640, 3360.000
273.2760, 3291.000
274.4880, 3439.000
275.7000, 3383.000
276.9120, 3441.000
278.1230, 3413.000
279.3340, 3444.000
280.5450, 3446.000
281.7560, 3514.000
282.9670, 3555.000
284.1780, 3548.000
285.3880, 3605.000
286.5980, 3573.000
287.8090, 3653.000
289.0190, 3649.000
290.2290, 3701.000
291.4380, 3789.000
292.6480, 3724.000
293.8570, 3784.000
295.0670, 3746.000
296.2760, 3867.000
297.4850, 3943.000
298.6930, 3983.000
299.9020, 3922.000
301.1110, 3983.000
302.3190, 3965.000
303.5270, 3996.000
304.7350, 3943.000
305.9430, 3967.000
307.1510, 3846.000
308.3580, 3891.000
309.5660, 3806.000
310.7730, 3799.000
311.9800, 3763.000
313.1870, 3755.000
314.3940, 3802.000
315.6010, 3738.000
316.8070, 3765.000
318.0130, 3740.000
319.2200, 3651.000
320.4260, 3740.000
321.6310, 3773.000
322.8370, 3766.000
324.0430, 3720.000
325.2480, 3692.000
326.4540, 3765.000
327.6590, 3723.000
328.8640, 3787.000
330.0680, 3786.000
331.2730, 3742.000
332.4780, 3759.000
333.6820, 3754.000
334.8860, 3827.000
336.0900, 3714.000
337.2940, 3855.000
338.4980, 3734.000
339.7010, 3914.000
340.9050, 3889.000
342.1080, 3819.000
343.3110, 3940.000
344.5140, 3822.000
345.7170, 3810.000
346.9200, 3898.000
348.1220, 3880.000
349.3240, 3945.000
350.5270, 3898.000
351.7290, 3952.000
352.9310, 4003.000
354.1320, 3937.000
355.3340, 4015.000
356.5350, 4019.000
357.7370, 4025.000
358.9380, 4000.000
360.1390, 4046.000
361.3400, 3993.000
362.5400, 4020.000
363.7410, 4078.000
364.9410, 4043.000
366.1410, 4055.000
367.3410, 4010.000
368.5410, 4082.000
369.7410, 4206.000
370.9400, 4107.000
372.1400, 4168.000
373.3390, 4120.000
374.5380, 4130.000
375.7370, 4093.000
376.9360, 4180.000
378.1350, 4130.000
379.3330, 4206.000
380.5310, 4245.000
381.7300, 4235.000
382.9280, 4187.000
384.1260, 4285.000
385.3230, 4273.000
386.5210, 4222.000
387.7180, 4252.000
388.9160, 4277.000
390.1130, 4337.000
391.3100, 4413.000
392.5060, 4385.000
393.7030, 4335.000
394.9000, 4464.000
396.0960, 4427.000
397.2920, 4452.000
398.4880, 4483.000
399.6840, 4486.000
400.8800, 4436.000
402.0750, 4505.000
403.2710, 4531.000
404.4660, 4431.000
405.6610, 4508.000
406.8560, 4412.000
408.0510, 4467.000
409.2450, 4641.000
410.4400, 4580.000
411.6340, 4647.000
412.8280, 4619.000
414.0220, 4682.000
415.2160, 4710.000
416.4100, 4710.000
417.6030, 4767.000
418.7970, 4840.000
419.9900, 4816.000
421.1830, 4919.000
422.3760, 5043.000
423.5690, 5071.000
424.7610, 5149.000
425.9540, 5189.000
427.1460, 5214.000
428.3380, 5296.000
429.5300, 5283.000
430.7220, 5322.000
431.9140, 5411.000
433.1050, 5347.000
434.2970, 5327.000
435.4880, 5300.183
436.6790, 5369.000
437.8700, 5285.000
439.0610, 5308.000
440.2510, 5518.000
441.4420, 5521.000
442.6320, 5508.000
443.8220, 5682.000
445.0120, 5789.000
446.2020, 5851.000
447.3910, 5898.000
448.5810, 6022.000
449.7700, 6037.000
450.9600, 6067.000
452.1490, 6086.000
453.3370, 6064.000
454.5260, 6013.227
455.7150, 5906.000
456.9030, 5836.000
458.0910, 5736.000
459.2800, 5679.318
460.4670, 5626.000
461.6550, 5568.000
462.8430, 5563.000
464.0300, 5503.000
465.2180, 5538.000
466.4050, 5502.000
467.5920, 5501.524
468.7790, 5425.000
469.9650, 5509.000
471.1520, 5475.000
472.3380, 5490.000
473.5250, 5561.000
474.7110, 5459.000
475.8970, 5456.000
477.0820, 5513.000
478.2680, 5517.000
479.4540, 5543.000
480.6390, 5614.000
481.8240, 5565.000
483.0090, 5607.000
484.1940, 5569.000
485.3780, 5739.000
486.5630, 5663.000
487.7470, 5703.000
488.9320, 5766.000
490.1160, 5662.000
491.3000, 5651.000
492.4830, 5732.000
493.6670, 5731.000
494.8500, 5746.000
496.0340, 5685.000
497.2170, 5752.000
498.4000, 5766.000
499.5820, 5771.000
500.7650, 5785.000
501.9480, 5822.000
503.1300, 5826.010
504.3120, 5883.000
505.4940, 5880.000
506.6760, 5876.000
507.8580, 5956.000
509.0390, 5946.000
510.2210, 5922.000
511.4020, 6059.000
512.5830, 5947.000
513.7640, 6050.000
514.9450, 6113.000
516.1250, 6023.000
517.3060, 6053.000
518.4860, 6098.000
519.6660, 6097.000
520.8460, 6108.000
522.0260, 6192.000
523.2060, 6305.000
524.3850, 6289.000
525.5650, 6241.000
526.7440, 6306.000
527.9230, 6219.000
529.1020, 6286.000
530.2810, 6282.000
531.4590, 6412.000
532.6380, 6420.000
533.8160, 6347.000
534.9940, 6383.000
536.1720, 6351.000
537.3500, 6402.000
538.5270, 6574.000
539.7050, 6420.000
540.8820, 6465.000
542.0590, 6607.000
543.2360, 6529.000
544.4130, 6523.000
545.5900, 6584.000
546.7660, 6535.000
547.9430, 6611.000
549.1190, 6596.000
550.2950, 6788.000
551.4710, 6771.000
552.6470, 6652.000
553.8220, 6870.000
554.9980, 6792.000
556.1730, 6838.000
557.3480, 6900.000
558.5230, 6946.000
559.6980, 6961.865
560.8730, 6999.632
562.0470, 6973.000
563.2220, 7042.000
564.3960, 7036.000
565.5700, 7059.000
566.7440, 7116.000
567.9170, 7154.000
569.0910, 7213.000
570.2640, 7187.000
571.4380, 7123.000
572.6110, 7356.000
573.7840, 7425.000
574.9570, 7383.000
576.1290, 7427.000
577.3020, 7632.000
578.4740, 7606.000
579.6460, 7754.000
580.8180, 8130.000
581.9900, 8383.000
583.1620, 8959.000
584.3330, 9197.000
585.5040, 9647.000
586.6760, 10264.00
587.8470, 10739.00
589.0180, 11049.00
590.1880, 10997.00
591.3590, 10871.00
592.5290, 10592.00
593.7000, 9858.000
594.8700, 9414.000
596.0400, 9135.000
597.2090, 8745.000
598.3790, 8782.000
599.5490, 8888.000
600.7180, 8982.000
601.8870, 9162.000
603.0560, 9437.000
604.2250, 9721.000
605.3940, 9562.000
606.5620, 9551.000
607.7300, 9472.000
608.8990, 9177.000
610.0670, 8755.000
611.2350, 8456.000
612.4020, 8406.000
613.5700, 8274.000
614.7370, 8250.000
615.9050, 8199.000
617.0720, 8217.000
618.2390, 8152.000
619.4060, 8198.000
620.5720, 8181.000
621.7390, 8353.000
622.9050, 8322.000
624.0710, 8416.000
625.2370, 8243.000
626.4030, 8299.000
627.5690, 8382.000
628.7340, 8495.000
629.9000, 8471.000
631.0650, 8458.000
632.2300, 8449.000
633.3950, 8471.550
634.5600, 8506.000
635.7240, 8557.000
636.8890, 8556.000
638.0530, 8641.000
639.2170, 8640.000
640.3810, 8657.000
641.5450, 8725.000
642.7080, 8634.000
643.8720, 8743.000
645.0350, 8807.000
646.1980, 8724.000
647.3610, 8859.000
648.5240, 8873.000
649.6870, 8958.000
650.8490, 8856.000
652.0120, 8923.000
653.1740, 8927.000
654.3360, 9026.000
655.4980, 9076.000
656.6600, 9136.000
657.8210, 9166.340
658.9830, 9153.403
660.1440, 9207.000
661.3050, 9125.000
662.4660, 9159.000
663.6270, 9217.000
664.7870, 9199.719
665.9480, 9330.000
667.1080, 9264.000
668.2680, 9324.000
669.4280, 9395.000
670.5880, 9415.000
671.7480, 9488.444
672.9070, 9505.383
674.0670, 9552.000
675.2260, 9550.000
676.3850, 9574.047
677.5440, 9616.044
678.7030, 9623.000
679.8610, 9681.000
681.0200, 9758.000
682.1780, 9757.000
683.3360, 9836.175
684.4940, 9863.000
685.6520, 9903.000
686.8090, 9904.000
687.9670, 9832.000
689.1240, 9866.300
690.2810, 9903.000
691.4380, 9865.000
692.5950, 9935.000
693.7520, 9944.000
694.9080, 10017.00
696.0650, 10034.00
697.2210, 10060.00
698.3770, 10073.00
699.5330, 10103.00
700.6880, 10093.00
701.8440, 10199.00
702.9990, 10328.00
704.1550, 10320.00
705.3100, 10418.00
706.4650, 10396.00
707.6190, 10429.00
708.7740, 10472.00
709.9290, 10624.00
711.0830, 10593.00
712.2370, 10676.15
713.3910, 10596.00
714.5450, 10759.00
715.6980, 10726.00
716.8520, 10754.00
718.0050, 10697.00
719.1580, 10844.00
720.3110, 10846.00
721.4640, 10796.00
722.6170, 11023.00
723.7700, 11002.00
724.9220, 10923.00
726.0740, 10841.00
727.2260, 10885.00
728.3780, 11043.00
729.5300, 11051.00
730.6810, 11222.00
731.8330, 11118.00
732.9840, 11271.00
734.1350, 11158.00
735.2860, 11105.00
736.4370, 11259.00
737.5880, 11403.00
738.7380, 11370.00
739.8880, 11391.00
741.0390, 11301.00
742.1890, 11405.00
743.3380, 11518.00
744.4880, 11532.00
745.6380, 11575.00
746.7870, 11726.00
747.9360, 11698.00
749.0850, 11678.00
750.2340, 11663.00
751.3830, 11895.00
752.5310, 11726.00
753.6800, 11846.00
754.8280, 11748.00
755.9760, 11932.00
757.1240, 12015.00
758.2720, 12034.00
759.4190, 12153.00
760.5670, 12081.00
761.7140, 12069.00
762.8610, 12173.00
764.0080, 12123.00
765.1550, 12005.00
766.3020, 12324.00
767.4480, 12225.00
768.5950, 12163.00
769.7410, 12378.00
770.8870, 12489.00
772.0330, 12472.00
773.1780, 12713.00
774.3240, 12561.00
775.4690, 12664.00
776.6140, 12720.00
777.7590, 12702.00
778.9040, 12814.00
780.0490, 12790.00
781.1940, 12961.00
782.3380, 12920.00
783.4820, 12746.00
784.6260, 12953.00
785.7700, 12976.00
786.9140, 12952.00
788.0580, 13148.00
789.2010, 13192.00
790.3450, 13150.00
791.4880, 13096.00
792.6310, 13176.00
793.7730, 13299.00
794.9160, 13335.00
796.0590, 13422.00
797.2010, 13494.00
798.3430, 13562.00
799.4850, 13332.00
800.6270, 13524.00
801.7690, 13472.00
802.9100, 13640.00
804.0520, 13612.00
805.1930, 13779.00
806.3340, 13772.00
807.4750, 13860.00
808.6160, 13910.00
809.7560, 13934.00
810.8970, 14007.00
812.0370, 13959.00
813.1770, 14005.00
814.3170, 14053.00
815.4570, 14057.00
816.5960, 14149.00
817.7360, 14253.00
818.8750, 14247.00
820.0140, 14377.00
821.1530, 14352.00
822.2920, 14430.00
823.4310, 14485.00
824.5690, 14383.00
825.7070, 14550.00
826.8460, 14432.00
827.9840, 14629.00
829.1220, 14638.00
830.2590, 14623.00
831.3970, 14727.00
832.5340, 14804.00
833.6710, 14972.00
834.8080, 15027.00
835.9450, 14867.00
837.0820, 14967.00
838.2190, 15095.00
839.3550, 15192.00
840.4910, 14982.00
841.6270, 15241.00
842.7630, 15226.00
843.8990, 15185.00
845.0350, 15302.00
846.1700, 15344.00
847.3060, 15474.00
848.4410, 15480.00
849.5760, 15494.00
850.7100, 15541.00
851.8450, 15582.00
852.9800, 15654.00
854.1140, 15788.00
855.2480, 15802.37
856.3820, 15869.00
857.5160, 15872.00
858.6500, 15900.00
859.7830, 15910.00
860.9170, 16027.00
862.0500, 16201.00
863.1830, 16026.00
864.3160, 16352.00
865.4480, 16208.00
866.5810, 16127.00
867.7130, 16291.00
868.8460, 16475.00
869.9780, 16406.00
871.1100, 16633.00
872.2410, 16546.00
873.3730, 16623.00
874.5050, 16530.00
875.6360, 16627.00
876.7670, 16897.00
877.8980, 16911.00
879.0290, 16890.00
880.1590, 16812.00
881.2900, 16885.19
882.4200, 16973.00
883.5500, 17028.00
884.6800, 17069.00
885.8100, 17221.00
886.9400, 17247.00
888.0690, 17308.00
889.1990, 17163.00
890.3280, 17376.00
891.4570, 17426.00
892.5860, 17341.00
893.7140, 17464.00
894.8430, 17541.00
895.9710, 17670.00
897.1000, 17687.00
898.2280, 17655.00
899.3560, 17793.00
900.4830, 17835.00
901.6110, 17909.00
902.7380, 18044.00
903.8660, 18114.00
904.9930, 18147.00
906.1200, 18143.00
907.2460, 18249.00
908.3730, 18208.00
909.5000, 18359.00
910.6260, 18316.00
911.7520, 18410.00
912.8780, 18465.00
914.0040, 18557.00
915.1290, 18500.00
916.2550, 18618.00
917.3800, 18689.00
918.5050, 18826.00
919.6300, 18835.00
920.7550, 18747.00
921.8800, 18830.00
923.0040, 18813.00
924.1290, 19014.00
925.2530, 19017.00
926.3770, 19028.00
927.5010, 19274.00
928.6250, 19495.00
929.7480, 19388.00
930.8720, 19525.00
931.9950, 19426.00
933.1180, 19660.00
934.2410, 19581.00
935.3640, 19691.00
936.4860, 19885.00
937.6090, 20016.00
938.7310, 19977.00
939.8530, 20022.00
940.9750, 20233.00
942.0970, 20354.00
943.2180, 20536.00
944.3400, 20740.44
945.4610, 21024.00
946.5820, 21161.00
947.7030, 21359.00
948.8240, 21580.00
949.9450, 21660.00
951.0650, 21905.00
952.1860, 22271.00
953.3060, 22884.00
954.4260, 23606.00
955.5460, 25990.00
956.6650, 27104.00
957.7850, 30068.00
958.9040, 35701.00
960.0230, 42234.00
961.1420, 48377.00
962.2610, 55819.00
963.3800, 60088.00
964.4990, 60351.00
965.6170, 57822.00
966.7350, 51366.00
967.8530, 43414.00
968.9710, 35485.00
970.0890, 29873.00
971.2070, 26604.00
972.3240, 24965.00
973.4410, 23918.00
974.5580, 23336.00
975.6750, 22849.00
976.7920, 22872.00
977.9090, 22491.00
979.0250, 22475.00
980.1410, 22436.00
981.2580, 22345.00
982.3740, 22470.00
983.4890, 22504.00
984.6050, 22459.00
985.7200, 22676.00
986.8360, 22637.00
987.9510, 22740.92
989.0660, 22770.00
990.1810, 22838.00
991.2950, 22786.00
992.4100, 22679.00
993.5240, 22656.00
994.6390, 22725.88
995.7530, 22742.00
996.8660, 22954.00
997.9800, 22991.00
999.0940, 23138.00
1000.207, 23237.00
1001.320, 23221.00
1002.433, 23210.00
1003.546, 23327.00
1004.659, 23456.00
1005.772, 23362.00
1006.884, 23656.00
1007.996, 23658.00
1009.108, 23688.00
1010.220, 23698.00
1011.332, 23740.44
1012.444, 23939.00
1013.555, 23834.00
1014.666, 24066.00
1015.777, 24132.00
1016.888, 24060.00
1017.999, 24192.00
1019.110, 24201.00
1020.220, 24109.00
1021.331, 24543.00
1022.441, 24460.00
1023.551, 24458.00
1024.661, 24416.00
1025.770, 24751.00
1026.880, 24648.00
1027.989, 24860.00
1029.098, 24838.00
1030.207, 24844.00
1031.316, 24884.00
1032.425, 25099.00
1033.533, 25263.00
1034.642, 25287.00
1035.750, 25537.37
1036.858, 25615.00
1037.966, 25929.00
1039.073, 26098.00
1040.181, 26306.00
1041.288, 26360.00
1042.396, 26481.00
1043.503, 26703.00
1044.610, 26967.00
1045.716, 27213.00
1046.823, 28260.00
1047.929, 29179.00
1049.036, 30493.00
1050.142, 31823.00
1051.248, 33369.00
1052.353, 34323.00
1053.459, 34302.00
1054.564, 33287.00
1055.670, 32082.00
1056.775, 30660.00
1057.880, 29333.00
1058.985, 28579.00
1060.089, 28107.00
1061.194, 28069.00
1062.298, 27695.00
1063.402, 27777.00
1064.506, 27341.00
1065.610, 27362.00
1066.713, 27600.00
1067.817, 27577.00
1068.920, 27562.00
1070.023, 27675.00
1071.126, 27702.00
1072.229, 27742.00
1073.332, 27968.00
1074.435, 28391.00
1075.537, 28790.00
1076.639, 29567.00
1077.741, 30340.00
1078.843, 30808.00
1079.945, 31460.00
1081.046, 31634.00
1082.148, 31460.00
1083.249, 31019.00
1084.350, 30208.00
1085.451, 29582.00
1086.551, 29251.00
1087.652, 29114.00
1088.752, 29038.00
1089.853, 29040.00
1090.953, 28914.00
1092.053, 28822.00
1093.152, 28921.00
1094.252, 28826.00
1095.351, 28827.00
1096.451, 28976.00
1097.550, 29018.00
1098.649, 29026.00
1099.748, 29116.00
1100.846, 29137.00
1101.945, 29208.00
1103.043, 29371.00
1104.141, 29348.00
1105.239, 29535.00
1106.337, 29569.00
1107.434, 29690.00
1108.532, 29489.00
1109.629, 29783.00
1110.726, 30019.00
1111.823, 29823.00
1112.920, 30029.00
1114.017, 30015.00
1115.113, 30335.00
1116.210, 30226.00
1117.306, 30212.00
1118.402, 30334.00
1119.498, 30401.00
1120.593, 30571.00
1121.689, 30529.00
1122.784, 30809.00
1123.879, 30730.00
1124.974, 30930.00
1126.069, 30817.00
1127.164, 30916.00
1128.259, 31048.00
1129.353, 30844.00
1130.447, 31013.00
1131.541, 31005.00
1132.635, 31361.00
1133.729, 31220.00
1134.822, 31470.00
1135.916, 31556.00
1137.009, 31437.00
1138.102, 31749.00
1139.195, 31804.00
1140.288, 31781.00
1141.380, 31742.00
1142.473, 32017.00
1143.565, 32000.00
1144.657, 32103.00
1145.749, 32310.00
1146.841, 32212.00
1147.932, 32078.00
1149.024, 32428.00
1150.115, 32339.00
1151.206, 32368.00
1152.297, 32472.00
1153.388, 32372.00
1154.479, 32710.00
1155.569, 32875.00
1156.659, 32876.00
1157.750, 33090.00
1158.839, 32995.00
1159.929, 33189.00
1161.019, 33116.00
1162.108, 33172.00
1163.198, 33461.00
1164.287, 33203.00
1165.376, 33407.00
1166.465, 33537.00
1167.553, 33750.00
1168.642, 33765.00
1169.730, 33673.00
1170.818, 33830.00
1171.906, 33637.00
1172.994, 33914.00
1174.082, 34151.00
1175.170, 34025.00
1176.257, 34166.00
1177.344, 34253.00
1178.431, 34490.00
1179.518, 34253.00
1180.605, 34159.00
1181.691, 34456.00
1182.778, 34434.00
1183.864, 34566.16
1184.950, 34687.00
1186.036, 34788.00
1187.122, 34952.00
1188.207, 35012.00
1189.292, 35010.00
1190.378, 35379.00
1191.463, 35439.00
1192.548, 35242.00
1193.632, 35448.00
1194.717, 35279.00
1195.801, 35629.00
1196.886, 35505.00
1197.970, 35541.00
1199.054, 35719.00
1200.137, 35900.00
1201.221, 35755.00
1202.305, 36000.00
1203.388, 35800.00
1204.471, 36004.00
1205.554, 36196.00
1206.637, 36227.00
1207.719, 36342.00
1208.802, 36412.00
1209.884, 36434.00
1210.966, 36520.00
1212.048, 36709.00
1213.130, 36808.00
1214.212, 36790.00
1215.293, 36928.00
1216.374, 36913.00
1217.456, 36913.00
1218.536, 36984.00
1219.617, 37060.36
1220.698, 37350.00
1221.778, 37350.00
1222.859, 37507.00
1223.939, 37773.00
1225.019, 37395.00
1226.099, 37941.00
1227.178, 37599.00
1228.258, 38032.00
1229.337, 37852.00
1230.417, 37843.00
1231.496, 38115.00
1232.574, 37901.00
1233.653, 38224.00
1234.732, 38134.00
1235.810, 38212.00
1236.888, 38511.00
1237.966, 38550.00
1239.044, 38398.00
1240.122, 38697.00
1241.199, 38752.00
1242.277, 38679.00
1243.354, 38938.00
1244.431, 39063.00
1245.508, 38932.00
1246.585, 39025.00
1247.661, 39049.00
1248.738, 39301.00
1249.814, 39113.00
1250.890, 39262.00
1251.966, 39289.00
1253.042, 39320.00
1254.117, 39442.00
1255.193, 39516.00
1256.268, 39452.00
1257.343, 39484.00
1258.418, 39565.00
1259.493, 39569.00
1260.567, 39650.00
1261.642, 40166.00
1262.716, 40446.00
1263.790, 40155.00
1264.864, 40396.00
1265.938, 40249.00
1267.011, 40498.00
1268.085, 40402.00
1269.158, 40643.00
1270.231, 40447.00
1271.304, 40468.00
1272.377, 40665.00
1273.450, 40731.00
1274.522, 40811.00
1275.594, 40766.00
1276.666, 40857.93
1277.738, 40884.00
1278.810, 41011.00
1279.882, 41073.00
1280.953, 41256.00
1282.025, 41410.00
1283.096, 41415.00
1284.167, 41568.00
1285.238, 41541.00
1286.308, 41651.00
1287.379, 41615.00
1288.449, 41812.00
1289.519, 41739.00
1290.589, 41820.00
1291.659, 42206.00
1292.729, 42016.00
1293.798, 42304.00
1294.868, 42034.00
1295.937, 42159.00
1297.006, 42296.00
1298.075, 42415.00
1299.143, 42735.00
1300.212, 42410.00
1301.280, 42662.00
1302.348, 42542.00
1303.416, 42909.00
1304.484, 43081.00
1305.552, 42956.00
1306.620, 43213.00
1307.687, 43221.89
1308.754, 43690.00
1309.821, 43432.00
1310.888, 43585.00
1311.955, 43855.00
1313.021, 43852.00
1314.088, 43766.00
1315.154, 43940.00
1316.220, 44136.00
1317.286, 44038.00
1318.352, 44298.00
1319.417, 44528.00
1320.483, 44173.00
1321.548, 44436.00
1322.613, 44883.00
1323.678, 44420.00
1324.743, 44977.00
1325.807, 45105.00
1326.872, 44622.00
1327.936, 45002.00
1329.000, 44892.00
1330.064, 45249.00
1331.128, 45278.00
1332.191, 45469.00
1333.255, 45598.00
1334.318, 45554.00
1335.381, 45640.00
1336.444, 45567.00
1337.507, 45741.00
1338.569, 45749.00
1339.632, 45942.00
1340.694, 46096.00
1341.756, 45891.00
1342.818, 46096.00
1343.880, 46068.00
1344.941, 46307.00
1346.003, 46094.00
1347.064, 46684.00
1348.125, 46582.00
1349.186, 46491.00
1350.247, 46567.00
1351.308, 46508.00
1352.368, 46819.00
1353.428, 47042.00
1354.489, 46994.00
1355.549, 46788.00
1356.608, 47172.00
1357.668, 46892.00
1358.727, 47240.00
1359.787, 47527.00
1360.846, 47405.00
1361.905, 47625.00
1362.964, 47648.00
1364.022, 47720.00
1365.081, 47917.00
1366.139, 47781.00
1367.197, 47827.00
1368.255, 48045.00
1369.313, 48095.00
1370.371, 48048.00
1371.428, 48292.00
1372.486, 48459.00
1373.543, 48220.00
1374.600, 48356.00
1375.657, 48710.00
1376.713, 48545.00
1377.770, 48758.00
1378.826, 48696.00
1379.882, 48582.00
1380.938, 49017.00
1381.994, 48794.00
1383.050, 48988.00
1384.106, 49155.00
1385.161, 49392.00
1386.216, 49414.00
1387.271, 49326.00
1388.326, 49308.00
1389.381, 49552.00
1390.435, 49479.00
1391.490, 49630.00
1392.544, 49781.00
1393.598, 49821.00
1394.652, 49887.00
1395.705, 49765.00
1396.759, 50147.00
1397.812, 50101.00
1398.866, 50298.00
1399.919, 49978.00
1400.972, 50307.00
1402.024, 50305.00
1403.077, 50363.00
1404.129, 50555.00
1405.181, 50502.00
1406.233, 50875.00
1407.285, 50660.00
1408.337, 50747.00
1409.389, 51103.00
1410.440, 51026.00
1411.491, 51127.00
1412.542, 51302.00
1413.593, 51418.00
1414.644, 51246.00
1415.695, 51509.00
1416.745, 51653.00
1417.795, 51636.00
1418.845, 51862.00
1419.895, 51637.00
1420.945, 51791.00
1421.995, 51925.00
1423.044, 52161.00
1424.093, 52054.00
1425.142, 52075.00
1426.191, 52470.00
1427.240, 52192.00
1428.289, 52592.00
1429.337, 52345.00
1430.385, 52520.00
1431.433, 52521.00
1432.481, 52444.00
1433.529, 52546.00
1434.577, 52868.00
1435.624, 52901.00
1436.672, 52823.00
1437.719, 53156.00
1438.766, 53167.00
1439.812, 52991.00
1440.859, 53201.00
1441.905, 53107.00
1442.952, 53434.00
1443.998, 53706.00
1445.044, 53526.00
1446.090, 53773.00
1447.135, 53911.00
1448.181, 53909.00
1449.226, 53881.00
1450.271, 54014.00
1451.316, 53868.00
1452.361, 54205.00
1453.405, 54090.00
1454.450, 54486.00
1455.494, 54346.00
1456.538, 54490.00
1457.582, 54411.00
1458.626, 54572.00
1459.670, 54940.00
1460.713, 54578.00
1461.757, 54780.00
1462.800, 55141.00
1463.843, 54911.00
1464.886, 54837.00
1465.928, 54962.00
1466.971, 55055.00
1468.013, 55550.00
1469.055, 55711.00
1470.097, 55679.00
1471.139, 55656.00
1472.181, 55723.01
1473.222, 55742.79
1474.263, 55720.00
1475.305, 55898.00
1476.346, 55824.00
1477.386, 55959.00
1478.427, 56031.00
1479.468, 56220.00
1480.508, 56278.00
1481.548, 56446.00
1482.588, 55999.00
1483.628, 56416.00
1484.668, 56394.00
1485.707, 56673.00
1486.747, 56807.00
1487.786, 56837.00
1488.825, 56903.00
1489.864, 57117.00
1490.902, 57144.00
1491.941, 57094.00
1492.979, 57416.00
1494.017, 57238.00
1495.055, 57028.00
1496.093, 57597.00
1497.131, 57387.00
1498.168, 57564.00
1499.206, 57539.00
1500.243, 57896.00
1501.280, 57665.00
1502.317, 57916.00
1503.354, 58055.00
1504.390, 58086.00
1505.426, 58256.00
1506.463, 58389.00
1507.499, 58306.00
1508.535, 58290.00
1509.570, 58532.00
1510.606, 58692.00
1511.641, 58573.00
1512.676, 58588.00
1513.711, 58789.00
1514.746, 58327.00
1515.781, 58859.00
1516.816, 59216.00
1517.850, 58958.00
1518.884, 59005.00
1519.918, 59163.00
1520.952, 59600.00
1521.986, 59392.00
1523.019, 59414.00
1524.053, 59760.00
1525.086, 59474.00
1526.119, 59831.00
1527.152, 59697.00
1528.185, 59910.00
1529.217, 60183.00
1530.250, 59971.00
1531.282, 59956.00
1532.314, 60412.00
1533.346, 59873.00
1534.377, 60355.00
1535.409, 60168.00
1536.440, 60450.00
1537.472, 60647.00
1538.503, 60357.00
1539.534, 60913.00
1540.564, 60705.00
1541.595, 60813.00
1542.625, 60813.00
1543.656, 60893.00
1544.686, 61120.00
1545.716, 61112.00
1546.745, 60950.00
1547.775, 60982.00
1548.804, 61411.00
1549.834, 61033.00
1550.863, 61370.00
1551.892, 61310.00
1552.920, 61709.00
1553.949, 61489.00
1554.977, 61621.00
1556.006, 61737.00
1557.034, 61733.00
1558.062, 62275.00
1559.089, 62363.00
1560.117, 62457.00
1561.144, 62156.00
1562.172, 62264.00
1563.199, 62220.00
1564.226, 62420.00
1565.252, 62355.00
1566.279, 62408.00
1567.305, 62504.00
1568.332, 62915.00
1569.358, 62795.00
1570.384, 62908.00
1571.409, 63444.00
##END=



