##NAMES=Fluorapatite
##RRUFFID=R050274
##IDEAL CHEMISTRY=Ca_5_(PO_4_)_3_F
##LOCALITY=Minas Gerais, Brazil
##OWNER=RRUFF
##SOURCE=Marcus Origlieri
##DESCRIPTION=Aggregate of blue crystal fragments separated by veins of quartz
##STATUS=The identification of this mineral has been confirmed by X-ray diffraction and chemical analysis
##URL=rruff.info/R050274
##MEASURED CHEMISTRY=Ca_5.00_((P_0.97_Si_0.02_S_0.01_)O_4_)_3_(F_0.90_Cl_0.10_)
##PIN_ID=L01565
##ORIENTATION=Laser parallel to -a* (-1 0 0). Fiducial mark perpendicular to laser is parallel to -c [0 0 -1]
108.2800, 4226.000
109.5120, 4218.000
110.7440, 4223.000
111.9760, 4170.000
113.2080, 4341.000
114.4400, 4362.000
115.6710, 4378.000
116.9030, 4488.000
118.1340, 4480.000
119.3650, 4544.000
120.5960, 4411.000
121.8270, 4520.000
123.0580, 4670.000
124.2880, 4566.000
125.5190, 4695.000
126.7490, 4731.000
127.9790, 4869.000
129.2090, 5001.000
130.4390, 5023.000
131.6680, 5152.000
132.8980, 5251.000
134.1270, 5127.000
135.3560, 5256.000
136.5850, 5270.000
137.8140, 5301.000
139.0430, 5298.000
140.2710, 5338.000
141.5000, 5344.000
142.7280, 5340.000
143.9560, 5341.000
145.1840, 5335.983
146.4120, 5341.333
147.6390, 5333.000
148.8670, 5356.000
150.0940, 5379.000
151.3210, 5396.352
152.5490, 5451.000
153.7750, 5412.000
155.0020, 5432.000
156.2290, 5414.000
157.4550, 5351.000
158.6810, 5398.000
159.9080, 5414.000
161.1340, 5373.000
162.3590, 5354.000
163.5850, 5269.000
164.8110, 5358.000
166.0360, 5369.000
167.2610, 5295.000
168.4860, 5361.000
169.7110, 5271.000
170.9360, 5369.000
172.1610, 5294.000
173.3850, 5449.000
174.6100, 5400.000
175.8340, 5465.000
177.0580, 5258.000
178.2820, 5388.000
179.5050, 5410.000
180.7290, 5367.000
181.9520, 5445.000
183.1760, 5377.000
184.3990, 5421.000
185.6220, 5510.000
186.8450, 5519.000
188.0670, 5560.880
189.2900, 5450.000
190.5120, 5607.000
191.7340, 5539.000
192.9560, 5562.000
194.1780, 5650.000
195.4000, 5650.000
196.6220, 5713.000
197.8430, 5752.506
199.0640, 5616.000
200.2860, 5785.000
201.5070, 5788.000
202.7270, 5706.000
203.9480, 5784.000
205.1690, 5784.000
206.3890, 5825.000
207.6090, 5842.283
208.8290, 5730.000
210.0490, 5863.000
211.2690, 5816.000
212.4890, 5829.000
213.7080, 5934.000
214.9280, 5921.000
216.1470, 5842.000
217.3660, 5955.000
218.5850, 5978.000
219.8030, 5879.000
221.0220, 5991.000
222.2400, 6065.000
223.4590, 6081.000
224.6770, 6138.000
225.8950, 6159.834
227.1120, 6154.999
228.3300, 6174.000
229.5480, 6174.000
230.7650, 6131.000
231.9820, 6230.000
233.1990, 6263.000
234.4160, 6199.000
235.6330, 6211.000
236.8490, 6214.000
238.0660, 6248.000
239.2820, 6269.590
240.4980, 6323.000
241.7140, 6297.000
242.9300, 6299.000
244.1460, 6230.000
245.3610, 6293.000
246.5770, 6257.000
247.7920, 6360.000
249.0070, 6373.000
250.2220, 6321.000
251.4370, 6555.000
252.6510, 6425.000
253.8660, 6466.000
255.0800, 6483.000
256.2940, 6617.000
257.5080, 6633.000
258.7220, 6725.000
259.9360, 6853.000
261.1490, 6701.000
262.3630, 6754.000
263.5760, 6858.000
264.7890, 6923.000
266.0020, 6938.352
267.2150, 6809.000
268.4270, 6921.000
269.6400, 6863.000
270.8520, 6783.000
272.0640, 6817.000
273.2760, 6826.000
274.4880, 6837.000
275.7000, 6699.000
276.9120, 6814.000
278.1230, 6890.000
279.3340, 6760.000
280.5450, 6862.000
281.7560, 6862.000
282.9670, 6883.000
284.1780, 6858.000
285.3880, 6880.000
286.5980, 6933.000
287.8090, 6933.000
289.0190, 6952.000
290.2290, 6889.000
291.4380, 6970.000
292.6480, 6916.000
293.8570, 6982.000
295.0670, 6958.000
296.2760, 7046.000
297.4850, 7230.000
298.6930, 7079.000
299.9020, 7177.000
301.1110, 7252.000
302.3190, 7205.000
303.5270, 7154.000
304.7350, 7080.000
305.9430, 7224.000
307.1510, 7174.000
308.3580, 7201.000
309.5660, 7243.000
310.7730, 7197.000
311.9800, 7326.000
313.1870, 7198.000
314.3940, 7148.000
315.6010, 7359.000
316.8070, 7357.000
318.0130, 7362.000
319.2200, 7220.000
320.4260, 7254.000
321.6310, 7311.000
322.8370, 7279.000
324.0430, 7449.000
325.2480, 7260.000
326.4540, 7329.000
327.6590, 7354.000
328.8640, 7567.000
330.0680, 7447.000
331.2730, 7477.000
332.4780, 7472.000
333.6820, 7494.000
334.8860, 7488.000
336.0900, 7502.499
337.2940, 7514.000
338.4980, 7536.000
339.7010, 7553.099
340.9050, 7589.782
342.1080, 7597.000
343.3110, 7632.000
344.5140, 7626.000
345.7170, 7629.000
346.9200, 7671.000
348.1220, 7661.000
349.3240, 7687.000
350.5270, 7654.000
351.7290, 7715.000
352.9310, 7707.000
354.1320, 7608.000
355.3340, 7792.000
356.5350, 7857.000
357.7370, 7792.000
358.9380, 7791.000
360.1390, 7847.000
361.3400, 7874.000
362.5400, 7904.327
363.7410, 7922.600
364.9410, 7935.716
366.1410, 7940.000
367.3410, 7954.000
368.5410, 7963.000
369.7410, 7978.902
370.9400, 7972.000
372.1400, 8059.000
373.3390, 8100.000
374.5380, 8190.000
375.7370, 8048.000
376.9360, 8109.000
378.1350, 8235.000
379.3330, 8101.000
380.5310, 8187.000
381.7300, 8122.000
382.9280, 8151.492
384.1260, 8297.000
385.3230, 8225.000
386.5210, 8363.000
387.7180, 8395.000
388.9160, 8419.000
390.1130, 8398.000
391.3100, 8394.000
392.5060, 8466.000
393.7030, 8500.000
394.9000, 8451.000
396.0960, 8486.000
397.2920, 8611.000
398.4880, 8529.000
399.6840, 8641.000
400.8800, 8585.000
402.0750, 8706.000
403.2710, 8733.000
404.4660, 8749.000
405.6610, 8780.000
406.8560, 8804.000
408.0510, 8788.000
409.2450, 8749.000
410.4400, 8765.000
411.6340, 8927.000
412.8280, 9103.000
414.0220, 9054.000
415.2160, 9062.000
416.4100, 9167.000
417.6030, 9201.000
418.7970, 9437.000
419.9900, 9434.000
421.1830, 9552.000
422.3760, 9512.000
423.5690, 9597.245
424.7610, 9655.000
425.9540, 9720.000
427.1460, 9883.000
428.3380, 9946.000
429.5300, 10130.00
430.7220, 10183.00
431.9140, 10189.00
433.1050, 10306.00
434.2970, 10355.74
435.4880, 10381.00
436.6790, 10536.00
437.8700, 10622.00
439.0610, 10753.00
440.2510, 10706.00
441.4420, 10737.00
442.6320, 10878.00
443.8220, 10810.00
445.0120, 10926.00
446.2020, 10781.00
447.3910, 10740.00
448.5810, 10572.00
449.7700, 10544.00
450.9600, 10475.00
452.1490, 10457.00
453.3370, 10462.00
454.5260, 10507.00
455.7150, 10365.00
456.9030, 10380.00
458.0910, 10288.00
459.2800, 10251.00
460.4670, 10380.00
461.6550, 10310.00
462.8430, 10300.00
464.0300, 10325.00
465.2180, 10310.00
466.4050, 10377.00
467.5920, 10203.00
468.7790, 10320.00
469.9650, 10352.00
471.1520, 10287.00
472.3380, 10444.00
473.5250, 10555.00
474.7110, 10452.00
475.8970, 10369.00
477.0820, 10380.00
478.2680, 10531.00
479.4540, 10443.00
480.6390, 10490.00
481.8240, 10590.00
483.0090, 10607.00
484.1940, 10689.00
485.3780, 10691.00
486.5630, 10603.00
487.7470, 10773.00
488.9320, 10613.00
490.1160, 10738.00
491.3000, 10700.00
492.4830, 10719.00
493.6670, 10911.00
494.8500, 10822.00
496.0340, 10863.00
497.2170, 10917.00
498.4000, 10901.00
499.5820, 10967.04
500.7650, 10934.00
501.9480, 11061.00
503.1300, 11117.00
504.3120, 11169.00
505.4940, 11126.00
506.6760, 11117.00
507.8580, 11212.00
509.0390, 11200.72
510.2210, 11350.00
511.4020, 11263.00
512.5830, 11353.00
513.7640, 11358.00
514.9450, 11532.00
516.1250, 11524.00
517.3060, 11610.00
518.4860, 11520.00
519.6660, 11452.00
520.8460, 11675.00
522.0260, 11548.00
523.2060, 11633.00
524.3850, 11723.00
525.5650, 11736.00
526.7440, 11789.00
527.9230, 11785.00
529.1020, 11739.00
530.2810, 11819.00
531.4590, 11819.00
532.6380, 11896.00
533.8160, 12127.00
534.9940, 12077.00
536.1720, 12137.00
537.3500, 11976.00
538.5270, 12185.00
539.7050, 12197.00
540.8820, 12235.00
542.0590, 12422.00
543.2360, 12264.00
544.4130, 12318.00
545.5900, 12451.00
546.7660, 12551.00
547.9430, 12631.00
549.1190, 12693.80
550.2950, 12641.00
551.4710, 12715.00
552.6470, 12719.00
553.8220, 12602.00
554.9980, 12801.00
556.1730, 12737.00
557.3480, 12898.00
558.5230, 12815.00
559.6980, 12830.00
560.8730, 12961.00
562.0470, 13220.00
563.2220, 13188.00
564.3960, 13273.00
565.5700, 13341.00
566.7440, 13466.00
567.9170, 13667.00
569.0910, 13785.00
570.2640, 13883.00
571.4380, 14318.00
572.6110, 14680.00
573.7840, 14834.00
574.9570, 14898.00
576.1290, 14983.00
577.3020, 15019.00
578.4740, 14886.00
579.6460, 14909.00
580.8180, 14855.00
581.9900, 14678.00
583.1620, 14768.00
584.3330, 14737.00
585.5040, 14629.00
586.6760, 14629.00
587.8470, 14596.58
589.0180, 14653.00
590.1880, 14595.00
591.3590, 14593.00
592.5290, 14626.00
593.7000, 14547.00
594.8700, 14718.00
596.0400, 14817.00
597.2090, 14813.00
598.3790, 14977.00
599.5490, 15139.00
600.7180, 15278.00
601.8870, 15305.00
603.0560, 15517.00
604.2250, 15480.00
605.3940, 15592.00
606.5620, 15492.00
607.7300, 15507.00
608.8990, 15630.00
610.0670, 15583.00
611.2350, 15537.00
612.4020, 15422.00
613.5700, 15263.00
614.7370, 15379.00
615.9050, 15421.00
617.0720, 15476.00
618.2390, 15301.00
619.4060, 15383.00
620.5720, 15305.00
621.7390, 15345.00
622.9050, 15561.00
624.0710, 15232.00
625.2370, 15513.00
626.4030, 15563.00
627.5690, 15370.00
628.7340, 15664.00
629.9000, 15424.00
631.0650, 15704.00
632.2300, 15769.00
633.3950, 15677.00
634.5600, 15765.00
635.7240, 15916.00
636.8890, 15815.00
638.0530, 15999.00
639.2170, 15932.00
640.3810, 16055.00
641.5450, 16058.00
642.7080, 16132.00
643.8720, 16292.00
645.0350, 16177.00
646.1980, 16381.00
647.3610, 16385.00
648.5240, 16480.00
649.6870, 16684.00
650.8490, 16332.00
652.0120, 16393.00
653.1740, 16562.00
654.3360, 16650.00
655.4980, 16706.54
656.6600, 16788.27
657.8210, 16785.00
658.9830, 16854.00
660.1440, 16856.00
661.3050, 16845.00
662.4660, 16981.00
663.6270, 16983.80
664.7870, 17054.00
665.9480, 17118.00
667.1080, 17119.00
668.2680, 17235.00
669.4280, 17137.00
670.5880, 17222.00
671.7480, 17127.00
672.9070, 17387.00
674.0670, 17487.00
675.2260, 17432.00
676.3850, 17486.00
677.5440, 17397.00
678.7030, 17558.00
679.8610, 17459.00
681.0200, 17515.00
682.1780, 17589.00
683.3360, 17679.00
684.4940, 17671.00
685.6520, 17874.00
686.8090, 17795.00
687.9670, 17942.00
689.1240, 18013.00
690.2810, 17901.00
691.4380, 17967.00
692.5950, 18238.00
693.7520, 18084.00
694.9080, 18346.00
696.0650, 18260.00
697.2210, 18293.00
698.3770, 18452.00
699.5330, 18478.00
700.6880, 18381.00
701.8440, 18546.00
702.9990, 18586.00
704.1550, 18536.00
705.3100, 18725.00
706.4650, 18727.00
707.6190, 18834.00
708.7740, 18944.00
709.9290, 18861.00
711.0830, 18954.00
712.2370, 19145.00
713.3910, 18993.00
714.5450, 19059.00
715.6980, 19159.00
716.8520, 19066.00
718.0050, 19186.00
719.1580, 19418.00
720.3110, 19368.00
721.4640, 19410.00
722.6170, 19487.00
723.7700, 19729.00
724.9220, 19375.00
726.0740, 19540.00
727.2260, 19750.00
728.3780, 19709.00
729.5300, 19862.00
730.6810, 19846.00
731.8330, 19842.00
732.9840, 19989.00
734.1350, 19946.00
735.2860, 19866.00
736.4370, 20144.00
737.5880, 19925.00
738.7380, 20252.00
739.8880, 20299.00
741.0390, 20167.00
742.1890, 20359.00
743.3380, 20355.00
744.4880, 20664.00
745.6380, 20415.00
746.7870, 20613.00
747.9360, 20377.00
749.0850, 20565.00
750.2340, 20695.00
751.3830, 20601.00
752.5310, 20509.00
753.6800, 20669.00
754.8280, 20678.00
755.9760, 20951.00
757.1240, 20849.00
758.2720, 20854.00
759.4190, 21103.00
760.5670, 21205.00
761.7140, 21144.00
762.8610, 21195.00
764.0080, 21313.00
765.1550, 21391.00
766.3020, 21253.00
767.4480, 21340.00
768.5950, 21390.00
769.7410, 21482.00
770.8870, 21591.00
772.0330, 21691.00
773.1780, 21467.00
774.3240, 21746.00
775.4690, 21716.00
776.6140, 21772.00
777.7590, 21923.00
778.9040, 21888.00
780.0490, 22111.00
781.1940, 21947.00
782.3380, 21894.00
783.4820, 21884.00
784.6260, 22177.00
785.7700, 22166.00
786.9140, 22168.00
788.0580, 22107.00
789.2010, 22353.00
790.3450, 22388.00
791.4880, 22655.00
792.6310, 22506.00
793.7730, 22434.00
794.9160, 22561.00
796.0590, 22588.00
797.2010, 22643.00
798.3430, 22642.00
799.4850, 22780.00
800.6270, 22999.00
801.7690, 23099.00
802.9100, 23073.00
804.0520, 23126.00
805.1930, 23195.00
806.3340, 23147.00
807.4750, 23127.00
808.6160, 23163.00
809.7560, 23208.00
810.8970, 23269.02
812.0370, 23537.00
813.1770, 23449.00
814.3170, 23568.00
815.4570, 23677.00
816.5960, 23552.00
817.7360, 23681.00
818.8750, 23901.00
820.0140, 23836.00
821.1530, 23912.00
822.2920, 24019.00
823.4310, 23815.00
824.5690, 24156.00
825.7070, 24079.00
826.8460, 24242.00
827.9840, 24186.00
829.1220, 24150.00
830.2590, 24509.00
831.3970, 24437.00
832.5340, 24315.00
833.6710, 24140.00
834.8080, 24525.00
835.9450, 24550.00
837.0820, 24455.00
838.2190, 24862.00
839.3550, 24734.00
840.4910, 24660.00
841.6270, 24891.00
842.7630, 24823.00
843.8990, 24971.00
845.0350, 25042.00
846.1700, 25080.00
847.3060, 25108.00
848.4410, 25247.00
849.5760, 25343.00
850.7100, 25370.00
851.8450, 25300.00
852.9800, 25410.00
854.1140, 25400.00
855.2480, 25675.00
856.3820, 25469.00
857.5160, 25820.00
858.6500, 25703.00
859.7830, 25622.00
860.9170, 25852.00
862.0500, 25939.00
863.1830, 25902.00
864.3160, 26023.00
865.4480, 26161.00
866.5810, 25947.00
867.7130, 26442.00
868.8460, 26163.00
869.9780, 26351.00
871.1100, 26333.00
872.2410, 26230.00
873.3730, 26655.00
874.5050, 26514.00
875.6360, 26549.00
876.7670, 26753.00
877.8980, 26646.00
879.0290, 26538.00
880.1590, 26760.00
881.2900, 26706.00
882.4200, 26672.00
883.5500, 26931.00
884.6800, 27011.00
885.8100, 27133.00
886.9400, 27109.00
888.0690, 27197.77
889.1990, 27245.00
890.3280, 27328.00
891.4570, 27323.00
892.5860, 27472.00
893.7140, 27573.00
894.8430, 27653.00
895.9710, 27538.00
897.1000, 27555.00
898.2280, 27429.00
899.3560, 27620.00
900.4830, 27872.00
901.6110, 27916.00
902.7380, 28104.13
903.8660, 28210.45
904.9930, 28300.00
906.1200, 28379.00
907.2460, 28364.00
908.3730, 28379.00
909.5000, 28648.00
910.6260, 28377.00
911.7520, 28564.00
912.8780, 28451.00
914.0040, 28764.00
915.1290, 28776.00
916.2550, 28840.00
917.3800, 28886.00
918.5050, 29066.00
919.6300, 28999.00
920.7550, 29093.00
921.8800, 28965.00
923.0040, 28983.00
924.1290, 29281.00
925.2530, 29482.00
926.3770, 29327.00
927.5010, 29766.00
928.6250, 29531.00
929.7480, 29633.00
930.8720, 29642.00
931.9950, 29945.00
933.1180, 29895.00
934.2410, 30143.00
935.3640, 30380.00
936.4860, 30360.00
937.6090, 30486.00
938.7310, 30760.00
939.8530, 30785.00
940.9750, 31020.00
942.0970, 31194.00
943.2180, 31574.00
944.3400, 31649.00
945.4610, 32223.00
946.5820, 32471.00
947.7030, 33362.00
948.8240, 33587.00
949.9450, 34841.00
951.0650, 35996.00
952.1860, 37717.00
953.3060, 39644.00
954.4260, 42767.00
955.5460, 45980.00
956.6650, 49762.00
957.7850, 52477.00
958.9040, 54640.00
960.0230, 55319.00
961.1420, 54712.00
962.2610, 53499.00
963.3800, 51193.00
964.4990, 48678.00
965.6170, 45703.00
966.7350, 43011.00
967.8530, 40562.00
968.9710, 38454.00
970.0890, 37139.00
971.2070, 35545.00
972.3240, 34826.00
973.4410, 34350.00
974.5580, 34123.00
975.6750, 33655.00
976.7920, 33203.00
977.9090, 33006.00
979.0250, 33197.00
980.1410, 32882.00
981.2580, 32984.00
982.3740, 33133.00
983.4890, 33144.00
984.6050, 33207.64
985.7200, 33271.89
986.8360, 33235.00
987.9510, 33306.00
989.0660, 33308.00
990.1810, 33356.13
991.2950, 33446.00
992.4100, 33496.00
993.5240, 33649.00
994.6390, 33788.15
995.7530, 33656.00
996.8660, 33944.00
997.9800, 34019.00
999.0940, 33893.00
1000.207, 34283.00
1001.320, 34320.00
1002.433, 34303.00
1003.546, 34486.00
1004.659, 34828.00
1005.772, 34530.00
1006.884, 34733.00
1007.996, 34802.00
1009.108, 34721.00
1010.220, 34869.00
1011.332, 35032.00
1012.444, 35035.00
1013.555, 34841.00
1014.666, 34993.00
1015.777, 35004.00
1016.888, 35240.00
1017.999, 35285.00
1019.110, 35396.00
1020.220, 35447.00
1021.331, 35755.00
1022.441, 36038.00
1023.551, 36046.00
1024.661, 36331.00
1025.770, 36402.00
1026.880, 36355.00
1027.989, 36314.00
1029.098, 36902.00
1030.207, 36695.00
1031.316, 36760.00
1032.425, 36726.00
1033.533, 36633.00
1034.642, 36810.00
1035.750, 36421.00
1036.858, 36723.00
1037.966, 36507.00
1039.073, 36725.00
1040.181, 37095.00
1041.288, 36891.00
1042.396, 37028.00
1043.503, 37079.00
1044.610, 37388.00
1045.716, 37416.00
1046.823, 37411.00
1047.929, 37295.00
1049.036, 37429.00
1050.142, 37814.00
1051.248, 37700.00
1052.353, 38011.00
1053.459, 37959.00
1054.564, 38028.00
1055.670, 38294.00
1056.775, 38077.00
1057.880, 38141.00
1058.985, 38129.00
1060.089, 38281.00
1061.194, 38331.00
1062.298, 38305.00
1063.402, 38312.00
1064.506, 38335.00
1065.610, 38462.00
1066.713, 38455.00
1067.817, 38638.00
1068.920, 38780.00
1070.023, 38732.00
1071.126, 38831.00
1072.229, 38869.00
1073.332, 38930.00
1074.435, 39234.00
1075.537, 39268.00
1076.639, 39422.48
1077.741, 39263.00
1078.843, 39531.00
1079.945, 39553.00
1081.046, 39332.00
1082.148, 39542.00
1083.249, 39538.00
1084.350, 39602.00
1085.451, 39663.00
1086.551, 39768.00
1087.652, 39623.00
1088.752, 39760.00
1089.853, 39584.00
1090.953, 39694.90
1092.053, 39842.00
1093.152, 39862.00
1094.252, 40079.00
1095.351, 40164.00
1096.451, 40023.00
1097.550, 40326.00
1098.649, 40342.00
1099.748, 40362.00
1100.846, 40671.00
1101.945, 40656.00
1103.043, 40760.00
1104.141, 40782.00
1105.239, 40783.00
1106.337, 40904.00
1107.434, 40921.00
1108.532, 41022.00
1109.629, 41158.00
1110.726, 41297.00
1111.823, 41129.00
1112.920, 41243.00
1114.017, 41552.00
1115.113, 41389.00
1116.210, 41778.00
1117.306, 41883.00
1118.402, 41663.00
1119.498, 41469.00
1120.593, 42023.00
1121.689, 42442.00
1122.784, 42057.00
1123.879, 42386.00
1124.974, 42543.00
1126.069, 42086.00
1127.164, 42473.00
1128.259, 42373.00
1129.353, 42391.00
1130.447, 42718.00
1131.541, 42782.00
1132.635, 42665.00
1133.729, 42792.00
1134.822, 42811.00
1135.916, 42888.00
1137.009, 42949.00
1138.102, 42876.00
1139.195, 43101.00
1140.288, 43044.00
1141.380, 42926.00
1142.473, 43469.00
1143.565, 43392.00
1144.657, 43557.00
1145.749, 43439.00
1146.841, 43555.00
1147.932, 43706.00
1149.024, 43544.00
1150.115, 43649.00
1151.206, 43760.00
1152.297, 44173.00
1153.388, 43934.00
1154.479, 44116.00
1155.569, 44123.00
1156.659, 44084.00
1157.750, 44004.00
1158.839, 44535.00
1159.929, 44286.00
##END=



