##NAMES=Fluor-buergerite
##RRUFFID=R060132
##IDEAL CHEMISTRY=NaFe^3+^_3_Al_6_(Si_6_O_18_)(BO_3_)_3_O_3_F
##LOCALITY=20 km. south of San Luis Potasi, Mexico
##OWNER=RRUFF
##SOURCE=University of Arizona Mineral Museum
##DESCRIPTION=Brown short prismatic
##STATUS=The identification of this mineral has been confirmed by X-ray diffraction and chemical analysis
##URL=rruff.info/R060132
##MEASURED CHEMISTRY=(Na_0.87_Ca_0.03_[box]_0.10_)(Fe^3+^_0.82_Al_0.12_Mg_0.04_Ti_0.02_)_3_Al_6_(BO_3_)_3_(Si_0.98_Al_0.02_)_6_O_18_(O_0.66_F_0.19_(OH)_0.15_)_4_
##PIN_ID=L00828
##ORIENTATION=Laser parallel to -c* (0 0 -1). Fiducial mark perpendicular to laser is parallel to -a [-1 0 0]
131.6680, 10266.00
132.8980, 10126.00
134.1270, 10181.00
135.3560, 10155.00
136.5850, 10347.00
137.8140, 10402.00
139.0430, 10705.00
140.2710, 10676.00
141.5000, 10637.00
142.7280, 10557.00
143.9560, 10501.00
145.1840, 10643.00
146.4120, 10820.00
147.6390, 10907.00
148.8670, 10986.00
150.0940, 11198.00
151.3210, 11354.00
152.5490, 11628.00
153.7750, 11701.00
155.0020, 11747.00
156.2290, 11815.18
157.4550, 11655.00
158.6810, 11753.00
159.9080, 11707.00
161.1340, 11580.00
162.3590, 11612.00
163.5850, 11789.00
164.8110, 12027.00
166.0360, 12312.00
167.2610, 12166.00
168.4860, 12051.00
169.7110, 12269.00
170.9360, 12504.00
172.1610, 12514.00
173.3850, 12467.00
174.6100, 12458.00
175.8340, 12626.00
177.0580, 12733.00
178.2820, 12875.00
179.5050, 12934.00
180.7290, 12967.00
181.9520, 12976.00
183.1760, 13014.00
184.3990, 13138.00
185.6220, 13037.00
186.8450, 13367.00
188.0670, 13167.00
189.2900, 13345.00
190.5120, 13223.00
191.7340, 13550.00
192.9560, 13571.00
194.1780, 13483.00
195.4000, 13551.00
196.6220, 13527.00
197.8430, 13459.00
199.0640, 13580.00
200.2860, 13739.00
201.5070, 14066.00
202.7270, 14236.00
203.9480, 13850.00
205.1690, 13175.00
206.3890, 12530.00
207.6090, 12317.00
208.8290, 12433.00
210.0490, 12125.00
211.2690, 12089.00
212.4890, 12230.00
213.7080, 12263.00
214.9280, 12326.00
216.1470, 12275.00
217.3660, 12109.00
218.5850, 12165.00
219.8030, 12073.00
221.0220, 12135.00
222.2400, 12251.00
223.4590, 12190.00
224.6770, 12167.00
225.8950, 12213.00
227.1120, 12268.00
228.3300, 12316.00
229.5480, 12268.00
230.7650, 12365.00
231.9820, 12253.00
233.1990, 12379.00
234.4160, 12613.00
235.6330, 12554.00
236.8490, 12789.00
238.0660, 12765.00
239.2820, 12703.00
240.4980, 12934.00
241.7140, 13133.00
242.9300, 13259.00
244.1460, 13258.00
245.3610, 13477.00
246.5770, 13608.00
247.7920, 13625.00
249.0070, 13992.00
250.2220, 14093.00
251.4370, 14532.00
252.6510, 14723.00
253.8660, 15096.00
255.0800, 15291.00
256.2940, 15602.00
257.5080, 16327.00
258.7220, 16607.00
259.9360, 16815.01
261.1490, 17198.00
262.3630, 16977.00
263.5760, 16862.00
264.7890, 16774.00
266.0020, 16732.44
267.2150, 16985.00
268.4270, 16867.00
269.6400, 17064.00
270.8520, 17379.00
272.0640, 17351.00
273.2760, 17594.00
274.4880, 17693.00
275.7000, 17736.00
276.9120, 17767.00
278.1230, 17694.00
279.3340, 17516.00
280.5450, 17309.00
281.7560, 17022.00
282.9670, 16946.00
284.1780, 16680.00
285.3880, 16474.62
286.5980, 16329.53
287.8090, 16114.00
289.0190, 16081.00
290.2290, 16094.00
291.4380, 16184.00
292.6480, 16126.00
293.8570, 16099.00
295.0670, 16315.00
296.2760, 16220.00
297.4850, 16287.68
298.6930, 16243.00
299.9020, 16249.00
301.1110, 16272.00
302.3190, 16107.00
303.5270, 15911.00
304.7350, 16155.00
305.9430, 15814.00
307.1510, 15783.00
308.3580, 15549.00
309.5660, 15488.00
310.7730, 15543.00
311.9800, 15816.00
313.1870, 15702.00
314.3940, 15877.00
315.6010, 16020.94
316.8070, 15956.00
318.0130, 16228.00
319.2200, 16559.00
320.4260, 16459.00
321.6310, 16788.00
322.8370, 16831.00
324.0430, 17037.00
325.2480, 17156.00
326.4540, 17109.00
327.6590, 17392.00
328.8640, 17307.00
330.0680, 17364.00
331.2730, 17360.00
332.4780, 17076.00
333.6820, 17078.00
334.8860, 17012.00
336.0900, 16977.00
337.2940, 17114.00
338.4980, 16991.00
339.7010, 16937.00
340.9050, 16902.00
342.1080, 17167.00
343.3110, 17259.00
344.5140, 17485.00
345.7170, 17615.00
346.9200, 17612.00
348.1220, 17735.00
349.3240, 17732.00
350.5270, 18037.00
351.7290, 18019.00
352.9310, 17981.00
354.1320, 18177.00
355.3340, 17913.00
356.5350, 17961.00
357.7370, 17725.00
358.9380, 17583.00
360.1390, 17561.00
361.3400, 17571.00
362.5400, 17513.00
363.7410, 17533.00
364.9410, 17459.00
366.1410, 17418.00
367.3410, 17406.00
368.5410, 17327.00
369.7410, 17501.00
370.9400, 17222.00
372.1400, 17336.00
373.3390, 17168.00
374.5380, 17328.00
375.7370, 17079.00
376.9360, 17225.00
378.1350, 17103.00
379.3330, 16893.00
380.5310, 16931.00
381.7300, 17304.00
382.9280, 17143.00
384.1260, 17341.00
385.3230, 17239.00
386.5210, 17610.00
387.7180, 17853.00
388.9160, 17975.00
390.1130, 18231.00
391.3100, 18490.00
392.5060, 18664.00
393.7030, 19081.00
394.9000, 19283.00
396.0960, 19725.00
397.2920, 19835.00
398.4880, 20163.00
399.6840, 20714.00
400.8800, 20443.00
402.0750, 20652.00
403.2710, 20824.00
404.4660, 20651.00
405.6610, 20656.00
406.8560, 20709.00
408.0510, 20384.00
409.2450, 20066.00
410.4400, 19939.00
411.6340, 19505.00
412.8280, 19349.00
414.0220, 18833.00
415.2160, 18487.00
416.4100, 18156.00
417.6030, 17833.00
418.7970, 17520.00
419.9900, 17345.68
421.1830, 17084.00
422.3760, 17071.00
423.5690, 16944.00
424.7610, 16859.00
425.9540, 16765.00
427.1460, 16723.00
428.3380, 16948.00
429.5300, 16978.00
430.7220, 16984.00
431.9140, 16937.00
433.1050, 17002.00
434.2970, 17100.00
435.4880, 17467.00
436.6790, 17412.00
437.8700, 17600.00
439.0610, 17915.00
440.2510, 17851.00
441.4420, 18160.00
442.6320, 18223.00
443.8220, 18384.00
445.0120, 18738.00
446.2020, 18848.00
447.3910, 19113.00
448.5810, 19423.00
449.7700, 19521.00
450.9600, 19773.00
452.1490, 20045.00
453.3370, 20356.00
454.5260, 20403.00
455.7150, 20510.00
456.9030, 20769.00
458.0910, 20887.00
459.2800, 21051.00
460.4670, 20815.00
461.6550, 20793.00
462.8430, 20919.00
464.0300, 20841.00
465.2180, 20971.00
466.4050, 20752.00
467.5920, 20790.00
468.7790, 20519.00
469.9650, 20293.00
471.1520, 20457.00
472.3380, 20060.00
473.5250, 19724.00
474.7110, 19555.00
475.8970, 19231.00
477.0820, 19062.99
478.2680, 18947.00
479.4540, 18753.00
480.6390, 18673.00
481.8240, 18588.00
483.0090, 18586.00
484.1940, 18501.00
485.3780, 18175.00
486.5630, 18361.00
487.7470, 18355.00
488.9320, 17972.00
490.1160, 18189.00
491.3000, 18185.00
492.4830, 18189.00
493.6670, 18103.00
494.8500, 18040.00
496.0340, 18057.00
497.2170, 18082.00
498.4000, 18189.00
499.5820, 18207.00
500.7650, 18071.00
501.9480, 18303.00
503.1300, 18319.00
504.3120, 18574.00
505.4940, 19257.00
506.6760, 19576.00
507.8580, 19623.11
509.0390, 19189.00
510.2210, 19585.00
511.4020, 19641.00
512.5830, 19656.00
513.7640, 19689.00
514.9450, 19534.00
516.1250, 19467.00
517.3060, 19486.00
518.4860, 19017.00
519.6660, 19139.00
520.8460, 18734.00
522.0260, 18863.00
523.2060, 18724.00
524.3850, 18327.00
525.5650, 18251.00
526.7440, 18272.00
527.9230, 17956.00
529.1020, 18105.00
530.2810, 17904.00
531.4590, 18016.00
532.6380, 18056.00
533.8160, 18017.00
534.9940, 17960.00
536.1720, 18165.00
537.3500, 18162.00
538.5270, 18297.00
539.7050, 18420.00
540.8820, 18365.00
542.0590, 18576.00
543.2360, 18696.00
544.4130, 18834.00
545.5900, 19181.00
546.7660, 19175.00
547.9430, 19560.00
549.1190, 19673.00
550.2950, 19777.00
551.4710, 19820.00
552.6470, 20034.00
553.8220, 20225.00
554.9980, 20396.00
556.1730, 20401.00
557.3480, 20487.00
558.5230, 20610.00
559.6980, 20459.00
560.8730, 20242.00
562.0470, 20669.00
563.2220, 20607.00
564.3960, 20617.00
565.5700, 20753.00
566.7440, 20544.00
567.9170, 20638.00
569.0910, 20826.00
570.2640, 20809.00
571.4380, 21133.00
572.6110, 21236.00
573.7840, 21430.00
574.9570, 21601.00
576.1290, 21654.00
577.3020, 21781.00
578.4740, 22021.00
579.6460, 22090.00
580.8180, 22188.00
581.9900, 22434.00
583.1620, 22747.00
584.3330, 22926.00
585.5040, 23281.00
586.6760, 23574.00
587.8470, 23830.00
589.0180, 24202.00
590.1880, 24611.00
591.3590, 25009.33
592.5290, 25484.00
593.7000, 25974.00
594.8700, 26611.00
596.0400, 27230.00
597.2090, 27980.00
598.3790, 28779.00
599.5490, 29363.00
600.7180, 30608.00
601.8870, 31300.00
603.0560, 32437.00
604.2250, 33159.00
605.3940, 33971.00
606.5620, 34915.00
607.7300, 35789.00
608.8990, 36658.00
610.0670, 37453.00
611.2350, 38029.00
612.4020, 38755.57
613.5700, 39509.00
614.7370, 39966.00
615.9050, 40623.00
617.0720, 41202.00
618.2390, 41593.00
619.4060, 42453.00
620.5720, 43274.00
621.7390, 43992.00
622.9050, 45005.00
624.0710, 45480.00
625.2370, 46462.00
626.4030, 47321.00
627.5690, 48449.00
628.7340, 49413.00
629.9000, 50718.00
631.0650, 51808.00
632.2300, 53458.00
633.3950, 54659.00
634.5600, 55795.00
635.7240, 56519.00
636.8890, 57419.00
638.0530, 57613.00
639.2170, 56926.00
640.3810, 56544.00
641.5450, 55211.00
642.7080, 53661.00
643.8720, 52230.00
645.0350, 50181.00
646.1980, 48477.00
647.3610, 46544.00
648.5240, 45035.00
649.6870, 43735.00
650.8490, 42722.00
652.0120, 41453.00
653.1740, 40695.00
654.3360, 39721.00
655.4980, 38688.00
656.6600, 37612.00
657.8210, 36915.00
658.9830, 35733.00
660.1440, 34622.00
661.3050, 33318.00
662.4660, 32141.00
663.6270, 31146.00
664.7870, 29972.00
665.9480, 29082.00
667.1080, 28403.00
668.2680, 27723.00
669.4280, 26705.00
670.5880, 26177.00
671.7480, 25510.00
672.9070, 25038.00
674.0670, 24069.00
675.2260, 23391.00
676.3850, 22901.00
677.5440, 21986.00
678.7030, 21521.00
679.8610, 20729.00
681.0200, 20112.00
682.1780, 19734.00
683.3360, 19142.00
684.4940, 18912.00
685.6520, 18608.00
686.8090, 18126.00
687.9670, 18168.00
689.1240, 18176.00
690.2810, 17959.00
691.4380, 18050.00
692.5950, 17984.33
693.7520, 18024.00
694.9080, 17868.00
696.0650, 18216.00
697.2210, 17971.00
698.3770, 18167.00
699.5330, 18190.00
700.6880, 18418.00
701.8440, 18300.00
702.9990, 18478.00
704.1550, 18366.00
705.3100, 18484.00
706.4650, 18312.00
707.6190, 18322.00
708.7740, 18490.00
709.9290, 18434.00
711.0830, 18144.00
712.2370, 18365.00
713.3910, 18265.00
714.5450, 17982.00
715.6980, 17922.00
716.8520, 17953.00
718.0050, 17714.00
719.1580, 17508.00
720.3110, 17567.00
721.4640, 17447.00
722.6170, 17436.00
723.7700, 17481.00
724.9220, 17297.00
726.0740, 17324.00
727.2260, 17204.00
728.3780, 17176.00
729.5300, 17318.00
730.6810, 17252.00
731.8330, 17288.00
732.9840, 17191.00
734.1350, 17274.00
735.2860, 17182.00
736.4370, 17012.00
737.5880, 17217.00
738.7380, 16912.00
739.8880, 16899.00
741.0390, 16895.00
742.1890, 17047.00
743.3380, 16898.00
744.4880, 17277.00
745.6380, 17197.00
746.7870, 17304.00
747.9360, 17568.00
749.0850, 17785.00
750.2340, 17893.00
751.3830, 18127.00
752.5310, 18225.47
753.6800, 18260.00
754.8280, 18353.00
755.9760, 18303.83
757.1240, 18309.00
758.2720, 18173.00
759.4190, 18055.00
760.5670, 17959.00
761.7140, 17647.00
762.8610, 17310.00
764.0080, 17347.00
765.1550, 17140.00
766.3020, 17149.00
767.4480, 16858.00
768.5950, 16730.00
769.7410, 16690.00
770.8870, 16558.00
772.0330, 16446.53
773.1780, 16583.00
774.3240, 16267.00
775.4690, 16378.00
776.6140, 16460.00
777.7590, 16617.00
778.9040, 16530.00
780.0490, 16815.00
781.1940, 17213.00
782.3380, 17280.00
783.4820, 17798.00
784.6260, 17866.00
785.7700, 18138.00
786.9140, 18369.00
788.0580, 18425.00
789.2010, 18722.00
790.3450, 18721.00
791.4880, 18559.00
792.6310, 18290.00
793.7730, 17939.00
794.9160, 17512.00
796.0590, 17173.00
797.2010, 16876.65
798.3430, 16514.00
799.4850, 16324.00
800.6270, 16210.00
801.7690, 15931.00
802.9100, 15974.00
804.0520, 15917.00
805.1930, 15892.00
806.3340, 15844.00
807.4750, 15953.00
808.6160, 15731.00
809.7560, 15818.00
810.8970, 15622.00
812.0370, 15547.00
813.1770, 15525.00
814.3170, 15385.00
815.4570, 15319.00
816.5960, 15287.00
817.7360, 15268.00
818.8750, 15119.00
820.0140, 15109.00
821.1530, 15122.00
822.2920, 14913.00
823.4310, 14808.00
824.5690, 14887.00
825.7070, 14915.00
826.8460, 14858.00
827.9840, 14824.00
829.1220, 14914.00
830.2590, 14776.00
831.3970, 14714.00
832.5340, 14809.00
833.6710, 14794.00
834.8080, 14713.00
835.9450, 14859.00
837.0820, 14745.00
838.2190, 14706.00
839.3550, 14770.00
840.4910, 14744.00
841.6270, 14786.00
842.7630, 14780.00
843.8990, 14714.00
845.0350, 14717.00
846.1700, 14786.00
847.3060, 14648.00
848.4410, 14817.00
849.5760, 14825.00
850.7100, 14816.00
851.8450, 14712.00
852.9800, 14774.00
854.1140, 14722.00
855.2480, 14927.00
856.3820, 14848.00
857.5160, 14668.00
858.6500, 14977.00
859.7830, 14795.00
860.9170, 14828.19
862.0500, 14829.13
863.1830, 14840.00
864.3160, 14836.00
865.4480, 14956.00
866.5810, 15246.00
867.7130, 15147.33
868.8460, 15205.00
869.9780, 14988.00
871.1100, 15075.00
872.2410, 14758.00
873.3730, 14821.00
874.5050, 15061.00
875.6360, 15033.00
876.7670, 14968.00
877.8980, 14956.00
879.0290, 14978.00
880.1590, 15018.00
881.2900, 15170.00
882.4200, 15120.00
883.5500, 15082.00
884.6800, 15248.00
885.8100, 15063.00
886.9400, 15066.00
888.0690, 15052.00
889.1990, 15040.00
890.3280, 15171.00
891.4570, 15187.00
892.5860, 15241.00
893.7140, 15196.00
894.8430, 15223.00
895.9710, 15230.00
897.1000, 15265.00
898.2280, 15293.13
899.3560, 15329.59
900.4830, 15354.00
901.6110, 15424.00
902.7380, 15440.00
903.8660, 15501.00
904.9930, 15372.00
906.1200, 15619.00
907.2460, 15599.00
908.3730, 15596.45
909.5000, 15833.00
910.6260, 15631.00
911.7520, 15685.00
912.8780, 15814.00
914.0040, 15643.00
915.1290, 15718.00
916.2550, 15821.00
917.3800, 15890.00
918.5050, 15785.00
919.6300, 15987.00
920.7550, 15882.00
921.8800, 15965.00
923.0040, 15944.00
924.1290, 16122.00
925.2530, 16035.00
926.3770, 15966.00
927.5010, 16053.00
928.6250, 16004.00
929.7480, 16153.00
930.8720, 16301.00
931.9950, 16224.00
933.1180, 16389.00
934.2410, 16265.00
935.3640, 16466.00
936.4860, 16475.00
937.6090, 16636.00
938.7310, 16539.00
939.8530, 16528.00
940.9750, 16580.00
942.0970, 16721.00
943.2180, 16597.00
944.3400, 16777.00
945.4610, 16779.00
946.5820, 16934.00
947.7030, 16864.00
948.8240, 16921.00
949.9450, 16859.00
951.0650, 17054.00
952.1860, 17080.00
953.3060, 17154.00
954.4260, 17164.00
955.5460, 17197.00
956.6650, 17343.00
957.7850, 17304.00
958.9040, 17326.00
960.0230, 17507.00
961.1420, 17403.00
962.2610, 17585.00
963.3800, 17611.00
964.4990, 17716.00
965.6170, 17641.00
966.7350, 17762.00
967.8530, 17751.00
968.9710, 17681.00
970.0890, 17829.00
971.2070, 17894.00
972.3240, 17898.00
973.4410, 18043.00
974.5580, 18076.00
975.6750, 18019.00
976.7920, 18119.00
977.9090, 18181.00
979.0250, 17969.00
980.1410, 18098.00
981.2580, 18157.00
982.3740, 18285.00
983.4890, 18242.00
984.6050, 18330.00
985.7200, 18427.00
986.8360, 18345.00
987.9510, 18512.00
989.0660, 18412.00
990.1810, 18366.00
991.2950, 18232.00
992.4100, 18474.00
993.5240, 18412.00
994.6390, 18426.13
995.7530, 18704.00
996.8660, 18441.00
997.9800, 18412.00
999.0940, 18457.00
1000.207, 18420.00
1001.320, 18612.00
1002.433, 18524.00
1003.546, 18553.00
1004.659, 18759.00
1005.772, 18812.00
1006.884, 18765.00
1007.996, 18888.00
1009.108, 19041.00
1010.220, 18961.00
1011.332, 19216.00
1012.444, 19194.00
1013.555, 19137.00
1014.666, 19323.00
1015.777, 19212.00
1016.888, 19275.00
1017.999, 19466.00
1019.110, 19465.00
1020.220, 19342.00
1021.331, 19244.00
1022.441, 19195.00
1023.551, 19232.00
1024.661, 19181.00
1025.770, 19175.00
1026.880, 19082.00
1027.989, 19089.00
1029.098, 19001.00
1030.207, 19121.00
1031.316, 18875.00
1032.425, 18533.00
1033.533, 18769.00
1034.642, 18578.00
1035.750, 18615.00
1036.858, 18487.00
1037.966, 18541.00
1039.073, 18524.00
1040.181, 18579.00
1041.288, 18406.00
1042.396, 18482.00
1043.503, 18471.00
1044.610, 18398.97
1045.716, 18536.00
1046.823, 18466.00
1047.929, 18318.00
1049.036, 18657.00
1050.142, 18629.00
1051.248, 18800.00
1052.353, 18818.00
1053.459, 18788.00
1054.564, 19077.00
1055.670, 19240.00
1056.775, 19231.00
1057.880, 19463.00
1058.985, 19682.00
1060.089, 19615.00
1061.194, 19570.00
1062.298, 19600.00
1063.402, 19529.27
1064.506, 19706.00
1065.610, 19523.00
1066.713, 19437.00
1067.817, 19583.00
1068.920, 19271.00
1070.023, 19268.00
1071.126, 19205.00
1072.229, 19084.00
1073.332, 19130.00
1074.435, 18842.00
1075.537, 18700.00
1076.639, 18684.00
1077.741, 18547.00
1078.843, 18488.88
1079.945, 18674.00
1081.046, 18414.00
1082.148, 18409.00
1083.249, 18500.00
1084.350, 18394.00
1085.451, 18294.00
1086.551, 18541.00
1087.652, 18402.00
1088.752, 18261.00
1089.853, 18495.00
1090.953, 18457.00
1092.053, 18281.00
1093.152, 18457.00
1094.252, 18368.96
1095.351, 18393.00
1096.451, 18383.00
1097.550, 18443.00
1098.649, 18453.00
1099.748, 18238.00
1100.846, 18211.00
1101.945, 18033.00
1103.043, 18238.00
1104.141, 18150.00
1105.239, 18164.00
1106.337, 18026.00
1107.434, 18096.00
1108.532, 18085.00
1109.629, 18238.00
1110.726, 18071.00
1111.823, 17963.00
1112.920, 18126.00
1114.017, 18082.00
1115.113, 17984.00
1116.210, 18023.00
1117.306, 17974.00
1118.402, 18060.00
1119.498, 18095.00
1120.593, 18052.00
1121.689, 17909.00
1122.784, 17933.00
1123.879, 17963.00
1124.974, 17681.00
1126.069, 17638.00
1127.164, 17592.00
1128.259, 17716.00
1129.353, 17636.00
1130.447, 17535.00
1131.541, 17574.00
1132.635, 17527.00
1133.729, 17467.00
1134.822, 17298.00
1135.916, 17555.00
1137.009, 17305.00
1138.102, 17519.00
1139.195, 17430.00
1140.288, 17392.00
1141.380, 17389.00
1142.473, 17260.00
1143.565, 17323.00
1144.657, 17323.00
1145.749, 17325.00
1146.841, 17397.00
1147.932, 17420.00
1149.024, 17472.00
1150.115, 17242.00
1151.206, 17352.00
1152.297, 17405.00
1153.388, 17369.00
1154.479, 17537.00
1155.569, 17400.00
1156.659, 17447.00
1157.750, 17287.00
1158.839, 17401.00
1159.929, 17455.00
1161.019, 17461.00
1162.108, 17414.00
1163.198, 17434.00
1164.287, 17527.00
1165.376, 17413.00
1166.465, 17411.00
1167.553, 17468.00
1168.642, 17407.07
1169.730, 17302.00
1170.818, 17419.00
1171.906, 17422.00
1172.994, 17494.00
1174.082, 17392.00
1175.170, 17506.00
1176.257, 17344.00
1177.344, 17470.00
1178.431, 17450.00
1179.518, 17626.00
1180.605, 17418.00
1181.691, 17559.00
1182.778, 17478.00
1183.864, 17690.00
1184.950, 17655.00
1186.036, 17693.00
1187.122, 17669.00
1188.207, 17617.00
1189.292, 17690.00
1190.378, 17626.00
1191.463, 17598.00
1192.548, 17666.00
1193.632, 17635.00
1194.717, 17690.00
1195.801, 17621.00
1196.886, 17812.00
1197.970, 17848.00
1199.054, 17841.00
1200.137, 17864.00
1201.221, 17833.00
1202.305, 17830.00
1203.388, 17917.00
1204.471, 18064.00
1205.554, 17862.00
1206.637, 17843.00
1207.719, 18040.00
1208.802, 17890.00
1209.884, 17931.00
1210.966, 18043.00
1212.048, 17985.00
1213.130, 18057.00
1214.212, 18075.00
1215.293, 18198.00
1216.374, 18196.19
1217.456, 18233.00
1218.536, 18274.00
1219.617, 18283.00
1220.698, 18417.00
1221.778, 18440.00
1222.859, 18404.00
1223.939, 18615.00
1225.019, 18633.00
1226.099, 18622.00
1227.178, 18656.00
1228.258, 18755.00
1229.337, 18859.00
1230.417, 18872.00
1231.496, 19147.00
1232.574, 19191.00
1233.653, 19548.00
1234.732, 19629.00
1235.810, 19880.00
1236.888, 20058.00
1237.966, 20107.00
1239.044, 20387.00
1240.122, 20514.00
1241.199, 20787.00
1242.277, 20965.00
1243.354, 20932.00
1244.431, 21104.00
1245.508, 21069.00
1246.585, 21249.00
1247.661, 21370.00
1248.738, 21285.26
1249.814, 21278.86
1250.890, 21238.00
1251.966, 21097.00
1253.042, 21259.00
1254.117, 21309.00
1255.193, 21170.00
1256.268, 21225.00
1257.343, 21301.00
1258.418, 21355.00
1259.493, 21552.00
1260.567, 21472.00
1261.642, 21600.00
1262.716, 21546.00
1263.790, 21602.00
1264.864, 21532.00
1265.938, 21681.00
1267.011, 21905.00
1268.085, 21636.00
1269.158, 21704.00
1270.231, 21506.00
1271.304, 21368.00
1272.377, 21389.56
1273.450, 21300.00
1274.522, 21317.00
1275.594, 21376.00
1276.666, 21264.00
1277.738, 21202.00
1278.810, 21289.00
1279.882, 21299.00
1280.953, 21397.00
1282.025, 21486.00
1283.096, 21665.00
1284.167, 21802.00
1285.238, 21966.00
1286.308, 22043.00
1287.379, 22024.00
1288.449, 22210.00
1289.519, 22365.00
1290.589, 22243.00
1291.659, 22201.00
1292.729, 22216.00
1293.798, 22015.00
1294.868, 21992.00
1295.937, 21982.00
1297.006, 22016.00
1298.075, 21748.00
1299.143, 21687.00
1300.212, 21568.00
1301.280, 21453.00
1302.348, 21386.00
1303.416, 21391.47
1304.484, 21520.00
1305.552, 21446.00
1306.620, 21575.00
1307.687, 21556.00
1308.754, 21677.00
1309.821, 21598.00
1310.888, 21625.00
1311.955, 21719.00
1313.021, 21703.00
1314.088, 21806.00
1315.154, 21626.00
1316.220, 21726.00
1317.286, 21574.00
1318.352, 21501.00
1319.417, 21670.00
1320.483, 21309.00
1321.548, 21453.00
1322.613, 21576.00
1323.678, 21296.00
1324.743, 21394.00
1325.807, 21226.00
1326.872, 21179.00
1327.936, 21342.00
1329.000, 21204.00
1330.064, 21312.00
1331.128, 21453.00
1332.191, 21409.00
1333.255, 21259.00
1334.318, 21157.00
1335.381, 21263.00
1336.444, 21252.00
1337.507, 21022.00
1338.569, 21290.00
1339.632, 21024.00
1340.694, 21220.00
1341.756, 21195.00
1342.818, 21039.00
1343.880, 21121.00
1344.941, 21124.00
1346.003, 21252.00
1347.064, 21183.00
1348.125, 21248.00
1349.186, 21125.00
1350.247, 20985.00
1351.308, 21228.00
1352.368, 21258.00
1353.428, 21169.00
1354.489, 21069.00
1355.549, 20970.00
1356.608, 21031.00
1357.668, 20819.00
1358.727, 20843.00
1359.787, 20770.29
1360.846, 20918.00
1361.905, 20727.00
1362.964, 20701.00
1364.022, 20841.00
1365.081, 20751.00
1366.139, 20640.00
1367.197, 20827.00
1368.255, 20540.00
1369.313, 20390.00
1370.371, 20737.00
1371.428, 20411.00
1372.486, 20528.00
1373.543, 20437.00
1374.600, 20415.00
1375.657, 20375.58
1376.713, 20297.50
1377.770, 20260.00
1378.826, 20158.00
1379.882, 20179.00
1380.938, 20112.00
1381.994, 19878.00
1383.050, 20081.00
1384.106, 20008.00
1385.161, 19959.53
1386.216, 20081.00
1387.271, 19935.00
1388.326, 19938.00
1389.381, 20034.00
1390.435, 19942.00
1391.490, 19869.00
1392.544, 19914.00
1393.598, 20075.00
1394.652, 20002.00
1395.705, 20063.00
1396.759, 20212.00
1397.812, 20066.00
1398.866, 20062.00
1399.919, 20075.00
1400.972, 19964.00
1402.024, 20084.00
1403.077, 20051.00
1404.129, 19955.00
1405.181, 19950.00
1406.233, 20015.00
1407.285, 20069.00
1408.337, 20030.41
1409.389, 20195.00
1410.440, 19983.00
1411.491, 19990.00
1412.542, 20007.00
1413.593, 19632.00
1414.644, 19771.00
1415.695, 19793.00
1416.745, 19859.00
1417.795, 19749.00
1418.845, 19886.00
1419.895, 19749.00
1420.945, 19638.00
1421.995, 19758.00
1423.044, 19771.00
1424.093, 19817.00
1425.142, 19868.00
1426.191, 19876.72
1427.240, 19688.00
1428.289, 19836.00
1429.337, 19755.00
1430.385, 19567.00
1431.433, 19731.00
1432.481, 19739.00
1433.529, 19723.00
1434.577, 19662.00
1435.624, 19909.00
1436.672, 19730.00
1437.719, 19869.00
1438.766, 19806.00
1439.812, 19717.00
1440.859, 19701.00
1441.905, 19718.00
1442.952, 19815.00
1443.998, 19945.00
1445.044, 19862.00
1446.090, 20095.00
1447.135, 19802.00
1448.181, 19621.00
1449.226, 19859.00
1450.271, 19897.00
1451.316, 19926.00
1452.361, 19883.00
1453.405, 19685.00
1454.450, 19677.00
1455.494, 19839.00
1456.538, 19718.00
1457.582, 19807.00
1458.626, 19815.00
1459.670, 19831.00
1460.713, 19930.00
1461.757, 19912.00
1462.800, 19955.34
1463.843, 19979.54
1464.886, 20015.00
1465.928, 19988.00
1466.971, 20053.00
1468.013, 20023.00
1469.055, 20152.00
1470.097, 20048.00
1471.139, 20222.00
1472.181, 20033.00
1473.222, 20104.00
1474.263, 20017.00
1475.305, 19928.00
1476.346, 19928.00
1477.386, 20075.00
1478.427, 19961.00
1479.468, 20049.00
1480.508, 20254.00
1481.548, 20058.00
1482.588, 19962.00
1483.628, 20099.00
1484.668, 20106.00
1485.707, 20250.00
1486.747, 20116.00
1487.786, 20002.00
1488.825, 20131.00
1489.864, 20192.00
1490.902, 20136.00
1491.941, 20280.00
1492.979, 20244.00
1494.017, 20268.00
1495.055, 20309.00
1496.093, 20212.00
1497.131, 20183.00
1498.168, 20308.00
1499.206, 20280.00
1500.243, 20460.00
1501.280, 20039.00
1502.317, 20115.00
1503.354, 20165.00
1504.390, 20268.00
1505.426, 20405.00
1506.463, 20351.00
1507.499, 20216.00
1508.535, 20309.03
1509.570, 20238.27
1510.606, 20389.00
1511.641, 20216.00
1512.676, 20334.00
1513.711, 20308.00
1514.746, 20442.00
1515.781, 20404.00
1516.816, 20579.00
1517.850, 20492.00
1518.884, 20538.00
1519.918, 20478.00
1520.952, 20418.00
1521.986, 20572.00
1523.019, 20671.00
1524.053, 20601.00
1525.086, 20519.00
1526.119, 20518.00
1527.152, 20577.00
1528.185, 20565.00
1529.217, 20432.00
1530.250, 20686.00
1531.282, 20505.00
1532.314, 20763.00
1533.346, 20701.00
1534.377, 20642.00
1535.409, 20669.00
1536.440, 20743.00
1537.472, 20760.00
1538.503, 20664.00
1539.534, 20698.00
1540.564, 20497.00
1541.595, 20740.00
1542.625, 20759.00
1543.656, 20597.00
1544.686, 20603.00
1545.716, 20899.00
1546.745, 20789.12
1547.775, 21038.00
1548.804, 20881.00
1549.834, 20912.00
1550.863, 20988.00
1551.892, 20965.00
1552.920, 21126.00
1553.949, 21096.00
1554.977, 21290.00
1556.006, 21230.80
1557.034, 20970.00
1558.062, 21125.00
1559.089, 21028.00
1560.117, 20931.00
1561.144, 21145.00
1562.172, 21168.00
1563.199, 21060.00
1564.226, 20993.00
1565.252, 21155.00
1566.279, 21139.00
1567.305, 21237.00
1568.332, 21125.00
1569.358, 21164.00
1570.384, 21271.00
##END=



