##NAMES=Fluor-buergerite
##RRUFFID=R060132
##IDEAL CHEMISTRY=NaFe^3+^_3_Al_6_(Si_6_O_18_)(BO_3_)_3_O_3_F
##LOCALITY=20 km. south of San Luis Potasi, Mexico
##OWNER=RRUFF
##SOURCE=University of Arizona Mineral Museum
##DESCRIPTION=Brown short prismatic
##STATUS=The identification of this mineral has been confirmed by X-ray diffraction and chemical analysis
##URL=rruff.info/R060132
##MEASURED CHEMISTRY=(Na_0.87_Ca_0.03_[box]_0.10_)(Fe^3+^_0.82_Al_0.12_Mg_0.04_Ti_0.02_)_3_Al_6_(BO_3_)_3_(Si_0.98_Al_0.02_)_6_O_18_(O_0.66_F_0.19_(OH)_0.15_)_4_
##PIN_ID=L01714
##ORIENTATION=Laser parallel to a* (1 0 0). Fiducial mark perpendicular to laser is parallel to -c [0 0 -1]
120.5960, 9925.000
121.8270, 10083.00
123.0580, 10035.20
124.2880, 10143.32
125.5190, 10237.00
126.7490, 10365.00
127.9790, 10537.00
129.2090, 10731.00
130.4390, 10920.00
131.6680, 11175.00
132.8980, 11156.00
134.1270, 11286.00
135.3560, 11444.00
136.5850, 11754.00
137.8140, 12170.00
139.0430, 12450.05
140.2710, 13172.00
141.5000, 13312.00
142.7280, 13802.00
143.9560, 14521.00
145.1840, 15048.00
146.4120, 15751.00
147.6390, 16456.00
148.8670, 16766.00
150.0940, 17271.00
151.3210, 17445.00
152.5490, 17644.00
153.7750, 17145.00
155.0020, 16473.00
156.2290, 15576.00
157.4550, 14863.00
158.6810, 14066.00
159.9080, 13456.00
161.1340, 13253.00
162.3590, 12987.00
163.5850, 12723.00
164.8110, 12705.00
166.0360, 12650.00
167.2610, 12409.00
168.4860, 12380.00
169.7110, 12568.00
170.9360, 12634.00
172.1610, 12680.00
173.3850, 12511.00
174.6100, 12425.00
175.8340, 12511.00
177.0580, 12685.00
178.2820, 12611.00
179.5050, 12763.00
180.7290, 12813.00
181.9520, 12926.00
183.1760, 13016.00
184.3990, 13180.00
185.6220, 13364.00
186.8450, 13520.00
188.0670, 13509.00
189.2900, 13815.00
190.5120, 14079.00
191.7340, 14055.00
192.9560, 14154.00
194.1780, 14424.00
195.4000, 14620.00
196.6220, 14965.00
197.8430, 15061.00
199.0640, 15391.71
200.2860, 15528.00
201.5070, 16034.00
202.7270, 16429.00
203.9480, 16908.00
205.1690, 16223.00
206.3890, 16065.00
207.6090, 16335.00
208.8290, 16727.00
210.0490, 17201.00
211.2690, 17698.61
212.4890, 18197.00
213.7080, 18946.00
214.9280, 19762.00
216.1470, 20584.00
217.3660, 21743.00
218.5850, 22958.00
219.8030, 24096.00
221.0220, 26203.00
222.2400, 27733.00
223.4590, 29633.00
224.6770, 31279.00
225.8950, 33537.00
227.1120, 35234.00
228.3300, 37173.00
229.5480, 38165.00
230.7650, 38753.00
231.9820, 38504.00
233.1990, 37920.00
234.4160, 37014.00
235.6330, 35471.00
236.8490, 34258.00
238.0660, 32901.00
239.2820, 31359.00
240.4980, 30091.00
241.7140, 28940.00
242.9300, 27826.00
244.1460, 26914.63
245.3610, 26008.00
246.5770, 25370.00
247.7920, 24795.00
249.0070, 24284.00
250.2220, 24064.00
251.4370, 23958.00
252.6510, 23509.00
253.8660, 23578.00
255.0800, 23106.00
256.2940, 23057.00
257.5080, 22768.00
258.7220, 22553.00
259.9360, 22103.13
261.1490, 21913.00
262.3630, 21081.00
263.5760, 20507.00
264.7890, 20042.00
266.0020, 19482.00
267.2150, 18973.00
268.4270, 18921.00
269.6400, 18701.00
270.8520, 18558.00
272.0640, 18420.66
273.2760, 18245.06
274.4880, 18084.00
275.7000, 17902.37
276.9120, 17700.86
278.1230, 17510.31
279.3340, 17295.00
280.5450, 17070.00
281.7560, 17112.00
282.9670, 17119.00
284.1780, 17142.00
285.3880, 17462.00
286.5980, 17579.00
287.8090, 17628.00
289.0190, 18142.00
290.2290, 18316.00
291.4380, 18926.00
292.6480, 19203.00
293.8570, 19580.00
295.0670, 20164.00
296.2760, 20321.00
297.4850, 20269.00
298.6930, 20173.00
299.9020, 19892.00
301.1110, 19245.00
302.3190, 18690.00
303.5270, 18085.00
304.7350, 17624.00
305.9430, 16985.00
307.1510, 16673.00
308.3580, 16223.00
309.5660, 16239.00
310.7730, 16058.00
311.9800, 15927.00
313.1870, 16161.00
314.3940, 16260.00
315.6010, 16557.00
316.8070, 16574.00
318.0130, 16830.00
319.2200, 17091.00
320.4260, 17326.00
321.6310, 17716.00
322.8370, 17955.00
324.0430, 18198.00
325.2480, 18467.00
326.4540, 18682.90
327.6590, 18807.00
328.8640, 19068.00
330.0680, 19193.00
331.2730, 19245.00
332.4780, 19292.00
333.6820, 19491.00
334.8860, 19658.90
336.0900, 19881.13
337.2940, 20190.00
338.4980, 20458.00
339.7010, 20845.00
340.9050, 21247.00
342.1080, 21664.00
343.3110, 21938.00
344.5140, 22149.00
345.7170, 22711.00
346.9200, 23275.00
348.1220, 23966.00
349.3240, 24284.00
350.5270, 24759.00
351.7290, 25320.00
352.9310, 25826.00
354.1320, 26510.00
355.3340, 27349.00
356.5350, 27870.00
357.7370, 28652.00
358.9380, 29669.00
360.1390, 30458.00
361.3400, 31437.00
362.5400, 32441.00
363.7410, 33572.00
364.9410, 35008.00
366.1410, 36153.00
367.3410, 37267.00
368.5410, 38094.00
369.7410, 38745.00
370.9400, 39080.00
372.1400, 38926.00
373.3390, 38237.00
374.5380, 37365.00
375.7370, 35951.00
376.9360, 34404.00
378.1350, 33290.00
379.3330, 31779.00
380.5310, 30738.00
381.7300, 29324.00
382.9280, 28237.00
384.1260, 27575.00
385.3230, 26766.00
386.5210, 26323.00
387.7180, 25882.00
388.9160, 25287.00
390.1130, 25202.00
391.3100, 24968.00
392.5060, 24657.00
393.7030, 24465.00
394.9000, 24406.00
396.0960, 24272.00
397.2920, 24022.00
398.4880, 24055.00
399.6840, 23984.00
400.8800, 23665.00
402.0750, 23230.00
403.2710, 23152.00
404.4660, 22873.00
405.6610, 22472.00
406.8560, 22127.00
408.0510, 21902.00
409.2450, 21396.00
410.4400, 20860.00
411.6340, 20505.00
412.8280, 20293.00
414.0220, 19829.00
415.2160, 19502.00
416.4100, 18944.00
417.6030, 18898.00
418.7970, 18627.00
419.9900, 18562.00
421.1830, 18299.00
422.3760, 18135.00
423.5690, 18057.00
424.7610, 17862.00
425.9540, 17982.00
427.1460, 17704.00
428.3380, 17924.00
429.5300, 17832.00
430.7220, 17803.00
431.9140, 17914.00
433.1050, 17963.00
434.2970, 17776.00
435.4880, 17749.00
436.6790, 17940.00
437.8700, 18142.00
439.0610, 18035.00
440.2510, 18211.00
441.4420, 18161.00
442.6320, 18247.00
443.8220, 18342.00
445.0120, 18262.00
446.2020, 18503.00
447.3910, 18533.00
448.5810, 18580.00
449.7700, 18543.00
450.9600, 18550.17
452.1490, 18617.00
453.3370, 18496.00
454.5260, 18347.00
455.7150, 18293.00
456.9030, 18368.00
458.0910, 18233.84
459.2800, 18349.00
460.4670, 18186.00
461.6550, 18150.00
462.8430, 18304.00
464.0300, 18220.00
465.2180, 18055.00
466.4050, 18174.00
467.5920, 18013.00
468.7790, 18068.00
469.9650, 18113.00
471.1520, 18009.00
472.3380, 17984.00
473.5250, 17883.00
474.7110, 17753.00
475.8970, 17735.00
477.0820, 17844.00
478.2680, 17748.00
479.4540, 17669.00
480.6390, 17372.00
481.8240, 17248.00
483.0090, 17307.00
484.1940, 17045.00
485.3780, 17018.00
486.5630, 17070.00
487.7470, 16910.00
488.9320, 16789.00
490.1160, 16878.00
491.3000, 16880.00
492.4830, 17041.00
493.6670, 16817.00
494.8500, 17106.00
496.0340, 16863.00
497.2170, 17145.00
498.4000, 17060.00
499.5820, 17202.00
500.7650, 17292.00
501.9480, 17478.00
503.1300, 17565.00
504.3120, 17742.00
505.4940, 17931.00
506.6760, 18118.00
507.8580, 18314.00
509.0390, 18528.00
510.2210, 18874.00
511.4020, 19109.00
512.5830, 19527.00
513.7640, 19871.00
514.9450, 20211.00
516.1250, 20414.00
517.3060, 20743.00
518.4860, 20726.00
519.6660, 20995.00
520.8460, 21161.00
522.0260, 21029.00
523.2060, 20761.00
524.3850, 20963.00
525.5650, 20955.00
526.7440, 20963.00
527.9230, 20840.00
529.1020, 20668.00
530.2810, 20695.00
531.4590, 20351.00
532.6380, 20254.00
533.8160, 20311.00
534.9940, 20083.00
536.1720, 20275.00
537.3500, 19965.00
538.5270, 20135.00
539.7050, 20056.00
540.8820, 20040.00
542.0590, 20037.00
543.2360, 20051.00
544.4130, 20074.00
545.5900, 20175.00
546.7660, 20055.00
547.9430, 20248.00
549.1190, 20213.00
550.2950, 19839.00
551.4710, 20015.00
552.6470, 19943.00
553.8220, 20003.00
554.9980, 20094.00
556.1730, 20011.00
557.3480, 20093.00
558.5230, 20077.00
559.6980, 20059.00
560.8730, 20120.00
562.0470, 20149.57
563.2220, 20383.00
564.3960, 20362.00
565.5700, 20506.00
566.7440, 20799.00
567.9170, 20757.00
569.0910, 21081.00
570.2640, 21162.00
571.4380, 21398.00
572.6110, 21545.00
573.7840, 21758.00
574.9570, 22096.00
576.1290, 22333.00
577.3020, 22529.00
578.4740, 22758.00
579.6460, 22970.00
580.8180, 23188.00
581.9900, 23231.00
583.1620, 23749.00
584.3330, 24049.00
585.5040, 24416.00
586.6760, 24346.00
587.8470, 24960.00
589.0180, 25122.00
590.1880, 25438.00
591.3590, 25909.00
592.5290, 26327.00
593.7000, 26684.00
594.8700, 27263.00
596.0400, 27607.00
597.2090, 27882.00
598.3790, 28700.00
599.5490, 28985.00
600.7180, 29639.00
601.8870, 30177.00
603.0560, 30418.00
604.2250, 30995.00
605.3940, 31281.00
606.5620, 31726.00
607.7300, 32031.00
608.8990, 31927.00
610.0670, 32307.00
611.2350, 32559.00
612.4020, 32918.00
613.5700, 33011.00
614.7370, 33376.00
615.9050, 33402.00
617.0720, 33958.23
618.2390, 34697.00
619.4060, 35142.00
620.5720, 35998.00
621.7390, 36814.00
622.9050, 37918.00
624.0710, 39340.00
625.2370, 40967.00
626.4030, 42815.00
627.5690, 44990.00
628.7340, 47129.00
629.9000, 49423.00
631.0650, 51551.00
632.2300, 53792.00
633.3950, 55146.00
634.5600, 56207.00
635.7240, 56121.00
636.8890, 55899.00
638.0530, 54941.00
639.2170, 53113.00
640.3810, 51882.00
641.5450, 49993.00
642.7080, 48519.00
643.8720, 46975.00
645.0350, 45279.00
646.1980, 43974.00
647.3610, 42644.00
648.5240, 41012.00
649.6870, 40026.00
650.8490, 38814.00
652.0120, 37558.00
653.1740, 36706.00
654.3360, 35652.00
655.4980, 34736.00
656.6600, 33631.00
657.8210, 32727.03
658.9830, 31924.00
660.1440, 30913.00
661.3050, 29905.00
662.4660, 29074.00
663.6270, 28327.00
664.7870, 27143.00
665.9480, 26383.00
667.1080, 25722.00
668.2680, 25219.00
669.4280, 24444.00
670.5880, 23940.00
671.7480, 23232.00
672.9070, 22688.00
674.0670, 22189.00
675.2260, 21243.00
676.3850, 21149.00
677.5440, 20375.00
678.7030, 19977.00
679.8610, 19556.00
681.0200, 19343.00
682.1780, 18851.00
683.3360, 18872.00
684.4940, 18493.00
685.6520, 18545.00
686.8090, 18493.00
687.9670, 18547.00
689.1240, 18859.00
690.2810, 18825.00
691.4380, 19328.00
692.5950, 19414.00
693.7520, 19741.00
694.9080, 19958.00
696.0650, 20207.00
697.2210, 20552.00
698.3770, 20986.00
699.5330, 21313.18
700.6880, 21945.00
701.8440, 21987.00
702.9990, 22281.00
704.1550, 22383.00
705.3100, 22450.00
706.4650, 22509.00
707.6190, 22377.00
708.7740, 22019.00
709.9290, 21518.00
711.0830, 21363.00
712.2370, 20603.00
713.3910, 20183.00
714.5450, 19741.00
715.6980, 19328.94
716.8520, 19209.00
718.0050, 18634.00
719.1580, 18384.00
720.3110, 17863.00
721.4640, 17785.00
722.6170, 17601.00
723.7700, 17415.00
724.9220, 17310.00
726.0740, 17127.00
727.2260, 17114.99
728.3780, 17094.00
729.5300, 17140.00
730.6810, 17280.00
731.8330, 17367.00
732.9840, 17090.00
734.1350, 17190.00
735.2860, 16964.00
736.4370, 17116.00
737.5880, 16984.00
738.7380, 16974.00
739.8880, 16928.00
741.0390, 16709.00
742.1890, 16755.00
743.3380, 16701.00
744.4880, 16643.00
745.6380, 16647.00
746.7870, 16737.00
747.9360, 16664.00
749.0850, 16581.00
750.2340, 16746.00
751.3830, 16731.00
752.5310, 16752.00
753.6800, 16862.00
754.8280, 16823.00
755.9760, 16648.00
757.1240, 16592.55
758.2720, 16619.00
759.4190, 16313.00
760.5670, 16212.00
761.7140, 16153.00
762.8610, 15922.00
764.0080, 16061.00
765.1550, 15907.00
766.3020, 15721.00
767.4480, 15705.00
768.5950, 15695.00
769.7410, 15491.00
770.8870, 15479.00
772.0330, 15616.00
773.1780, 15663.00
774.3240, 15377.00
775.4690, 15469.00
776.6140, 15671.00
777.7590, 15312.00
778.9040, 15218.00
780.0490, 15302.00
781.1940, 15195.00
782.3380, 15146.00
783.4820, 15280.00
784.6260, 15101.00
785.7700, 14897.00
786.9140, 15025.00
788.0580, 14986.00
789.2010, 14853.00
790.3450, 14874.00
791.4880, 14629.00
792.6310, 14852.00
793.7730, 14944.00
794.9160, 14684.00
796.0590, 14601.00
797.2010, 14661.00
798.3430, 14596.00
799.4850, 14650.00
800.6270, 14730.00
801.7690, 14666.00
802.9100, 14694.00
804.0520, 14873.00
805.1930, 14715.00
806.3340, 14768.00
807.4750, 14703.00
808.6160, 14580.00
809.7560, 14666.00
810.8970, 14726.00
812.0370, 14599.00
813.1770, 14625.00
814.3170, 14455.00
815.4570, 14521.00
816.5960, 14412.00
817.7360, 14571.00
818.8750, 14463.00
820.0140, 14373.00
821.1530, 14332.00
822.2920, 14254.00
823.4310, 14289.00
824.5690, 14325.00
825.7070, 14195.00
826.8460, 14140.00
827.9840, 14154.00
829.1220, 14300.00
830.2590, 14357.00
831.3970, 14274.00
832.5340, 14281.00
833.6710, 14274.00
834.8080, 14178.00
835.9450, 14372.00
837.0820, 14254.00
838.2190, 14353.00
839.3550, 14176.00
840.4910, 14345.00
841.6270, 14113.00
842.7630, 14280.00
843.8990, 14315.00
845.0350, 14289.00
846.1700, 14316.00
847.3060, 14306.00
848.4410, 14310.89
849.5760, 14316.00
850.7100, 14340.00
851.8450, 14358.10
852.9800, 14334.00
854.1140, 14407.00
855.2480, 14454.00
856.3820, 14470.00
857.5160, 14439.00
858.6500, 14370.00
859.7830, 14360.00
860.9170, 14438.00
862.0500, 14425.00
863.1830, 14475.49
864.3160, 14427.00
865.4480, 14551.00
866.5810, 14479.00
867.7130, 14486.00
868.8460, 14639.00
869.9780, 14504.00
871.1100, 14580.00
872.2410, 14568.00
873.3730, 14374.00
874.5050, 14576.00
875.6360, 14580.00
876.7670, 14530.00
877.8980, 14763.00
879.0290, 14696.00
880.1590, 14351.00
881.2900, 14793.00
882.4200, 14653.00
883.5500, 14564.00
884.6800, 14781.00
885.8100, 14826.00
886.9400, 14828.00
888.0690, 14905.00
889.1990, 14812.00
890.3280, 14830.00
891.4570, 14881.00
892.5860, 14911.00
893.7140, 14917.00
894.8430, 14994.00
895.9710, 14942.00
897.1000, 15110.00
898.2280, 15060.00
899.3560, 15119.00
900.4830, 15036.00
901.6110, 15157.00
902.7380, 15066.00
903.8660, 15111.00
904.9930, 15314.00
906.1200, 15454.00
907.2460, 15428.04
908.3730, 15271.00
909.5000, 15384.00
910.6260, 15403.00
911.7520, 15400.00
912.8780, 15509.00
914.0040, 15411.00
915.1290, 15520.00
916.2550, 15583.00
917.3800, 15583.69
918.5050, 15795.00
919.6300, 15604.00
920.7550, 15883.00
921.8800, 15790.00
923.0040, 15924.00
924.1290, 15930.00
925.2530, 15781.00
926.3770, 15858.00
927.5010, 15973.00
928.6250, 16055.00
929.7480, 16206.00
930.8720, 16263.00
931.9950, 15936.00
933.1180, 16216.00
934.2410, 16159.00
935.3640, 16351.00
936.4860, 16405.00
937.6090, 16533.00
938.7310, 16604.00
939.8530, 16431.00
940.9750, 16612.00
942.0970, 16650.00
943.2180, 16706.00
944.3400, 16916.00
945.4610, 16951.00
946.5820, 17110.00
947.7030, 17007.00
948.8240, 17224.00
949.9450, 17205.00
951.0650, 17306.00
952.1860, 17379.00
953.3060, 17296.00
954.4260, 17475.00
955.5460, 17672.00
956.6650, 18097.00
957.7850, 17563.00
958.9040, 17548.00
960.0230, 18740.00
961.1420, 17947.00
962.2610, 18086.00
963.3800, 18024.00
964.4990, 17781.00
965.6170, 18011.00
966.7350, 18230.00
967.8530, 18056.00
968.9710, 18383.00
970.0890, 18444.00
971.2070, 18198.00
972.3240, 18182.00
973.4410, 18353.00
974.5580, 18274.00
975.6750, 18379.00
976.7920, 18519.00
977.9090, 18345.00
979.0250, 18555.00
980.1410, 18546.00
981.2580, 18567.00
982.3740, 18784.00
983.4890, 18796.00
984.6050, 18824.00
985.7200, 19149.00
986.8360, 19239.00
987.9510, 19261.00
989.0660, 19164.00
990.1810, 19465.00
991.2950, 19435.00
992.4100, 19503.00
993.5240, 19780.00
994.6390, 19861.00
995.7530, 19967.00
996.8660, 19972.00
997.9800, 20117.00
999.0940, 20335.00
1000.207, 20323.00
1001.320, 20671.00
1002.433, 20554.00
1003.546, 20791.00
1004.659, 20736.00
1005.772, 20735.00
1006.884, 20968.00
1007.996, 20637.00
1009.108, 20661.00
1010.220, 20647.00
1011.332, 20553.00
1012.444, 20442.00
1013.555, 20372.00
1014.666, 20356.00
1015.777, 20262.00
1016.888, 20137.00
1017.999, 19841.00
1019.110, 20038.00
1020.220, 19444.00
1021.331, 19707.00
1022.441, 19459.00
1023.551, 19302.00
1024.661, 19212.00
1025.770, 19292.00
1026.880, 19114.00
1027.989, 18874.00
1029.098, 18963.00
1030.207, 18683.00
1031.316, 18825.00
1032.425, 18766.00
1033.533, 18645.00
1034.642, 18884.00
1035.750, 18630.00
1036.858, 18493.00
1037.966, 18619.00
1039.073, 18576.00
1040.181, 18828.00
1041.288, 18618.00
1042.396, 18841.00
1043.503, 18856.00
1044.610, 18880.00
1045.716, 19047.00
1046.823, 18965.00
1047.929, 19294.00
1049.036, 19330.00
1050.142, 19392.00
1051.248, 19581.00
1052.353, 19850.00
1053.459, 19964.00
1054.564, 20125.00
1055.670, 20167.00
1056.775, 20198.00
1057.880, 20388.00
1058.985, 20233.00
1060.089, 20365.00
1061.194, 20332.00
1062.298, 20211.00
1063.402, 19898.00
1064.506, 19560.00
1065.610, 19650.00
1066.713, 19399.00
1067.817, 19165.00
1068.920, 19141.00
1070.023, 18986.00
1071.126, 19008.00
1072.229, 18839.00
1073.332, 18554.00
1074.435, 18552.00
1075.537, 18451.00
1076.639, 18456.00
1077.741, 18382.62
1078.843, 18194.00
1079.945, 18272.00
1081.046, 18251.00
1082.148, 18235.00
1083.249, 18294.00
1084.350, 18228.54
1085.451, 18140.00
1086.551, 18135.00
1087.652, 18104.00
1088.752, 18039.00
1089.853, 18063.00
1090.953, 18012.00
1092.053, 18126.00
1093.152, 17969.00
1094.252, 18136.00
1095.351, 18141.00
1096.451, 17957.00
1097.550, 18122.00
1098.649, 18091.00
1099.748, 18058.00
1100.846, 18088.00
1101.945, 18078.00
1103.043, 18189.00
1104.141, 18330.00
1105.239, 18119.00
1106.337, 18267.00
1107.434, 18381.00
1108.532, 18138.00
1109.629, 18112.00
1110.726, 18213.00
1111.823, 18104.00
1112.920, 18094.00
1114.017, 18205.00
1115.113, 18110.00
1116.210, 18175.00
1117.306, 18247.00
1118.402, 18052.00
1119.498, 18069.00
1120.593, 18025.00
1121.689, 17865.00
1122.784, 18047.00
1123.879, 18101.00
1124.974, 17775.00
1126.069, 17890.00
1127.164, 17721.00
1128.259, 17606.00
1129.353, 17677.00
1130.447, 17481.00
1131.541, 17730.00
1132.635, 17425.00
1133.729, 17643.00
1134.822, 17605.00
1135.916, 17523.00
1137.009, 17541.00
1138.102, 17537.00
1139.195, 17433.00
1140.288, 17390.00
1141.380, 17332.00
1142.473, 17426.00
1143.565, 17607.00
1144.657, 17530.00
1145.749, 17363.00
1146.841, 17294.00
1147.932, 17527.00
1149.024, 17493.00
1150.115, 17630.00
1151.206, 17587.00
1152.297, 17602.00
1153.388, 17470.00
1154.479, 17581.00
1155.569, 17482.00
1156.659, 17655.00
1157.750, 17504.00
1158.839, 17448.00
1159.929, 17660.00
1161.019, 17459.00
1162.108, 17559.00
1163.198, 17684.00
1164.287, 17553.00
1165.376, 17581.00
1166.465, 17698.00
1167.553, 17523.00
1168.642, 17541.00
1169.730, 17688.00
1170.818, 17623.00
1171.906, 17645.00
1172.994, 17715.00
1174.082, 17779.00
1175.170, 17772.00
1176.257, 17770.00
1177.344, 17784.63
1178.431, 17762.42
1179.518, 17783.00
1180.605, 17752.00
1181.691, 17764.48
1182.778, 17812.00
1183.864, 17750.00
1184.950, 17831.00
1186.036, 17804.00
1187.122, 17701.00
1188.207, 17844.00
1189.292, 17823.00
1190.378, 18046.00
1191.463, 17782.00
1192.548, 18113.00
1193.632, 17936.00
1194.717, 18048.00
1195.801, 17981.00
1196.886, 18019.00
1197.970, 18007.00
1199.054, 18040.00
1200.137, 18054.00
1201.221, 18061.00
1202.305, 18093.00
1203.388, 18116.82
1204.471, 18150.00
1205.554, 18159.00
1206.637, 18244.00
1207.719, 18219.00
1208.802, 18339.00
1209.884, 18337.00
1210.966, 18498.00
1212.048, 18434.00
1213.130, 18395.00
1214.212, 18479.00
1215.293, 18440.00
1216.374, 18652.00
1217.456, 18670.00
1218.536, 18648.00
1219.617, 18750.00
1220.698, 18655.00
1221.778, 18704.00
1222.859, 18860.00
1223.939, 19111.00
1225.019, 18920.00
1226.099, 18946.00
1227.178, 18941.00
1228.258, 19219.00
1229.337, 19204.00
1230.417, 19297.00
1231.496, 19413.00
1232.574, 19573.00
1233.653, 19582.00
1234.732, 19626.00
1235.810, 19815.00
1236.888, 19833.00
1237.966, 20124.00
1239.044, 20212.00
1240.122, 20315.00
1241.199, 20476.15
1242.277, 20412.00
1243.354, 20572.00
1244.431, 20629.00
1245.508, 20414.00
1246.585, 20750.00
1247.661, 20675.00
1248.738, 20610.00
1249.814, 20761.00
1250.890, 20847.00
1251.966, 20844.00
1253.042, 20994.00
1254.117, 21110.00
1255.193, 21149.00
1256.268, 21249.00
1257.343, 21219.00
1258.418, 21320.00
1259.493, 21341.66
1260.567, 21400.87
1261.642, 21423.00
1262.716, 21492.00
1263.790, 21567.00
1264.864, 21516.00
1265.938, 21510.00
1267.011, 21656.00
1268.085, 21502.00
1269.158, 21640.00
1270.231, 21746.00
1271.304, 21735.00
1272.377, 21672.00
1273.450, 21822.00
1274.522, 21702.00
1275.594, 21769.00
1276.666, 22154.00
1277.738, 22185.00
1278.810, 22456.00
1279.882, 22407.00
1280.953, 22787.00
1282.025, 22871.00
1283.096, 23427.00
1284.167, 23498.00
1285.238, 23667.00
1286.308, 23718.00
1287.379, 23718.00
1288.449, 23711.49
1289.519, 23670.00
1290.589, 23535.00
1291.659, 23426.00
1292.729, 23265.00
1293.798, 23233.00
1294.868, 23126.00
1295.937, 23083.00
1297.006, 23049.99
1298.075, 22863.00
1299.143, 22990.00
1300.212, 22806.00
1301.280, 22741.00
1302.348, 22614.00
1303.416, 22755.00
1304.484, 22762.00
1305.552, 22734.00
1306.620, 22715.00
1307.687, 22618.00
1308.754, 22568.00
1309.821, 22532.37
1310.888, 22551.00
1311.955, 22503.00
1313.021, 22543.00
1314.088, 22628.00
1315.154, 22510.00
1316.220, 22514.00
1317.286, 22307.00
1318.352, 22421.00
1319.417, 22254.00
1320.483, 22113.00
1321.548, 22089.60
1322.613, 22101.00
1323.678, 21891.00
1324.743, 22137.00
1325.807, 22023.00
1326.872, 22050.00
1327.936, 21955.00
1329.000, 21848.00
1330.064, 21635.00
1331.128, 21691.00
1332.191, 21596.79
1333.255, 21729.00
1334.318, 21653.00
1335.381, 21585.00
1336.444, 21793.00
1337.507, 21728.00
1338.569, 21552.00
1339.632, 21739.00
1340.694, 21571.00
1341.756, 21821.00
1342.818, 21663.00
1343.880, 21690.00
1344.941, 21513.00
1346.003, 21584.00
1347.064, 21711.00
1348.125, 21698.00
1349.186, 21547.00
1350.247, 21714.00
1351.308, 21610.40
1352.368, 21809.00
1353.428, 21636.00
1354.489, 21698.00
1355.549, 21884.00
1356.608, 21701.16
1357.668, 21468.00
1358.727, 21653.00
1359.787, 21462.00
1360.846, 21710.00
1361.905, 21649.00
1362.964, 21534.00
1364.022, 21668.00
1365.081, 21537.00
1366.139, 21360.00
1367.197, 21316.00
1368.255, 21425.00
1369.313, 21482.00
1370.371, 21448.00
1371.428, 21385.00
1372.486, 21371.16
1373.543, 21286.00
1374.600, 21257.00
1375.657, 21102.00
1376.713, 21016.00
1377.770, 21153.00
1378.826, 20909.00
1379.882, 21113.00
1380.938, 21052.00
1381.994, 21086.00
1383.050, 21057.00
1384.106, 21117.00
1385.161, 21087.00
1386.216, 21044.00
1387.271, 21064.00
1388.326, 21086.00
1389.381, 21083.18
1390.435, 21100.00
1391.490, 21087.00
1392.544, 21110.00
1393.598, 21052.00
1394.652, 20967.00
1395.705, 21538.00
1396.759, 21363.00
1397.812, 21601.00
1398.866, 21048.00
1399.919, 20956.00
1400.972, 21127.00
1402.024, 21150.00
1403.077, 21043.00
1404.129, 20949.00
1405.181, 21289.00
1406.233, 21156.00
1407.285, 21179.00
1408.337, 20883.00
1409.389, 20910.00
1410.440, 21067.00
1411.491, 20904.00
1412.542, 20898.00
1413.593, 20984.00
1414.644, 20973.00
1415.695, 20981.50
1416.745, 20978.40
1417.795, 20944.00
1418.845, 20927.00
1419.895, 20855.00
1420.945, 20832.00
1421.995, 20803.00
1423.044, 20823.00
1424.093, 20821.58
1425.142, 20861.00
1426.191, 20912.00
1427.240, 20885.00
1428.289, 21042.00
1429.337, 20982.00
1430.385, 21060.00
1431.433, 20970.00
1432.481, 20997.00
1433.529, 20869.00
1434.577, 21053.00
1435.624, 21055.00
1436.672, 20969.00
1437.719, 20874.00
1438.766, 20855.00
1439.812, 21162.00
1440.859, 20960.00
1441.905, 21155.00
1442.952, 21128.00
1443.998, 21064.00
1445.044, 21049.00
1446.090, 21032.00
1447.135, 21050.00
1448.181, 21045.00
1449.226, 21048.10
1450.271, 21147.00
1451.316, 21077.00
1452.361, 21217.00
1453.405, 21286.00
1454.450, 21087.00
1455.494, 21162.00
1456.538, 21216.00
1457.582, 21263.00
1458.626, 21375.00
1459.670, 21250.00
1460.713, 21153.00
1461.757, 21479.00
1462.800, 21198.00
1463.843, 21297.00
1464.886, 21258.00
1465.928, 21406.00
1466.971, 21377.00
1468.013, 21302.00
1469.055, 21563.00
1470.097, 21412.00
1471.139, 21367.00
1472.181, 21509.00
1473.222, 21414.00
1474.263, 21395.00
1475.305, 21475.00
1476.346, 21470.00
1477.386, 21325.00
1478.427, 21588.00
1479.468, 21457.00
1480.508, 21682.00
1481.548, 21630.00
1482.588, 21524.00
1483.628, 21628.00
1484.668, 21704.00
1485.707, 21533.00
1486.747, 21568.00
1487.786, 21710.00
1488.825, 21663.00
1489.864, 21653.00
1490.902, 21777.00
1491.941, 21671.00
1492.979, 21441.00
1494.017, 21717.00
1495.055, 21639.00
1496.093, 21789.00
1497.131, 21745.00
1498.168, 22051.00
1499.206, 21783.00
1500.243, 21834.00
1501.280, 22029.00
1502.317, 21965.00
1503.354, 21757.00
1504.390, 21853.00
1505.426, 21935.00
1506.463, 21880.00
1507.499, 22017.00
1508.535, 21798.00
1509.570, 22186.00
1510.606, 21944.00
1511.641, 22052.00
1512.676, 22112.00
1513.711, 22015.00
1514.746, 22100.00
1515.781, 22180.00
1516.816, 21959.00
1517.850, 22184.00
1518.884, 22136.00
1519.918, 22065.00
1520.952, 22118.00
1521.986, 22082.07
1523.019, 22128.00
1524.053, 22145.00
1525.086, 22088.00
1526.119, 22220.00
1527.152, 22061.00
1528.185, 22393.00
1529.217, 21932.00
1530.250, 22172.00
1531.282, 22154.00
1532.314, 22358.00
1533.346, 22347.00
1534.377, 22198.00
1535.409, 22243.00
1536.440, 22212.64
1537.472, 22235.38
1538.503, 22271.00
1539.534, 22301.00
1540.564, 22412.00
1541.595, 22347.00
1542.625, 22385.00
1543.656, 22332.00
1544.686, 22210.00
1545.716, 22485.00
1546.745, 22343.00
1547.775, 22459.00
1548.804, 22537.00
1549.834, 22565.00
1550.863, 22676.03
1551.892, 22588.00
1552.920, 22827.00
1553.949, 22925.00
1554.977, 22965.00
1556.006, 22835.00
1557.034, 22637.00
1558.062, 22546.00
1559.089, 22608.00
1560.117, 22530.00
1561.144, 22597.00
1562.172, 22736.00
1563.199, 22629.00
1564.226, 22852.00
1565.252, 22807.00
1566.279, 22980.00
1567.305, 22789.00
1568.332, 22674.00
1569.358, 23019.00
1570.384, 22926.00
##END=



