##NAMES=Fluor-uvite
##RRUFFID=R050172
##IDEAL CHEMISTRY=CaMg_3_(Al_5_Mg)(Si_6_O_18_)(BO_3_)_3_(OH)_3_F
##LOCALITY=Pierrepont, New York, USA
##OWNER=RRUFF
##SOURCE=Marcus Origlieri
##DESCRIPTION=Black prismatic crystal
##STATUS=The identification of this mineral has been confirmed by X-ray diffraction and chemical analysis
##URL=rruff.info/R050172
##MEASURED CHEMISTRY=(Ca_0.64_Na_0.36_)(Mg_0.56_Fe^2+^_0.34_Al_0.08_Ti_0.02_)_3_(Mg_1.00_Al_5.00_)(BO_3_)_3_Si_6.00_O_18_((OH)_3.45_F_0.55_)
##PIN_ID=M00231
##ORIENTATION=Laser parallel to c* (0 0 1). Fiducial mark perpendicular to laser is parallel to -a [-1 0 0]
166.1800, 20734.00
167.4110, 20389.00
168.6410, 20550.00
169.8720, 20424.00
171.1020, 20326.00
172.3320, 20309.00
173.5620, 20084.00
174.7910, 19808.00
176.0210, 19780.00
177.2500, 19739.00
178.4790, 19788.00
179.7080, 19532.00
180.9370, 19818.00
182.1650, 19364.00
183.3940, 19389.00
184.6220, 19581.00
185.8500, 19309.00
187.0780, 19308.00
188.3050, 19180.00
189.5330, 19406.00
190.7600, 19185.00
191.9870, 19167.00
193.2140, 19136.00
194.4410, 19127.67
195.6680, 19229.00
196.8940, 19238.00
198.1200, 19286.00
199.3470, 19338.00
200.5720, 19494.00
201.7980, 19754.00
203.0240, 19772.00
204.2490, 19394.00
205.4740, 19101.00
206.6990, 18823.00
207.9240, 18896.00
209.1490, 18555.00
210.3740, 18650.00
211.5980, 18607.00
212.8220, 18388.00
214.0460, 18494.00
215.2700, 18024.00
216.4930, 18053.00
217.7170, 17857.00
218.9400, 17457.00
220.1630, 17547.00
221.3860, 17397.00
222.6090, 17227.00
223.8320, 16954.00
225.0540, 16782.00
226.2760, 16758.00
227.4980, 16384.00
228.7200, 16500.00
229.9420, 16129.00
231.1630, 16226.00
232.3850, 16128.00
233.6060, 16166.00
234.8270, 16026.00
236.0480, 15980.00
237.2690, 15761.00
238.4890, 15793.00
239.7090, 15571.00
240.9290, 15670.00
242.1490, 15341.00
243.3690, 15327.00
244.5890, 15147.00
245.8080, 15124.00
247.0270, 15031.00
248.2470, 14843.00
249.4650, 14798.00
250.6840, 14583.00
251.9030, 14582.00
253.1210, 14689.00
254.3390, 14584.00
255.5570, 14589.00
256.7750, 14637.00
257.9930, 14687.00
259.2100, 14788.67
260.4280, 14561.33
261.6450, 14666.50
262.8620, 14686.74
264.0790, 14626.60
265.2950, 14141.00
266.5120, 14356.00
267.7280, 14138.79
268.9440, 14484.00
270.1600, 14032.00
271.3760, 14016.00
272.5920, 14131.00
273.8070, 14044.00
275.0220, 14090.90
276.2370, 13882.00
277.4520, 14072.00
278.6670, 13982.00
279.8820, 13893.00
281.0960, 13986.00
282.3100, 13914.00
283.5240, 13777.00
284.7380, 13859.00
285.9520, 13606.00
287.1650, 13703.00
288.3780, 13590.00
289.5920, 13534.00
290.8050, 13682.00
292.0170, 13742.00
293.2300, 13486.00
294.4430, 13669.00
295.6550, 13548.00
296.8670, 13566.00
298.0790, 13552.00
299.2910, 13426.47
300.5020, 13651.46
301.7140, 13791.54
302.9250, 13851.23
304.1360, 13589.84
305.3470, 13743.06
306.5580, 13730.13
307.7680, 13710.35
308.9780, 13921.90
310.1890, 13707.21
311.3990, 13915.09
312.6090, 13967.48
313.8180, 14125.00
315.0280, 14128.00
316.2370, 14249.00
317.4460, 14331.00
318.6550, 14273.00
319.8640, 14487.00
321.0730, 14556.00
322.2810, 14515.00
323.4890, 14587.00
324.6980, 14652.00
325.9060, 14711.00
327.1130, 14909.00
328.3210, 14882.00
329.5280, 14878.00
330.7360, 15043.00
331.9430, 14904.00
333.1500, 15061.00
334.3560, 15147.00
335.5630, 15159.00
336.7690, 15220.23
337.9760, 15343.00
339.1820, 15235.00
340.3870, 15221.00
341.5930, 15228.00
342.7990, 15405.00
344.0040, 15270.00
345.2090, 15475.00
346.4140, 15435.00
347.6190, 15428.00
348.8240, 15586.00
350.0280, 15603.73
351.2330, 15712.00
352.4370, 15811.00
353.6410, 15910.00
354.8440, 16060.00
356.0480, 15968.00
357.2520, 16239.00
358.4550, 16304.00
359.6580, 16485.00
360.8610, 16768.00
362.0640, 16773.00
363.2660, 17042.00
364.4690, 16994.00
365.6710, 17301.00
366.8730, 17353.00
368.0750, 17473.00
369.2770, 17599.00
370.4780, 17524.00
371.6800, 17523.00
372.8810, 17653.00
374.0820, 17436.00
375.2830, 17184.00
376.4830, 17135.00
377.6840, 17101.00
378.8840, 17004.00
380.0840, 16756.00
381.2840, 16646.00
382.4840, 16475.05
383.6840, 16326.71
384.8830, 16122.00
386.0830, 16120.00
387.2820, 15888.00
388.4810, 15889.00
389.6800, 15834.00
390.8780, 15517.00
392.0770, 15591.00
393.2750, 15428.00
394.4730, 15241.00
395.6710, 15149.00
396.8690, 15193.00
398.0660, 15099.93
399.2640, 15041.59
400.4610, 15068.00
401.6580, 14848.00
402.8550, 14794.00
404.0520, 14613.00
405.2490, 14649.00
406.4450, 14733.00
407.6410, 14624.00
408.8370, 14730.00
410.0330, 14505.00
411.2290, 14567.00
412.4240, 14456.00
413.6200, 14622.00
414.8150, 14472.00
416.0100, 14441.00
417.2050, 14374.00
418.4000, 14296.40
419.5940, 14305.96
420.7880, 14174.00
421.9830, 14301.00
423.1770, 14238.00
424.3700, 14205.00
425.5640, 14152.00
426.7580, 14031.00
427.9510, 13941.00
429.1440, 13909.00
430.3370, 13909.00
431.5300, 13878.00
432.7220, 13800.00
433.9150, 13780.00
435.1070, 13761.00
436.2990, 13834.00
437.4910, 13742.00
438.6830, 13844.00
439.8750, 13845.68
441.0660, 13837.00
442.2570, 13826.00
443.4480, 13855.00
444.6390, 13673.00
445.8300, 13723.00
447.0210, 13768.00
448.2110, 13710.00
449.4010, 13811.00
450.5910, 13788.00
451.7810, 13787.00
452.9710, 13824.00
454.1610, 13824.00
455.3500, 13982.00
456.5390, 13915.00
457.7280, 13839.00
458.9170, 13977.00
460.1060, 13873.00
461.2940, 13984.00
462.4830, 13933.00
463.6710, 14123.00
464.8590, 14031.00
466.0470, 14021.00
467.2350, 14226.00
468.4220, 14211.00
469.6090, 14386.00
470.7970, 14285.00
471.9840, 14388.00
473.1700, 14278.00
474.3570, 14423.00
475.5440, 14329.00
476.7300, 14443.00
477.9160, 14554.00
479.1020, 14526.00
480.2880, 14433.00
481.4740, 14455.00
482.6590, 14448.00
483.8440, 14496.00
485.0300, 14562.00
486.2140, 14594.00
487.3990, 14552.00
488.5840, 14700.00
489.7680, 14738.00
490.9530, 14610.00
492.1370, 14764.00
493.3210, 14679.00
494.5040, 14727.00
495.6880, 14852.00
496.8720, 14796.00
498.0550, 14787.00
499.2380, 14703.00
500.4210, 14658.00
501.6040, 14672.83
502.7860, 14637.01
503.9690, 14745.00
505.1510, 14634.00
506.3330, 14742.00
507.5150, 14741.00
508.6970, 14557.00
509.8780, 14921.00
511.0600, 14809.00
512.2410, 14571.00
513.4220, 14813.00
514.6030, 14841.00
515.7840, 14717.00
516.9640, 14992.00
518.1440, 14933.00
519.3250, 14951.00
520.5050, 15092.00
521.6850, 15078.00
522.8640, 15152.00
524.0440, 15282.00
525.2230, 15242.00
526.4020, 15171.00
527.5820, 15204.00
528.7600, 15196.84
529.9390, 15260.17
531.1180, 15233.00
532.2960, 15440.00
533.4740, 15426.00
534.6520, 15520.00
535.8300, 15473.00
537.0080, 15353.00
538.1850, 15498.00
539.3630, 15444.00
540.5400, 15564.00
541.7170, 15658.00
542.8940, 15531.00
544.0700, 15662.00
545.2470, 15571.00
546.4230, 15573.85
547.5990, 15808.00
548.7750, 15611.00
549.9510, 15425.00
551.1270, 15549.00
552.3020, 15457.00
553.4780, 15374.00
554.6530, 15395.00
555.8280, 15536.00
557.0030, 15438.00
558.1770, 15309.00
559.3520, 15440.00
560.5260, 15282.00
561.7000, 15315.00
562.8740, 15289.00
564.0480, 15222.00
565.2220, 15211.00
566.3950, 15355.00
567.5680, 15270.00
568.7420, 15237.00
569.9150, 15360.00
571.0870, 15207.00
572.2600, 15412.00
573.4320, 15174.00
574.6050, 15381.00
575.7770, 15216.00
576.9490, 15330.00
578.1210, 15237.00
579.2920, 15312.00
580.4640, 15054.00
581.6350, 15082.00
582.8060, 14907.00
583.9770, 15042.00
585.1480, 15220.00
586.3190, 14811.00
587.4890, 15105.00
588.6590, 14966.00
589.8290, 14992.00
590.9990, 14958.00
592.1690, 14858.00
593.3390, 14846.15
594.5080, 14811.40
595.6770, 14757.00
596.8470, 14710.00
598.0160, 14704.00
599.1840, 14505.00
600.3530, 14623.00
601.5210, 14416.00
602.6900, 14476.00
603.8580, 14463.00
605.0260, 14539.00
606.1930, 14624.00
607.3610, 14447.00
608.5280, 14448.00
609.6960, 14506.00
610.8630, 14643.00
612.0300, 14504.00
613.1970, 14524.00
614.3630, 14369.00
615.5300, 14509.00
616.6960, 14332.00
617.8620, 14399.00
619.0280, 14487.00
620.1940, 14178.00
621.3590, 14251.00
622.5250, 14114.00
623.6900, 14105.00
624.8550, 14212.00
626.0200, 13949.78
627.1850, 14087.83
628.3490, 14141.00
629.5140, 14113.75
630.6780, 13765.47
631.8420, 13831.80
633.0060, 13731.98
634.1700, 13625.33
635.3330, 13750.07
636.4970, 13448.49
637.6600, 13569.55
638.8230, 13564.00
639.9860, 13606.00
641.1490, 13658.00
642.3110, 13758.00
643.4740, 13570.00
644.6360, 13494.00
645.7980, 13631.00
646.9600, 13558.00
648.1220, 13697.00
649.2840, 13824.00
650.4450, 13816.00
651.6060, 13911.00
652.7670, 13987.00
653.9280, 14033.37
655.0890, 14010.00
656.2500, 14141.00
657.4100, 14181.20
658.5700, 14174.00
659.7300, 14281.00
660.8900, 14114.00
662.0500, 14116.00
663.2100, 14180.00
664.3690, 14125.00
665.5280, 13954.00
666.6880, 14004.00
667.8460, 13900.00
669.0050, 13904.00
670.1640, 13832.00
671.3220, 13810.17
672.4810, 13896.00
673.6390, 13792.00
674.7970, 13802.00
675.9540, 13830.00
677.1120, 13976.00
678.2690, 13970.00
679.4270, 13987.00
680.5840, 14053.00
681.7410, 14121.00
682.8980, 14062.00
684.0540, 14116.00
685.2110, 14076.00
686.3670, 14190.00
687.5230, 14229.00
688.6790, 14360.00
689.8350, 14322.00
690.9900, 14302.00
692.1460, 14448.00
693.3010, 14412.00
694.4560, 14502.00
695.6110, 14571.00
696.7660, 14685.00
697.9210, 14852.00
699.0750, 14874.00
700.2290, 15002.00
701.3840, 15114.00
702.5370, 15175.00
703.6910, 15281.00
704.8450, 15436.00
705.9980, 15656.00
707.1520, 15956.00
708.3050, 16043.00
709.4580, 16222.00
710.6110, 16476.00
711.7630, 16869.00
712.9160, 17038.00
714.0680, 17220.00
715.2200, 17840.00
716.3720, 18231.00
717.5240, 18785.00
718.6760, 19142.00
719.8270, 19571.00
720.9780, 20176.00
722.1300, 20485.00
723.2810, 20696.00
724.4310, 20899.00
725.5820, 20959.00
726.7330, 21010.00
727.8830, 21076.00
729.0330, 21189.00
730.1830, 21107.00
731.3330, 21130.00
732.4830, 21167.00
733.6320, 21046.00
734.7810, 21301.00
735.9310, 21126.00
737.0800, 21143.00
738.2290, 20933.00
739.3770, 21058.00
740.5260, 20991.00
741.6740, 20895.00
742.8220, 20899.00
743.9700, 20903.00
745.1180, 20984.00
746.2660, 20920.00
747.4130, 21070.00
748.5610, 20878.00
749.7080, 21140.00
750.8550, 20949.00
752.0020, 21299.00
753.1490, 21068.00
754.2950, 21177.00
755.4420, 21016.00
756.5880, 21200.00
757.7340, 21281.00
758.8800, 21303.00
760.0250, 21315.00
761.1710, 21348.00
762.3160, 21407.91
763.4620, 21308.00
764.6070, 21427.00
765.7520, 21582.00
766.8960, 21338.00
768.0410, 21401.00
769.1850, 21509.00
770.3300, 21667.00
771.4740, 21588.00
772.6180, 21454.00
773.7610, 21292.00
774.9050, 20996.00
776.0480, 20614.00
777.1920, 20250.00
778.3350, 19963.00
779.4780, 19579.00
780.6200, 19465.00
781.7630, 19148.00
782.9060, 18741.00
784.0480, 18521.00
785.1900, 18132.00
786.3320, 17873.00
787.4740, 17906.00
788.6150, 17772.00
789.7570, 17416.00
790.8980, 17164.00
792.0390, 17104.00
793.1800, 16818.00
794.3210, 16648.00
795.4620, 16672.00
796.6020, 16106.00
797.7420, 16098.00
798.8830, 15900.00
800.0230, 15614.00
801.1620, 15374.00
802.3020, 15014.00
803.4420, 14928.00
804.5810, 14514.00
805.7200, 14364.00
806.8590, 14150.00
807.9980, 14008.00
809.1370, 13826.03
810.2750, 13642.00
811.4140, 13483.00
812.5520, 13321.00
813.6900, 13155.00
814.8280, 13242.00
815.9650, 12975.00
817.1030, 12939.00
818.2400, 12721.00
819.3780, 12607.00
820.5150, 12467.00
821.6520, 12410.00
822.7880, 12348.00
823.9250, 12264.00
825.0610, 12232.00
826.1980, 12212.00
827.3340, 12085.00
828.4700, 12167.00
829.6050, 11988.00
830.7410, 11911.00
831.8760, 11907.00
833.0120, 11898.00
834.1470, 11835.00
835.2820, 11720.00
836.4160, 11726.00
837.5510, 11820.00
838.6860, 11724.00
839.8200, 11768.00
840.9540, 11740.00
842.0880, 11697.00
843.2220, 11657.00
844.3550, 11734.00
845.4890, 11783.00
846.6220, 11695.00
847.7550, 11807.00
848.8880, 11729.00
850.0210, 11820.00
851.1540, 11878.00
852.2860, 11706.00
853.4190, 11866.00
854.5510, 11650.00
855.6830, 11810.00
856.8150, 11926.00
857.9460, 11830.00
859.0780, 11862.00
860.2090, 11887.00
861.3410, 11926.00
862.4720, 11938.00
863.6020, 11930.00
864.7330, 11960.00
865.8640, 11885.00
866.9940, 11867.00
868.1240, 11896.00
869.2540, 11862.00
870.3840, 11884.51
871.5140, 11887.00
872.6440, 11954.00
873.7730, 11999.00
874.9020, 12125.00
876.0320, 11936.00
877.1600, 11923.00
878.2890, 12008.00
879.4180, 11984.00
880.5460, 12076.00
881.6750, 12103.00
882.8030, 11986.00
883.9310, 12162.00
885.0590, 12097.00
886.1860, 12089.00
887.3140, 12112.00
888.4410, 12212.00
889.5680, 12165.00
890.6950, 12211.00
891.8220, 12205.00
892.9490, 12202.53
894.0750, 12307.00
895.2020, 12206.00
896.3280, 12308.00
897.4540, 12312.00
898.5800, 12299.00
899.7050, 12304.00
900.8310, 12360.00
901.9560, 12362.00
903.0820, 12320.00
904.2070, 12451.00
905.3320, 12493.00
906.4560, 12430.00
907.5810, 12538.00
908.7050, 12581.00
909.8300, 12514.00
910.9540, 12660.00
912.0780, 12675.00
913.2010, 12636.00
914.3250, 12695.00
915.4480, 12639.00
916.5720, 12774.00
917.6950, 12602.00
918.8180, 12783.00
919.9410, 12819.00
921.0630, 12788.00
922.1860, 12826.00
923.3080, 12835.00
924.4300, 12852.00
925.5520, 13003.00
926.6740, 12758.00
927.7960, 12941.00
928.9170, 12928.00
930.0390, 12837.00
931.1600, 13039.00
932.2810, 13008.00
933.4020, 13087.00
934.5230, 13143.00
935.6430, 13050.00
936.7640, 13270.00
937.8840, 13125.00
939.0040, 13143.00
940.1240, 13246.00
941.2440, 13268.00
942.3630, 13311.00
943.4830, 13457.00
944.6020, 13573.00
945.7210, 13565.00
946.8400, 13725.00
947.9590, 13552.00
949.0770, 13671.00
950.1960, 13860.00
951.3140, 13773.00
952.4320, 13853.00
953.5500, 13968.00
954.6680, 13821.00
955.7860, 14006.00
956.9030, 14229.00
958.0210, 14007.00
959.1380, 14181.00
960.2550, 14140.00
961.3720, 14300.00
962.4890, 14188.00
963.6050, 14282.00
964.7220, 14235.00
965.8380, 14414.00
966.9540, 14294.00
968.0700, 14385.00
969.1860, 14279.00
970.3010, 14497.00
971.4170, 14355.00
972.5320, 14565.00
973.6470, 14668.00
974.7620, 14717.00
975.8770, 14528.00
976.9910, 14593.00
978.1060, 14585.00
979.2200, 14692.00
980.3340, 14573.00
981.4480, 14604.00
982.5620, 14533.00
983.6760, 14703.00
984.7890, 14679.00
985.9030, 14453.00
987.0160, 14621.00
988.1290, 14567.00
989.2420, 14521.00
990.3550, 14543.00
991.4670, 14556.00
992.5800, 14439.00
993.6920, 14609.00
994.8040, 14418.00
995.9160, 14435.00
997.0280, 14355.00
998.1390, 14331.00
999.2510, 14338.00
1000.362, 14226.00
1001.473, 14211.00
1002.584, 14452.00
1003.695, 14053.00
1004.805, 14143.00
1005.916, 14285.00
1007.026, 14073.00
1008.136, 14127.00
1009.246, 14177.00
1010.356, 14283.00
1011.466, 14280.00
1012.576, 14294.00
1013.685, 14318.95
1014.794, 14295.70
1015.903, 14320.00
1017.012, 14278.00
1018.121, 14284.00
1019.229, 14317.41
1020.338, 14376.00
1021.446, 14381.00
1022.554, 14352.00
1023.662, 14478.00
1024.770, 14407.00
1025.878, 14591.00
1026.985, 14578.00
1028.092, 14723.00
1029.200, 14615.00
1030.307, 14515.00
1031.413, 14712.00
1032.520, 14582.00
1033.627, 14536.00
1034.733, 14696.00
1035.839, 14669.00
1036.945, 14752.00
1038.051, 14710.00
1039.157, 14858.00
1040.262, 14850.00
1041.368, 14834.00
1042.473, 14869.00
1043.578, 14811.00
1044.683, 14928.00
1045.788, 14937.00
1046.893, 14845.00
1047.997, 14964.00
1049.101, 14890.00
1050.205, 14827.00
1051.309, 14792.00
1052.413, 14759.00
1053.517, 14809.00
1054.621, 14816.00
1055.724, 14734.00
1056.827, 14828.00
1057.930, 14762.00
1059.033, 14900.00
1060.136, 14830.00
1061.238, 14877.38
1062.341, 14845.00
1063.443, 14872.00
1064.545, 14906.00
1065.647, 14883.58
1066.749, 14941.00
1067.850, 14871.00
1068.952, 14892.00
1070.053, 14888.00
1071.154, 14797.00
1072.255, 14660.00
1073.356, 14779.00
1074.457, 14654.00
1075.557, 14527.00
1076.658, 14588.00
1077.758, 14538.00
1078.858, 14578.00
1079.958, 14544.00
1081.057, 14490.00
1082.157, 14406.00
1083.256, 14495.00
1084.356, 14394.00
1085.455, 14329.00
1086.554, 14355.00
1087.653, 14296.00
1088.751, 14289.00
1089.850, 14206.00
1090.948, 14270.00
1092.046, 14146.00
1093.144, 14137.00
1094.242, 14212.00
1095.340, 14166.00
1096.437, 13946.00
1097.534, 14075.00
1098.632, 13940.00
1099.729, 14104.00
1100.826, 14081.00
1101.922, 13969.00
1103.019, 13892.00
1104.115, 13981.00
1105.212, 13845.00
1106.308, 13841.00
1107.404, 13694.00
1108.499, 13769.00
1109.595, 13661.69
1110.691, 13674.03
1111.786, 13464.00
1112.881, 13667.00
1113.976, 13458.00
1115.071, 13374.00
1116.166, 13460.00
1117.260, 13568.00
1118.355, 13595.00
1119.449, 13420.00
1120.543, 13375.00
1121.637, 13441.00
1122.731, 13502.00
1123.824, 13407.00
1124.918, 13236.00
1126.011, 13317.00
1127.104, 13246.00
1128.197, 13358.00
1129.290, 13321.00
1130.382, 13088.00
1131.475, 13109.00
1132.567, 13122.00
1133.659, 13185.00
1134.751, 13104.00
1135.843, 13120.00
1136.935, 13073.00
1138.027, 13111.00
1139.118, 13054.00
1140.209, 13003.00
1141.300, 13163.00
1142.391, 13078.00
1143.482, 13132.00
1144.573, 13132.00
1145.663, 13100.00
1146.754, 12914.00
1147.844, 12949.00
1148.934, 12992.00
1150.024, 13087.00
1151.113, 13113.54
1152.203, 13134.00
1153.292, 13152.77
1154.381, 13106.72
1155.470, 13004.00
1156.559, 12910.00
1157.648, 12862.00
1158.737, 12981.00
1159.825, 13016.00
1160.913, 12997.00
1162.001, 12832.00
1163.089, 12948.00
1164.177, 12961.00
1165.265, 12971.00
1166.352, 13035.00
1167.440, 12959.00
1168.527, 12972.00
1169.614, 12812.00
1170.701, 12918.00
1171.788, 12781.00
1172.874, 12899.00
1173.961, 13032.00
1175.047, 12893.00
1176.133, 12748.00
1177.219, 12839.00
1178.305, 12929.00
1179.390, 12889.00
1180.476, 12847.00
1181.561, 12815.00
1182.646, 12886.00
1183.731, 12908.00
1184.816, 12987.00
1185.901, 12829.00
1186.985, 12961.00
1188.070, 12922.94
1189.154, 12906.00
1190.238, 12948.00
1191.322, 12955.00
1192.406, 12998.00
1193.489, 12936.00
1194.573, 12942.00
1195.656, 12930.00
1196.739, 12937.00
1197.822, 12943.92
1198.905, 12996.00
1199.988, 12982.00
1201.070, 13037.00
1202.153, 13097.00
1203.235, 13038.00
1204.317, 13062.00
1205.399, 13140.00
1206.481, 13099.00
1207.562, 13254.00
1208.644, 13120.00
1209.725, 13230.00
1210.806, 13202.00
1211.887, 13345.00
1212.968, 13230.00
1214.049, 13194.00
1215.129, 13151.00
1216.209, 13187.22
1217.290, 13316.00
1218.370, 13301.00
1219.450, 13494.00
1220.529, 13509.00
1221.609, 13387.00
1222.688, 13213.00
1223.768, 13562.00
1224.847, 13490.00
1225.926, 13492.00
1227.005, 13604.00
1228.083, 13577.00
1229.162, 13586.00
1230.240, 13508.00
1231.318, 13526.00
1232.396, 13532.00
1233.474, 13553.72
1234.552, 13597.64
1235.629, 13662.00
1236.707, 13665.00
1237.784, 13734.00
1238.861, 13697.00
1239.938, 13821.00
1241.015, 13576.00
1242.092, 13615.00
1243.168, 13741.00
1244.244, 13617.00
1245.321, 13666.00
1246.397, 13592.00
1247.473, 13588.77
1248.548, 13686.00
1249.624, 13604.00
1250.699, 13626.00
1251.775, 13658.00
1252.850, 13632.00
1253.925, 13709.00
1254.999, 13709.00
1256.074, 13608.00
1257.148, 13648.00
1258.223, 13635.00
1259.297, 13544.00
1260.371, 13420.00
1261.445, 13559.00
1262.519, 13381.00
1263.592, 13552.00
1264.666, 13336.00
1265.739, 13309.00
1266.812, 13504.00
1267.885, 13541.00
1268.958, 13494.00
1270.030, 13485.00
1271.103, 13569.00
1272.175, 13473.00
1273.247, 13542.00
1274.319, 13626.00
1275.391, 13432.00
1276.463, 13418.00
1277.535, 13524.00
1278.606, 13531.00
1279.677, 13328.00
1280.748, 13435.00
1281.819, 13441.00
1282.890, 13362.00
1283.961, 13531.00
1285.031, 13368.00
1286.102, 13420.00
1287.172, 13539.00
1288.242, 13550.00
1289.312, 13370.00
1290.381, 13544.00
1291.451, 13472.00
1292.520, 13515.00
1293.590, 13514.62
1294.659, 13374.00
1295.728, 13415.00
1296.797, 13377.00
1297.865, 13245.00
1298.934, 13364.00
1300.002, 13264.00
1301.070, 13433.00
1302.138, 13434.00
1303.206, 13330.00
1304.274, 13330.00
1305.341, 13374.00
1306.409, 13419.00
1307.476, 13578.00
1308.543, 13526.00
1309.610, 13282.00
1310.677, 13385.00
1311.744, 13253.00
1312.810, 13356.00
1313.877, 13399.00
1314.943, 13222.00
1316.009, 13304.00
1317.075, 13489.00
1318.140, 13457.00
1319.206, 13353.00
1320.272, 13371.00
1321.337, 13372.00
1322.402, 13518.00
1323.467, 13314.00
1324.532, 13410.00
1325.596, 13268.00
1326.661, 13237.93
1327.725, 13128.00
1328.790, 13217.00
1329.854, 13269.00
1330.918, 13367.00
1331.981, 13262.00
1333.045, 13296.00
1334.108, 13400.00
1335.172, 13256.00
1336.235, 13191.00
1337.298, 13369.00
1338.361, 13277.00
1339.423, 13352.00
1340.486, 13249.00
1341.548, 13258.00
1342.611, 13326.00
1343.673, 13315.00
1344.735, 13310.00
1345.796, 13418.00
1346.858, 13435.00
1347.919, 13292.00
1348.981, 13277.00
1350.042, 13363.00
1351.103, 13440.00
1352.164, 13394.00
1353.225, 13328.00
1354.285, 13300.00
1355.346, 13225.00
1356.406, 13186.00
1357.466, 13260.00
1358.526, 13337.00
1359.586, 13383.00
1360.645, 13440.00
1361.705, 13321.00
1362.764, 13413.00
1363.823, 13360.00
1364.882, 13340.57
1365.941, 13348.00
1367.000, 13337.00
1368.059, 13323.00
1369.117, 13386.00
1370.175, 13364.58
1371.233, 13451.00
1372.291, 13382.00
1373.349, 13470.00
1374.407, 13501.00
1375.464, 13505.30
1376.522, 13478.72
1377.579, 13495.00
1378.636, 13414.00
1379.693, 13445.52
1380.750, 13362.00
1381.806, 13460.00
1382.863, 13378.00
1383.919, 13358.00
1384.975, 13234.00
1386.031, 13387.00
1387.087, 13467.00
1388.143, 13287.00
1389.199, 13361.00
1390.254, 13324.00
1391.309, 13285.00
1392.364, 13327.00
1393.419, 13344.00
1394.474, 13340.00
1395.529, 13304.00
1396.583, 13336.00
1397.638, 13251.00
1398.692, 13095.00
1399.746, 13098.00
1400.800, 13233.00
1401.853, 13375.00
1402.907, 13232.00
1403.960, 13349.00
1405.014, 13266.00
1406.067, 13283.00
1407.120, 13297.00
1408.173, 13257.00
1409.225, 13261.00
1410.278, 13235.00
1411.330, 13179.00
1412.383, 13231.00
1413.435, 13258.00
1414.487, 13302.00
1415.538, 13225.00
1416.590, 13295.00
1417.641, 13235.00
1418.693, 13260.00
1419.744, 13195.00
1420.795, 13317.00
1421.846, 13331.00
1422.897, 13205.00
1423.947, 13285.00
1424.998, 13202.00
1426.048, 13299.00
1427.098, 13391.00
1428.148, 13353.83
1429.198, 13388.00
1430.247, 13395.00
1431.297, 13297.00
1432.346, 13380.00
1433.396, 13461.00
1434.445, 13346.00
1435.494, 13263.00
1436.542, 13301.00
1437.591, 13450.00
1438.639, 13445.00
1439.688, 13408.00
1440.736, 13366.00
1441.784, 13443.00
1442.832, 13345.00
1443.880, 13517.00
1444.927, 13374.00
1445.975, 13547.00
1447.022, 13635.00
1448.069, 13494.00
1449.116, 13503.00
1450.163, 13469.00
1451.209, 13580.00
1452.256, 13455.00
1453.302, 13492.00
1454.348, 13467.00
1455.394, 13482.00
1456.440, 13525.00
1457.486, 13575.00
1458.532, 13569.08
1459.577, 13577.90
1460.623, 13563.00
1461.668, 13531.00
1462.713, 13513.00
1463.758, 13452.00
1464.802, 13449.07
1465.847, 13562.00
1466.891, 13480.00
1467.936, 13477.00
1468.980, 13612.00
1470.024, 13772.00
1471.067, 13473.00
1472.111, 13558.00
1473.155, 13394.00
1474.198, 13547.00
1475.241, 13481.00
1476.284, 13473.00
1477.327, 13551.00
1478.370, 13577.00
1479.413, 13560.00
1480.455, 13484.00
1481.497, 13341.00
1482.540, 13423.00
1483.582, 13605.00
1484.624, 13439.00
1485.665, 13282.00
1486.707, 13597.00
1487.748, 13551.00
1488.790, 13372.00
1489.831, 13458.00
1490.872, 13534.00
1491.912, 13405.00
1492.953, 13527.00
1493.994, 13430.00
1495.034, 13548.00
1496.074, 13379.00
1497.114, 13499.00
1498.154, 13411.06
1499.194, 13396.87
1500.234, 13287.00
1501.273, 13438.00
1502.313, 13413.00
1503.352, 13571.00
1504.391, 13623.00
1505.430, 13505.00
1506.468, 13304.00
1507.507, 13607.00
1508.545, 13408.08
1509.584, 13563.00
1510.622, 13384.00
1511.660, 13535.00
1512.698, 13658.00
1513.735, 13387.00
1514.773, 13481.00
1515.810, 13561.00
1516.848, 13613.00
1517.885, 13495.00
1518.922, 13674.00
1519.958, 13439.00
1520.995, 13408.00
1522.032, 13540.00
1523.068, 13513.00
1524.104, 13485.00
1525.140, 13545.00
1526.176, 13463.00
1527.212, 13492.18
1528.248, 13491.00
1529.283, 13505.00
1530.318, 13495.00
1531.353, 13519.00
1532.389, 13535.00
1533.423, 13412.00
1534.458, 13389.00
1535.493, 13430.00
1536.527, 13566.00
1537.561, 13566.00
1538.596, 13444.00
1539.630, 13468.00
1540.663, 13320.00
1541.697, 13444.00
1542.731, 13351.00
1543.764, 13484.00
1544.797, 13389.00
1545.830, 13321.00
1546.863, 13408.00
1547.896, 13244.00
1548.929, 13321.00
##END=



