##NAMES=Fluorapatite
##RRUFFID=R050401
##IDEAL CHEMISTRY=Ca_5_(PO_4_)_3_F
##LOCALITY=Urbano mine, Golconda District, Minas Gerais, Brazil
##OWNER=RRUFF
##SOURCE=Bob Downs
##DESCRIPTION=Pale purple hexagonal prism associated with albite R050402
##STATUS=The identification of this mineral has been confirmed by X-ray diffraction and chemical analysis
##URL=rruff.info/R050401
##MEASURED CHEMISTRY=(Ca_0.99_Mn_0.01_)_5_(P_1.00_O_4_)_3_F_1.00_
##PIN_ID=L01966
##ORIENTATION=Laser parallel to a* (1 0 0). Fiducial mark perpendicular to laser is parallel to c [0 0 1]
140.2710, 4308.000
141.5000, 4512.000
142.7280, 4417.000
143.9560, 4404.000
145.1840, 4454.000
146.4120, 4504.000
147.6390, 4507.000
148.8670, 4546.000
150.0940, 4543.000
151.3210, 4586.000
152.5490, 4568.000
153.7750, 4558.000
155.0020, 4671.000
156.2290, 4678.000
157.4550, 4708.000
158.6810, 4738.000
159.9080, 4740.000
161.1340, 4773.000
162.3590, 4825.000
163.5850, 4825.271
164.8110, 4847.000
166.0360, 4859.000
167.2610, 4869.000
168.4860, 4900.000
169.7110, 4891.000
170.9360, 4974.000
172.1610, 4899.000
173.3850, 5005.000
174.6100, 4941.000
175.8340, 4920.000
177.0580, 4991.000
178.2820, 4979.000
179.5050, 5025.000
180.7290, 5023.000
181.9520, 4992.000
183.1760, 5126.000
184.3990, 5091.000
185.6220, 5095.000
186.8450, 5133.000
188.0670, 5120.000
189.2900, 5155.000
190.5120, 5068.000
191.7340, 5197.000
192.9560, 5132.000
194.1780, 5216.000
195.4000, 5230.000
196.6220, 5212.000
197.8430, 5351.000
199.0640, 5367.000
200.2860, 5355.000
201.5070, 5415.000
202.7270, 5437.000
203.9480, 5452.054
205.1690, 5470.000
206.3890, 5479.000
207.6090, 5528.000
208.8290, 5519.000
210.0490, 5597.000
211.2690, 5555.000
212.4890, 5515.000
213.7080, 5599.000
214.9280, 5702.000
216.1470, 5536.000
217.3660, 5604.000
218.5850, 5622.000
219.8030, 5733.000
221.0220, 5717.000
222.2400, 5681.000
223.4590, 5672.000
224.6770, 5769.000
225.8950, 5792.000
227.1120, 5812.000
228.3300, 5819.000
229.5480, 5830.000
230.7650, 5881.000
231.9820, 5869.000
233.1990, 5898.000
234.4160, 5930.971
235.6330, 5914.000
236.8490, 5966.000
238.0660, 6012.000
239.2820, 5965.000
240.4980, 5975.000
241.7140, 5970.000
242.9300, 6013.000
244.1460, 5996.000
245.3610, 6065.000
246.5770, 6081.000
247.7920, 6049.000
249.0070, 6112.000
250.2220, 6039.000
251.4370, 6164.000
252.6510, 6201.000
253.8660, 6236.000
255.0800, 6206.000
256.2940, 6225.000
257.5080, 6274.000
258.7220, 6376.000
259.9360, 6353.000
261.1490, 6365.000
262.3630, 6340.000
263.5760, 6484.000
264.7890, 6391.000
266.0020, 6501.000
267.2150, 6505.000
268.4270, 6521.000
269.6400, 6485.000
270.8520, 6506.000
272.0640, 6550.000
273.2760, 6578.000
274.4880, 6537.000
275.7000, 6660.000
276.9120, 6644.000
278.1230, 6702.000
279.3340, 6632.000
280.5450, 6648.000
281.7560, 6711.000
282.9670, 6688.000
284.1780, 6733.000
285.3880, 6730.000
286.5980, 6759.478
287.8090, 6715.000
289.0190, 6815.000
290.2290, 6826.000
291.4380, 6832.000
292.6480, 7005.000
293.8570, 6949.000
295.0670, 6949.000
296.2760, 7048.000
297.4850, 6984.000
298.6930, 7047.000
299.9020, 7041.000
301.1110, 7171.000
302.3190, 7052.000
303.5270, 7260.000
304.7350, 7144.000
305.9430, 7243.000
307.1510, 7257.000
308.3580, 7186.000
309.5660, 7318.000
310.7730, 7239.000
311.9800, 7317.000
313.1870, 7315.000
314.3940, 7332.000
315.6010, 7340.810
316.8070, 7345.949
318.0130, 7343.000
319.2200, 7354.000
320.4260, 7402.000
321.6310, 7397.000
322.8370, 7399.000
324.0430, 7333.000
325.2480, 7456.000
326.4540, 7537.000
327.6590, 7452.000
328.8640, 7522.000
330.0680, 7481.000
331.2730, 7419.000
332.4780, 7677.000
333.6820, 7661.000
334.8860, 7713.000
336.0900, 7652.000
337.2940, 7728.000
338.4980, 7705.000
339.7010, 7778.000
340.9050, 7807.000
342.1080, 7799.000
343.3110, 7805.000
344.5140, 7870.000
345.7170, 7779.000
346.9200, 7946.000
348.1220, 7849.000
349.3240, 7950.000
350.5270, 7949.000
351.7290, 8176.000
352.9310, 8051.000
354.1320, 8089.000
355.3340, 8120.000
356.5350, 8091.000
357.7370, 8082.000
358.9380, 8212.000
360.1390, 8157.000
361.3400, 8287.000
362.5400, 8263.000
363.7410, 8321.000
364.9410, 8320.000
366.1410, 8368.000
367.3410, 8393.321
368.5410, 8324.000
369.7410, 8453.000
370.9400, 8356.000
372.1400, 8387.000
373.3390, 8515.000
374.5380, 8444.000
375.7370, 8431.000
376.9360, 8508.000
378.1350, 8498.000
379.3330, 8542.781
380.5310, 8557.000
381.7300, 8633.000
382.9280, 8696.000
384.1260, 8771.416
385.3230, 8720.000
386.5210, 8846.000
387.7180, 8730.000
388.9160, 8730.000
390.1130, 8752.000
391.3100, 8913.000
392.5060, 8863.000
393.7030, 8918.000
394.9000, 8941.000
396.0960, 8895.000
397.2920, 9030.000
398.4880, 8923.000
399.6840, 9018.000
400.8800, 9011.000
402.0750, 9091.000
403.2710, 9186.000
404.4660, 9091.000
405.6610, 9294.000
406.8560, 9211.000
408.0510, 9233.000
409.2450, 9376.000
410.4400, 9283.000
411.6340, 9384.000
412.8280, 9379.000
414.0220, 9552.000
415.2160, 9493.000
416.4100, 9421.000
417.6030, 9589.000
418.7970, 9517.000
419.9900, 9680.000
421.1830, 9732.000
422.3760, 9711.000
423.5690, 9754.000
424.7610, 9903.000
425.9540, 9991.000
427.1460, 9981.000
428.3380, 9961.000
429.5300, 10010.00
430.7220, 10046.00
431.9140, 10084.00
433.1050, 10169.00
434.2970, 10149.00
435.4880, 10205.36
436.6790, 10118.00
437.8700, 10254.00
439.0610, 10202.00
440.2510, 10197.00
441.4420, 10212.00
442.6320, 10240.00
443.8220, 10344.00
445.0120, 10332.00
446.2020, 10442.00
447.3910, 10456.00
448.5810, 10418.00
449.7700, 10561.00
450.9600, 10477.00
452.1490, 10483.00
453.3370, 10487.00
454.5260, 10506.00
455.7150, 10492.00
456.9030, 10417.00
458.0910, 10459.54
459.2800, 10462.15
460.4670, 10547.00
461.6550, 10505.00
462.8430, 10662.00
464.0300, 10633.00
465.2180, 10718.00
466.4050, 10692.00
467.5920, 10814.00
468.7790, 10706.00
469.9650, 10824.00
471.1520, 10826.00
472.3380, 10909.00
473.5250, 10935.00
474.7110, 10980.18
475.8970, 11013.72
477.0820, 11094.00
478.2680, 11042.00
479.4540, 11136.00
480.6390, 11120.00
481.8240, 11159.00
483.0090, 11077.00
484.1940, 11261.00
485.3780, 11126.00
486.5630, 11295.00
487.7470, 11317.00
488.9320, 11252.00
490.1160, 11276.00
491.3000, 11454.00
492.4830, 11319.00
493.6670, 11327.00
494.8500, 11454.00
496.0340, 11288.00
497.2170, 11417.00
498.4000, 11500.00
499.5820, 11461.00
500.7650, 11557.00
501.9480, 11790.00
503.1300, 11586.00
504.3120, 11533.00
505.4940, 11747.00
506.6760, 11718.00
507.8580, 11823.00
509.0390, 11898.00
510.2210, 11767.00
511.4020, 11968.00
512.5830, 11890.00
513.7640, 11893.00
514.9450, 11901.00
516.1250, 11865.00
517.3060, 12041.00
518.4860, 12180.00
519.6660, 12143.00
520.8460, 12263.52
522.0260, 12148.00
523.2060, 12280.00
524.3850, 12272.00
525.5650, 12137.00
526.7440, 12342.00
527.9230, 12291.00
529.1020, 12263.00
530.2810, 12428.00
531.4590, 12484.00
532.6380, 12459.00
533.8160, 12606.00
534.9940, 12667.00
536.1720, 12629.00
537.3500, 12622.00
538.5270, 12634.00
539.7050, 12672.00
540.8820, 12689.00
542.0590, 12798.00
543.2360, 12870.00
544.4130, 12790.00
545.5900, 12881.00
546.7660, 13001.00
547.9430, 13134.00
549.1190, 13169.67
550.2950, 12984.00
551.4710, 13176.00
552.6470, 13184.00
553.8220, 13029.00
554.9980, 13180.00
556.1730, 13278.00
557.3480, 13243.00
558.5230, 13291.00
559.6980, 13315.00
560.8730, 13377.00
562.0470, 13374.00
563.2220, 13483.00
564.3960, 13414.00
565.5700, 13508.00
566.7440, 13471.00
567.9170, 13631.00
569.0910, 13518.00
570.2640, 13718.00
571.4380, 13834.00
572.6110, 13847.00
573.7840, 13800.00
574.9570, 14042.00
576.1290, 13939.00
577.3020, 13980.00
578.4740, 14121.00
579.6460, 14257.00
580.8180, 14157.00
581.9900, 14125.00
583.1620, 14445.00
584.3330, 14276.00
585.5040, 14380.00
586.6760, 14454.00
587.8470, 14642.00
589.0180, 14604.00
590.1880, 14800.00
591.3590, 14634.00
592.5290, 14664.00
593.7000, 14666.00
594.8700, 14485.00
596.0400, 14679.00
597.2090, 14745.00
598.3790, 14597.00
599.5490, 14708.00
600.7180, 14793.00
601.8870, 14842.00
603.0560, 14900.62
604.2250, 14974.00
605.3940, 14947.00
606.5620, 14981.00
607.7300, 14960.95
608.8990, 15028.00
610.0670, 15025.00
611.2350, 15081.00
612.4020, 15208.00
613.5700, 15189.00
614.7370, 15138.00
615.9050, 15042.00
617.0720, 15162.00
618.2390, 15345.00
619.4060, 15235.00
620.5720, 15285.00
621.7390, 15418.00
622.9050, 15385.00
624.0710, 15464.00
625.2370, 15377.00
626.4030, 15507.00
627.5690, 15470.00
628.7340, 15460.00
629.9000, 15497.00
631.0650, 15505.75
632.2300, 15574.95
633.3950, 15601.00
634.5600, 15699.00
635.7240, 15795.00
636.8890, 15788.00
638.0530, 15757.00
639.2170, 16057.00
640.3810, 15936.00
641.5450, 16022.00
642.7080, 15937.00
643.8720, 16102.00
645.0350, 16272.00
646.1980, 16122.00
647.3610, 15974.00
648.5240, 16223.00
649.6870, 16344.00
650.8490, 16285.00
652.0120, 16352.00
653.1740, 16380.00
654.3360, 16490.00
655.4980, 16474.42
656.6600, 16665.00
657.8210, 16492.00
658.9830, 16542.00
660.1440, 16609.00
661.3050, 16480.00
662.4660, 16801.00
663.6270, 16738.00
664.7870, 16877.00
665.9480, 16916.00
667.1080, 16870.00
668.2680, 17010.00
669.4280, 16988.00
670.5880, 17124.00
671.7480, 17106.00
672.9070, 17088.00
674.0670, 17224.00
675.2260, 17188.00
676.3850, 17309.00
677.5440, 17375.00
678.7030, 17257.00
679.8610, 17437.00
681.0200, 17441.00
682.1780, 17478.00
683.3360, 17501.00
684.4940, 17524.34
685.6520, 17566.64
686.8090, 17594.00
687.9670, 17651.00
689.1240, 17720.00
690.2810, 17773.00
691.4380, 17710.00
692.5950, 17828.00
693.7520, 17936.00
694.9080, 17889.00
696.0650, 18012.00
697.2210, 17968.00
698.3770, 18111.00
699.5330, 18080.00
700.6880, 18127.00
701.8440, 18120.00
702.9990, 18463.00
704.1550, 18193.00
705.3100, 18464.00
706.4650, 18461.00
707.6190, 18338.00
708.7740, 18464.00
709.9290, 18420.00
711.0830, 18331.00
712.2370, 18648.00
713.3910, 18650.00
714.5450, 18617.00
715.6980, 18780.00
716.8520, 18738.00
718.0050, 18684.00
719.1580, 18832.00
720.3110, 18952.00
721.4640, 18938.00
722.6170, 18986.00
723.7700, 19162.00
724.9220, 19187.00
726.0740, 19131.00
727.2260, 19240.00
728.3780, 19345.00
729.5300, 19285.00
730.6810, 19278.00
731.8330, 19259.00
732.9840, 19291.93
734.1350, 19501.00
735.2860, 19378.00
736.4370, 19619.00
737.5880, 19643.00
738.7380, 19579.00
739.8880, 19712.00
741.0390, 19685.00
742.1890, 19821.00
743.3380, 19908.00
744.4880, 19990.00
745.6380, 19858.00
746.7870, 19897.00
747.9360, 19972.00
749.0850, 20192.00
750.2340, 20085.00
751.3830, 20144.00
752.5310, 20130.00
753.6800, 20414.00
754.8280, 20368.00
755.9760, 20441.00
757.1240, 20218.00
758.2720, 20309.00
759.4190, 20324.00
760.5670, 20526.00
761.7140, 20563.00
762.8610, 20656.00
764.0080, 20642.00
765.1550, 20732.00
766.3020, 20683.00
767.4480, 20813.00
768.5950, 20655.00
769.7410, 20821.00
770.8870, 20996.00
772.0330, 20876.00
773.1780, 21088.00
774.3240, 21022.00
775.4690, 21025.00
776.6140, 21187.00
777.7590, 21143.00
778.9040, 21297.00
780.0490, 21420.00
781.1940, 21246.00
782.3380, 21408.00
783.4820, 21425.00
784.6260, 21448.00
785.7700, 21788.00
786.9140, 21463.00
788.0580, 21695.00
789.2010, 21711.00
790.3450, 21613.00
791.4880, 21692.00
792.6310, 21685.00
793.7730, 21905.00
794.9160, 22096.00
796.0590, 21940.00
797.2010, 21969.00
798.3430, 21951.00
799.4850, 22005.00
800.6270, 22029.00
801.7690, 22145.00
802.9100, 22289.00
804.0520, 22315.00
805.1930, 22338.00
806.3340, 22461.00
807.4750, 22377.00
808.6160, 22575.00
809.7560, 22591.00
810.8970, 22682.00
812.0370, 22869.00
813.1770, 22663.00
814.3170, 22913.00
815.4570, 22987.00
816.5960, 22654.00
817.7360, 22896.00
818.8750, 22923.00
820.0140, 23092.00
821.1530, 23064.00
822.2920, 23048.00
823.4310, 23135.00
824.5690, 23161.55
825.7070, 23334.00
826.8460, 23248.00
827.9840, 23439.00
829.1220, 23360.00
830.2590, 23483.00
831.3970, 23616.00
832.5340, 23576.00
833.6710, 23641.00
834.8080, 23599.00
835.9450, 23633.95
837.0820, 23651.00
838.2190, 23709.00
839.3550, 23813.00
840.4910, 23904.00
841.6270, 23932.16
842.7630, 24061.00
843.8990, 24004.00
845.0350, 24114.00
846.1700, 24186.00
847.3060, 24126.00
848.4410, 24223.00
849.5760, 24328.00
850.7100, 24216.00
851.8450, 24635.00
852.9800, 24425.00
854.1140, 24622.00
855.2480, 24570.00
856.3820, 24520.00
857.5160, 24673.00
858.6500, 24746.00
859.7830, 24870.00
860.9170, 24789.00
862.0500, 24811.00
863.1830, 25002.00
864.3160, 24946.00
865.4480, 25065.00
866.5810, 25256.00
867.7130, 25446.00
868.8460, 25254.00
869.9780, 25422.00
871.1100, 25397.00
872.2410, 25504.00
873.3730, 25490.00
874.5050, 25434.00
875.6360, 25536.00
876.7670, 25590.00
877.8980, 25689.00
879.0290, 25627.00
880.1590, 25686.00
881.2900, 25654.00
882.4200, 25693.00
883.5500, 25731.56
884.6800, 25837.00
885.8100, 25890.00
886.9400, 25964.00
888.0690, 26199.00
889.1990, 26039.00
890.3280, 26030.00
891.4570, 26387.00
892.5860, 26118.00
893.7140, 26321.00
894.8430, 26572.00
895.9710, 26247.00
897.1000, 26532.00
898.2280, 26357.00
899.3560, 26628.00
900.4830, 26794.00
901.6110, 26769.00
902.7380, 26765.00
903.8660, 26683.00
904.9930, 26753.00
906.1200, 26815.00
907.2460, 27053.00
908.3730, 27011.00
909.5000, 27190.00
910.6260, 27123.00
911.7520, 27322.00
912.8780, 27255.00
914.0040, 27239.00
915.1290, 27432.00
916.2550, 27159.00
917.3800, 27364.00
918.5050, 27301.00
919.6300, 27506.00
920.7550, 27423.00
921.8800, 27564.00
923.0040, 27733.00
924.1290, 27626.00
925.2530, 27661.00
926.3770, 27952.00
927.5010, 27892.00
928.6250, 27968.00
929.7480, 27950.00
930.8720, 28008.51
931.9950, 28272.00
933.1180, 28110.00
934.2410, 28156.00
935.3640, 28136.00
936.4860, 28387.00
937.6090, 28633.00
938.7310, 28534.00
939.8530, 28568.00
940.9750, 28646.00
942.0970, 28727.00
943.2180, 28874.00
944.3400, 28993.00
945.4610, 28964.00
946.5820, 29120.00
947.7030, 28961.00
948.8240, 29191.00
949.9450, 29164.00
951.0650, 29471.00
952.1860, 29501.00
953.3060, 29530.00
954.4260, 29718.00
955.5460, 30176.00
956.6650, 30429.00
957.7850, 30830.00
958.9040, 31956.00
960.0230, 33058.00
961.1420, 34038.00
962.2610, 35625.00
963.3800, 36752.00
964.4990, 36890.00
965.6170, 36497.00
966.7350, 34908.00
967.8530, 33664.00
968.9710, 32252.00
970.0890, 31351.00
971.2070, 30849.00
972.3240, 30546.00
973.4410, 30629.00
974.5580, 30745.00
975.6750, 30282.00
976.7920, 30273.00
977.9090, 30566.00
979.0250, 30801.00
980.1410, 30426.00
981.2580, 30791.00
982.3740, 30674.00
983.4890, 30888.00
984.6050, 30796.00
985.7200, 30802.00
986.8360, 30806.00
987.9510, 30792.00
989.0660, 30892.00
990.1810, 30945.00
991.2950, 31168.00
992.4100, 31156.00
993.5240, 31162.00
994.6390, 31183.00
995.7530, 31188.00
996.8660, 31288.00
997.9800, 31407.00
999.0940, 31353.00
1000.207, 31605.00
1001.320, 31569.00
1002.433, 31556.00
1003.546, 31567.00
1004.659, 31707.00
1005.772, 31789.00
1006.884, 31801.79
1007.996, 31775.00
1009.108, 31873.00
1010.220, 31911.46
1011.332, 32130.00
1012.444, 32079.00
1013.555, 32181.00
1014.666, 32284.00
1015.777, 32200.00
1016.888, 32208.00
1017.999, 32306.00
1019.110, 32253.00
1020.220, 32468.00
1021.331, 32683.00
1022.441, 32518.00
1023.551, 32532.00
1024.661, 32836.00
1025.770, 32797.00
1026.880, 32798.00
1027.989, 32938.00
1029.098, 33100.00
1030.207, 33032.00
1031.316, 33103.00
1032.425, 33270.00
1033.533, 33197.00
1034.642, 33543.00
1035.750, 33464.00
1036.858, 33557.00
1037.966, 33757.00
1039.073, 33847.00
1040.181, 33830.00
1041.288, 33770.00
1042.396, 33684.00
1043.503, 33752.00
1044.610, 33929.00
1045.716, 33945.00
1046.823, 34166.00
1047.929, 33977.00
1049.036, 34120.00
1050.142, 34396.00
1051.248, 34695.00
1052.353, 34836.00
1053.459, 34863.00
1054.564, 34828.00
1055.670, 34901.00
1056.775, 34579.00
1057.880, 34676.00
1058.985, 34591.00
1060.089, 34678.00
1061.194, 34615.00
1062.298, 34691.00
1063.402, 34863.00
1064.506, 34861.00
1065.610, 34746.00
1066.713, 34955.00
1067.817, 35057.00
1068.920, 34906.00
1070.023, 34965.00
1071.126, 35142.00
1072.229, 35189.00
1073.332, 35294.00
1074.435, 35382.00
1075.537, 35431.00
1076.639, 35421.00
1077.741, 35652.00
1078.843, 35525.00
1079.945, 35831.00
1081.046, 35740.00
1082.148, 36049.00
1083.249, 36041.00
1084.350, 35963.00
1085.451, 35866.00
1086.551, 35879.00
1087.652, 35850.00
1088.752, 36147.00
1089.853, 35859.00
1090.953, 36071.00
1092.053, 35975.00
1093.152, 36154.00
1094.252, 36338.00
1095.351, 36241.00
1096.451, 36485.00
1097.550, 36318.00
1098.649, 36108.00
1099.748, 36460.00
1100.846, 36607.00
1101.945, 36889.00
1103.043, 36745.00
1104.141, 36591.00
1105.239, 36589.00
1106.337, 36864.00
1107.434, 37058.00
1108.532, 37125.00
1109.629, 36998.00
1110.726, 37028.00
1111.823, 36980.00
1112.920, 37153.00
1114.017, 37528.00
1115.113, 37222.00
1116.210, 37456.00
1117.306, 37587.00
1118.402, 37501.00
1119.498, 37520.00
1120.593, 37735.00
1121.689, 37438.00
1122.784, 37719.00
1123.879, 37666.00
1124.974, 37874.00
1126.069, 37744.00
1127.164, 37905.00
1128.259, 38026.00
1129.353, 37911.00
1130.447, 37945.00
1131.541, 38225.00
1132.635, 38319.00
1133.729, 38493.00
1134.822, 38203.00
1135.916, 38097.00
1137.009, 38107.00
1138.102, 38393.00
1139.195, 38668.00
1140.288, 38667.00
1141.380, 38825.00
1142.473, 38837.00
1143.565, 38710.00
1144.657, 38605.00
1145.749, 38869.00
1146.841, 38943.00
1147.932, 38851.00
1149.024, 38975.00
1150.115, 39110.00
1151.206, 39301.00
1152.297, 39539.00
1153.388, 39584.62
1154.479, 39480.00
1155.569, 39660.00
1156.659, 39451.00
1157.750, 39356.00
1158.839, 39505.00
1159.929, 39630.00
1161.019, 39670.00
1162.108, 39904.00
1163.198, 39676.00
1164.287, 39572.00
1165.376, 39994.00
1166.465, 40006.00
1167.553, 40263.00
1168.642, 40067.00
1169.730, 40046.00
1170.818, 40296.00
1171.906, 39984.00
1172.994, 40205.00
1174.082, 40567.00
1175.170, 40493.00
1176.257, 40487.00
1177.344, 40738.00
1178.431, 40519.00
1179.518, 40686.00
1180.605, 40698.00
1181.691, 40700.00
1182.778, 41030.00
1183.864, 40883.00
1184.950, 41028.00
1186.036, 40942.00
1187.122, 41127.00
1188.207, 40904.00
1189.292, 41179.00
1190.378, 41191.00
1191.463, 41347.00
1192.548, 41198.00
1193.632, 40958.00
1194.717, 41561.00
1195.801, 41395.00
1196.886, 41486.00
1197.970, 41272.00
1199.054, 41595.00
1200.137, 41595.00
1201.221, 41700.00
1202.305, 41816.00
1203.388, 41766.00
1204.471, 41926.00
1205.554, 41893.00
1206.637, 41955.00
1207.719, 42117.00
1208.802, 42059.00
1209.884, 42103.00
1210.966, 42221.76
1212.048, 42152.00
1213.130, 42399.00
1214.212, 42338.00
1215.293, 42340.00
1216.374, 42289.00
1217.456, 42331.46
1218.536, 42761.00
1219.617, 42513.00
1220.698, 42518.00
1221.778, 42784.00
1222.859, 42553.00
1223.939, 42738.00
1225.019, 42852.00
1226.099, 42924.00
1227.178, 43043.00
1228.258, 43102.70
1229.337, 43127.00
1230.417, 43245.00
1231.496, 43185.00
1232.574, 43287.00
1233.653, 43214.00
1234.732, 43541.00
1235.810, 43521.00
1236.888, 43748.00
1237.966, 43699.00
1239.044, 43457.00
1240.122, 43530.00
1241.199, 43473.00
1242.277, 43806.00
1243.354, 43605.00
1244.431, 43814.00
1245.508, 44129.00
1246.585, 44043.00
1247.661, 43807.00
1248.738, 44421.00
1249.814, 44132.00
1250.890, 44148.00
1251.966, 44225.00
1253.042, 44092.00
1254.117, 44136.00
1255.193, 44355.00
1256.268, 44490.00
1257.343, 44574.92
1258.418, 44368.00
1259.493, 44666.00
1260.567, 44645.00
1261.642, 44468.00
1262.716, 44971.00
1263.790, 44901.00
1264.864, 44755.00
1265.938, 45078.00
1267.011, 44667.00
1268.085, 44783.00
1269.158, 45039.00
1270.231, 44804.00
1271.304, 45124.00
1272.377, 45285.00
1273.450, 45298.00
1274.522, 45303.00
1275.594, 45414.00
1276.666, 45175.00
1277.738, 45308.00
1278.810, 45241.00
1279.882, 45540.00
1280.953, 45373.00
1282.025, 45689.00
1283.096, 45523.00
1284.167, 45550.00
1285.238, 45772.00
1286.308, 45615.00
1287.379, 45943.00
1288.449, 45721.00
1289.519, 45803.00
1290.589, 45910.00
1291.659, 45795.00
1292.729, 45894.00
1293.798, 45879.00
1294.868, 45979.00
1295.937, 45905.00
1297.006, 45967.00
1298.075, 45912.00
1299.143, 45994.89
1300.212, 46220.00
1301.280, 46251.00
1302.348, 46228.00
1303.416, 46520.00
1304.484, 46429.00
1305.552, 46908.00
1306.620, 46652.00
1307.687, 46867.00
1308.754, 46822.00
1309.821, 47267.00
1310.888, 47158.00
1311.955, 47080.00
1313.021, 47259.00
1314.088, 47254.00
1315.154, 47242.00
1316.220, 47478.00
1317.286, 47532.00
1318.352, 47387.00
1319.417, 47381.00
1320.483, 47564.00
1321.548, 47796.00
1322.613, 47447.00
1323.678, 47767.00
1324.743, 47766.00
1325.807, 47929.00
1326.872, 47856.00
1327.936, 47852.00
1329.000, 48046.00
1330.064, 48240.00
1331.128, 48313.00
1332.191, 48346.46
1333.255, 48317.00
1334.318, 48302.00
1335.381, 48425.00
1336.444, 48456.00
1337.507, 48464.00
1338.569, 48736.00
1339.632, 48664.00
1340.694, 48632.00
1341.756, 48415.00
1342.818, 48575.00
1343.880, 48583.00
1344.941, 48629.88
1346.003, 48672.00
1347.064, 48791.00
1348.125, 48955.00
1349.186, 48949.00
1350.247, 48902.00
1351.308, 49212.00
1352.368, 49160.00
1353.428, 49415.00
1354.489, 49250.00
1355.549, 49359.00
1356.608, 49276.00
1357.668, 49396.00
1358.727, 49125.00
1359.787, 49580.00
1360.846, 49238.00
1361.905, 49476.00
1362.964, 49596.00
1364.022, 49888.00
1365.081, 49673.00
1366.139, 49776.00
1367.197, 49826.00
1368.255, 49871.00
1369.313, 49905.00
1370.371, 49965.55
1371.428, 50117.00
1372.486, 50071.00
1373.543, 50231.00
1374.600, 50275.00
1375.657, 50410.00
1376.713, 50309.00
1377.770, 50190.00
1378.826, 50329.00
1379.882, 50382.00
1380.938, 50266.00
1381.994, 50330.00
1383.050, 50319.00
1384.106, 50199.00
1385.161, 50723.00
1386.216, 50815.00
1387.271, 50577.00
1388.326, 50860.00
1389.381, 50757.00
1390.435, 50994.00
1391.490, 50831.00
1392.544, 50868.00
1393.598, 51044.00
1394.652, 50608.00
1395.705, 51256.00
1396.759, 51276.00
1397.812, 51139.00
1398.866, 51047.00
1399.919, 50863.00
1400.972, 51092.00
1402.024, 51256.00
1403.077, 51618.00
1404.129, 51394.00
1405.181, 51738.00
1406.233, 51214.00
1407.285, 51591.00
1408.337, 51843.00
1409.389, 51626.00
1410.440, 51554.00
1411.491, 51519.00
1412.542, 51792.00
1413.593, 51747.00
1414.644, 51841.00
1415.695, 51913.00
1416.745, 51872.00
1417.795, 51894.00
1418.845, 52201.00
1419.895, 52015.00
1420.945, 51983.00
1421.995, 51957.00
1423.044, 52383.00
1424.093, 52303.00
1425.142, 52525.00
1426.191, 52570.00
1427.240, 52374.00
1428.289, 52361.00
1429.337, 52415.00
1430.385, 52661.00
1431.433, 52421.00
1432.481, 52531.00
1433.529, 52407.00
1434.577, 52905.00
1435.624, 52567.00
1436.672, 52898.00
1437.719, 52614.00
1438.766, 52882.00
1439.812, 52635.00
1440.859, 52720.80
1441.905, 52967.00
1442.952, 52763.00
1443.998, 53189.00
1445.044, 53091.00
1446.090, 53282.00
1447.135, 53036.00
1448.181, 53061.00
1449.226, 53253.00
1450.271, 53422.00
1451.316, 53270.00
1452.361, 53656.00
1453.405, 53605.00
1454.450, 53380.00
1455.494, 53640.00
1456.538, 53292.00
1457.582, 53724.00
1458.626, 53705.00
1459.670, 53812.00
1460.713, 53822.00
1461.757, 53891.00
1462.800, 54054.00
1463.843, 53812.00
1464.886, 54017.00
1465.928, 54065.00
1466.971, 53884.00
1468.013, 54291.00
1469.055, 54424.00
1470.097, 54431.00
1471.139, 54089.00
1472.181, 54484.00
1473.222, 54670.00
1474.263, 54386.00
1475.305, 54545.00
1476.346, 54678.00
1477.386, 54527.00
1478.427, 54586.00
1479.468, 54487.00
1480.508, 54734.00
1481.548, 54839.00
1482.588, 54913.00
1483.628, 54766.00
1484.668, 54833.00
1485.707, 54840.95
1486.747, 54977.00
1487.786, 54924.00
1488.825, 54879.00
1489.864, 54950.00
1490.902, 54940.41
1491.941, 55012.55
1492.979, 55089.00
1494.017, 55142.00
1495.055, 55254.07
1496.093, 55368.00
1497.131, 55459.00
1498.168, 55543.12
1499.206, 55596.50
1500.243, 55678.66
1501.280, 55722.00
1502.317, 55767.00
1503.354, 55724.00
1504.390, 55618.00
1505.426, 55680.00
1506.463, 55629.00
1507.499, 56014.00
1508.535, 55820.00
1509.570, 55959.00
1510.606, 55804.00
1511.641, 55872.00
1512.676, 55808.00
1513.711, 55862.65
1514.746, 56091.00
1515.781, 56087.00
1516.816, 56065.00
1517.850, 56313.00
1518.884, 56413.00
1519.918, 56396.00
1520.952, 56596.00
1521.986, 56401.00
1523.019, 56773.00
1524.053, 56578.00
1525.086, 56687.00
1526.119, 56467.00
1527.152, 56725.00
1528.185, 56855.00
1529.217, 56735.00
1530.250, 56638.00
1531.282, 56867.00
1532.314, 56823.00
1533.346, 56796.00
1534.377, 57040.00
1535.409, 57145.00
1536.440, 57021.00
1537.472, 56770.00
1538.503, 57242.00
1539.534, 56961.00
1540.564, 56907.00
1541.595, 57324.00
1542.625, 57435.00
1543.656, 57358.00
1544.686, 57351.00
1545.716, 57336.00
1546.745, 57361.20
1547.775, 57446.00
1548.804, 57473.00
1549.834, 57575.00
1550.863, 57662.00
1551.892, 57692.00
1552.920, 57729.11
1553.949, 57729.25
1554.977, 57762.00
1556.006, 57641.00
1557.034, 57697.00
1558.062, 57556.00
1559.089, 57811.00
1560.117, 58034.00
1561.144, 58160.00
1562.172, 58151.00
1563.199, 57962.00
1564.226, 58266.00
1565.252, 58118.00
1566.279, 58446.00
1567.305, 58274.00
1568.332, 58095.00
1569.358, 58332.00
1570.384, 58581.00
1571.409, 58711.00
##END=



