##NAMES=Fluor-buergerite
##RRUFFID=R060132
##IDEAL CHEMISTRY=NaFe^3+^_3_Al_6_(Si_6_O_18_)(BO_3_)_3_O_3_F
##LOCALITY=20 km. south of San Luis Potasi, Mexico
##OWNER=RRUFF
##SOURCE=University of Arizona Mineral Museum
##DESCRIPTION=Brown short prismatic
##STATUS=The identification of this mineral has been confirmed by X-ray diffraction and chemical analysis
##URL=rruff.info/R060132
##MEASURED CHEMISTRY=(Na_0.87_Ca_0.03_[box]_0.10_)(Fe^3+^_0.82_Al_0.12_Mg_0.04_Ti_0.02_)_3_Al_6_(BO_3_)_3_(Si_0.98_Al_0.02_)_6_O_18_(O_0.66_F_0.19_(OH)_0.15_)_4_
##PIN_ID=L00828
##ORIENTATION=Laser parallel to -c* (0 0 -1). Fiducial mark perpendicular to laser is parallel to -a [-1 0 0]
131.6680, 8622.000
132.8980, 8536.000
134.1270, 8567.000
135.3560, 8573.000
136.5850, 8721.000
137.8140, 8748.000
139.0430, 8963.000
140.2710, 9048.000
141.5000, 9148.000
142.7280, 9456.000
143.9560, 9316.390
145.1840, 8917.000
146.4120, 9085.000
147.6390, 9358.000
148.8670, 9154.000
150.0940, 9398.000
151.3210, 9491.000
152.5490, 9925.000
153.7750, 10005.00
155.0020, 9975.000
156.2290, 9973.000
157.4550, 9971.000
158.6810, 9864.000
159.9080, 9855.000
161.1340, 9785.000
162.3590, 9994.000
163.5850, 10048.00
164.8110, 10297.00
166.0360, 10480.00
167.2610, 10454.00
168.4860, 10381.00
169.7110, 10638.00
170.9360, 10756.00
172.1610, 10837.00
173.3850, 10706.00
174.6100, 10864.00
175.8340, 10996.00
177.0580, 10916.00
178.2820, 11056.00
179.5050, 11287.00
180.7290, 11335.00
181.9520, 11227.00
183.1760, 11437.00
184.3990, 11505.00
185.6220, 11448.00
186.8450, 11723.00
188.0670, 11484.00
189.2900, 11679.00
190.5120, 11576.00
191.7340, 11711.00
192.9560, 11836.00
194.1780, 11797.00
195.4000, 11882.00
196.6220, 11869.00
197.8430, 11892.00
199.0640, 11855.00
200.2860, 12103.00
201.5070, 12345.00
202.7270, 12406.00
203.9480, 12025.00
205.1690, 11428.00
206.3890, 11064.00
207.6090, 10571.00
208.8290, 10483.00
210.0490, 10459.00
211.2690, 10502.00
212.4890, 10448.00
213.7080, 10385.00
214.9280, 10382.00
216.1470, 10222.00
217.3660, 10310.00
218.5850, 10382.00
219.8030, 10191.00
221.0220, 10208.00
222.2400, 10288.00
223.4590, 10321.00
224.6770, 10288.00
225.8950, 10366.00
227.1120, 10308.00
228.3300, 10393.00
229.5480, 10384.00
230.7650, 10429.00
231.9820, 10460.00
233.1990, 10529.00
234.4160, 10609.86
235.6330, 10605.00
236.8490, 10809.00
238.0660, 10936.00
239.2820, 11051.00
240.4980, 11277.00
241.7140, 11280.00
242.9300, 11446.00
244.1460, 11544.00
245.3610, 11697.00
246.5770, 11887.90
247.7920, 12031.28
249.0070, 12362.00
250.2220, 12394.00
251.4370, 12774.00
252.6510, 13002.00
253.8660, 13428.00
255.0800, 13806.00
256.2940, 14211.00
257.5080, 14576.00
258.7220, 15170.00
259.9360, 15237.12
261.1490, 15720.00
262.3630, 15414.00
263.5760, 15463.00
264.7890, 15494.00
266.0020, 15505.00
267.2150, 15594.81
268.4270, 15635.62
269.6400, 15797.00
270.8520, 15787.00
272.0640, 15954.00
273.2760, 16075.00
274.4880, 16319.00
275.7000, 16461.00
276.9120, 16376.00
278.1230, 16285.00
279.3340, 16116.00
280.5450, 15823.00
281.7560, 15505.00
282.9670, 15281.00
284.1780, 15047.00
285.3880, 14794.00
286.5980, 14685.45
287.8090, 14573.79
289.0190, 14533.00
290.2290, 14530.00
291.4380, 14577.00
292.6480, 14539.83
293.8570, 14539.16
295.0670, 14497.00
296.2760, 14518.00
297.4850, 14452.00
298.6930, 14483.00
299.9020, 14567.00
301.1110, 14640.00
302.3190, 14498.00
303.5270, 14171.00
304.7350, 14163.00
305.9430, 13962.00
307.1510, 13847.00
308.3580, 13573.00
309.5660, 13882.00
310.7730, 13858.00
311.9800, 13784.00
313.1870, 13937.00
314.3940, 14062.00
315.6010, 14151.00
316.8070, 14362.00
318.0130, 14464.00
319.2200, 14581.00
320.4260, 14895.00
321.6310, 15132.00
322.8370, 15142.00
324.0430, 15288.00
325.2480, 15515.00
326.4540, 15580.00
327.6590, 15567.00
328.8640, 15596.00
330.0680, 15608.00
331.2730, 15521.00
332.4780, 15495.77
333.6820, 15499.00
334.8860, 15315.00
336.0900, 15268.00
337.2940, 15102.00
338.4980, 15175.00
339.7010, 15147.00
340.9050, 15390.00
342.1080, 15375.00
343.3110, 15541.00
344.5140, 15710.00
345.7170, 15731.00
346.9200, 15908.00
348.1220, 16186.00
349.3240, 16216.00
350.5270, 16244.00
351.7290, 16295.00
352.9310, 16178.00
354.1320, 16265.00
355.3340, 16030.00
356.5350, 16050.00
357.7370, 15966.00
358.9380, 15724.00
360.1390, 15909.00
361.3400, 15649.00
362.5400, 15470.00
363.7410, 15594.00
364.9410, 15415.00
366.1410, 15238.00
367.3410, 15533.00
368.5410, 15410.00
369.7410, 15366.00
370.9400, 15136.00
372.1400, 15268.00
373.3390, 15181.00
374.5380, 15199.00
375.7370, 15190.00
376.9360, 15143.00
378.1350, 15231.00
379.3330, 15288.00
380.5310, 15144.00
381.7300, 15038.00
382.9280, 15178.00
384.1260, 15185.00
385.3230, 15536.00
386.5210, 15606.00
387.7180, 15740.00
388.9160, 15951.00
390.1130, 16196.36
391.3100, 16559.00
392.5060, 16801.00
393.7030, 17247.00
394.9000, 17531.00
396.0960, 17789.00
397.2920, 18367.00
398.4880, 18453.00
399.6840, 18800.00
400.8800, 18963.00
402.0750, 19059.00
403.2710, 19105.00
404.4660, 19128.00
405.6610, 18961.00
406.8560, 18890.00
408.0510, 18594.00
409.2450, 18388.00
410.4400, 17967.00
411.6340, 17805.00
412.8280, 17487.00
414.0220, 16794.00
415.2160, 16543.00
416.4100, 16094.00
417.6030, 15662.00
418.7970, 15474.00
419.9900, 15407.00
421.1830, 15070.00
422.3760, 14915.00
423.5690, 14631.00
424.7610, 14546.00
425.9540, 14623.00
427.1460, 14604.57
428.3380, 14622.85
429.5300, 14760.00
430.7220, 14763.00
431.9140, 14666.00
433.1050, 14899.00
434.2970, 14905.00
435.4880, 15108.00
436.6790, 15308.00
437.8700, 15511.00
439.0610, 15796.00
440.2510, 15802.00
441.4420, 15878.00
442.6320, 16090.00
443.8220, 16287.00
445.0120, 16726.00
446.2020, 16833.00
447.3910, 16861.00
448.5810, 17340.00
449.7700, 17548.00
450.9600, 17732.00
452.1490, 17888.00
453.3370, 18064.00
454.5260, 18288.00
455.7150, 18515.00
456.9030, 18578.00
458.0910, 18470.00
459.2800, 18657.00
460.4670, 18459.00
461.6550, 18494.00
462.8430, 18515.00
464.0300, 18492.74
465.2180, 18511.00
466.4050, 18485.00
467.5920, 18475.00
468.7790, 18266.00
469.9650, 18145.00
471.1520, 17892.00
472.3380, 17693.00
473.5250, 17398.00
474.7110, 17306.00
475.8970, 16852.00
477.0820, 16799.00
478.2680, 16636.00
479.4540, 16386.00
480.6390, 16424.00
481.8240, 16036.00
483.0090, 16007.00
484.1940, 15973.00
485.3780, 15815.00
486.5630, 15915.00
487.7470, 15712.00
488.9320, 15646.00
490.1160, 15604.00
491.3000, 15616.00
492.4830, 15582.21
493.6670, 15601.00
494.8500, 15592.00
496.0340, 15525.00
497.2170, 15566.00
498.4000, 15702.00
499.5820, 15650.00
500.7650, 15893.00
501.9480, 15952.00
503.1300, 16205.00
504.3120, 16223.00
505.4940, 16487.00
506.6760, 16839.00
507.8580, 16905.00
509.0390, 17069.00
510.2210, 17383.00
511.4020, 17571.00
512.5830, 17737.00
513.7640, 17818.00
514.9450, 17682.00
516.1250, 17492.00
517.3060, 17581.00
518.4860, 17297.00
519.6660, 17214.00
520.8460, 16900.00
522.0260, 16700.00
523.2060, 16554.00
524.3850, 16431.00
525.5650, 16356.00
526.7440, 16231.06
527.9230, 16192.00
529.1020, 16056.00
530.2810, 16018.00
531.4590, 15988.00
532.6380, 15800.00
533.8160, 15851.00
534.9940, 15754.00
536.1720, 15973.00
537.3500, 15901.00
538.5270, 16081.00
539.7050, 16011.00
540.8820, 16235.00
542.0590, 16555.00
543.2360, 16645.00
544.4130, 16867.08
545.5900, 16875.00
546.7660, 17203.00
547.9430, 17328.00
549.1190, 17542.00
550.2950, 17807.00
551.4710, 17705.00
552.6470, 17967.00
553.8220, 18146.00
554.9980, 18160.00
556.1730, 18120.00
557.3480, 18068.00
558.5230, 18138.00
559.6980, 18079.00
560.8730, 18309.00
562.0470, 18191.00
563.2220, 18316.00
564.3960, 18233.00
565.5700, 18197.00
566.7440, 18153.00
567.9170, 18425.00
569.0910, 18431.00
570.2640, 18596.00
571.4380, 18788.00
572.6110, 18859.00
573.7840, 19035.00
574.9570, 19111.00
576.1290, 19245.00
577.3020, 19547.00
578.4740, 19714.00
579.6460, 19839.00
580.8180, 19958.00
581.9900, 20290.00
583.1620, 20383.00
584.3330, 20620.00
585.5040, 21167.00
586.6760, 21215.00
587.8470, 21819.00
589.0180, 22153.00
590.1880, 22528.00
591.3590, 23068.00
592.5290, 23555.00
593.7000, 24108.00
594.8700, 24822.00
596.0400, 25567.00
597.2090, 26215.00
598.3790, 27136.00
599.5490, 27917.00
600.7180, 28737.00
601.8870, 29902.00
603.0560, 31002.00
604.2250, 31943.48
605.3940, 32909.00
606.5620, 33879.00
607.7300, 34849.00
608.8990, 35658.00
610.0670, 36675.00
611.2350, 37514.00
612.4020, 37927.00
613.5700, 38704.00
614.7370, 39449.00
615.9050, 39857.00
617.0720, 40902.00
618.2390, 41432.00
619.4060, 42056.00
620.5720, 43213.00
621.7390, 43847.00
622.9050, 44866.00
624.0710, 45817.00
625.2370, 46638.00
626.4030, 47808.00
627.5690, 49396.00
628.7340, 50128.00
629.9000, 52095.00
631.0650, 53313.00
632.2300, 54346.00
633.3950, 56148.00
634.5600, 57177.00
635.7240, 58415.00
636.8890, 59010.00
638.0530, 59424.00
639.2170, 58730.00
640.3810, 58063.00
641.5450, 56250.00
642.7080, 54993.00
643.8720, 52698.00
645.0350, 50783.00
646.1980, 49173.00
647.3610, 47003.00
648.5240, 45464.00
649.6870, 43925.00
650.8490, 42607.00
652.0120, 41180.00
653.1740, 40626.00
654.3360, 39092.00
655.4980, 38124.00
656.6600, 37350.00
657.8210, 36033.00
658.9830, 34777.00
660.1440, 33632.00
661.3050, 32112.00
662.4660, 30636.00
663.6270, 29566.00
664.7870, 28234.00
665.9480, 27471.00
667.1080, 26603.00
668.2680, 25398.00
669.4280, 24888.00
670.5880, 23727.00
671.7480, 23118.00
672.9070, 22602.00
674.0670, 21757.00
675.2260, 21107.00
676.3850, 20127.00
677.5440, 19502.00
678.7030, 18706.00
679.8610, 17905.00
681.0200, 17306.00
682.1780, 16680.00
683.3360, 16177.00
684.4940, 15754.00
685.6520, 15424.00
686.8090, 15148.00
687.9670, 14986.00
689.1240, 15026.00
690.2810, 14798.00
691.4380, 14635.00
692.5950, 14779.00
693.7520, 14643.00
694.9080, 14773.00
696.0650, 14867.00
697.2210, 14770.00
698.3770, 14956.00
699.5330, 14888.00
700.6880, 15064.00
701.8440, 15130.00
702.9990, 15019.00
704.1550, 15187.00
705.3100, 15150.00
706.4650, 15229.00
707.6190, 15169.00
708.7740, 15096.00
709.9290, 15113.00
711.0830, 15070.00
712.2370, 14895.00
713.3910, 14929.00
714.5450, 14757.00
715.6980, 14500.00
716.8520, 14485.00
718.0050, 14432.00
719.1580, 14410.00
720.3110, 14252.00
721.4640, 14026.00
722.6170, 14123.00
723.7700, 13858.00
724.9220, 13757.00
726.0740, 13786.00
727.2260, 13874.00
728.3780, 13787.00
729.5300, 13889.00
730.6810, 13816.00
731.8330, 13875.00
732.9840, 13790.00
734.1350, 13775.00
735.2860, 13613.00
736.4370, 13773.00
737.5880, 14003.00
738.7380, 13787.76
739.8880, 13554.00
741.0390, 13650.00
742.1890, 13370.00
743.3380, 13548.00
744.4880, 13620.00
745.6380, 13835.00
746.7870, 13991.00
747.9360, 14326.00
749.0850, 14328.00
750.2340, 14500.00
751.3830, 14905.00
752.5310, 14794.00
753.6800, 15017.00
754.8280, 15117.00
755.9760, 14936.00
757.1240, 14971.00
758.2720, 14876.00
759.4190, 14683.00
760.5670, 14389.00
761.7140, 14273.00
762.8610, 14159.00
764.0080, 13848.00
765.1550, 13654.00
766.3020, 13483.00
767.4480, 13486.00
768.5950, 13105.00
769.7410, 12889.00
770.8870, 12951.00
772.0330, 12820.00
773.1780, 12754.00
774.3240, 12622.00
775.4690, 12669.00
776.6140, 12824.00
777.7590, 13133.00
778.9040, 13074.00
780.0490, 13404.00
781.1940, 13467.00
782.3380, 13803.00
783.4820, 14099.00
784.6260, 14512.00
785.7700, 14869.00
786.9140, 15061.00
788.0580, 15314.00
789.2010, 15549.00
790.3450, 15627.00
791.4880, 15517.00
792.6310, 15117.00
793.7730, 14760.00
794.9160, 14054.00
796.0590, 13521.00
797.2010, 13065.00
798.3430, 12915.00
799.4850, 12675.00
800.6270, 12478.00
801.7690, 12279.00
802.9100, 12387.00
804.0520, 12113.00
805.1930, 11999.00
806.3340, 12087.00
807.4750, 11893.00
808.6160, 11817.00
809.7560, 11707.00
810.8970, 11661.00
812.0370, 11568.00
813.1770, 11556.00
814.3170, 11457.00
815.4570, 11448.00
816.5960, 11392.00
817.7360, 11162.00
818.8750, 11298.00
820.0140, 11144.00
821.1530, 10979.00
822.2920, 11054.00
823.4310, 10928.00
824.5690, 10866.00
825.7070, 10784.00
826.8460, 10851.00
827.9840, 10725.00
829.1220, 10749.00
830.2590, 10678.00
831.3970, 10667.00
832.5340, 10648.45
833.6710, 10691.00
834.8080, 10634.00
835.9450, 10573.00
837.0820, 10623.00
838.2190, 10617.00
839.3550, 10612.00
840.4910, 10676.00
841.6270, 10507.00
842.7630, 10707.00
843.8990, 10552.00
845.0350, 10591.00
846.1700, 10531.00
847.3060, 10512.00
848.4410, 10510.94
849.5760, 10529.00
850.7100, 10497.00
851.8450, 10532.00
852.9800, 10548.00
854.1140, 10527.00
855.2480, 10618.00
856.3820, 10737.00
857.5160, 10668.52
858.6500, 10657.00
859.7830, 10603.00
860.9170, 10629.00
862.0500, 10637.00
863.1830, 10557.00
864.3160, 10529.00
865.4480, 10630.00
866.5810, 10659.00
867.7130, 10558.00
868.8460, 10710.00
869.9780, 10645.00
871.1100, 10670.00
872.2410, 10694.00
873.3730, 10612.00
874.5050, 10644.22
875.6360, 10646.57
876.7670, 10650.00
877.8980, 10677.00
879.0290, 10722.00
880.1590, 10719.00
881.2900, 10742.00
882.4200, 10719.00
883.5500, 10732.00
884.6800, 10711.00
885.8100, 10851.00
886.9400, 10680.00
888.0690, 10868.00
889.1990, 10860.00
890.3280, 10827.00
891.4570, 10909.00
892.5860, 10867.00
893.7140, 10894.00
894.8430, 10901.00
895.9710, 10952.00
897.1000, 10946.00
898.2280, 11069.00
899.3560, 10959.00
900.4830, 11059.00
901.6110, 11056.00
902.7380, 11043.00
903.8660, 11102.00
904.9930, 11161.00
906.1200, 11174.00
907.2460, 11099.00
908.3730, 11262.00
909.5000, 11191.00
910.6260, 11137.00
911.7520, 11211.00
912.8780, 11233.00
914.0040, 11377.00
915.1290, 11390.00
916.2550, 11478.00
917.3800, 11451.00
918.5050, 11513.00
919.6300, 11536.00
920.7550, 11481.00
921.8800, 11496.00
923.0040, 11586.00
924.1290, 11565.00
925.2530, 11519.00
926.3770, 11645.00
927.5010, 11688.00
928.6250, 11663.00
929.7480, 11691.00
930.8720, 11727.86
931.9950, 11758.00
933.1180, 11811.00
934.2410, 11873.00
935.3640, 11916.00
936.4860, 11982.94
937.6090, 12042.00
938.7310, 12102.00
939.8530, 12138.00
940.9750, 12178.00
942.0970, 12072.00
943.2180, 12278.00
944.3400, 12374.00
945.4610, 12229.00
946.5820, 12712.00
947.7030, 12475.00
948.8240, 12540.00
949.9450, 12552.00
951.0650, 12498.00
952.1860, 12662.00
953.3060, 12699.00
954.4260, 12636.00
955.5460, 12721.00
956.6650, 12739.00
957.7850, 12824.00
958.9040, 12829.00
960.0230, 13072.00
961.1420, 12993.00
962.2610, 13069.25
963.3800, 13097.00
964.4990, 13071.00
965.6170, 13170.00
966.7350, 13116.00
967.8530, 13122.00
968.9710, 13177.43
970.0890, 13180.75
971.2070, 13270.00
972.3240, 13333.00
973.4410, 13406.00
974.5580, 13459.36
975.6750, 13532.00
976.7920, 13560.00
977.9090, 13606.00
979.0250, 13670.00
980.1410, 13685.00
981.2580, 13770.00
982.3740, 13692.00
983.4890, 13884.00
984.6050, 13746.00
985.7200, 13979.00
986.8360, 13780.00
987.9510, 13920.00
989.0660, 14011.00
990.1810, 13743.00
991.2950, 13840.00
992.4100, 13909.00
993.5240, 13768.00
994.6390, 13819.00
995.7530, 13897.00
996.8660, 13866.00
997.9800, 13895.00
999.0940, 14116.00
1000.207, 13901.00
1001.320, 14093.00
1002.433, 13969.00
1003.546, 13969.00
1004.659, 14174.00
1005.772, 14230.00
1006.884, 14221.00
1007.996, 14202.00
1009.108, 14271.52
1010.220, 14302.18
1011.332, 14410.00
1012.444, 14475.00
1013.555, 14610.00
1014.666, 14788.00
1015.777, 14759.00
1016.888, 14809.00
1017.999, 14950.00
1019.110, 14809.00
1020.220, 14932.00
1021.331, 14917.00
1022.441, 15010.00
1023.551, 14851.00
1024.661, 14680.00
1025.770, 14605.00
1026.880, 14363.00
1027.989, 14389.00
1029.098, 14277.00
1030.207, 14307.00
1031.316, 14212.00
1032.425, 14162.76
1033.533, 14063.88
1034.642, 14070.00
1035.750, 13879.00
1036.858, 13872.00
1037.966, 13925.00
1039.073, 13770.00
1040.181, 13658.00
1041.288, 13559.00
1042.396, 13525.00
1043.503, 13521.19
1044.610, 13648.00
1045.716, 13644.00
1046.823, 13639.00
1047.929, 13803.00
1049.036, 14078.00
1050.142, 14071.20
1051.248, 14235.00
1052.353, 14213.00
1053.459, 14317.00
1054.564, 14399.00
1055.670, 14374.00
1056.775, 14593.00
1057.880, 14826.00
1058.985, 14896.00
1060.089, 14795.00
1061.194, 14943.00
1062.298, 14926.00
1063.402, 14731.00
1064.506, 14761.00
1065.610, 14707.00
1066.713, 14528.00
1067.817, 14447.00
1068.920, 14361.00
1070.023, 14307.00
1071.126, 14220.00
1072.229, 14039.00
1073.332, 13879.00
1074.435, 13987.00
1075.537, 13821.00
1076.639, 13837.00
1077.741, 13591.00
1078.843, 13578.00
1079.945, 13640.00
1081.046, 13530.00
1082.148, 13425.00
1083.249, 13439.00
1084.350, 13234.00
1085.451, 13325.00
1086.551, 13241.00
1087.652, 13419.00
1088.752, 13197.00
1089.853, 13195.00
1090.953, 13256.00
1092.053, 13192.00
1093.152, 13264.00
1094.252, 13121.00
1095.351, 13137.00
1096.451, 13089.00
1097.550, 12926.00
1098.649, 13081.00
1099.748, 13005.00
1100.846, 13099.00
1101.945, 12933.00
1103.043, 12935.00
1104.141, 12860.00
1105.239, 12812.00
1106.337, 12843.20
1107.434, 12720.00
1108.532, 12892.00
1109.629, 12935.00
1110.726, 12941.00
1111.823, 12848.00
1112.920, 12784.00
1114.017, 12937.00
1115.113, 12769.00
1116.210, 12864.00
1117.306, 12926.00
1118.402, 12742.00
1119.498, 12921.00
1120.593, 13076.00
1121.689, 12717.00
1122.784, 12574.00
1123.879, 12617.00
1124.974, 12630.00
1126.069, 12557.00
1127.164, 12352.00
1128.259, 12394.00
1129.353, 12368.00
1130.447, 12178.00
1131.541, 12201.00
1132.635, 12217.00
1133.729, 12164.00
1134.822, 12136.00
1135.916, 12137.00
1137.009, 12035.00
1138.102, 12009.00
1139.195, 12157.00
1140.288, 12077.00
1141.380, 12051.00
1142.473, 11943.00
1143.565, 11813.00
1144.657, 11915.00
1145.749, 11947.00
1146.841, 11919.00
1147.932, 12052.00
1149.024, 12105.00
1150.115, 12025.00
1151.206, 12065.00
1152.297, 12020.00
1153.388, 11873.00
1154.479, 11976.00
1155.569, 12000.00
1156.659, 11894.00
1157.750, 12129.00
1158.839, 12012.00
1159.929, 11792.00
1161.019, 11837.00
1162.108, 11943.00
1163.198, 11973.00
1164.287, 12058.00
1165.376, 11981.00
1166.465, 12073.00
1167.553, 12028.00
1168.642, 11977.00
1169.730, 12054.00
1170.818, 11971.00
1171.906, 12033.00
1172.994, 12121.00
1174.082, 11915.00
1175.170, 11968.00
1176.257, 11876.00
1177.344, 12064.00
1178.431, 11972.00
1179.518, 12123.00
1180.605, 12163.00
1181.691, 12016.00
1182.778, 12139.00
1183.864, 12090.00
1184.950, 12185.00
1186.036, 12114.00
1187.122, 12040.00
1188.207, 12166.00
1189.292, 12004.00
1190.378, 12005.00
1191.463, 12030.00
1192.548, 11982.00
1193.632, 12122.00
1194.717, 12127.00
1195.801, 12133.00
1196.886, 12176.00
1197.970, 12219.00
1199.054, 12158.00
1200.137, 12158.00
1201.221, 12298.00
1202.305, 12213.00
1203.388, 12307.00
1204.471, 12253.00
1205.554, 12233.00
1206.637, 12391.00
1207.719, 12327.00
1208.802, 12489.00
1209.884, 12319.00
1210.966, 12383.00
1212.048, 12293.00
1213.130, 12489.00
1214.212, 12607.00
1215.293, 12530.00
1216.374, 12651.00
1217.456, 12665.00
1218.536, 12531.00
1219.617, 12713.00
1220.698, 12683.00
1221.778, 12769.00
1222.859, 13035.00
1223.939, 13020.00
1225.019, 13042.00
1226.099, 13025.00
1227.178, 13149.00
1228.258, 13186.00
1229.337, 13445.00
1230.417, 13583.00
1231.496, 13736.64
1232.574, 13897.00
1233.653, 14098.00
1234.732, 14132.00
1235.810, 14349.00
1236.888, 14462.00
1237.966, 14695.00
1239.044, 14972.00
1240.122, 15131.00
1241.199, 15335.00
1242.277, 15418.00
1243.354, 15595.00
1244.431, 15624.49
1245.508, 15581.00
1246.585, 15663.00
1247.661, 15619.00
1248.738, 15642.00
1249.814, 15635.00
1250.890, 15679.00
1251.966, 15636.00
1253.042, 15552.00
1254.117, 15716.00
1255.193, 15667.00
1256.268, 15882.00
1257.343, 15723.00
1258.418, 15762.00
1259.493, 15739.00
1260.567, 16121.00
1261.642, 16042.00
1262.716, 16171.00
1263.790, 16262.00
1264.864, 16383.00
1265.938, 16296.00
1267.011, 16137.00
1268.085, 15994.00
1269.158, 16075.00
1270.231, 15911.00
1271.304, 15926.00
1272.377, 16084.00
1273.450, 16153.00
1274.522, 16177.50
1275.594, 16053.00
1276.666, 16186.00
1277.738, 15785.00
1278.810, 15676.00
1279.882, 15811.00
1280.953, 15855.00
1282.025, 15927.00
1283.096, 16054.00
1284.167, 16198.00
1285.238, 16360.00
1286.308, 16508.00
1287.379, 16671.00
1288.449, 16728.20
1289.519, 16811.00
1290.589, 16796.00
1291.659, 16789.00
1292.729, 16764.00
1293.798, 16593.00
1294.868, 16463.00
1295.937, 16356.00
1297.006, 16341.00
1298.075, 16045.00
1299.143, 16076.00
1300.212, 15770.00
1301.280, 15699.00
1302.348, 15876.00
1303.416, 15799.00
1304.484, 15747.00
1305.552, 15755.00
1306.620, 15650.00
1307.687, 15857.00
1308.754, 15949.00
1309.821, 15882.00
1310.888, 16168.00
1311.955, 16151.00
1313.021, 15977.00
1314.088, 16131.00
1315.154, 16191.00
1316.220, 15912.00
1317.286, 16097.00
1318.352, 15771.00
1319.417, 15815.00
1320.483, 15692.00
1321.548, 15658.76
1322.613, 15796.00
1323.678, 15715.00
1324.743, 15494.00
1325.807, 15543.00
1326.872, 15456.00
1327.936, 15373.00
1329.000, 15414.00
1330.064, 15271.00
1331.128, 15528.00
1332.191, 15345.00
1333.255, 15143.00
1334.318, 15342.00
1335.381, 15371.00
1336.444, 15248.00
1337.507, 15401.00
1338.569, 15380.00
1339.632, 15163.00
1340.694, 15276.00
1341.756, 15125.00
1342.818, 15346.00
1343.880, 15231.00
1344.941, 15128.00
1346.003, 15057.00
1347.064, 15114.00
1348.125, 15066.00
1349.186, 15078.00
1350.247, 15106.00
1351.308, 15121.00
1352.368, 15092.98
1353.428, 15108.00
1354.489, 15026.00
1355.549, 14906.00
1356.608, 14870.00
1357.668, 14947.00
1358.727, 14855.00
1359.787, 14879.00
1360.846, 14816.89
1361.905, 14842.00
1362.964, 14671.00
1364.022, 14601.00
1365.081, 14523.00
1366.139, 14597.00
1367.197, 14635.00
1368.255, 14550.13
1369.313, 14353.00
1370.371, 14416.00
1371.428, 14309.00
1372.486, 14241.00
1373.543, 14123.00
1374.600, 14044.00
1375.657, 14048.00
1376.713, 14041.00
1377.770, 14018.00
1378.826, 13825.00
1379.882, 13770.00
1380.938, 13750.25
1381.994, 13675.00
1383.050, 13767.00
1384.106, 13718.00
1385.161, 13773.00
1386.216, 13841.00
1387.271, 13738.00
1388.326, 13804.00
1389.381, 13634.00
1390.435, 13657.00
1391.490, 13830.00
1392.544, 13615.00
1393.598, 13706.00
1394.652, 13679.00
1395.705, 13797.00
1396.759, 13720.00
1397.812, 13717.00
1398.866, 13586.00
1399.919, 13678.00
1400.972, 13605.00
1402.024, 13637.00
1403.077, 13636.00
1404.129, 13684.00
1405.181, 13675.42
1406.233, 13651.00
1407.285, 13635.00
1408.337, 13555.00
1409.389, 13452.00
1410.440, 13656.00
1411.491, 13651.00
1412.542, 13521.00
1413.593, 13494.00
1414.644, 13412.00
1415.695, 13415.00
1416.745, 13251.00
1417.795, 13350.00
1418.845, 13232.00
1419.895, 13282.00
1420.945, 13273.00
1421.995, 13207.00
1423.044, 13187.00
1424.093, 13257.00
1425.142, 13211.95
1426.191, 13261.00
1427.240, 13206.00
1428.289, 13248.00
1429.337, 13234.00
1430.385, 13263.00
1431.433, 13141.00
1432.481, 13180.00
1433.529, 13214.00
1434.577, 13299.00
1435.624, 13265.00
1436.672, 13157.00
1437.719, 13140.00
1438.766, 13163.00
1439.812, 13036.00
1440.859, 13170.00
1441.905, 13210.00
1442.952, 13228.00
1443.998, 13187.00
1445.044, 13271.00
1446.090, 13094.00
1447.135, 13203.00
1448.181, 13117.00
1449.226, 13194.00
1450.271, 13063.00
1451.316, 13271.00
1452.361, 13236.00
1453.405, 13138.00
1454.450, 13324.00
1455.494, 13235.00
1456.538, 13206.00
1457.582, 13173.00
1458.626, 13278.00
1459.670, 13266.00
1460.713, 13250.00
1461.757, 13132.00
1462.800, 13178.00
1463.843, 13125.70
1464.886, 13303.00
1465.928, 13163.00
1466.971, 13115.00
1468.013, 13285.00
1469.055, 13272.00
1470.097, 13192.00
1471.139, 13234.00
1472.181, 13285.00
1473.222, 13292.00
1474.263, 13283.00
1475.305, 13182.00
1476.346, 13198.00
1477.386, 13384.00
1478.427, 13189.00
1479.468, 13358.00
1480.508, 13304.00
1481.548, 13292.00
1482.588, 13354.00
1483.628, 13291.00
1484.668, 13295.00
1485.707, 13306.00
1486.747, 13256.00
1487.786, 13337.00
1488.825, 13354.00
1489.864, 13371.00
1490.902, 13366.00
1491.941, 13440.00
1492.979, 13437.00
1494.017, 13450.00
1495.055, 13427.00
1496.093, 13324.00
1497.131, 13305.00
1498.168, 13335.27
1499.206, 13312.02
1500.243, 13431.00
1501.280, 13387.00
1502.317, 13411.00
1503.354, 13513.00
1504.390, 13423.00
1505.426, 13381.00
1506.463, 13646.00
1507.499, 13570.00
1508.535, 13387.00
1509.570, 13563.00
1510.606, 13445.00
1511.641, 13500.00
1512.676, 13538.00
1513.711, 13489.00
1514.746, 13587.41
1515.781, 13534.00
1516.816, 13694.00
1517.850, 13555.00
1518.884, 13527.00
1519.918, 13809.00
1520.952, 13596.00
1521.986, 13539.00
1523.019, 13640.00
1524.053, 13534.00
1525.086, 13547.00
1526.119, 13736.00
1527.152, 13610.00
1528.185, 13684.00
1529.217, 13647.00
1530.250, 13760.00
1531.282, 13683.00
1532.314, 13677.00
1533.346, 13671.00
1534.377, 13687.00
1535.409, 13686.00
1536.440, 13677.00
1537.472, 13626.00
1538.503, 13672.00
1539.534, 13664.20
1540.564, 13672.00
1541.595, 13697.00
1542.625, 13813.00
1543.656, 13824.00
1544.686, 13799.00
1545.716, 13808.00
1546.745, 13720.00
1547.775, 13779.00
1548.804, 13765.00
1549.834, 13825.00
1550.863, 13780.00
1551.892, 13850.00
1552.920, 13892.00
1553.949, 14022.00
1554.977, 13991.93
1556.006, 14043.00
1557.034, 13942.00
1558.062, 13921.00
1559.089, 13857.00
1560.117, 13804.00
1561.144, 13940.00
1562.172, 13981.00
1563.199, 13902.00
1564.226, 13940.00
1565.252, 13968.00
1566.279, 14025.00
1567.305, 14086.00
1568.332, 14034.00
1569.358, 14082.00
1570.384, 14018.00
##END=



