##NAMES=Fluorapatite
##RRUFFID=R060333
##IDEAL CHEMISTRY=Ca_5_(PO_4_)_3_F
##LOCALITY=Lovozero Massif, Kola Peninsula, U.S.S.R.
##OWNER=RRUFF
##SOURCE=Michael Scott
##DESCRIPTION=Colorless fragment associated with red villiaumite
##STATUS=The identification of this mineral has been confirmed by X-ray diffraction and chemical analysis
##URL=rruff.info/R060333
##MEASURED CHEMISTRY=(Ca_4.29_Sr_0.47_Na_0.12_Ce_0.07_La_0.06_)_Σ=5_((P_0.99_Si_0.01_)_Σ=1_O_4_)_3_F_1.00_
##PIN_ID=L01212
##ORIENTATION=Laser parallel to a* (1 0 0). Fiducial mark perpendicular to laser is parallel to -c [0 0 -1]
164.2210, 5244.000
165.4520, 5317.000
166.6830, 5378.000
167.9140, 5325.000
169.1450, 5307.000
170.3760, 5353.000
171.6060, 5316.000
172.8360, 5395.000
174.0660, 5326.000
175.2960, 5315.000
176.5260, 5352.000
177.7550, 5301.000
178.9840, 5375.000
180.2130, 5356.000
181.4420, 5367.000
182.6710, 5394.000
183.9000, 5421.000
185.1280, 5492.000
186.3560, 5441.000
187.5840, 5499.000
188.8120, 5469.000
190.0400, 5422.000
191.2670, 5500.000
192.4950, 5444.000
193.7220, 5528.000
194.9490, 5606.000
196.1750, 5587.053
197.4020, 5701.000
198.6280, 5654.000
199.8540, 5626.000
201.0800, 5746.000
202.3060, 5733.000
203.5320, 5803.000
204.7570, 5723.000
205.9830, 5754.567
207.2080, 5802.000
208.4330, 5797.000
209.6570, 5761.000
210.8820, 5875.000
212.1060, 5810.000
213.3310, 5914.000
214.5550, 5943.000
215.7780, 6048.000
217.0020, 5966.000
218.2260, 5923.000
219.4490, 5994.000
220.6720, 6129.000
221.8950, 6122.000
223.1180, 6098.000
224.3400, 6101.000
225.5630, 6211.000
226.7850, 6175.000
228.0070, 6216.000
229.2290, 6364.000
230.4500, 6454.000
231.6720, 6446.000
232.8930, 6505.788
234.1140, 6508.565
235.3350, 6503.000
236.5560, 6479.000
237.7770, 6468.000
238.9970, 6479.514
240.2170, 6409.000
241.4370, 6519.000
242.6570, 6493.000
243.8770, 6531.000
245.0960, 6602.000
246.3160, 6698.000
247.5350, 6622.000
248.7540, 6737.000
249.9730, 6766.000
251.1910, 6896.000
252.4100, 6875.000
253.6280, 6870.000
254.8460, 7058.000
256.0640, 7019.000
257.2810, 6985.000
258.4990, 7065.000
259.7160, 7206.000
260.9330, 7115.000
262.1500, 7210.000
263.3670, 6975.000
264.5840, 7142.000
265.8000, 7020.000
267.0170, 7077.000
268.2330, 7018.000
269.4490, 7056.000
270.6640, 7109.000
271.8800, 7127.000
273.0950, 7116.590
274.3100, 7042.000
275.5260, 7063.000
276.7400, 7055.000
277.9550, 7028.000
279.1690, 7048.000
280.3840, 7052.495
281.5980, 7112.000
282.8120, 7111.000
284.0260, 7097.000
285.2390, 7165.000
286.4530, 7102.000
287.6660, 7191.000
288.8790, 7165.000
290.0920, 7241.000
291.3040, 7385.000
292.5170, 7311.000
293.7290, 7228.000
294.9410, 7357.000
296.1530, 7355.000
297.3650, 7325.000
298.5770, 7473.000
299.7880, 7466.000
301.0000, 7491.000
302.2110, 7455.000
303.4220, 7482.929
304.6320, 7495.000
305.8430, 7533.000
307.0530, 7549.000
308.2630, 7611.000
309.4730, 7571.000
310.6830, 7568.652
311.8930, 7632.000
313.1030, 7526.000
314.3120, 7585.000
315.5210, 7621.000
316.7300, 7615.000
317.9390, 7666.000
319.1470, 7675.581
320.3560, 7515.000
321.5640, 7684.000
322.7720, 7639.000
323.9800, 7576.000
325.1880, 7678.000
326.3950, 7760.000
327.6030, 7718.000
328.8100, 7751.000
330.0170, 7748.000
331.2240, 7743.000
332.4300, 7817.000
333.6370, 7792.000
334.8430, 7892.000
336.0490, 7822.000
337.2550, 7806.000
338.4610, 7800.000
339.6660, 7821.000
340.8720, 7844.083
342.0770, 7906.000
343.2820, 7910.000
344.4870, 7969.000
345.6920, 7973.000
346.8960, 8022.000
348.1010, 7975.000
349.3050, 8010.000
350.5090, 8105.000
351.7130, 8093.000
352.9160, 8156.000
354.1200, 8075.000
355.3230, 8128.000
356.5260, 8119.000
357.7290, 8230.000
358.9320, 8130.000
360.1350, 8217.000
361.3370, 8241.000
362.5390, 8288.000
363.7410, 8339.000
364.9430, 8398.000
366.1450, 8293.000
367.3470, 8527.000
368.5480, 8372.000
369.7490, 8522.000
370.9500, 8572.000
372.1510, 8484.000
373.3520, 8590.000
374.5520, 8537.000
375.7530, 8626.000
376.9530, 8745.000
378.1530, 8639.000
379.3520, 8657.000
380.5520, 8632.000
381.7510, 8664.000
382.9510, 8639.000
384.1500, 8620.000
385.3490, 8753.000
386.5480, 8618.000
387.7460, 8660.000
388.9440, 8713.000
390.1430, 8857.000
391.3410, 8959.000
392.5390, 8809.000
393.7360, 8759.000
394.9340, 8836.000
396.1310, 8913.000
397.3280, 8865.000
398.5250, 8968.000
399.7220, 9078.000
400.9190, 8880.000
402.1150, 8939.000
403.3120, 9073.000
404.5080, 9148.000
405.7040, 9210.000
406.8990, 9247.000
408.0950, 9253.000
409.2900, 9249.000
410.4860, 9342.000
411.6810, 9333.000
412.8760, 9381.000
414.0700, 9428.000
415.2650, 9445.000
416.4590, 9607.000
417.6540, 9578.000
418.8480, 9605.000
420.0420, 9736.000
421.2350, 9652.000
422.4290, 9946.000
423.6220, 9898.000
424.8150, 10010.00
426.0080, 10059.00
427.2010, 10047.00
428.3940, 10267.00
429.5860, 10288.00
430.7790, 10330.00
431.9710, 10391.00
433.1630, 10469.75
434.3540, 10535.00
435.5460, 10668.00
436.7370, 10754.48
437.9290, 10996.00
439.1200, 11009.00
440.3110, 11139.00
441.5010, 11343.00
442.6920, 11326.00
443.8820, 11578.00
445.0730, 11505.00
446.2630, 11553.00
447.4530, 11738.00
448.6420, 11544.00
449.8320, 11508.00
451.0210, 11537.00
452.2100, 11338.00
453.3990, 11173.00
454.5880, 11108.00
455.7770, 11043.00
456.9660, 11000.00
458.1540, 10951.00
459.3420, 10916.00
460.5300, 10911.00
461.7180, 10774.00
462.9050, 10786.00
464.0930, 10740.00
465.2800, 10763.00
466.4670, 10664.00
467.6540, 10699.81
468.8410, 10714.00
470.0280, 10792.00
471.2140, 10760.00
472.4000, 10787.35
473.5870, 10889.00
474.7720, 10804.00
475.9580, 10776.00
477.1440, 10811.00
478.3290, 10852.00
479.5140, 10906.00
480.6990, 10904.76
481.8840, 10905.64
483.0690, 10905.00
484.2540, 10862.00
485.4380, 10858.00
486.6220, 10838.20
487.8060, 10883.39
488.9900, 10884.00
490.1740, 10971.00
491.3570, 11059.00
492.5410, 11042.00
493.7240, 11129.00
494.9070, 11035.00
496.0900, 11111.00
497.2720, 11116.00
498.4550, 11136.00
499.6370, 11284.00
500.8190, 11331.00
502.0010, 11117.00
503.1830, 11451.00
504.3650, 11228.00
505.5460, 11299.00
506.7280, 11332.00
507.9090, 11296.00
509.0900, 11419.00
510.2710, 11516.00
511.4510, 11518.00
512.6320, 11556.04
513.8120, 11576.54
514.9920, 11558.00
516.1720, 11594.00
517.3520, 11660.00
518.5310, 11692.00
519.7110, 11649.00
520.8900, 11675.00
522.0690, 11750.00
523.2480, 11740.00
524.4270, 11869.00
525.6050, 12022.00
526.7840, 11846.00
527.9620, 11926.00
529.1400, 12014.00
530.3180, 11901.00
531.4960, 12060.00
532.6730, 12028.00
533.8510, 12005.00
535.0280, 12167.00
536.2050, 12224.00
537.3820, 12194.00
538.5590, 12273.00
539.7350, 12304.00
540.9120, 12263.00
542.0880, 12275.00
543.2640, 12434.00
544.4400, 12560.00
545.6150, 12534.00
546.7910, 12504.00
547.9660, 12498.00
549.1410, 12503.21
550.3170, 12554.06
551.4910, 12540.00
552.6660, 12694.00
553.8410, 12729.00
555.0150, 12795.00
556.1890, 12840.80
557.3630, 12833.00
558.5370, 12893.00
559.7110, 12976.00
560.8840, 13038.00
562.0570, 12969.00
563.2310, 13120.00
564.4040, 13125.00
565.5760, 13199.00
566.7490, 13560.00
567.9220, 13375.00
569.0940, 13377.00
570.2660, 13738.00
571.4380, 13834.00
572.6100, 14186.00
573.7820, 14410.00
574.9530, 14499.00
576.1240, 14739.00
577.2960, 15042.00
578.4670, 15364.00
579.6370, 15366.00
580.8080, 15255.00
581.9790, 15031.00
583.1490, 14877.00
584.3190, 14527.00
585.4890, 14496.00
586.6590, 14306.00
587.8280, 14503.00
588.9980, 14473.00
590.1670, 14399.00
591.3360, 14415.00
592.5050, 14341.00
593.6740, 14440.00
594.8430, 14441.49
596.0110, 14597.00
597.1790, 14537.00
598.3480, 14674.00
599.5160, 14741.00
600.6830, 15013.00
601.8510, 15265.00
603.0180, 15488.00
604.1860, 15847.00
605.3530, 15904.00
606.5200, 15786.00
607.6870, 15544.00
608.8530, 15389.00
610.0200, 15258.00
611.1860, 15277.00
612.3520, 15220.00
613.5180, 15277.00
614.6840, 15031.00
615.8500, 15111.00
617.0150, 14926.00
618.1800, 14895.00
619.3450, 15040.00
620.5100, 14744.00
621.6750, 14665.00
622.8400, 14808.00
624.0040, 14849.00
625.1690, 14789.00
626.3330, 14759.00
627.4970, 14900.00
628.6610, 14781.00
629.8240, 14771.00
630.9880, 14884.00
632.1510, 14858.00
633.3140, 14775.00
634.4770, 14922.00
635.6400, 15127.00
636.8020, 15030.00
637.9650, 15239.00
639.1270, 15308.00
640.2890, 15245.00
641.4510, 15149.00
642.6130, 15468.00
643.7750, 15369.00
644.9360, 15507.00
646.0980, 15580.00
647.2590, 15716.00
648.4200, 15790.00
649.5810, 15631.00
650.7410, 15938.00
651.9020, 16011.00
653.0620, 15880.00
654.2220, 16042.00
655.3820, 15929.00
656.5420, 16122.00
657.7020, 16064.00
658.8610, 16163.00
660.0200, 16214.00
661.1800, 15986.00
662.3390, 16185.00
663.4970, 16079.00
664.6560, 16292.00
665.8150, 16204.00
666.9730, 16299.00
668.1310, 16023.00
669.2890, 16160.00
670.4470, 16209.00
671.6050, 16131.00
672.7620, 16220.99
673.9200, 16291.00
675.0770, 16252.00
676.2340, 16376.00
677.3910, 16386.00
678.5470, 16361.00
679.7040, 16427.00
680.8600, 16379.00
682.0160, 16557.00
683.1720, 16577.00
684.3280, 16564.00
685.4840, 16359.00
686.6390, 16566.00
687.7950, 16413.00
688.9500, 16670.00
690.1050, 16749.00
691.2600, 16688.00
692.4150, 16620.00
693.5690, 16933.00
694.7240, 16910.00
695.8780, 16808.00
697.0320, 16762.00
698.1860, 16961.00
699.3400, 16794.00
700.4930, 16970.00
701.6470, 17328.00
702.8000, 16987.00
703.9530, 17227.00
705.1060, 17346.00
706.2590, 17174.00
707.4110, 17171.00
708.5640, 17361.00
709.7160, 17287.00
710.8680, 17341.00
712.0200, 17457.00
713.1720, 17439.00
714.3230, 17616.00
715.4750, 17372.00
716.6260, 17473.00
717.7770, 17507.00
718.9280, 17663.00
720.0790, 17679.00
721.2300, 17704.00
722.3800, 17848.00
723.5300, 17897.00
724.6810, 17868.00
725.8300, 17874.00
726.9800, 17994.00
728.1300, 17892.00
729.2790, 18035.00
730.4290, 18056.00
731.5780, 17940.00
732.7270, 17874.00
733.8760, 18189.00
735.0240, 18182.00
736.1730, 18156.00
737.3210, 18382.00
738.4700, 18223.00
739.6180, 18307.00
740.7650, 18439.00
741.9130, 18219.00
743.0610, 18371.00
744.2080, 18474.00
745.3550, 18633.00
746.5020, 18489.00
747.6490, 18686.00
748.7960, 18497.00
749.9430, 18722.00
751.0890, 18709.00
752.2350, 18664.00
753.3810, 18725.00
754.5270, 18733.00
755.6730, 18752.35
756.8190, 18988.00
757.9640, 18848.00
759.1090, 18949.00
760.2540, 19080.00
761.3990, 18965.00
762.5440, 19075.00
763.6890, 19275.00
764.8330, 19138.00
765.9780, 19247.00
767.1220, 19357.00
768.2660, 19413.00
769.4100, 19420.00
770.5530, 19367.00
771.6970, 19356.00
772.8400, 19494.00
773.9830, 19487.00
775.1260, 19718.00
776.2690, 19616.00
777.4120, 19689.00
778.5540, 19690.00
779.6970, 19706.00
780.8390, 19821.00
781.9810, 19851.00
783.1230, 19896.00
784.2650, 19847.00
785.4060, 19984.00
786.5480, 20158.00
787.6890, 19896.00
788.8300, 20168.00
789.9710, 20234.00
791.1120, 20170.00
792.2520, 20330.00
793.3930, 20089.00
794.5330, 20297.00
795.6730, 20261.00
796.8130, 20377.00
797.9530, 20495.00
799.0930, 20533.00
800.2320, 20380.00
801.3710, 20599.00
802.5110, 20716.00
803.6500, 20489.00
804.7880, 20678.00
805.9270, 20821.00
807.0660, 20578.00
808.2040, 20819.00
809.3420, 21032.00
810.4800, 21146.00
811.6180, 20997.00
812.7560, 21074.00
813.8930, 21011.00
815.0310, 21012.00
816.1680, 21191.00
817.3050, 21265.00
818.4420, 21269.00
819.5790, 21341.00
820.7150, 21390.51
821.8520, 21475.00
822.9880, 21491.00
824.1240, 21491.00
825.2600, 21507.00
826.3960, 21595.00
827.5320, 21615.00
828.6670, 21745.00
829.8020, 21809.00
830.9380, 21449.00
832.0730, 21886.00
833.2080, 21601.00
834.3420, 21953.00
835.4770, 21920.00
836.6110, 21949.00
837.7450, 21980.00
838.8790, 22152.00
840.0130, 22110.00
841.1470, 22307.00
842.2810, 22101.00
843.4140, 22389.00
844.5470, 22251.00
845.6800, 22249.00
846.8130, 22288.00
847.9460, 22606.00
849.0790, 22419.00
850.2110, 22756.00
851.3440, 22399.00
852.4760, 22555.00
853.6080, 22648.00
854.7400, 22531.00
855.8710, 22720.00
857.0030, 22716.00
858.1340, 22866.00
859.2650, 22938.00
860.3960, 22873.00
861.5270, 23032.00
862.6580, 22969.00
863.7890, 23149.00
864.9190, 23199.00
866.0490, 23435.00
867.1790, 23321.00
868.3090, 23256.00
869.4390, 23323.00
870.5690, 23316.88
871.6980, 23457.00
872.8270, 23480.00
873.9570, 23594.00
875.0860, 23744.00
876.2140, 23980.00
877.3430, 23946.00
878.4720, 23808.00
879.6000, 23678.00
880.7280, 23744.58
881.8560, 23863.00
882.9840, 23796.00
884.1120, 24052.00
885.2390, 23944.00
886.3670, 24257.00
887.4940, 24101.00
888.6210, 24014.00
889.7480, 24060.00
890.8750, 24243.00
892.0020, 24159.00
893.1280, 24397.00
894.2540, 24190.00
895.3810, 24251.00
896.5070, 24259.00
897.6320, 24491.00
898.7580, 24357.00
899.8840, 24377.00
901.0090, 24487.00
902.1340, 24421.00
903.2590, 24507.00
904.3840, 24632.00
905.5090, 24710.00
906.6340, 24680.00
907.7580, 24745.00
908.8820, 24692.00
910.0060, 24862.00
911.1300, 24958.00
912.2540, 25116.00
913.3780, 24939.00
914.5010, 25187.00
915.6250, 25093.00
916.7480, 25210.00
917.8710, 25481.00
918.9940, 25494.00
920.1160, 25368.00
921.2390, 25430.00
922.3610, 25405.00
923.4840, 25359.00
924.6060, 25449.00
925.7280, 25555.00
926.8490, 25632.00
927.9710, 25542.00
929.0930, 25889.00
930.2140, 25760.00
931.3350, 25828.00
932.4560, 26024.00
933.5770, 25964.00
934.6980, 26137.00
935.8180, 26194.00
936.9380, 26251.00
938.0590, 26478.00
939.1790, 26590.00
940.2990, 26688.00
941.4180, 26915.00
942.5380, 27030.00
943.6570, 27387.00
944.7770, 27720.00
945.8960, 28093.00
947.0150, 28726.00
948.1340, 29305.00
949.2520, 29734.00
950.3710, 30713.00
951.4890, 32215.00
952.6070, 33984.00
953.7260, 35942.00
954.8430, 38534.00
955.9610, 42166.00
957.0790, 45909.00
958.1960, 50310.00
959.3130, 53878.00
960.4310, 56579.00
961.5480, 57385.00
962.6640, 56533.00
963.7810, 53765.00
964.8970, 50847.00
966.0140, 47112.00
967.1300, 43616.00
968.2460, 40349.00
969.3620, 38030.00
970.4780, 35525.00
971.5930, 33869.00
972.7090, 32326.00
973.8240, 31076.00
974.9390, 30201.00
976.0540, 29439.00
977.1690, 29038.00
978.2830, 28971.00
979.3980, 28712.00
980.5120, 28365.00
981.6260, 28212.00
982.7400, 28281.00
983.8540, 28308.00
984.9680, 28180.00
986.0820, 28224.00
987.1950, 28285.00
988.3080, 28148.00
989.4210, 28100.00
990.5340, 28338.00
991.6470, 28385.00
992.7600, 28337.00
993.8720, 28411.00
994.9850, 28465.00
996.0970, 28593.00
997.2090, 28573.00
998.3210, 28734.00
999.4320, 28688.00
1000.544, 28920.00
1001.655, 29136.00
1002.767, 28720.00
1003.878, 28851.00
1004.989, 28834.00
1006.100, 29002.00
1007.210, 29051.00
1008.321, 29142.00
1009.431, 28945.00
1010.541, 29221.00
1011.651, 29105.00
1012.761, 29138.00
1013.871, 29491.00
1014.980, 29335.00
1016.090, 29488.00
1017.199, 29608.00
1018.308, 29473.00
1019.417, 29878.00
1020.526, 29835.00
1021.635, 29877.00
1022.743, 29884.00
1023.852, 30316.00
1024.960, 30166.00
1026.068, 30478.00
1027.176, 30520.00
1028.283, 30709.00
1029.391, 30410.00
1030.498, 30852.00
1031.606, 30997.00
1032.713, 30715.00
1033.820, 30849.00
1034.927, 30799.00
1036.033, 31042.00
1037.140, 30938.00
1038.246, 30886.00
1039.353, 30928.00
1040.459, 31053.00
1041.564, 30851.00
1042.670, 30787.00
1043.776, 31249.00
1044.881, 30886.00
1045.987, 31158.00
1047.092, 30987.00
1048.197, 31154.00
1049.302, 31327.00
1050.406, 31220.00
1051.511, 31508.00
1052.615, 31604.00
1053.720, 31823.00
1054.824, 31623.00
1055.928, 31920.00
1057.031, 31791.00
1058.135, 31625.00
1059.238, 31912.00
1060.342, 31709.00
1061.445, 31622.00
1062.548, 31749.00
1063.651, 31645.79
1064.754, 31652.00
1065.856, 31729.00
1066.959, 31875.00
1068.061, 32052.00
1069.163, 32013.00
1070.265, 31960.00
1071.367, 32123.00
1072.469, 32172.00
1073.570, 32276.00
1074.671, 32408.00
1075.773, 32460.00
1076.874, 32561.00
1077.975, 32486.00
1079.075, 32544.00
1080.176, 32434.00
1081.276, 32491.00
1082.377, 32692.00
1083.477, 32481.00
1084.577, 32381.00
1085.677, 32582.00
1086.777, 32623.00
1087.876, 32867.00
1088.975, 32533.00
1090.075, 32891.00
1091.174, 32654.00
1092.273, 32735.00
1093.372, 32940.00
1094.470, 32839.00
1095.569, 32751.00
1096.667, 33007.00
1097.765, 32976.00
1098.863, 33064.00
1099.961, 33113.00
1101.059, 33195.00
1102.157, 32903.00
1103.254, 33106.00
1104.351, 33206.00
1105.449, 33504.00
1106.546, 33162.00
1107.642, 33342.00
1108.739, 33326.00
1109.836, 33404.00
1110.932, 33224.00
1112.028, 33610.00
1113.124, 33785.00
1114.220, 33332.00
1115.316, 34002.00
1116.412, 33642.00
1117.507, 33936.00
1118.603, 33943.00
1119.698, 33969.00
1120.793, 34065.00
1121.888, 34195.00
1122.983, 34028.00
1124.077, 34074.00
1125.172, 34286.00
1126.266, 34619.00
1127.360, 34294.00
1128.454, 34139.00
1129.548, 34399.00
1130.642, 34431.00
1131.735, 34279.00
1132.829, 34565.00
1133.922, 34800.00
1135.015, 34609.00
1136.108, 34512.00
1137.201, 34889.00
1138.294, 34688.00
1139.386, 34731.00
1140.478, 34796.00
1141.571, 35000.00
1142.663, 34894.00
1143.755, 34993.00
1144.846, 34981.00
1145.938, 35182.00
1147.030, 35095.00
1148.121, 34776.00
1149.212, 35221.00
1150.303, 35086.00
1151.394, 35166.00
1152.485, 35367.00
1153.575, 35079.00
1154.666, 35371.00
1155.756, 35693.00
1156.846, 35387.00
1157.936, 35564.00
1159.026, 35454.00
1160.116, 35563.00
1161.205, 35469.00
1162.295, 35513.00
1163.384, 35928.00
1164.473, 36019.00
1165.562, 35809.00
1166.651, 36122.00
1167.739, 36115.00
1168.828, 36111.00
1169.916, 36004.00
1171.005, 36215.00
1172.093, 36117.00
1173.181, 36183.00
1174.268, 36124.00
1175.356, 36456.00
1176.443, 36355.00
1177.531, 36554.00
1178.618, 36348.00
1179.705, 36489.00
1180.792, 36622.00
1181.879, 36461.00
1182.965, 36724.00
1184.052, 36534.00
1185.138, 36527.00
1186.224, 36856.00
1187.310, 36982.00
1188.396, 36906.00
1189.482, 36751.00
1190.567, 36844.00
1191.653, 36954.00
1192.738, 37165.00
1193.823, 37032.00
1194.908, 37310.00
1195.993, 36978.00
1197.077, 37257.00
1198.162, 37363.00
1199.246, 36977.00
1200.331, 37549.00
1201.415, 37454.00
1202.499, 37563.00
1203.582, 37573.00
1204.666, 37604.00
1205.750, 37730.00
1206.833, 37534.00
1207.916, 37757.00
1208.999, 37860.00
1210.082, 38133.00
1211.165, 37817.00
1212.248, 37695.00
1213.330, 37976.00
1214.412, 38132.00
1215.495, 38291.00
1216.577, 38184.00
1217.658, 38344.00
1218.740, 38218.00
1219.822, 38095.00
1220.903, 38289.00
1221.985, 38312.00
1223.066, 38551.00
1224.147, 38388.00
1225.228, 38192.00
1226.308, 38564.00
1227.389, 38537.00
1228.469, 38686.00
1229.550, 38706.00
1230.630, 38853.00
1231.710, 38723.00
1232.790, 38762.00
1233.869, 38914.00
1234.949, 38815.00
1236.028, 38829.00
1237.108, 39086.00
1238.187, 38787.00
1239.266, 39060.00
1240.344, 39352.00
1241.423, 39250.00
1242.502, 39089.00
1243.580, 39157.00
1244.658, 39167.00
1245.736, 39142.00
1246.814, 39051.00
1247.892, 39358.00
1248.970, 39571.00
1250.047, 39498.00
1251.125, 39510.00
1252.202, 39468.00
1253.279, 39479.00
1254.356, 39890.00
1255.433, 39884.00
1256.509, 39806.00
1257.586, 39891.00
1258.662, 39814.00
1259.738, 39986.00
1260.814, 39841.00
1261.890, 39944.00
1262.966, 39987.75
1264.042, 40253.00
1265.117, 40150.00
1266.193, 39963.00
1267.268, 40141.00
1268.343, 40439.00
1269.418, 40311.00
1270.492, 40432.00
1271.567, 40358.00
1272.642, 40543.00
1273.716, 40333.00
1274.790, 40598.00
1275.864, 40395.00
1276.938, 40463.00
1278.012, 40686.00
1279.085, 40738.00
1280.159, 40722.00
1281.232, 40530.00
1282.305, 40910.00
1283.378, 40765.00
1284.451, 40881.00
1285.524, 40866.00
1286.597, 40868.44
1287.669, 40856.00
1288.741, 41001.00
1289.813, 41203.00
1290.885, 41454.00
1291.957, 41521.84
1293.029, 41558.00
1294.101, 41635.00
1295.172, 41557.00
1296.243, 41465.00
1297.315, 41644.00
1298.386, 41577.00
1299.456, 41786.00
1300.527, 41619.00
1301.598, 41757.00
1302.668, 41950.00
1303.738, 42018.00
1304.809, 41690.00
1305.879, 41979.00
1306.948, 42053.00
1308.018, 41877.00
1309.088, 42193.00
1310.157, 42308.00
1311.226, 42244.00
1312.296, 42502.00
1313.365, 42288.00
1314.433, 42346.00
1315.502, 42286.00
1316.571, 42411.00
1317.639, 42752.00
1318.707, 42694.00
1319.776, 42845.00
1320.844, 42843.96
1321.911, 42284.00
1322.979, 42751.00
1324.047, 42686.00
1325.114, 42651.00
1326.181, 43133.00
1327.249, 43008.00
1328.316, 42857.00
1329.382, 43071.00
1330.449, 43133.00
1331.516, 43452.00
1332.582, 43052.00
1333.648, 43047.00
1334.715, 43188.00
1335.781, 43355.00
1336.846, 43339.00
1337.912, 43515.00
1338.978, 43356.00
1340.043, 43537.00
1341.108, 43730.00
1342.174, 43589.00
1343.239, 43521.00
1344.303, 43449.00
1345.368, 43729.00
1346.433, 43717.00
1347.497, 43784.96
1348.561, 44021.00
1349.626, 43824.00
1350.690, 43943.00
1351.753, 43836.00
1352.817, 44049.00
1353.881, 43991.00
1354.944, 44171.00
1356.007, 44312.00
1357.071, 44049.00
1358.134, 44275.00
1359.196, 44302.00
1360.259, 44067.00
1361.322, 44291.00
1362.384, 44461.00
1363.447, 44523.00
1364.509, 44801.00
1365.571, 44234.00
1366.633, 44653.00
1367.694, 44701.00
1368.756, 44491.00
1369.817, 44882.00
1370.879, 44669.00
1371.940, 44569.00
1373.001, 44917.00
1374.062, 44969.00
1375.122, 44895.00
1376.183, 45123.00
1377.244, 44994.00
1378.304, 44993.00
1379.364, 45274.00
1380.424, 45058.00
1381.484, 45257.00
1382.544, 45170.00
1383.603, 45266.00
1384.663, 45339.00
1385.722, 45570.00
1386.781, 45358.00
1387.840, 45410.00
1388.899, 45624.00
1389.958, 45534.00
1391.017, 45490.00
1392.075, 45616.00
1393.134, 45698.00
1394.192, 45789.00
1395.250, 45935.00
1396.308, 45786.00
1397.365, 45908.00
1398.423, 45882.00
1399.481, 46296.00
1400.538, 46026.00
1401.595, 45818.00
1402.652, 46174.00
1403.709, 45940.00
1404.766, 46154.00
1405.823, 46318.00
1406.879, 46297.00
1407.936, 46374.00
1408.992, 46224.00
1410.048, 46148.00
1411.104, 46235.00
1412.160, 46380.00
1413.215, 46443.00
1414.271, 46654.00
1415.326, 46514.00
1416.382, 46671.00
1417.437, 46457.00
1418.492, 46690.00
1419.546, 46454.00
1420.601, 46624.50
1421.656, 46811.00
1422.710, 46899.00
1423.764, 47134.00
1424.819, 47276.00
1425.873, 46897.00
1426.926, 46875.00
1427.980, 46974.00
1429.034, 47142.00
1430.087, 47113.00
1431.140, 47530.00
1432.194, 47315.00
1433.247, 47217.00
1434.299, 47272.00
1435.352, 47525.00
1436.405, 47481.00
1437.457, 47674.00
1438.510, 47706.00
1439.562, 47485.00
1440.614, 47796.00
1441.666, 47665.00
1442.717, 47691.00
1443.769, 48079.00
1444.821, 47746.00
1445.872, 48001.00
1446.923, 47870.00
1447.974, 47874.00
1449.025, 47929.00
1450.076, 48133.00
1451.127, 48110.00
1452.177, 48329.00
1453.227, 48394.00
1454.278, 48177.00
1455.328, 48074.00
1456.378, 48230.00
1457.428, 48318.00
1458.477, 48415.00
1459.527, 48558.00
1460.576, 48599.71
1461.625, 48508.00
1462.675, 48695.00
1463.724, 48834.00
1464.772, 48858.29
1465.821, 48696.00
1466.870, 48778.00
1467.918, 48791.00
1468.966, 48653.00
1470.015, 48826.00
1471.063, 48758.00
1472.110, 48818.97
1473.158, 48921.00
1474.206, 48969.00
1475.253, 49211.00
1476.301, 49360.00
1477.348, 49284.00
1478.395, 49076.00
1479.442, 48945.00
1480.488, 49300.00
1481.535, 49678.00
1482.582, 49293.00
1483.628, 49370.00
1484.674, 49328.00
1485.720, 49264.00
1486.766, 49579.00
1487.812, 49519.00
1488.858, 49458.00
1489.903, 49483.00
1490.949, 49793.00
1491.994, 49558.00
1493.039, 49655.00
1494.084, 50013.00
1495.129, 49922.00
1496.173, 49936.00
1497.218, 50136.00
1498.262, 50019.00
1499.307, 50002.00
1500.351, 50056.00
1501.395, 50143.00
1502.439, 50341.00
1503.483, 50128.00
1504.526, 50231.00
1505.570, 50275.00
1506.613, 50162.00
1507.656, 50345.00
1508.699, 50173.00
1509.742, 50353.00
1510.785, 50486.00
1511.827, 50869.00
1512.870, 50494.00
1513.912, 50883.00
1514.955, 50508.00
1515.997, 50948.00
1517.039, 50988.00
1518.080, 50836.00
1519.122, 50985.00
1520.164, 50668.00
1521.205, 51052.00
1522.246, 50743.00
1523.288, 51030.00
1524.329, 51037.00
1525.369, 51114.00
1526.410, 51349.00
1527.451, 50961.00
1528.491, 51284.00
1529.531, 51394.00
1530.572, 51136.00
1531.612, 51133.00
1532.652, 51211.00
1533.691, 50943.00
1534.731, 51437.00
1535.770, 51455.00
1536.810, 51388.00
1537.849, 51295.00
1538.888, 51423.00
1539.927, 51586.00
1540.966, 51498.00
1542.005, 51666.00
1543.043, 51939.00
1544.082, 51819.00
1545.120, 51754.00
1546.158, 51973.00
1547.196, 52000.00
1548.234, 52051.00
1549.272, 52105.00
1550.309, 52162.37
1551.347, 52193.00
1552.384, 52283.00
1553.421, 52361.98
1554.458, 52393.39
1555.495, 52503.00
1556.532, 52415.00
1557.568, 52305.00
1558.605, 52270.00
1559.641, 52401.00
1560.678, 52534.00
1561.714, 52329.00
1562.750, 52300.00
1563.785, 52678.00
##END=



