##NAMES=Fluorophlogopite
##RRUFFID=R040042
##IDEAL CHEMISTRY=KMg_3_(Si_3_Al)O_10_F_2_
##LOCALITY=Franklin, Sussex County, New Jersey, USA
##OWNER=RRUFF
##SOURCE=University of Arizona Mineral Museum
##DESCRIPTION=Brown flattened hexagonal prism, polytype 1M
##STATUS=The identification of this mineral has been confirmed by X-ray diffraction and chemical analysis
##URL=rruff.info/R040042
##MEASURED CHEMISTRY=(K_0.92_Na_0.08_)_Σ=1_(Mg_2.95_Fe_0.05_)_Σ=3_(Si_3.00_Al_1.00_)O_10_(F_1.40_(OH)_0.60_)_Σ=2_; trace amounts of Ti; OH estimated by charge balance
##PIN_ID=L01769
##ORIENTATION=Laser parallel to b* (0 1 0). Fiducial mark perpendicular to laser is parallel to -c [0 0 -1]
63.96800, 3950.000
65.21800, 6049.000
66.46800, 5626.000
67.71800, 6639.000
68.96700, 7832.000
70.21700, 9281.000
71.46600, 10916.00
72.71500, 12966.00
73.96300, 15212.00
75.21200, 17718.00
76.46000, 20494.00
77.70800, 23405.00
78.95600, 26157.00
80.20300, 29240.00
81.45100, 32532.00
82.69800, 36453.00
83.94500, 40175.00
85.19100, 44138.00
86.43800, 47754.00
87.68400, 52129.00
88.93100, 57069.00
90.17600, 63148.84
91.42200, 69906.00
92.66800, 77688.00
93.91300, 86227.00
95.15800, 95839.00
96.40300, 106356.0
97.64800, 117917.0
98.89200, 131075.0
100.1370, 143861.0
101.3810, 156533.0
102.6250, 167893.0
103.8680, 174435.0
105.1120, 175823.0
106.3550, 168808.0
107.5980, 154750.0
108.8410, 137117.0
110.0840, 118437.0
111.3260, 101154.0
112.5680, 86696.00
113.8100, 75140.00
115.0520, 67569.00
116.2940, 61445.00
117.5350, 56803.00
118.7770, 52871.00
120.0180, 50315.00
121.2590, 47964.00
122.4990, 46636.00
123.7400, 45428.00
124.9800, 44126.00
126.2200, 42869.00
127.4600, 41886.00
128.6990, 41087.00
129.9390, 40666.00
131.1780, 40071.00
132.4170, 39646.00
133.6560, 39175.00
134.8940, 38626.00
136.1330, 38093.00
137.3710, 37766.00
138.6090, 37674.00
139.8470, 37659.00
141.0840, 37427.00
142.3220, 36962.00
143.5590, 36392.00
144.7960, 36878.00
146.0320, 36170.00
147.2690, 36373.00
148.5050, 36412.00
149.7420, 36214.00
150.9780, 35937.00
152.2130, 36105.00
153.4490, 35671.00
154.6840, 35743.00
155.9190, 35777.00
157.1540, 35801.00
158.3890, 35910.00
159.6240, 36082.00
160.8580, 36282.00
162.0920, 36638.00
163.3260, 36806.00
164.5600, 37085.00
165.7930, 37297.00
167.0270, 37667.00
168.2600, 37980.00
169.4930, 38434.00
170.7260, 38885.00
171.9580, 39718.00
173.1900, 40092.00
174.4230, 41080.00
175.6550, 41806.00
176.8860, 43208.00
178.1180, 44727.00
179.3490, 46737.00
180.5800, 48892.00
181.8110, 51705.00
183.0420, 55718.00
184.2730, 60615.00
185.5030, 67202.00
186.7330, 74143.00
187.9630, 82656.00
189.1930, 92538.00
190.4220, 103340.0
191.6520, 115305.0
192.8810, 126956.0
194.1100, 138459.0
195.3390, 147388.0
196.5670, 154121.0
197.7960, 155696.0
199.0240, 152869.0
200.2520, 145081.0
201.4790, 133273.0
202.7070, 119618.0
203.9340, 105502.0
205.1620, 92394.00
206.3890, 80651.00
207.6150, 71598.00
208.8420, 64052.00
210.0680, 58745.00
211.2940, 54945.00
212.5200, 51191.00
213.7460, 48459.00
214.9720, 46470.00
216.1970, 44603.00
217.4220, 43391.00
218.6470, 42017.00
219.8720, 41443.00
221.0970, 40582.00
222.3210, 39812.00
223.5450, 39204.00
224.7690, 38748.00
225.9930, 38438.00
227.2170, 38282.00
228.4400, 37965.00
229.6630, 37442.00
230.8860, 37779.00
232.1090, 37387.00
233.3320, 37633.00
234.5540, 37351.05
235.7770, 37416.00
236.9990, 37077.00
238.2210, 36844.00
239.4420, 37301.00
240.6640, 37544.00
241.8850, 36705.00
243.1060, 36969.00
244.3270, 36621.00
245.5480, 36453.00
246.7680, 36307.00
247.9880, 36688.00
249.2080, 36423.00
250.4280, 37020.00
251.6480, 36627.00
252.8670, 36616.00
254.0870, 37016.00
255.3060, 36846.00
256.5250, 37073.00
257.7440, 37244.00
258.9620, 37693.00
260.1800, 38279.00
261.3990, 38629.00
262.6160, 39353.00
263.8340, 39934.00
265.0520, 41060.00
266.2690, 42186.96
267.4860, 43394.00
268.7030, 45146.00
269.9200, 47221.00
271.1370, 49316.00
272.3530, 51497.00
273.5690, 54208.00
274.7850, 56867.00
276.0010, 60123.00
277.2170, 62268.00
278.4320, 64385.00
279.6470, 65317.00
280.8620, 64967.00
282.0770, 63671.00
283.2920, 61157.00
284.5060, 58234.00
285.7210, 55322.00
286.9350, 52298.00
288.1490, 49816.00
289.3620, 48290.00
290.5760, 46695.00
291.7890, 45835.00
293.0020, 45016.00
294.2150, 44671.00
295.4280, 44316.00
296.6400, 44444.00
297.8530, 44445.00
299.0650, 44986.00
300.2770, 45483.00
301.4890, 46234.92
302.7000, 47187.00
303.9120, 48462.00
305.1230, 50155.00
306.3340, 52065.00
307.5450, 53666.00
308.7550, 55965.00
309.9660, 57859.00
311.1760, 60147.00
312.3860, 61511.00
313.5960, 63518.00
314.8050, 65330.00
316.0150, 66347.00
317.2240, 66906.00
318.4330, 66984.00
319.6420, 67304.00
320.8510, 67256.00
322.0590, 66402.00
323.2680, 65710.00
324.4760, 64368.00
325.6840, 63155.00
326.8910, 61828.00
328.0990, 59784.00
329.3060, 57732.00
330.5140, 56034.00
331.7210, 53776.00
332.9270, 52197.00
334.1340, 50379.00
335.3400, 49176.00
336.5470, 47253.00
337.7530, 46491.00
338.9590, 46233.00
340.1640, 45960.00
341.3700, 44445.00
342.5750, 43326.00
343.7800, 42601.00
344.9850, 42363.00
346.1900, 42133.00
347.3940, 41975.00
348.5990, 41597.00
349.8030, 41337.00
351.0070, 41144.00
352.2100, 41030.46
353.4140, 41000.05
354.6170, 41083.00
355.8210, 41124.00
357.0240, 41401.00
358.2260, 41568.52
359.4290, 41770.34
360.6320, 42288.00
361.8340, 42469.00
363.0360, 43027.00
364.2380, 43913.00
365.4400, 44509.00
366.6410, 45269.00
367.8420, 46193.00
369.0440, 46848.00
370.2440, 47653.00
371.4450, 48314.00
372.6460, 48281.00
373.8460, 48281.00
375.0460, 47700.00
376.2460, 47060.00
377.4460, 46239.00
378.6460, 45404.00
379.8450, 44479.00
381.0450, 43566.00
382.2440, 42907.00
383.4430, 42246.00
384.6410, 42082.00
385.8400, 41630.00
387.0380, 41341.00
388.2360, 40846.00
389.4340, 41129.00
390.6320, 41118.00
391.8300, 40995.00
393.0270, 40472.00
394.2240, 41061.00
395.4210, 40632.00
396.6180, 40676.00
397.8150, 40805.00
399.0110, 40684.00
400.2080, 40615.00
401.4040, 40846.00
402.6000, 40915.00
403.7950, 40614.00
404.9910, 40408.00
406.1860, 40777.00
407.3810, 40611.00
408.5760, 40734.00
409.7710, 40505.00
410.9660, 40545.00
412.1600, 40095.00
413.3540, 40480.00
414.5490, 40400.00
415.7420, 40024.00
416.9360, 40279.00
418.1300, 39923.00
419.3230, 39919.00
420.5160, 40212.00
421.7090, 39757.00
422.9020, 39817.00
424.0940, 39928.00
425.2870, 39721.00
426.4790, 39865.00
427.6710, 39902.00
428.8630, 39952.00
430.0550, 39965.00
431.2460, 39872.00
432.4370, 40122.00
433.6290, 40125.00
434.8190, 40199.00
436.0100, 40015.00
437.2010, 40111.00
438.3910, 40042.00
439.5810, 40118.90
440.7710, 40589.00
441.9610, 40285.00
443.1510, 40588.00
444.3400, 40586.00
445.5300, 41047.00
446.7190, 41088.00
447.9080, 41085.00
449.0960, 41242.81
450.2850, 41144.00
451.4730, 41324.00
452.6620, 41358.00
453.8500, 41504.00
455.0370, 41908.00
456.2250, 41613.00
457.4120, 42215.00
458.6000, 42288.00
459.7870, 42826.00
460.9740, 43745.00
462.1610, 43649.00
463.3470, 44204.07
464.5330, 44014.00
465.7200, 44616.00
466.9060, 44287.00
468.0910, 44210.00
469.2770, 43716.00
470.4630, 43403.00
471.6480, 42918.00
472.8330, 42435.00
474.0180, 42005.00
475.2030, 41154.00
476.3870, 40826.00
477.5720, 40749.00
478.7560, 40622.00
479.9400, 40611.00
481.1240, 40572.00
482.3070, 40538.00
483.4910, 40922.00
484.6740, 40550.00
485.8570, 40719.00
487.0400, 41131.00
488.2230, 41059.00
489.4050, 40925.00
490.5880, 41268.00
491.7700, 41254.00
492.9520, 41271.00
494.1340, 41552.00
495.3160, 41639.00
496.4970, 41848.00
497.6780, 41796.00
498.8600, 41841.00
500.0400, 42104.00
501.2210, 42340.52
502.4020, 42518.58
503.5820, 42966.00
504.7630, 43052.00
505.9430, 43079.00
507.1220, 43485.00
508.3020, 43804.00
509.4820, 43859.00
510.6610, 44256.00
511.8400, 44297.00
513.0190, 44645.00
514.1980, 44256.00
515.3770, 43994.00
516.5550, 44038.00
517.7330, 43826.00
518.9110, 43789.00
520.0890, 43642.00
521.2670, 43460.72
522.4450, 43021.00
523.6220, 43123.00
524.7990, 42899.00
525.9760, 42782.38
527.1530, 42920.00
528.3300, 42459.00
529.5060, 42460.00
530.6830, 42345.00
531.8590, 42492.00
533.0350, 42549.00
534.2100, 42522.00
535.3860, 42505.00
536.5610, 42587.36
537.7370, 42313.00
538.9120, 42677.00
540.0870, 42681.00
541.2610, 42604.00
542.4360, 42366.00
543.6100, 42676.00
544.7850, 42747.00
545.9590, 42952.00
547.1320, 43034.00
548.3060, 42951.00
549.4800, 42711.00
550.6530, 42862.00
551.8260, 42819.00
552.9990, 42967.00
554.1720, 42939.00
555.3440, 43014.69
556.5170, 43170.00
557.6890, 43126.00
558.8610, 43295.00
560.0330, 43319.00
561.2050, 43383.00
562.3760, 43470.00
563.5480, 43614.00
564.7190, 43181.00
565.8900, 43456.00
567.0610, 43464.00
568.2310, 43731.00
569.4020, 43657.00
570.5720, 43874.00
571.7420, 43864.00
572.9120, 43808.00
574.0820, 43763.00
575.2520, 43704.00
576.4210, 43671.00
577.5900, 43754.00
578.7590, 44118.00
579.9280, 43826.00
581.0970, 43732.00
582.2660, 44112.00
583.4340, 43912.00
584.6020, 44174.00
585.7700, 44159.00
586.9380, 43827.00
588.1060, 44116.00
589.2730, 44579.00
590.4410, 44380.00
591.6080, 44581.00
592.7750, 44363.00
593.9420, 44616.00
595.1080, 44863.00
596.2750, 44595.00
597.4410, 45324.00
598.6070, 45041.00
599.7730, 45278.00
600.9390, 45500.00
602.1050, 45609.00
603.2700, 45876.05
604.4350, 46052.00
605.6010, 46305.00
606.7660, 46492.00
607.9300, 46654.00
609.0950, 46923.00
610.2590, 47206.00
611.4230, 47450.00
612.5880, 47824.45
613.7510, 48225.00
614.9150, 48611.00
616.0790, 48981.00
617.2420, 49446.56
618.4050, 49918.07
619.5680, 50458.00
620.7310, 51011.00
621.8940, 51410.00
623.0560, 52084.00
624.2190, 52613.00
625.3810, 53535.00
626.5430, 54637.00
627.7050, 55437.00
628.8660, 56500.00
630.0280, 57361.00
631.1890, 58685.00
632.3500, 59387.00
633.5110, 60662.00
634.6720, 61107.00
635.8330, 62281.00
636.9930, 63636.00
638.1530, 63686.00
639.3130, 64315.00
640.4730, 64464.00
641.6330, 64573.00
642.7930, 64672.00
643.9520, 64715.32
645.1110, 64949.00
646.2710, 64677.00
647.4290, 64888.00
648.5880, 64726.00
649.7470, 64970.00
650.9050, 65086.00
652.0630, 65279.79
653.2210, 65617.00
654.3790, 65911.00
655.5370, 66356.00
656.6950, 66858.00
657.8520, 67519.30
659.0090, 68457.00
660.1660, 69176.00
661.3230, 70369.00
662.4800, 71526.00
663.6360, 73299.00
664.7930, 74753.00
665.9490, 76744.00
667.1050, 78698.00
668.2610, 81479.15
669.4160, 84488.65
670.5720, 87909.00
671.7270, 92138.00
672.8830, 96174.00
674.0380, 101710.0
675.1920, 107787.0
676.3470, 114285.0
677.5020, 120371.0
678.6560, 126403.0
679.8100, 131754.0
680.9640, 136870.0
682.1180, 140615.0
683.2720, 142202.0
684.4250, 142574.0
685.5780, 141052.0
686.7320, 138504.0
687.8850, 133861.0
689.0370, 128720.0
690.1900, 122925.0
691.3420, 117066.0
692.4950, 110524.0
693.6470, 104349.0
694.7990, 98425.00
695.9510, 92052.00
697.1020, 87581.00
698.2540, 82243.00
699.4050, 77966.00
700.5560, 74336.00
701.7070, 71021.00
702.8580, 68222.00
704.0090, 65930.00
705.1590, 63731.95
706.3100, 62220.00
707.4600, 60613.00
708.6100, 59451.00
709.7590, 58811.00
710.9090, 58404.00
712.0590, 58195.00
713.2080, 56718.00
714.3570, 56213.00
715.5060, 55731.00
716.6550, 56676.00
717.8030, 56129.00
718.9520, 55013.00
720.1000, 54958.00
721.2480, 54297.00
722.3960, 54157.00
723.5440, 54108.00
724.6920, 53686.00
725.8390, 53868.00
726.9870, 53667.00
728.1340, 53427.00
729.2810, 53266.00
730.4280, 53013.00
731.5740, 53069.00
732.7210, 52823.00
733.8670, 52919.00
735.0130, 52907.00
736.1590, 52929.00
737.3050, 52874.00
738.4510, 52894.80
739.5960, 52688.00
740.7410, 52843.00
741.8870, 52561.00
743.0320, 52385.00
744.1760, 52356.00
745.3210, 52532.00
746.4660, 52582.00
747.6100, 52495.66
748.7540, 52450.00
749.8980, 52321.00
751.0420, 52264.00
752.1860, 52225.00
753.3290, 52458.00
754.4720, 52324.00
755.6160, 52380.00
756.7590, 52323.00
757.9020, 52261.00
759.0440, 52349.00
760.1870, 52189.00
761.3290, 51680.00
762.4710, 52353.00
763.6130, 51841.00
764.7550, 52275.00
765.8970, 51947.00
767.0390, 52149.00
768.1800, 52072.00
769.3210, 52420.00
770.4620, 52171.00
771.6030, 52558.00
772.7440, 52428.00
773.8840, 52369.00
775.0250, 52701.00
776.1650, 52624.00
777.3050, 52778.00
778.4450, 52711.00
779.5850, 52907.00
780.7240, 53035.00
781.8640, 53076.00
783.0030, 53082.00
784.1420, 53691.00
785.2810, 53389.00
786.4200, 53592.00
787.5590, 53647.00
788.6970, 53574.00
789.8350, 53897.00
790.9730, 53437.00
792.1110, 53836.00
793.2490, 54047.00
794.3870, 54029.00
795.5240, 53859.00
796.6620, 54213.00
797.7990, 53916.00
798.9360, 54083.00
800.0730, 54156.00
801.2090, 54062.00
802.3460, 53659.00
803.4820, 53577.00
804.6180, 53594.00
805.7540, 53332.00
806.8900, 53633.00
808.0260, 53859.00
809.1620, 53649.00
810.2970, 53579.00
811.4320, 53255.00
812.5670, 53414.00
813.7020, 53474.00
814.8370, 53535.00
815.9710, 53125.00
817.1060, 53467.00
818.2400, 53398.00
819.3740, 53864.00
820.5080, 53415.00
821.6420, 53765.00
822.7760, 53385.00
823.9090, 53400.00
825.0420, 53638.00
826.1760, 53456.56
827.3090, 53735.06
828.4410, 53902.36
829.5740, 53964.48
830.7060, 53606.27
831.8390, 53790.82
832.9710, 53757.84
834.1030, 53715.95
835.2350, 53976.86
836.3670, 53679.78
837.4980, 53935.87
838.6300, 53971.16
839.7610, 54107.50
840.8920, 54024.98
842.0230, 54010.06
843.1530, 54214.04
844.2840, 54296.82
845.4140, 54189.09
846.5450, 54331.84
847.6750, 54027.08
848.8050, 54115.00
849.9350, 54372.35
851.0640, 54275.61
852.1940, 54422.34
853.3230, 54476.33
854.4520, 54115.00
855.5810, 54261.00
856.7100, 54309.00
857.8390, 54280.00
858.9670, 54388.00
860.0960, 54193.00
861.2240, 54649.00
862.3520, 54620.00
863.4800, 54656.00
864.6080, 54295.00
865.7350, 54487.00
866.8630, 54578.00
867.9900, 54950.00
869.1170, 55105.00
870.2440, 54746.00
871.3710, 54805.00
872.4970, 54924.00
873.6240, 54842.00
874.7500, 54925.29
875.8760, 54957.00
877.0020, 55035.00
878.1280, 55048.71
879.2540, 55105.23
880.3790, 55099.00
881.5050, 55189.00
882.6300, 55279.57
883.7550, 55310.00
884.8800, 55420.00
886.0050, 55501.00
887.1290, 55594.22
888.2540, 55843.00
889.3780, 55894.00
890.5020, 56131.00
891.6260, 56305.00
892.7500, 56125.00
893.8730, 55924.00
894.9970, 55756.00
896.1200, 56135.00
897.2440, 56248.00
898.3670, 56497.00
899.4890, 56302.00
900.6120, 56510.00
901.7350, 56597.00
902.8570, 56494.00
903.9790, 56762.00
905.1010, 56959.00
906.2230, 56939.00
907.3450, 56770.00
908.4670, 57010.00
909.5880, 56982.00
910.7100, 56485.00
911.8310, 57070.00
912.9520, 56862.00
914.0730, 57130.00
915.1930, 57162.00
916.3140, 57275.00
917.4340, 57387.00
918.5550, 57478.00
919.6750, 57442.00
920.7950, 57421.00
921.9140, 57608.00
923.0340, 57558.14
924.1530, 57849.27
925.2730, 58029.25
926.3920, 58103.99
927.5110, 57758.43
928.6300, 57955.60
929.7480, 57935.23
930.8670, 57905.98
931.9850, 58179.52
933.1040, 57895.08
934.2220, 58163.81
935.3400, 58211.71
936.4570, 58360.65
937.5750, 58290.77
938.6920, 58288.45
939.8100, 58505.09
940.9270, 58600.47
942.0440, 58505.36
943.1610, 58660.73
944.2770, 58276.00
945.3940, 58394.00
946.5100, 58423.00
947.6270, 58404.00
948.7430, 58692.00
949.8590, 58764.00
950.9740, 58864.00
952.0900, 58910.12
953.2050, 58833.00
954.3210, 58920.00
955.4360, 58979.00
956.5510, 59092.00
957.6660, 59191.00
958.7800, 59249.00
959.8950, 59345.00
961.0090, 59434.00
962.1240, 59501.00
963.2380, 59857.00
964.3520, 59704.00
965.4650, 60110.00
966.5790, 60567.00
967.6930, 60106.00
968.8060, 60899.00
969.9190, 60509.00
971.0320, 60755.00
972.1450, 61225.00
973.2580, 60962.00
974.3700, 61299.00
975.4830, 61898.00
976.5950, 62071.00
977.7070, 62013.00
978.8190, 62240.00
979.9310, 62333.00
981.0430, 62604.00
982.1540, 62637.00
983.2650, 63139.00
984.3770, 63060.00
985.4880, 63430.00
986.5990, 63574.00
987.7090, 63598.00
988.8200, 63665.00
989.9300, 63909.00
991.0410, 63544.00
992.1510, 64501.00
993.2610, 64644.00
994.3710, 64975.00
995.4810, 66231.00
996.5900, 66192.94
997.6990, 66719.00
998.8090, 67044.00
999.9180, 67855.00
1001.027, 68773.00
1002.136, 69614.00
1003.244, 70725.00
1004.353, 70818.00
1005.461, 70689.00
1006.569, 70244.00
1007.677, 69721.00
1008.785, 70034.00
1009.893, 69400.00
1011.001, 69776.00
1012.108, 69819.00
1013.215, 69291.00
1014.323, 69392.00
1015.430, 68890.00
1016.536, 68934.00
1017.643, 68974.00
1018.750, 69242.00
1019.856, 69442.00
1020.962, 70110.00
1022.068, 70587.00
1023.174, 71392.00
1024.280, 72566.00
1025.386, 74309.00
1026.491, 76382.00
1027.597, 78559.00
1028.702, 81460.00
1029.807, 84283.00
1030.912, 87505.00
1032.017, 89010.00
1033.121, 91020.00
1034.226, 92567.00
1035.330, 92710.00
1036.434, 92020.00
1037.538, 90970.00
1038.642, 88119.00
1039.746, 85930.00
1040.850, 83872.00
1041.953, 81241.00
1043.056, 78928.00
1044.159, 77290.00
1045.262, 75669.00
1046.365, 74157.00
1047.468, 73187.00
1048.571, 72209.00
1049.673, 71843.00
1050.775, 71093.82
1051.877, 70253.00
1052.979, 70186.00
1054.081, 69737.00
1055.183, 69469.00
1056.284, 69000.00
1057.386, 68943.00
1058.487, 68941.00
1059.588, 68718.00
1060.689, 68311.00
1061.790, 68230.00
1062.890, 67905.00
1063.991, 68251.00
1065.091, 67793.00
1066.191, 68395.00
1067.291, 67830.00
1068.391, 68158.00
1069.491, 67826.00
1070.591, 68033.00
1071.690, 68376.00
1072.790, 68375.00
1073.889, 68635.00
1074.988, 68559.00
1076.087, 68813.00
1077.185, 68809.00
1078.284, 69251.00
1079.382, 69638.00
1080.481, 69887.00
1081.579, 69999.00
1082.677, 70614.00
1083.775, 70297.00
1084.872, 71103.00
1085.970, 71247.00
1087.067, 71987.00
1088.165, 71780.00
1089.262, 72272.00
1090.359, 72459.00
1091.456, 72434.00
1092.552, 72623.00
1093.649, 72653.00
1094.745, 72700.09
1095.842, 72816.00
1096.938, 72866.00
1098.034, 72815.00
1099.130, 73067.00
1100.225, 72823.00
1101.321, 72449.00
1102.416, 72681.00
1103.511, 72611.00
1104.607, 72067.00
1105.702, 72252.00
1106.796, 71657.00
1107.891, 71969.00
1108.986, 70863.00
1110.080, 70991.00
1111.174, 70592.00
1112.268, 69945.00
1113.362, 69675.00
1114.456, 69084.00
1115.550, 68757.00
1116.643, 68449.00
1117.737, 67851.00
1118.830, 67969.00
1119.923, 67782.00
1121.016, 67381.00
1122.109, 67033.00
1123.201, 66606.00
1124.294, 67073.00
1125.386, 66878.00
1126.478, 66929.00
1127.571, 66702.00
1128.663, 66662.00
1129.754, 66957.00
1130.846, 66494.00
1131.937, 66591.00
1133.029, 66913.00
1134.120, 66648.00
1135.211, 66765.00
1136.302, 66903.00
1137.393, 66478.00
1138.484, 66341.00
1139.574, 66266.00
1140.664, 66943.00
1141.755, 66823.00
1142.845, 66802.00
1143.935, 66805.00
1145.025, 66722.77
1146.114, 66934.00
1147.204, 66678.00
1148.293, 66848.00
1149.382, 66954.00
1150.471, 67177.00
1151.560, 66980.00
1152.649, 67284.00
1153.738, 67403.00
1154.826, 67408.00
1155.915, 66999.00
1157.003, 67350.00
1158.091, 67468.00
1159.179, 67647.00
1160.267, 67851.00
1161.355, 67765.00
1162.442, 67533.00
1163.529, 67801.00
1164.617, 67734.00
1165.704, 67980.00
1166.791, 67676.00
1167.878, 67890.00
1168.964, 67587.00
1170.051, 67677.00
1171.137, 68046.00
1172.224, 68144.00
1173.310, 68231.00
1174.396, 68345.72
1175.481, 68352.00
1176.567, 68455.00
1177.653, 68508.00
1178.738, 68561.00
1179.823, 68629.00
1180.909, 68464.98
1181.994, 68772.55
1183.078, 68968.89
1184.163, 69060.07
1185.248, 68730.95
1186.332, 68944.52
1187.416, 68940.59
1188.501, 68927.78
1189.585, 69217.73
1190.669, 68949.70
1191.752, 69234.80
1192.836, 69299.14
1193.919, 69464.48
1195.003, 69411.04
1196.086, 69425.13
1197.169, 69658.14
1198.252, 69769.94
1199.334, 69691.20
1200.417, 69862.97
1201.500, 69587.23
1202.582, 69704.14
1203.664, 69990.48
1204.746, 69922.74
1205.828, 70098.46
1206.910, 70181.47
1207.992, 69843.06
1209.073, 70237.47
1210.154, 70314.95
1211.236, 70067.04
1212.317, 70436.34
1213.398, 70233.24
1214.479, 70234.46
1215.559, 70389.38
1216.640, 70384.07
1217.720, 70631.41
1218.800, 70635.30
1219.881, 70617.50
1220.961, 70694.57
1222.040, 70684.06
1223.120, 70809.70
1224.200, 70775.92
1225.279, 70911.55
1226.358, 71085.57
1227.438, 70965.57
1228.517, 71156.85
1229.595, 70865.30
1230.674, 70977.75
1231.753, 71046.71
1232.831, 71373.83
1233.910, 71084.67
1234.988, 71185.85
1236.066, 71453.26
1237.144, 71488.08
1238.222, 71620.15
1239.299, 71464.28
1240.377, 71578.91
1241.454, 71785.00
1242.531, 71763.00
1243.608, 72108.00
1244.685, 72242.00
1245.762, 71490.00
1246.839, 71990.00
1247.915, 71847.00
1248.992, 72121.00
1250.068, 72105.00
1251.144, 72150.00
1252.220, 72569.00
1253.296, 72305.00
1254.372, 72431.00
1255.447, 72465.60
1256.523, 72367.00
1257.598, 72499.00
1258.673, 72287.00
1259.748, 72405.00
1260.823, 72411.00
1261.898, 72425.00
1262.973, 72795.00
1264.047, 72929.00
1265.122, 72879.00
1266.196, 72768.00
1267.270, 73069.00
1268.344, 73177.00
1269.418, 73219.00
1270.491, 73345.81
1271.565, 73463.28
1272.638, 73449.00
1273.712, 73712.00
1274.785, 73830.00
1275.858, 73901.00
1276.931, 74118.36
1278.003, 74183.85
1279.076, 74458.00
1280.148, 74436.00
1281.221, 74614.00
1282.293, 74844.00
1283.365, 75106.00
1284.437, 74983.00
1285.509, 75166.00
1286.580, 75611.00
1287.652, 75380.00
1288.723, 75608.00
1289.794, 75835.00
1290.866, 75850.00
1291.937, 76160.00
1293.007, 76046.00
1294.078, 75820.00
1295.149, 76119.00
1296.219, 75782.00
1297.289, 75405.00
1298.360, 76236.00
1299.430, 75561.00
1300.500, 75677.00
1301.569, 75907.00
1302.639, 75437.00
1303.709, 75467.00
1304.778, 75729.00
1305.847, 75863.00
1306.916, 75765.00
1307.985, 75945.98
1309.054, 75679.00
1310.123, 75957.00
1311.191, 76100.00
1312.260, 75886.00
1313.328, 75504.00
1314.396, 75777.00
1315.464, 75684.00
1316.532, 75653.00
1317.600, 76097.00
1318.668, 75794.00
1319.735, 76179.00
1320.802, 75644.00
1321.870, 76026.00
1322.937, 76119.00
1324.004, 75953.00
1325.071, 75992.00
1326.137, 75904.00
1327.204, 75556.00
1328.270, 76286.00
1329.337, 75744.00
1330.403, 76424.00
1331.469, 75940.00
1332.535, 76535.00
1333.601, 76478.00
1334.666, 76200.00
1335.732, 76331.00
1336.797, 76283.00
1337.862, 76217.00
1338.927, 76231.00
1339.992, 75895.00
1341.057, 76290.00
1342.122, 76755.00
1343.187, 76626.00
1344.251, 76761.96
1345.315, 76665.00
1346.380, 76696.00
1347.444, 76687.00
1348.508, 76958.00
1349.571, 77095.00
1350.635, 77100.97
1351.699, 77257.00
1352.762, 77059.00
1353.825, 76948.00
1354.888, 76757.00
1355.951, 76654.00
1357.014, 77075.00
1358.077, 77109.00
1359.140, 77245.00
1360.202, 77380.00
1361.264, 77139.00
1362.327, 77519.00
1363.389, 77374.00
1364.451, 77617.00
1365.513, 77663.00
1366.574, 77567.00
1367.636, 77867.00
1368.697, 77879.77
1369.759, 77787.00
1370.820, 78086.00
1371.881, 77773.00
1372.942, 77742.00
1374.002, 77686.00
1375.063, 77672.00
1376.124, 77716.83
1377.184, 77627.00
1378.244, 77781.00
1379.304, 77895.00
1380.364, 77791.00
1381.424, 77894.00
1382.484, 77970.00
1383.544, 78191.00
1384.603, 78253.95
1385.663, 78308.72
1386.722, 78434.00
1387.781, 78331.00
1388.840, 78335.00
1389.899, 78291.00
1390.957, 78342.00
1392.016, 78574.00
1393.074, 78590.00
1394.133, 78800.42
1395.191, 78986.00
1396.249, 79141.00
1397.307, 78667.00
1398.365, 78705.00
1399.422, 79080.00
1400.480, 78812.00
1401.537, 79049.00
1402.595, 79564.00
1403.652, 78743.00
1404.709, 79400.00
1405.766, 79257.00
1406.823, 78932.00
1407.879, 79075.00
1408.936, 79148.00
1409.992, 78868.00
1411.048, 79024.00
1412.104, 79075.16
1413.160, 79253.73
1414.216, 79380.00
1415.272, 79702.00
1416.328, 79937.00
1417.383, 79883.00
1418.439, 80059.70
1419.494, 79789.00
1420.549, 80100.00
1421.604, 80105.00
1422.659, 80066.00
1423.713, 80198.00
1424.768, 80237.00
1425.822, 80455.00
1426.877, 80545.00
1427.931, 80956.00
1428.985, 80883.75
1430.039, 81048.00
1431.093, 81011.00
1432.147, 81097.00
1433.200, 81513.00
1434.254, 81848.00
1435.307, 81986.00
1436.360, 81761.00
1437.413, 82325.00
1438.466, 82164.00
1439.519, 82516.00
1440.572, 82671.00
1441.624, 82878.00
1442.677, 83547.00
1443.729, 83549.00
1444.781, 83321.00
1445.833, 83442.00
1446.885, 83049.00
1447.937, 82782.00
1448.988, 83107.00
1450.040, 82741.27
1451.091, 83033.10
1452.143, 83194.12
1453.194, 83231.37
1454.245, 82774.14
1455.296, 82955.43
1456.347, 82880.83
1457.397, 82795.74
1458.448, 83066.90
1459.498, 82681.60
1460.549, 82947.11
1461.599, 82952.83
1462.649, 83077.45
1463.699, 82944.60
1464.748, 82891.29
1465.798, 83095.52
1466.848, 83157.14
1467.897, 82994.66
1468.946, 83126.84
1469.995, 82732.56
1471.044, 82800.26
1472.093, 83010.00
1473.142, 82902.00
1474.191, 83077.00
1475.239, 83018.00
1476.288, 83089.00
1477.336, 83428.00
1478.384, 83109.00
1479.432, 83560.00
1480.480, 82987.00
1481.528, 83258.00
1482.575, 83624.00
1483.623, 83499.00
1484.670, 83621.00
1485.718, 83660.00
1486.765, 83068.00
1487.812, 83389.00
1488.859, 83380.55
1489.905, 83750.83
1490.952, 83982.18
1491.999, 84082.02
1493.045, 83656.44
1494.091, 83909.27
1495.137, 83890.22
1496.183, 83860.02
1497.229, 84208.34
1498.275, 83859.17
1499.321, 84201.49
1500.366, 84267.73
1501.412, 84460.34
1502.457, 84379.36
1503.502, 84382.86
1504.547, 84660.01
1505.592, 84785.64
1506.637, 84673.16
1507.682, 84873.76
1508.726, 84514.92
1509.771, 84647.01
1510.815, 84990.83
1511.859, 84892.05
1512.903, 85097.59
1513.947, 85187.24
1514.991, 84750.15
1516.034, 85229.06
1517.078, 85311.85
1518.121, 84987.82
1519.165, 85435.40
1520.208, 85167.45
1521.251, 85154.88
1522.294, 85334.49
1523.337, 85313.77
1524.379, 85312.46
1525.422, 85271.00
1526.464, 85309.00
1527.507, 85509.00
1528.549, 85599.52
1529.591, 85623.00
1530.633, 85647.00
1531.675, 85688.46
1532.717, 85739.60
1533.758, 85695.00
1534.800, 85687.00
1535.841, 85609.00
1536.882, 85660.25
1537.923, 85305.00
1538.964, 85819.00
1540.005, 85635.00
1541.046, 85842.00
1542.087, 86223.00
1543.127, 85805.00
1544.167, 86030.00
1545.208, 86178.00
1546.248, 86023.43
1547.288, 86547.00
1548.328, 85940.00
1549.367, 86465.00
1550.407, 86362.00
1551.447, 86318.00
1552.486, 85948.00
1553.525, 86464.00
1554.564, 86922.00
1555.603, 86598.00
1556.642, 86883.00
1557.681, 86886.00
1558.720, 87315.00
1559.758, 87258.00
1560.797, 87221.22
1561.835, 87257.00
1562.873, 87093.00
1563.911, 87143.46
1564.949, 86997.00
1565.987, 87161.00
1567.025, 87057.00
1568.062, 87083.27
1569.100, 87510.71
1570.137, 87845.49
1571.174, 88049.48
1572.212, 88129.73
1573.248, 87715.44
1574.285, 87939.70
1575.322, 87908.05
1576.359, 87865.93
1577.395, 88180.02
1578.432, 87837.69
1579.468, 88146.12
1580.504, 88194.77
1581.540, 88362.33
##END=



