##NAMES=Fluorapatite
##RRUFFID=R050274
##IDEAL CHEMISTRY=Ca_5_(PO_4_)_3_F
##LOCALITY=Minas Gerais, Brazil
##OWNER=RRUFF
##SOURCE=Marcus Origlieri
##DESCRIPTION=Aggregate of blue crystal fragments separated by veins of quartz
##STATUS=The identification of this mineral has been confirmed by X-ray diffraction and chemical analysis
##URL=rruff.info/R050274
##MEASURED CHEMISTRY=Ca_5.00_((P_0.97_Si_0.02_S_0.01_)O_4_)_3_(F_0.90_Cl_0.10_)
##PIN_ID=L00850
##ORIENTATION=Laser parallel to c* (0 0 1). Fiducial mark perpendicular to laser is parallel to b [0 1 0]
111.9760, 1832.000
113.2080, 1846.000
114.4400, 1871.786
115.6710, 1889.000
116.9030, 1932.000
118.1340, 1960.000
119.3650, 1998.000
120.5960, 2005.000
121.8270, 2012.000
123.0580, 2020.000
124.2880, 2087.000
125.5190, 2088.000
126.7490, 2128.000
127.9790, 2189.000
129.2090, 2283.000
130.4390, 2377.000
131.6680, 2444.628
132.8980, 2513.000
134.1270, 2592.000
135.3560, 2634.000
136.5850, 2698.000
137.8140, 2675.000
139.0430, 2763.000
140.2710, 2813.000
141.5000, 2696.000
142.7280, 2636.000
143.9560, 2656.000
145.1840, 2578.000
146.4120, 2594.000
147.6390, 2634.000
148.8670, 2589.000
150.0940, 2626.000
151.3210, 2628.000
152.5490, 2655.000
153.7750, 2658.000
155.0020, 2613.000
156.2290, 2678.000
157.4550, 2618.000
158.6810, 2608.000
159.9080, 2665.000
161.1340, 2564.000
162.3590, 2551.000
163.5850, 2609.000
164.8110, 2548.000
166.0360, 2608.000
167.2610, 2588.000
168.4860, 2510.000
169.7110, 2550.000
170.9360, 2597.000
172.1610, 2548.000
173.3850, 2546.000
174.6100, 2632.000
175.8340, 2544.000
177.0580, 2562.000
178.2820, 2563.000
179.5050, 2585.000
180.7290, 2567.000
181.9520, 2557.000
183.1760, 2586.000
184.3990, 2545.000
185.6220, 2522.000
186.8450, 2591.000
188.0670, 2636.000
189.2900, 2587.000
190.5120, 2705.000
191.7340, 2636.000
192.9560, 2701.000
194.1780, 2677.000
195.4000, 2653.000
196.6220, 2645.000
197.8430, 2733.000
199.0640, 2692.000
200.2860, 2747.000
201.5070, 2761.000
202.7270, 2772.000
203.9480, 2749.000
205.1690, 2759.000
206.3890, 2698.000
207.6090, 2793.000
208.8290, 2755.000
210.0490, 2822.000
211.2690, 2758.000
212.4890, 2839.000
213.7080, 2868.000
214.9280, 2798.000
216.1470, 2847.000
217.3660, 2828.000
218.5850, 2925.000
219.8030, 2887.000
221.0220, 2886.000
222.2400, 2864.000
223.4590, 2890.818
224.6770, 2936.000
225.8950, 2955.000
227.1120, 3013.000
228.3300, 3035.000
229.5480, 3023.000
230.7650, 3058.000
231.9820, 3043.000
233.1990, 3050.000
234.4160, 3080.000
235.6330, 3137.000
236.8490, 3098.000
238.0660, 3067.000
239.2820, 3129.000
240.4980, 3115.000
241.7140, 3144.000
242.9300, 3101.000
244.1460, 3115.000
245.3610, 3121.000
246.5770, 3161.000
247.7920, 3180.000
249.0070, 3216.000
250.2220, 3217.457
251.4370, 3212.000
252.6510, 3226.000
253.8660, 3238.000
255.0800, 3268.000
256.2940, 3333.000
257.5080, 3363.000
258.7220, 3441.000
259.9360, 3478.000
261.1490, 3439.000
262.3630, 3502.000
263.5760, 3610.000
264.7890, 3492.000
266.0020, 3585.000
267.2150, 3598.000
268.4270, 3540.000
269.6400, 3482.000
270.8520, 3620.000
272.0640, 3537.000
273.2760, 3496.000
274.4880, 3439.000
275.7000, 3579.000
276.9120, 3471.000
278.1230, 3544.000
279.3340, 3443.000
280.5450, 3503.000
281.7560, 3554.000
282.9670, 3527.000
284.1780, 3560.694
285.3880, 3537.000
286.5980, 3540.000
287.8090, 3553.000
289.0190, 3501.000
290.2290, 3465.000
291.4380, 3587.000
292.6480, 3548.000
293.8570, 3624.000
295.0670, 3693.000
296.2760, 3677.000
297.4850, 3672.000
298.6930, 3763.000
299.9020, 3736.000
301.1110, 3732.000
302.3190, 3738.000
303.5270, 3856.000
304.7350, 3830.000
305.9430, 3784.000
307.1510, 3880.000
308.3580, 3799.000
309.5660, 3869.000
310.7730, 3860.000
311.9800, 3856.000
313.1870, 3852.000
314.3940, 3901.000
315.6010, 3964.000
316.8070, 3936.000
318.0130, 3962.000
319.2200, 3861.000
320.4260, 3905.000
321.6310, 3894.000
322.8370, 3921.000
324.0430, 3911.000
325.2480, 3903.000
326.4540, 3876.000
327.6590, 3887.078
328.8640, 3970.000
330.0680, 3937.000
331.2730, 3964.000
332.4780, 4067.000
333.6820, 3956.000
334.8860, 3993.000
336.0900, 4004.000
337.2940, 4081.000
338.4980, 4002.000
339.7010, 3994.000
340.9050, 4137.000
342.1080, 4061.000
343.3110, 4053.000
344.5140, 4190.000
345.7170, 4052.000
346.9200, 4152.000
348.1220, 4049.000
349.3240, 4193.000
350.5270, 4162.000
351.7290, 4085.000
352.9310, 4107.000
354.1320, 4246.000
355.3340, 4215.000
356.5350, 4283.000
357.7370, 4201.000
358.9380, 4235.000
360.1390, 4309.000
361.3400, 4229.000
362.5400, 4305.000
363.7410, 4302.000
364.9410, 4367.000
366.1410, 4358.000
367.3410, 4342.000
368.5410, 4308.000
369.7410, 4385.000
370.9400, 4415.000
372.1400, 4435.000
373.3390, 4492.000
374.5380, 4483.000
375.7370, 4478.000
376.9360, 4486.000
378.1350, 4499.848
379.3330, 4515.000
380.5310, 4572.000
381.7300, 4562.000
382.9280, 4654.000
384.1260, 4629.000
385.3230, 4564.000
386.5210, 4712.000
387.7180, 4708.000
388.9160, 4696.000
390.1130, 4709.000
391.3100, 4743.000
392.5060, 4776.000
393.7030, 4775.309
394.9000, 4771.000
396.0960, 4790.000
397.2920, 4837.000
398.4880, 4873.000
399.6840, 4910.305
400.8800, 4915.000
402.0750, 4963.000
403.2710, 4991.000
404.4660, 4952.000
405.6610, 4955.000
406.8560, 5051.000
408.0510, 5003.000
409.2450, 5119.000
410.4400, 5065.000
411.6340, 5102.000
412.8280, 5046.000
414.0220, 5187.000
415.2160, 5252.000
416.4100, 5288.000
417.6030, 5320.000
418.7970, 5299.000
419.9900, 5388.000
421.1830, 5358.000
422.3760, 5439.000
423.5690, 5539.000
424.7610, 5535.000
425.9540, 5578.000
427.1460, 5636.491
428.3380, 5666.245
429.5300, 5769.000
430.7220, 5811.000
431.9140, 5950.000
433.1050, 6128.000
434.2970, 6081.000
435.4880, 6245.000
436.6790, 6226.000
437.8700, 6353.000
439.0610, 6357.000
440.2510, 6579.000
441.4420, 6615.000
442.6320, 6738.000
443.8220, 6739.000
445.0120, 6840.000
446.2020, 6702.000
447.3910, 6753.000
448.5810, 6662.000
449.7700, 6649.000
450.9600, 6681.000
452.1490, 6515.000
453.3370, 6581.000
454.5260, 6561.000
455.7150, 6455.000
456.9030, 6351.000
458.0910, 6383.000
459.2800, 6278.000
460.4670, 6370.000
461.6550, 6293.000
462.8430, 6404.000
464.0300, 6341.000
465.2180, 6314.000
466.4050, 6288.000
467.5920, 6232.000
468.7790, 6364.000
469.9650, 6336.000
471.1520, 6350.000
472.3380, 6293.000
473.5250, 6389.000
474.7110, 6288.000
475.8970, 6371.000
477.0820, 6395.000
478.2680, 6467.000
479.4540, 6436.000
480.6390, 6510.000
481.8240, 6519.000
483.0090, 6432.000
484.1940, 6518.000
485.3780, 6558.000
486.5630, 6603.000
487.7470, 6523.000
488.9320, 6607.000
490.1160, 6604.000
491.3000, 6728.000
492.4830, 6619.000
493.6670, 6737.000
494.8500, 6674.000
496.0340, 6757.000
497.2170, 6795.000
498.4000, 6892.000
499.5820, 6828.000
500.7650, 6980.000
501.9480, 6969.000
503.1300, 6959.000
504.3120, 6856.000
505.4940, 7002.000
506.6760, 7003.000
507.8580, 7051.000
509.0390, 7137.000
510.2210, 7177.000
511.4020, 7109.000
512.5830, 7051.000
513.7640, 7081.000
514.9450, 7097.021
516.1250, 7139.751
517.3060, 7234.000
518.4860, 7256.000
519.6660, 7352.000
520.8460, 7368.000
522.0260, 7379.000
523.2060, 7501.000
524.3850, 7402.000
525.5650, 7576.000
526.7440, 7534.000
527.9230, 7640.000
529.1020, 7565.000
530.2810, 7569.000
531.4590, 7677.000
532.6380, 7755.000
533.8160, 7766.000
534.9940, 7776.000
536.1720, 7868.000
537.3500, 7817.000
538.5270, 7853.000
539.7050, 7869.000
540.8820, 7831.000
542.0590, 7931.000
543.2360, 7979.000
544.4130, 7970.000
545.5900, 7981.000
546.7660, 8084.000
547.9430, 8106.000
549.1190, 8200.000
550.2950, 8135.000
551.4710, 8162.000
552.6470, 8349.000
553.8220, 8384.000
554.9980, 8316.000
556.1730, 8423.000
557.3480, 8493.000
558.5230, 8526.000
559.6980, 8543.000
560.8730, 8455.000
562.0470, 8580.000
563.2220, 8598.000
564.3960, 8611.271
565.5700, 8738.000
566.7440, 8749.000
567.9170, 8898.000
569.0910, 9141.000
570.2640, 9018.000
571.4380, 9295.000
572.6110, 9448.000
573.7840, 9525.000
574.9570, 9871.000
576.1290, 10173.00
577.3020, 10234.00
578.4740, 10409.00
579.6460, 10594.00
580.8180, 10526.00
581.9900, 10335.00
583.1620, 10285.00
584.3330, 10145.00
585.5040, 9912.000
586.6760, 9924.000
587.8470, 9869.000
589.0180, 9815.000
590.1880, 9813.000
591.3590, 9805.804
592.5290, 9852.000
593.7000, 9831.000
594.8700, 9895.000
596.0400, 9887.000
597.2090, 10017.00
598.3790, 10020.00
599.5490, 10088.00
600.7180, 10238.00
601.8870, 10293.00
603.0560, 10520.00
604.2250, 10599.00
605.3940, 10687.00
606.5620, 10773.00
607.7300, 10856.00
608.8990, 10765.00
610.0670, 10763.00
611.2350, 10667.00
612.4020, 10650.66
613.5700, 10705.00
614.7370, 10643.00
615.9050, 10674.00
617.0720, 10758.00
618.2390, 10733.00
619.4060, 10693.00
620.5720, 10712.00
621.7390, 10798.00
622.9050, 10629.00
624.0710, 10767.00
625.2370, 10622.00
626.4030, 10661.00
627.5690, 10710.00
628.7340, 10859.00
629.9000, 10774.00
631.0650, 10850.00
632.2300, 10850.00
633.3950, 10891.00
634.5600, 10889.00
635.7240, 11037.00
636.8890, 10902.00
638.0530, 11122.00
639.2170, 11140.00
640.3810, 11122.00
641.5450, 11207.00
642.7080, 11310.00
643.8720, 11379.00
645.0350, 11300.00
646.1980, 11415.00
647.3610, 11463.00
648.5240, 11476.00
649.6870, 11547.00
650.8490, 11570.00
652.0120, 11613.00
653.1740, 11610.00
654.3360, 11716.00
655.4980, 11661.00
656.6600, 11722.00
657.8210, 11874.00
658.9830, 11736.00
660.1440, 11977.00
661.3050, 12006.00
662.4660, 11950.00
663.6270, 11842.00
664.7870, 12087.00
665.9480, 12071.00
667.1080, 12144.00
668.2680, 12090.00
669.4280, 12157.00
670.5880, 12278.00
671.7480, 12381.00
672.9070, 12409.00
674.0670, 12440.00
675.2260, 12510.00
676.3850, 12397.00
677.5440, 12515.00
678.7030, 12467.00
679.8610, 12404.00
681.0200, 12680.00
682.1780, 12804.00
683.3360, 12801.00
684.4940, 12912.00
685.6520, 12678.00
686.8090, 12706.00
687.9670, 12895.00
689.1240, 12967.00
690.2810, 13094.00
691.4380, 13063.00
692.5950, 13125.00
693.7520, 13250.00
694.9080, 13217.00
696.0650, 13113.00
697.2210, 13265.00
698.3770, 13232.00
699.5330, 13179.00
700.6880, 13514.00
701.8440, 13350.00
702.9990, 13459.00
704.1550, 13434.00
705.3100, 13577.00
706.4650, 13585.00
707.6190, 13654.00
708.7740, 13619.00
709.9290, 13801.00
711.0830, 13836.00
712.2370, 13672.00
713.3910, 13897.00
714.5450, 14067.00
715.6980, 13849.00
716.8520, 14044.00
718.0050, 14179.00
719.1580, 13983.00
720.3110, 14084.00
721.4640, 14054.00
722.6170, 14282.00
723.7700, 14428.00
724.9220, 14422.00
726.0740, 14470.00
727.2260, 14483.00
728.3780, 14442.00
729.5300, 14465.00
730.6810, 14542.00
731.8330, 14650.00
732.9840, 14573.00
734.1350, 14489.00
735.2860, 14675.00
736.4370, 14782.00
737.5880, 14848.00
738.7380, 14972.00
739.8880, 14971.00
741.0390, 14826.00
742.1890, 15010.00
743.3380, 15009.00
744.4880, 15069.00
745.6380, 15189.00
746.7870, 15220.00
747.9360, 15208.00
749.0850, 15232.00
750.2340, 15272.00
751.3830, 15222.00
752.5310, 15434.00
753.6800, 15383.00
754.8280, 15541.00
755.9760, 15441.00
757.1240, 15565.00
758.2720, 15638.00
759.4190, 15714.00
760.5670, 15747.22
761.7140, 15791.00
762.8610, 15755.00
764.0080, 15840.00
765.1550, 15814.00
766.3020, 15945.00
767.4480, 16091.00
768.5950, 15871.00
769.7410, 16151.00
770.8870, 16204.00
772.0330, 16299.00
773.1780, 16140.00
774.3240, 16388.00
775.4690, 16337.00
776.6140, 16480.00
777.7590, 16328.00
778.9040, 16459.00
780.0490, 16622.00
781.1940, 16493.00
782.3380, 16640.00
783.4820, 16632.00
784.6260, 16568.00
785.7700, 16594.00
786.9140, 16554.00
788.0580, 16784.00
789.2010, 16839.00
790.3450, 16903.00
791.4880, 16848.00
792.6310, 17089.00
793.7730, 16897.00
794.9160, 16955.00
796.0590, 17228.00
797.2010, 17218.00
798.3430, 17054.00
799.4850, 17328.00
800.6270, 17342.00
801.7690, 17523.00
802.9100, 17556.00
804.0520, 17577.00
805.1930, 17439.00
806.3340, 17694.00
807.4750, 17533.00
808.6160, 17549.00
809.7560, 17595.00
810.8970, 17794.00
812.0370, 18010.00
813.1770, 17828.00
814.3170, 18044.00
815.4570, 17954.00
816.5960, 17838.00
817.7360, 18028.00
818.8750, 18231.00
820.0140, 18034.00
821.1530, 18167.00
822.2920, 18295.00
823.4310, 18275.00
824.5690, 18196.00
825.7070, 18465.00
826.8460, 18570.00
827.9840, 18466.00
829.1220, 18593.00
830.2590, 18601.00
831.3970, 18483.00
832.5340, 18700.00
833.6710, 18730.00
834.8080, 18782.00
835.9450, 18905.00
837.0820, 18920.76
838.2190, 19004.80
839.3550, 19044.00
840.4910, 19092.00
841.6270, 19226.00
842.7630, 19192.00
843.8990, 19254.38
845.0350, 19184.00
846.1700, 19282.00
847.3060, 19360.00
848.4410, 19353.00
849.5760, 19425.00
850.7100, 19407.00
851.8450, 19407.00
852.9800, 19596.00
854.1140, 19523.00
855.2480, 19856.00
856.3820, 19721.00
857.5160, 19649.00
858.6500, 19841.00
859.7830, 19967.00
860.9170, 19965.00
862.0500, 19847.00
863.1830, 20065.00
864.3160, 20194.00
865.4480, 20063.00
866.5810, 20395.00
867.7130, 20458.00
868.8460, 20401.00
869.9780, 20389.00
871.1100, 20402.00
872.2410, 20530.00
873.3730, 20489.00
874.5050, 20652.00
875.6360, 20680.00
876.7670, 20655.00
877.8980, 20785.00
879.0290, 20659.00
880.1590, 20921.00
881.2900, 21129.00
882.4200, 21147.00
883.5500, 20884.00
884.6800, 20999.00
885.8100, 21127.00
886.9400, 21108.00
888.0690, 21270.00
889.1990, 21179.00
890.3280, 21283.00
891.4570, 21417.00
892.5860, 21447.00
893.7140, 21407.00
894.8430, 21732.00
895.9710, 21705.00
897.1000, 21607.00
898.2280, 21498.00
899.3560, 21825.00
900.4830, 21810.00
901.6110, 21964.00
902.7380, 22087.00
903.8660, 21857.00
904.9930, 22044.00
906.1200, 22220.00
907.2460, 22329.00
908.3730, 22065.00
909.5000, 22294.00
910.6260, 22204.00
911.7520, 22334.00
912.8780, 22497.00
914.0040, 22575.00
915.1290, 22617.00
916.2550, 22841.00
917.3800, 22855.00
918.5050, 22730.00
919.6300, 22806.00
920.7550, 22934.00
921.8800, 22918.00
923.0040, 23166.00
924.1290, 23092.00
925.2530, 23121.00
926.3770, 23411.00
927.5010, 23343.00
928.6250, 23284.00
929.7480, 23474.00
930.8720, 23315.00
931.9950, 23700.00
933.1180, 23567.00
934.2410, 23801.00
935.3640, 23706.00
936.4860, 24006.00
937.6090, 23971.00
938.7310, 24258.00
939.8530, 24430.00
940.9750, 24491.00
942.0970, 24529.00
943.2180, 24782.00
944.3400, 25013.00
945.4610, 25188.00
946.5820, 25392.00
947.7030, 25833.00
948.8240, 26161.00
949.9450, 26506.00
951.0650, 27320.00
952.1860, 27903.00
953.3060, 29211.00
954.4260, 30477.00
955.5460, 32439.00
956.6650, 34795.00
957.7850, 37405.00
958.9040, 40781.00
960.0230, 43135.00
961.1420, 45625.00
962.2610, 45810.00
963.3800, 45164.00
964.4990, 42872.00
965.6170, 40075.00
966.7350, 37241.00
967.8530, 34993.00
968.9710, 32826.00
970.0890, 31029.00
971.2070, 30031.00
972.3240, 29096.00
973.4410, 28305.00
974.5580, 27809.00
975.6750, 27280.00
976.7920, 27061.00
977.9090, 27005.00
979.0250, 26928.00
980.1410, 26653.00
981.2580, 26677.00
982.3740, 26548.00
983.4890, 26710.00
984.6050, 26511.00
985.7200, 26541.00
986.8360, 26806.00
987.9510, 26772.00
989.0660, 26774.00
990.1810, 26963.00
991.2950, 26918.00
992.4100, 27212.00
993.5240, 26844.00
994.6390, 27035.00
995.7530, 26985.00
996.8660, 27228.00
997.9800, 27363.00
999.0940, 27487.00
1000.207, 27529.00
1001.320, 27586.00
1002.433, 27603.00
1003.546, 27825.00
1004.659, 27627.00
1005.772, 27841.00
1006.884, 28121.00
1007.996, 28012.00
1009.108, 28004.00
1010.220, 28210.00
1011.332, 28352.00
1012.444, 28165.00
1013.555, 28431.00
1014.666, 28514.00
1015.777, 28411.00
1016.888, 28814.00
1017.999, 28712.00
1019.110, 28671.00
1020.220, 28919.00
1021.331, 29136.00
1022.441, 29060.00
1023.551, 29421.00
1024.661, 29376.00
1025.770, 29539.00
1026.880, 29711.00
1027.989, 29697.00
1029.098, 29770.00
1030.207, 29931.00
1031.316, 29992.00
1032.425, 29948.00
1033.533, 29866.00
1034.642, 30014.00
1035.750, 29964.00
1036.858, 29998.00
1037.966, 29916.00
1039.073, 30009.00
1040.181, 29904.00
1041.288, 30090.00
1042.396, 30251.00
1043.503, 30290.00
1044.610, 30475.00
1045.716, 30326.00
1046.823, 30582.00
1047.929, 30676.00
1049.036, 30539.00
1050.142, 30687.00
1051.248, 30773.00
1052.353, 31079.00
1053.459, 31152.00
1054.564, 31253.00
1055.670, 31505.00
1056.775, 31341.00
1057.880, 31433.00
1058.985, 31433.00
1060.089, 31422.00
1061.194, 31641.00
1062.298, 31460.00
1063.402, 31644.00
1064.506, 31566.00
1065.610, 31589.00
1066.713, 31625.00
1067.817, 31616.00
1068.920, 31901.00
1070.023, 31777.00
1071.126, 31951.00
1072.229, 31912.00
1073.332, 32063.00
1074.435, 32151.00
1075.537, 32371.00
1076.639, 32383.00
1077.741, 32374.00
1078.843, 32419.00
1079.945, 32353.00
1081.046, 32486.00
1082.148, 32512.00
1083.249, 32487.00
1084.350, 32662.00
1085.451, 32833.00
1086.551, 32665.00
1087.652, 33021.00
1088.752, 32768.00
1089.853, 32907.00
1090.953, 32990.00
1092.053, 32828.00
1093.152, 33104.00
1094.252, 32824.00
1095.351, 33470.00
1096.451, 33367.00
1097.550, 33424.00
1098.649, 33448.00
1099.748, 33463.00
1100.846, 33679.00
1101.945, 33906.00
1103.043, 33752.00
1104.141, 33835.00
1105.239, 33777.00
1106.337, 33831.00
1107.434, 33934.00
1108.532, 34006.00
1109.629, 34055.00
1110.726, 34094.00
1111.823, 34144.00
1112.920, 34199.00
1114.017, 34305.12
1115.113, 34309.00
1116.210, 34530.00
1117.306, 34668.00
1118.402, 34755.00
1119.498, 34857.00
1120.593, 35010.00
1121.689, 34862.00
1122.784, 35086.00
1123.879, 34917.00
1124.974, 34948.00
1126.069, 34973.00
1127.164, 35130.00
1128.259, 35179.00
1129.353, 35261.44
1130.447, 35329.00
1131.541, 35502.00
1132.635, 35444.00
1133.729, 35738.00
1134.822, 35792.00
1135.916, 35709.00
1137.009, 35862.00
1138.102, 35889.00
1139.195, 36046.00
1140.288, 36137.09
1141.380, 36169.41
1142.473, 36335.00
1143.565, 36243.00
1144.657, 36298.00
1145.749, 36342.00
1146.841, 36352.00
1147.932, 36487.00
1149.024, 36533.73
1150.115, 36562.00
1151.206, 36691.00
1152.297, 36792.00
1153.388, 36839.00
1154.479, 36945.00
1155.569, 37067.00
1156.659, 37051.00
1157.750, 37134.00
1158.839, 37167.25
1159.929, 37222.84
1161.019, 37251.00
1162.108, 37390.00
1163.198, 37491.32
1164.287, 37650.00
1165.376, 37691.00
1166.465, 37474.00
1167.553, 37610.00
1168.642, 37704.00
1169.730, 37555.00
1170.818, 37925.00
1171.906, 38223.00
1172.994, 38172.00
1174.082, 38104.00
1175.170, 38000.00
1176.257, 38154.00
1177.344, 38151.00
1178.431, 37859.00
1179.518, 38113.00
1180.605, 38339.00
1181.691, 38283.00
1182.778, 38572.00
1183.864, 38732.00
1184.950, 38734.00
1186.036, 38585.00
1187.122, 39036.00
1188.207, 38843.00
1189.292, 38985.00
1190.378, 39177.00
1191.463, 39070.00
##END=



