##NAMES=Fluorapatite
##RRUFFID=R060421
##IDEAL CHEMISTRY=Ca_5_(PO_4_)_3_F
##LOCALITY=Levant mine, St. Just, Cornwall, England
##OWNER=RRUFF
##SOURCE=Michael Scott
##DESCRIPTION=Brown hexagonal prisms
##STATUS=The identification of this mineral has been confirmed by X-ray diffraction and chemical analysis
##URL=rruff.info/R060421
##MEASURED CHEMISTRY=(Ca_4.93_[box]_0.07_)_Σ=5_((PO_4_)_2.86_(CO_3_)_0.14_)_Σ=3_F_1.00_ ; C not measured but estimated by difference and charge balance
##PIN_ID=M00175
##ORIENTATION=Laser parallel to c* (0 0 1). Fiducial mark perpendicular to laser is parallel to a [1 0 0]
124.2880, 3442.000
125.5190, 3524.000
126.7490, 3484.000
127.9790, 3522.000
129.2090, 3582.000
130.4390, 3645.000
131.6680, 3718.000
132.8980, 3689.000
134.1270, 3787.000
135.3560, 3842.000
136.5850, 3962.000
137.8140, 3915.000
139.0430, 4076.000
140.2710, 3944.000
141.5000, 3914.000
142.7280, 3921.000
143.9560, 3843.000
145.1840, 3864.000
146.4120, 3830.000
147.6390, 3856.000
148.8670, 3830.000
150.0940, 3846.000
151.3210, 3849.821
152.5490, 3909.000
153.7750, 3876.000
155.0020, 3914.000
156.2290, 3961.000
157.4550, 3954.000
158.6810, 3973.000
159.9080, 3988.000
161.1340, 3937.000
162.3590, 4044.000
163.5850, 3947.000
164.8110, 4006.000
166.0360, 3977.000
167.2610, 4070.000
168.4860, 4026.000
169.7110, 4020.000
170.9360, 4038.000
172.1610, 4137.000
173.3850, 4005.000
174.6100, 4132.000
175.8340, 4012.000
177.0580, 4029.000
178.2820, 4081.000
179.5050, 4106.000
180.7290, 4048.000
181.9520, 4051.000
183.1760, 4139.000
184.3990, 4088.000
185.6220, 3989.000
186.8450, 4054.000
188.0670, 4054.000
189.2900, 4199.000
190.5120, 4115.000
191.7340, 4172.000
192.9560, 4190.000
194.1780, 4197.000
195.4000, 4241.000
196.6220, 4202.000
197.8430, 4231.000
199.0640, 4160.000
200.2860, 4258.000
201.5070, 4229.000
202.7270, 4285.000
203.9480, 4261.000
205.1690, 4327.000
206.3890, 4273.000
207.6090, 4339.000
208.8290, 4363.000
210.0490, 4325.000
211.2690, 4383.000
212.4890, 4390.000
213.7080, 4452.000
214.9280, 4441.000
216.1470, 4463.000
217.3660, 4498.000
218.5850, 4455.000
219.8030, 4509.000
221.0220, 4487.000
222.2400, 4478.000
223.4590, 4560.000
224.6770, 4542.000
225.8950, 4532.000
227.1120, 4637.000
228.3300, 4551.000
229.5480, 4649.000
230.7650, 4718.000
231.9820, 4542.000
233.1990, 4587.000
234.4160, 4726.000
235.6330, 4717.000
236.8490, 4809.000
238.0660, 4762.000
239.2820, 4688.000
240.4980, 4706.000
241.7140, 4715.000
242.9300, 4681.315
244.1460, 4639.000
245.3610, 4674.000
246.5770, 4710.000
247.7920, 4750.000
249.0070, 4781.000
250.2220, 4789.000
251.4370, 4768.000
252.6510, 4859.000
253.8660, 4957.000
255.0800, 4857.000
256.2940, 4945.000
257.5080, 4953.000
258.7220, 4965.000
259.9360, 5050.000
261.1490, 5071.000
262.3630, 5086.000
263.5760, 5147.641
264.7890, 5163.096
266.0020, 5226.000
267.2150, 5224.000
268.4270, 5242.000
269.6400, 5270.000
270.8520, 5253.000
272.0640, 5206.000
273.2760, 5183.000
274.4880, 5123.000
275.7000, 5137.279
276.9120, 5124.000
278.1230, 5158.000
279.3340, 5157.539
280.5450, 5211.000
281.7560, 5170.000
282.9670, 5199.000
284.1780, 5193.000
285.3880, 5319.000
286.5980, 5248.000
287.8090, 5292.000
289.0190, 5277.000
290.2290, 5212.000
291.4380, 5334.000
292.6480, 5317.000
293.8570, 5336.000
295.0670, 5474.000
296.2760, 5443.000
297.4850, 5480.000
298.6930, 5522.000
299.9020, 5481.000
301.1110, 5481.000
302.3190, 5587.000
303.5270, 5523.000
304.7350, 5536.000
305.9430, 5661.000
307.1510, 5774.000
308.3580, 5690.000
309.5660, 5653.000
310.7730, 5732.000
311.9800, 5668.000
313.1870, 5776.000
314.3940, 5690.000
315.6010, 5657.000
316.8070, 5757.000
318.0130, 5669.000
319.2200, 5720.000
320.4260, 5710.000
321.6310, 5768.000
322.8370, 5699.000
324.0430, 5845.000
325.2480, 5750.000
326.4540, 5738.000
327.6590, 5702.000
328.8640, 5732.840
330.0680, 5813.000
331.2730, 5836.000
332.4780, 5847.000
333.6820, 5880.000
334.8860, 5896.152
336.0900, 5861.000
337.2940, 5913.000
338.4980, 5972.000
339.7010, 5930.000
340.9050, 5887.000
342.1080, 6031.000
343.3110, 5949.000
344.5140, 5885.000
345.7170, 5996.000
346.9200, 6100.000
348.1220, 6038.000
349.3240, 6032.000
350.5270, 5940.000
351.7290, 6019.000
352.9310, 6088.000
354.1320, 6119.000
355.3340, 6107.000
356.5350, 6313.000
357.7370, 6119.000
358.9380, 6267.000
360.1390, 6202.000
361.3400, 6201.000
362.5400, 6327.000
363.7410, 6381.000
364.9410, 6381.000
366.1410, 6325.000
367.3410, 6329.000
368.5410, 6375.000
369.7410, 6415.000
370.9400, 6370.000
372.1400, 6367.000
373.3390, 6378.612
374.5380, 6343.000
375.7370, 6421.000
376.9360, 6447.000
378.1350, 6535.000
379.3330, 6558.000
380.5310, 6549.000
381.7300, 6683.000
382.9280, 6685.000
384.1260, 6659.000
385.3230, 6653.000
386.5210, 6639.000
387.7180, 6742.000
388.9160, 6706.000
390.1130, 6806.000
391.3100, 6704.000
392.5060, 6865.000
393.7030, 6825.000
394.9000, 6997.000
396.0960, 6927.000
397.2920, 6999.000
398.4880, 6919.000
399.6840, 7019.000
400.8800, 6895.000
402.0750, 6977.000
403.2710, 6978.000
404.4660, 7024.000
405.6610, 7103.000
406.8560, 7073.000
408.0510, 7047.000
409.2450, 7107.000
410.4400, 7134.000
411.6340, 7180.000
412.8280, 7238.000
414.0220, 7261.274
415.2160, 7294.000
416.4100, 7298.000
417.6030, 7347.000
418.7970, 7312.000
419.9900, 7415.000
421.1830, 7405.000
422.3760, 7527.000
423.5690, 7538.000
424.7610, 7639.000
425.9540, 7634.000
427.1460, 7622.000
428.3380, 7825.000
429.5300, 7742.000
430.7220, 7812.000
431.9140, 7895.000
433.1050, 7911.000
434.2970, 7972.000
435.4880, 7954.000
436.6790, 8029.000
437.8700, 8076.000
439.0610, 8322.000
440.2510, 8198.000
441.4420, 8308.000
442.6320, 8458.000
443.8220, 8399.000
445.0120, 8450.000
446.2020, 8492.000
447.3910, 8520.000
448.5810, 8601.000
449.7700, 8514.000
450.9600, 8384.000
452.1490, 8400.000
453.3370, 8348.538
454.5260, 8378.000
455.7150, 8356.000
456.9030, 8348.000
458.0910, 8375.000
459.2800, 8424.000
460.4670, 8481.000
461.6550, 8498.000
462.8430, 8508.729
464.0300, 8497.239
465.2180, 8488.000
466.4050, 8465.000
467.5920, 8440.000
468.7790, 8487.000
469.9650, 8479.000
471.1520, 8579.000
472.3380, 8624.000
473.5250, 8557.000
474.7110, 8640.000
475.8970, 8672.000
477.0820, 8592.000
478.2680, 8663.000
479.4540, 8563.000
480.6390, 8721.000
481.8240, 8738.000
483.0090, 8699.000
484.1940, 8881.000
485.3780, 8895.000
486.5630, 8998.000
487.7470, 9018.515
488.9320, 8894.000
490.1160, 9037.000
491.3000, 9021.000
492.4830, 9076.000
493.6670, 9106.811
494.8500, 9126.000
496.0340, 9142.000
497.2170, 9092.000
498.4000, 9137.000
499.5820, 9191.000
500.7650, 9226.000
501.9480, 9321.000
503.1300, 9341.000
504.3120, 9372.000
505.4940, 9311.000
506.6760, 9460.000
507.8580, 9457.000
509.0390, 9548.000
510.2210, 9493.000
511.4020, 9429.000
512.5830, 9410.000
513.7640, 9404.000
514.9450, 9453.033
516.1250, 9525.318
517.3060, 9614.000
518.4860, 9710.000
519.6660, 9805.000
520.8460, 9834.000
522.0260, 9930.000
523.2060, 9951.000
524.3850, 9883.000
525.5650, 9936.000
526.7440, 9905.000
527.9230, 10025.00
529.1020, 10200.00
530.2810, 10118.00
531.4590, 10086.00
532.6380, 10246.00
533.8160, 10155.00
534.9940, 10255.00
536.1720, 10187.00
537.3500, 10375.00
538.5270, 10476.00
539.7050, 10369.00
540.8820, 10548.00
542.0590, 10555.00
543.2360, 10390.00
544.4130, 10673.00
545.5900, 10669.00
546.7660, 10646.00
547.9430, 10721.00
549.1190, 10711.00
550.2950, 10945.00
551.4710, 10714.00
552.6470, 10937.00
553.8220, 10995.00
554.9980, 10937.00
556.1730, 11065.00
557.3480, 10949.00
558.5230, 11073.00
559.6980, 11108.00
560.8730, 11224.00
562.0470, 11264.00
563.2220, 11230.00
564.3960, 11340.00
565.5700, 11416.00
566.7440, 11412.00
567.9170, 11592.00
569.0910, 11585.00
570.2640, 11715.00
571.4380, 11844.00
572.6110, 11923.00
573.7840, 11944.00
574.9570, 12206.00
576.1290, 12272.00
577.3020, 12653.00
578.4740, 12698.00
579.6460, 12951.00
580.8180, 12842.00
581.9900, 12610.00
583.1620, 12523.00
584.3330, 12497.00
585.5040, 12356.00
586.6760, 12435.00
587.8470, 12527.00
589.0180, 12357.00
590.1880, 12501.00
591.3590, 12571.00
592.5290, 12488.00
593.7000, 12619.00
594.8700, 12547.00
596.0400, 12675.00
597.2090, 12706.00
598.3790, 12790.00
599.5490, 12841.00
600.7180, 12800.00
601.8870, 13047.00
603.0560, 13085.00
604.2250, 13265.00
605.3940, 13281.00
606.5620, 13336.00
607.7300, 13185.00
608.8990, 13381.00
610.0670, 13384.00
611.2350, 13193.00
612.4020, 13373.00
613.5700, 13247.00
614.7370, 13284.00
615.9050, 13424.00
617.0720, 13430.00
618.2390, 13512.00
619.4060, 13544.00
620.5720, 13503.00
621.7390, 13732.00
622.9050, 13597.00
624.0710, 13633.00
625.2370, 13583.00
626.4030, 13719.00
627.5690, 13792.00
628.7340, 13775.00
629.9000, 13864.00
631.0650, 13952.00
632.2300, 13929.00
633.3950, 14034.00
634.5600, 13927.00
635.7240, 14127.00
636.8890, 14050.00
638.0530, 14002.00
639.2170, 14156.00
640.3810, 14264.00
641.5450, 14266.00
642.7080, 14341.00
643.8720, 14324.00
645.0350, 14379.83
646.1980, 14410.02
647.3610, 14508.00
648.5240, 14464.00
649.6870, 14608.00
650.8490, 14621.00
652.0120, 14653.00
653.1740, 14868.00
654.3360, 14913.00
655.4980, 14863.00
656.6600, 14788.00
657.8210, 14991.00
658.9830, 15229.00
660.1440, 15173.00
661.3050, 15294.00
662.4660, 15187.00
663.6270, 15306.00
664.7870, 15112.00
665.9480, 15242.00
667.1080, 15260.00
668.2680, 15390.00
669.4280, 15456.00
670.5880, 15563.00
671.7480, 15646.02
672.9070, 15707.00
674.0670, 15805.00
675.2260, 15736.00
676.3850, 15805.00
677.5440, 15830.00
678.7030, 15921.00
679.8610, 15897.00
681.0200, 16012.00
682.1780, 16105.00
683.3360, 16136.00
684.4940, 16121.00
685.6520, 16273.00
686.8090, 16197.00
687.9670, 16369.00
689.1240, 16308.00
690.2810, 16267.00
691.4380, 16307.00
692.5950, 16542.00
693.7520, 16614.00
694.9080, 16620.00
696.0650, 16606.00
697.2210, 16646.00
698.3770, 16609.00
699.5330, 16776.00
700.6880, 16931.00
701.8440, 17037.00
702.9990, 16903.00
704.1550, 16972.00
705.3100, 17029.00
706.4650, 17067.00
707.6190, 17237.00
708.7740, 17238.00
709.9290, 17416.00
711.0830, 17313.00
712.2370, 17441.00
713.3910, 17398.00
714.5450, 17473.00
715.6980, 17396.00
716.8520, 17529.00
718.0050, 17509.00
719.1580, 17744.00
720.3110, 17624.00
721.4640, 17843.00
722.6170, 17810.00
723.7700, 17869.00
724.9220, 17774.00
726.0740, 18050.00
727.2260, 18073.00
728.3780, 18072.00
729.5300, 17982.00
730.6810, 18183.00
731.8330, 18032.00
732.9840, 18390.00
734.1350, 18355.00
735.2860, 18518.00
736.4370, 18545.00
737.5880, 18502.00
738.7380, 18311.00
739.8880, 18687.00
741.0390, 18722.00
742.1890, 18580.00
743.3380, 18739.00
744.4880, 18911.00
745.6380, 18716.00
746.7870, 18977.00
747.9360, 18796.00
749.0850, 18956.00
750.2340, 18957.00
751.3830, 19202.00
752.5310, 19094.00
753.6800, 19111.00
754.8280, 19053.00
755.9760, 19191.00
757.1240, 19371.00
758.2720, 19173.00
759.4190, 19420.00
760.5670, 19433.00
761.7140, 19370.00
762.8610, 19470.00
764.0080, 19460.53
765.1550, 19476.00
766.3020, 19597.00
767.4480, 19628.00
768.5950, 19663.17
769.7410, 19803.00
770.8870, 19732.00
772.0330, 19881.00
773.1780, 19961.00
774.3240, 20052.00
775.4690, 20034.00
776.6140, 20047.00
777.7590, 20223.00
778.9040, 20301.00
780.0490, 20237.00
781.1940, 20197.00
782.3380, 20250.00
783.4820, 20242.46
784.6260, 20305.98
785.7700, 20336.00
786.9140, 20481.00
788.0580, 20570.00
789.2010, 20719.00
790.3450, 20738.00
791.4880, 20608.00
792.6310, 20918.00
793.7730, 20884.00
794.9160, 20816.00
796.0590, 20935.00
797.2010, 21024.00
798.3430, 20896.00
799.4850, 20983.00
800.6270, 21187.00
801.7690, 21100.00
802.9100, 21328.00
804.0520, 21186.00
805.1930, 21425.00
806.3340, 21332.00
807.4750, 21518.00
808.6160, 21554.00
809.7560, 21631.00
810.8970, 21541.00
812.0370, 21620.00
813.1770, 21653.00
814.3170, 21584.00
815.4570, 21898.00
816.5960, 21781.00
817.7360, 22112.00
818.8750, 21787.00
820.0140, 22012.00
821.1530, 22091.00
822.2920, 22150.00
823.4310, 22225.00
824.5690, 22265.61
825.7070, 22307.46
826.8460, 22329.00
827.9840, 22383.00
829.1220, 22391.00
830.2590, 22459.00
831.3970, 22439.41
832.5340, 22553.00
833.6710, 22486.00
834.8080, 22512.00
835.9450, 22708.00
837.0820, 22840.00
838.2190, 22794.00
839.3550, 22838.00
840.4910, 22819.00
841.6270, 22827.00
842.7630, 23095.00
843.8990, 22919.00
845.0350, 23226.00
846.1700, 23248.00
847.3060, 23162.00
848.4410, 23166.00
849.5760, 23388.00
850.7100, 23402.00
851.8450, 23423.00
852.9800, 23583.00
854.1140, 23517.00
855.2480, 23566.00
856.3820, 23723.00
857.5160, 23809.00
858.6500, 24108.00
859.7830, 23977.00
860.9170, 23830.00
862.0500, 24027.00
863.1830, 23941.00
864.3160, 24113.00
865.4480, 24218.00
866.5810, 24455.00
867.7130, 24226.00
868.8460, 24373.00
869.9780, 24293.00
871.1100, 24569.00
872.2410, 24430.00
873.3730, 24514.00
874.5050, 24565.00
875.6360, 24594.00
876.7670, 24669.00
877.8980, 24650.00
879.0290, 24634.00
880.1590, 24712.95
881.2900, 24883.00
882.4200, 24839.00
883.5500, 24934.00
884.6800, 25008.00
885.8100, 25023.00
886.9400, 25195.00
888.0690, 25212.00
889.1990, 25236.00
890.3280, 25630.00
891.4570, 25406.00
892.5860, 25403.00
893.7140, 25645.00
894.8430, 25582.00
895.9710, 25658.00
897.1000, 25756.00
898.2280, 25782.00
899.3560, 25722.00
900.4830, 26088.00
901.6110, 26084.00
902.7380, 25770.00
903.8660, 26125.00
904.9930, 26112.00
906.1200, 26205.00
907.2460, 26366.00
908.3730, 26216.00
909.5000, 26279.00
910.6260, 26654.00
911.7520, 26456.00
912.8780, 26436.00
914.0040, 26694.00
915.1290, 26559.00
916.2550, 26780.00
917.3800, 26700.00
918.5050, 26966.00
919.6300, 26976.00
920.7550, 27028.00
921.8800, 26976.00
923.0040, 27268.00
924.1290, 27528.00
925.2530, 27322.00
926.3770, 27399.00
927.5010, 27362.00
928.6250, 27464.00
929.7480, 27616.00
930.8720, 27481.00
931.9950, 27678.00
933.1180, 27837.00
934.2410, 28015.00
935.3640, 27993.00
936.4860, 28151.00
937.6090, 28121.00
938.7310, 28228.00
939.8530, 28365.00
940.9750, 28347.00
942.0970, 28612.00
943.2180, 28626.00
944.3400, 28672.00
945.4610, 29011.00
946.5820, 29012.00
947.7030, 29205.00
948.8240, 29156.00
949.9450, 29344.00
951.0650, 29651.00
952.1860, 29901.00
953.3060, 30149.00
954.4260, 30673.00
955.5460, 31254.00
956.6650, 32377.00
957.7850, 33481.00
958.9040, 35374.00
960.0230, 37307.00
961.1420, 39791.00
962.2610, 41955.00
963.3800, 44025.00
964.4990, 43819.00
965.6170, 42046.00
966.7350, 39042.00
967.8530, 36534.00
968.9710, 34875.00
970.0890, 33510.00
971.2070, 32439.00
972.3240, 31783.00
973.4410, 31583.00
974.5580, 31399.00
975.6750, 30973.00
976.7920, 30996.00
977.9090, 31265.00
979.0250, 31030.00
980.1410, 30941.00
981.2580, 31167.00
982.3740, 31056.00
983.4890, 31195.00
984.6050, 31003.00
985.7200, 30992.00
986.8360, 31006.00
987.9510, 31466.00
989.0660, 31446.00
990.1810, 31482.00
991.2950, 31712.00
992.4100, 31636.00
993.5240, 31447.00
994.6390, 31777.00
995.7530, 31746.00
996.8660, 31706.00
997.9800, 32080.00
999.0940, 31808.00
1000.207, 32159.00
1001.320, 32336.00
1002.433, 32604.00
1003.546, 32232.00
1004.659, 32426.00
1005.772, 32663.00
1006.884, 32418.00
1007.996, 32650.00
1009.108, 32589.00
1010.220, 32709.00
1011.332, 32934.00
1012.444, 33056.00
1013.555, 32897.00
1014.666, 33248.00
1015.777, 33296.00
1016.888, 33239.00
1017.999, 33461.00
1019.110, 33378.00
1020.220, 33475.00
1021.331, 33755.00
1022.441, 33591.00
1023.551, 33988.00
1024.661, 33858.00
1025.770, 34249.00
1026.880, 34184.00
1027.989, 34274.00
1029.098, 34517.00
1030.207, 34619.00
1031.316, 34772.80
1032.425, 34914.00
1033.533, 35055.00
1034.642, 34995.00
1035.750, 35118.00
1036.858, 35315.00
1037.966, 35218.00
1039.073, 35138.00
1040.181, 35220.00
1041.288, 35373.00
1042.396, 34885.00
1043.503, 35435.00
1044.610, 35228.00
1045.716, 35714.00
1046.823, 35760.00
1047.929, 35780.00
1049.036, 35755.00
1050.142, 35806.22
1051.248, 35858.76
1052.353, 35972.00
1053.459, 36026.00
1054.564, 36338.00
1055.670, 36476.00
1056.775, 36725.00
1057.880, 37132.00
1058.985, 36849.00
1060.089, 36937.00
1061.194, 37067.00
1062.298, 36787.00
1063.402, 37227.00
1064.506, 37132.00
1065.610, 37022.00
1066.713, 37015.00
1067.817, 37307.00
1068.920, 37460.00
1070.023, 37654.00
1071.126, 37822.00
1072.229, 37894.00
1073.332, 38155.00
1074.435, 38222.00
1075.537, 37965.00
1076.639, 38216.00
1077.741, 38305.00
1078.843, 38322.00
1079.945, 38642.00
1081.046, 38282.00
1082.148, 38577.00
1083.249, 38577.00
1084.350, 38428.00
1085.451, 38801.00
1086.551, 38953.00
1087.652, 38746.00
1088.752, 38976.00
1089.853, 38979.00
1090.953, 38847.00
1092.053, 38873.00
1093.152, 39194.00
1094.252, 39410.00
1095.351, 39496.00
1096.451, 39468.00
1097.550, 39630.00
1098.649, 39678.11
1099.748, 39702.00
1100.846, 39832.00
1101.945, 39961.00
1103.043, 39985.00
1104.141, 40073.54
1105.239, 40035.00
1106.337, 40258.00
1107.434, 40234.00
1108.532, 40526.00
1109.629, 40424.00
1110.726, 40566.00
1111.823, 40920.00
1112.920, 40775.00
1114.017, 40946.00
1115.113, 40804.00
1116.210, 41274.00
1117.306, 41159.00
1118.402, 41363.00
1119.498, 41454.00
1120.593, 41741.00
1121.689, 41416.00
1122.784, 41638.00
1123.879, 41611.00
1124.974, 41867.00
1126.069, 42103.00
1127.164, 42214.00
1128.259, 42080.00
1129.353, 42515.00
1130.447, 42212.00
1131.541, 42377.00
1132.635, 42638.00
1133.729, 42199.00
1134.822, 42798.00
1135.916, 42484.00
1137.009, 42719.00
1138.102, 43142.00
1139.195, 42912.00
1140.288, 43175.00
1141.380, 43104.00
1142.473, 43342.00
1143.565, 43651.00
1144.657, 43578.00
1145.749, 43651.00
1146.841, 43612.00
1147.932, 44014.00
1149.024, 43558.00
1150.115, 44146.00
1151.206, 43990.00
1152.297, 44243.00
1153.388, 44121.00
1154.479, 44209.00
1155.569, 44421.00
1156.659, 44223.00
1157.750, 44453.00
1158.839, 44536.00
1159.929, 44724.00
1161.019, 44815.00
1162.108, 44858.00
1163.198, 44892.00
1164.287, 44983.00
1165.376, 45287.00
1166.465, 44736.00
1167.553, 45383.00
1168.642, 45240.00
1169.730, 45544.00
1170.818, 45829.00
1171.906, 45706.00
1172.994, 45702.00
1174.082, 45866.00
1175.170, 45787.00
1176.257, 46021.00
1177.344, 46127.00
1178.431, 46374.00
1179.518, 46268.00
1180.605, 46150.00
1181.691, 46646.00
1182.778, 46291.00
1183.864, 46783.00
1184.950, 46535.00
1186.036, 46778.00
1187.122, 46843.00
1188.207, 46784.00
1189.292, 46637.00
1190.378, 46997.00
1191.463, 47136.00
1192.548, 46960.00
1193.632, 46974.00
1194.717, 47359.00
1195.801, 47339.00
1196.886, 47291.00
1197.970, 47440.00
1199.054, 47489.00
1200.137, 47206.00
1201.221, 47900.00
1202.305, 47595.00
1203.388, 47890.00
1204.471, 47750.00
1205.554, 48120.00
1206.637, 47890.00
1207.719, 48111.00
1208.802, 48293.00
1209.884, 48035.00
1210.966, 48496.00
1212.048, 48111.00
1213.130, 48250.00
1214.212, 48699.00
1215.293, 48562.00
1216.374, 48585.00
1217.456, 48606.00
1218.536, 48661.00
1219.617, 48695.00
1220.698, 48751.00
1221.778, 48939.00
1222.859, 49086.00
1223.939, 49065.00
1225.019, 49205.55
1226.099, 49197.00
1227.178, 49338.00
1228.258, 49259.00
1229.337, 49323.00
1230.417, 49404.00
1231.496, 49492.00
1232.574, 49318.00
1233.653, 49532.00
1234.732, 49937.00
1235.810, 49375.00
1236.888, 49793.00
1237.966, 49651.00
1239.044, 49872.00
1240.122, 50173.00
1241.199, 49701.00
1242.277, 50119.00
1243.354, 49904.00
1244.431, 50213.00
1245.508, 50368.00
1246.585, 50330.00
1247.661, 50008.00
1248.738, 50189.00
1249.814, 50244.00
1250.890, 50381.00
1251.966, 50303.00
1253.042, 50589.00
1254.117, 50366.00
1255.193, 50486.00
1256.268, 50367.00
1257.343, 50364.00
1258.418, 50435.00
1259.493, 50340.00
1260.567, 50509.00
1261.642, 50814.00
1262.716, 50990.00
1263.790, 51136.00
1264.864, 51041.00
1265.938, 51075.00
1267.011, 51166.00
1268.085, 50851.00
1269.158, 50910.00
1270.231, 50797.00
1271.304, 50987.00
1272.377, 50963.00
1273.450, 51210.00
1274.522, 51084.00
1275.594, 51394.00
1276.666, 51500.00
1277.738, 51480.00
1278.810, 51383.00
1279.882, 51298.00
1280.953, 51468.00
1282.025, 51369.00
1283.096, 51561.00
1284.167, 51546.00
1285.238, 51624.83
1286.308, 51607.00
1287.379, 51862.00
1288.449, 51749.00
1289.519, 51995.00
1290.589, 52080.00
1291.659, 52106.00
1292.729, 52266.00
1293.798, 52466.00
1294.868, 52191.00
1295.937, 52417.00
1297.006, 52378.00
1298.075, 52543.00
1299.143, 52294.00
1300.212, 52581.00
1301.280, 52571.00
1302.348, 52385.00
1303.416, 52391.00
1304.484, 52597.00
1305.552, 52838.00
1306.620, 52336.00
1307.687, 52706.00
1308.754, 52565.00
1309.821, 53137.00
1310.888, 52907.00
1311.955, 53109.00
1313.021, 53146.00
1314.088, 52802.00
1315.154, 52987.00
1316.220, 53073.00
1317.286, 53089.00
1318.352, 53426.00
1319.417, 53331.00
1320.483, 53343.00
1321.548, 53536.00
1322.613, 53555.00
1323.678, 53599.00
1324.743, 53546.00
1325.807, 53537.00
1326.872, 53878.00
1327.936, 53891.00
1329.000, 53860.00
1330.064, 53923.00
1331.128, 53913.00
1332.191, 53930.93
1333.255, 54072.00
1334.318, 53954.00
1335.381, 53793.00
1336.444, 53768.00
1337.507, 53931.00
1338.569, 53938.27
1339.632, 54137.00
1340.694, 54275.00
1341.756, 54252.00
1342.818, 54588.00
1343.880, 54524.00
1344.941, 54445.00
1346.003, 54291.00
1347.064, 54469.00
1348.125, 54221.00
1349.186, 54544.00
1350.247, 54489.00
1351.308, 54721.00
1352.368, 54505.00
1353.428, 54679.00
1354.489, 54601.00
1355.549, 54998.00
1356.608, 54935.00
1357.668, 55064.00
1358.727, 54663.00
1359.787, 55136.00
1360.846, 55089.00
1361.905, 54914.00
1362.964, 55312.00
1364.022, 55147.00
1365.081, 54941.00
1366.139, 55305.00
1367.197, 55465.00
1368.255, 55045.00
1369.313, 55536.00
1370.371, 55365.00
1371.428, 55556.00
1372.486, 55435.00
1373.543, 55592.00
1374.600, 55618.00
1375.657, 55614.00
1376.713, 55707.00
1377.770, 55601.00
1378.826, 55622.00
1379.882, 55538.00
1380.938, 55567.34
1381.994, 55609.41
1383.050, 55634.00
1384.106, 55823.00
1385.161, 55867.00
1386.216, 56151.00
1387.271, 55893.00
1388.326, 55849.00
1389.381, 56054.00
1390.435, 56039.00
1391.490, 56006.00
1392.544, 56299.00
1393.598, 56130.00
1394.652, 56115.00
1395.705, 56415.00
1396.759, 56499.00
1397.812, 56797.00
1398.866, 56760.00
1399.919, 56206.00
1400.972, 56411.00
1402.024, 56274.00
1403.077, 56322.00
1404.129, 56478.00
1405.181, 56465.76
1406.233, 56603.00
1407.285, 56597.00
1408.337, 56852.00
1409.389, 56863.00
1410.440, 56954.77
1411.491, 56859.00
1412.542, 57040.00
1413.593, 56959.00
1414.644, 56881.00
1415.695, 57291.00
1416.745, 56818.00
1417.795, 57207.00
1418.845, 57106.00
1419.895, 57427.00
1420.945, 56958.00
1421.995, 57545.00
1423.044, 57356.00
1424.093, 57034.00
1425.142, 57619.00
1426.191, 57407.00
1427.240, 57748.00
1428.289, 57556.00
1429.337, 57296.00
1430.385, 57213.00
1431.433, 57682.00
1432.481, 57557.00
1433.529, 57626.00
1434.577, 57710.00
1435.624, 57792.00
1436.672, 57952.00
1437.719, 57914.00
1438.766, 58006.00
1439.812, 57861.00
1440.859, 57939.28
1441.905, 57990.00
1442.952, 58030.00
1443.998, 58101.00
1445.044, 58206.00
1446.090, 58360.00
1447.135, 58069.00
1448.181, 58045.00
1449.226, 58275.00
1450.271, 58110.00
1451.316, 58517.00
1452.361, 58410.00
1453.405, 58379.00
1454.450, 58496.00
1455.494, 58647.00
1456.538, 58651.00
1457.582, 58532.00
1458.626, 58729.00
1459.670, 58692.00
1460.713, 58800.00
1461.757, 58660.00
1462.800, 58843.00
1463.843, 59022.00
1464.886, 58596.00
1465.928, 58944.00
1466.971, 58871.00
1468.013, 58861.00
1469.055, 58952.00
1470.097, 59120.00
1471.139, 59062.00
1472.181, 59225.00
1473.222, 59296.00
1474.263, 59264.00
1475.305, 59132.00
1476.346, 59266.00
1477.386, 59160.03
1478.427, 59389.00
1479.468, 59132.00
1480.508, 59192.00
1481.548, 59287.00
1482.588, 59342.00
1483.628, 59132.00
1484.668, 59203.00
1485.707, 59337.00
1486.747, 59642.00
1487.786, 59636.00
1488.825, 59542.00
1489.864, 59810.00
1490.902, 59306.00
1491.941, 59535.00
1492.979, 59655.00
1494.017, 59589.00
1495.055, 59650.00
1496.093, 59527.00
1497.131, 59651.00
1498.168, 59630.00
1499.206, 59729.00
1500.243, 59707.00
1501.280, 59821.00
1502.317, 59881.00
1503.354, 59973.00
1504.390, 59946.00
1505.426, 60062.00
1506.463, 60080.00
1507.499, 59906.00
1508.535, 59997.00
1509.570, 60161.00
1510.606, 60029.00
1511.641, 60177.00
1512.676, 60052.00
1513.711, 60106.00
1514.746, 60297.00
1515.781, 60240.00
1516.816, 60230.00
1517.850, 60292.00
1518.884, 60310.00
1519.918, 60335.00
1520.952, 60409.00
1521.986, 60385.00
1523.019, 60387.00
1524.053, 60348.00
1525.086, 60614.00
1526.119, 60734.00
1527.152, 60631.00
1528.185, 60657.00
1529.217, 60531.00
1530.250, 60437.00
1531.282, 60655.00
1532.314, 60758.00
1533.346, 60486.00
1534.377, 60713.00
1535.409, 60653.00
1536.440, 60966.00
1537.472, 60504.00
1538.503, 60585.00
1539.534, 60830.00
1540.564, 60645.00
1541.595, 60837.00
1542.625, 60943.00
1543.656, 60800.00
1544.686, 60971.00
1545.716, 61109.00
1546.745, 61107.00
1547.775, 60779.00
1548.804, 61018.00
1549.834, 60989.00
1550.863, 60968.00
1551.892, 61333.00
1552.920, 60719.00
1553.949, 61154.00
1554.977, 61291.00
1556.006, 61228.00
1557.034, 60937.00
1558.062, 61279.00
1559.089, 61241.00
1560.117, 61165.00
1561.144, 61131.00
1562.172, 61194.00
1563.199, 61240.00
1564.226, 61263.48
1565.252, 61494.00
1566.279, 61388.00
1567.305, 61491.00
1568.332, 61634.00
1569.358, 61433.00
1570.384, 61673.00
1571.409, 61830.00
##END=



