##NAMES=Fluorapatite
##RRUFFID=R060070
##IDEAL CHEMISTRY=Ca_5_(PO_4_)_3_F
##LOCALITY=Panasqueira, Portugal
##OWNER=RRUFF
##SOURCE=Dave Bunk
##DESCRIPTION=Green hexagonal tablet
##STATUS=The identification of this mineral has been confirmed by X-ray diffraction and chemical analysis
##URL=rruff.info/R060070
##MEASURED CHEMISTRY=(Ca_0.99_Mn_0.01_)_5_(P_1.00_O_4_)_3_F_1.00_
##PIN_ID=L01695
##ORIENTATION=Laser parallel to -a* (-1 0 0). Fiducial mark perpendicular to laser is parallel to -c [0 0 -1]
118.1340, 5574.000
119.3650, 5780.000
120.5960, 5725.000
121.8270, 5721.000
123.0580, 5791.000
124.2880, 5793.000
125.5190, 5894.000
126.7490, 6010.000
127.9790, 6024.000
129.2090, 6055.000
130.4390, 6099.000
131.6680, 6059.000
132.8980, 6081.000
134.1270, 6237.000
135.3560, 6320.000
136.5850, 6261.000
137.8140, 6294.000
139.0430, 6235.000
140.2710, 6396.000
141.5000, 6409.000
142.7280, 6497.000
143.9560, 6473.000
145.1840, 6454.000
146.4120, 6542.000
147.6390, 6568.000
148.8670, 6567.000
150.0940, 6700.000
151.3210, 6711.000
152.5490, 6674.000
153.7750, 6664.000
155.0020, 6807.000
156.2290, 6789.000
157.4550, 6879.000
158.6810, 6845.000
159.9080, 6817.000
161.1340, 6892.000
162.3590, 6856.000
163.5850, 6883.000
164.8110, 6937.000
166.0360, 7152.000
167.2610, 6933.000
168.4860, 7197.000
169.7110, 6975.000
170.9360, 7157.000
172.1610, 7166.000
173.3850, 7150.000
174.6100, 7098.000
175.8340, 7300.000
177.0580, 7268.000
178.2820, 7255.000
179.5050, 7355.000
180.7290, 7359.000
181.9520, 7319.000
183.1760, 7360.000
184.3990, 7416.000
185.6220, 7345.000
186.8450, 7429.000
188.0670, 7523.000
189.2900, 7436.000
190.5120, 7449.000
191.7340, 7541.000
192.9560, 7577.000
194.1780, 7588.000
195.4000, 7608.000
196.6220, 7650.000
197.8430, 7681.000
199.0640, 7705.000
200.2860, 7732.045
201.5070, 7730.000
202.7270, 7764.000
203.9480, 7802.000
205.1690, 7801.000
206.3890, 7914.000
207.6090, 7782.000
208.8290, 7872.000
210.0490, 8028.000
211.2690, 8058.000
212.4890, 7936.000
213.7080, 8074.000
214.9280, 7987.000
216.1470, 8134.000
217.3660, 8132.000
218.5850, 8169.000
219.8030, 8175.000
221.0220, 8251.000
222.2400, 8152.000
223.4590, 8339.000
224.6770, 8215.000
225.8950, 8361.000
227.1120, 8304.000
228.3300, 8354.000
229.5480, 8506.000
230.7650, 8446.000
231.9820, 8569.000
233.1990, 8582.000
234.4160, 8573.000
235.6330, 8567.000
236.8490, 8612.000
238.0660, 8611.000
239.2820, 8676.000
240.4980, 8621.000
241.7140, 8674.000
242.9300, 8757.000
244.1460, 8778.000
245.3610, 8742.000
246.5770, 8847.000
247.7920, 8864.000
249.0070, 8845.000
250.2220, 9030.000
251.4370, 8875.000
252.6510, 8978.000
253.8660, 8965.000
255.0800, 9091.000
256.2940, 9043.000
257.5080, 9117.000
258.7220, 9111.000
259.9360, 9135.000
261.1490, 9229.000
262.3630, 9212.000
263.5760, 9321.000
264.7890, 9279.000
266.0020, 9476.000
267.2150, 9332.000
268.4270, 9287.000
269.6400, 9381.000
270.8520, 9517.000
272.0640, 9637.000
273.2760, 9464.000
274.4880, 9464.000
275.7000, 9547.000
276.9120, 9546.000
278.1230, 9552.000
279.3340, 9668.000
280.5450, 9639.000
281.7560, 9777.000
282.9670, 9776.000
284.1780, 9771.000
285.3880, 9878.000
286.5980, 9843.494
287.8090, 9981.000
289.0190, 9857.000
290.2290, 9875.000
291.4380, 9904.000
292.6480, 9874.000
293.8570, 9965.000
295.0670, 10043.00
296.2760, 9989.000
297.4850, 10055.00
298.6930, 9952.000
299.9020, 10117.00
301.1110, 10185.00
302.3190, 10130.00
303.5270, 10261.00
304.7350, 10360.00
305.9430, 10420.00
307.1510, 10495.00
308.3580, 10445.00
309.5660, 10486.00
310.7730, 10505.00
311.9800, 10496.00
313.1870, 10557.00
314.3940, 10622.00
315.6010, 10577.00
316.8070, 10795.00
318.0130, 10714.00
319.2200, 10739.00
320.4260, 10615.00
321.6310, 10684.00
322.8370, 10789.00
324.0430, 10797.00
325.2480, 10946.00
326.4540, 10852.00
327.6590, 10810.00
328.8640, 10973.00
330.0680, 10969.00
331.2730, 11060.00
332.4780, 11019.00
333.6820, 10999.00
334.8860, 11188.00
336.0900, 11234.00
337.2940, 11244.00
338.4980, 11247.00
339.7010, 11258.00
340.9050, 11285.89
342.1080, 11365.00
343.3110, 11322.00
344.5140, 11416.00
345.7170, 11381.00
346.9200, 11492.00
348.1220, 11512.00
349.3240, 11573.00
350.5270, 11638.00
351.7290, 11656.20
352.9310, 11653.00
354.1320, 11693.00
355.3340, 11714.00
356.5350, 11691.00
357.7370, 11811.00
358.9380, 11838.00
360.1390, 11885.00
361.3400, 11809.00
362.5400, 12037.00
363.7410, 11915.00
364.9410, 12090.00
366.1410, 11984.00
367.3410, 12125.00
368.5410, 12041.00
369.7410, 12104.00
370.9400, 12280.00
372.1400, 12223.00
373.3390, 12361.00
374.5380, 12307.00
375.7370, 12323.00
376.9360, 12433.00
378.1350, 12544.00
379.3330, 12420.00
380.5310, 12580.00
381.7300, 12533.00
382.9280, 12459.00
384.1260, 12488.00
385.3230, 12697.00
386.5210, 12566.00
387.7180, 12733.00
388.9160, 12707.00
390.1130, 12886.00
391.3100, 12746.00
392.5060, 12873.00
393.7030, 12922.00
394.9000, 12939.00
396.0960, 12900.00
397.2920, 12946.00
398.4880, 12999.00
399.6840, 13103.00
400.8800, 13089.00
402.0750, 13134.00
403.2710, 13183.00
404.4660, 13205.00
405.6610, 13241.08
406.8560, 13231.00
408.0510, 13318.00
409.2450, 13359.00
410.4400, 13453.00
411.6340, 13422.00
412.8280, 13511.00
414.0220, 13535.00
415.2160, 13524.00
416.4100, 13673.00
417.6030, 13771.00
418.7970, 13735.00
419.9900, 13620.00
421.1830, 13759.00
422.3760, 13633.00
423.5690, 13796.00
424.7610, 13994.00
425.9540, 13889.00
427.1460, 14039.00
428.3380, 13982.00
429.5300, 14144.00
430.7220, 14096.00
431.9140, 14182.00
433.1050, 14286.00
434.2970, 14261.00
435.4880, 14371.00
436.6790, 14324.00
437.8700, 14330.00
439.0610, 14295.00
440.2510, 14417.00
441.4420, 14601.00
442.6320, 14698.00
443.8220, 14642.00
445.0120, 14481.00
446.2020, 14777.00
447.3910, 14709.00
448.5810, 14751.00
449.7700, 14807.00
450.9600, 14819.00
452.1490, 14850.00
453.3370, 14904.37
454.5260, 14923.00
455.7150, 14997.00
456.9030, 15019.00
458.0910, 15038.00
459.2800, 15163.00
460.4670, 14994.00
461.6550, 15133.00
462.8430, 15093.00
464.0300, 15212.00
465.2180, 15230.00
466.4050, 15365.00
467.5920, 15320.00
468.7790, 15485.00
469.9650, 15610.00
471.1520, 15590.00
472.3380, 15644.00
473.5250, 15608.00
474.7110, 15750.00
475.8970, 15660.00
477.0820, 15777.00
478.2680, 15776.00
479.4540, 15810.00
480.6390, 15856.00
481.8240, 15934.00
483.0090, 15899.00
484.1940, 15822.00
485.3780, 15978.00
486.5630, 15942.00
487.7470, 16247.00
488.9320, 16071.00
490.1160, 16366.00
491.3000, 16312.00
492.4830, 16312.00
493.6670, 16247.00
494.8500, 16453.00
496.0340, 16439.00
497.2170, 16645.00
498.4000, 16598.00
499.5820, 16632.00
500.7650, 16626.00
501.9480, 16696.00
503.1300, 16839.00
504.3120, 16745.00
505.4940, 16953.00
506.6760, 16936.00
507.8580, 16875.00
509.0390, 17096.00
510.2210, 17021.00
511.4020, 17156.00
512.5830, 17146.00
513.7640, 17118.00
514.9450, 17268.00
516.1250, 17262.73
517.3060, 17305.00
518.4860, 17342.00
519.6660, 17409.00
520.8460, 17373.00
522.0260, 17457.00
523.2060, 17498.00
524.3850, 17553.00
525.5650, 17674.00
526.7440, 17632.00
527.9230, 17623.00
529.1020, 17557.00
530.2810, 17680.00
531.4590, 17786.00
532.6380, 17871.00
533.8160, 17875.00
534.9940, 17971.00
536.1720, 17962.00
537.3500, 18124.00
538.5270, 18073.00
539.7050, 18003.00
540.8820, 18286.00
542.0590, 18157.00
543.2360, 18278.00
544.4130, 18400.00
545.5900, 18479.00
546.7660, 18543.12
547.9430, 18475.00
549.1190, 18613.00
550.2950, 18666.00
551.4710, 18675.00
552.6470, 18800.00
553.8220, 18693.00
554.9980, 18846.00
556.1730, 18862.00
557.3480, 18691.00
558.5230, 18770.00
559.6980, 19086.00
560.8730, 19006.00
562.0470, 19065.00
563.2220, 19106.00
564.3960, 19256.00
565.5700, 19268.00
566.7440, 19228.00
567.9170, 19461.00
569.0910, 19269.00
570.2640, 19415.00
571.4380, 19468.00
572.6110, 19665.00
573.7840, 19499.00
574.9570, 19624.00
576.1290, 19774.00
577.3020, 19833.00
578.4740, 19893.66
579.6460, 19888.00
580.8180, 19944.00
581.9900, 20038.00
583.1620, 20073.97
584.3330, 20137.00
585.5040, 20178.49
586.6760, 20126.00
587.8470, 20240.00
589.0180, 20217.00
590.1880, 20234.00
591.3590, 20576.00
592.5290, 20406.00
593.7000, 20357.00
594.8700, 20590.00
596.0400, 20470.00
597.2090, 20641.00
598.3790, 20669.00
599.5490, 20821.00
600.7180, 20685.00
601.8870, 20758.00
603.0560, 20860.00
604.2250, 20952.00
605.3940, 21002.00
606.5620, 20922.00
607.7300, 21086.00
608.8990, 21175.00
610.0670, 21155.00
611.2350, 21292.00
612.4020, 21387.00
613.5700, 21312.00
614.7370, 21410.00
615.9050, 21449.00
617.0720, 21516.00
618.2390, 21562.58
619.4060, 21671.00
620.5720, 21695.00
621.7390, 21603.00
622.9050, 21778.00
624.0710, 21730.00
625.2370, 21921.00
626.4030, 21997.00
627.5690, 22134.00
628.7340, 22113.00
629.9000, 22175.62
631.0650, 22106.00
632.2300, 22266.00
633.3950, 22197.00
634.5600, 22364.00
635.7240, 22291.00
636.8890, 22380.00
638.0530, 22604.00
639.2170, 22325.00
640.3810, 22549.00
641.5450, 22438.00
642.7080, 22873.00
643.8720, 22734.00
645.0350, 22831.00
646.1980, 22781.00
647.3610, 22859.00
648.5240, 22991.00
649.6870, 22852.00
650.8490, 22939.00
652.0120, 23043.00
653.1740, 23050.00
654.3360, 23169.38
655.4980, 23181.00
656.6600, 23352.00
657.8210, 23346.00
658.9830, 23430.00
660.1440, 23419.00
661.3050, 23458.00
662.4660, 23519.00
663.6270, 23620.00
664.7870, 23648.00
665.9480, 23575.00
667.1080, 23895.00
668.2680, 23649.00
669.4280, 23967.00
670.5880, 23892.00
671.7480, 23830.00
672.9070, 24064.00
674.0670, 24196.00
675.2260, 24201.00
676.3850, 24313.00
677.5440, 24358.00
678.7030, 24328.00
679.8610, 24355.00
681.0200, 24356.00
682.1780, 24493.00
683.3360, 24582.00
684.4940, 24641.00
685.6520, 24707.00
686.8090, 24929.00
687.9670, 24928.00
689.1240, 24979.82
690.2810, 24837.00
691.4380, 25019.00
692.5950, 24895.00
693.7520, 24989.00
694.9080, 25335.00
696.0650, 25024.00
697.2210, 25355.00
698.3770, 25270.00
699.5330, 25233.00
700.6880, 25416.00
701.8440, 25329.00
702.9990, 25483.70
704.1550, 25657.00
705.3100, 25740.00
706.4650, 25810.00
707.6190, 25949.00
708.7740, 25877.00
709.9290, 25940.00
711.0830, 25829.00
712.2370, 25936.00
713.3910, 25961.18
714.5450, 26104.00
715.6980, 26101.00
716.8520, 26148.00
718.0050, 26237.00
719.1580, 26367.00
720.3110, 26545.00
721.4640, 26452.00
722.6170, 26417.00
723.7700, 26610.00
724.9220, 26549.00
726.0740, 26679.00
727.2260, 26698.00
728.3780, 26670.00
729.5300, 26756.00
730.6810, 26974.00
731.8330, 26965.00
732.9840, 27013.00
734.1350, 27095.81
735.2860, 27058.00
736.4370, 27140.00
737.5880, 27216.00
738.7380, 27165.00
739.8880, 27346.00
741.0390, 27435.00
742.1890, 27412.00
743.3380, 27422.00
744.4880, 27464.00
745.6380, 27634.00
746.7870, 27674.00
747.9360, 27940.00
749.0850, 27849.00
750.2340, 27816.00
751.3830, 27945.00
752.5310, 28129.00
753.6800, 28050.00
754.8280, 28317.00
755.9760, 28265.00
757.1240, 28354.00
758.2720, 28264.00
759.4190, 28448.00
760.5670, 28569.00
761.7140, 28303.00
762.8610, 28563.00
764.0080, 28510.00
765.1550, 28553.00
766.3020, 28473.00
767.4480, 28619.66
768.5950, 28968.00
769.7410, 28935.00
770.8870, 28934.00
772.0330, 29128.00
773.1780, 29059.00
774.3240, 29213.00
775.4690, 29276.00
776.6140, 29193.00
777.7590, 29285.00
778.9040, 29626.00
780.0490, 29505.00
781.1940, 29428.00
782.3380, 29870.00
783.4820, 29545.00
784.6260, 29604.00
785.7700, 29795.00
786.9140, 29728.00
788.0580, 29951.00
789.2010, 29855.00
790.3450, 29970.00
791.4880, 29988.00
792.6310, 30206.00
793.7730, 30362.00
794.9160, 30148.00
796.0590, 30456.00
797.2010, 30339.00
798.3430, 30539.00
799.4850, 30568.00
800.6270, 30618.00
801.7690, 30467.00
802.9100, 30771.00
804.0520, 30912.00
805.1930, 30588.00
806.3340, 30797.00
807.4750, 30954.00
808.6160, 30874.00
809.7560, 31027.00
810.8970, 30977.00
812.0370, 31321.00
813.1770, 31327.00
814.3170, 31336.00
815.4570, 31381.00
816.5960, 31332.00
817.7360, 31436.00
818.8750, 31809.00
820.0140, 31565.00
821.1530, 31732.00
822.2920, 31571.00
823.4310, 31582.00
824.5690, 32022.00
825.7070, 31976.00
826.8460, 31753.00
827.9840, 32062.00
829.1220, 32350.00
830.2590, 32224.00
831.3970, 32137.00
832.5340, 32458.00
833.6710, 32083.00
834.8080, 32350.00
835.9450, 32447.00
837.0820, 32418.00
838.2190, 32552.00
839.3550, 32867.00
840.4910, 32726.00
841.6270, 32656.00
842.7630, 32989.00
843.8990, 33022.00
845.0350, 33059.00
846.1700, 33301.00
847.3060, 33206.00
848.4410, 33194.00
849.5760, 33257.00
850.7100, 33304.00
851.8450, 33388.93
852.9800, 33257.00
854.1140, 33602.00
855.2480, 33574.00
856.3820, 33668.00
857.5160, 33539.00
858.6500, 33675.00
859.7830, 33744.00
860.9170, 34064.00
862.0500, 34071.00
863.1830, 34125.00
864.3160, 34171.00
865.4480, 33990.00
866.5810, 34256.00
867.7130, 34268.00
868.8460, 34234.00
869.9780, 34457.00
871.1100, 34473.00
872.2410, 34582.00
873.3730, 34560.00
874.5050, 34579.00
875.6360, 34731.00
876.7670, 34724.00
877.8980, 34810.00
879.0290, 34866.08
880.1590, 34906.58
881.2900, 34936.00
882.4200, 34995.00
883.5500, 34986.00
884.6800, 34980.00
885.8100, 35237.00
886.9400, 35218.00
888.0690, 35413.00
889.1990, 35506.00
890.3280, 35375.00
891.4570, 35433.00
892.5860, 35473.00
893.7140, 35616.00
894.8430, 35664.00
895.9710, 35968.00
897.1000, 35787.00
898.2280, 35778.00
899.3560, 35997.00
900.4830, 36261.00
901.6110, 35944.00
902.7380, 36192.00
903.8660, 36449.00
904.9930, 36338.00
906.1200, 36322.00
907.2460, 36215.00
908.3730, 36526.00
909.5000, 36637.00
910.6260, 36533.00
911.7520, 36711.00
912.8780, 36656.00
914.0040, 36776.00
915.1290, 36504.00
916.2550, 36897.00
917.3800, 37053.00
918.5050, 36710.00
919.6300, 37076.00
920.7550, 37090.00
921.8800, 37213.00
923.0040, 37407.00
924.1290, 37168.00
925.2530, 37332.00
926.3770, 37600.00
927.5010, 37413.00
928.6250, 37582.00
929.7480, 38089.00
930.8720, 37856.00
931.9950, 37875.00
933.1180, 37838.00
934.2410, 37804.00
935.3640, 37809.00
936.4860, 37984.00
937.6090, 38170.00
938.7310, 38240.00
939.8530, 38201.00
940.9750, 38253.00
942.0970, 38565.00
943.2180, 38484.00
944.3400, 38424.00
945.4610, 38837.00
946.5820, 38876.00
947.7030, 38917.00
948.8240, 38590.00
949.9450, 38844.00
951.0650, 38733.00
952.1860, 38613.00
953.3060, 39142.00
954.4260, 39284.00
955.5460, 39617.00
956.6650, 39480.00
957.7850, 39847.00
958.9040, 40098.00
960.0230, 40534.00
961.1420, 40818.00
962.2610, 41223.00
963.3800, 41190.00
964.4990, 41681.00
965.6170, 41601.00
966.7350, 41461.00
967.8530, 41143.00
968.9710, 40989.00
970.0890, 40690.00
971.2070, 40450.00
972.3240, 40356.00
973.4410, 40135.00
974.5580, 40143.72
975.6750, 40287.00
976.7920, 40240.00
977.9090, 40417.00
979.0250, 40584.00
980.1410, 40534.00
981.2580, 40685.00
982.3740, 40472.00
983.4890, 40704.00
984.6050, 40791.00
985.7200, 40652.00
986.8360, 40854.00
987.9510, 40957.00
989.0660, 41043.00
990.1810, 41089.00
991.2950, 41112.00
992.4100, 41187.00
993.5240, 41215.00
994.6390, 41324.00
995.7530, 41310.00
996.8660, 41342.31
997.9800, 41426.00
999.0940, 41341.00
1000.207, 41409.00
1001.320, 41393.43
1002.433, 41560.00
1003.546, 41599.00
1004.659, 41696.00
1005.772, 41897.00
1006.884, 42037.00
1007.996, 42140.87
1009.108, 42020.00
1010.220, 42316.00
1011.332, 42520.00
1012.444, 42547.00
1013.555, 42326.00
1014.666, 42203.00
1015.777, 42036.00
1016.888, 42134.51
1017.999, 42435.00
1019.110, 42554.00
1020.220, 42652.00
1021.331, 42810.54
1022.441, 42903.00
1023.551, 42952.00
1024.661, 42805.00
1025.770, 42750.00
1026.880, 42955.00
1027.989, 43146.00
1029.098, 43111.00
1030.207, 43248.00
1031.316, 43304.67
1032.425, 43514.00
1033.533, 43460.00
1034.642, 43554.00
1035.750, 43725.00
1036.858, 43531.00
1037.966, 43597.00
1039.073, 43634.00
1040.181, 43931.00
1041.288, 43812.00
1042.396, 44038.00
1043.503, 43884.00
1044.610, 44211.00
1045.716, 44159.00
1046.823, 44200.00
1047.929, 44264.00
1049.036, 44198.00
1050.142, 44462.00
1051.248, 44407.00
1052.353, 44618.00
1053.459, 44602.00
1054.564, 44647.00
1055.670, 44927.00
1056.775, 44905.00
1057.880, 44729.00
1058.985, 44925.00
1060.089, 45074.00
1061.194, 44889.00
1062.298, 45305.00
1063.402, 45323.00
1064.506, 44970.00
1065.610, 45481.00
1066.713, 45247.00
1067.817, 45181.00
1068.920, 45289.00
1070.023, 45523.00
1071.126, 45735.00
1072.229, 45559.00
1073.332, 45615.00
1074.435, 45772.00
1075.537, 45665.00
1076.639, 45997.00
1077.741, 45932.00
1078.843, 46062.00
1079.945, 46095.00
1081.046, 45879.00
1082.148, 46278.00
1083.249, 46226.00
1084.350, 46440.00
1085.451, 46242.00
1086.551, 46204.00
1087.652, 46480.00
1088.752, 46524.00
1089.853, 46807.00
1090.953, 46684.00
1092.053, 46919.00
1093.152, 46660.00
1094.252, 47040.00
1095.351, 46804.00
1096.451, 46908.00
1097.550, 47124.00
1098.649, 47173.00
1099.748, 47110.00
1100.846, 47125.00
1101.945, 47520.00
1103.043, 47296.00
1104.141, 47413.00
1105.239, 47662.00
1106.337, 47500.00
1107.434, 47596.00
1108.532, 47785.00
1109.629, 47386.00
1110.726, 47755.00
1111.823, 47524.00
1112.920, 47846.00
1114.017, 47818.00
1115.113, 47757.00
1116.210, 48183.00
1117.306, 48219.00
1118.402, 48134.00
1119.498, 48263.00
1120.593, 48420.00
1121.689, 48669.00
1122.784, 48682.00
1123.879, 48693.00
1124.974, 48297.00
1126.069, 48553.00
1127.164, 48356.00
1128.259, 48539.00
1129.353, 48530.00
1130.447, 48607.00
1131.541, 48713.00
1132.635, 48630.00
1133.729, 48967.00
1134.822, 49080.00
1135.916, 48999.00
1137.009, 49016.00
1138.102, 49476.00
1139.195, 49179.00
1140.288, 49265.00
1141.380, 49591.00
1142.473, 49366.00
1143.565, 49405.00
1144.657, 49539.00
1145.749, 49674.00
1146.841, 49660.00
1147.932, 49608.00
1149.024, 49816.00
1150.115, 49800.00
1151.206, 49606.00
1152.297, 49781.00
1153.388, 50024.00
1154.479, 50042.00
1155.569, 49826.00
1156.659, 50192.00
1157.750, 50103.00
1158.839, 50326.00
1159.929, 50243.00
1161.019, 50686.00
1162.108, 50369.00
1163.198, 50153.00
1164.287, 50463.00
1165.376, 50429.00
1166.465, 50672.00
1167.553, 50617.00
1168.642, 50664.00
1169.730, 51001.00
1170.818, 50910.00
1171.906, 50895.00
1172.994, 51182.00
1174.082, 50915.00
1175.170, 50910.00
1176.257, 51437.00
1177.344, 51446.00
1178.431, 51113.00
1179.518, 50955.00
1180.605, 51497.00
1181.691, 51450.00
1182.778, 51348.00
1183.864, 51589.00
1184.950, 51565.00
1186.036, 51407.00
1187.122, 51614.00
1188.207, 51718.00
1189.292, 51658.00
1190.378, 51855.00
1191.463, 51854.00
1192.548, 51981.00
1193.632, 52107.00
1194.717, 52028.00
1195.801, 51781.00
1196.886, 52042.00
1197.970, 52022.00
1199.054, 52106.00
1200.137, 52441.00
1201.221, 52600.00
1202.305, 52109.00
1203.388, 52577.00
1204.471, 52527.00
1205.554, 52872.00
1206.637, 52683.00
1207.719, 52688.00
1208.802, 52699.00
1209.884, 52948.00
1210.966, 53049.00
1212.048, 53029.00
1213.130, 52959.00
1214.212, 53379.00
1215.293, 53134.00
1216.374, 53506.00
1217.456, 53154.00
1218.536, 53579.00
1219.617, 53305.00
1220.698, 53085.00
1221.778, 53726.00
1222.859, 53040.00
1223.939, 53344.00
1225.019, 53689.00
1226.099, 53329.00
1227.178, 53920.00
1228.258, 53241.00
1229.337, 53684.00
1230.417, 53830.00
1231.496, 53937.00
1232.574, 54017.00
1233.653, 53902.00
1234.732, 53963.00
1235.810, 54020.00
1236.888, 54104.00
1237.966, 54193.59
1239.044, 54224.00
1240.122, 54269.46
1241.199, 54307.00
1242.277, 54328.09
1243.354, 54362.10
1244.431, 54433.00
1245.508, 54413.00
1246.585, 54534.00
1247.661, 54647.00
1248.738, 54816.00
1249.814, 54627.00
1250.890, 54909.00
1251.966, 54756.00
1253.042, 55049.00
1254.117, 54714.00
1255.193, 55094.00
1256.268, 55058.00
1257.343, 54476.00
1258.418, 54832.00
1259.493, 55002.00
1260.567, 54917.00
1261.642, 55268.00
1262.716, 55280.00
1263.790, 55443.00
1264.864, 55415.00
1265.938, 55424.58
1267.011, 55503.00
1268.085, 55493.00
1269.158, 55544.97
1270.231, 55736.00
1271.304, 55634.00
1272.377, 55737.00
1273.450, 55811.00
1274.522, 55724.00
1275.594, 55626.00
1276.666, 55877.00
1277.738, 55710.00
1278.810, 56014.00
1279.882, 55715.00
1280.953, 55981.00
1282.025, 55876.00
1283.096, 55824.00
1284.167, 56270.00
1285.238, 56204.00
1286.308, 56086.00
1287.379, 56295.00
1288.449, 56331.00
1289.519, 56330.00
1290.589, 56163.00
1291.659, 56647.00
1292.729, 56222.00
1293.798, 56505.00
1294.868, 56751.00
1295.937, 56437.00
1297.006, 56641.00
1298.075, 56388.00
1299.143, 56597.00
1300.212, 56617.00
1301.280, 56455.00
1302.348, 56717.00
1303.416, 56836.00
1304.484, 56977.00
1305.552, 56914.00
1306.620, 56911.00
1307.687, 56992.22
1308.754, 57057.00
1309.821, 57060.00
1310.888, 57137.00
1311.955, 57088.00
1313.021, 57471.00
1314.088, 57135.00
1315.154, 57652.00
1316.220, 57343.00
1317.286, 57816.00
1318.352, 57827.00
1319.417, 57925.00
1320.483, 58209.00
1321.548, 58122.00
1322.613, 58027.00
1323.678, 58233.00
1324.743, 57942.00
1325.807, 58246.00
1326.872, 58361.00
1327.936, 58544.00
1329.000, 58176.00
1330.064, 58496.00
1331.128, 58558.00
1332.191, 58446.00
1333.255, 59077.00
1334.318, 59078.00
1335.381, 58923.00
1336.444, 58721.00
1337.507, 58889.00
1338.569, 58719.00
1339.632, 59070.00
1340.694, 58926.00
1341.756, 58803.00
1342.818, 59229.00
1343.880, 59179.00
1344.941, 59348.00
1346.003, 58913.00
1347.064, 58986.00
1348.125, 59228.00
1349.186, 59367.00
1350.247, 59303.00
1351.308, 59333.00
1352.368, 59436.00
1353.428, 59466.00
1354.489, 59558.00
1355.549, 59503.00
1356.608, 59617.39
1357.668, 59571.00
1358.727, 59781.00
1359.787, 59836.00
1360.846, 59908.00
1361.905, 59732.00
1362.964, 59891.00
1364.022, 59891.00
1365.081, 60125.00
1366.139, 60181.00
1367.197, 60064.00
1368.255, 60009.00
1369.313, 60183.00
1370.371, 60366.00
1371.428, 60273.00
1372.486, 60299.00
1373.543, 60219.00
1374.600, 60229.00
1375.657, 60016.00
1376.713, 60109.61
1377.770, 60451.00
1378.826, 60243.00
1379.882, 60450.00
1380.938, 60594.00
1381.994, 60488.00
1383.050, 60479.00
1384.106, 60733.00
1385.161, 60726.00
1386.216, 60883.00
1387.271, 60788.00
1388.326, 60796.00
1389.381, 60670.00
1390.435, 60713.22
1391.490, 61073.00
1392.544, 60806.00
1393.598, 60956.00
1394.652, 61072.00
1395.705, 60947.00
1396.759, 61069.00
1397.812, 61283.00
1398.866, 61257.00
1399.919, 61406.11
1400.972, 61241.00
1402.024, 61389.00
1403.077, 61445.00
1404.129, 61433.47
1405.181, 61537.00
1406.233, 61515.00
1407.285, 61625.00
1408.337, 61681.00
1409.389, 61674.29
1410.440, 61571.00
1411.491, 61772.00
1412.542, 61797.00
1413.593, 62046.00
1414.644, 61790.00
1415.695, 61753.00
1416.745, 62023.00
1417.795, 62031.00
1418.845, 62047.93
1419.895, 61865.00
1420.945, 62058.00
1421.995, 62011.00
1423.044, 62076.00
1424.093, 62305.00
1425.142, 62256.00
1426.191, 62168.00
1427.240, 62226.00
1428.289, 62240.03
1429.337, 62407.00
1430.385, 62345.00
1431.433, 62472.00
1432.481, 62463.00
1433.529, 62584.00
1434.577, 62633.92
1435.624, 62563.00
1436.672, 62728.00
1437.719, 62779.00
1438.766, 62769.00
1439.812, 62637.00
1440.859, 62658.00
1441.905, 62856.00
1442.952, 63064.00
1443.998, 63324.00
1445.044, 62944.00
1446.090, 63014.00
1447.135, 63209.00
1448.181, 62842.00
1449.226, 62937.00
1450.271, 62989.00
1451.316, 63115.00
1452.361, 63150.88
1453.405, 63220.46
1454.450, 63266.00
1455.494, 63359.00
1456.538, 63466.00
1457.582, 63606.00
1458.626, 63223.00
1459.670, 63445.00
1460.713, 63647.00
1461.757, 63231.00
1462.800, 63520.00
1463.843, 63927.00
1464.886, 63571.00
1465.928, 63806.00
1466.971, 63422.00
1468.013, 63786.00
1469.055, 63931.00
1470.097, 64073.00
1471.139, 64033.00
1472.181, 64103.00
1473.222, 64058.00
1474.263, 64051.00
1475.305, 64153.00
1476.346, 64169.00
1477.386, 64356.00
1478.427, 64226.00
1479.468, 64438.00
1480.508, 64514.00
1481.548, 64253.00
1482.588, 64394.00
1483.628, 64575.00
1484.668, 64397.00
1485.707, 64248.00
1486.747, 64326.00
1487.786, 64334.00
1488.825, 64408.00
1489.864, 64548.00
1490.902, 64629.00
1491.941, 64530.00
1492.979, 64864.00
1494.017, 64829.00
1495.055, 64525.00
1496.093, 64871.00
1497.131, 64816.00
1498.168, 64615.00
1499.206, 64648.00
1500.243, 64880.00
1501.280, 64975.00
1502.317, 64815.00
1503.354, 65193.00
1504.390, 65211.00
1505.426, 65152.00
1506.463, 64974.00
1507.499, 65168.00
1508.535, 65292.00
1509.570, 65240.00
1510.606, 64964.00
1511.641, 65106.00
1512.676, 65278.00
1513.711, 65535.00
1514.746, 65271.00
1515.781, 65422.00
1516.816, 65422.00
1517.850, 65535.00
1518.884, 65535.00
1519.918, 65535.00
1520.952, 65535.00
1521.986, 65535.00
1523.019, 65535.00
1524.053, 65535.00
1525.086, 65535.00
1526.119, 65535.00
1527.152, 65535.00
1528.185, 65535.00
1529.217, 65535.00
1530.250, 65535.00
1531.282, 65535.00
1532.314, 65535.00
1533.346, 65535.00
1534.377, 65535.00
1535.409, 65535.00
1536.440, 65535.00
1537.472, 65535.00
1538.503, 65535.00
1539.534, 65535.00
1540.564, 65535.00
1541.595, 65535.00
1542.625, 65535.00
1543.656, 65535.00
1544.686, 65535.00
1545.716, 65535.00
1546.745, 65535.00
1547.775, 65535.00
1548.804, 65535.00
1549.834, 65535.00
1550.863, 65535.00
1551.892, 65535.00
1552.920, 65535.00
1553.949, 65535.00
1554.977, 65535.00
1556.006, 65535.00
1557.034, 65535.00
1558.062, 65535.00
1559.089, 65535.00
1560.117, 65535.00
1561.144, 65535.00
1562.172, 65535.00
1563.199, 65535.00
1564.226, 65535.00
1565.252, 65535.00
1566.279, 65535.00
1567.305, 65535.00
1568.332, 65535.00
1569.358, 65535.00
1570.384, 65535.00
1571.409, 65535.00
##END=



