##NAMES=Fluorapatite
##RRUFFID=R060070
##IDEAL CHEMISTRY=Ca_5_(PO_4_)_3_F
##LOCALITY=Panasqueira, Portugal
##OWNER=RRUFF
##SOURCE=Dave Bunk
##DESCRIPTION=Green hexagonal tablet
##STATUS=The identification of this mineral has been confirmed by X-ray diffraction and chemical analysis
##URL=rruff.info/R060070
##MEASURED CHEMISTRY=(Ca_0.99_Mn_0.01_)_5_(P_1.00_O_4_)_3_F_1.00_
##PIN_ID=L01695
##ORIENTATION=Laser parallel to -a* (-1 0 0). Fiducial mark perpendicular to laser is parallel to -c [0 0 -1]
118.1340, 4075.000
119.3650, 4103.000
120.5960, 4137.000
121.8270, 4161.000
123.0580, 4177.000
124.2880, 4229.000
125.5190, 4234.000
126.7490, 4326.000
127.9790, 4306.000
129.2090, 4325.000
130.4390, 4396.000
131.6680, 4476.000
132.8980, 4457.000
134.1270, 4444.000
135.3560, 4529.000
136.5850, 4502.000
137.8140, 4495.000
139.0430, 4600.000
140.2710, 4558.000
141.5000, 4618.000
142.7280, 4663.000
143.9560, 4631.000
145.1840, 4570.000
146.4120, 4681.000
147.6390, 4728.000
148.8670, 4817.000
150.0940, 4719.000
151.3210, 4796.000
152.5490, 4787.000
153.7750, 4887.000
155.0020, 4793.000
156.2290, 4846.000
157.4550, 4892.000
158.6810, 4913.000
159.9080, 4924.000
161.1340, 5045.000
162.3590, 4937.000
163.5850, 5035.000
164.8110, 4933.000
166.0360, 5019.000
167.2610, 5039.000
168.4860, 5081.000
169.7110, 5120.000
170.9360, 5161.000
172.1610, 5172.000
173.3850, 5199.000
174.6100, 5217.622
175.8340, 5232.000
177.0580, 5239.000
178.2820, 5254.000
179.5050, 5244.000
180.7290, 5216.000
181.9520, 5343.000
183.1760, 5343.000
184.3990, 5324.000
185.6220, 5316.000
186.8450, 5261.000
188.0670, 5438.000
189.2900, 5411.000
190.5120, 5337.000
191.7340, 5467.000
192.9560, 5415.000
194.1780, 5468.000
195.4000, 5402.000
196.6220, 5520.000
197.8430, 5518.000
199.0640, 5462.000
200.2860, 5596.000
201.5070, 5640.000
202.7270, 5612.000
203.9480, 5577.000
205.1690, 5620.000
206.3890, 5666.000
207.6090, 5655.000
208.8290, 5664.000
210.0490, 5661.000
211.2690, 5784.000
212.4890, 5779.000
213.7080, 5716.000
214.9280, 5854.000
216.1470, 5787.000
217.3660, 5778.000
218.5850, 5816.000
219.8030, 5863.000
221.0220, 5930.000
222.2400, 5892.000
223.4590, 5934.000
224.6770, 5962.000
225.8950, 5960.000
227.1120, 6035.000
228.3300, 5913.000
229.5480, 6033.000
230.7650, 5968.000
231.9820, 6127.000
233.1990, 6175.000
234.4160, 6210.000
235.6330, 6162.000
236.8490, 6076.000
238.0660, 6178.000
239.2820, 6158.000
240.4980, 6254.000
241.7140, 6233.000
242.9300, 6281.000
244.1460, 6177.000
245.3610, 6273.000
246.5770, 6339.000
247.7920, 6247.000
249.0070, 6251.000
250.2220, 6341.000
251.4370, 6404.000
252.6510, 6369.000
253.8660, 6358.000
255.0800, 6470.000
256.2940, 6433.000
257.5080, 6414.000
258.7220, 6535.000
259.9360, 6502.000
261.1490, 6586.000
262.3630, 6523.000
263.5760, 6685.000
264.7890, 6620.000
266.0020, 6729.000
267.2150, 6664.000
268.4270, 6825.000
269.6400, 6704.000
270.8520, 6699.000
272.0640, 6790.000
273.2760, 6816.000
274.4880, 6788.000
275.7000, 6850.000
276.9120, 6897.000
278.1230, 6856.000
279.3340, 7001.000
280.5450, 6855.000
281.7560, 6900.000
282.9670, 6906.000
284.1780, 6927.000
285.3880, 6958.108
286.5980, 6954.000
287.8090, 7029.000
289.0190, 7076.000
290.2290, 7150.000
291.4380, 7144.000
292.6480, 7134.000
293.8570, 7064.000
295.0670, 7133.000
296.2760, 7181.000
297.4850, 7236.000
298.6930, 7256.733
299.9020, 7211.000
301.1110, 7295.000
302.3190, 7285.000
303.5270, 7329.000
304.7350, 7336.000
305.9430, 7349.000
307.1510, 7333.000
308.3580, 7389.000
309.5660, 7361.000
310.7730, 7324.000
311.9800, 7528.000
313.1870, 7417.000
314.3940, 7509.000
315.6010, 7495.000
316.8070, 7469.000
318.0130, 7536.823
319.2200, 7544.000
320.4260, 7629.000
321.6310, 7561.000
322.8370, 7631.000
324.0430, 7645.000
325.2480, 7716.000
326.4540, 7685.000
327.6590, 7717.987
328.8640, 7745.299
330.0680, 7756.000
331.2730, 7801.000
332.4780, 7864.000
333.6820, 7910.000
334.8860, 7930.167
336.0900, 7971.000
337.2940, 7960.000
338.4980, 7964.000
339.7010, 7980.000
340.9050, 8131.000
342.1080, 8188.000
343.3110, 8046.000
344.5140, 8133.000
345.7170, 8047.000
346.9200, 8054.000
348.1220, 8103.000
349.3240, 8164.000
350.5270, 8166.000
351.7290, 8342.000
352.9310, 8340.000
354.1320, 8385.000
355.3340, 8402.000
356.5350, 8379.000
357.7370, 8426.000
358.9380, 8449.000
360.1390, 8400.000
361.3400, 8486.000
362.5400, 8339.000
363.7410, 8456.000
364.9410, 8639.000
366.1410, 8457.000
367.3410, 8639.000
368.5410, 8710.000
369.7410, 8619.000
370.9400, 8682.000
372.1400, 8735.000
373.3390, 8764.000
374.5380, 8769.000
375.7370, 8801.646
376.9360, 8835.298
378.1350, 8839.000
379.3330, 8889.000
380.5310, 8921.000
381.7300, 8893.000
382.9280, 8742.000
384.1260, 8871.000
385.3230, 8909.000
386.5210, 9123.000
387.7180, 8859.000
388.9160, 8890.000
390.1130, 9087.000
391.3100, 9128.000
392.5060, 9194.000
393.7030, 9070.000
394.9000, 9230.000
396.0960, 9252.000
397.2920, 9201.000
398.4880, 9274.000
399.6840, 9304.000
400.8800, 9388.000
402.0750, 9334.000
403.2710, 9331.000
404.4660, 9448.000
405.6610, 9422.000
406.8560, 9585.000
408.0510, 9451.000
409.2450, 9463.000
410.4400, 9532.000
411.6340, 9618.000
412.8280, 9578.000
414.0220, 9665.000
415.2160, 9817.000
416.4100, 9684.000
417.6030, 9802.000
418.7970, 9938.000
419.9900, 9837.000
421.1830, 9942.000
422.3760, 9954.000
423.5690, 10055.00
424.7610, 10116.00
425.9540, 10082.00
427.1460, 10245.00
428.3380, 10205.00
429.5300, 10273.00
430.7220, 10291.00
431.9140, 10430.00
433.1050, 10420.00
434.2970, 10367.00
435.4880, 10295.00
436.6790, 10339.00
437.8700, 10400.00
439.0610, 10295.00
440.2510, 10428.00
441.4420, 10466.00
442.6320, 10604.00
443.8220, 10565.00
445.0120, 10523.00
446.2020, 10661.00
447.3910, 10664.00
448.5810, 10572.00
449.7700, 10736.00
450.9600, 10495.00
452.1490, 10569.00
453.3370, 10712.00
454.5260, 10738.00
455.7150, 10789.00
456.9030, 10886.00
458.0910, 10900.00
459.2800, 10922.09
460.4670, 10829.00
461.6550, 10934.00
462.8430, 10880.00
464.0300, 10919.00
465.2180, 10975.00
466.4050, 10934.00
467.5920, 11007.00
468.7790, 11093.00
469.9650, 11051.00
471.1520, 11071.00
472.3380, 11210.00
473.5250, 11343.00
474.7110, 11178.00
475.8970, 11124.00
477.0820, 11329.00
478.2680, 11452.00
479.4540, 11262.00
480.6390, 11342.00
481.8240, 11361.00
483.0090, 11518.00
484.1940, 11443.00
485.3780, 11634.00
486.5630, 11461.00
487.7470, 11600.00
488.9320, 11661.00
490.1160, 11460.00
491.3000, 11669.00
492.4830, 11855.00
493.6670, 11643.00
494.8500, 11735.00
496.0340, 11732.00
497.2170, 11954.00
498.4000, 11870.00
499.5820, 11881.00
500.7650, 11823.00
501.9480, 12078.00
503.1300, 12130.00
504.3120, 12111.00
505.4940, 12110.00
506.6760, 12109.00
507.8580, 12195.00
509.0390, 12191.00
510.2210, 12229.00
511.4020, 12265.00
512.5830, 12301.00
513.7640, 12227.00
514.9450, 12336.00
516.1250, 12319.00
517.3060, 12379.00
518.4860, 12439.00
519.6660, 12579.00
520.8460, 12482.00
522.0260, 12492.00
523.2060, 12449.00
524.3850, 12586.00
525.5650, 12701.00
526.7440, 12668.00
527.9230, 12878.00
529.1020, 12775.00
530.2810, 12799.00
531.4590, 12845.00
532.6380, 12774.00
533.8160, 12936.00
534.9940, 12986.00
536.1720, 12943.00
537.3500, 13065.00
538.5270, 13049.00
539.7050, 13096.00
540.8820, 13131.00
542.0590, 13187.00
543.2360, 13312.00
544.4130, 13335.00
545.5900, 13308.00
546.7660, 13226.00
547.9430, 13270.00
549.1190, 13505.00
550.2950, 13385.00
551.4710, 13567.00
552.6470, 13595.00
553.8220, 13681.00
554.9980, 13601.00
556.1730, 13604.00
557.3480, 13784.00
558.5230, 13685.00
559.6980, 13719.00
560.8730, 13795.00
562.0470, 13868.00
563.2220, 13920.00
564.3960, 13904.00
565.5700, 13843.00
566.7440, 13867.00
567.9170, 13905.50
569.0910, 13928.00
570.2640, 14050.00
571.4380, 14113.00
572.6110, 14205.00
573.7840, 14150.00
574.9570, 14268.00
576.1290, 14235.00
577.3020, 14431.00
578.4740, 14553.00
579.6460, 14480.00
580.8180, 14470.00
581.9900, 14499.00
583.1620, 14527.00
584.3330, 14565.00
585.5040, 14838.00
586.6760, 14752.00
587.8470, 14807.00
589.0180, 14924.00
590.1880, 14844.00
591.3590, 15024.00
592.5290, 15098.00
593.7000, 15040.00
594.8700, 15068.00
596.0400, 15077.10
597.2090, 15177.00
598.3790, 15104.00
599.5490, 15064.00
600.7180, 15108.00
601.8870, 15063.50
603.0560, 15109.58
604.2250, 15163.00
605.3940, 15165.00
606.5620, 15441.00
607.7300, 15429.00
608.8990, 15510.00
610.0670, 15453.00
611.2350, 15446.00
612.4020, 15533.00
613.5700, 15698.00
614.7370, 15642.00
615.9050, 15734.00
617.0720, 15747.00
618.2390, 15810.00
619.4060, 16012.00
620.5720, 15839.00
621.7390, 16008.00
622.9050, 15906.00
624.0710, 15966.00
625.2370, 15985.00
626.4030, 16190.00
627.5690, 15981.00
628.7340, 16123.00
629.9000, 16237.00
631.0650, 16146.00
632.2300, 16327.00
633.3950, 16255.00
634.5600, 16314.00
635.7240, 16365.00
636.8890, 16343.00
638.0530, 16398.00
639.2170, 16407.00
640.3810, 16594.00
641.5450, 16615.00
642.7080, 16813.00
643.8720, 16595.00
645.0350, 16874.00
646.1980, 16705.00
647.3610, 16934.00
648.5240, 17038.00
649.6870, 16995.00
650.8490, 16844.00
652.0120, 17245.00
653.1740, 17020.00
654.3360, 17086.00
655.4980, 17237.00
656.6600, 17327.00
657.8210, 17384.00
658.9830, 17244.00
660.1440, 17225.00
661.3050, 17305.00
662.4660, 17386.00
663.6270, 17456.00
664.7870, 17533.00
665.9480, 17712.00
667.1080, 17536.00
668.2680, 17794.00
669.4280, 17706.00
670.5880, 17714.00
671.7480, 17695.00
672.9070, 17893.00
674.0670, 17732.00
675.2260, 17917.00
676.3850, 17908.00
677.5440, 17855.00
678.7030, 18096.00
679.8610, 17986.00
681.0200, 18144.00
682.1780, 18232.00
683.3360, 18252.00
684.4940, 18094.00
685.6520, 18365.00
686.8090, 18330.00
687.9670, 18279.00
689.1240, 18572.00
690.2810, 18401.00
691.4380, 18403.00
692.5950, 18567.00
693.7520, 18606.00
694.9080, 18598.00
696.0650, 18698.00
697.2210, 18644.00
698.3770, 18725.00
699.5330, 18759.00
700.6880, 18769.00
701.8440, 18838.89
702.9990, 18947.00
704.1550, 18946.00
705.3100, 19017.00
706.4650, 19088.00
707.6190, 19242.00
708.7740, 19391.00
709.9290, 19275.00
711.0830, 19527.00
712.2370, 19322.00
713.3910, 19348.00
714.5450, 19580.00
715.6980, 19610.00
716.8520, 19526.00
718.0050, 19644.00
719.1580, 19801.00
720.3110, 19668.00
721.4640, 19905.00
722.6170, 19810.00
723.7700, 19842.00
724.9220, 20008.00
726.0740, 19879.00
727.2260, 20034.00
728.3780, 20025.00
729.5300, 19900.00
730.6810, 19995.00
731.8330, 20182.00
732.9840, 20253.00
734.1350, 20256.00
735.2860, 20424.00
736.4370, 20464.00
737.5880, 20362.00
738.7380, 20662.00
739.8880, 20425.00
741.0390, 20491.00
742.1890, 20540.00
743.3380, 20700.00
744.4880, 20756.00
745.6380, 20776.00
746.7870, 20769.00
747.9360, 21068.00
749.0850, 20939.00
750.2340, 20812.00
751.3830, 21111.00
752.5310, 21085.00
753.6800, 21202.00
754.8280, 21214.00
755.9760, 21376.00
757.1240, 21328.00
758.2720, 21396.00
759.4190, 21338.00
760.5670, 21423.00
761.7140, 21326.00
762.8610, 21521.00
764.0080, 21558.00
765.1550, 21715.00
766.3020, 21811.00
767.4480, 21735.00
768.5950, 21895.76
769.7410, 21757.00
770.8870, 22044.00
772.0330, 22146.00
773.1780, 22175.00
774.3240, 22137.00
775.4690, 22135.00
776.6140, 22379.00
777.7590, 22104.00
778.9040, 22230.00
780.0490, 22382.00
781.1940, 22272.00
782.3380, 22477.00
783.4820, 22463.00
784.6260, 22550.00
785.7700, 22517.00
786.9140, 22609.00
788.0580, 22662.00
789.2010, 22684.08
790.3450, 22758.00
791.4880, 22808.00
792.6310, 22908.00
793.7730, 23067.00
794.9160, 23025.00
796.0590, 23181.00
797.2010, 23122.00
798.3430, 23332.00
799.4850, 23239.00
800.6270, 23255.00
801.7690, 23667.00
802.9100, 23466.00
804.0520, 23427.00
805.1930, 23630.00
806.3340, 23532.00
807.4750, 23476.00
808.6160, 23703.00
809.7560, 23537.00
810.8970, 23805.00
812.0370, 23773.00
813.1770, 23895.00
814.3170, 23946.00
815.4570, 23965.00
816.5960, 24074.00
817.7360, 24102.25
818.8750, 24216.00
820.0140, 24205.00
821.1530, 24347.00
822.2920, 24403.00
823.4310, 24425.00
824.5690, 24547.00
825.7070, 24593.00
826.8460, 24760.00
827.9840, 24619.00
829.1220, 24527.00
830.2590, 24602.00
831.3970, 24719.00
832.5340, 24897.00
833.6710, 24851.00
834.8080, 24785.00
835.9450, 24924.00
837.0820, 25147.00
838.2190, 24924.00
839.3550, 25150.00
840.4910, 25151.00
841.6270, 25389.00
842.7630, 25414.00
843.8990, 25404.00
845.0350, 25408.00
846.1700, 25611.00
847.3060, 25745.00
848.4410, 25871.00
849.5760, 25923.00
850.7100, 25901.00
851.8450, 25903.00
852.9800, 25892.00
854.1140, 26156.00
855.2480, 26259.00
856.3820, 26245.00
857.5160, 26223.00
858.6500, 26274.82
859.7830, 26351.00
860.9170, 26315.00
862.0500, 26343.00
863.1830, 26372.00
864.3160, 26497.00
865.4480, 26470.00
866.5810, 26634.00
867.7130, 26688.00
868.8460, 26655.00
869.9780, 26715.00
871.1100, 26842.00
872.2410, 26613.00
873.3730, 26847.00
874.5050, 26912.00
875.6360, 26855.00
876.7670, 27133.00
877.8980, 27189.00
879.0290, 27347.00
880.1590, 27409.02
881.2900, 27315.00
882.4200, 27498.00
883.5500, 27271.00
884.6800, 27371.00
885.8100, 27560.00
886.9400, 27666.00
888.0690, 27609.00
889.1990, 27585.00
890.3280, 27594.00
891.4570, 27791.00
892.5860, 27737.00
893.7140, 28073.00
894.8430, 28085.00
895.9710, 27907.00
897.1000, 27993.00
898.2280, 28299.00
899.3560, 28293.00
900.4830, 28125.00
901.6110, 28422.00
902.7380, 28169.00
903.8660, 28338.00
904.9930, 28552.00
906.1200, 28542.00
907.2460, 28672.00
908.3730, 28621.00
909.5000, 28604.00
910.6260, 28966.00
911.7520, 28838.00
912.8780, 28789.00
914.0040, 29051.00
915.1290, 29259.00
916.2550, 29011.00
917.3800, 29066.00
918.5050, 29376.00
919.6300, 29305.00
920.7550, 29269.00
921.8800, 29513.00
923.0040, 29418.00
924.1290, 29348.00
925.2530, 29573.00
926.3770, 29632.00
927.5010, 29801.00
928.6250, 29860.00
929.7480, 29861.00
930.8720, 29878.00
931.9950, 29893.00
933.1180, 29975.50
934.2410, 30037.23
935.3640, 30179.00
936.4860, 30216.00
937.6090, 30340.00
938.7310, 30421.00
939.8530, 30335.00
940.9750, 30540.00
942.0970, 30406.00
943.2180, 30702.00
944.3400, 30617.00
945.4610, 30691.00
946.5820, 30771.00
947.7030, 30909.00
948.8240, 30836.00
949.9450, 31049.00
951.0650, 31150.00
952.1860, 31120.00
953.3060, 31207.00
954.4260, 31536.00
955.5460, 31548.00
956.6650, 31555.00
957.7850, 32205.00
958.9040, 32434.00
960.0230, 32650.00
961.1420, 33264.00
962.2610, 33492.00
963.3800, 34046.00
964.4990, 34107.00
965.6170, 34292.00
966.7350, 34031.00
967.8530, 33856.00
968.9710, 33236.00
970.0890, 32776.00
971.2070, 32615.00
972.3240, 32740.00
973.4410, 32246.00
974.5580, 32456.00
975.6750, 32417.00
976.7920, 32392.00
977.9090, 32472.00
979.0250, 32523.00
980.1410, 32610.00
981.2580, 32648.00
982.3740, 32716.00
983.4890, 32674.00
984.6050, 32833.00
985.7200, 33113.00
986.8360, 33220.00
987.9510, 33250.52
989.0660, 33384.00
990.1810, 33194.00
991.2950, 33174.00
992.4100, 33131.00
993.5240, 33111.00
994.6390, 33216.23
995.7530, 33176.00
996.8660, 33429.00
997.9800, 33657.00
999.0940, 33693.00
1000.207, 33738.00
1001.320, 33643.00
1002.433, 33678.00
1003.546, 33599.00
1004.659, 33804.00
1005.772, 34009.00
1006.884, 33979.00
1007.996, 34156.00
1009.108, 34050.00
1010.220, 34093.00
1011.332, 34510.00
1012.444, 34516.00
1013.555, 34479.00
1014.666, 34633.00
1015.777, 34592.00
1016.888, 34573.00
1017.999, 34686.00
1019.110, 34870.00
1020.220, 34837.00
1021.331, 35048.00
1022.441, 34910.00
1023.551, 34984.00
1024.661, 35254.00
1025.770, 35129.00
1026.880, 35552.00
1027.989, 35315.00
1029.098, 35176.00
1030.207, 35457.00
1031.316, 35542.00
1032.425, 35423.00
1033.533, 35662.00
1034.642, 35668.00
1035.750, 35443.00
1036.858, 35951.00
1037.966, 35846.00
1039.073, 35818.00
1040.181, 36124.00
1041.288, 36373.00
1042.396, 36167.00
1043.503, 36252.00
1044.610, 36478.00
1045.716, 36674.00
1046.823, 36386.00
1047.929, 36387.00
1049.036, 36757.00
1050.142, 36590.00
1051.248, 36732.00
1052.353, 36943.00
1053.459, 37053.00
1054.564, 36993.00
1055.670, 37390.00
1056.775, 36821.00
1057.880, 37098.00
1058.985, 37537.00
1060.089, 37230.00
1061.194, 37004.00
1062.298, 37080.00
1063.402, 37103.57
1064.506, 37306.00
1065.610, 37432.00
1066.713, 37567.00
1067.817, 37599.00
1068.920, 37648.00
1070.023, 37578.00
1071.126, 37590.00
1072.229, 37824.00
1073.332, 38030.00
1074.435, 37921.00
1075.537, 38209.00
1076.639, 38185.00
1077.741, 38212.00
1078.843, 38378.00
1079.945, 38475.00
1081.046, 38570.00
1082.148, 38410.00
1083.249, 38689.00
1084.350, 38549.00
1085.451, 38385.00
1086.551, 38750.00
1087.652, 38685.00
1088.752, 38851.00
1089.853, 38651.00
1090.953, 39024.00
1092.053, 38827.00
1093.152, 39030.00
1094.252, 39122.00
1095.351, 39208.00
1096.451, 39339.00
1097.550, 39258.00
1098.649, 39178.00
1099.748, 39358.00
1100.846, 39499.00
1101.945, 39291.00
1103.043, 39651.00
1104.141, 39620.00
1105.239, 39626.00
1106.337, 39586.00
1107.434, 39770.00
1108.532, 39774.42
1109.629, 39932.00
1110.726, 39931.00
1111.823, 40066.00
1112.920, 40152.00
1114.017, 40213.42
1115.113, 40389.00
1116.210, 40366.00
1117.306, 40572.00
1118.402, 40646.00
1119.498, 40594.00
1120.593, 40812.00
1121.689, 40815.00
1122.784, 41026.00
1123.879, 40887.00
1124.974, 40812.00
1126.069, 41036.00
1127.164, 40775.00
1128.259, 40980.00
1129.353, 41093.00
1130.447, 41316.00
1131.541, 41466.00
1132.635, 41281.00
1133.729, 41289.00
1134.822, 41418.00
1135.916, 41396.00
1137.009, 41523.00
1138.102, 41792.00
1139.195, 41724.00
1140.288, 41758.00
1141.380, 41939.00
1142.473, 41724.00
1143.565, 41799.00
1144.657, 41851.00
1145.749, 42039.00
1146.841, 42073.80
1147.932, 42317.00
1149.024, 42260.00
1150.115, 42260.00
1151.206, 42423.00
1152.297, 42346.00
1153.388, 42293.00
1154.479, 42431.00
1155.569, 42416.00
1156.659, 42629.00
1157.750, 42643.32
1158.839, 42749.00
1159.929, 42865.00
1161.019, 42747.00
1162.108, 43098.00
1163.198, 43099.00
1164.287, 42954.00
1165.376, 43358.00
1166.465, 43127.00
1167.553, 43353.00
1168.642, 43530.00
1169.730, 43555.00
1170.818, 43417.00
1171.906, 43591.00
1172.994, 43990.00
1174.082, 43635.00
1175.170, 43951.00
1176.257, 44062.00
1177.344, 43958.00
1178.431, 44175.00
1179.518, 44211.00
1180.605, 44067.00
1181.691, 43943.00
1182.778, 44278.00
1183.864, 44066.00
1184.950, 44613.00
1186.036, 44584.00
1187.122, 44498.00
1188.207, 44497.00
1189.292, 44559.00
1190.378, 44891.00
1191.463, 44929.00
1192.548, 44660.00
1193.632, 44949.00
1194.717, 44706.00
1195.801, 44844.00
1196.886, 44987.00
1197.970, 45036.00
1199.054, 45081.00
1200.137, 44994.00
1201.221, 45356.00
1202.305, 45390.00
1203.388, 45440.00
1204.471, 45734.00
1205.554, 45605.00
1206.637, 45563.00
1207.719, 45657.00
1208.802, 45734.00
1209.884, 45671.00
1210.966, 45786.00
1212.048, 45822.00
1213.130, 45965.00
1214.212, 46008.00
1215.293, 46046.00
1216.374, 46345.00
1217.456, 46530.00
1218.536, 46449.00
1219.617, 46305.00
1220.698, 46448.00
1221.778, 46330.00
1222.859, 46381.00
1223.939, 46475.74
1225.019, 46563.00
1226.099, 46681.00
1227.178, 46828.00
1228.258, 46958.00
1229.337, 46949.00
1230.417, 46811.00
1231.496, 46886.00
1232.574, 47084.00
1233.653, 46780.00
1234.732, 47253.00
1235.810, 47130.00
1236.888, 47360.00
1237.966, 47224.00
1239.044, 47368.00
1240.122, 47451.00
1241.199, 47578.00
1242.277, 47648.62
1243.354, 47663.00
1244.431, 47776.00
1245.508, 47782.00
1246.585, 47835.00
1247.661, 48013.00
1248.738, 47879.00
1249.814, 48161.00
1250.890, 48311.00
1251.966, 47943.00
1253.042, 48110.00
1254.117, 48190.00
1255.193, 48138.00
1256.268, 48295.00
1257.343, 48395.00
1258.418, 48306.00
1259.493, 48465.00
1260.567, 48669.00
1261.642, 48697.00
1262.716, 48890.00
1263.790, 49260.00
1264.864, 48878.00
1265.938, 49037.00
1267.011, 48847.00
1268.085, 49103.00
1269.158, 48956.00
1270.231, 49041.00
1271.304, 49238.00
1272.377, 49534.00
1273.450, 49575.00
1274.522, 49361.00
1275.594, 49615.00
1276.666, 49494.00
1277.738, 49451.00
1278.810, 49672.00
1279.882, 49661.00
1280.953, 49799.00
1282.025, 49788.00
1283.096, 49734.00
1284.167, 49746.00
1285.238, 49939.00
1286.308, 49774.00
1287.379, 49760.00
1288.449, 49922.00
1289.519, 50213.00
1290.589, 49918.00
1291.659, 50020.00
1292.729, 49707.00
1293.798, 50181.00
1294.868, 50180.00
1295.937, 49997.00
1297.006, 49996.00
1298.075, 50155.00
1299.143, 50345.00
1300.212, 50342.00
1301.280, 50619.00
1302.348, 50672.00
1303.416, 51016.00
1304.484, 50752.00
1305.552, 50794.00
1306.620, 50640.00
1307.687, 50869.00
1308.754, 51130.00
1309.821, 51126.00
1310.888, 51221.00
1311.955, 51412.00
1313.021, 51198.00
1314.088, 51425.00
1315.154, 51565.00
1316.220, 51562.00
1317.286, 51650.00
1318.352, 51901.00
1319.417, 52272.00
1320.483, 51954.00
1321.548, 51984.00
1322.613, 52056.00
1323.678, 52375.00
1324.743, 52419.00
1325.807, 52300.00
1326.872, 52474.00
1327.936, 52339.00
1329.000, 52440.71
1330.064, 52653.00
1331.128, 52632.00
1332.191, 52718.00
1333.255, 52899.00
1334.318, 52615.00
1335.381, 52793.00
1336.444, 52922.00
1337.507, 53123.00
1338.569, 53181.00
1339.632, 53141.00
1340.694, 53093.00
1341.756, 53186.00
1342.818, 53262.00
1343.880, 53163.00
1344.941, 53645.00
1346.003, 53543.00
1347.064, 53402.00
1348.125, 53531.00
1349.186, 53341.00
1350.247, 53403.00
1351.308, 53784.00
1352.368, 53647.00
1353.428, 53949.00
1354.489, 53868.00
1355.549, 53757.00
1356.608, 53910.00
1357.668, 53743.00
1358.727, 54302.00
1359.787, 54046.00
1360.846, 54222.00
1361.905, 54062.00
1362.964, 54429.00
1364.022, 54342.00
1365.081, 54654.00
1366.139, 54653.00
1367.197, 54614.00
1368.255, 54349.00
1369.313, 54801.00
1370.371, 54700.00
1371.428, 54604.00
1372.486, 55128.00
1373.543, 54980.00
1374.600, 54852.00
1375.657, 54817.00
1376.713, 54802.00
1377.770, 55039.00
1378.826, 55086.00
1379.882, 55253.00
1380.938, 55261.00
1381.994, 55107.00
1383.050, 55334.00
1384.106, 55355.00
1385.161, 55929.00
1386.216, 55438.00
1387.271, 55595.00
1388.326, 55468.00
1389.381, 55992.00
1390.435, 55402.00
1391.490, 55709.00
1392.544, 55711.00
1393.598, 55870.00
1394.652, 55858.00
1395.705, 55818.00
1396.759, 55781.00
1397.812, 56151.00
1398.866, 56029.00
1399.919, 56136.00
1400.972, 56005.00
1402.024, 56357.00
1403.077, 56352.00
1404.129, 56507.00
1405.181, 56311.00
1406.233, 56475.00
1407.285, 56522.00
1408.337, 56337.00
1409.389, 56710.00
1410.440, 56842.00
1411.491, 56911.00
1412.542, 56726.00
1413.593, 56791.00
1414.644, 56891.00
1415.695, 56940.00
1416.745, 56737.00
1417.795, 57237.00
1418.845, 57068.00
1419.895, 57383.00
1420.945, 57320.00
1421.995, 57232.00
1423.044, 57490.00
1424.093, 57303.00
1425.142, 57269.00
1426.191, 57501.00
1427.240, 57372.00
1428.289, 57662.00
1429.337, 57719.00
1430.385, 57956.00
1431.433, 57741.00
1432.481, 57754.00
1433.529, 57793.00
1434.577, 57792.00
1435.624, 57842.71
1436.672, 57924.00
1437.719, 57939.55
1438.766, 57933.00
1439.812, 57987.00
1440.859, 58162.00
1441.905, 58388.00
1442.952, 58548.00
1443.998, 58483.00
1445.044, 58345.00
1446.090, 58505.00
1447.135, 58360.00
1448.181, 58493.00
1449.226, 58649.00
1450.271, 58678.00
1451.316, 58991.00
1452.361, 58817.00
1453.405, 58870.00
1454.450, 58843.00
1455.494, 59071.00
1456.538, 59312.00
1457.582, 59269.00
1458.626, 59157.00
1459.670, 59211.00
1460.713, 59126.00
1461.757, 59132.00
1462.800, 59159.72
1463.843, 59091.00
1464.886, 59250.00
1465.928, 59472.00
1466.971, 59601.00
1468.013, 59695.00
1469.055, 59689.00
1470.097, 59678.00
1471.139, 59740.00
1472.181, 59979.00
1473.222, 59945.00
1474.263, 60000.00
1475.305, 59829.00
1476.346, 59989.00
1477.386, 60032.00
1478.427, 60106.00
1479.468, 60199.59
1480.508, 60159.03
1481.548, 60342.00
1482.588, 60187.00
1483.628, 60233.55
1484.668, 60475.00
1485.707, 60325.00
1486.747, 60631.00
1487.786, 60690.00
1488.825, 60939.00
1489.864, 60883.00
1490.902, 60969.82
1491.941, 60752.00
1492.979, 61000.00
1494.017, 60924.00
1495.055, 60924.00
1496.093, 61049.00
1497.131, 60978.00
1498.168, 60987.00
1499.206, 61112.00
1500.243, 61215.00
1501.280, 61260.50
1502.317, 61388.00
1503.354, 61378.00
1504.390, 61471.00
1505.426, 61501.00
1506.463, 61563.49
1507.499, 61623.73
1508.535, 61650.00
1509.570, 61742.00
1510.606, 61674.00
1511.641, 61740.00
1512.676, 61745.00
1513.711, 61862.00
1514.746, 61863.00
1515.781, 62034.00
1516.816, 62029.00
1517.850, 62144.00
1518.884, 62359.00
1519.918, 62005.00
1520.952, 62267.00
1521.986, 62163.00
1523.019, 62312.00
1524.053, 62209.00
1525.086, 62395.00
1526.119, 62675.00
1527.152, 62078.00
1528.185, 62483.00
1529.217, 62617.00
1530.250, 62326.00
1531.282, 62442.00
1532.314, 62818.00
1533.346, 62634.00
1534.377, 62783.00
1535.409, 62893.00
1536.440, 62849.00
1537.472, 62738.00
1538.503, 62867.00
1539.534, 63050.00
1540.564, 63119.00
1541.595, 62800.00
1542.625, 62930.00
1543.656, 63258.00
1544.686, 63268.00
1545.716, 62799.00
1546.745, 63227.00
1547.775, 63268.00
1548.804, 62973.00
1549.834, 63199.00
1550.863, 63349.00
1551.892, 63343.00
1552.920, 63702.00
1553.949, 63588.00
1554.977, 63854.00
1556.006, 63631.00
1557.034, 64012.00
1558.062, 63756.00
1559.089, 63596.00
1560.117, 63618.00
1561.144, 64077.00
1562.172, 64101.00
1563.199, 63582.00
1564.226, 64138.00
1565.252, 63982.00
1566.279, 64632.00
1567.305, 63978.00
1568.332, 63992.00
1569.358, 63831.00
1570.384, 64300.00
1571.409, 64646.00
##END=



