##NAMES=Fluorapatite
##RRUFFID=R060333
##IDEAL CHEMISTRY=Ca_5_(PO_4_)_3_F
##LOCALITY=Lovozero Massif, Kola Peninsula, U.S.S.R.
##OWNER=RRUFF
##SOURCE=Michael Scott
##DESCRIPTION=Colorless fragment associated with red villiaumite
##STATUS=The identification of this mineral has been confirmed by X-ray diffraction and chemical analysis
##URL=rruff.info/R060333
##MEASURED CHEMISTRY=(Ca_4.29_Sr_0.47_Na_0.12_Ce_0.07_La_0.06_)_Σ=5_((P_0.99_Si_0.01_)_Σ=1_O_4_)_3_F_1.00_
##PIN_ID=L01212
##ORIENTATION=Laser parallel to a* (1 0 0). Fiducial mark perpendicular to laser is parallel to -c [0 0 -1]
164.2210, 3495.000
165.4520, 3629.000
166.6830, 3670.000
167.9140, 3653.000
169.1450, 3700.000
170.3760, 3721.000
171.6060, 3765.000
172.8360, 3746.000
174.0660, 3781.000
175.2960, 3788.000
176.5260, 3848.000
177.7550, 3824.000
178.9840, 3851.706
180.2130, 3793.000
181.4420, 3859.000
182.6710, 3898.000
183.9000, 3876.000
185.1280, 3772.000
186.3560, 3849.000
187.5840, 3832.000
188.8120, 3831.000
190.0400, 3915.000
191.2670, 3808.000
192.4950, 3886.000
193.7220, 4024.000
194.9490, 4065.000
196.1750, 4037.000
197.4020, 4095.000
198.6280, 4208.000
199.8540, 4294.000
201.0800, 4333.000
202.3060, 4383.000
203.5320, 4409.000
204.7570, 4527.000
205.9830, 4470.000
207.2080, 4511.000
208.4330, 4466.000
209.6570, 4560.000
210.8820, 4368.000
212.1060, 4493.000
213.3310, 4377.000
214.5550, 4353.000
215.7780, 4377.000
217.0020, 4426.000
218.2260, 4396.000
219.4490, 4389.000
220.6720, 4398.000
221.8950, 4437.000
223.1180, 4436.671
224.3400, 4435.466
225.5630, 4469.000
226.7850, 4431.000
228.0070, 4448.000
229.2290, 4485.000
230.4500, 4489.000
231.6720, 4472.000
232.8930, 4443.000
234.1140, 4416.000
235.3350, 4436.000
236.5560, 4435.000
237.7770, 4431.000
238.9970, 4421.000
240.2170, 4393.562
241.4370, 4385.000
242.6570, 4330.000
243.8770, 4307.000
245.0960, 4284.000
246.3160, 4322.000
247.5350, 4309.000
248.7540, 4335.000
249.9730, 4403.000
251.1910, 4394.000
252.4100, 4444.000
253.6280, 4444.000
254.8460, 4551.000
256.0640, 4466.000
257.2810, 4616.000
258.4990, 4649.000
259.7160, 4574.000
260.9330, 4687.000
262.1500, 4679.000
263.3670, 4646.000
264.5840, 4712.000
265.8000, 4622.000
267.0170, 4702.000
268.2330, 4758.000
269.4490, 4763.000
270.6640, 4869.000
271.8800, 4865.000
273.0950, 4907.000
274.3100, 4881.000
275.5260, 4937.000
276.7400, 4910.000
277.9550, 5014.000
279.1690, 5134.000
280.3840, 5133.000
281.5980, 5093.000
282.8120, 5169.000
284.0260, 5074.000
285.2390, 5178.000
286.4530, 5179.000
287.6660, 5112.000
288.8790, 5159.000
290.0920, 5183.000
291.3040, 5158.000
292.5170, 5185.000
293.7290, 5196.000
294.9410, 5094.000
296.1530, 4985.000
297.3650, 5052.000
298.5770, 5011.000
299.7880, 5116.000
301.0000, 5003.000
302.2110, 5013.000
303.4220, 5076.000
304.6320, 5066.000
305.8430, 5044.946
307.0530, 5025.000
308.2630, 4974.000
309.4730, 4988.000
310.6830, 4981.000
311.8930, 4930.000
313.1030, 4957.000
314.3120, 4986.000
315.5210, 4958.000
316.7300, 4855.000
317.9390, 4897.000
319.1470, 4898.000
320.3560, 4791.000
321.5640, 4817.000
322.7720, 4794.523
323.9800, 4794.000
325.1880, 4831.000
326.3950, 4854.000
327.6030, 4946.000
328.8100, 4887.000
330.0170, 4844.000
331.2240, 4988.000
332.4300, 4878.000
333.6370, 4821.000
334.8430, 4911.000
336.0490, 5002.000
337.2550, 4878.000
338.4610, 4893.000
339.6660, 4947.000
340.8720, 4994.000
342.0770, 4964.000
343.2820, 5015.000
344.4870, 5020.000
345.6920, 4949.000
346.8960, 4990.000
348.1010, 5053.000
349.3050, 5117.000
350.5090, 5158.000
351.7130, 5093.000
352.9160, 5147.000
354.1200, 5087.000
355.3230, 5070.000
356.5260, 5190.000
357.7290, 5211.000
358.9320, 5147.000
360.1350, 5255.000
361.3370, 5248.000
362.5390, 5220.000
363.7410, 5277.000
364.9430, 5225.000
366.1450, 5281.000
367.3470, 5304.000
368.5480, 5417.000
369.7490, 5353.000
370.9500, 5381.000
372.1510, 5359.000
373.3520, 5349.711
374.5520, 5498.000
375.7530, 5388.000
376.9530, 5457.000
378.1530, 5572.000
379.3520, 5430.000
380.5520, 5559.000
381.7510, 5425.000
382.9510, 5540.000
384.1500, 5475.000
385.3490, 5499.000
386.5480, 5566.000
387.7460, 5591.000
388.9440, 5592.000
390.1430, 5590.000
391.3410, 5687.000
392.5390, 5719.000
393.7360, 5570.000
394.9340, 5687.000
396.1310, 5657.000
397.3280, 5752.000
398.5250, 5790.000
399.7220, 5952.000
400.9190, 5845.000
402.1150, 5931.000
403.3120, 5833.000
404.5080, 5983.000
405.7040, 6043.000
406.8990, 6090.000
408.0950, 6160.000
409.2900, 6202.000
410.4860, 6348.000
411.6810, 6526.000
412.8760, 6549.000
414.0700, 6830.000
415.2650, 6925.000
416.4590, 7152.000
417.6540, 7270.000
418.8480, 7580.000
420.0420, 7884.000
421.2350, 8078.000
422.4290, 8358.000
423.6220, 8590.000
424.8150, 9065.000
426.0080, 9419.000
427.2010, 9585.000
428.3940, 9681.000
429.5860, 9601.000
430.7790, 9620.000
431.9710, 9350.000
433.1630, 8931.000
434.3540, 8831.000
435.5460, 8537.000
436.7370, 8370.000
437.9290, 8169.000
439.1200, 8059.000
440.3110, 7965.000
441.5010, 7873.000
442.6920, 7826.000
443.8820, 7962.000
445.0730, 7989.000
446.2630, 7954.000
447.4530, 7927.000
448.6420, 7982.000
449.8320, 7977.000
451.0210, 7832.000
452.2100, 7790.000
453.3990, 7846.000
454.5880, 7787.000
455.7770, 7596.000
456.9660, 7519.000
458.1540, 7534.000
459.3420, 7484.000
460.5300, 7414.000
461.7180, 7374.000
462.9050, 7351.000
464.0930, 7178.000
465.2800, 7127.000
466.4670, 7091.000
467.6540, 6975.000
468.8410, 7031.000
470.0280, 7084.000
471.2140, 7029.000
472.4000, 7037.000
473.5870, 6952.000
474.7720, 7046.000
475.9580, 6942.000
477.1440, 7040.000
478.3290, 6953.000
479.5140, 7038.000
480.6990, 6994.000
481.8840, 7043.000
483.0690, 7004.000
484.2540, 6959.000
485.4380, 6958.000
486.6220, 6952.000
487.8060, 7001.000
488.9900, 7016.000
490.1740, 7059.395
491.3570, 6999.000
492.5410, 7116.000
493.7240, 7223.000
494.9070, 7170.000
496.0900, 7149.000
497.2720, 7157.000
498.4550, 7149.000
499.6370, 7151.545
500.8190, 7141.000
502.0010, 7172.925
503.1830, 7161.000
504.3650, 7192.000
505.5460, 7235.000
506.7280, 7252.000
507.9090, 7299.000
509.0900, 7255.000
510.2710, 7352.000
511.4510, 7353.000
512.6320, 7370.000
513.8120, 7472.000
514.9920, 7470.000
516.1720, 7475.000
517.3520, 7502.000
518.5310, 7478.977
519.7110, 7469.000
520.8900, 7453.000
522.0690, 7457.000
523.2480, 7459.000
524.4270, 7649.000
525.6050, 7660.000
526.7840, 7655.000
527.9620, 7597.000
529.1400, 7568.000
530.3180, 7581.000
531.4960, 7565.483
532.6730, 7604.216
533.8510, 7609.000
535.0280, 7702.000
536.2050, 7775.000
537.3820, 7841.000
538.5590, 7859.000
539.7350, 7861.000
540.9120, 7842.000
542.0880, 7906.000
543.2640, 7985.000
544.4400, 7881.000
545.6150, 7960.000
546.7910, 7946.000
547.9660, 8035.000
549.1410, 7999.000
550.3170, 8075.000
551.4910, 8023.000
552.6660, 8158.000
553.8410, 8112.000
555.0150, 8170.000
556.1890, 8172.000
557.3630, 8297.000
558.5370, 8282.000
559.7110, 8427.000
560.8840, 8369.000
562.0570, 8361.000
563.2310, 8450.000
564.4040, 8492.000
565.5760, 8568.000
566.7490, 8623.000
567.9220, 8612.000
569.0940, 8602.000
570.2660, 8731.000
571.4380, 8954.000
572.6100, 9109.000
573.7820, 9091.000
574.9530, 9330.000
576.1240, 9468.000
577.2960, 9800.000
578.4670, 10083.00
579.6370, 10237.00
580.8080, 10397.00
581.9790, 10496.00
583.1490, 10608.00
584.3190, 10646.00
585.4890, 11105.00
586.6590, 11492.00
587.8280, 12111.00
588.9980, 12792.00
590.1670, 13106.00
591.3360, 12932.00
592.5050, 12204.00
593.6740, 11899.00
594.8430, 11302.00
596.0110, 10862.00
597.1790, 10595.00
598.3480, 10331.00
599.5160, 10298.00
600.6830, 10313.00
601.8510, 10342.00
603.0180, 10689.00
604.1860, 11016.00
605.3530, 11186.00
606.5200, 11160.00
607.6870, 10877.00
608.8530, 10763.00
610.0200, 10420.00
611.1860, 10163.00
612.3520, 10104.00
613.5180, 9859.000
614.6840, 9828.000
615.8500, 9966.000
617.0150, 9721.000
618.1800, 9847.000
619.3450, 9702.000
620.5100, 9699.000
621.6750, 9696.000
622.8400, 9642.000
624.0040, 9592.000
625.1690, 9505.000
626.3330, 9489.682
627.4970, 9525.000
628.6610, 9490.000
629.8240, 9555.000
630.9880, 9663.000
632.1510, 9568.000
633.3140, 9611.000
634.4770, 9693.000
635.6400, 9686.000
636.8020, 9706.000
637.9650, 9758.000
639.1270, 9711.000
640.2890, 9769.000
641.4510, 9835.000
642.6130, 9827.000
643.7750, 9906.404
644.9360, 9877.000
646.0980, 10034.00
647.2590, 10096.00
648.4200, 10192.00
649.5810, 10163.00
650.7410, 10171.00
651.9020, 10065.00
653.0620, 10261.00
654.2220, 10363.00
655.3820, 10280.00
656.5420, 10256.00
657.7020, 10337.00
658.8610, 10460.00
660.0200, 10509.00
661.1800, 10490.00
662.3390, 10355.00
663.4970, 10420.00
664.6560, 10401.00
665.8150, 10494.00
666.9730, 10530.00
668.1310, 10485.00
669.2890, 10425.00
670.4470, 10433.00
671.6050, 10430.72
672.7620, 10498.00
673.9200, 10512.00
675.0770, 10540.00
676.2340, 10647.00
677.3910, 10679.00
678.5470, 10676.00
679.7040, 10626.00
680.8600, 10670.00
682.0160, 10713.00
683.1720, 10679.00
684.3280, 10714.00
685.4840, 10711.00
686.6390, 10668.00
687.7950, 10816.00
688.9500, 10767.00
690.1050, 10809.00
691.2600, 10899.00
692.4150, 10811.00
693.5690, 10950.00
694.7240, 10886.00
695.8780, 10909.00
697.0320, 10993.00
698.1860, 10976.00
699.3400, 10931.00
700.4930, 11102.00
701.6470, 11197.00
702.8000, 11022.00
703.9530, 11191.00
705.1060, 11169.00
706.2590, 11215.00
707.4110, 11155.00
708.5640, 11270.00
709.7160, 11303.00
710.8680, 11196.00
712.0200, 11318.00
713.1720, 11285.00
714.3230, 11249.00
715.4750, 11356.00
716.6260, 11455.00
717.7770, 11451.00
718.9280, 11555.00
720.0790, 11598.00
721.2300, 11617.00
722.3800, 11665.17
723.5300, 11680.39
724.6810, 11680.00
725.8300, 11721.00
726.9800, 11678.00
728.1300, 11705.00
729.2790, 11729.58
730.4290, 11756.00
731.5780, 11804.00
732.7270, 11828.00
733.8760, 11891.00
735.0240, 11708.00
736.1730, 12051.00
737.3210, 11839.00
738.4700, 11888.00
739.6180, 11979.00
740.7650, 11954.00
741.9130, 12089.00
743.0610, 12090.00
744.2080, 12164.00
745.3550, 12164.00
746.5020, 12161.00
747.6490, 12249.00
748.7960, 12143.00
749.9430, 12291.00
751.0890, 12297.00
752.2350, 12300.00
753.3810, 12236.00
754.5270, 12310.80
755.6730, 12329.00
756.8190, 12427.00
757.9640, 12413.00
759.1090, 12465.00
760.2540, 12502.00
761.3990, 12540.22
762.5440, 12566.01
763.6890, 12621.00
764.8330, 12630.00
765.9780, 12613.00
767.1220, 12694.00
768.2660, 12826.00
769.4100, 12756.00
770.5530, 12779.00
771.6970, 12782.00
772.8400, 12962.00
773.9830, 13023.00
775.1260, 12973.00
776.2690, 12933.00
777.4120, 13045.00
778.5540, 13034.00
779.6970, 13089.00
780.8390, 12987.00
781.9810, 13021.00
783.1230, 13048.00
784.2650, 13168.00
785.4060, 13232.00
786.5480, 13244.00
787.6890, 13289.00
788.8300, 13313.00
789.9710, 13393.00
791.1120, 13452.00
792.2520, 13461.36
793.3930, 13422.00
794.5330, 13525.00
795.6730, 13470.00
796.8130, 13584.00
797.9530, 13443.00
799.0930, 13667.00
800.2320, 13686.00
801.3710, 13794.00
802.5110, 13837.89
803.6500, 13827.00
804.7880, 13855.00
805.9270, 13887.00
807.0660, 13884.00
808.2040, 13810.00
809.3420, 13925.00
810.4800, 13841.00
811.6180, 14024.00
812.7560, 14026.00
813.8930, 14085.00
815.0310, 14127.00
816.1680, 14048.00
817.3050, 14202.00
818.4420, 14169.00
819.5790, 14182.00
820.7150, 14301.00
821.8520, 14401.00
822.9880, 14331.00
824.1240, 14323.00
825.2600, 14476.00
826.3960, 14359.00
827.5320, 14607.00
828.6670, 14425.00
829.8020, 14545.00
830.9380, 14469.00
832.0730, 14816.00
833.2080, 14559.00
834.3420, 14618.00
835.4770, 14731.00
836.6110, 14646.00
837.7450, 14782.00
838.8790, 14908.00
840.0130, 14836.00
841.1470, 14896.00
842.2810, 14970.00
843.4140, 14976.00
844.5470, 14965.00
845.6800, 15033.00
846.8130, 15008.00
847.9460, 15186.00
849.0790, 15183.00
850.2110, 15214.00
851.3440, 15230.00
852.4760, 15257.00
853.6080, 15357.00
854.7400, 15391.00
855.8710, 15440.00
857.0030, 15384.00
858.1340, 15420.00
859.2650, 15468.00
860.3960, 15556.00
861.5270, 15671.00
862.6580, 15762.00
863.7890, 15866.00
864.9190, 15593.00
866.0490, 15714.00
867.1790, 15734.00
868.3090, 15823.00
869.4390, 15919.00
870.5690, 15984.00
871.6980, 16029.00
872.8270, 16068.00
873.9570, 16117.40
875.0860, 16144.00
876.2140, 16182.00
877.3430, 16215.00
878.4720, 16209.00
879.6000, 16304.00
880.7280, 16328.00
881.8560, 16246.00
882.9840, 16331.00
884.1120, 16506.00
885.2390, 16893.00
886.3670, 17016.00
887.4940, 16903.00
888.6210, 16490.00
889.7480, 16486.00
890.8750, 16460.00
892.0020, 16594.00
893.1280, 16615.00
894.2540, 16632.00
895.3810, 16616.00
896.5070, 16612.00
897.6320, 16729.00
898.7580, 16820.00
899.8840, 16652.00
901.0090, 16838.00
902.1340, 16830.00
903.2590, 16920.00
904.3840, 16806.00
905.5090, 17013.00
906.6340, 16921.00
907.7580, 16746.00
908.8820, 17079.00
910.0060, 17011.00
911.1300, 17056.00
912.2540, 17033.00
913.3780, 17088.00
914.5010, 17201.00
915.6250, 17338.00
916.7480, 17430.00
917.8710, 17612.00
918.9940, 17588.00
920.1160, 17553.00
921.2390, 17391.00
922.3610, 17570.00
923.4840, 17439.00
924.6060, 17647.00
925.7280, 17583.00
926.8490, 17715.00
927.9710, 17851.00
929.0930, 17869.49
930.2140, 17986.38
931.3350, 18037.00
932.4560, 18077.00
933.5770, 18213.00
934.6980, 18148.00
935.8180, 18154.00
936.9380, 18198.00
938.0590, 18342.56
939.1790, 18639.00
940.2990, 18731.00
941.4180, 19012.00
942.5380, 19189.00
943.6570, 19474.77
944.7770, 19505.00
945.8960, 20116.00
947.0150, 20412.00
948.1340, 20773.00
949.2520, 21605.00
950.3710, 22499.00
951.4890, 23755.00
952.6070, 24945.00
953.7260, 26923.00
954.8430, 29506.00
955.9610, 32947.00
957.0790, 37302.00
958.1960, 42598.00
959.3130, 48004.00
960.4310, 52565.00
961.5480, 55510.00
962.6640, 56136.00
963.7810, 54647.00
964.8970, 51059.00
966.0140, 46884.00
967.1300, 42378.00
968.2460, 38174.00
969.3620, 34543.00
970.4780, 31526.00
971.5930, 29178.00
972.7090, 26944.00
973.8240, 25186.00
974.9390, 23611.00
976.0540, 22616.00
977.1690, 21824.00
978.2830, 21246.00
979.3980, 20990.00
980.5120, 20647.00
981.6260, 20359.00
982.7400, 20217.00
983.8540, 20061.00
984.9680, 20228.00
986.0820, 20190.00
987.1950, 20186.00
988.3080, 20086.00
989.4210, 20189.00
990.5340, 20345.00
991.6470, 20321.00
992.7600, 20309.00
993.8720, 20349.00
994.9850, 20364.00
996.0970, 20478.00
997.2090, 20470.00
998.3210, 20653.00
999.4320, 20548.00
1000.544, 20761.00
1001.655, 20913.00
1002.767, 20963.00
1003.878, 20895.00
1004.989, 20871.00
1006.100, 21126.00
1007.210, 21378.00
1008.321, 21158.00
1009.431, 21263.00
1010.541, 21081.00
1011.651, 21225.00
1012.761, 21185.00
1013.871, 21342.00
1014.980, 21322.00
1016.090, 21393.00
1017.199, 21638.00
1018.308, 21464.00
1019.417, 21498.00
1020.526, 21645.00
1021.635, 21752.00
1022.743, 21682.00
1023.852, 21964.00
1024.960, 21980.00
1026.068, 22219.00
1027.176, 22289.00
1028.283, 22469.00
1029.391, 22585.00
1030.498, 22833.00
1031.606, 23023.00
1032.713, 23081.00
1033.820, 23269.69
1034.927, 23345.00
1036.033, 23498.00
1037.140, 23516.00
1038.246, 23595.00
1039.353, 23587.00
1040.459, 23891.00
1041.564, 23639.00
1042.670, 23826.00
1043.776, 23820.00
1044.881, 24203.00
1045.987, 24332.00
1047.092, 24448.00
1048.197, 24532.00
1049.302, 24768.00
1050.406, 25081.00
1051.511, 25004.00
1052.615, 25297.00
1053.720, 25129.00
1054.824, 25020.00
1055.928, 25010.00
1057.031, 25031.00
1058.135, 24675.00
1059.238, 24404.00
1060.342, 24363.00
1061.445, 24266.00
1062.548, 24281.00
1063.651, 24171.00
1064.754, 24131.00
1065.856, 23989.00
1066.959, 24043.55
1068.061, 23998.00
1069.163, 24134.00
1070.265, 24166.00
1071.367, 24180.00
1072.469, 24291.00
1073.570, 24523.00
1074.671, 24598.00
1075.773, 24725.24
1076.874, 24869.71
1077.975, 24892.00
1079.075, 25055.00
1080.176, 25089.00
1081.276, 25056.00
1082.377, 24920.00
1083.477, 24899.53
1084.577, 24816.00
1085.677, 24746.00
1086.777, 24570.00
1087.876, 24496.00
1088.975, 24376.61
1090.075, 24277.00
1091.174, 24203.00
1092.273, 24251.00
1093.372, 24276.00
1094.470, 24351.00
1095.569, 24335.00
1096.667, 24125.00
1097.765, 24357.00
1098.863, 24267.00
1099.961, 24412.00
1101.059, 24345.00
1102.157, 24284.00
1103.254, 24451.00
1104.351, 24496.00
1105.449, 24471.00
1106.546, 24472.00
1107.642, 24591.00
1108.739, 24441.00
1109.836, 24475.00
1110.932, 24533.00
1112.028, 24381.00
1113.124, 24574.00
1114.220, 24742.00
1115.316, 24773.00
1116.412, 24707.00
1117.507, 24813.00
1118.603, 24984.00
1119.698, 24874.00
1120.793, 25226.00
1121.888, 25179.00
1122.983, 25026.00
1124.077, 25169.00
1125.172, 24997.00
1126.266, 25135.00
1127.360, 25149.00
1128.454, 25046.00
1129.548, 25088.00
1130.642, 25231.00
1131.735, 25282.00
1132.829, 25550.00
1133.922, 25411.00
1135.015, 25474.00
1136.108, 25323.00
1137.201, 25581.00
1138.294, 25705.00
1139.386, 25654.00
1140.478, 25706.00
1141.571, 25754.92
1142.663, 25705.00
1143.755, 25846.00
1144.846, 25835.00
1145.938, 25894.00
1147.030, 25782.00
1148.121, 25839.00
1149.212, 25991.00
1150.303, 25917.00
1151.394, 26139.00
1152.485, 26119.00
1153.575, 26113.00
1154.666, 26031.00
1155.756, 26307.00
1156.846, 26391.00
1157.936, 26362.00
1159.026, 26310.00
1160.116, 26583.00
1161.205, 26401.00
1162.295, 26578.00
1163.384, 26622.00
1164.473, 26562.00
1165.562, 26633.00
1166.651, 26697.00
1167.739, 26711.00
1168.828, 26631.00
1169.916, 26937.00
1171.005, 26693.00
1172.093, 26798.00
1173.181, 27091.00
1174.268, 26774.00
1175.356, 27032.00
1176.443, 27109.00
1177.531, 27145.00
1178.618, 27093.00
1179.705, 27116.00
1180.792, 27035.00
1181.879, 27125.00
1182.965, 27396.00
1184.052, 27376.00
1185.138, 27358.00
1186.224, 27291.00
1187.310, 27369.47
1188.396, 27479.00
1189.482, 27560.00
1190.567, 27472.00
1191.653, 27648.00
1192.738, 27639.00
1193.823, 27981.00
1194.908, 27914.00
1195.993, 27819.00
1197.077, 27930.00
1198.162, 27730.00
1199.246, 27971.00
1200.331, 28123.00
1201.415, 28169.00
1202.499, 28263.00
1203.582, 28301.00
1204.666, 28018.00
1205.750, 28254.00
1206.833, 28186.00
1207.916, 28461.00
1208.999, 28438.00
1210.082, 28377.00
1211.165, 28440.00
1212.248, 28425.00
1213.330, 28540.00
1214.412, 28637.00
1215.495, 28583.00
1216.577, 28606.00
1217.658, 28710.00
1218.740, 28699.00
1219.822, 28899.00
1220.903, 28888.00
1221.985, 28909.00
1223.066, 28831.00
1224.147, 29036.00
1225.228, 28983.00
1226.308, 29017.00
1227.389, 29382.00
1228.469, 29093.00
1229.550, 29268.00
1230.630, 29127.00
1231.710, 29463.00
1232.790, 29415.00
1233.869, 29469.00
1234.949, 29372.00
1236.028, 29702.00
1237.108, 29565.00
1238.187, 29604.00
1239.266, 29579.00
1240.344, 29559.00
1241.423, 29652.00
1242.502, 29784.00
1243.580, 29833.00
1244.658, 29678.00
1245.736, 29922.00
1246.814, 29800.00
1247.892, 30042.00
1248.970, 30117.00
1250.047, 29969.00
1251.125, 29984.00
1252.202, 30099.00
1253.279, 30319.00
1254.356, 30344.00
1255.433, 30271.00
1256.509, 30520.00
1257.586, 30494.00
1258.662, 30609.00
1259.738, 30586.00
1260.814, 30491.00
1261.890, 30614.00
1262.966, 30631.00
1264.042, 30581.00
1265.117, 30667.00
1266.193, 30718.00
1267.268, 30788.00
1268.343, 30834.00
1269.418, 30892.00
1270.492, 31108.00
1271.567, 31041.00
1272.642, 30979.00
1273.716, 31028.00
1274.790, 30881.00
1275.864, 31293.00
1276.938, 31003.00
1278.012, 31168.00
1279.085, 31074.00
1280.159, 31352.00
1281.232, 31379.00
1282.305, 31059.00
1283.378, 31394.00
1284.451, 31396.00
1285.524, 31469.00
1286.597, 31456.00
1287.669, 31591.00
1288.741, 31459.00
1289.813, 31654.00
1290.885, 31559.00
1291.957, 31780.00
1293.029, 31777.00
1294.101, 31895.00
1295.172, 31891.00
1296.243, 31870.00
1297.315, 31963.00
1298.386, 32051.88
1299.456, 32063.00
1300.527, 32315.00
1301.598, 32261.00
1302.668, 32343.00
1303.738, 32413.00
1304.809, 32262.00
1305.879, 32120.00
1306.948, 32310.00
1308.018, 32456.00
1309.088, 32620.00
1310.157, 32681.37
1311.226, 32779.00
1312.296, 32775.00
1313.365, 32799.00
1314.433, 32862.00
1315.502, 32878.00
1316.571, 32819.00
1317.639, 32913.00
1318.707, 33112.00
1319.776, 33196.00
1320.844, 33449.00
1321.911, 33164.00
1322.979, 33131.00
1324.047, 33188.00
1325.114, 33353.00
1326.181, 33533.00
1327.249, 33305.00
1328.316, 33395.00
1329.382, 33292.00
1330.449, 33671.00
1331.516, 33521.00
1332.582, 33881.00
1333.648, 33717.00
1334.715, 33648.00
1335.781, 33762.00
1336.846, 33596.00
1337.912, 33896.00
1338.978, 33766.00
1340.043, 34136.00
1341.108, 33999.00
1342.174, 34135.00
1343.239, 33897.00
1344.303, 34081.00
1345.368, 34155.00
1346.433, 34259.00
1347.497, 34343.00
1348.561, 34377.00
1349.626, 34450.00
1350.690, 34383.00
1351.753, 34451.00
1352.817, 34714.00
1353.881, 34422.00
1354.944, 34768.00
1356.007, 34635.00
1357.071, 34479.00
1358.134, 34659.00
1359.196, 34701.00
1360.259, 35082.00
1361.322, 34991.00
1362.384, 34844.00
1363.447, 35050.00
1364.509, 34901.00
1365.571, 35026.00
1366.633, 35010.00
1367.694, 35137.00
1368.756, 35185.00
1369.817, 35069.00
1370.879, 35216.00
1371.940, 35106.00
1373.001, 35291.00
1374.062, 35304.00
1375.122, 35460.00
1376.183, 35627.00
1377.244, 35364.00
1378.304, 35735.00
1379.364, 35470.00
1380.424, 35358.00
1381.484, 35705.00
1382.544, 35732.00
1383.603, 35711.00
1384.663, 35917.00
1385.722, 35687.00
1386.781, 35886.00
1387.840, 35976.00
1388.899, 35924.00
1389.958, 36167.00
1391.017, 36061.00
1392.075, 36109.00
1393.134, 36282.00
1394.192, 36079.00
1395.250, 36551.00
1396.308, 36144.00
1397.365, 36658.00
1398.423, 36477.00
1399.481, 36270.00
1400.538, 36526.00
1401.595, 36582.00
1402.652, 36628.00
1403.709, 36680.00
1404.766, 36837.00
1405.823, 36953.00
1406.879, 36863.00
1407.936, 36984.32
1408.992, 36979.00
1410.048, 37060.00
1411.104, 37040.00
1412.160, 37098.00
1413.215, 37116.00
1414.271, 37191.00
1415.326, 37181.00
1416.382, 37212.11
1417.437, 37276.00
1418.492, 37279.00
1419.546, 37357.00
1420.601, 37483.00
1421.656, 37376.00
1422.710, 37424.00
1423.764, 37623.00
1424.819, 37723.00
1425.873, 37589.00
1426.926, 37580.00
1427.980, 37572.00
1429.034, 37594.00
1430.087, 37695.00
1431.140, 37578.00
1432.194, 37655.31
1433.247, 37967.00
1434.299, 37771.00
1435.352, 38052.00
1436.405, 38294.00
1437.457, 37905.00
1438.510, 37980.00
1439.562, 38248.00
1440.614, 38207.00
1441.666, 38467.00
1442.717, 38324.00
1443.769, 38248.00
1444.821, 38516.00
1445.872, 38301.00
1446.923, 38641.00
1447.974, 38717.00
1449.025, 38734.00
1450.076, 38677.00
1451.127, 38759.00
1452.177, 38758.37
1453.227, 38788.54
1454.278, 38838.00
1455.328, 38886.00
1456.378, 38955.00
1457.428, 39046.34
1458.477, 39065.00
1459.527, 39175.00
1460.576, 39243.00
1461.625, 39369.00
1462.675, 38919.00
1463.724, 39154.00
1464.772, 39171.00
1465.821, 39434.00
1466.870, 39224.00
1467.918, 39638.00
1468.966, 39413.00
1470.015, 39598.00
1471.063, 39653.00
1472.110, 39433.00
1473.158, 39789.00
1474.206, 39835.00
1475.253, 39691.00
1476.301, 39675.00
1477.348, 39967.00
1478.395, 39828.00
1479.442, 40059.00
1480.488, 39731.00
1481.535, 40176.00
1482.582, 40106.00
1483.628, 40202.00
1484.674, 40158.00
1485.720, 39989.00
1486.766, 40400.00
1487.812, 40156.00
1488.858, 40392.00
1489.903, 40186.00
1490.949, 40231.00
1491.994, 40493.00
1493.039, 40516.00
1494.084, 40655.00
1495.129, 40693.00
1496.173, 40745.00
1497.218, 40753.45
1498.262, 40498.00
1499.307, 40709.00
1500.351, 40598.00
1501.395, 40575.00
1502.439, 40846.00
1503.483, 41120.00
1504.526, 41038.00
1505.570, 41149.00
1506.613, 41145.00
1507.656, 41067.00
1508.699, 41085.00
1509.742, 41355.00
1510.785, 41393.00
1511.827, 41190.00
1512.870, 41503.00
1513.912, 41348.00
1514.955, 41485.00
1515.997, 41799.00
1517.039, 41857.00
1518.080, 41674.00
1519.122, 41537.00
1520.164, 41580.00
1521.205, 41921.00
1522.246, 41933.00
1523.288, 41986.00
1524.329, 41863.00
1525.369, 42028.00
1526.410, 41998.00
1527.451, 42121.00
1528.491, 42282.00
1529.531, 42326.00
1530.572, 42245.00
1531.612, 42244.00
1532.652, 42315.28
1533.691, 42336.32
1534.731, 42505.00
1535.770, 42478.00
1536.810, 42634.00
1537.849, 42684.00
1538.888, 42747.11
1539.927, 42849.41
1540.966, 42886.00
1542.005, 43000.00
1543.043, 43057.00
1544.082, 43116.87
1545.120, 42885.00
1546.158, 43049.00
1547.196, 43040.00
1548.234, 42818.00
1549.272, 43040.00
1550.309, 43334.00
1551.347, 43241.00
1552.384, 43266.00
1553.421, 43448.00
1554.458, 43565.00
1555.495, 43213.00
1556.532, 43262.00
1557.568, 43465.00
1558.605, 43686.00
1559.641, 43494.00
1560.678, 43521.00
1561.714, 43488.00
1562.750, 43531.00
1563.785, 43634.00
##END=



