##NAMES=Fluorophlogopite
##RRUFFID=R040042
##IDEAL CHEMISTRY=KMg_3_(Si_3_Al)O_10_F_2_
##LOCALITY=Franklin, Sussex County, New Jersey, USA
##OWNER=RRUFF
##SOURCE=University of Arizona Mineral Museum
##DESCRIPTION=Brown flattened hexagonal prism, polytype 1M
##STATUS=The identification of this mineral has been confirmed by X-ray diffraction and chemical analysis
##URL=rruff.info/R040042
##MEASURED CHEMISTRY=(K_0.92_Na_0.08_)_Σ=1_(Mg_2.95_Fe_0.05_)_Σ=3_(Si_3.00_Al_1.00_)O_10_(F_1.40_(OH)_0.60_)_Σ=2_; trace amounts of Ti; OH estimated by charge balance
##PIN_ID=L00310
##ORIENTATION=Laser parallel to c* (0 0 1). Fiducial mark perpendicular to laser is parallel to -a [-1 0 0]
148.4680, 24791.00
149.6950, 24888.00
150.9220, 24510.00
152.1500, 24703.00
153.3770, 24539.00
154.6030, 24786.00
155.8300, 24743.00
157.0570, 24756.00
158.2830, 24691.00
159.5090, 24652.00
160.7350, 24529.00
161.9610, 24919.00
163.1870, 24887.00
164.4130, 25083.00
165.6380, 25017.00
166.8630, 24979.00
168.0880, 25063.00
169.3130, 25305.00
170.5380, 25582.00
171.7630, 25616.85
172.9870, 25800.00
174.2120, 25739.00
175.4360, 25889.00
176.6600, 25900.00
177.8840, 26253.00
179.1080, 26633.00
180.3310, 26669.00
181.5550, 27514.00
182.7780, 27713.00
184.0010, 28237.00
185.2240, 28903.00
186.4470, 29880.00
187.6700, 30883.00
188.8920, 32461.00
190.1150, 33890.00
191.3370, 35892.00
192.5590, 38701.00
193.7810, 41105.00
195.0020, 44117.00
196.2240, 47200.00
197.4450, 49715.00
198.6670, 51429.00
199.8880, 51588.00
201.1090, 50075.00
202.3300, 47615.00
203.5500, 44583.00
204.7710, 40948.00
205.9910, 37645.00
207.2110, 35287.00
208.4310, 33399.00
209.6510, 31929.00
210.8710, 30619.00
212.0910, 29916.00
213.3100, 29356.00
214.5290, 28653.56
215.7480, 28466.00
216.9670, 27797.00
218.1860, 27784.00
219.4050, 27473.00
220.6230, 27492.00
221.8420, 27086.00
223.0600, 27131.00
224.2780, 26930.00
225.4960, 26797.00
226.7130, 26902.00
227.9310, 26685.58
229.1480, 26856.18
230.3660, 26961.76
231.5830, 27005.78
232.8000, 26803.94
234.0160, 26919.56
235.2330, 26907.97
236.4490, 26891.14
237.6660, 27051.47
238.8820, 26885.37
240.0980, 27042.87
241.3140, 27071.19
242.5300, 27158.64
243.7450, 27118.05
244.9600, 27117.00
246.1760, 27170.64
247.3910, 27104.00
248.6060, 27245.00
249.8200, 27180.00
251.0350, 27207.00
252.2500, 27173.00
253.4640, 27426.00
254.6780, 27285.00
255.8920, 27783.00
257.1060, 27844.00
258.3190, 27714.00
259.5330, 28044.00
260.7460, 28014.00
261.9600, 28286.00
263.1730, 29042.00
264.3850, 29220.00
265.5980, 29593.00
266.8110, 30056.00
268.0230, 30638.53
269.2360, 31447.00
270.4480, 32189.00
271.6600, 32923.82
272.8710, 33992.00
274.0830, 34929.00
275.2950, 36734.00
276.5060, 38534.00
277.7170, 40477.00
278.9280, 41907.00
280.1390, 43283.00
281.3500, 43708.00
282.5600, 42821.00
283.7710, 41163.00
284.9810, 39545.00
286.1910, 37533.00
287.4010, 35782.00
288.6110, 33847.00
289.8200, 32990.00
291.0300, 32179.00
292.2390, 31451.00
293.4480, 31227.00
294.6570, 30534.56
295.8660, 30642.37
297.0750, 30685.14
298.2830, 30666.41
299.4920, 30748.80
300.7000, 30454.66
301.9080, 30918.00
303.1160, 30880.00
304.3240, 31136.00
305.5310, 31627.00
306.7390, 31764.00
307.9460, 32530.00
309.1530, 33144.00
310.3600, 33727.00
311.5670, 34588.00
312.7740, 35786.00
313.9800, 36206.00
315.1870, 36963.00
316.3930, 37843.00
317.5990, 38338.00
318.8050, 39263.00
320.0110, 39909.00
321.2160, 40825.00
322.4220, 41236.00
323.6270, 41553.00
324.8320, 41589.00
326.0370, 41321.00
327.2420, 41206.00
328.4460, 40405.00
329.6510, 39472.00
330.8550, 38881.00
332.0590, 38452.00
333.2630, 37286.59
334.4670, 36089.00
335.6710, 35249.00
336.8740, 34760.00
338.0780, 33984.00
339.2810, 33740.00
340.4840, 33271.00
341.6870, 32891.00
342.8900, 32709.00
344.0920, 32331.00
345.2950, 32017.00
346.4970, 31920.00
347.6990, 31872.00
348.9010, 31620.00
350.1030, 31499.00
351.3050, 31521.23
352.5060, 31729.00
353.7080, 31609.00
354.9090, 31628.00
356.1100, 31698.00
357.3110, 31672.39
358.5110, 31629.00
359.7120, 31796.00
360.9120, 31818.00
362.1130, 31998.00
363.3130, 32081.32
364.5130, 31904.00
365.7120, 32226.00
366.9120, 32367.00
368.1120, 32319.00
369.3110, 32581.00
370.5100, 32902.00
371.7090, 33366.00
372.9080, 33252.00
374.1070, 33278.00
375.3050, 33057.00
376.5040, 33036.00
377.7020, 32963.00
378.9000, 32512.00
380.0980, 32382.00
381.2950, 32347.00
382.4930, 32152.00
383.6910, 31955.00
384.8880, 32135.00
386.0850, 31900.00
387.2820, 32116.00
388.4790, 32315.00
389.6750, 31856.00
390.8720, 31790.00
392.0680, 31782.00
393.2640, 31903.00
394.4600, 32045.00
395.6560, 31841.00
396.8520, 31984.00
398.0480, 32178.00
399.2430, 31714.00
400.4380, 31938.00
401.6330, 31780.00
402.8280, 32139.00
404.0230, 31803.00
405.2180, 31946.00
406.4120, 31796.00
407.6060, 31642.00
408.8000, 31925.00
409.9940, 31979.00
411.1880, 31733.00
412.3820, 31782.00
413.5750, 31668.00
414.7690, 31753.00
415.9620, 31903.00
417.1550, 31886.33
418.3480, 31744.00
419.5410, 32018.00
420.7330, 31852.00
421.9260, 31920.00
423.1180, 31988.00
424.3100, 31988.56
425.5020, 32075.88
426.6940, 32113.00
427.8850, 32222.00
429.0770, 32254.00
430.2680, 32359.57
431.4590, 32315.00
432.6500, 32383.00
433.8410, 32343.00
435.0320, 32320.00
436.2220, 32298.00
437.4130, 32670.00
438.6030, 32733.00
439.7930, 32796.00
440.9830, 32680.00
442.1730, 32574.00
443.3620, 32882.00
444.5520, 33038.00
445.7410, 32850.00
446.9300, 33158.00
448.1190, 33404.00
449.3080, 33343.00
450.4960, 33296.00
451.6850, 33414.00
452.8730, 33442.00
454.0610, 33365.00
455.2490, 33805.00
456.4370, 33729.00
457.6250, 33796.00
458.8130, 33492.00
460.0000, 33826.00
461.1870, 33679.00
462.3740, 33500.00
463.5610, 33642.00
464.7480, 33594.00
465.9340, 33707.00
467.1210, 33707.00
468.3070, 33685.00
469.4930, 33707.00
470.6790, 33386.00
471.8650, 33370.00
473.0510, 33049.00
474.2360, 33072.00
475.4210, 33069.00
476.6070, 33044.00
477.7920, 32926.00
478.9770, 33029.00
480.1610, 32882.00
481.3460, 32753.00
482.5300, 33060.00
483.7140, 33080.00
484.8980, 33297.51
486.0820, 33335.36
487.2660, 33355.01
488.4500, 33421.00
489.6330, 33379.00
490.8160, 33525.00
492.0000, 33627.00
493.1830, 33560.00
494.3650, 33882.00
495.5480, 34131.00
496.7300, 34123.41
497.9130, 34266.49
499.0950, 34279.00
500.2770, 34386.00
501.4590, 34573.00
502.6410, 34859.00
503.8220, 34576.00
505.0030, 34852.30
506.1850, 34830.00
507.3660, 35010.00
508.5470, 35181.00
509.7270, 35186.00
510.9080, 35470.00
512.0880, 35520.00
513.2690, 35888.00
514.4490, 35791.00
515.6290, 35901.00
516.8090, 35881.00
517.9880, 35845.00
519.1680, 35634.00
520.3470, 35631.00
521.5260, 35503.23
522.7050, 35332.00
523.8840, 35290.00
525.0630, 35160.55
526.2410, 35166.00
527.4200, 35028.00
528.5980, 34952.00
529.7760, 34992.00
530.9540, 34817.00
532.1320, 34875.00
533.3090, 34694.00
534.4870, 34793.63
535.6640, 34957.00
536.8410, 34928.00
538.0180, 35073.00
539.1950, 35029.00
540.3710, 35111.00
541.5480, 35215.00
542.7240, 35169.00
543.9000, 35210.00
545.0760, 35224.00
546.2520, 35328.00
547.4280, 35365.00
548.6040, 35338.00
549.7790, 35383.00
550.9540, 35350.00
552.1290, 35627.00
553.3040, 35743.00
554.4790, 35672.00
555.6530, 35900.00
556.8280, 35743.00
558.0020, 35817.00
559.1760, 35939.00
560.3500, 35892.00
561.5240, 35881.00
562.6980, 35758.00
563.8710, 35937.00
565.0440, 35993.00
566.2170, 35954.00
567.3900, 36040.00
568.5630, 36068.00
569.7360, 36065.36
570.9090, 36347.00
572.0810, 36146.00
573.2530, 36214.00
574.4250, 36405.00
575.5970, 36262.00
576.7690, 36257.00
577.9400, 36280.00
579.1120, 36170.00
580.2830, 36242.00
581.4540, 36486.00
582.6250, 36051.00
583.7960, 36502.00
584.9660, 36411.00
586.1370, 36387.00
587.3070, 36140.00
588.4770, 36446.00
589.6470, 36573.00
590.8170, 36114.00
591.9870, 36521.00
593.1560, 36471.56
594.3260, 36659.18
595.4950, 36781.73
596.6640, 36842.75
597.8330, 36657.90
599.0010, 36790.50
600.1700, 36795.90
601.3380, 36648.00
602.5070, 37113.00
603.6750, 36913.30
604.8430, 37159.01
606.0100, 37339.60
607.1780, 37458.73
608.3450, 37331.92
609.5130, 37522.68
610.6800, 37586.12
611.8470, 37644.34
613.0140, 37879.70
614.1800, 37797.00
615.3470, 38021.00
616.5130, 38012.00
617.6790, 38187.00
618.8450, 38332.00
620.0110, 38388.00
621.1770, 38792.00
622.3420, 38851.00
623.5080, 38916.00
624.6730, 39304.00
625.8380, 39392.00
627.0030, 39614.00
628.1680, 39926.00
629.3320, 40398.00
630.4970, 40489.00
631.6610, 41254.00
632.8250, 41172.00
633.9890, 41817.00
635.1530, 41955.00
636.3160, 42570.00
637.4800, 42512.00
638.6430, 43299.00
639.8060, 43114.00
640.9690, 43563.00
642.1320, 43671.00
643.2950, 43689.00
644.4570, 43801.00
645.6200, 43906.00
646.7820, 43611.00
647.9440, 43418.00
649.1060, 44112.00
650.2670, 43938.00
651.4290, 44203.00
652.5900, 44345.00
653.7520, 44409.00
654.9130, 44739.98
656.0740, 44857.00
657.2340, 45320.00
658.3950, 45591.00
659.5550, 45901.00
660.7160, 46193.00
661.8760, 46966.00
663.0360, 47492.00
664.1960, 47810.00
665.3550, 48634.00
666.5150, 49181.00
667.6740, 50301.00
668.8330, 50683.00
669.9920, 52190.00
671.1510, 53279.00
672.3100, 54816.00
673.4680, 56370.00
674.6270, 58325.00
675.7850, 60285.00
676.9430, 63092.00
678.1010, 65953.00
679.2590, 68163.00
680.4160, 70962.00
681.5740, 73234.00
682.7310, 75406.00
683.8880, 76896.00
685.0450, 76732.00
686.2020, 77066.00
687.3580, 77046.00
688.5150, 74588.00
689.6710, 72514.00
690.8270, 70546.00
691.9830, 68513.00
693.1390, 65536.00
694.2950, 63236.00
695.4500, 60620.00
696.6050, 58529.00
697.7610, 56439.00
698.9160, 54400.00
700.0710, 52462.00
701.2250, 51085.00
702.3800, 49910.00
703.5340, 48499.00
704.6880, 47820.00
705.8420, 46783.00
706.9960, 46131.00
708.1500, 45485.00
709.3040, 44977.00
710.4570, 44753.00
711.6100, 44153.00
712.7640, 43975.00
713.9160, 43874.00
715.0690, 43678.00
716.2220, 43230.00
717.3740, 43491.00
718.5270, 43498.00
719.6790, 43029.00
720.8310, 43260.00
721.9830, 42712.00
723.1340, 42661.00
724.2860, 42904.00
725.4370, 42806.00
726.5880, 42812.00
727.7390, 42913.00
728.8900, 42806.00
730.0410, 42620.00
731.1910, 42622.03
732.3420, 42603.11
733.4920, 42587.00
734.6420, 42685.00
735.7920, 42962.00
736.9420, 43003.00
738.0910, 43248.00
739.2410, 42962.00
740.3900, 42707.00
741.5390, 42904.00
742.6880, 42847.00
743.8370, 42844.11
744.9860, 42944.00
746.1340, 42966.00
747.2820, 43055.00
748.4310, 43260.00
749.5790, 43055.50
750.7260, 43139.00
751.8740, 42912.00
753.0220, 42945.00
754.1690, 43339.00
755.3160, 42873.00
756.4630, 43472.00
757.6100, 43230.00
758.7570, 42986.00
759.9030, 43180.00
761.0500, 43135.00
762.1960, 43042.00
763.3420, 43183.00
764.4880, 43061.00
765.6340, 43382.00
766.7790, 43125.00
767.9250, 43681.00
769.0700, 43140.00
770.2150, 43565.00
771.3600, 43211.00
772.5050, 43385.00
773.6490, 43566.00
774.7940, 43432.00
775.9380, 43674.00
777.0820, 43477.00
778.2260, 43890.00
779.3700, 43771.00
780.5140, 44129.00
781.6570, 44069.00
782.8010, 44393.00
783.9440, 44403.00
785.0870, 44258.00
786.2300, 44428.00
787.3720, 44316.00
788.5150, 44542.00
789.6570, 44651.00
790.8000, 44378.00
791.9420, 44531.00
793.0840, 44517.00
794.2250, 44649.00
795.3670, 44723.00
796.5080, 44751.15
797.6500, 44749.00
798.7910, 44752.00
799.9320, 44600.00
801.0720, 44405.00
802.2130, 44388.55
803.3530, 44543.47
804.4940, 44633.36
805.6340, 44661.71
806.7740, 44444.19
807.9140, 44544.15
809.0530, 44516.88
810.1930, 44484.39
811.3320, 44629.03
812.4710, 44447.26
813.6100, 44589.09
814.7490, 44601.75
815.8880, 44673.53
817.0270, 44617.29
818.1650, 44600.59
819.3030, 44711.95
820.4410, 44752.39
821.5790, 44681.41
822.7170, 44756.94
823.8540, 44596.00
824.9920, 44398.00
826.1290, 44450.00
827.2660, 44362.00
828.4030, 44694.00
829.5400, 44560.00
830.6760, 44785.00
831.8130, 44517.00
832.9490, 44583.00
834.0850, 44774.00
835.2210, 44492.00
836.3570, 44848.00
837.4930, 44653.00
838.6280, 44995.00
839.7640, 44693.00
840.8990, 44713.00
842.0340, 44871.00
843.1690, 45046.00
844.3030, 45025.00
845.4380, 44875.00
846.5720, 44976.00
847.7060, 44702.00
848.8400, 45116.00
849.9740, 44999.00
851.1080, 45129.00
852.2420, 45342.00
853.3750, 45463.00
854.5080, 45492.64
855.6410, 45542.16
856.7740, 45419.00
857.9070, 45547.00
859.0400, 45363.00
860.1720, 45465.00
861.3040, 45336.00
862.4360, 45554.00
863.5680, 45488.45
864.7000, 45681.04
865.8320, 45808.60
866.9630, 45874.57
868.0950, 45694.72
869.2260, 45832.32
870.3570, 45842.68
871.4880, 45847.82
872.6180, 46030.05
873.7490, 45885.93
874.8790, 46065.36
876.0090, 46115.61
877.1390, 46224.98
878.2690, 46206.34
879.3990, 46227.23
880.5280, 46328.00
881.6580, 46361.00
882.7870, 46509.00
883.9160, 46536.00
885.0450, 46568.00
886.1740, 46892.00
887.3020, 46596.00
888.4310, 46897.00
889.5590, 46649.00
890.6870, 46709.00
891.8150, 46754.00
892.9430, 47096.00
894.0700, 47122.00
895.1980, 47154.00
896.3250, 47429.00
897.4520, 47341.00
898.5790, 47223.00
899.7060, 47356.00
900.8330, 47486.00
901.9590, 47488.00
903.0850, 47664.00
904.2120, 47472.00
905.3380, 47292.00
906.4630, 47552.00
907.5890, 47708.00
908.7150, 47691.00
909.8400, 47729.00
910.9650, 47861.00
912.0900, 47990.00
913.2150, 47834.00
914.3400, 47999.00
915.4640, 47893.00
916.5890, 47851.00
917.7130, 47921.41
918.8370, 48144.00
919.9610, 48060.00
921.0850, 48083.00
922.2080, 48337.00
923.3320, 48388.00
924.4550, 48487.00
925.5780, 48477.00
926.7010, 48331.00
927.8240, 48767.00
928.9460, 48734.00
930.0690, 48812.00
931.1910, 48630.00
932.3130, 48785.00
933.4350, 48763.00
934.5570, 48739.38
935.6790, 48933.65
936.8000, 49062.85
937.9220, 49130.55
939.0430, 48952.34
940.1640, 49091.62
941.2850, 49103.66
942.4050, 49110.45
943.5260, 49294.41
944.6460, 49151.92
945.7660, 49333.03
946.8860, 49384.97
948.0060, 49496.02
949.1260, 49479.06
950.2460, 49501.64
951.3650, 49652.23
952.4840, 49731.92
953.6030, 49700.18
954.7220, 49731.00
955.8410, 49646.00
956.9590, 49942.00
958.0780, 49664.00
959.1960, 50064.00
960.3140, 49743.00
961.4320, 49913.00
962.5500, 50177.00
963.6680, 49897.00
964.7850, 50354.00
965.9020, 50414.00
967.0190, 50020.00
968.1360, 50180.00
969.2530, 50127.00
970.3700, 50616.00
971.4860, 50426.00
972.6030, 50733.00
973.7190, 50380.00
974.8350, 50532.00
975.9510, 50712.00
977.0660, 50867.00
978.1820, 50918.00
979.2970, 50647.00
980.4130, 50955.00
981.5280, 50769.00
982.6420, 51194.00
983.7570, 51381.00
984.8720, 51401.00
985.9860, 51356.00
987.1000, 51360.00
988.2140, 51416.48
989.3280, 51448.34
990.4420, 51529.00
991.5560, 51591.00
992.6690, 51606.00
993.7820, 51673.21
994.8950, 51773.78
996.0080, 51829.00
997.1210, 52022.00
998.2340, 52056.00
999.3460, 52212.00
1000.458, 52339.00
1001.571, 52624.00
1002.683, 52181.00
1003.794, 52636.00
1004.906, 52636.00
1006.017, 52471.00
1007.129, 52711.00
1008.240, 52628.00
1009.351, 52868.00
1010.462, 52884.00
1011.572, 53250.00
1012.683, 53094.00
1013.793, 53155.00
1014.904, 53266.00
1016.014, 53111.00
1017.123, 53255.00
1018.233, 53125.00
1019.343, 53357.00
1020.452, 53339.00
1021.561, 53165.00
1022.670, 53330.00
1023.779, 53047.00
1024.888, 53126.00
1025.997, 53439.00
1027.105, 53533.00
1028.213, 53554.00
1029.321, 53728.00
1030.429, 54086.00
1031.537, 54092.00
1032.645, 54628.00
1033.752, 54868.00
1034.859, 55300.00
1035.966, 55529.00
1037.073, 55395.00
1038.180, 55592.00
1039.287, 55489.00
1040.393, 55011.00
1041.500, 55070.00
1042.606, 54922.00
1043.712, 55116.00
1044.818, 54737.00
1045.923, 54886.00
1047.029, 54645.00
1048.134, 54652.00
1049.239, 54849.00
1050.344, 54756.00
1051.449, 54896.00
1052.554, 55112.00
1053.658, 54830.00
1054.763, 54938.00
1055.867, 55041.00
1056.971, 55236.00
1058.075, 55168.78
1059.179, 55081.00
1060.282, 55074.00
1061.385, 55136.00
1062.489, 55137.00
1063.592, 55175.00
1064.695, 55226.00
1065.797, 55378.00
1066.900, 55563.00
1068.002, 55428.00
1069.105, 55760.00
1070.207, 55959.00
1071.309, 55906.00
1072.411, 55989.00
1073.512, 56125.00
1074.614, 56481.00
1075.715, 56568.00
1076.816, 56865.00
1077.917, 56796.00
1079.018, 56956.00
1080.118, 57261.00
1081.219, 57510.00
1082.319, 58123.00
1083.419, 58299.68
1084.519, 58600.00
1085.619, 59345.20
1086.719, 59628.58
1087.818, 59846.80
1088.918, 60003.61
1090.017, 59914.43
1091.116, 60142.74
1092.215, 60249.61
1093.314, 60424.03
1094.412, 60533.39
1095.510, 60581.21
1096.609, 60383.19
1097.707, 60502.62
1098.805, 60494.82
1099.902, 60481.79
1101.000, 60645.91
1102.097, 60483.60
1103.195, 60644.90
1104.292, 60677.02
1105.389, 60362.24
1106.485, 60567.00
1107.582, 60217.00
1108.678, 60088.00
1109.775, 59769.00
1110.871, 59613.00
1111.967, 59598.00
1113.062, 59092.00
1114.158, 59074.00
1115.254, 58541.11
1116.349, 58558.82
1117.444, 58516.44
1118.539, 58417.48
1119.634, 58077.61
1120.728, 58060.29
1121.823, 57920.59
1122.917, 57780.73
1124.011, 57822.95
1125.105, 57543.71
1126.199, 57593.02
1127.293, 57518.11
1128.386, 57507.32
1129.480, 57373.41
1130.573, 57284.04
1131.666, 57285.02
1132.759, 57270.65
1133.851, 57338.00
1134.944, 57311.00
1136.036, 57477.00
1137.129, 57408.00
1138.221, 57328.00
1139.313, 57536.00
1140.404, 57553.81
1141.496, 57511.00
1142.587, 57606.00
1143.678, 57626.88
1144.770, 57606.00
1145.860, 57671.00
1146.951, 57853.00
1148.042, 57724.00
1149.132, 57950.00
1150.223, 57741.00
1151.313, 57880.00
1152.403, 57865.00
1153.492, 57911.47
1154.582, 58120.52
1155.671, 58264.46
1156.761, 58346.93
1157.850, 58183.47
1158.939, 58337.49
1160.028, 58364.28
1161.116, 58385.80
1162.205, 58584.51
1163.293, 58456.76
1164.381, 58652.60
1165.469, 58719.27
1166.557, 58845.06
1167.645, 58842.83
1168.732, 58880.09
1169.820, 59045.45
1170.907, 59139.86
1171.994, 59122.84
1173.081, 59252.33
1174.167, 59119.98
1175.254, 59217.41
1176.340, 59413.89
1177.426, 59403.25
1178.512, 59272.00
1179.598, 59292.00
1180.684, 59500.00
1181.770, 59332.00
1182.855, 59519.00
1183.940, 59415.00
1185.025, 59709.00
1186.110, 59708.00
1187.195, 59748.00
1188.280, 59723.00
1189.364, 59432.00
1190.448, 59806.00
1191.532, 59803.00
1192.616, 59820.00
1193.700, 60124.00
1194.784, 60049.00
1195.867, 60117.00
1196.950, 59970.00
1198.034, 60022.37
1199.117, 60153.00
1200.199, 60050.00
1201.282, 60158.10
1202.364, 60159.25
1203.447, 60631.00
1204.529, 60468.00
1205.611, 60607.16
1206.693, 60834.00
1207.774, 60475.00
1208.856, 60866.00
1209.937, 60814.00
1211.018, 61154.00
1212.099, 60902.00
1213.180, 61016.00
1214.261, 60925.00
1215.341, 61038.00
1216.422, 60855.00
1217.502, 61103.00
1218.582, 61110.00
1219.662, 61426.00
1220.742, 61148.00
1221.821, 61504.00
1222.900, 61214.00
1223.980, 61352.00
1225.059, 62087.00
1226.138, 61562.00
1227.216, 61938.00
1228.295, 61548.00
1229.373, 62146.00
1230.452, 61798.00
1231.530, 61847.00
1232.608, 61961.00
1233.685, 62158.00
1234.763, 62079.00
1235.840, 61825.00
1236.918, 62251.00
1237.995, 62223.00
1239.072, 62305.00
1240.149, 62966.00
1241.225, 62460.00
1242.302, 62929.00
1243.378, 62447.00
1244.454, 62882.00
1245.530, 62894.00
1246.606, 62510.00
1247.681, 62962.00
1248.757, 62980.00
1249.832, 63116.00
1250.907, 62951.00
1251.982, 62877.00
1253.057, 63250.00
1254.132, 63031.00
1255.206, 63134.00
1256.281, 63022.00
1257.355, 63225.00
1258.429, 63479.00
1259.503, 63422.00
1260.576, 63576.00
1261.650, 63596.00
1262.723, 63341.00
1263.797, 64086.00
1264.870, 63629.00
1265.942, 63855.00
1267.015, 63751.00
1268.088, 64143.00
1269.160, 64161.00
1270.232, 64257.93
1271.304, 64032.00
1272.376, 64400.00
1273.448, 64112.00
1274.520, 64085.00
1275.591, 64716.00
1276.662, 64456.29
1277.733, 64659.84
1278.804, 64798.35
1279.875, 64875.32
1280.946, 64706.44
1282.016, 64854.97
1283.086, 64876.29
1284.156, 64892.37
1285.226, 65085.59
1286.296, 64952.41
1287.366, 65142.82
1288.435, 65204.02
1289.505, 65324.38
1290.574, 65316.66
1291.643, 65348.50
1292.711, 65508.34
1293.780, 65597.32
1294.849, 65574.88
1295.917, 65698.89
1296.985, 65561.13
1298.053, 65653.08
1299.121, 65844.14
1300.189, 65828.08
1301.256, 65954.38
1302.323, 66026.45
1303.391, 65852.06
1304.458, 66031.07
1305.524, 66444.00
1306.591, 66199.00
1307.658, 66320.00
1308.724, 66513.00
1309.790, 66397.00
1310.856, 66465.85
1311.922, 65974.00
1312.988, 66430.00
1314.053, 66446.00
1315.119, 66515.00
1316.184, 67045.00
1317.249, 66611.00
1318.314, 66731.00
1319.379, 66764.00
1320.443, 66864.00
1321.508, 66940.00
1322.572, 67125.00
1323.636, 67120.00
1324.700, 67569.00
1325.764, 67245.00
1326.827, 67271.00
1327.891, 67098.00
1328.954, 67474.00
1330.017, 67409.00
1331.080, 67126.00
1332.143, 67742.00
1333.205, 67385.00
1334.268, 67323.00
1335.330, 67477.00
1336.392, 67393.00
1337.454, 67884.00
1338.516, 67713.00
1339.578, 67899.00
1340.639, 67949.00
1341.701, 67701.00
1342.762, 68231.00
1343.823, 67827.00
1344.883, 68295.00
1345.944, 68165.00
1347.005, 68230.00
1348.065, 68060.00
1349.125, 68184.00
1350.185, 68667.00
1351.245, 68421.00
1352.305, 68839.00
1353.364, 68677.00
1354.424, 68411.00
1355.483, 68756.00
1356.542, 68464.00
1357.601, 68849.00
1358.659, 68731.00
1359.718, 68744.00
1360.776, 68848.00
1361.834, 69006.00
1362.893, 68844.00
1363.950, 69262.00
1365.008, 68612.00
1366.066, 69249.00
1367.123, 69029.00
1368.180, 69515.00
1369.237, 69384.00
1370.294, 69125.00
1371.351, 69477.00
1372.408, 69067.00
1373.464, 69635.00
1374.520, 69670.00
1375.576, 69181.00
1376.632, 69702.00
1377.688, 69425.00
1378.744, 69823.00
1379.799, 69672.00
1380.854, 70416.00
1381.910, 70053.00
1382.965, 69567.00
1384.019, 70023.00
1385.074, 69840.00
1386.128, 70018.00
1387.183, 70232.00
1388.237, 69878.00
1389.291, 70119.00
1390.345, 70366.00
1391.398, 70034.00
1392.452, 70253.00
1393.505, 70468.00
1394.558, 70378.00
1395.611, 70225.00
1396.664, 70258.00
1397.717, 70866.00
1398.769, 70432.00
1399.822, 71092.00
1400.874, 70726.00
1401.926, 70592.00
1402.978, 70912.00
1404.029, 70728.00
1405.081, 70904.00
1406.132, 70963.00
1407.183, 70702.00
1408.234, 71008.00
1409.285, 70816.00
1410.336, 71402.00
1411.387, 71083.00
1412.437, 71448.00
1413.487, 70917.00
1414.537, 71233.00
1415.587, 71437.96
1416.637, 71634.38
1417.686, 71765.71
1418.736, 71835.55
1419.785, 71659.48
1420.834, 71800.88
1421.883, 71815.06
1422.932, 71824.02
1423.980, 72010.07
1425.029, 71869.76
1426.077, 72053.00
1427.125, 72107.06
1428.173, 72220.24
1429.221, 72205.41
1430.269, 72230.12
1431.316, 72382.84
1432.363, 72464.65
1433.410, 72435.03
1434.457, 72551.93
1435.504, 72407.05
1436.551, 72491.88
1437.597, 72675.78
1438.644, 72652.60
1439.690, 72771.79
1440.736, 72836.74
1441.781, 72655.15
1442.827, 72902.29
1443.873, 72834.00
1444.918, 72942.00
1445.963, 73155.00
1447.008, 73190.00
1448.053, 73081.00
1449.098, 72989.00
1450.142, 73342.00
1451.186, 73016.00
1452.231, 73253.00
1453.275, 73061.00
1454.319, 73116.35
1455.362, 73252.94
1456.406, 73196.00
1457.449, 73544.00
1458.492, 73516.00
1459.535, 73729.00
1460.578, 73768.00
1461.621, 73490.00
1462.663, 74023.00
1463.706, 73522.00
1464.748, 73861.00
1465.790, 73882.00
1466.832, 73829.00
1467.874, 74124.00
1468.915, 73769.00
1469.957, 74406.00
1470.998, 74344.00
1472.039, 74203.00
1473.080, 74155.00
1474.121, 74198.00
1475.161, 74459.00
1476.202, 74460.57
1477.242, 74501.66
1478.282, 74749.00
1479.322, 74524.00
1480.362, 74798.00
1481.401, 74924.00
1482.441, 74431.00
1483.480, 74945.00
1484.519, 74982.00
1485.558, 74901.00
1486.597, 74870.00
1487.636, 74739.00
1488.674, 75026.00
1489.712, 74772.00
1490.751, 75080.00
1491.788, 75044.00
1492.826, 75304.00
1493.864, 75279.00
1494.901, 75626.00
1495.939, 75221.00
1496.976, 75424.00
1498.013, 75615.00
1499.050, 75717.00
1500.086, 75320.00
1501.123, 75779.00
1502.159, 75680.53
1503.195, 75262.00
1504.231, 75937.00
1505.267, 75850.00
1506.303, 76128.00
1507.338, 76149.00
1508.374, 75935.00
1509.409, 75974.00
1510.444, 76043.00
1511.479, 76308.00
1512.514, 76580.00
1513.548, 76469.00
1514.583, 76894.00
1515.617, 76487.00
1516.651, 76453.00
1517.685, 77163.00
1518.718, 76823.00
1519.752, 76951.00
1520.785, 77120.00
1521.819, 77023.00
1522.852, 77115.00
1523.885, 77164.00
1524.917, 76963.00
1525.950, 77382.00
1526.982, 77241.00
1528.015, 77887.00
1529.047, 77551.00
1530.079, 77515.00
1531.110, 77619.00
1532.142, 77323.00
1533.173, 77385.53
1534.205, 77409.00
1535.236, 77404.00
1536.267, 77640.00
1537.298, 77901.00
1538.328, 77985.00
1539.359, 77894.00
1540.389, 78330.00
1541.419, 78314.00
1542.449, 78037.00
1543.479, 78332.00
1544.508, 77837.00
1545.538, 78271.00
1546.567, 78414.00
1547.596, 78138.00
1548.625, 78622.00
1549.654, 78387.00
1550.683, 78516.00
1551.711, 78926.00
1552.740, 78764.00
1553.768, 79059.91
1554.796, 79117.45
1555.824, 79224.00
1556.851, 79160.00
1557.879, 78874.00
1558.906, 78682.00
1559.933, 78379.00
1560.960, 78960.00
1561.987, 79105.00
1563.014, 78981.00
1564.041, 79343.00
1565.067, 79051.00
1566.093, 78710.00
1567.119, 79365.00
1568.145, 79021.00
1569.171, 79021.00
1570.196, 79150.00
1571.222, 79134.00
1572.247, 79804.00
1573.272, 79521.00
1574.297, 79395.00
1575.322, 79817.00
1576.346, 79426.00
1577.371, 79941.00
1578.395, 79820.00
1579.419, 79936.00
1580.443, 79988.00
##END=



