##NAMES=Fluorapatite
##RRUFFID=R060333
##IDEAL CHEMISTRY=Ca_5_(PO_4_)_3_F
##LOCALITY=Lovozero Massif, Kola Peninsula, U.S.S.R.
##OWNER=RRUFF
##SOURCE=Michael Scott
##DESCRIPTION=Colorless fragment associated with red villiaumite
##STATUS=The identification of this mineral has been confirmed by X-ray diffraction and chemical analysis
##URL=rruff.info/R060333
##MEASURED CHEMISTRY=(Ca_4.29_Sr_0.47_Na_0.12_Ce_0.07_La_0.06_)_Σ=5_((P_0.99_Si_0.01_)_Σ=1_O_4_)_3_F_1.00_
##PIN_ID=L01212
##ORIENTATION=Laser parallel to a* (1 0 0). Fiducial mark perpendicular to laser is parallel to -c [0 0 -1]
164.2210, 1672.000
165.4520, 1685.000
166.6830, 1722.000
167.9140, 1682.000
169.1450, 1751.000
170.3760, 1679.000
171.6060, 1737.000
172.8360, 1767.000
174.0660, 1740.000
175.2960, 1749.000
176.5260, 1734.000
177.7550, 1794.000
178.9840, 1793.000
180.2130, 1836.000
181.4420, 1837.000
182.6710, 1829.000
183.9000, 1861.000
185.1280, 1880.295
186.3560, 1937.000
187.5840, 1960.000
188.8120, 1988.000
190.0400, 2050.000
191.2670, 2066.000
192.4950, 2182.000
193.7220, 2302.000
194.9490, 2385.000
196.1750, 2436.000
197.4020, 2575.000
198.6280, 2677.000
199.8540, 2789.000
201.0800, 3021.000
202.3060, 3131.000
203.5320, 3225.000
204.7570, 3321.000
205.9830, 3384.000
207.2080, 3355.000
208.4330, 3288.000
209.6570, 3148.000
210.8820, 3002.000
212.1060, 2859.000
213.3310, 2816.000
214.5550, 2601.000
215.7780, 2575.000
217.0020, 2485.000
218.2260, 2318.000
219.4490, 2329.000
220.6720, 2289.000
221.8950, 2307.000
223.1180, 2221.000
224.3400, 2241.000
225.5630, 2175.000
226.7850, 2189.000
228.0070, 2168.000
229.2290, 2174.000
230.4500, 2190.000
231.6720, 2214.000
232.8930, 2179.000
234.1140, 2171.000
235.3350, 2202.000
236.5560, 2150.000
237.7770, 2081.000
238.9970, 2148.000
240.2170, 2104.000
241.4370, 1958.000
242.6570, 2002.000
243.8770, 1963.000
245.0960, 1970.000
246.3160, 1899.000
247.5350, 1930.000
248.7540, 1959.000
249.9730, 1898.000
251.1910, 1897.000
252.4100, 1881.000
253.6280, 1898.000
254.8460, 1884.000
256.0640, 1889.000
257.2810, 1862.000
258.4990, 1917.000
259.7160, 1948.000
260.9330, 1887.000
262.1500, 1915.000
263.3670, 1899.000
264.5840, 1943.000
265.8000, 1896.000
267.0170, 1923.000
268.2330, 1960.000
269.4490, 1996.000
270.6640, 2010.356
271.8800, 1980.000
273.0950, 2050.000
274.3100, 2043.000
275.5260, 2084.000
276.7400, 2087.000
277.9550, 2134.000
279.1690, 2123.000
280.3840, 2124.000
281.5980, 2143.000
282.8120, 2186.000
284.0260, 2214.000
285.2390, 2263.000
286.4530, 2238.000
287.6660, 2279.000
288.8790, 2299.000
290.0920, 2288.000
291.3040, 2348.000
292.5170, 2400.000
293.7290, 2351.000
294.9410, 2398.000
296.1530, 2428.000
297.3650, 2407.000
298.5770, 2408.000
299.7880, 2399.000
301.0000, 2377.104
302.2110, 2366.718
303.4220, 2333.000
304.6320, 2323.000
305.8430, 2298.063
307.0530, 2262.000
308.2630, 2225.000
309.4730, 2154.000
310.6830, 2105.000
311.8930, 2074.000
313.1030, 2077.000
314.3120, 2073.000
315.5210, 2031.000
316.7300, 1981.000
317.9390, 1976.000
319.1470, 1939.000
320.3560, 1986.000
321.5640, 1942.000
322.7720, 1945.000
323.9800, 1977.000
325.1880, 1951.000
326.3950, 1901.000
327.6030, 1908.000
328.8100, 1889.582
330.0170, 1954.000
331.2240, 1887.000
332.4300, 1911.000
333.6370, 1912.000
334.8430, 1902.000
336.0490, 1915.000
337.2550, 1926.000
338.4610, 1900.000
339.6660, 1870.000
340.8720, 1921.000
342.0770, 1895.000
343.2820, 1932.000
344.4870, 1938.000
345.6920, 1920.000
346.8960, 1946.000
348.1010, 1914.000
349.3050, 1900.000
350.5090, 1894.000
351.7130, 1938.000
352.9160, 1940.000
354.1200, 1966.000
355.3230, 1955.000
356.5260, 1876.000
357.7290, 1942.000
358.9320, 1958.000
360.1350, 2013.000
361.3370, 1929.000
362.5390, 2000.000
363.7410, 1988.000
364.9430, 2026.000
366.1450, 1958.000
367.3470, 1986.000
368.5480, 1987.000
369.7490, 2000.000
370.9500, 1950.000
372.1510, 2028.000
373.3520, 2036.000
374.5520, 1989.000
375.7530, 2034.000
376.9530, 1976.000
378.1530, 2053.000
379.3520, 2049.000
380.5520, 2048.000
381.7510, 1995.000
382.9510, 2021.000
384.1500, 2044.000
385.3490, 1986.000
386.5480, 2061.000
387.7460, 2003.000
388.9440, 2001.000
390.1430, 2019.000
391.3410, 2013.097
392.5390, 2053.000
393.7360, 2063.000
394.9340, 2076.000
396.1310, 2123.000
397.3280, 2116.392
398.5250, 2143.000
399.7220, 2134.000
400.9190, 2118.700
402.1150, 2144.299
403.3120, 2114.000
404.5080, 2150.000
405.7040, 2189.000
406.8990, 2238.000
408.0950, 2273.241
409.2900, 2369.000
410.4860, 2360.000
411.6810, 2386.000
412.8760, 2445.000
414.0700, 2533.000
415.2650, 2609.000
416.4590, 2696.596
417.6540, 2707.000
418.8480, 2862.000
420.0420, 2948.000
421.2350, 2987.000
422.4290, 3186.000
423.6220, 3298.000
424.8150, 3411.000
426.0080, 3543.000
427.2010, 3666.000
428.3940, 3763.000
429.5860, 3690.000
430.7790, 3706.000
431.9710, 3609.000
433.1630, 3510.000
434.3540, 3499.000
435.5460, 3453.000
436.7370, 3433.000
437.9290, 3404.000
439.1200, 3376.000
440.3110, 3338.000
441.5010, 3404.000
442.6920, 3420.000
443.8820, 3481.000
445.0730, 3602.000
446.2630, 3700.000
447.4530, 3831.000
448.6420, 3877.828
449.8320, 3920.000
451.0210, 3958.000
452.2100, 3938.000
453.3990, 3952.000
454.5880, 3869.000
455.7770, 3747.000
456.9660, 3695.000
458.1540, 3569.000
459.3420, 3485.000
460.5300, 3332.000
461.7180, 3198.000
462.9050, 3139.000
464.0930, 3034.000
465.2800, 2970.000
466.4670, 2931.000
467.6540, 2876.000
468.8410, 2773.000
470.0280, 2758.000
471.2140, 2721.000
472.4000, 2678.000
473.5870, 2712.000
474.7720, 2651.000
475.9580, 2671.000
477.1440, 2598.000
478.3290, 2533.000
479.5140, 2642.000
480.6990, 2570.000
481.8840, 2653.000
483.0690, 2582.000
484.2540, 2596.000
485.4380, 2542.000
486.6220, 2535.000
487.8060, 2576.000
488.9900, 2560.000
490.1740, 2544.000
491.3570, 2507.000
492.5410, 2519.000
493.7240, 2520.000
494.9070, 2499.000
496.0900, 2472.000
497.2720, 2523.000
498.4550, 2563.000
499.6370, 2505.000
500.8190, 2490.000
502.0010, 2532.000
503.1830, 2511.000
504.3650, 2565.000
505.5460, 2533.000
506.7280, 2542.000
507.9090, 2517.000
509.0900, 2570.000
510.2710, 2559.000
511.4510, 2548.000
512.6320, 2596.000
513.8120, 2547.000
514.9920, 2570.000
516.1720, 2560.000
517.3520, 2584.000
518.5310, 2637.000
519.7110, 2563.000
520.8900, 2609.000
522.0690, 2576.000
523.2480, 2654.000
524.4270, 2618.000
525.6050, 2587.000
526.7840, 2604.000
527.9620, 2634.000
529.1400, 2661.000
530.3180, 2563.000
531.4960, 2663.000
532.6730, 2629.000
533.8510, 2631.000
535.0280, 2697.000
536.2050, 2684.000
537.3820, 2712.000
538.5590, 2677.000
539.7350, 2656.000
540.9120, 2730.000
542.0880, 2673.000
543.2640, 2722.000
544.4400, 2795.000
545.6150, 2695.000
546.7910, 2733.000
547.9660, 2790.000
549.1410, 2764.000
550.3170, 2751.000
551.4910, 2753.000
552.6660, 2823.000
553.8410, 2739.000
555.0150, 2827.000
556.1890, 2815.000
557.3630, 2831.000
558.5370, 2820.000
559.7110, 2838.097
560.8840, 2873.412
562.0570, 2894.000
563.2310, 2973.000
564.4040, 3050.000
565.5760, 3132.000
566.7490, 3107.000
567.9220, 3131.000
569.0940, 3190.000
570.2660, 3249.000
571.4380, 3296.689
572.6100, 3367.000
573.7820, 3424.000
574.9530, 3527.000
576.1240, 3619.000
577.2960, 3716.000
578.4670, 3889.000
579.6370, 3968.000
580.8080, 4136.000
581.9790, 4406.000
583.1490, 4789.000
584.3190, 5282.955
585.4890, 5851.000
586.6590, 6572.000
587.8280, 7333.000
588.9980, 8190.000
590.1670, 8532.000
591.3360, 8391.000
592.5050, 7880.000
593.6740, 7345.000
594.8430, 6576.000
596.0110, 5988.000
597.1790, 5612.000
598.3480, 5196.000
599.5160, 5024.000
600.6830, 5065.000
601.8510, 5188.000
603.0180, 5597.000
604.1860, 5987.000
605.3530, 6193.000
606.5200, 5959.000
607.6870, 5627.000
608.8530, 5083.000
610.0200, 4702.000
611.1860, 4353.000
612.3520, 4160.000
613.5180, 3927.000
614.6840, 3852.000
615.8500, 3688.000
617.0150, 3610.000
618.1800, 3490.000
619.3450, 3510.000
620.5100, 3471.000
621.6750, 3426.000
622.8400, 3414.000
624.0040, 3377.000
625.1690, 3254.000
626.3330, 3273.000
627.4970, 3230.000
628.6610, 3209.000
629.8240, 3220.000
630.9880, 3168.000
632.1510, 3184.000
633.3140, 3141.000
634.4770, 3262.000
635.6400, 3212.000
636.8020, 3260.000
637.9650, 3178.000
639.1270, 3235.000
640.2890, 3204.000
641.4510, 3268.000
642.6130, 3247.000
643.7750, 3333.000
644.9360, 3292.000
646.0980, 3339.000
647.2590, 3305.000
648.4200, 3333.000
649.5810, 3350.000
650.7410, 3342.000
651.9020, 3384.000
653.0620, 3431.000
654.2220, 3397.000
655.3820, 3392.000
656.5420, 3472.000
657.7020, 3466.000
658.8610, 3424.000
660.0200, 3453.000
661.1800, 3486.000
662.3390, 3402.000
663.4970, 3429.000
664.6560, 3418.000
665.8150, 3438.000
666.9730, 3446.000
668.1310, 3399.000
669.2890, 3458.000
670.4470, 3371.000
671.6050, 3408.000
672.7620, 3383.000
673.9200, 3423.000
675.0770, 3423.040
676.2340, 3399.000
677.3910, 3424.000
678.5470, 3451.000
679.7040, 3427.000
680.8600, 3426.000
682.0160, 3408.000
683.1720, 3450.000
684.3280, 3422.000
685.4840, 3365.000
686.6390, 3445.000
687.7950, 3398.000
688.9500, 3366.000
690.1050, 3477.000
691.2600, 3494.000
692.4150, 3441.000
693.5690, 3513.000
694.7240, 3448.000
695.8780, 3480.000
697.0320, 3520.000
698.1860, 3450.000
699.3400, 3537.000
700.4930, 3490.000
701.6470, 3495.000
702.8000, 3567.000
703.9530, 3516.000
705.1060, 3575.000
706.2590, 3572.000
707.4110, 3540.000
708.5640, 3544.000
709.7160, 3564.000
710.8680, 3562.000
712.0200, 3618.000
713.1720, 3652.000
714.3230, 3601.000
715.4750, 3619.000
716.6260, 3592.000
717.7770, 3578.000
718.9280, 3630.000
720.0790, 3672.000
721.2300, 3668.000
722.3800, 3647.000
723.5300, 3687.000
724.6810, 3675.000
725.8300, 3710.000
726.9800, 3617.000
728.1300, 3650.000
729.2790, 3705.000
730.4290, 3674.000
731.5780, 3736.000
732.7270, 3792.000
733.8760, 3688.000
735.0240, 3763.000
736.1730, 3703.000
737.3210, 3754.000
738.4700, 3706.000
739.6180, 3746.000
740.7650, 3816.000
741.9130, 3756.000
743.0610, 3801.000
744.2080, 3765.000
745.3550, 3832.000
746.5020, 3780.000
747.6490, 3860.000
748.7960, 3904.000
749.9430, 3806.000
751.0890, 3850.000
752.2350, 3788.000
753.3810, 3908.000
754.5270, 3895.000
755.6730, 3885.000
756.8190, 3941.000
757.9640, 3911.000
759.1090, 3910.000
760.2540, 3930.000
761.3990, 3960.000
762.5440, 3968.000
763.6890, 3969.000
764.8330, 3951.000
765.9780, 3994.000
767.1220, 3925.000
768.2660, 3992.000
769.4100, 3997.000
770.5530, 4016.000
771.6970, 3994.000
772.8400, 4042.000
773.9830, 3985.000
775.1260, 4002.000
776.2690, 4004.000
777.4120, 4061.000
778.5540, 4145.000
779.6970, 4097.000
780.8390, 4102.000
781.9810, 4067.000
783.1230, 4033.000
784.2650, 4065.000
785.4060, 4061.000
786.5480, 4115.000
787.6890, 4160.000
788.8300, 4105.000
789.9710, 4078.000
791.1120, 4156.000
792.2520, 4165.000
793.3930, 4115.000
794.5330, 4240.000
795.6730, 4134.000
796.8130, 4224.000
797.9530, 4147.000
799.0930, 4138.000
800.2320, 4148.000
801.3710, 4217.000
802.5110, 4291.000
803.6500, 4291.000
804.7880, 4292.000
805.9270, 4274.000
807.0660, 4354.000
808.2040, 4263.000
809.3420, 4358.000
810.4800, 4294.000
811.6180, 4311.000
812.7560, 4353.000
813.8930, 4336.000
815.0310, 4352.000
816.1680, 4371.000
817.3050, 4405.000
818.4420, 4419.396
819.5790, 4453.000
820.7150, 4469.000
821.8520, 4468.000
822.9880, 4510.000
824.1240, 4432.000
825.2600, 4551.000
826.3960, 4510.000
827.5320, 4551.000
828.6670, 4466.000
829.8020, 4571.000
830.9380, 4595.000
832.0730, 4486.000
833.2080, 4562.000
834.3420, 4526.000
835.4770, 4605.000
836.6110, 4600.000
837.7450, 4653.000
838.8790, 4562.000
840.0130, 4605.000
841.1470, 4605.000
842.2810, 4670.000
843.4140, 4638.000
844.5470, 4733.000
845.6800, 4646.000
846.8130, 4716.000
847.9460, 4739.000
849.0790, 4809.000
850.2110, 4790.000
851.3440, 4809.000
852.4760, 4782.000
853.6080, 4855.000
854.7400, 4967.000
855.8710, 4925.000
857.0030, 4875.000
858.1340, 4947.000
859.2650, 4889.000
860.3960, 4852.000
861.5270, 4959.000
862.6580, 4966.000
863.7890, 4994.000
864.9190, 4924.000
866.0490, 4998.000
867.1790, 5002.000
868.3090, 4984.000
869.4390, 4986.000
870.5690, 5012.000
871.6980, 4970.000
872.8270, 5088.000
873.9570, 4951.000
875.0860, 5111.000
876.2140, 5089.000
877.3430, 5090.000
878.4720, 5041.000
879.6000, 5049.000
880.7280, 5132.000
881.8560, 5112.000
882.9840, 5128.000
884.1120, 5219.000
885.2390, 5115.000
886.3670, 5097.000
887.4940, 5231.000
888.6210, 5251.000
889.7480, 5164.000
890.8750, 5216.000
892.0020, 5191.000
893.1280, 5172.000
894.2540, 5174.000
895.3810, 5224.000
896.5070, 5253.000
897.6320, 5237.000
898.7580, 5206.000
899.8840, 5310.000
901.0090, 5242.000
902.1340, 5196.000
903.2590, 5280.000
904.3840, 5326.000
905.5090, 5268.000
906.6340, 5412.000
907.7580, 5486.000
908.8820, 5282.000
910.0060, 5447.000
911.1300, 5474.000
912.2540, 5476.000
913.3780, 5541.402
914.5010, 5467.000
915.6250, 5542.000
916.7480, 5530.000
917.8710, 5465.000
918.9940, 5539.000
920.1160, 5564.000
921.2390, 5590.000
922.3610, 5604.000
923.4840, 5624.298
924.6060, 5653.295
925.7280, 5668.000
926.8490, 5717.000
927.9710, 5769.000
929.0930, 5814.000
930.2140, 5843.000
931.3350, 5889.604
932.4560, 5986.000
933.5770, 5966.000
934.6980, 6044.000
935.8180, 6084.000
936.9380, 6220.000
938.0590, 6370.000
939.1790, 6376.000
940.2990, 6536.000
941.4180, 6758.000
942.5380, 6989.000
943.6570, 7309.713
944.7770, 7554.000
945.8960, 8076.000
947.0150, 8561.000
948.1340, 9066.000
949.2520, 9866.000
950.3710, 11050.00
951.4890, 12479.00
952.6070, 14270.00
953.7260, 16719.00
954.8430, 20125.00
955.9610, 25055.00
957.0790, 31203.00
958.1960, 39249.00
959.3130, 47622.00
960.4310, 54746.00
961.5480, 59438.00
962.6640, 60138.00
963.7810, 57907.00
964.8970, 52797.00
966.0140, 46222.00
967.1300, 40226.00
968.2460, 34115.00
969.3620, 29086.00
970.4780, 24363.00
971.5930, 20664.00
972.7090, 17531.00
973.8240, 14737.00
974.9390, 12929.00
976.0540, 11125.00
977.1690, 9869.000
978.2830, 9078.000
979.3980, 8211.000
980.5120, 7697.000
981.6260, 7500.000
982.7400, 7185.000
983.8540, 7058.000
984.9680, 6934.000
986.0820, 6819.000
987.1950, 6748.000
988.3080, 6712.000
989.4210, 6691.000
990.5340, 6804.000
991.6470, 6753.000
992.7600, 6711.000
993.8720, 6845.000
994.9850, 6750.000
996.0970, 6931.000
997.2090, 6843.000
998.3210, 6953.000
999.4320, 7044.000
1000.544, 7250.000
1001.655, 7144.000
1002.767, 7236.000
1003.878, 7329.000
1004.989, 7469.000
1006.100, 7439.000
1007.210, 7532.000
1008.321, 7492.000
1009.431, 7550.000
1010.541, 7477.000
1011.651, 7482.000
1012.761, 7436.794
1013.871, 7343.000
1014.980, 7335.000
1016.090, 7278.000
1017.199, 7251.000
1018.308, 7259.000
1019.417, 7300.000
1020.526, 7316.000
1021.635, 7463.000
1022.743, 7446.000
1023.852, 7617.000
1024.960, 7517.000
1026.068, 7604.000
1027.176, 7715.000
1028.283, 7783.000
1029.391, 7785.000
1030.498, 7995.000
1031.606, 7994.000
1032.713, 8097.000
1033.820, 8224.000
1034.927, 8471.000
1036.033, 8548.000
1037.140, 8685.000
1038.246, 8777.000
1039.353, 8958.000
1040.459, 9087.000
1041.564, 9361.000
1042.670, 9673.000
1043.776, 9943.000
1044.881, 10367.00
1045.987, 10610.00
1047.092, 11175.00
1048.197, 11656.00
1049.302, 12024.00
1050.406, 12375.00
1051.511, 12647.00
1052.615, 12614.00
1053.720, 12502.00
1054.824, 12396.00
1055.928, 11978.00
1057.031, 11621.00
1058.135, 11205.00
1059.238, 10900.38
1060.342, 10700.00
1061.445, 10326.00
1062.548, 10092.00
1063.651, 9863.000
1064.754, 9616.000
1065.856, 9496.000
1066.959, 9381.258
1068.061, 9315.000
1069.163, 9298.000
1070.265, 9357.000
1071.367, 9391.000
1072.469, 9546.000
1073.570, 9809.000
1074.671, 10166.00
1075.773, 10353.00
1076.874, 10768.00
1077.975, 10789.00
1079.075, 10867.00
1080.176, 10650.00
1081.276, 10480.00
1082.377, 10373.00
1083.477, 10128.22
1084.577, 9743.000
1085.677, 9708.000
1086.777, 9410.000
1087.876, 9215.000
1088.975, 9135.000
1090.075, 8957.000
1091.174, 8838.000
1092.273, 8748.000
1093.372, 8597.212
1094.470, 8535.000
1095.569, 8366.000
1096.667, 8275.000
1097.765, 8199.913
1098.863, 8227.000
1099.961, 8126.000
1101.059, 8041.000
1102.157, 8006.000
1103.254, 7942.000
1104.351, 7917.834
1105.449, 8029.000
1106.546, 7895.000
1107.642, 7927.000
1108.739, 7943.000
1109.836, 7865.000
1110.932, 8061.000
1112.028, 8037.000
1113.124, 7978.000
1114.220, 7915.000
1115.316, 7970.000
1116.412, 8098.000
1117.507, 8020.000
1118.603, 8079.000
1119.698, 7968.000
1120.793, 8000.000
1121.888, 8083.000
1122.983, 8049.000
1124.077, 8041.000
1125.172, 8011.000
1126.266, 8046.000
1127.360, 8089.000
1128.454, 7999.000
1129.548, 7989.000
1130.642, 8075.000
1131.735, 8035.000
1132.829, 8005.000
1133.922, 8096.000
1135.015, 8104.000
1136.108, 8140.000
1137.201, 7999.000
1138.294, 8198.000
1139.386, 8086.000
1140.478, 8077.000
1141.571, 8154.000
1142.663, 8202.000
1143.755, 8218.000
1144.846, 8191.000
1145.938, 8256.000
1147.030, 8230.000
1148.121, 8264.687
1149.212, 8334.000
1150.303, 8329.000
1151.394, 8314.000
1152.485, 8361.000
1153.575, 8305.000
1154.666, 8456.000
1155.756, 8479.000
1156.846, 8420.000
1157.936, 8421.000
1159.026, 8417.000
1160.116, 8421.000
1161.205, 8434.000
1162.295, 8448.480
1163.384, 8574.000
1164.473, 8477.000
1165.562, 8547.000
1166.651, 8533.000
1167.739, 8428.000
1168.828, 8579.000
1169.916, 8544.000
1171.005, 8649.000
1172.093, 8513.000
1173.181, 8517.000
1174.268, 8630.000
1175.356, 8589.000
1176.443, 8621.000
1177.531, 8611.000
1178.618, 8648.000
1179.705, 8606.000
1180.792, 8592.000
1181.879, 8757.000
1182.965, 8667.000
1184.052, 8739.000
1185.138, 8695.000
1186.224, 8816.000
1187.310, 8703.000
1188.396, 8757.000
1189.482, 8689.000
1190.567, 8686.754
1191.653, 8883.000
1192.738, 8754.000
1193.823, 8783.000
1194.908, 8958.000
1195.993, 8892.000
1197.077, 8932.000
1198.162, 9012.000
1199.246, 8935.000
1200.331, 8889.000
1201.415, 8970.000
1202.499, 8999.000
1203.582, 8974.000
1204.666, 9090.000
1205.750, 9081.000
1206.833, 9043.000
1207.916, 9011.000
1208.999, 9034.863
1210.082, 9105.000
1211.165, 9059.000
1212.248, 9203.000
1213.330, 9173.000
1214.412, 9178.000
1215.495, 9228.000
1216.577, 9241.000
1217.658, 9279.249
1218.740, 9223.000
1219.822, 9338.000
1220.903, 9268.000
1221.985, 9251.000
1223.066, 9285.000
1224.147, 9348.000
1225.228, 9279.000
1226.308, 9327.935
1227.389, 9397.000
1228.469, 9368.000
1229.550, 9309.000
1230.630, 9375.000
1231.710, 9281.000
1232.790, 9369.000
1233.869, 9473.000
1234.949, 9493.000
1236.028, 9433.000
1237.108, 9551.000
1238.187, 9446.000
1239.266, 9461.000
1240.344, 9468.000
1241.423, 9426.000
1242.502, 9455.000
1243.580, 9492.000
1244.658, 9495.000
1245.736, 9494.000
1246.814, 9555.000
1247.892, 9543.000
1248.970, 9704.000
1250.047, 9681.000
1251.125, 9580.000
1252.202, 9712.000
1253.279, 9585.000
1254.356, 9714.000
1255.433, 9725.000
1256.509, 9714.000
1257.586, 9784.000
1258.662, 9767.000
1259.738, 9732.000
1260.814, 9820.000
1261.890, 9776.000
1262.966, 9718.000
1264.042, 9797.000
1265.117, 9809.000
1266.193, 9901.000
1267.268, 9816.000
1268.343, 9776.000
1269.418, 9966.000
1270.492, 9997.000
1271.567, 9860.000
1272.642, 9967.000
1273.716, 9868.000
1274.790, 10009.00
1275.864, 9955.000
1276.938, 9811.000
1278.012, 9998.000
1279.085, 9876.000
1280.159, 10041.00
1281.232, 9942.000
1282.305, 10041.00
1283.378, 10109.00
1284.451, 10211.00
1285.524, 10107.00
1286.597, 10120.00
1287.669, 10127.00
1288.741, 10087.00
1289.813, 10098.00
1290.885, 10202.00
1291.957, 10179.00
1293.029, 10246.00
1294.101, 10232.00
1295.172, 10249.22
1296.243, 10361.00
1297.315, 10294.00
1298.386, 10336.00
1299.456, 10410.00
1300.527, 10412.00
1301.598, 10337.00
1302.668, 10350.00
1303.738, 10341.00
1304.809, 10355.00
1305.879, 10519.00
1306.948, 10393.00
1308.018, 10393.00
1309.088, 10467.00
1310.157, 10663.00
1311.226, 10502.00
1312.296, 10635.00
1313.365, 10687.00
1314.433, 10555.00
1315.502, 10635.00
1316.571, 10644.00
1317.639, 10714.00
1318.707, 10733.00
1319.776, 10756.00
1320.844, 10767.22
1321.911, 10765.00
1322.979, 10771.00
1324.047, 10782.00
1325.114, 10816.00
1326.181, 10786.00
1327.249, 10885.00
1328.316, 10731.00
1329.382, 10926.00
1330.449, 10827.00
1331.516, 10864.00
1332.582, 10909.00
1333.648, 10969.00
1334.715, 11022.00
1335.781, 10930.00
1336.846, 11035.00
1337.912, 10993.00
1338.978, 10958.00
1340.043, 11152.00
1341.108, 11020.00
1342.174, 11094.00
1343.239, 11073.00
1344.303, 11059.00
1345.368, 10948.00
1346.433, 11170.00
1347.497, 11066.00
1348.561, 11195.00
1349.626, 11137.00
1350.690, 11245.00
1351.753, 11235.00
1352.817, 11220.00
1353.881, 11239.30
1354.944, 11240.09
1356.007, 11209.00
1357.071, 11253.00
1358.134, 11256.00
1359.196, 11230.00
1360.259, 11303.00
1361.322, 11349.00
1362.384, 11387.00
1363.447, 11497.00
1364.509, 11423.00
1365.571, 11323.00
1366.633, 11452.00
1367.694, 11429.00
1368.756, 11339.00
1369.817, 11463.00
1370.879, 11406.00
1371.940, 11567.00
1373.001, 11550.00
1374.062, 11577.00
1375.122, 11619.00
1376.183, 11605.00
1377.244, 11641.15
1378.304, 11562.00
1379.364, 11644.00
1380.424, 11685.00
1381.484, 11610.00
1382.544, 11625.00
1383.603, 11603.00
1384.663, 11776.00
1385.722, 11773.00
1386.781, 11730.00
1387.840, 11749.00
1388.899, 11640.00
1389.958, 11697.00
1391.017, 11694.00
1392.075, 11849.00
1393.134, 11892.00
1394.192, 11937.69
1395.250, 11911.00
1396.308, 11980.00
1397.365, 11996.00
1398.423, 11921.00
1399.481, 11886.00
1400.538, 12023.00
1401.595, 11898.00
1402.652, 12046.00
1403.709, 12021.00
1404.766, 12025.00
1405.823, 12069.00
1406.879, 12095.00
1407.936, 12117.00
1408.992, 12149.00
1410.048, 12156.00
1411.104, 12157.93
1412.160, 12208.00
1413.215, 12155.00
1414.271, 12140.00
1415.326, 12165.00
1416.382, 12109.00
1417.437, 12345.00
1418.492, 12159.00
1419.546, 12330.00
1420.601, 12206.00
1421.656, 12287.00
1422.710, 12385.00
1423.764, 12314.00
1424.819, 12253.00
1425.873, 12371.00
1426.926, 12481.00
1427.980, 12491.00
1429.034, 12541.00
1430.087, 12545.00
1431.140, 12567.00
1432.194, 12432.00
1433.247, 12610.00
1434.299, 12601.00
1435.352, 12438.00
1436.405, 12953.00
1437.457, 12648.00
1438.510, 12494.00
1439.562, 12700.00
1440.614, 12612.00
1441.666, 12640.00
1442.717, 12669.00
1443.769, 12729.00
1444.821, 12654.00
1445.872, 12754.00
1446.923, 12867.00
1447.974, 12777.00
1449.025, 12575.00
1450.076, 12747.00
1451.127, 12858.00
1452.177, 12792.00
1453.227, 13015.00
1454.278, 12841.00
1455.328, 12834.00
1456.378, 12916.00
1457.428, 12876.00
1458.477, 12971.00
1459.527, 13065.00
1460.576, 12968.00
1461.625, 13080.00
1462.675, 13009.00
1463.724, 12946.00
1464.772, 12888.00
1465.821, 13037.00
1466.870, 13127.00
1467.918, 13110.00
1468.966, 13140.00
1470.015, 13146.00
1471.063, 13157.00
1472.110, 13236.00
1473.158, 13222.00
1474.206, 13264.00
1475.253, 13372.00
1476.301, 13184.00
1477.348, 13241.00
1478.395, 13301.00
1479.442, 13448.00
1480.488, 13271.00
1481.535, 13231.00
1482.582, 13542.00
1483.628, 13297.00
1484.674, 13369.00
1485.720, 13286.00
1486.766, 13445.00
1487.812, 13569.00
1488.858, 13383.00
1489.903, 13689.00
1490.949, 13469.00
1491.994, 13595.00
1493.039, 13563.00
1494.084, 13716.00
1495.129, 13492.00
1496.173, 13576.00
1497.218, 13677.00
1498.262, 13537.00
1499.307, 13664.00
1500.351, 13691.00
1501.395, 13611.00
1502.439, 13803.00
1503.483, 13800.00
1504.526, 13795.00
1505.570, 13781.00
1506.613, 13909.00
1507.656, 13882.00
1508.699, 13755.00
1509.742, 13868.00
1510.785, 13818.67
1511.827, 13884.00
1512.870, 13873.00
1513.912, 13948.00
1514.955, 14028.00
1515.997, 14081.00
1517.039, 13963.00
1518.080, 14127.00
1519.122, 14044.00
1520.164, 14108.00
1521.205, 14196.00
1522.246, 14197.00
1523.288, 14280.00
1524.329, 14297.28
1525.369, 14408.00
1526.410, 14302.00
1527.451, 14218.00
1528.491, 14133.00
1529.531, 14200.00
1530.572, 14317.00
1531.612, 14241.00
1532.652, 14249.00
1533.691, 14369.00
1534.731, 14342.00
1535.770, 14313.00
1536.810, 14363.00
1537.849, 14385.00
1538.888, 14512.00
1539.927, 14364.00
1540.966, 14370.00
1542.005, 14512.00
1543.043, 14689.00
1544.082, 14597.00
1545.120, 14510.00
1546.158, 14571.00
1547.196, 14681.00
1548.234, 14720.00
1549.272, 14631.00
1550.309, 14637.00
1551.347, 14748.00
1552.384, 14735.00
1553.421, 14817.58
1554.458, 14736.00
1555.495, 14893.00
1556.532, 14895.00
1557.568, 14797.00
1558.605, 14915.00
1559.641, 14781.00
1560.678, 14708.00
1561.714, 15013.00
1562.750, 14911.00
1563.785, 14944.00
##END=



