##NAMES=Fluorapatite
##RRUFFID=R050401
##IDEAL CHEMISTRY=Ca_5_(PO_4_)_3_F
##LOCALITY=Urbano mine, Golconda District, Minas Gerais, Brazil
##OWNER=RRUFF
##SOURCE=Bob Downs
##DESCRIPTION=Pale purple hexagonal prism associated with albite R050402
##STATUS=The identification of this mineral has been confirmed by X-ray diffraction and chemical analysis
##URL=rruff.info/R050401
##MEASURED CHEMISTRY=(Ca_0.99_Mn_0.01_)_5_(P_1.00_O_4_)_3_F_1.00_
##PIN_ID=L00654
##ORIENTATION=Laser parallel to c* (0 0 1). Fiducial mark perpendicular to laser is parallel to a [1 0 0]
136.5850, 4783.000
137.8140, 4720.000
139.0430, 4735.000
140.2710, 4862.000
141.5000, 4794.000
142.7280, 4841.000
143.9560, 4853.000
145.1840, 4890.000
146.4120, 4830.000
147.6390, 4850.000
148.8670, 4927.000
150.0940, 5011.000
151.3210, 4998.195
152.5490, 4965.000
153.7750, 4985.000
155.0020, 4992.000
156.2290, 4969.000
157.4550, 5164.000
158.6810, 5052.000
159.9080, 5051.000
161.1340, 5105.000
162.3590, 5027.000
163.5850, 5113.000
164.8110, 5104.000
166.0360, 5135.000
167.2610, 5175.000
168.4860, 5289.000
169.7110, 5164.000
170.9360, 5307.000
172.1610, 5187.000
173.3850, 5186.000
174.6100, 5287.000
175.8340, 5255.000
177.0580, 5288.000
178.2820, 5312.000
179.5050, 5328.000
180.7290, 5362.072
181.9520, 5422.000
183.1760, 5414.000
184.3990, 5428.000
185.6220, 5438.000
186.8450, 5504.000
188.0670, 5475.000
189.2900, 5551.000
190.5120, 5563.000
191.7340, 5493.000
192.9560, 5535.000
194.1780, 5541.000
195.4000, 5593.000
196.6220, 5648.000
197.8430, 5655.000
199.0640, 5738.000
200.2860, 5701.000
201.5070, 5680.000
202.7270, 5750.000
203.9480, 5701.000
205.1690, 5782.000
206.3890, 5761.000
207.6090, 5832.000
208.8290, 5866.000
210.0490, 5927.000
211.2690, 5833.000
212.4890, 5873.000
213.7080, 5852.000
214.9280, 5801.000
216.1470, 5949.000
217.3660, 5931.000
218.5850, 6002.000
219.8030, 6061.000
221.0220, 5908.000
222.2400, 6108.000
223.4590, 5931.000
224.6770, 6050.000
225.8950, 6064.000
227.1120, 6040.000
228.3300, 6073.000
229.5480, 6163.000
230.7650, 6190.000
231.9820, 6218.847
233.1990, 6129.000
234.4160, 6244.000
235.6330, 6243.000
236.8490, 6236.000
238.0660, 6359.000
239.2820, 6310.000
240.4980, 6266.000
241.7140, 6341.000
242.9300, 6291.000
244.1460, 6284.000
245.3610, 6397.000
246.5770, 6444.000
247.7920, 6387.000
249.0070, 6364.000
250.2220, 6421.000
251.4370, 6422.536
252.6510, 6441.000
253.8660, 6499.000
255.0800, 6583.000
256.2940, 6593.000
257.5080, 6557.000
258.7220, 6606.000
259.9360, 6600.000
261.1490, 6659.000
262.3630, 6604.000
263.5760, 6693.000
264.7890, 6775.000
266.0020, 6724.000
267.2150, 6750.000
268.4270, 6770.000
269.6400, 6782.000
270.8520, 6806.292
272.0640, 6820.917
273.2760, 6859.000
274.4880, 6866.000
275.7000, 6919.000
276.9120, 6969.000
278.1230, 6999.000
279.3340, 6987.000
280.5450, 7080.000
281.7560, 7004.000
282.9670, 7009.000
284.1780, 7134.000
285.3880, 7031.000
286.5980, 7150.000
287.8090, 7210.000
289.0190, 7168.000
290.2290, 7189.000
291.4380, 7136.000
292.6480, 7236.000
293.8570, 7322.000
295.0670, 7272.000
296.2760, 7294.000
297.4850, 7344.000
298.6930, 7360.000
299.9020, 7393.000
301.1110, 7314.000
302.3190, 7427.000
303.5270, 7380.000
304.7350, 7506.000
305.9430, 7452.000
307.1510, 7463.000
308.3580, 7420.000
309.5660, 7576.000
310.7730, 7543.000
311.9800, 7580.000
313.1870, 7740.000
314.3940, 7598.000
315.6010, 7713.000
316.8070, 7717.000
318.0130, 7640.000
319.2200, 7732.000
320.4260, 7811.000
321.6310, 7786.895
322.8370, 7792.000
324.0430, 7830.000
325.2480, 7803.000
326.4540, 7859.000
327.6590, 7782.000
328.8640, 7947.000
330.0680, 7898.000
331.2730, 7856.000
332.4780, 7984.000
333.6820, 8005.000
334.8860, 7994.000
336.0900, 8067.000
337.2940, 7893.000
338.4980, 8113.000
339.7010, 8143.000
340.9050, 8074.000
342.1080, 8225.000
343.3110, 8107.000
344.5140, 8266.000
345.7170, 8305.000
346.9200, 8184.000
348.1220, 8261.000
349.3240, 8247.000
350.5270, 8279.000
351.7290, 8388.000
352.9310, 8312.000
354.1320, 8386.000
355.3340, 8471.000
356.5350, 8390.000
357.7370, 8483.000
358.9380, 8615.000
360.1390, 8526.000
361.3400, 8542.000
362.5400, 8632.000
363.7410, 8576.000
364.9410, 8625.000
366.1410, 8637.000
367.3410, 8719.000
368.5410, 8743.000
369.7410, 8682.000
370.9400, 8908.000
372.1400, 8699.000
373.3390, 8748.000
374.5380, 8800.000
375.7370, 8925.000
376.9360, 8837.000
378.1350, 9080.000
379.3330, 8857.000
380.5310, 8935.000
381.7300, 8969.000
382.9280, 9043.000
384.1260, 9038.000
385.3230, 9060.000
386.5210, 9137.000
387.7180, 9128.000
388.9160, 9281.000
390.1130, 9115.000
391.3100, 9239.000
392.5060, 9139.000
393.7030, 9255.000
394.9000, 9405.000
396.0960, 9211.000
397.2920, 9411.000
398.4880, 9362.000
399.6840, 9475.000
400.8800, 9452.000
402.0750, 9509.000
403.2710, 9397.000
404.4660, 9663.000
405.6610, 9539.000
406.8560, 9628.000
408.0510, 9707.000
409.2450, 9583.000
410.4400, 9743.000
411.6340, 9607.000
412.8280, 9715.000
414.0220, 9819.000
415.2160, 9722.000
416.4100, 9740.000
417.6030, 9837.000
418.7970, 9762.000
419.9900, 9945.000
421.1830, 9895.000
422.3760, 9904.000
423.5690, 9930.000
424.7610, 9984.000
425.9540, 9998.000
427.1460, 10067.00
428.3380, 10021.00
429.5300, 10124.00
430.7220, 10187.00
431.9140, 10129.00
433.1050, 10205.00
434.2970, 10226.00
435.4880, 10233.00
436.6790, 10322.00
437.8700, 10265.00
439.0610, 10317.00
440.2510, 10396.00
441.4420, 10412.00
442.6320, 10413.00
443.8220, 10590.00
445.0120, 10395.00
446.2020, 10629.00
447.3910, 10577.00
448.5810, 10657.00
449.7700, 10654.00
450.9600, 10588.00
452.1490, 10573.00
453.3370, 10772.00
454.5260, 10673.00
455.7150, 10825.00
456.9030, 10828.00
458.0910, 10814.00
459.2800, 10842.00
460.4670, 10875.00
461.6550, 10897.00
462.8430, 11003.00
464.0300, 11032.00
465.2180, 11106.00
466.4050, 11076.00
467.5920, 11059.00
468.7790, 11204.00
469.9650, 11318.00
471.1520, 11204.00
472.3380, 11216.00
473.5250, 11260.00
474.7110, 11322.00
475.8970, 11345.10
477.0820, 11250.00
478.2680, 11424.00
479.4540, 11384.00
480.6390, 11424.00
481.8240, 11498.00
483.0090, 11561.00
484.1940, 11584.00
485.3780, 11590.00
486.5630, 11666.00
487.7470, 11603.00
488.9320, 11686.00
490.1160, 11573.00
491.3000, 11860.00
492.4830, 11725.00
493.6670, 11634.00
494.8500, 11994.00
496.0340, 11874.00
497.2170, 11845.00
498.4000, 12088.00
499.5820, 11914.00
500.7650, 11980.00
501.9480, 12034.00
503.1300, 12086.00
504.3120, 12118.00
505.4940, 12005.00
506.6760, 11985.00
507.8580, 12105.00
509.0390, 12086.37
510.2210, 12214.00
511.4020, 12189.00
512.5830, 12343.00
513.7640, 12346.00
514.9450, 12471.00
516.1250, 12454.00
517.3060, 12593.00
518.4860, 12394.00
519.6660, 12462.00
520.8460, 12715.00
522.0260, 12548.00
523.2060, 12509.00
524.3850, 12768.00
525.5650, 12704.00
526.7440, 12686.00
527.9230, 12999.00
529.1020, 12688.00
530.2810, 12849.00
531.4590, 12968.00
532.6380, 13000.00
533.8160, 13074.00
534.9940, 13015.00
536.1720, 13039.00
537.3500, 13128.00
538.5270, 13040.00
539.7050, 13070.00
540.8820, 13214.00
542.0590, 13278.00
543.2360, 13366.00
544.4130, 13303.00
545.5900, 13261.00
546.7660, 13350.00
547.9430, 13443.00
549.1190, 13448.00
550.2950, 13500.00
551.4710, 13340.00
552.6470, 13632.00
553.8220, 13685.00
554.9980, 13497.00
556.1730, 13726.00
557.3480, 13719.00
558.5230, 13760.00
559.6980, 13794.00
560.8730, 13724.00
562.0470, 13806.00
563.2220, 13805.00
564.3960, 13988.00
565.5700, 13904.00
566.7440, 14007.00
567.9170, 14007.00
569.0910, 13877.00
570.2640, 14076.00
571.4380, 14025.00
572.6110, 14106.00
573.7840, 14178.00
574.9570, 14333.00
576.1290, 14395.00
577.3020, 14427.93
578.4740, 14307.00
579.6460, 14466.00
580.8180, 14470.00
581.9900, 14524.00
583.1620, 14695.00
584.3330, 14484.00
585.5040, 14495.00
586.6760, 14651.00
587.8470, 14665.00
589.0180, 14733.00
590.1880, 14783.00
591.3590, 14700.00
592.5290, 14868.00
593.7000, 14782.00
594.8700, 14883.00
596.0400, 15085.00
597.2090, 14913.00
598.3790, 15052.00
599.5490, 15037.00
600.7180, 14848.00
601.8870, 15145.00
603.0560, 15195.00
604.2250, 15321.00
605.3940, 15425.00
606.5620, 15570.00
607.7300, 15282.00
608.8990, 15456.00
610.0670, 15256.00
611.2350, 15437.00
612.4020, 15547.00
613.5700, 15463.00
614.7370, 15515.00
615.9050, 15575.00
617.0720, 15675.00
618.2390, 15640.00
619.4060, 15809.00
620.5720, 15805.00
621.7390, 15858.00
622.9050, 15850.00
624.0710, 15791.00
625.2370, 16002.00
626.4030, 15918.00
627.5690, 16157.00
628.7340, 16168.00
629.9000, 15884.00
631.0650, 16113.00
632.2300, 16210.00
633.3950, 16199.00
634.5600, 16291.00
635.7240, 16409.00
636.8890, 16290.00
638.0530, 16491.00
639.2170, 16359.00
640.3810, 16567.00
641.5450, 16548.00
642.7080, 16613.00
643.8720, 16682.00
645.0350, 16750.00
646.1980, 16792.85
647.3610, 16729.00
648.5240, 16957.00
649.6870, 16748.00
650.8490, 16987.00
652.0120, 16963.00
653.1740, 16996.00
654.3360, 16985.00
655.4980, 17031.00
656.6600, 17052.00
657.8210, 17193.00
658.9830, 17107.00
660.1440, 17025.00
661.3050, 17327.00
662.4660, 17277.00
663.6270, 17361.00
664.7870, 17497.00
665.9480, 17374.00
667.1080, 17627.00
668.2680, 17560.00
669.4280, 17441.00
670.5880, 17655.00
671.7480, 17623.00
672.9070, 17475.00
674.0670, 17901.00
675.2260, 17741.00
676.3850, 17718.00
677.5440, 17923.00
678.7030, 17775.00
679.8610, 18078.00
681.0200, 18018.00
682.1780, 18063.00
683.3360, 18323.00
684.4940, 18268.00
685.6520, 18138.00
686.8090, 18255.00
687.9670, 18295.00
689.1240, 18368.00
690.2810, 18388.00
691.4380, 18314.00
692.5950, 18356.00
693.7520, 18552.00
694.9080, 18426.00
696.0650, 18587.00
697.2210, 18887.00
698.3770, 18772.00
699.5330, 18740.00
700.6880, 18922.00
701.8440, 18806.00
702.9990, 18814.00
704.1550, 18988.00
705.3100, 18917.00
706.4650, 19188.00
707.6190, 19115.00
708.7740, 19062.00
709.9290, 19146.00
711.0830, 19112.00
712.2370, 19254.00
713.3910, 19419.00
714.5450, 19354.00
715.6980, 19262.00
716.8520, 19453.00
718.0050, 19315.00
719.1580, 19610.00
720.3110, 19721.00
721.4640, 19546.00
722.6170, 19782.00
723.7700, 19572.00
724.9220, 19584.00
726.0740, 19795.00
727.2260, 19942.00
728.3780, 19894.00
729.5300, 19988.00
730.6810, 19944.00
731.8330, 20045.00
732.9840, 20251.00
734.1350, 20070.00
735.2860, 20310.00
736.4370, 20324.00
737.5880, 20233.00
738.7380, 20267.00
739.8880, 20283.00
741.0390, 20347.00
742.1890, 20446.00
743.3380, 20611.00
744.4880, 20468.00
745.6380, 20804.00
746.7870, 20731.00
747.9360, 20818.00
749.0850, 20697.00
750.2340, 20877.00
751.3830, 20884.00
752.5310, 21002.00
753.6800, 21065.00
754.8280, 21116.03
755.9760, 21117.00
757.1240, 21228.00
758.2720, 21297.00
759.4190, 21340.00
760.5670, 21012.00
761.7140, 21469.00
762.8610, 21394.00
764.0080, 21191.00
765.1550, 21490.00
766.3020, 21562.00
767.4480, 21593.00
768.5950, 21630.00
769.7410, 21575.00
770.8870, 21820.00
772.0330, 21856.00
773.1780, 21535.00
774.3240, 21963.00
775.4690, 22038.00
776.6140, 21738.00
777.7590, 21936.00
778.9040, 22133.00
780.0490, 22051.00
781.1940, 22070.00
782.3380, 22273.00
783.4820, 22187.00
784.6260, 22451.00
785.7700, 22195.00
786.9140, 22129.00
788.0580, 22628.00
789.2010, 22537.00
790.3450, 22472.00
791.4880, 22723.00
792.6310, 22511.00
793.7730, 22486.00
794.9160, 22812.00
796.0590, 22706.00
797.2010, 22757.00
798.3430, 22970.00
799.4850, 22942.00
800.6270, 23023.00
801.7690, 23117.00
802.9100, 23080.00
804.0520, 23332.00
805.1930, 23218.00
806.3340, 23358.00
807.4750, 23487.00
808.6160, 23431.00
809.7560, 23609.00
810.8970, 23439.00
812.0370, 23467.00
813.1770, 23495.00
814.3170, 23499.12
815.4570, 23563.00
816.5960, 23640.00
817.7360, 23865.00
818.8750, 23963.00
820.0140, 23897.00
821.1530, 23984.00
822.2920, 23831.00
823.4310, 24009.00
824.5690, 24208.00
825.7070, 24040.00
826.8460, 24425.00
827.9840, 24381.00
829.1220, 24148.00
830.2590, 24521.00
831.3970, 24625.00
832.5340, 24497.00
833.6710, 24378.00
834.8080, 24863.00
835.9450, 24549.00
837.0820, 24575.00
838.2190, 24901.00
839.3550, 24867.00
840.4910, 25027.00
841.6270, 24845.00
842.7630, 24938.00
843.8990, 25205.00
845.0350, 25154.00
846.1700, 25243.00
847.3060, 25434.00
848.4410, 25157.00
849.5760, 25336.00
850.7100, 25433.00
851.8450, 25309.00
852.9800, 25833.00
854.1140, 25433.00
855.2480, 25478.00
856.3820, 25945.00
857.5160, 25709.00
858.6500, 25839.00
859.7830, 25864.00
860.9170, 25963.00
862.0500, 25895.00
863.1830, 25992.00
864.3160, 26024.00
865.4480, 26076.00
866.5810, 26512.00
867.7130, 26082.00
868.8460, 26432.00
869.9780, 26263.00
871.1100, 26337.00
872.2410, 26589.00
873.3730, 26490.00
874.5050, 26741.00
875.6360, 26777.00
876.7670, 26962.00
877.8980, 26449.00
879.0290, 26872.00
880.1590, 27086.00
881.2900, 26732.00
882.4200, 27060.00
883.5500, 26871.00
884.6800, 26945.00
885.8100, 27498.00
886.9400, 27060.00
888.0690, 27128.00
889.1990, 27303.00
890.3280, 27318.00
891.4570, 27325.00
892.5860, 27270.00
893.7140, 27357.00
894.8430, 27521.00
895.9710, 27826.00
897.1000, 27515.00
898.2280, 27767.00
899.3560, 27915.00
900.4830, 27759.00
901.6110, 28039.00
902.7380, 28011.00
903.8660, 27963.00
904.9930, 28117.00
906.1200, 28463.00
907.2460, 28031.00
908.3730, 28395.00
909.5000, 28280.00
910.6260, 28242.00
911.7520, 28582.00
912.8780, 28465.00
914.0040, 28537.00
915.1290, 28560.00
916.2550, 28727.00
917.3800, 28585.00
918.5050, 28805.00
919.6300, 28715.00
920.7550, 28838.00
921.8800, 29220.00
923.0040, 28933.00
924.1290, 29248.00
925.2530, 29000.00
926.3770, 29237.00
927.5010, 29112.00
928.6250, 29467.00
929.7480, 29028.00
930.8720, 29341.00
931.9950, 29684.00
933.1180, 29303.00
934.2410, 29668.00
935.3640, 29916.00
936.4860, 29398.00
937.6090, 30093.00
938.7310, 29535.00
939.8530, 29834.00
940.9750, 30333.00
942.0970, 29953.00
943.2180, 29869.00
944.3400, 30055.00
945.4610, 30375.00
946.5820, 30188.00
947.7030, 30759.00
948.8240, 30351.00
949.9450, 30403.00
951.0650, 30705.00
952.1860, 30546.00
953.3060, 30572.00
954.4260, 30827.00
955.5460, 30575.00
956.6650, 30724.00
957.7850, 31202.00
958.9040, 31049.00
960.0230, 31026.00
961.1420, 31476.00
962.2610, 31289.00
963.3800, 31992.00
964.4990, 32459.00
965.6170, 32552.00
966.7350, 32697.00
967.8530, 32114.00
968.9710, 31856.00
970.0890, 31550.00
971.2070, 31881.00
972.3240, 31531.00
973.4410, 31848.00
974.5580, 31977.00
975.6750, 31657.00
976.7920, 32078.00
977.9090, 32001.00
979.0250, 31990.00
980.1410, 32167.00
981.2580, 32234.00
982.3740, 32226.00
983.4890, 32309.00
984.6050, 32485.00
985.7200, 32071.00
986.8360, 32530.00
987.9510, 32539.00
989.0660, 32375.00
990.1810, 33002.00
991.2950, 32473.00
992.4100, 32676.00
993.5240, 32857.00
994.6390, 32804.00
995.7530, 32941.00
996.8660, 33044.00
997.9800, 32874.00
999.0940, 32823.00
1000.207, 33005.64
1001.320, 33041.00
1002.433, 33269.00
1003.546, 33291.00
1004.659, 33201.00
1005.772, 33568.00
1006.884, 33627.00
1007.996, 33611.00
1009.108, 33618.00
1010.220, 33374.00
1011.332, 33489.00
1012.444, 33738.00
1013.555, 34327.00
1014.666, 33776.00
1015.777, 34055.00
1016.888, 34182.00
1017.999, 33914.00
1019.110, 34473.00
1020.220, 34210.00
1021.331, 34556.00
1022.441, 34320.00
1023.551, 34496.00
1024.661, 34445.00
1025.770, 34786.00
1026.880, 34672.00
1027.989, 34473.00
1029.098, 34973.00
1030.207, 34791.00
1031.316, 34546.00
1032.425, 35092.00
1033.533, 34609.00
1034.642, 34807.00
1035.750, 35118.00
1036.858, 35215.00
1037.966, 35039.00
1039.073, 35389.00
1040.181, 35386.00
1041.288, 35212.00
1042.396, 35692.00
1043.503, 35360.00
1044.610, 35525.00
1045.716, 35760.00
1046.823, 35685.00
1047.929, 36196.00
1049.036, 35805.00
1050.142, 35930.00
1051.248, 35664.00
1052.353, 36071.00
1053.459, 36040.00
1054.564, 36130.00
1055.670, 36366.00
1056.775, 36186.00
1057.880, 36495.00
1058.985, 36706.00
1060.089, 36343.00
1061.194, 36806.00
1062.298, 36716.00
1063.402, 36674.00
1064.506, 36685.00
1065.610, 36877.00
1066.713, 36851.00
1067.817, 36864.00
1068.920, 37254.00
1070.023, 36771.00
1071.126, 37279.00
1072.229, 37183.00
1073.332, 37085.00
1074.435, 37392.00
1075.537, 37336.00
1076.639, 37365.00
1077.741, 37765.00
1078.843, 37648.00
1079.945, 37424.00
1081.046, 37615.00
1082.148, 37811.00
1083.249, 37569.00
1084.350, 38233.00
1085.451, 38104.00
1086.551, 38000.00
1087.652, 38316.00
1088.752, 38050.00
1089.853, 38115.00
1090.953, 38302.00
1092.053, 38627.00
1093.152, 38392.00
1094.252, 38524.00
1095.351, 38662.00
1096.451, 38368.00
1097.550, 38943.00
1098.649, 38243.00
1099.748, 38719.00
1100.846, 38736.00
1101.945, 38814.00
1103.043, 38834.00
1104.141, 38962.00
1105.239, 39200.00
1106.337, 38703.00
1107.434, 39229.00
1108.532, 39164.00
1109.629, 38994.00
1110.726, 39608.00
1111.823, 38828.00
1112.920, 39213.00
1114.017, 39643.00
1115.113, 39408.00
1116.210, 39427.00
1117.306, 39617.00
1118.402, 39670.00
1119.498, 39902.00
1120.593, 39986.00
1121.689, 39976.00
1122.784, 39655.00
1123.879, 40205.00
1124.974, 40050.00
1126.069, 40212.00
1127.164, 40502.00
1128.259, 40092.00
1129.353, 40483.00
1130.447, 40238.00
1131.541, 40437.00
1132.635, 40376.00
1133.729, 40484.00
1134.822, 40718.00
1135.916, 40552.00
1137.009, 41129.00
1138.102, 40840.00
1139.195, 41005.00
1140.288, 41283.00
1141.380, 40819.00
1142.473, 41194.00
1143.565, 41266.00
1144.657, 41308.00
1145.749, 41374.00
1146.841, 41479.00
1147.932, 41561.00
1149.024, 41400.00
1150.115, 42067.00
1151.206, 41378.00
1152.297, 41896.00
1153.388, 42010.00
1154.479, 41739.00
1155.569, 42284.00
1156.659, 42060.00
1157.750, 42080.00
1158.839, 42232.00
1159.929, 42479.00
1161.019, 42075.00
1162.108, 42217.00
1163.198, 42791.00
1164.287, 41802.00
1165.376, 42507.00
1166.465, 42642.00
1167.553, 42179.00
1168.642, 42868.00
1169.730, 43010.00
1170.818, 42576.00
1171.906, 43029.00
1172.994, 43050.00
1174.082, 42914.00
1175.170, 42897.00
1176.257, 43463.00
1177.344, 42991.00
1178.431, 42965.00
1179.518, 43527.00
1180.605, 43127.00
1181.691, 43475.00
1182.778, 43488.00
1183.864, 43253.00
1184.950, 43561.00
1186.036, 43699.00
1187.122, 43368.00
1188.207, 43430.00
1189.292, 43881.00
1190.378, 43377.00
1191.463, 43985.00
1192.548, 44295.00
1193.632, 43846.00
1194.717, 44451.00
1195.801, 44309.00
1196.886, 44019.00
1197.970, 44429.00
1199.054, 44331.00
1200.137, 43950.00
1201.221, 44284.00
1202.305, 44942.00
1203.388, 44506.00
1204.471, 44816.00
1205.554, 45039.00
1206.637, 44557.00
1207.719, 44696.00
1208.802, 45030.00
1209.884, 44769.00
1210.966, 44992.00
1212.048, 44844.00
1213.130, 45284.00
1214.212, 44935.00
1215.293, 45765.00
1216.374, 45253.00
1217.456, 45144.00
1218.536, 45664.00
1219.617, 44924.00
1220.698, 45302.00
1221.778, 45529.00
1222.859, 45583.00
1223.939, 45825.00
1225.019, 45862.00
1226.099, 45912.00
1227.178, 45718.00
1228.258, 45996.00
1229.337, 45926.00
1230.417, 46090.00
1231.496, 46339.00
1232.574, 46060.00
1233.653, 46179.00
1234.732, 46524.00
1235.810, 46200.00
1236.888, 46592.00
1237.966, 46656.00
1239.044, 46327.00
1240.122, 46422.00
1241.199, 46887.00
1242.277, 46299.00
1243.354, 46776.00
1244.431, 47059.00
1245.508, 46844.00
1246.585, 46941.00
1247.661, 47183.00
1248.738, 46991.00
1249.814, 47445.00
1250.890, 47236.00
1251.966, 47224.00
1253.042, 47160.00
1254.117, 47440.00
1255.193, 47617.00
1256.268, 47416.00
1257.343, 47852.00
1258.418, 47813.77
1259.493, 47510.00
1260.567, 48049.00
1261.642, 47799.00
1262.716, 47997.00
1263.790, 48351.00
1264.864, 47645.27
1265.938, 48134.86
1267.011, 48433.49
1268.085, 48551.52
1269.158, 47947.78
1270.231, 48276.00
1271.304, 48230.72
1272.377, 48170.14
1273.450, 48629.52
1274.522, 48130.71
1275.594, 48581.79
1276.666, 48653.70
1277.738, 48899.14
1278.810, 48768.80
1279.882, 48754.52
1280.953, 49116.10
1282.025, 49269.59
1283.096, 49095.93
1284.167, 49352.36
1285.238, 48840.38
1286.308, 49002.63
1287.379, 49455.86
1288.449, 49301.05
1289.519, 49564.30
1290.589, 49668.33
1291.659, 49048.78
1292.729, 49687.60
1293.798, 49782.17
1294.868, 49318.01
1295.937, 49913.67
1297.006, 49526.49
1298.075, 49490.12
1299.143, 49717.71
1300.212, 49670.14
1301.280, 50056.43
1302.348, 50024.70
1303.416, 49955.61
1304.484, 50049.52
1305.552, 49681.57
1306.620, 50170.46
1307.687, 50074.01
1308.754, 50483.00
1309.821, 50637.00
1310.888, 50450.00
1311.955, 50453.00
1313.021, 50874.00
1314.088, 50145.00
1315.154, 50920.00
1316.220, 50923.00
1317.286, 50639.00
1318.352, 50737.00
1319.417, 51042.00
1320.483, 50805.00
1321.548, 50805.00
1322.613, 51401.00
1323.678, 51033.00
1324.743, 51249.00
1325.807, 51788.00
1326.872, 51201.00
1327.936, 51739.00
1329.000, 51839.00
1330.064, 51381.00
1331.128, 51778.00
1332.191, 51755.00
1333.255, 51619.00
1334.318, 51371.00
1335.381, 51900.00
1336.444, 52021.00
1337.507, 51706.00
1338.569, 52411.00
1339.632, 52289.00
1340.694, 51787.00
1341.756, 52516.00
1342.818, 51878.00
1343.880, 52480.00
1344.941, 52261.00
1346.003, 52113.00
1347.064, 51933.00
1348.125, 51986.80
1349.186, 52761.00
1350.247, 52189.00
1351.308, 52795.00
1352.368, 52982.00
1353.428, 52407.00
1354.489, 53169.00
1355.549, 53106.00
1356.608, 52729.00
1357.668, 53365.00
1358.727, 52656.00
1359.787, 52824.00
1360.846, 53094.00
1361.905, 53426.00
1362.964, 52847.00
1364.022, 52993.00
1365.081, 53467.00
1366.139, 53085.00
1367.197, 53380.00
1368.255, 53375.00
1369.313, 53021.00
1370.371, 53575.00
1371.428, 53429.00
1372.486, 53725.00
1373.543, 53564.00
1374.600, 53967.00
1375.657, 53682.00
1376.713, 53664.00
1377.770, 54366.00
1378.826, 53763.00
1379.882, 53781.00
1380.938, 54457.00
1381.994, 53649.00
1383.050, 54094.00
1384.106, 54481.00
1385.161, 54037.00
1386.216, 54151.00
1387.271, 54433.00
1388.326, 54237.00
1389.381, 54200.00
1390.435, 54730.00
1391.490, 54735.00
1392.544, 54385.00
1393.598, 55071.00
1394.652, 54640.00
1395.705, 54502.00
1396.759, 55161.00
1397.812, 54733.00
1398.866, 54853.00
1399.919, 54843.00
1400.972, 55018.00
1402.024, 55136.00
1403.077, 54738.00
1404.129, 55664.00
1405.181, 54899.00
1406.233, 55547.00
1407.285, 55581.00
1408.337, 54849.00
1409.389, 55762.00
1410.440, 55369.00
1411.491, 55173.00
1412.542, 55871.00
1413.593, 55806.00
1414.644, 55680.00
1415.695, 55575.00
1416.745, 56118.00
1417.795, 55720.00
1418.845, 55482.00
1419.895, 56492.00
1420.945, 55591.00
1421.995, 55995.00
1423.044, 56296.00
1424.093, 55973.00
1425.142, 56190.00
1426.191, 56173.00
1427.240, 56268.00
1428.289, 56442.00
1429.337, 56430.00
1430.385, 56408.00
1431.433, 56349.00
1432.481, 56690.00
1433.529, 56505.00
1434.577, 56343.00
1435.624, 56951.00
1436.672, 56573.00
1437.719, 56596.00
1438.766, 57012.00
1439.812, 56791.00
1440.859, 57191.00
1441.905, 56873.00
1442.952, 57423.00
1443.998, 56916.00
1445.044, 57147.00
1446.090, 57244.00
1447.135, 56529.00
1448.181, 57332.00
1449.226, 57781.00
1450.271, 57214.00
1451.316, 57530.00
1452.361, 57246.00
1453.405, 57509.00
1454.450, 57284.00
1455.494, 57750.00
1456.538, 57400.00
1457.582, 57500.00
1458.626, 57900.00
1459.670, 57586.00
1460.713, 57314.00
1461.757, 58340.00
1462.800, 57853.00
1463.843, 57886.00
1464.886, 58073.00
1465.928, 57990.00
1466.971, 57882.00
1468.013, 57987.00
1469.055, 58481.00
1470.097, 58096.00
1471.139, 58199.00
1472.181, 58746.00
1473.222, 57840.00
1474.263, 58456.00
1475.305, 58761.00
1476.346, 58101.00
1477.386, 58702.00
1478.427, 58491.00
1479.468, 58317.00
1480.508, 58831.00
1481.548, 58900.00
1482.588, 58885.00
1483.628, 58818.00
1484.668, 59423.00
1485.707, 59319.00
1486.747, 59018.00
1487.786, 59491.00
1488.825, 59369.00
1489.864, 59017.00
1490.902, 59650.00
1491.941, 59457.00
1492.979, 59568.00
1494.017, 59434.00
1495.055, 59868.00
1496.093, 59270.00
1497.131, 59959.00
1498.168, 60246.00
1499.206, 59171.00
1500.243, 59974.00
1501.280, 60300.00
1502.317, 59554.00
1503.354, 59987.00
1504.390, 60167.00
1505.426, 60062.00
1506.463, 60467.00
1507.499, 60134.00
1508.535, 60488.00
1509.570, 60211.00
1510.606, 60421.00
1511.641, 60225.00
1512.676, 60015.00
1513.711, 60902.00
1514.746, 60048.00
1515.781, 60268.00
1516.816, 60999.00
1517.850, 60450.00
1518.884, 60602.00
1519.918, 60609.00
1520.952, 61018.00
1521.986, 60803.00
1523.019, 60911.00
1524.053, 61532.00
1525.086, 60589.00
1526.119, 60940.00
1527.152, 61431.00
1528.185, 60416.00
1529.217, 61278.00
1530.250, 61328.00
1531.282, 60983.00
1532.314, 61680.00
1533.346, 61262.00
1534.377, 61452.00
1535.409, 61190.00
1536.440, 61353.00
1537.472, 61406.00
1538.503, 61096.00
1539.534, 61624.00
1540.564, 61502.00
1541.595, 61598.00
1542.625, 61883.00
1543.656, 61298.00
1544.686, 61613.00
1545.716, 62027.00
1546.745, 61686.00
1547.775, 61495.00
1548.804, 61625.00
1549.834, 61895.00
1550.863, 62076.00
1551.892, 61939.00
1552.920, 62305.00
1553.949, 61630.00
1554.977, 61864.00
1556.006, 62017.00
1557.034, 61947.00
1558.062, 62051.00
1559.089, 62029.73
1560.117, 62078.00
1561.144, 61998.00
1562.172, 62289.00
1563.199, 62339.00
1564.226, 61847.00
1565.252, 62493.00
1566.279, 62538.00
1567.305, 62282.00
1568.332, 62689.00
1569.358, 62592.00
1570.384, 62344.00
1571.409, 63261.00
##END=



