##NAMES=Fluorapophyllite-(K)
##RRUFFID=R040095
##IDEAL CHEMISTRY=KCa_4_Si_8_O_20_F&#183;8H_2_O
##LOCALITY=unknown
##OWNER=RRUFF
##SOURCE=University of Arizona Mineral Museum
##DESCRIPTION=Colorless crystals
##STATUS=The identification of this mineral has been confirmed by X-ray diffraction and chemical analysis
##URL=rruff.info/R040095
##MEASURED CHEMISTRY=(K_0.90_Na_0.04_)Ca_3.96_Si_8.00_O_20_(F_0.82_(OH)_0.18_)Â·8H_2_O
##PIN_ID=L00946
##ORIENTATION=Laser parallel to c* (0 0 1). Fiducial mark perpendicular to laser is parallel to a [1 0 0]
81.94900, 19090.00
83.19000, 21000.00
84.43100, 23400.00
85.67200, 26083.00
86.91300, 29043.00
88.15400, 32082.00
89.39400, 35291.00
90.63400, 37750.00
91.87400, 38799.00
93.11400, 37293.00
94.35400, 34277.00
95.59300, 31019.00
96.83200, 27407.00
98.07200, 25060.00
99.31000, 24110.00
100.5490, 24428.00
101.7880, 25686.00
103.0260, 27970.00
104.2640, 32131.00
105.5020, 36910.00
106.7400, 40712.00
107.9780, 41322.00
109.2150, 38871.00
110.4520, 34119.00
111.6890, 28424.00
112.9260, 24200.00
114.1630, 21561.00
115.3990, 20143.00
116.6360, 19708.00
117.8720, 20067.00
119.1080, 20522.00
120.3440, 21686.00
121.5790, 23383.00
122.8150, 24704.00
124.0500, 24222.00
125.2850, 23238.00
126.5200, 22038.00
127.7550, 20708.00
128.9890, 20207.00
130.2230, 19792.00
131.4570, 19517.00
132.6910, 18267.00
133.9250, 16537.00
135.1590, 14404.00
136.3920, 12275.00
137.6250, 10624.00
138.8580, 9548.000
140.0910, 8911.000
141.3240, 8473.000
142.5570, 8132.000
143.7890, 8101.000
145.0210, 8170.000
146.2530, 8537.000
147.4850, 9165.000
148.7160, 9765.000
149.9480, 10711.00
151.1790, 12085.00
152.4100, 13573.00
153.6410, 15537.86
154.8710, 17798.45
156.1020, 20380.00
157.3320, 23317.00
158.5620, 26640.00
159.7920, 30261.00
161.0220, 32826.00
162.2520, 33941.00
163.4810, 33075.00
164.7100, 29846.00
165.9390, 25979.00
167.1680, 22153.00
168.3970, 18641.00
169.6250, 16078.00
170.8540, 14133.00
172.0820, 12981.00
173.3100, 12429.00
174.5370, 12602.00
175.7650, 13275.00
176.9920, 14661.00
178.2200, 16699.00
179.4470, 19094.00
180.6740, 22210.00
181.9000, 26357.00
183.1270, 30094.00
184.3530, 34948.00
185.5790, 37116.00
186.8050, 36504.00
188.0310, 34267.00
189.2570, 30971.00
190.4820, 27651.00
191.7070, 24812.00
192.9320, 22453.00
194.1570, 21265.00
195.3820, 20661.00
196.6060, 21235.00
197.8310, 22189.00
199.0550, 23985.00
200.2790, 26335.00
201.5030, 29689.00
202.7260, 33790.00
203.9500, 38412.00
205.1730, 44147.00
206.3960, 49777.00
207.6190, 55547.00
208.8420, 60221.00
210.0640, 63092.00
211.2870, 63237.00
212.5090, 61183.00
213.7310, 57040.00
214.9530, 52229.00
216.1740, 47545.00
217.3960, 43449.00
218.6170, 40290.00
219.8380, 38006.00
221.0590, 36382.00
222.2800, 35254.00
223.5000, 34781.00
224.7210, 34923.00
225.9410, 35039.00
227.1610, 34866.00
228.3810, 34419.00
229.6000, 33469.00
230.8200, 31378.00
232.0390, 29320.00
233.2580, 26551.00
234.4770, 23585.00
235.6960, 21052.00
236.9150, 18268.00
238.1330, 16058.00
239.3510, 14382.00
240.5690, 12931.00
241.7870, 11592.00
243.0050, 10600.00
244.2220, 10049.00
245.4400, 9210.000
246.6570, 8773.000
247.8740, 8437.000
249.0910, 8285.000
250.3070, 8039.290
251.5240, 7911.000
252.7400, 7827.000
253.9560, 7898.000
255.1720, 7922.000
256.3880, 8252.000
257.6030, 8536.000
258.8190, 8855.000
260.0340, 9386.000
261.2490, 9903.000
262.4640, 10508.00
263.6780, 11448.00
264.8930, 12070.00
266.1070, 12627.00
267.3210, 12763.91
268.5350, 12854.00
269.7490, 12425.00
270.9630, 11880.00
272.1760, 11177.00
273.3890, 10472.00
274.6030, 9853.000
275.8150, 9272.000
277.0280, 9027.000
278.2410, 8976.000
279.4530, 9057.000
280.6650, 9190.000
281.8770, 9541.710
283.0890, 9865.000
284.3010, 10533.00
285.5120, 11273.00
286.7230, 11992.00
287.9350, 13239.00
289.1460, 14484.00
290.3560, 16004.00
291.5670, 17697.00
292.7770, 19601.00
293.9880, 21508.00
295.1980, 22996.00
296.4080, 24718.00
297.6170, 25201.00
298.8270, 25405.00
300.0360, 24306.00
301.2450, 22910.00
302.4540, 20967.00
303.6630, 18910.00
304.8720, 17109.00
306.0800, 15379.00
307.2890, 13932.00
308.4970, 12742.00
309.7050, 11739.00
310.9120, 11062.00
312.1200, 10359.00
313.3270, 9964.000
314.5350, 9726.000
315.7420, 9417.000
316.9490, 9420.000
318.1550, 9364.000
319.3620, 9425.000
320.5680, 9573.209
321.7740, 9731.324
322.9800, 10025.00
324.1860, 10250.00
325.3920, 10599.00
326.5970, 10943.00
327.8030, 11314.00
329.0080, 12007.00
330.2130, 12529.00
331.4180, 12979.00
332.6220, 13894.00
333.8270, 14295.00
335.0310, 14888.00
336.2350, 15224.00
337.4390, 15132.00
338.6430, 15164.00
339.8460, 14790.00
341.0500, 14010.00
342.2530, 13148.00
343.4560, 12308.00
344.6590, 11321.00
345.8610, 10380.00
347.0640, 9473.000
348.2660, 8675.000
349.4680, 8188.000
350.6700, 7645.000
351.8720, 7196.000
353.0740, 6776.000
354.2750, 6602.000
355.4770, 6332.000
356.6780, 6163.000
357.8790, 6039.000
359.0790, 5963.000
360.2800, 5918.603
361.4800, 5953.000
362.6810, 5922.000
363.8810, 5984.000
365.0810, 6005.000
366.2800, 6065.000
367.4800, 6304.000
368.6790, 6270.000
369.8780, 6455.000
371.0770, 6462.000
372.2760, 6429.000
373.4750, 6306.000
374.6730, 6111.000
375.8720, 6087.000
377.0700, 5801.000
378.2680, 5666.000
379.4660, 5343.000
380.6630, 5277.000
381.8610, 5216.000
383.0580, 5151.000
384.2550, 5140.000
385.4520, 5081.928
386.6490, 5073.000
387.8460, 5035.723
389.0420, 5068.000
390.2380, 5117.000
391.4340, 5288.000
392.6300, 5292.000
393.8260, 5415.000
395.0210, 5458.000
396.2170, 5540.000
397.4120, 5721.000
398.6070, 5837.000
399.8020, 5956.000
400.9970, 6008.719
402.1910, 6027.000
403.3860, 6072.000
404.5800, 6159.000
405.7740, 6228.000
406.9680, 6311.000
408.1610, 6278.000
409.3550, 6350.000
410.5480, 6488.000
411.7410, 6513.000
412.9340, 6769.000
414.1270, 6994.000
415.3200, 7250.000
416.5120, 7549.000
417.7040, 8071.000
418.8960, 8825.000
420.0880, 9782.000
421.2800, 11100.00
422.4720, 12548.00
423.6630, 14485.00
424.8540, 16957.00
426.0450, 19848.00
427.2360, 23596.00
428.4270, 27698.00
429.6180, 32277.00
430.8080, 36515.00
431.9980, 38583.00
433.1880, 37730.00
434.3780, 34089.00
435.5680, 29014.00
436.7570, 24215.00
437.9470, 19811.00
439.1360, 16266.00
440.3250, 13654.00
441.5140, 11988.00
442.7020, 10530.00
443.8910, 9675.000
445.0790, 8980.000
446.2670, 8632.000
447.4550, 8146.000
448.6430, 7982.000
449.8310, 7914.000
451.0180, 7780.000
452.2060, 7803.000
453.3930, 7996.000
454.5800, 8241.000
455.7660, 8376.000
456.9530, 8677.000
458.1400, 9109.000
459.3260, 9363.000
460.5120, 9635.000
461.6980, 10118.00
462.8840, 10069.00
464.0690, 10027.00
465.2550, 9822.000
466.4400, 9611.000
467.6250, 9135.000
468.8100, 8704.000
469.9950, 8373.000
471.1790, 7863.000
472.3640, 7611.000
473.5480, 7250.000
474.7320, 7194.000
475.9160, 7170.000
477.1000, 7083.000
478.2830, 7207.000
479.4670, 7357.000
480.6500, 7575.000
481.8330, 7710.000
483.0160, 8060.000
484.1980, 8069.000
485.3810, 8297.000
486.5630, 8269.000
487.7450, 8049.000
488.9270, 7738.000
490.1090, 7441.000
491.2910, 7237.000
492.4730, 7014.000
493.6540, 6856.802
494.8350, 6738.488
496.0160, 6614.000
497.1970, 6583.000
498.3780, 6495.000
499.5580, 6457.000
500.7380, 6478.000
501.9190, 6471.000
503.0990, 6476.000
504.2780, 6607.000
505.4580, 6559.000
506.6380, 6563.000
507.8170, 6650.000
508.9960, 6531.000
510.1750, 6620.000
511.3540, 6738.000
512.5320, 6726.050
513.7110, 6834.000
514.8890, 6863.000
516.0670, 6969.000
517.2450, 7098.000
518.4230, 7091.000
519.6010, 7279.000
520.7780, 7447.000
521.9560, 7625.000
523.1330, 7855.000
524.3100, 8045.000
525.4860, 8267.000
526.6630, 8605.000
527.8400, 8866.000
529.0160, 9165.000
530.1920, 9672.000
531.3680, 10039.00
532.5440, 10350.00
533.7190, 10790.00
534.8950, 11156.00
536.0700, 11285.00
537.2450, 11761.00
538.4200, 11865.00
539.5950, 11903.00
540.7690, 11819.00
541.9440, 11743.00
543.1180, 11765.00
544.2920, 11668.00
545.4660, 11475.00
546.6400, 11181.00
547.8140, 11090.00
548.9870, 10982.00
550.1600, 11047.00
551.3330, 10892.00
552.5060, 10756.00
553.6790, 10741.00
554.8520, 11009.00
556.0240, 10890.00
557.1960, 11031.00
558.3680, 11436.00
559.5400, 11502.00
560.7120, 11900.00
561.8840, 12255.00
563.0550, 12638.00
564.2260, 13023.00
565.3980, 13761.00
566.5680, 14188.00
567.7390, 14933.00
568.9100, 15823.00
570.0800, 16970.00
571.2510, 18230.45
572.4210, 19813.00
573.5910, 21270.00
574.7600, 23073.00
575.9300, 24918.00
577.0990, 27296.00
578.2690, 29223.00
579.4380, 31297.00
580.6070, 33570.00
581.7750, 35193.00
582.9440, 36390.00
584.1120, 36631.00
585.2810, 36513.00
586.4490, 35365.00
587.6170, 33862.00
588.7840, 31338.00
589.9520, 29276.00
591.1190, 26440.00
592.2870, 24303.00
593.4540, 22084.00
594.6210, 20045.00
595.7880, 18685.00
596.9540, 17289.00
598.1210, 15808.00
599.2870, 14704.00
600.4530, 13838.00
601.6190, 13047.00
602.7850, 12617.00
603.9500, 11959.00
605.1160, 11455.00
606.2810, 11215.00
607.4460, 10908.00
608.6110, 10735.00
609.7760, 10443.00
610.9410, 10322.00
612.1050, 10312.00
613.2690, 10157.00
614.4330, 10186.00
615.5970, 10072.00
616.7610, 10232.00
617.9250, 10282.00
619.0880, 10224.00
620.2520, 10334.00
621.4150, 10523.00
622.5780, 10540.00
623.7400, 10794.00
624.9030, 10693.00
626.0660, 10961.00
627.2280, 10913.00
628.3900, 10967.00
629.5520, 11059.00
630.7140, 11122.32
631.8750, 11272.00
633.0370, 11364.00
634.1980, 11450.00
635.3590, 11604.00
636.5200, 11831.00
637.6810, 11909.00
638.8420, 12257.00
640.0020, 12665.00
641.1630, 12890.00
642.3230, 13183.00
643.4830, 13568.00
644.6430, 14170.00
645.8020, 14620.00
646.9620, 15371.00
648.1210, 15962.00
649.2810, 16735.00
650.4400, 17594.00
651.5980, 18433.00
652.7570, 19397.00
653.9160, 20262.00
655.0740, 21616.00
656.2320, 22430.00
657.3900, 23217.00
658.5480, 24514.00
659.7060, 25259.00
660.8630, 25732.00
662.0210, 26286.00
663.1780, 26356.00
664.3350, 26241.00
665.4920, 25768.00
666.6490, 24907.00
667.8050, 24060.00
668.9620, 22960.00
670.1180, 21634.00
671.2740, 20222.00
672.4300, 18916.00
673.5860, 17639.00
674.7410, 16391.00
675.8970, 15257.00
677.0520, 14257.00
678.2070, 13325.00
679.3620, 12477.00
680.5170, 11702.00
681.6720, 11128.00
682.8260, 10580.00
683.9800, 10008.00
685.1340, 9566.000
686.2880, 9375.000
687.4420, 8961.000
688.5960, 8605.000
689.7490, 8294.000
690.9030, 8023.488
692.0560, 7809.000
693.2090, 7574.000
694.3620, 7412.000
695.5140, 7188.000
696.6670, 7080.000
697.8190, 6886.000
698.9710, 6736.000
700.1230, 6635.509
701.2750, 6609.000
702.4270, 6442.000
703.5780, 6417.000
704.7300, 6345.000
705.8810, 6264.000
707.0320, 6328.000
708.1830, 6164.000
709.3340, 6176.000
710.4840, 6013.000
711.6350, 6021.000
712.7850, 5952.000
713.9350, 6001.000
715.0850, 5890.000
716.2350, 5881.000
717.3840, 5892.000
718.5340, 5836.000
719.6830, 5813.000
720.8320, 5782.000
721.9810, 5704.000
723.1300, 5715.000
724.2780, 5784.000
725.4270, 5724.000
726.5750, 5662.000
727.7230, 5702.000
728.8710, 5548.000
730.0190, 5573.000
731.1670, 5647.000
732.3140, 5745.000
733.4610, 5629.000
734.6090, 5594.000
735.7560, 5647.000
736.9030, 5583.000
738.0490, 5512.000
739.1960, 5548.000
740.3420, 5639.000
741.4880, 5622.000
742.6340, 5580.000
743.7800, 5559.000
744.9260, 5700.000
746.0720, 5702.000
747.2170, 5813.000
748.3620, 5847.000
749.5070, 5833.000
750.6520, 5928.000
751.7970, 6093.000
752.9420, 6106.000
754.0860, 6272.000
755.2300, 6386.000
756.3740, 6645.000
757.5180, 6977.000
758.6620, 7186.000
759.8060, 7444.000
760.9490, 7823.000
762.0930, 8079.000
763.2360, 8252.000
764.3790, 8467.000
765.5220, 8575.000
766.6640, 8599.000
767.8070, 8446.000
768.9490, 8266.000
770.0910, 8037.000
771.2330, 7882.000
772.3750, 7591.000
773.5170, 7343.000
774.6590, 7252.000
775.8000, 7108.000
776.9410, 7060.000
778.0820, 6820.000
779.2230, 6988.000
780.3640, 7032.000
781.5050, 7119.000
782.6450, 7356.000
783.7850, 7752.000
784.9260, 7911.000
786.0660, 8311.000
787.2050, 8732.000
788.3450, 9089.000
789.4850, 9457.000
790.6240, 9706.000
791.7630, 9674.000
792.9020, 9425.000
794.0410, 9105.000
795.1800, 8708.000
796.3180, 8229.000
797.4570, 7901.000
798.5950, 7436.000
799.7330, 7292.000
800.8710, 7145.000
802.0090, 6905.000
803.1460, 6584.000
804.2840, 6536.000
805.4210, 6525.000
806.5580, 6435.000
807.6950, 6462.000
808.8320, 6301.000
809.9680, 6340.000
811.1050, 6359.000
812.2410, 6347.000
813.3770, 6449.000
814.5130, 6497.000
815.6490, 6459.000
816.7850, 6566.000
817.9200, 6484.000
819.0560, 6673.000
820.1910, 6645.000
821.3260, 6825.000
822.4610, 6889.000
823.5960, 6967.000
824.7300, 7132.000
825.8650, 7177.000
826.9990, 7285.000
828.1330, 7353.000
829.2670, 7391.000
830.4010, 7498.000
831.5340, 7600.000
832.6680, 7661.373
833.8010, 7700.000
834.9340, 7816.000
836.0670, 7896.000
837.2000, 7976.000
838.3330, 7871.000
839.4660, 7877.000
840.5980, 7998.000
841.7300, 7822.000
842.8620, 7834.000
843.9940, 7762.000
845.1260, 7663.000
846.2570, 7544.000
847.3890, 7483.000
848.5200, 7478.000
849.6510, 7503.000
850.7820, 7367.000
851.9130, 7391.000
853.0440, 7346.000
854.1740, 7109.000
855.3050, 7169.000
856.4350, 7096.000
857.5650, 6905.000
858.6950, 6928.000
859.8240, 6820.000
860.9540, 6799.000
862.0830, 6742.000
863.2130, 6754.000
864.3420, 6660.000
865.4710, 6567.000
866.5990, 6452.000
867.7280, 6420.000
868.8560, 6350.690
869.9850, 6294.582
871.1130, 6281.000
872.2410, 6219.000
873.3690, 6205.000
874.4960, 6202.000
875.6240, 6211.000
876.7510, 6171.000
877.8780, 6167.000
879.0060, 6135.956
880.1320, 6004.000
881.2590, 6096.000
882.3860, 5963.000
883.5120, 5990.000
884.6380, 6061.000
885.7650, 6044.000
886.8910, 6015.000
888.0160, 5955.000
889.1420, 6018.000
890.2680, 5986.000
891.3930, 6026.000
892.5180, 5905.000
893.6430, 6009.000
894.7680, 5934.000
895.8930, 5984.000
897.0170, 5968.000
898.1420, 5982.043
899.2660, 6020.000
900.3900, 6005.000
901.5140, 6052.000
902.6380, 5999.836
903.7610, 5964.000
904.8850, 5962.398
906.0080, 5893.000
907.1310, 5894.000
908.2540, 5890.000
909.3770, 5806.000
910.5000, 5816.000
911.6220, 5787.000
912.7450, 5828.000
913.8670, 5949.000
914.9890, 5784.000
916.1110, 5780.000
917.2330, 5914.000
918.3550, 5755.000
919.4760, 5855.000
920.5970, 5767.000
921.7180, 5684.000
922.8390, 5660.000
923.9600, 5728.000
925.0810, 5803.000
926.2020, 5680.000
927.3220, 5849.000
928.4420, 5746.000
929.5620, 5803.000
930.6820, 5806.000
931.8020, 5815.000
932.9220, 5758.000
934.0410, 5902.000
935.1600, 5704.000
936.2790, 5775.000
937.3980, 5862.000
938.5170, 5817.000
939.6360, 5853.000
940.7550, 5857.000
941.8730, 5771.000
942.9910, 5843.749
944.1090, 5825.072
945.2270, 5886.000
946.3450, 5887.000
947.4620, 5835.000
948.5800, 5913.000
949.6970, 5932.000
950.8140, 6008.000
951.9310, 5984.000
953.0480, 6008.000
954.1650, 5998.000
955.2810, 5990.000
956.3980, 5993.000
957.5140, 6057.647
958.6300, 6133.000
959.7460, 6203.000
960.8620, 6277.000
961.9780, 6324.000
963.0930, 6424.000
964.2080, 6515.000
965.3230, 6695.000
966.4380, 6784.000
967.5530, 6904.000
968.6680, 7130.000
969.7830, 7274.000
970.8970, 7388.000
972.0110, 7106.000
973.1250, 7070.000
974.2390, 6729.000
975.3530, 6590.000
976.4670, 6439.000
977.5800, 6326.000
978.6930, 6220.000
979.8070, 6228.000
980.9200, 6359.000
982.0320, 6309.000
983.1450, 6318.000
984.2580, 6347.000
985.3700, 6412.000
986.4820, 6432.000
987.5950, 6520.000
988.7070, 6472.000
989.8180, 6548.000
990.9300, 6632.000
992.0410, 6739.000
993.1530, 6896.000
994.2640, 6988.000
995.3750, 7137.000
996.4860, 7317.000
997.5970, 7627.000
998.7070, 7800.000
999.8180, 8331.000
1000.928, 8580.000
1002.038, 8988.000
1003.148, 9343.000
1004.258, 9611.000
1005.368, 9913.000
1006.477, 10026.00
1007.586, 9893.000
1008.696, 9751.000
1009.805, 9324.000
1010.914, 8808.000
1012.022, 8530.000
1013.131, 8082.000
1014.239, 7780.000
1015.348, 7554.000
1016.456, 7330.000
1017.564, 7376.000
1018.672, 7168.000
1019.780, 7186.000
1020.887, 7008.000
1021.994, 7145.000
1023.102, 7163.000
1024.209, 7185.000
1025.316, 7256.000
1026.423, 7329.000
1027.529, 7450.000
1028.636, 7565.000
1029.742, 7802.000
1030.848, 7887.000
1031.954, 8141.000
1033.060, 8330.000
1034.166, 8423.000
1035.272, 8714.000
1036.377, 9110.000
1037.482, 9458.000
1038.587, 9901.000
1039.692, 10287.00
1040.797, 10993.00
1041.902, 11530.00
1043.006, 12136.00
1044.111, 13209.00
1045.215, 14316.00
1046.319, 15642.00
1047.423, 17431.00
1048.527, 19724.00
1049.631, 22210.00
1050.734, 25509.00
1051.837, 29896.00
1052.941, 34463.00
1054.044, 40025.00
1055.146, 46119.00
1056.249, 52592.00
1057.352, 58243.00
1058.454, 61780.00
1059.556, 62393.00
1060.659, 60306.00
1061.761, 55098.00
1062.862, 48490.00
1063.964, 41410.00
1065.066, 35379.00
1066.167, 29386.00
1067.268, 24950.00
1068.369, 21508.00
1069.470, 18438.00
1070.571, 16131.00
1071.672, 14344.00
1072.772, 12790.00
1073.873, 11691.00
1074.973, 10580.00
1076.073, 9940.000
1077.173, 9317.000
1078.272, 8897.000
1079.372, 8358.000
1080.471, 8051.000
1081.571, 7756.000
1082.670, 7533.000
1083.769, 7311.000
1084.868, 7129.870
1085.966, 6984.000
1087.065, 6856.000
1088.163, 6737.000
1089.262, 6665.000
1090.360, 6617.000
1091.458, 6534.000
1092.555, 6493.632
1093.653, 6389.000
1094.751, 6412.000
1095.848, 6352.000
1096.945, 6325.000
1098.042, 6367.000
1099.139, 6264.000
1100.236, 6316.000
1101.333, 6306.000
1102.429, 6337.000
1103.525, 6525.000
1104.621, 6460.000
1105.718, 6619.000
1106.813, 6828.000
1107.909, 7080.000
1109.005, 7258.000
1110.100, 7640.000
1111.195, 7951.000
1112.291, 8035.000
1113.386, 8292.000
1114.480, 8173.000
1115.575, 8023.000
1116.670, 7712.000
1117.764, 7314.000
1118.858, 7076.000
1119.952, 6745.000
1121.046, 6506.000
1122.140, 6242.000
1123.234, 6076.423
1124.327, 5987.000
1125.421, 5846.000
1126.514, 5842.000
1127.607, 5822.000
1128.700, 5656.000
1129.792, 5784.000
1130.885, 5571.000
1131.978, 5772.000
1133.070, 5616.000
1134.162, 5595.000
1135.254, 5602.000
1136.346, 5552.000
1137.438, 5540.000
1138.529, 5552.000
1139.621, 5587.000
1140.712, 5590.000
1141.803, 5502.000
1142.894, 5535.000
1143.985, 5516.207
1145.076, 5531.400
1146.166, 5558.000
1147.257, 5521.000
1148.347, 5609.000
1149.437, 5440.000
1150.527, 5468.000
1151.617, 5430.000
1152.706, 5484.000
1153.796, 5538.000
1154.885, 5526.000
1155.975, 5491.000
1157.064, 5481.000
1158.153, 5541.000
1159.241, 5557.000
1160.330, 5559.000
1161.419, 5511.000
1162.507, 5561.000
1163.595, 5554.000
1164.683, 5527.000
1165.771, 5556.000
1166.859, 5595.000
1167.946, 5580.000
1169.034, 5583.482
1170.121, 5530.000
1171.208, 5538.000
1172.295, 5550.000
1173.382, 5508.000
1174.469, 5596.000
1175.556, 5500.000
1176.642, 5511.000
1177.728, 5576.000
1178.815, 5552.000
1179.901, 5537.000
1180.986, 5601.000
1182.072, 5576.000
1183.158, 5507.000
1184.243, 5435.000
1185.328, 5574.000
1186.414, 5476.000
1187.499, 5536.000
1188.583, 5575.000
1189.668, 5521.000
1190.753, 5454.000
1191.837, 5439.000
1192.921, 5534.000
1194.005, 5465.000
1195.089, 5572.000
1196.173, 5589.000
1197.257, 5562.000
1198.340, 5578.000
1199.424, 5577.000
1200.507, 5531.000
1201.590, 5543.037
1202.673, 5565.000
1203.756, 5551.000
1204.839, 5578.000
1205.921, 5639.000
1207.004, 5662.000
1208.086, 5523.000
1209.168, 5572.000
1210.250, 5548.000
1211.332, 5548.000
1212.413, 5558.000
1213.495, 5579.000
1214.576, 5538.000
1215.657, 5502.179
1216.738, 5594.000
1217.819, 5422.000
1218.900, 5597.000
1219.981, 5672.000
1221.061, 5545.000
1222.142, 5576.000
1223.222, 5601.000
1224.302, 5581.000
1225.382, 5566.000
1226.461, 5614.000
1227.541, 5667.000
1228.621, 5638.000
1229.700, 5586.000
1230.779, 5520.000
1231.858, 5634.000
1232.937, 5702.000
1234.016, 5491.000
1235.094, 5662.000
1236.173, 5660.000
1237.251, 5634.000
1238.329, 5589.000
1239.407, 5696.000
1240.485, 5638.000
1241.563, 5604.000
1242.641, 5655.000
1243.718, 5608.000
1244.795, 5543.000
1245.873, 5613.000
1246.950, 5587.000
1248.026, 5667.000
1249.103, 5672.603
1250.180, 5633.000
1251.256, 5689.000
1252.333, 5632.000
1253.409, 5597.000
1254.485, 5700.000
1255.561, 5597.000
1256.636, 5587.000
1257.712, 5663.000
1258.787, 5637.000
1259.863, 5646.000
1260.938, 5702.000
1262.013, 5689.000
1263.088, 5701.168
1264.162, 5629.000
1265.237, 5697.000
1266.312, 5707.000
1267.386, 5711.000
1268.460, 5584.000
1269.534, 5583.000
1270.608, 5621.000
1271.682, 5634.000
1272.755, 5620.000
1273.829, 5670.000
1274.902, 5662.000
1275.975, 5651.000
1277.048, 5614.000
1278.121, 5620.000
1279.194, 5698.000
1280.266, 5705.000
1281.339, 5629.000
1282.411, 5756.000
1283.483, 5667.000
1284.555, 5713.000
1285.627, 5624.000
1286.699, 5783.000
1287.770, 5726.000
1288.842, 5731.000
1289.913, 5691.000
1290.984, 5674.899
1292.055, 5817.000
1293.126, 5691.000
1294.197, 5727.000
1295.267, 5837.000
1296.338, 5697.000
1297.408, 5608.000
1298.478, 5760.000
1299.548, 5677.000
1300.618, 5710.000
1301.688, 5714.000
1302.758, 5735.000
1303.827, 5678.000
1304.896, 5718.000
1305.966, 5710.000
1307.035, 5742.000
1308.103, 5769.000
1309.172, 5732.000
1310.241, 5673.000
1311.309, 5700.000
1312.378, 5784.000
1313.446, 5757.000
1314.514, 5795.000
1315.582, 5773.711
1316.649, 5683.000
1317.717, 5724.000
1318.785, 5688.000
1319.852, 5700.000
1320.919, 5675.000
1321.986, 5630.000
1323.053, 5649.000
1324.120, 5659.000
1325.186, 5645.000
1326.253, 5713.000
1327.319, 5656.000
1328.385, 5607.000
1329.451, 5707.000
1330.517, 5629.000
1331.583, 5610.000
1332.649, 5771.000
1333.714, 5600.000
1334.780, 5742.000
1335.845, 5726.000
1336.910, 5699.000
1337.975, 5693.000
1339.040, 5712.366
1340.104, 5715.000
1341.169, 5754.000
1342.233, 5756.000
1343.297, 5738.000
1344.361, 5688.000
1345.425, 5711.000
1346.489, 5693.453
1347.553, 5697.000
1348.616, 5692.000
1349.680, 5734.000
1350.743, 5721.000
1351.806, 5730.000
1352.869, 5768.000
1353.932, 5689.000
1354.994, 5755.000
1356.057, 5717.000
1357.119, 5696.000
1358.182, 5779.000
1359.244, 5756.000
1360.306, 5800.000
1361.367, 5803.000
1362.429, 5738.000
1363.491, 5770.000
1364.552, 5775.000
1365.613, 5875.000
1366.675, 5848.087
1367.736, 5851.915
1368.796, 5832.000
1369.857, 5803.000
1370.918, 5779.000
1371.978, 5751.000
1373.038, 5706.000
1374.099, 5731.722
1375.159, 5770.000
1376.218, 5786.000
1377.278, 5743.000
1378.338, 5774.000
1379.397, 5779.000
1380.457, 5801.339
1381.516, 5800.000
1382.575, 5840.000
1383.634, 5797.000
1384.692, 5737.000
1385.751, 5774.015
1386.809, 5764.876
1387.868, 5814.000
1388.926, 5790.000
1389.984, 5836.000
1391.042, 5786.000
1392.100, 5823.000
1393.157, 5770.000
1394.215, 5766.000
1395.272, 5874.000
1396.330, 5931.000
1397.387, 5844.000
1398.444, 5817.000
1399.500, 5882.000
1400.557, 5831.000
1401.614, 5829.000
1402.670, 5798.000
1403.726, 5821.000
1404.782, 5872.000
1405.838, 5839.000
1406.894, 5819.000
1407.950, 5920.000
1409.005, 5791.000
1410.061, 5789.000
1411.116, 5909.000
1412.171, 5877.000
1413.226, 5786.000
1414.281, 5891.000
1415.336, 5949.000
1416.390, 5852.000
1417.445, 5944.000
1418.499, 5775.000
1419.553, 5859.000
1420.607, 5864.000
1421.661, 5884.000
1422.715, 5911.000
1423.769, 5971.000
1424.822, 6016.000
1425.875, 6026.000
1426.929, 5968.000
1427.982, 5927.000
1429.035, 6009.000
1430.087, 5880.000
1431.140, 6027.000
1432.193, 5976.000
1433.245, 6025.000
1434.297, 6063.000
1435.349, 6028.000
1436.401, 6096.000
1437.453, 6047.000
1438.505, 6050.000
1439.556, 6080.000
1440.608, 6102.000
1441.659, 6064.000
1442.710, 6155.000
1443.761, 6086.000
1444.812, 6084.000
1445.863, 6006.000
1446.913, 6016.931
1447.964, 6041.725
1449.014, 6056.000
1450.064, 6132.000
1451.114, 6212.000
1452.164, 6259.000
1453.214, 6276.000
1454.264, 6311.908
1455.313, 6316.344
1456.362, 6314.000
1457.412, 6298.000
1458.461, 6248.000
1459.510, 6196.000
1460.558, 6251.000
1461.607, 6233.000
1462.656, 6326.000
1463.704, 6257.000
1464.752, 6291.000
1465.800, 6334.000
1466.848, 6338.000
1467.896, 6291.000
1468.944, 6327.000
1469.991, 6374.000
1471.039, 6266.000
1472.086, 6324.000
1473.133, 6432.000
1474.180, 6387.000
1475.227, 6397.414
1476.274, 6388.000
1477.321, 6342.000
1478.367, 6371.000
1479.413, 6410.000
1480.460, 6386.000
1481.506, 6427.994
1482.552, 6476.000
1483.597, 6474.000
1484.643, 6513.000
1485.689, 6540.000
1486.734, 6499.000
1487.779, 6495.000
1488.824, 6578.000
1489.869, 6568.000
1490.914, 6497.000
1491.959, 6538.000
1493.003, 6608.000
1494.048, 6533.000
1495.092, 6567.000
1496.136, 6516.000
1497.180, 6571.000
1498.224, 6530.000
1499.268, 6602.000
1500.312, 6711.000
1501.355, 6670.000
1502.398, 6645.000
1503.442, 6837.000
1504.485, 6792.000
1505.528, 6690.000
1506.570, 6739.000
1507.613, 6844.000
1508.656, 6848.000
1509.698, 6858.000
1510.740, 6868.000
1511.782, 6887.212
1512.824, 6849.000
1513.866, 6892.000
1514.908, 6905.000
1515.949, 6821.000
1516.991, 6891.000
1518.032, 6933.000
1519.073, 6881.000
1520.114, 6832.000
1521.155, 6869.000
1522.196, 6788.000
1523.237, 6781.000
1524.277, 6942.000
1525.318, 6811.000
1526.358, 6923.000
1527.398, 6905.000
1528.438, 6834.000
1529.478, 6782.000
1530.517, 6869.000
1531.557, 6905.000
1532.596, 6846.000
1533.636, 6859.000
1534.675, 6823.023
1535.714, 6868.000
1536.753, 6785.000
1537.791, 6822.000
1538.830, 6891.000
1539.869, 6810.000
1540.907, 6750.000
1541.945, 6723.000
1542.983, 6782.000
1544.021, 6764.000
1545.059, 6723.000
1546.097, 6662.000
1547.134, 6669.000
1548.171, 6742.000
1549.209, 6731.000
1550.246, 6711.000
1551.283, 6872.000
1552.320, 6803.000
1553.356, 6744.000
1554.393, 6840.000
1555.429, 6745.000
1556.466, 6828.000
1557.502, 6660.000
1558.538, 6746.000
1559.574, 6756.000
1560.610, 6655.000
1561.645, 6694.000
1562.681, 6681.000
1563.716, 6741.000
1564.752, 6668.000
1565.787, 6735.000
1566.822, 6685.000
1567.857, 6642.000
1568.891, 6771.000
1569.926, 6763.000
1570.960, 6663.000
1571.995, 6616.000
1573.029, 6714.000
1574.063, 6676.000
1575.097, 6665.000
1576.130, 6621.000
1577.164, 6724.000
##END=



