##NAMES=Fluorapatite
##RRUFFID=R050401
##IDEAL CHEMISTRY=Ca_5_(PO_4_)_3_F
##LOCALITY=Urbano mine, Golconda District, Minas Gerais, Brazil
##OWNER=RRUFF
##SOURCE=Bob Downs
##DESCRIPTION=Pale purple hexagonal prism associated with albite R050402
##STATUS=The identification of this mineral has been confirmed by X-ray diffraction and chemical analysis
##URL=rruff.info/R050401
##MEASURED CHEMISTRY=(Ca_0.99_Mn_0.01_)_5_(P_1.00_O_4_)_3_F_1.00_
##PIN_ID=L00654
##ORIENTATION=Laser parallel to c* (0 0 1). Fiducial mark perpendicular to laser is parallel to a [1 0 0]
136.5850, 4376.000
137.8140, 4444.000
139.0430, 4533.000
140.2710, 4588.000
141.5000, 4613.208
142.7280, 4486.000
143.9560, 4618.000
145.1840, 4592.000
146.4120, 4552.000
147.6390, 4662.000
148.8670, 4676.000
150.0940, 4621.000
151.3210, 4812.000
152.5490, 4641.000
153.7750, 4734.000
155.0020, 4724.000
156.2290, 4648.000
157.4550, 4790.000
158.6810, 4748.000
159.9080, 4828.000
161.1340, 4926.000
162.3590, 4672.000
163.5850, 4879.000
164.8110, 4832.000
166.0360, 4883.000
167.2610, 4923.000
168.4860, 4835.000
169.7110, 4842.000
170.9360, 4934.000
172.1610, 4844.000
173.3850, 4930.000
174.6100, 4965.000
175.8340, 4965.000
177.0580, 5043.000
178.2820, 4981.000
179.5050, 5104.000
180.7290, 5070.000
181.9520, 5115.000
183.1760, 5076.000
184.3990, 5097.000
185.6220, 5167.000
186.8450, 5206.000
188.0670, 5189.000
189.2900, 5301.000
190.5120, 5195.000
191.7340, 5224.000
192.9560, 5299.000
194.1780, 5349.000
195.4000, 5237.000
196.6220, 5339.000
197.8430, 5325.000
199.0640, 5308.000
200.2860, 5333.000
201.5070, 5354.000
202.7270, 5408.000
203.9480, 5363.000
205.1690, 5386.000
206.3890, 5419.000
207.6090, 5413.000
208.8290, 5504.000
210.0490, 5430.000
211.2690, 5513.000
212.4890, 5608.000
213.7080, 5602.000
214.9280, 5624.000
216.1470, 5617.000
217.3660, 5550.000
218.5850, 5689.000
219.8030, 5659.000
221.0220, 5630.000
222.2400, 5694.000
223.4590, 5705.000
224.6770, 5727.000
225.8950, 5904.000
227.1120, 5656.000
228.3300, 5676.000
229.5480, 5847.000
230.7650, 5818.000
231.9820, 5929.000
233.1990, 5880.000
234.4160, 5882.000
235.6330, 5913.000
236.8490, 5814.000
238.0660, 5893.000
239.2820, 5977.000
240.4980, 5994.000
241.7140, 5910.000
242.9300, 5907.000
244.1460, 5981.000
245.3610, 6026.000
246.5770, 6064.000
247.7920, 6107.000
249.0070, 6092.000
250.2220, 6007.000
251.4370, 6174.000
252.6510, 6091.000
253.8660, 6200.000
255.0800, 6306.000
256.2940, 6197.000
257.5080, 6302.000
258.7220, 6214.000
259.9360, 6198.000
261.1490, 6290.000
262.3630, 6273.000
263.5760, 6330.000
264.7890, 6507.000
266.0020, 6348.000
267.2150, 6440.000
268.4270, 6482.000
269.6400, 6341.000
270.8520, 6528.000
272.0640, 6517.000
273.2760, 6532.000
274.4880, 6595.000
275.7000, 6618.000
276.9120, 6582.000
278.1230, 6539.000
279.3340, 6513.000
280.5450, 6635.000
281.7560, 6565.000
282.9670, 6708.000
284.1780, 6795.000
285.3880, 6714.000
286.5980, 6708.000
287.8090, 6651.000
289.0190, 6760.000
290.2290, 6794.000
291.4380, 6756.000
292.6480, 6859.000
293.8570, 6854.000
295.0670, 6843.000
296.2760, 6985.000
297.4850, 6893.000
298.6930, 6877.000
299.9020, 6950.000
301.1110, 6942.000
302.3190, 6932.000
303.5270, 6983.000
304.7350, 7016.000
305.9430, 7125.000
307.1510, 7162.000
308.3580, 7105.000
309.5660, 7005.000
310.7730, 7083.000
311.9800, 7122.000
313.1870, 7236.000
314.3940, 7256.000
315.6010, 7235.000
316.8070, 7256.000
318.0130, 7178.000
319.2200, 7229.420
320.4260, 7246.000
321.6310, 7286.000
322.8370, 7370.000
324.0430, 7384.000
325.2480, 7390.000
326.4540, 7486.000
327.6590, 7429.000
328.8640, 7501.000
330.0680, 7460.000
331.2730, 7449.000
332.4780, 7582.000
333.6820, 7534.000
334.8860, 7646.000
336.0900, 7579.000
337.2940, 7619.000
338.4980, 7722.000
339.7010, 7658.000
340.9050, 7637.000
342.1080, 7745.000
343.3110, 7623.000
344.5140, 7745.000
345.7170, 7848.000
346.9200, 7852.000
348.1220, 7795.000
349.3240, 7836.000
350.5270, 7806.000
351.7290, 7884.000
352.9310, 8006.000
354.1320, 7904.000
355.3340, 8037.000
356.5350, 7857.000
357.7370, 8117.000
358.9380, 8054.000
360.1390, 8032.000
361.3400, 8246.000
362.5400, 8092.000
363.7410, 8134.000
364.9410, 8283.000
366.1410, 8149.000
367.3410, 8215.000
368.5410, 8182.000
369.7410, 8231.000
370.9400, 8262.000
372.1400, 8346.000
373.3390, 8235.000
374.5380, 8376.000
375.7370, 8289.000
376.9360, 8368.000
378.1350, 8497.000
379.3330, 8470.000
380.5310, 8620.000
381.7300, 8425.000
382.9280, 8592.000
384.1260, 8496.000
385.3230, 8470.000
386.5210, 8490.000
387.7180, 8641.000
388.9160, 8570.000
390.1130, 8749.000
391.3100, 8752.000
392.5060, 8663.000
393.7030, 8746.000
394.9000, 8736.000
396.0960, 8771.000
397.2920, 8986.000
398.4880, 8879.000
399.6840, 8808.000
400.8800, 8954.000
402.0750, 8882.000
403.2710, 9014.000
404.4660, 9198.000
405.6610, 8960.000
406.8560, 9103.000
408.0510, 9091.000
409.2450, 9104.000
410.4400, 9221.000
411.6340, 9110.000
412.8280, 9219.000
414.0220, 9206.000
415.2160, 9247.000
416.4100, 9253.000
417.6030, 9407.000
418.7970, 9319.000
419.9900, 9369.000
421.1830, 9262.000
422.3760, 9343.000
423.5690, 9501.000
424.7610, 9534.000
425.9540, 9496.000
427.1460, 9473.000
428.3380, 9448.000
429.5300, 9610.000
430.7220, 9442.000
431.9140, 9593.000
433.1050, 9705.000
434.2970, 9682.000
435.4880, 9756.000
436.6790, 9748.000
437.8700, 9710.000
439.0610, 9818.000
440.2510, 9759.000
441.4420, 9974.000
442.6320, 9963.000
443.8220, 9845.000
445.0120, 9868.000
446.2020, 10019.00
447.3910, 9933.000
448.5810, 9957.000
449.7700, 10096.00
450.9600, 10004.00
452.1490, 10226.00
453.3370, 10221.00
454.5260, 10110.00
455.7150, 10278.00
456.9030, 10164.00
458.0910, 10217.00
459.2800, 10271.00
460.4670, 10267.00
461.6550, 10391.00
462.8430, 10455.00
464.0300, 10296.00
465.2180, 10441.00
466.4050, 10370.00
467.5920, 10488.00
468.7790, 10579.00
469.9650, 10558.00
471.1520, 10488.00
472.3380, 10702.00
473.5250, 10534.00
474.7110, 10668.00
475.8970, 10764.00
477.0820, 10718.00
478.2680, 10740.00
479.4540, 10907.00
480.6390, 10826.00
481.8240, 10861.00
483.0090, 10834.00
484.1940, 10869.61
485.3780, 10953.00
486.5630, 10954.00
487.7470, 11021.00
488.9320, 11025.00
490.1160, 11051.00
491.3000, 11209.00
492.4830, 11029.00
493.6670, 11074.00
494.8500, 11276.00
496.0340, 11265.00
497.2170, 11202.00
498.4000, 11342.00
499.5820, 11355.00
500.7650, 11470.00
501.9480, 11489.00
503.1300, 11279.00
504.3120, 11410.00
505.4940, 11359.00
506.6760, 11447.00
507.8580, 11355.00
509.0390, 11358.00
510.2210, 11620.00
511.4020, 11563.00
512.5830, 11486.00
513.7640, 11615.00
514.9450, 11543.00
516.1250, 11732.00
517.3060, 11839.00
518.4860, 11692.00
519.6660, 11843.00
520.8460, 11831.00
522.0260, 11829.00
523.2060, 11895.00
524.3850, 11960.00
525.5650, 12027.00
526.7440, 12289.00
527.9230, 12100.00
529.1020, 11978.00
530.2810, 12239.00
531.4590, 12190.00
532.6380, 12154.00
533.8160, 12339.00
534.9940, 12177.00
536.1720, 12414.00
537.3500, 12324.00
538.5270, 12177.00
539.7050, 12576.00
540.8820, 12446.00
542.0590, 12420.00
543.2360, 12609.00
544.4130, 12575.00
545.5900, 12545.00
546.7660, 12700.00
547.9430, 12528.00
549.1190, 12784.00
550.2950, 12604.00
551.4710, 12691.00
552.6470, 12766.00
553.8220, 12886.00
554.9980, 12758.00
556.1730, 13030.00
557.3480, 12810.00
558.5230, 12947.00
559.6980, 13008.00
560.8730, 12837.00
562.0470, 12990.00
563.2220, 12960.85
564.3960, 13038.00
565.5700, 13106.00
566.7440, 13042.00
567.9170, 13283.00
569.0910, 13159.00
570.2640, 13383.00
571.4380, 13304.00
572.6110, 13471.00
573.7840, 13235.00
574.9570, 13359.00
576.1290, 13570.00
577.3020, 13456.00
578.4740, 13600.00
579.6460, 13715.00
580.8180, 13553.00
581.9900, 13619.00
583.1620, 13871.00
584.3330, 13645.00
585.5040, 14003.00
586.6760, 13818.00
587.8470, 13708.00
589.0180, 13908.00
590.1880, 13850.00
591.3590, 14037.00
592.5290, 13966.00
593.7000, 13925.00
594.8700, 14138.00
596.0400, 14141.00
597.2090, 14107.00
598.3790, 14316.00
599.5490, 14096.00
600.7180, 14126.00
601.8870, 14386.00
603.0560, 14371.00
604.2250, 14236.00
605.3940, 14470.00
606.5620, 14366.00
607.7300, 14521.00
608.8990, 14665.00
610.0670, 14456.00
611.2350, 14688.00
612.4020, 14700.00
613.5700, 14563.00
614.7370, 14790.00
615.9050, 14510.00
617.0720, 14902.00
618.2390, 14878.00
619.4060, 14857.00
620.5720, 14843.00
621.7390, 15056.00
622.9050, 14631.00
624.0710, 14892.00
625.2370, 15031.00
626.4030, 14800.00
627.5690, 15023.00
628.7340, 15229.00
629.9000, 15070.00
631.0650, 15246.00
632.2300, 15221.00
633.3950, 15146.00
634.5600, 15398.00
635.7240, 15367.00
636.8890, 15523.00
638.0530, 15570.00
639.2170, 15428.00
640.3810, 15657.00
641.5450, 15602.00
642.7080, 15371.00
643.8720, 15645.00
645.0350, 15774.00
646.1980, 15597.00
647.3610, 15779.00
648.5240, 15909.00
649.6870, 15811.00
650.8490, 15967.00
652.0120, 15888.00
653.1740, 16099.00
654.3360, 16113.00
655.4980, 15879.00
656.6600, 16102.00
657.8210, 16174.00
658.9830, 16173.00
660.1440, 16285.00
661.3050, 16313.00
662.4660, 16214.00
663.6270, 16438.00
664.7870, 16292.00
665.9480, 16331.00
667.1080, 16670.00
668.2680, 16427.00
669.4280, 16567.00
670.5880, 16671.00
671.7480, 16609.00
672.9070, 16699.00
674.0670, 16772.00
675.2260, 16730.00
676.3850, 16995.00
677.5440, 16901.00
678.7030, 16632.00
679.8610, 17133.00
681.0200, 16972.00
682.1780, 16836.00
683.3360, 17244.00
684.4940, 17066.00
685.6520, 17173.00
686.8090, 17185.00
687.9670, 17153.00
689.1240, 17397.00
690.2810, 17321.00
691.4380, 17207.00
692.5950, 17349.00
693.7520, 17453.00
694.9080, 17291.00
696.0650, 17667.00
697.2210, 17553.00
698.3770, 17613.00
699.5330, 17724.00
700.6880, 17638.00
701.8440, 17724.91
702.9990, 17753.00
704.1550, 17825.00
705.3100, 17787.00
706.4650, 17926.00
707.6190, 17774.00
708.7740, 18039.00
709.9290, 18061.00
711.0830, 18163.00
712.2370, 18038.00
713.3910, 18130.00
714.5450, 18079.00
715.6980, 18391.00
716.8520, 18349.00
718.0050, 18301.00
719.1580, 18603.00
720.3110, 18300.00
721.4640, 18355.00
722.6170, 18693.00
723.7700, 18424.00
724.9220, 18650.00
726.0740, 18643.00
727.2260, 18473.00
728.3780, 18658.00
729.5300, 18931.00
730.6810, 18734.00
731.8330, 19027.00
732.9840, 18862.00
734.1350, 18688.00
735.2860, 19085.00
736.4370, 19198.00
737.5880, 19213.00
738.7380, 19348.00
739.8880, 19202.00
741.0390, 19092.00
742.1890, 19519.00
743.3380, 19219.00
744.4880, 19317.00
745.6380, 19655.00
746.7870, 19307.00
747.9360, 19539.00
749.0850, 19787.00
750.2340, 19538.00
751.3830, 19817.00
752.5310, 19581.00
753.6800, 19699.00
754.8280, 19775.00
755.9760, 19807.00
757.1240, 19857.00
758.2720, 19937.00
759.4190, 19944.00
760.5670, 20027.00
761.7140, 20183.00
762.8610, 19944.00
764.0080, 20191.00
765.1550, 20294.00
766.3020, 19985.00
767.4480, 20236.00
768.5950, 20314.00
769.7410, 20318.00
770.8870, 20269.00
772.0330, 20530.00
773.1780, 20303.00
774.3240, 20520.00
775.4690, 20459.00
776.6140, 20580.00
777.7590, 20809.00
778.9040, 20746.00
780.0490, 20724.00
781.1940, 21088.00
782.3380, 20859.00
783.4820, 20789.00
784.6260, 21020.00
785.7700, 20942.00
786.9140, 21197.00
788.0580, 21402.00
789.2010, 21029.00
790.3450, 21370.00
791.4880, 21195.00
792.6310, 21439.00
793.7730, 21436.00
794.9160, 21369.00
796.0590, 21472.00
797.2010, 21685.00
798.3430, 21609.00
799.4850, 21483.00
800.6270, 21813.00
801.7690, 21706.00
802.9100, 21784.00
804.0520, 21981.00
805.1930, 21793.00
806.3340, 21943.00
807.4750, 22033.00
808.6160, 21972.00
809.7560, 22002.00
810.8970, 22095.96
812.0370, 22112.32
813.1770, 22254.00
814.3170, 22288.00
815.4570, 22285.00
816.5960, 22449.00
817.7360, 22493.00
818.8750, 22462.00
820.0140, 22463.00
821.1530, 22543.00
822.2920, 22497.00
823.4310, 22698.00
824.5690, 22873.00
825.7070, 22627.00
826.8460, 23003.00
827.9840, 22650.00
829.1220, 22909.00
830.2590, 23140.00
831.3970, 22750.00
832.5340, 23199.00
833.6710, 23125.00
834.8080, 23163.00
835.9450, 23201.00
837.0820, 23284.00
838.2190, 23212.00
839.3550, 23494.00
840.4910, 23587.00
841.6270, 23429.00
842.7630, 23765.00
843.8990, 23424.00
845.0350, 23664.00
846.1700, 23835.00
847.3060, 23559.00
848.4410, 23816.00
849.5760, 23975.00
850.7100, 23838.00
851.8450, 23690.00
852.9800, 23949.00
854.1140, 23797.00
855.2480, 23918.00
856.3820, 24437.00
857.5160, 23935.00
858.6500, 24432.00
859.7830, 24365.00
860.9170, 24207.00
862.0500, 24565.00
863.1830, 24585.00
864.3160, 24535.00
865.4480, 24541.00
866.5810, 24791.00
867.7130, 24703.00
868.8460, 24940.00
869.9780, 24871.00
871.1100, 24742.00
872.2410, 25033.00
873.3730, 24736.00
874.5050, 24818.00
875.6360, 24867.00
876.7670, 24944.00
877.8980, 24919.00
879.0290, 25302.00
880.1590, 25045.00
881.2900, 25239.00
882.4200, 25650.00
883.5500, 25300.00
884.6800, 25620.00
885.8100, 25683.00
886.9400, 25473.00
888.0690, 25608.00
889.1990, 25809.00
890.3280, 25455.00
891.4570, 25737.00
892.5860, 25854.00
893.7140, 25713.00
894.8430, 25976.00
895.9710, 25885.00
897.1000, 25914.00
898.2280, 26302.00
899.3560, 26158.00
900.4830, 26033.00
901.6110, 26353.00
902.7380, 25991.00
903.8660, 26405.00
904.9930, 26546.00
906.1200, 26382.00
907.2460, 26144.00
908.3730, 26836.00
909.5000, 26469.00
910.6260, 26763.00
911.7520, 26882.00
912.8780, 26337.00
914.0040, 26957.00
915.1290, 27052.00
916.2550, 26849.00
917.3800, 26930.00
918.5050, 27065.00
919.6300, 26848.00
920.7550, 27026.00
921.8800, 27360.00
923.0040, 27135.00
924.1290, 27663.00
925.2530, 27360.00
926.3770, 27372.00
927.5010, 27760.00
928.6250, 27332.00
929.7480, 27704.00
930.8720, 27887.00
931.9950, 27661.00
933.1180, 27441.00
934.2410, 28205.00
935.3640, 27771.00
936.4860, 27760.00
937.6090, 28197.00
938.7310, 27875.00
939.8530, 28068.00
940.9750, 28224.00
942.0970, 28338.00
943.2180, 28296.00
944.3400, 28339.00
945.4610, 28321.00
946.5820, 28397.00
947.7030, 28666.00
948.8240, 28630.00
949.9450, 28634.00
951.0650, 28930.00
952.1860, 28706.00
953.3060, 28777.00
954.4260, 29050.00
955.5460, 28808.00
956.6650, 29157.00
957.7850, 29136.00
958.9040, 29142.00
960.0230, 29268.00
961.1420, 29507.00
962.2610, 29428.00
963.3800, 30142.00
964.4990, 30441.00
965.6170, 30452.00
966.7350, 31102.00
967.8530, 29935.00
968.9710, 29997.00
970.0890, 30230.00
971.2070, 29705.00
972.3240, 29727.00
973.4410, 29839.00
974.5580, 29820.00
975.6750, 29876.00
976.7920, 30238.00
977.9090, 29848.00
979.0250, 30132.00
980.1410, 30671.00
981.2580, 30150.00
982.3740, 30210.00
983.4890, 30165.00
984.6050, 30118.00
985.7200, 30174.45
986.8360, 30214.59
987.9510, 30371.00
989.0660, 30305.00
990.1810, 30672.00
991.2950, 30554.00
992.4100, 30749.00
993.5240, 31039.00
994.6390, 30768.00
995.7530, 31103.00
996.8660, 31029.00
997.9800, 30899.00
999.0940, 30986.00
1000.207, 31228.00
1001.320, 30867.00
1002.433, 31325.00
1003.546, 31575.00
1004.659, 31192.00
1005.772, 31630.00
1006.884, 31411.00
1007.996, 31556.00
1009.108, 31917.00
1010.220, 31598.00
1011.332, 31582.00
1012.444, 31708.00
1013.555, 32062.00
1014.666, 31722.00
1015.777, 32161.00
1016.888, 31863.00
1017.999, 31984.00
1019.110, 32339.00
1020.220, 31831.00
1021.331, 32235.00
1022.441, 32507.00
1023.551, 32101.00
1024.661, 32270.00
1025.770, 32543.00
1026.880, 32230.00
1027.989, 32527.00
1029.098, 32933.00
1030.207, 32428.00
1031.316, 32682.00
1032.425, 33026.00
1033.533, 32571.00
1034.642, 33191.00
1035.750, 33076.00
1036.858, 32777.00
1037.966, 33038.00
1039.073, 33344.00
1040.181, 33034.00
1041.288, 33142.00
1042.396, 33478.00
1043.503, 33145.00
1044.610, 33780.00
1045.716, 33529.00
1046.823, 33200.00
1047.929, 33683.00
1049.036, 33575.00
1050.142, 33499.00
1051.248, 33903.00
1052.353, 33793.00
1053.459, 33798.00
1054.564, 33814.00
1055.670, 34224.00
1056.775, 33709.00
1057.880, 34378.00
1058.985, 34100.00
1060.089, 34032.00
1061.194, 34702.00
1062.298, 34309.00
1063.402, 34356.00
1064.506, 34692.00
1065.610, 34718.00
1066.713, 34332.00
1067.817, 34782.00
1068.920, 34958.00
1070.023, 34477.00
1071.126, 35188.00
1072.229, 34852.00
1073.332, 34828.00
1074.435, 35410.00
1075.537, 34864.00
1076.639, 35113.00
1077.741, 35540.00
1078.843, 35513.00
1079.945, 35153.00
1081.046, 35775.00
1082.148, 35372.00
1083.249, 35431.00
1084.350, 35791.00
1085.451, 35366.00
1086.551, 35579.00
1087.652, 35874.00
1088.752, 35563.00
1089.853, 36128.00
1090.953, 36279.00
1092.053, 35878.00
1093.152, 35773.00
1094.252, 36166.00
1095.351, 36009.00
1096.451, 36235.00
1097.550, 36604.00
1098.649, 35959.00
1099.748, 36526.00
1100.846, 36354.00
1101.945, 36168.00
1103.043, 36783.00
1104.141, 36385.00
1105.239, 36268.00
1106.337, 36413.00
1107.434, 36931.00
1108.532, 36738.00
1109.629, 36611.00
1110.726, 37030.00
1111.823, 36805.00
1112.920, 36982.00
1114.017, 37031.00
1115.113, 36832.00
1116.210, 37351.00
1117.306, 37214.00
1118.402, 37062.00
1119.498, 37458.00
1120.593, 37453.00
1121.689, 37508.00
1122.784, 37721.00
1123.879, 37729.13
1124.974, 37227.00
1126.069, 37839.00
1127.164, 37734.00
1128.259, 37663.00
1129.353, 38083.00
1130.447, 37878.00
1131.541, 38053.00
1132.635, 38324.00
1133.729, 38145.00
1134.822, 37818.00
1135.916, 38358.00
1137.009, 38586.00
1138.102, 37824.00
1139.195, 38695.00
1140.288, 38448.00
1141.380, 38254.00
1142.473, 38803.00
1143.565, 38444.00
1144.657, 38534.00
1145.749, 39067.00
1146.841, 38850.00
1147.932, 38611.00
1149.024, 39042.00
1150.115, 39356.00
1151.206, 38767.00
1152.297, 39296.00
1153.388, 39271.00
1154.479, 38908.00
1155.569, 39597.00
1156.659, 39361.00
1157.750, 39268.00
1158.839, 39685.00
1159.929, 39552.00
1161.019, 39341.00
1162.108, 39837.00
1163.198, 39857.00
1164.287, 39390.00
1165.376, 39986.00
1166.465, 39950.00
1167.553, 39712.00
1168.642, 40356.00
1169.730, 40308.00
1170.818, 40012.00
1171.906, 40278.00
1172.994, 40191.00
1174.082, 40103.00
1175.170, 40428.00
1176.257, 40438.00
1177.344, 39976.00
1178.431, 40978.00
1179.518, 40540.00
1180.605, 40278.00
1181.691, 41000.00
1182.778, 40436.00
1183.864, 40650.00
1184.950, 41076.00
1186.036, 40654.00
1187.122, 40868.00
1188.207, 41164.00
1189.292, 41257.00
1190.378, 40590.00
1191.463, 41017.00
1192.548, 41218.00
1193.632, 40974.00
1194.717, 41918.00
1195.801, 41278.00
1196.886, 41257.00
1197.970, 41677.00
1199.054, 41352.00
1200.137, 41308.00
1201.221, 41598.00
1202.305, 41983.00
1203.388, 41472.00
1204.471, 42060.00
1205.554, 41890.00
1206.637, 41888.00
1207.719, 42198.00
1208.802, 42189.00
1209.884, 42036.00
1210.966, 42546.00
1212.048, 42261.00
1213.130, 42340.00
1214.212, 42580.00
1215.293, 42671.00
1216.374, 42071.00
1217.456, 42654.00
1218.536, 42980.00
1219.617, 42381.00
1220.698, 43043.00
1221.778, 42755.00
1222.859, 42714.00
1223.939, 43282.00
1225.019, 42846.00
1226.099, 42638.00
1227.178, 43020.00
1228.258, 43047.00
1229.337, 42766.00
1230.417, 43349.00
1231.496, 43321.00
1232.574, 43019.00
1233.653, 43631.00
1234.732, 43552.00
1235.810, 43003.00
1236.888, 43739.00
1237.966, 43280.00
1239.044, 43597.00
1240.122, 43789.00
1241.199, 43972.00
1242.277, 43415.00
1243.354, 44200.00
1244.431, 44122.00
1245.508, 43479.00
1246.585, 44223.00
1247.661, 44140.00
1248.738, 43901.00
1249.814, 44503.00
1250.890, 44255.00
1251.966, 44074.00
1253.042, 44409.00
1254.117, 44670.00
1255.193, 44533.00
1256.268, 44853.00
1257.343, 44841.00
1258.418, 44224.00
1259.493, 44863.00
1260.567, 44893.00
1261.642, 44469.00
1262.716, 45118.00
1263.790, 45150.00
1264.864, 44867.00
1265.938, 45137.00
1267.011, 45510.00
1268.085, 45275.00
1269.158, 45273.00
1270.231, 45408.00
1271.304, 45064.00
1272.377, 45127.46
1273.450, 45593.74
1274.522, 45876.63
1275.594, 45986.03
1276.666, 45402.30
1277.738, 45713.60
1278.810, 45666.21
1279.882, 45604.11
1280.953, 46041.34
1282.025, 45558.42
1283.096, 45987.72
1284.167, 46052.87
1285.238, 46284.68
1286.308, 46155.55
1287.379, 46137.93
1288.449, 46481.29
1289.519, 46624.75
1290.589, 46454.07
1291.659, 46696.43
1292.729, 46200.82
1293.798, 46352.74
1294.868, 46784.12
1295.937, 46631.54
1297.006, 46880.46
1298.075, 46976.46
1299.143, 46377.50
1300.212, 46987.13
1301.280, 47074.05
1302.348, 46624.33
1303.416, 47192.50
1304.484, 46816.75
1305.552, 46777.93
1306.620, 46992.66
1307.687, 46943.03
1308.754, 47310.12
1309.821, 47275.75
1310.888, 47205.51
1311.955, 47291.80
1313.021, 46934.48
1314.088, 47400.12
1315.154, 47303.60
1316.220, 47486.48
1317.286, 47732.71
1318.352, 47493.99
1319.417, 47768.62
1320.483, 47651.00
1321.548, 47838.00
1322.613, 48327.00
1323.678, 47871.00
1324.743, 48320.00
1325.807, 48464.00
1326.872, 47614.00
1327.936, 48638.00
1329.000, 48305.00
1330.064, 47943.00
1331.128, 48337.00
1332.191, 48255.00
1333.255, 48295.00
1334.318, 48446.00
1335.381, 48871.00
1336.444, 48130.00
1337.507, 48638.00
1338.569, 49222.00
1339.632, 48465.00
1340.694, 48752.00
1341.756, 49323.00
1342.818, 48677.00
1343.880, 49490.00
1344.941, 49212.00
1346.003, 48486.00
1347.064, 49244.00
1348.125, 49271.00
1349.186, 49125.00
1350.247, 49294.00
1351.308, 49486.00
1352.368, 49385.00
1353.428, 49356.00
1354.489, 49884.00
1355.549, 49286.00
1356.608, 49519.00
1357.668, 50020.00
1358.727, 49420.00
1359.787, 49574.00
1360.846, 49841.00
1361.905, 49924.00
1362.964, 49715.00
1364.022, 49980.00
1365.081, 49866.00
1366.139, 49438.00
1367.197, 50372.00
1368.255, 50098.00
1369.313, 49859.00
1370.371, 50335.00
1371.428, 50104.00
1372.486, 50002.00
1373.543, 50612.00
1374.600, 50215.00
1375.657, 50214.00
1376.713, 50518.00
1377.770, 50853.00
1378.826, 50227.00
1379.882, 50737.00
1380.938, 50745.00
1381.994, 50075.00
1383.050, 50874.00
1384.106, 50847.00
1385.161, 50564.00
1386.216, 51135.00
1387.271, 50994.00
1388.326, 50955.00
1389.381, 50956.00
1390.435, 51279.00
1391.490, 51109.00
1392.544, 51097.00
1393.598, 51533.00
1394.652, 50836.00
1395.705, 51212.00
1396.759, 51733.00
1397.812, 50848.00
1398.866, 51465.00
1399.919, 51646.00
1400.972, 51443.00
1402.024, 51492.00
1403.077, 51620.00
1404.129, 51824.00
1405.181, 51613.00
1406.233, 52073.00
1407.285, 51934.00
1408.337, 51419.00
1409.389, 52255.00
1410.440, 52252.00
1411.491, 51950.00
1412.542, 52223.00
1413.593, 51982.00
1414.644, 52104.00
1415.695, 52250.00
1416.745, 52290.00
1417.795, 52143.00
1418.845, 52219.00
1419.895, 52678.00
1420.945, 51962.00
1421.995, 52711.00
1423.044, 52443.00
1424.093, 52085.00
1425.142, 52996.00
1426.191, 52951.00
1427.240, 52433.00
1428.289, 52803.00
1429.337, 53316.00
1430.385, 52688.00
1431.433, 52844.00
1432.481, 53418.00
1433.529, 52926.00
1434.577, 52878.00
1435.624, 53714.00
1436.672, 52818.00
1437.719, 53127.00
1438.766, 53625.00
1439.812, 53515.00
1440.859, 53372.00
1441.905, 53683.00
1442.952, 53364.00
1443.998, 53373.00
1445.044, 53929.00
1446.090, 53852.00
1447.135, 53294.00
1448.181, 54052.00
1449.226, 54180.00
1450.271, 53442.00
1451.316, 54564.00
1452.361, 54182.00
1453.405, 53579.00
1454.450, 53943.00
1455.494, 54119.00
1456.538, 53574.00
1457.582, 53962.00
1458.626, 54134.00
1459.670, 53769.00
1460.713, 53923.00
1461.757, 54648.00
1462.800, 54006.00
1463.843, 54363.00
1464.886, 54773.00
1465.928, 54216.00
1466.971, 54367.00
1468.013, 54717.00
1469.055, 54442.00
1470.097, 54288.00
1471.139, 55011.00
1472.181, 54791.00
1473.222, 54408.00
1474.263, 55173.00
1475.305, 55055.00
1476.346, 54772.00
1477.386, 55414.00
1478.427, 54881.00
1479.468, 54871.00
1480.508, 55594.00
1481.548, 55429.00
1482.588, 55072.00
1483.628, 55249.00
1484.668, 55687.00
1485.707, 55169.00
1486.747, 55506.00
1487.786, 56045.00
1488.825, 55480.00
1489.864, 55824.00
1490.902, 55979.00
1491.941, 55486.00
1492.979, 55855.00
1494.017, 56283.00
1495.055, 55868.00
1496.093, 55754.00
1497.131, 56284.00
1498.168, 56417.00
1499.206, 55798.00
1500.243, 56405.00
1501.280, 56497.00
1502.317, 55738.00
1503.354, 56490.00
1504.390, 56455.00
1505.426, 56409.00
1506.463, 56807.00
1507.499, 56451.00
1508.535, 56399.00
1509.570, 56627.00
1510.606, 57051.00
1511.641, 56741.00
1512.676, 56441.00
1513.711, 57145.00
1514.746, 56322.00
1515.781, 57024.00
1516.816, 57420.00
1517.850, 56721.00
1518.884, 57089.00
1519.918, 57416.00
1520.952, 57048.00
1521.986, 57009.00
1523.019, 57093.00
1524.053, 57533.00
1525.086, 56840.00
1526.119, 57696.00
1527.152, 57031.00
1528.185, 56781.00
1529.217, 57898.00
1530.250, 57627.00
1531.282, 57407.00
1532.314, 57657.00
1533.346, 57470.00
1534.377, 57554.00
1535.409, 58003.00
1536.440, 57934.00
1537.472, 57674.00
1538.503, 57668.00
1539.534, 58054.00
1540.564, 57763.00
1541.595, 57717.00
1542.625, 58341.00
1543.656, 57653.00
1544.686, 57780.00
1545.716, 58127.00
1546.745, 57469.00
1547.775, 57945.00
1548.804, 58129.00
1549.834, 58427.00
1550.863, 57953.00
1551.892, 58231.00
1552.920, 58402.00
1553.949, 57918.00
1554.977, 58703.00
1556.006, 58688.00
1557.034, 57940.00
1558.062, 58353.00
1559.089, 58393.00
1560.117, 58186.00
1561.144, 58559.00
1562.172, 58855.00
1563.199, 58335.00
1564.226, 58189.00
1565.252, 58647.00
1566.279, 58764.00
1567.305, 58367.00
1568.332, 58802.00
1569.358, 58720.00
1570.384, 58603.00
1571.409, 59451.00
##END=



