##NAMES=Fluorophlogopite
##RRUFFID=R040042
##IDEAL CHEMISTRY=KMg_3_(Si_3_Al)O_10_F_2_
##LOCALITY=Franklin, Sussex County, New Jersey, USA
##OWNER=RRUFF
##SOURCE=University of Arizona Mineral Museum
##DESCRIPTION=Brown flattened hexagonal prism, polytype 1M
##STATUS=The identification of this mineral has been confirmed by X-ray diffraction and chemical analysis
##URL=rruff.info/R040042
##MEASURED CHEMISTRY=(K_0.92_Na_0.08_)_Σ=1_(Mg_2.95_Fe_0.05_)_Σ=3_(Si_3.00_Al_1.00_)O_10_(F_1.40_(OH)_0.60_)_Σ=2_; trace amounts of Ti; OH estimated by charge balance
##PIN_ID=L01769
##ORIENTATION=Laser parallel to b* (0 1 0). Fiducial mark perpendicular to laser is parallel to -c [0 0 -1]
63.96800, 4653.000
65.21800, 5455.000
66.46800, 6148.000
67.71800, 7341.000
68.96700, 8515.000
70.21700, 9861.000
71.46600, 11752.00
72.71500, 13666.00
73.96300, 15993.00
75.21200, 18313.00
76.46000, 20813.00
77.70800, 23404.00
78.95600, 26028.00
80.20300, 28404.00
81.45100, 31305.00
82.69800, 34036.00
83.94500, 36900.00
85.19100, 39243.00
86.43800, 41580.00
87.68400, 43975.00
88.93100, 46286.00
90.17600, 48774.00
91.42200, 51565.00
92.66800, 54278.00
93.91300, 57192.98
95.15800, 60461.00
96.40300, 63362.00
97.64800, 66658.00
98.89200, 70117.00
100.1370, 74212.00
101.3810, 78755.00
102.6250, 82367.00
103.8680, 84954.00
105.1120, 84811.00
106.3550, 82643.00
107.5980, 78012.00
108.8410, 72645.00
110.0840, 66573.00
111.3260, 61449.00
112.5680, 57246.00
113.8100, 52827.00
115.0520, 50762.00
116.2940, 48306.00
117.5350, 46504.00
118.7770, 45081.00
120.0180, 43729.00
121.2590, 42303.00
122.4990, 41199.00
123.7400, 40073.00
124.9800, 39139.00
126.2200, 38268.00
127.4600, 37277.00
128.6990, 36926.00
129.9390, 36283.00
131.1780, 35601.00
132.4170, 35156.00
133.6560, 34359.00
134.8940, 34186.00
136.1330, 33702.76
137.3710, 32987.00
138.6090, 32955.00
139.8470, 32650.00
141.0840, 32090.00
142.3220, 31753.00
143.5590, 31583.00
144.7960, 31129.00
146.0320, 30731.00
147.2690, 30876.00
148.5050, 30639.00
149.7420, 30331.00
150.9780, 29908.00
152.2130, 29925.00
153.4490, 29512.00
154.6840, 29762.00
155.9190, 29833.00
157.1540, 29555.00
158.3890, 29500.00
159.6240, 29449.00
160.8580, 29505.00
162.0920, 29423.00
163.3260, 29524.00
164.5600, 29594.00
165.7930, 29595.00
167.0270, 29905.00
168.2600, 29965.00
169.4930, 29977.00
170.7260, 30401.00
171.9580, 30471.00
173.1900, 30602.00
174.4230, 31148.00
175.6550, 31866.00
176.8860, 32204.11
178.1180, 32731.00
179.3490, 33367.00
180.5800, 34139.00
181.8110, 35032.00
183.0420, 36914.00
184.2730, 38764.00
185.5030, 41383.00
186.7330, 44425.00
187.9630, 47930.00
189.1930, 52740.00
190.4220, 58129.00
191.6520, 64130.00
192.8810, 71646.00
194.1100, 78751.00
195.3390, 85478.00
196.5670, 90605.00
197.7960, 92979.00
199.0240, 91723.00
200.2520, 87330.00
201.4790, 81555.00
202.7070, 74263.00
203.9340, 66438.00
205.1620, 59569.00
206.3890, 53366.00
207.6150, 48447.00
208.8420, 44605.00
210.0680, 41448.00
211.2940, 39031.00
212.5200, 37303.00
213.7460, 35457.00
214.9720, 34686.00
216.1970, 33679.00
217.4220, 32688.00
218.6470, 32401.00
219.8720, 31766.00
221.0970, 31167.00
222.3210, 30714.00
223.5450, 30311.00
224.7690, 29813.00
225.9930, 29894.00
227.2170, 29660.00
228.4400, 29583.00
229.6630, 29326.00
230.8860, 29283.00
232.1090, 29357.00
233.3320, 29214.00
234.5540, 29237.00
235.7770, 29062.00
236.9990, 29029.00
238.2210, 29050.00
239.4420, 29009.00
240.6640, 28807.00
241.8850, 28954.00
243.1060, 28937.00
244.3270, 28661.00
245.5480, 28627.00
246.7680, 28783.00
247.9880, 28345.00
249.2080, 28359.00
250.4280, 28202.00
251.6480, 28551.00
252.8670, 28384.00
254.0870, 28477.00
255.3060, 28428.00
256.5250, 28790.00
257.7440, 28708.00
258.9620, 28931.00
260.1800, 29291.00
261.3990, 29480.00
262.6160, 29651.00
263.8340, 29856.00
265.0520, 30411.00
266.2690, 31208.00
267.4860, 31596.00
268.7030, 32443.00
269.9200, 33575.00
271.1370, 35353.00
272.3530, 36339.00
273.5690, 38113.00
274.7850, 39983.00
276.0010, 41679.00
277.2170, 43970.00
278.4320, 45488.00
279.6470, 46225.00
280.8620, 46395.00
282.0770, 45631.00
283.2920, 44129.00
284.5060, 42458.00
285.7210, 40299.00
286.9350, 38816.00
288.1490, 37098.00
289.3620, 36201.29
290.5760, 35412.00
291.7890, 35022.00
293.0020, 34647.00
294.2150, 34488.00
295.4280, 34395.00
296.6400, 34401.00
297.8530, 34598.00
299.0650, 34991.00
300.2770, 35396.00
301.4890, 36292.00
302.7000, 36933.00
303.9120, 37532.00
305.1230, 38984.00
306.3340, 40767.00
307.5450, 41939.00
308.7550, 44176.00
309.9660, 45584.00
311.1760, 47462.00
312.3860, 48954.00
313.5960, 50856.00
314.8050, 51928.00
316.0150, 52594.00
317.2240, 52943.00
318.4330, 53467.00
319.6420, 53081.00
320.8510, 52963.00
322.0590, 52665.00
323.2680, 51791.00
324.4760, 50745.00
325.6840, 49726.00
326.8910, 48634.00
328.0990, 46812.00
329.3060, 45466.00
330.5140, 43473.00
331.7210, 41986.00
332.9270, 40662.00
334.1340, 39059.00
335.3400, 37790.00
336.5470, 36692.00
337.7530, 35843.00
338.9590, 35065.00
340.1640, 34879.00
341.3700, 33660.00
342.5750, 33319.00
343.7800, 32851.00
344.9850, 32186.00
346.1900, 32342.00
347.3940, 32023.00
348.5990, 31648.00
349.8030, 31716.00
351.0070, 31406.00
352.2100, 31354.00
353.4140, 31343.00
354.6170, 31519.00
355.8210, 31505.00
357.0240, 31533.00
358.2260, 31698.00
359.4290, 31759.00
360.6320, 31672.00
361.8340, 31976.00
363.0360, 32148.00
364.2380, 32295.00
365.4400, 32899.00
366.6410, 33538.00
367.8420, 33894.00
369.0440, 34519.00
370.2440, 34977.00
371.4450, 35421.00
372.6460, 35470.00
373.8460, 34924.00
375.0460, 35169.00
376.2460, 34459.00
377.4460, 34109.00
378.6460, 33417.00
379.8450, 32953.00
381.0450, 32446.00
382.2440, 32233.00
383.4430, 31722.00
384.6410, 31693.00
385.8400, 31332.00
387.0380, 31165.00
388.2360, 31122.47
389.4340, 30964.00
390.6320, 30984.00
391.8300, 30775.00
393.0270, 30571.00
394.2240, 30832.00
395.4210, 30406.00
396.6180, 30614.00
397.8150, 30481.00
399.0110, 30317.00
400.2080, 30683.00
401.4040, 30743.00
402.6000, 30496.00
403.7950, 30912.00
404.9910, 30542.00
406.1860, 30777.00
407.3810, 30698.00
408.5760, 31041.00
409.7710, 30709.00
410.9660, 30600.00
412.1600, 30488.00
413.3540, 30246.00
414.5490, 30494.00
415.7420, 30182.43
416.9360, 30662.00
418.1300, 29873.00
419.3230, 30014.00
420.5160, 30005.00
421.7090, 29426.00
422.9020, 29629.00
424.0940, 29562.00
425.2870, 29454.00
426.4790, 29556.23
427.6710, 29490.00
428.8630, 29528.00
430.0550, 29733.00
431.2460, 29595.00
432.4370, 29388.00
433.6290, 29565.00
434.8190, 29708.00
436.0100, 29655.00
437.2010, 29720.00
438.3910, 29778.00
439.5810, 29689.00
440.7710, 29874.00
441.9610, 29688.00
443.1510, 30017.00
444.3400, 30179.00
445.5300, 30015.00
446.7190, 30282.00
447.9080, 30362.00
449.0960, 30106.00
450.2850, 30181.00
451.4730, 30179.00
452.6620, 30174.00
453.8500, 30407.00
455.0370, 30575.00
456.2250, 30732.00
457.4120, 30674.00
458.6000, 30719.00
459.7870, 31075.00
460.9740, 31357.00
462.1610, 31175.00
463.3470, 31597.00
464.5330, 31613.00
465.7200, 31838.00
466.9060, 31816.00
468.0910, 32135.00
469.2770, 31654.00
470.4630, 31508.00
471.6480, 30884.00
472.8330, 30953.00
474.0180, 30549.00
475.2030, 30351.00
476.3870, 29911.00
477.5720, 29796.00
478.7560, 29811.00
479.9400, 29925.00
481.1240, 30022.00
482.3070, 29882.00
483.4910, 29976.00
484.6740, 30008.00
485.8570, 29986.60
487.0400, 29945.00
488.2230, 30064.00
489.4050, 30038.00
490.5880, 30157.00
491.7700, 30146.00
492.9520, 30652.00
494.1340, 30710.00
495.3160, 30826.00
496.4970, 30617.00
497.6780, 30811.00
498.8600, 30811.00
500.0400, 31051.00
501.2210, 31092.00
502.4020, 31214.00
503.5820, 31739.00
504.7630, 32090.00
505.9430, 31920.00
507.1220, 32624.00
508.3020, 33042.00
509.4820, 33170.00
510.6610, 33719.00
511.8400, 33885.00
513.0190, 34132.00
514.1980, 33882.00
515.3770, 33727.00
516.5550, 33345.00
517.7330, 33174.00
518.9110, 32962.00
520.0890, 32723.00
521.2670, 32428.00
522.4450, 32211.92
523.6220, 31734.00
524.7990, 31724.00
525.9760, 31713.00
527.1530, 31484.00
528.3300, 31645.00
529.5060, 31444.00
530.6830, 31405.00
531.8590, 31480.00
533.0350, 31500.00
534.2100, 31323.00
535.3860, 31348.29
536.5610, 30942.00
537.7370, 31154.00
538.9120, 30979.00
540.0870, 30736.00
541.2610, 31011.00
542.4360, 30861.00
543.6100, 30982.00
544.7850, 31100.00
545.9590, 30937.00
547.1320, 31044.00
548.3060, 31113.00
549.4800, 31132.00
550.6530, 31171.00
551.8260, 31026.00
552.9990, 31271.00
554.1720, 31350.00
555.3440, 31091.00
556.5170, 31412.00
557.6890, 31277.00
558.8610, 31225.00
560.0330, 31470.00
561.2050, 31486.00
562.3760, 31634.00
563.5480, 31556.00
564.7190, 31447.00
565.8900, 31754.00
567.0610, 31652.00
568.2310, 31585.00
569.4020, 31363.00
570.5720, 31503.00
571.7420, 31410.48
572.9120, 31806.00
574.0820, 31439.00
575.2520, 31612.00
576.4210, 31675.00
577.5900, 31610.00
578.7590, 31556.00
579.9280, 31696.00
581.0970, 31670.00
582.2660, 31456.00
583.4340, 31501.00
584.6020, 31594.00
585.7700, 31530.00
586.9380, 31635.00
588.1060, 31844.00
589.2730, 31507.00
590.4410, 31534.00
591.6080, 31799.00
592.7750, 31659.00
593.9420, 31615.00
595.1080, 31785.00
596.2750, 31804.87
597.4410, 31906.31
598.6070, 32049.00
599.7730, 32083.00
600.9390, 32123.00
602.1050, 32119.00
603.2700, 32317.00
604.4350, 32107.00
605.6010, 32621.00
606.7660, 32490.00
607.9300, 32958.00
609.0950, 33009.43
610.2590, 33145.00
611.4230, 33235.00
612.5880, 33493.00
613.7510, 33756.00
614.9150, 34004.48
616.0790, 34258.00
617.2420, 34615.00
618.4050, 34967.38
619.5680, 35277.20
620.7310, 35765.00
621.8940, 36139.00
623.0560, 36696.00
624.2190, 37183.00
625.3810, 37089.00
626.5430, 37751.00
627.7050, 38288.00
628.8660, 38704.00
630.0280, 39632.00
631.1890, 40617.00
632.3500, 41466.00
633.5110, 41609.00
634.6720, 42279.23
635.8330, 42482.00
636.9930, 42958.00
638.1530, 43615.00
639.3130, 43974.00
640.4730, 44337.00
641.6330, 44293.00
642.7930, 44887.00
643.9520, 45039.00
645.1110, 44840.00
646.2710, 45208.00
647.4290, 45205.00
648.5880, 45033.00
649.7470, 45367.00
650.9050, 45284.00
652.0630, 45737.00
653.2210, 46078.00
654.3790, 46386.00
655.5370, 47016.00
656.6950, 47106.00
657.8520, 47862.00
659.0090, 48246.00
660.1660, 49017.00
661.3230, 49799.00
662.4800, 50452.00
663.6360, 51683.00
664.7930, 52895.00
665.9490, 54414.00
667.1050, 56550.00
668.2610, 58114.00
669.4160, 60053.00
670.5720, 62824.00
671.7270, 65385.00
672.8830, 69073.00
674.0380, 73227.00
675.1920, 77553.00
676.3470, 82598.00
677.5020, 87767.00
678.6560, 92919.00
679.8100, 97947.00
680.9640, 102439.0
682.1180, 105930.0
683.2720, 108394.0
684.4250, 109637.0
685.5780, 108457.0
686.7320, 106678.0
687.8850, 103672.0
689.0370, 100343.0
690.1900, 95618.00
691.3420, 91252.00
692.4950, 85761.00
693.6470, 81324.00
694.7990, 76522.00
695.9510, 71192.00
697.1020, 67810.00
698.2540, 63106.00
699.4050, 59824.00
700.5560, 56904.00
701.7070, 54039.00
702.8580, 51356.00
704.0090, 49742.00
705.1590, 47779.47
706.3100, 46604.00
707.4600, 45368.00
708.6100, 44216.00
709.7590, 43929.00
710.9090, 43160.00
712.0590, 42858.00
713.2080, 42531.00
714.3570, 42069.00
715.5060, 42386.00
716.6550, 42106.00
717.8030, 41787.00
718.9520, 41514.00
720.1000, 41543.00
721.2480, 41125.00
722.3960, 40614.00
723.5440, 40346.00
724.6920, 40540.00
725.8390, 39979.00
726.9870, 39896.00
728.1340, 39834.00
729.2810, 39336.00
730.4280, 39117.00
731.5740, 39049.00
732.7210, 39196.00
733.8670, 38975.00
735.0130, 38725.00
736.1590, 38632.00
737.3050, 38598.00
738.4510, 38782.00
739.5960, 38566.00
740.7410, 38760.00
741.8870, 38818.00
743.0320, 38179.00
744.1760, 38264.00
745.3210, 38220.00
746.4660, 38339.00
747.6100, 38149.00
748.7540, 37858.00
749.8980, 38294.00
751.0420, 37944.00
752.1860, 37927.23
753.3290, 37657.00
754.4720, 37665.00
755.6160, 37763.00
756.7590, 37614.00
757.9020, 37751.00
759.0440, 37650.00
760.1870, 37516.00
761.3290, 37447.00
762.4710, 37411.00
763.6130, 37333.08
764.7550, 37580.00
765.8970, 37255.00
767.0390, 37161.00
768.1800, 37144.00
769.3210, 37433.00
770.4620, 37455.00
771.6030, 37332.00
772.7440, 37599.00
773.8840, 37451.00
775.0250, 37860.00
776.1650, 37880.00
777.3050, 37989.84
778.4450, 38017.00
779.5850, 38277.00
780.7240, 38586.00
781.8640, 38874.00
783.0030, 39172.00
784.1420, 38862.00
785.2810, 39022.00
786.4200, 38996.00
787.5590, 38533.00
788.6970, 38075.00
789.8350, 38547.00
790.9730, 38630.00
792.1110, 38333.00
793.2490, 38035.00
794.3870, 38455.00
795.5240, 38155.00
796.6620, 38523.00
797.7990, 38228.00
798.9360, 38462.00
800.0730, 38322.00
801.2090, 38127.00
802.3460, 38026.00
803.4820, 37924.90
804.6180, 37837.00
805.7540, 37779.00
806.8900, 37740.00
808.0260, 37669.00
809.1620, 37645.00
810.2970, 37459.00
811.4320, 37574.84
812.5670, 37563.86
813.7020, 37758.00
814.8370, 37712.00
815.9710, 37802.00
817.1060, 37900.00
818.2400, 37804.49
819.3740, 37800.00
820.5080, 37694.00
821.6420, 37696.00
822.7760, 37713.00
823.9090, 37731.00
825.0420, 37751.54
826.1760, 37701.00
827.3090, 37781.00
828.4410, 37809.00
829.5740, 37774.00
830.7060, 37880.00
831.8390, 37534.00
832.9710, 37854.00
834.1030, 37549.00
835.2350, 37874.00
836.3670, 37575.00
837.4980, 37764.00
838.6300, 37770.00
839.7610, 38041.00
840.8920, 38080.00
842.0230, 38330.00
843.1530, 38222.00
844.2840, 38221.67
845.4140, 38091.00
846.5450, 37963.00
847.6750, 38012.00
848.8050, 37744.00
849.9350, 38078.00
851.0640, 38092.00
852.1940, 37961.00
853.3230, 37910.00
854.4520, 38112.00
855.5810, 37937.00
856.7100, 38182.00
857.8390, 37974.00
858.9670, 38356.00
860.0960, 38228.00
861.2240, 38561.00
862.3520, 38205.00
863.4800, 38301.00
864.6080, 38356.00
865.7350, 38206.00
866.8630, 38212.00
867.9900, 38365.00
869.1170, 38348.00
870.2440, 38466.00
871.3710, 38274.00
872.4970, 38436.00
873.6240, 38233.00
874.7500, 38204.00
875.8760, 37887.00
877.0020, 38442.00
878.1280, 38179.00
879.2540, 37880.00
880.3790, 38231.00
881.5050, 38119.00
882.6300, 38009.00
883.7550, 38412.00
884.8800, 38326.00
886.0050, 38399.00
887.1290, 38328.00
888.2540, 38516.00
889.3780, 38668.00
890.5020, 38786.00
891.6260, 38612.00
892.7500, 38680.00
893.8730, 38779.00
894.9970, 38868.00
896.1200, 39011.36
897.2440, 38966.01
898.3670, 39287.00
899.4890, 38914.00
900.6120, 38931.00
901.7350, 38994.00
902.8570, 39331.00
903.9790, 39285.00
905.1010, 39347.00
906.2230, 39228.00
907.3450, 39159.00
908.4670, 39271.00
909.5880, 39460.00
910.7100, 39206.00
911.8310, 39270.00
912.9520, 39011.00
914.0730, 39222.00
915.1930, 39248.00
916.3140, 39446.00
917.4340, 39430.00
918.5550, 39422.00
919.6750, 39451.00
920.7950, 39721.00
921.9140, 39560.00
923.0340, 39708.00
924.1530, 39659.00
925.2730, 39480.00
926.3920, 39668.00
927.5110, 39765.00
928.6300, 39961.00
929.7480, 39904.00
930.8670, 39779.00
931.9850, 40001.00
933.1040, 39820.00
934.2220, 40198.00
935.3400, 39785.00
936.4570, 39834.00
937.5750, 39685.00
938.6920, 39603.00
939.8100, 39798.00
940.9270, 40132.00
942.0440, 39761.00
943.1610, 40005.00
944.2770, 40050.00
945.3940, 40131.00
946.5100, 39822.00
947.6270, 39915.00
948.7430, 39662.00
949.8590, 39747.00
950.9740, 39893.00
952.0900, 39837.00
953.2050, 39815.00
954.3210, 39970.00
955.4360, 40004.00
956.5510, 39855.00
957.6660, 40138.00
958.7800, 40018.00
959.8950, 40115.00
961.0090, 40271.00
962.1240, 40411.00
963.2380, 40684.00
964.3520, 40408.00
965.4650, 40701.00
966.5790, 40740.00
967.6930, 40524.00
968.8060, 40672.00
969.9190, 40941.00
971.0320, 40913.00
972.1450, 41192.00
973.2580, 41189.00
974.3700, 41392.00
975.4830, 41450.00
976.5950, 41504.00
977.7070, 41661.84
978.8190, 41710.00
979.9310, 41903.00
981.0430, 42081.00
982.1540, 42206.00
983.2650, 42332.00
984.3770, 42470.00
985.4880, 42416.00
986.5990, 42402.00
987.7090, 43093.00
988.8200, 42936.74
989.9300, 43180.34
991.0410, 43257.00
992.1510, 43514.00
993.2610, 43945.00
994.3710, 44389.00
995.4810, 45077.00
996.5900, 46023.00
997.6990, 46688.00
998.8090, 47522.00
999.9180, 48371.00
1001.027, 50103.00
1002.136, 51218.00
1003.244, 53385.00
1004.353, 54005.00
1005.461, 52364.00
1006.569, 50393.00
1007.677, 48550.00
1008.785, 47412.00
1009.893, 46778.00
1011.001, 46017.00
1012.108, 45436.00
1013.215, 45076.00
1014.323, 44762.00
1015.430, 44638.00
1016.536, 44404.00
1017.643, 44299.52
1018.750, 44066.00
1019.856, 44203.00
1020.962, 44207.00
1022.068, 44299.00
1023.174, 44735.00
1024.280, 44775.00
1025.386, 45333.00
1026.491, 45930.00
1027.597, 46474.00
1028.702, 47485.00
1029.807, 47959.00
1030.912, 49092.00
1032.017, 49764.00
1033.121, 50277.00
1034.226, 50618.89
1035.330, 50564.00
1036.434, 50448.00
1037.538, 50081.00
1038.642, 49752.33
1039.746, 49021.00
1040.850, 48747.00
1041.953, 47996.39
1043.056, 47325.00
1044.159, 46807.00
1045.262, 46378.96
1046.365, 46432.00
1047.468, 46007.00
1048.571, 45759.00
1049.673, 46127.00
1050.775, 45452.00
1051.877, 45706.00
1052.979, 45862.00
1054.081, 45693.00
1055.183, 45690.00
1056.284, 45317.00
1057.386, 45350.00
1058.487, 45499.00
1059.588, 45766.00
1060.689, 45448.00
1061.790, 45678.00
1062.890, 45562.00
1063.991, 45584.00
1065.091, 45872.00
1066.191, 46389.00
1067.291, 45891.00
1068.391, 46259.00
1069.491, 46286.00
1070.591, 46197.00
1071.690, 46697.00
1072.790, 46796.97
1073.889, 47499.00
1074.988, 47387.00
1076.087, 47774.00
1077.185, 48041.00
1078.284, 48385.00
1079.382, 48483.00
1080.481, 49057.00
1081.579, 49449.00
1082.677, 49927.00
1083.775, 50108.00
1084.872, 50576.00
1085.970, 51095.00
1087.067, 51419.00
1088.165, 51494.00
1089.262, 51835.00
1090.359, 51961.00
1091.456, 52504.00
1092.552, 52296.00
1093.649, 52162.00
1094.745, 52735.00
1095.842, 52605.00
1096.938, 52312.00
1098.034, 52520.00
1099.130, 52827.00
1100.225, 52755.00
1101.321, 52827.00
1102.416, 52466.00
1103.511, 52459.00
1104.607, 52049.00
1105.702, 51643.00
1106.796, 51067.00
1107.891, 51394.00
1108.986, 50491.00
1110.080, 50179.00
1111.174, 49353.00
1112.268, 49029.00
1113.362, 48409.00
1114.456, 48239.00
1115.550, 47765.00
1116.643, 47051.00
1117.737, 46930.00
1118.830, 46740.00
1119.923, 46233.00
1121.016, 46138.00
1122.109, 45780.00
1123.201, 45449.00
1124.294, 45285.00
1125.386, 45365.00
1126.478, 45249.00
1127.571, 44967.00
1128.663, 45061.00
1129.754, 44973.64
1130.846, 44863.00
1131.937, 44983.00
1133.029, 45178.00
1134.120, 45127.00
1135.211, 45274.00
1136.302, 45302.00
1137.393, 44955.00
1138.484, 44911.00
1139.574, 44810.00
1140.664, 44710.00
1141.755, 45064.00
1142.845, 44959.00
1143.935, 45118.00
1145.025, 45185.00
1146.114, 45102.00
1147.204, 44994.00
1148.293, 45244.00
1149.382, 45174.00
1150.471, 45135.00
1151.560, 45477.00
1152.649, 45740.00
1153.738, 45656.31
1154.826, 46245.00
1155.915, 45658.00
1157.003, 45845.00
1158.091, 46039.00
1159.179, 45867.00
1160.267, 45720.00
1161.355, 45711.00
1162.442, 45850.00
1163.529, 45803.00
1164.617, 45699.00
1165.704, 45619.00
1166.791, 45658.00
1167.878, 45505.00
1168.964, 45405.00
1170.051, 45940.00
1171.137, 46071.00
1172.224, 46070.32
1173.310, 45805.00
1174.396, 46090.00
1175.481, 46085.00
1176.567, 46164.00
1177.653, 46442.00
1178.738, 46445.00
1179.823, 46510.00
1180.909, 46690.00
1181.994, 46843.00
1183.078, 46873.00
1184.163, 46789.00
1185.248, 46855.00
1186.332, 46708.00
1187.416, 46873.00
1188.501, 47225.00
1189.585, 47235.00
1190.669, 47161.00
1191.752, 47295.00
1192.836, 47232.00
1193.919, 47131.00
1195.003, 47321.00
1196.086, 47040.00
1197.169, 47333.00
1198.252, 47241.00
1199.334, 47057.00
1200.417, 47150.00
1201.500, 47299.00
1202.582, 47145.04
1203.664, 47106.00
1204.746, 47095.00
1205.828, 46907.00
1206.910, 47074.00
1207.992, 46992.00
1209.073, 47183.00
1210.154, 47374.00
1211.236, 47135.00
1212.317, 47175.00
1213.398, 46974.00
1214.479, 47082.00
1215.559, 47116.29
1216.640, 47138.00
1217.720, 47345.00
1218.800, 47313.00
1219.881, 47486.00
1220.961, 47556.00
1222.040, 47800.00
1223.120, 47648.00
1224.200, 47740.00
1225.279, 47929.00
1226.358, 48008.00
1227.438, 48077.00
1228.517, 48392.00
1229.595, 48100.00
1230.674, 48300.00
1231.753, 48602.00
1232.831, 48266.00
1233.910, 48358.00
1234.988, 48435.00
1236.066, 48413.00
1237.144, 48248.00
1238.222, 48616.00
1239.299, 48319.00
1240.377, 48282.00
1241.454, 48426.00
1242.531, 48026.00
1243.608, 48471.00
1244.685, 48432.00
1245.762, 48280.00
1246.839, 48217.00
1247.915, 48398.00
1248.992, 48354.00
1250.068, 48464.00
1251.144, 48628.00
1252.220, 48679.00
1253.296, 48628.00
1254.372, 48951.00
1255.447, 48355.00
1256.523, 48576.00
1257.598, 48961.00
1258.673, 48432.00
1259.748, 49062.00
1260.823, 48988.00
1261.898, 48723.00
1262.973, 49081.00
1264.047, 49124.00
1265.122, 49602.00
1266.196, 49568.00
1267.270, 49695.00
1268.344, 49588.00
1269.418, 49730.04
1270.491, 49810.00
1271.565, 50020.00
1272.638, 50020.00
1273.712, 50301.00
1274.785, 49955.00
1275.858, 50172.00
1276.931, 50486.00
1278.003, 50806.00
1279.076, 50972.00
1280.148, 51340.01
1281.221, 51844.00
1282.293, 51803.00
1283.365, 52641.00
1284.437, 52541.00
1285.509, 52877.00
1286.580, 53617.00
1287.652, 53535.00
1288.723, 53891.00
1289.794, 53928.00
1290.866, 53740.00
1291.937, 53553.00
1293.007, 53569.00
1294.078, 53389.15
1295.149, 53301.66
1296.219, 53218.00
1297.289, 53031.00
1298.360, 53015.00
1299.430, 52759.00
1300.500, 52652.00
1301.569, 52687.00
1302.639, 52451.39
1303.709, 52262.00
1304.778, 52149.00
1305.847, 52175.00
1306.916, 52032.00
1307.985, 51699.00
1309.054, 51782.00
1310.123, 51732.00
1311.191, 51725.00
1312.260, 52018.00
1313.328, 51989.00
1314.396, 51878.00
1315.464, 52023.00
1316.532, 51652.00
1317.600, 51443.00
1318.668, 51214.00
1319.735, 51727.00
1320.802, 51187.00
1321.870, 51278.00
1322.937, 50919.00
1324.004, 50966.00
1325.071, 51094.00
1326.137, 51011.00
1327.204, 50957.00
1328.270, 51237.00
1329.337, 51117.00
1330.403, 51329.00
1331.469, 51140.00
1332.535, 50969.00
1333.601, 51143.00
1334.666, 50864.00
1335.732, 51112.00
1336.797, 50815.00
1337.862, 50862.00
1338.927, 50699.00
1339.992, 50866.00
1341.057, 51110.00
1342.122, 51150.00
1343.187, 50937.00
1344.251, 51176.00
1345.315, 51080.00
1346.380, 51361.00
1347.444, 51325.00
1348.508, 51475.00
1349.571, 51293.00
1350.635, 51261.00
1351.699, 51286.66
1352.762, 51264.00
1353.825, 51237.00
1354.888, 51133.00
1355.951, 51007.00
1357.014, 51125.00
1358.077, 51200.00
1359.140, 51128.00
1360.202, 51121.57
1361.264, 51436.63
1362.327, 51620.92
1363.389, 51681.41
1364.451, 51247.43
1365.513, 51451.96
1366.574, 51400.59
1367.636, 51338.75
1368.697, 51633.14
1369.759, 51271.08
1370.820, 51559.81
1371.881, 51588.76
1372.942, 51736.61
1374.002, 51626.97
1375.063, 51596.87
1376.124, 51824.32
1377.184, 51909.15
1378.244, 51769.88
1379.304, 51925.26
1380.364, 51554.18
1381.424, 51645.08
1382.484, 51935.31
1383.544, 51808.98
1384.603, 51969.06
1385.663, 52020.07
1386.722, 51575.30
1387.781, 51992.71
1388.840, 52037.26
1389.899, 51698.96
1390.957, 52086.81
1392.016, 51801.29
1393.074, 51756.11
1394.133, 51781.00
1395.191, 51736.00
1396.249, 51159.00
1397.307, 52018.00
1398.365, 51603.00
1399.422, 51993.00
1400.480, 51703.00
1401.537, 52077.00
1402.595, 51832.00
1403.652, 52049.00
1404.709, 52063.00
1405.766, 52253.00
1406.823, 52182.00
1407.879, 52221.48
1408.936, 52225.00
1409.992, 52185.00
1411.048, 52269.00
1412.104, 52256.00
1413.160, 52376.00
1414.216, 52336.00
1415.272, 52254.00
1416.328, 52409.19
1417.383, 52309.00
1418.439, 52619.00
1419.494, 52640.00
1420.549, 52711.00
1421.604, 52599.00
1422.659, 53260.00
1423.713, 52998.00
1424.768, 53209.00
1425.822, 53339.00
1426.877, 53084.00
1427.931, 53381.00
1428.985, 53360.00
1430.039, 54064.00
1431.093, 53862.00
1432.147, 54401.00
1433.200, 54834.00
1434.254, 54798.00
1435.307, 55107.00
1436.360, 55187.00
1437.413, 55696.00
1438.466, 55844.28
1439.519, 56105.00
1440.572, 56465.00
1441.624, 56522.00
1442.677, 57121.00
1443.729, 57259.00
1444.781, 57237.00
1445.833, 57334.00
1446.885, 56909.00
1447.937, 56783.00
1448.988, 56800.00
1450.040, 56961.00
1451.091, 56501.00
1452.143, 56438.00
1453.194, 56460.00
1454.245, 56776.00
1455.296, 56636.00
1456.347, 56700.00
1457.397, 56345.00
1458.448, 56237.00
1459.498, 56557.00
1460.549, 56119.00
1461.599, 56036.00
1462.649, 56133.00
1463.699, 55594.00
1464.748, 55596.00
1465.798, 55715.00
1466.848, 55554.00
1467.897, 55416.00
1468.946, 55535.00
1469.995, 55531.00
1471.044, 55325.00
1472.093, 55000.00
1473.142, 55227.00
1474.191, 55312.00
1475.239, 55094.00
1476.288, 55334.00
1477.336, 55130.00
1478.384, 55078.00
1479.432, 54805.00
1480.480, 54710.00
1481.528, 54743.00
1482.575, 54747.00
1483.623, 54872.00
1484.670, 55041.14
1485.718, 55354.91
1486.765, 55537.87
1487.812, 55597.06
1488.859, 55161.76
1489.905, 55364.97
1490.952, 55312.31
1491.999, 55249.15
1493.045, 55542.23
1494.091, 55178.84
1495.137, 55466.27
1496.183, 55493.90
1497.229, 55640.44
1498.275, 55529.50
1499.321, 55498.09
1500.366, 54797.00
1501.412, 54778.00
1502.457, 55412.00
1503.502, 54742.00
1504.547, 55241.00
1505.592, 55196.00
1506.637, 55240.00
1507.682, 55104.00
1508.726, 54818.00
1509.771, 55302.00
1510.815, 55082.00
1511.859, 55069.00
1512.903, 55310.00
1513.947, 55068.00
1514.991, 55016.00
1516.034, 55144.00
1517.078, 55326.00
1518.121, 55365.00
1519.165, 55164.00
1520.208, 55428.00
1521.251, 55429.00
1522.294, 55614.00
1523.337, 55460.00
1524.379, 55592.00
1525.422, 55608.00
1526.464, 55419.00
1527.507, 55689.00
1528.549, 55733.00
1529.591, 55148.00
1530.633, 55749.00
1531.675, 55455.00
1532.717, 55660.00
1533.758, 55758.00
1534.800, 55579.00
1535.841, 55631.00
1536.882, 55420.00
1537.923, 55801.00
1538.964, 55770.00
1540.005, 55712.00
1541.046, 55893.00
1542.087, 55828.50
1543.127, 56170.61
1544.167, 56381.93
1545.208, 56469.51
1546.248, 56062.58
1547.288, 56294.15
1548.328, 56269.85
1549.367, 56235.00
1550.407, 56556.45
1551.447, 56221.44
1552.486, 56537.20
1553.525, 56593.16
1554.564, 56768.02
1555.603, 56685.42
1556.642, 56682.34
1557.681, 56936.82
1558.720, 57048.68
1559.758, 56936.40
1560.797, 57118.82
1561.835, 56774.72
1562.873, 56892.62
1563.911, 57209.84
1564.949, 57110.50
1565.987, 57297.60
1567.025, 57375.60
1568.062, 56957.80
1569.100, 57402.21
1570.137, 57473.73
1571.174, 57162.39
1572.212, 56648.00
1573.248, 57358.00
1574.285, 56950.00
1575.322, 57422.00
1576.359, 57080.00
1577.395, 57420.00
1578.432, 57270.00
1579.468, 57283.00
1580.504, 57713.00
1581.540, 57634.00
##END=



