##NAMES=Fluor-uvite
##RRUFFID=R050172
##IDEAL CHEMISTRY=CaMg_3_(Al_5_Mg)(Si_6_O_18_)(BO_3_)_3_(OH)_3_F
##LOCALITY=Pierrepont, New York, USA
##OWNER=RRUFF
##SOURCE=Marcus Origlieri
##DESCRIPTION=Black prismatic crystal
##STATUS=The identification of this mineral has been confirmed by X-ray diffraction and chemical analysis
##URL=rruff.info/R050172
##MEASURED CHEMISTRY=(Ca_0.64_Na_0.36_)(Mg_0.56_Fe^2+^_0.34_Al_0.08_Ti_0.02_)_3_(Mg_1.00_Al_5.00_)(BO_3_)_3_Si_6.00_O_18_((OH)_3.45_F_0.55_)
##PIN_ID=M00231
##ORIENTATION=Laser parallel to c* (0 0 1). Fiducial mark perpendicular to laser is parallel to -a [-1 0 0]
163.7180, 22745.00
164.9490, 22733.00
166.1800, 22641.00
167.4110, 22492.00
168.6410, 22399.00
169.8720, 22220.00
171.1020, 22092.00
172.3320, 21986.00
173.5620, 21700.00
174.7910, 21626.00
176.0210, 21437.00
177.2500, 21328.00
178.4790, 21318.00
179.7080, 21189.51
180.9370, 21092.00
182.1650, 21121.00
183.3940, 21080.00
184.6220, 21191.00
185.8500, 20986.00
187.0780, 21095.00
188.3050, 21039.00
189.5330, 20926.00
190.7600, 20725.00
191.9870, 20930.00
193.2140, 20846.00
194.4410, 20873.00
195.6680, 20731.00
196.8940, 21018.00
198.1200, 20707.00
199.3470, 20996.00
200.5720, 21225.00
201.7980, 21444.00
203.0240, 21354.00
204.2490, 21139.00
205.4740, 20838.00
206.6990, 20575.00
207.9240, 20437.00
209.1490, 20457.00
210.3740, 20270.00
211.5980, 20390.00
212.8220, 20296.00
214.0460, 20032.00
215.2700, 19823.00
216.4930, 19667.00
217.7170, 19396.00
218.9400, 19031.00
220.1630, 18876.00
221.3860, 18906.00
222.6090, 18484.00
223.8320, 18253.00
225.0540, 18281.00
226.2760, 18042.00
227.4980, 17906.00
228.7200, 17687.00
229.9420, 17453.00
231.1630, 17541.00
232.3850, 17431.00
233.6060, 17399.00
234.8270, 17218.00
236.0480, 17090.00
237.2690, 17078.00
238.4890, 17038.00
239.7090, 16928.00
240.9290, 16919.00
242.1490, 16700.00
243.3690, 16529.00
244.5890, 16383.00
245.8080, 16117.00
247.0270, 16025.00
248.2470, 16102.00
249.4650, 15667.00
250.6840, 15700.00
251.9030, 15777.00
253.1210, 15581.00
254.3390, 15463.00
255.5570, 15497.00
256.7750, 15565.00
257.9930, 15698.00
259.2100, 15729.23
260.4280, 15651.21
261.6450, 15816.00
262.8620, 15466.00
264.0790, 15395.00
265.2950, 15427.00
266.5120, 15286.00
267.7280, 15325.00
268.9440, 15209.00
270.1600, 15059.00
271.3760, 15156.00
272.5920, 15022.00
273.8070, 14893.00
275.0220, 14902.00
276.2370, 15049.00
277.4520, 14939.00
278.6670, 14949.00
279.8820, 14883.00
281.0960, 14759.65
282.3100, 14796.00
283.5240, 14564.00
284.7380, 14650.00
285.9520, 14701.00
287.1650, 14645.00
288.3780, 14719.00
289.5920, 14486.00
290.8050, 14400.00
292.0170, 14493.00
293.2300, 14457.00
294.4430, 14514.00
295.6550, 14384.00
296.8670, 14521.00
298.0790, 14584.00
299.2910, 14428.00
300.5020, 14599.00
301.7140, 14516.00
302.9250, 14631.00
304.1360, 14736.00
305.3470, 14635.00
306.5580, 14812.00
307.7680, 14730.00
308.9780, 14785.00
310.1890, 15070.00
311.3990, 15007.00
312.6090, 15043.00
313.8180, 15237.00
315.0280, 15062.00
316.2370, 15189.00
317.4460, 15371.00
318.6550, 15530.00
319.8640, 15384.00
321.0730, 15535.00
322.2810, 15544.00
323.4890, 15753.00
324.6980, 15765.00
325.9060, 15895.00
327.1130, 15850.00
328.3210, 16055.00
329.5280, 16056.00
330.7360, 16150.00
331.9430, 16026.00
333.1500, 16130.00
334.3560, 16202.00
335.5630, 16171.00
336.7690, 16271.00
337.9760, 16191.00
339.1820, 16343.00
340.3870, 16309.00
341.5930, 16364.00
342.7990, 16417.00
344.0040, 16464.00
345.2090, 16536.17
346.4140, 16599.85
347.6190, 16690.00
348.8240, 16783.00
350.0280, 16884.00
351.2330, 17057.00
352.4370, 16942.00
353.6410, 17036.00
354.8440, 17198.00
356.0480, 17161.00
357.2520, 17276.00
358.4550, 17523.00
359.6580, 17803.00
360.8610, 17925.00
362.0640, 18322.00
363.2660, 18292.00
364.4690, 18259.00
365.6710, 18554.00
366.8730, 18668.00
368.0750, 18756.00
369.2770, 18815.00
370.4780, 18964.00
371.6800, 18837.00
372.8810, 19017.00
374.0820, 18943.00
375.2830, 18744.00
376.4830, 18663.00
377.6840, 18533.00
378.8840, 18120.00
380.0840, 18088.00
381.2840, 17905.00
382.4840, 17673.00
383.6840, 17572.00
384.8830, 17442.00
386.0830, 17265.00
387.2820, 17229.00
388.4810, 16940.00
389.6800, 16965.00
390.8780, 16892.00
392.0770, 16616.00
393.2750, 16571.00
394.4730, 16404.00
395.6710, 16504.00
396.8690, 16178.00
398.0660, 16240.00
399.2640, 16067.00
400.4610, 16005.00
401.6580, 15896.00
402.8550, 15816.95
404.0520, 15835.00
405.2490, 15727.00
406.4450, 15639.00
407.6410, 15663.00
408.8370, 15646.00
410.0330, 15655.00
411.2290, 15650.00
412.4240, 15546.00
413.6200, 15507.00
414.8150, 15500.00
416.0100, 15334.00
417.2050, 15441.00
418.4000, 15390.00
419.5940, 15320.00
420.7880, 15395.00
421.9830, 15161.00
423.1770, 15134.00
424.3700, 15101.00
425.5640, 15010.00
426.7580, 15014.00
427.9510, 14919.00
429.1440, 14986.00
430.3370, 14937.00
431.5300, 14880.62
432.7220, 14860.00
433.9150, 14790.00
435.1070, 14723.00
436.2990, 14744.00
437.4910, 14629.00
438.6830, 14530.00
439.8750, 14712.00
441.0660, 14871.00
442.2570, 14770.00
443.4480, 14739.00
444.6390, 14653.00
445.8300, 14754.00
447.0210, 14732.00
448.2110, 14813.00
449.4010, 14832.90
450.5910, 14849.36
451.7810, 14865.00
452.9710, 14873.00
454.1610, 14861.00
455.3500, 14835.00
456.5390, 14746.00
457.7280, 14965.00
458.9170, 14876.00
460.1060, 14966.00
461.2940, 15058.00
462.4830, 14968.00
463.6710, 14992.00
464.8590, 15120.00
466.0470, 15121.00
467.2350, 15186.00
468.4220, 15193.00
469.6090, 15109.00
470.7970, 15233.00
471.9840, 15248.24
473.1700, 15372.00
474.3570, 15393.00
475.5440, 15497.00
476.7300, 15563.00
477.9160, 15414.00
479.1020, 15527.00
480.2880, 15493.00
481.4740, 15473.00
482.6590, 15471.00
483.8440, 15552.00
485.0300, 15780.00
486.2140, 15655.00
487.3990, 15758.00
488.5840, 15613.00
489.7680, 15737.00
490.9530, 15598.00
492.1370, 16011.00
493.3210, 15715.00
494.5040, 15994.00
495.6880, 15856.00
496.8720, 15876.00
498.0550, 15817.00
499.2380, 15796.00
500.4210, 15773.00
501.6040, 15894.00
502.7860, 15882.00
503.9690, 15905.00
505.1510, 15914.00
506.3330, 15615.00
507.5150, 15622.00
508.6970, 15710.00
509.8780, 15587.00
511.0600, 15763.00
512.2410, 15753.25
513.4220, 15897.00
514.6030, 15806.00
515.7840, 15922.00
516.9640, 15875.00
518.1440, 16081.00
519.3250, 16009.00
520.5050, 16006.00
521.6850, 16093.00
522.8640, 16173.00
524.0440, 16187.00
525.2230, 16353.00
526.4020, 16441.00
527.5820, 16421.00
528.7600, 16511.00
529.9390, 16536.00
531.1180, 16328.00
532.2960, 16657.00
533.4740, 16553.00
534.6520, 16408.00
535.8300, 16626.00
537.0080, 16698.00
538.1850, 16524.00
539.3630, 16676.00
540.5400, 16694.00
541.7170, 16743.00
542.8940, 16853.00
544.0700, 16669.00
545.2470, 16710.00
546.4230, 16686.00
547.5990, 16674.00
548.7750, 16890.00
549.9510, 16530.00
551.1270, 16500.00
552.3020, 16725.00
553.4780, 16681.00
554.6530, 16688.00
555.8280, 16422.00
557.0030, 16763.00
558.1770, 16505.00
559.3520, 16430.00
560.5260, 16466.00
561.7000, 16470.00
562.8740, 16449.00
564.0480, 16444.00
565.2220, 16412.33
566.3950, 16523.00
567.5680, 16346.00
568.7420, 16328.00
569.9150, 16306.00
571.0870, 16585.00
572.2600, 16527.00
573.4320, 16438.00
574.6050, 16372.00
575.7770, 16315.00
576.9490, 16191.00
578.1210, 16190.00
579.2920, 16103.74
580.4640, 16101.97
581.6350, 16052.00
582.8060, 16077.00
583.9770, 16197.00
585.1480, 16108.00
586.3190, 16194.00
587.4890, 16173.00
588.6590, 16108.54
589.8290, 16043.00
590.9990, 15952.00
592.1690, 15901.10
593.3390, 15830.00
594.5080, 15784.27
595.6770, 15733.00
596.8470, 15677.00
598.0160, 15595.00
599.1840, 15613.00
600.3530, 15534.00
601.5210, 15589.00
602.6900, 15624.00
603.8580, 15637.00
605.0260, 15579.00
606.1930, 15559.00
607.3610, 15577.00
608.5280, 15479.00
609.6960, 15534.00
610.8630, 15662.00
612.0300, 15530.00
613.1970, 15609.00
614.3630, 15559.00
615.5300, 15396.00
616.6960, 15521.00
617.8620, 15546.00
619.0280, 15448.00
620.1940, 15357.00
621.3590, 15327.00
622.5250, 15204.00
623.6900, 15282.00
624.8550, 15104.00
626.0200, 14960.00
627.1850, 15123.00
628.3490, 14902.00
629.5140, 14826.00
630.6780, 14804.00
631.8420, 14700.00
633.0060, 14742.00
634.1700, 14729.00
635.3330, 14672.00
636.4970, 14624.00
637.6600, 14466.00
638.8230, 14559.00
639.9860, 14500.00
641.1490, 14594.00
642.3110, 14617.33
643.4740, 14538.00
644.6360, 14650.00
645.7980, 14687.00
646.9600, 14603.00
648.1220, 14507.00
649.2840, 14734.00
650.4450, 14779.00
651.6060, 14988.00
652.7670, 14963.00
653.9280, 15197.00
655.0890, 14992.00
656.2500, 15105.00
657.4100, 15322.00
658.5700, 15335.00
659.7300, 15392.56
660.8900, 15197.00
662.0500, 15332.00
663.2100, 15225.00
664.3690, 15071.00
665.5280, 14990.00
666.6880, 15035.00
667.8460, 14945.00
669.0050, 14873.00
670.1640, 14915.00
671.3220, 14886.00
672.4810, 14940.00
673.6390, 14896.00
674.7970, 14817.00
675.9540, 14939.00
677.1120, 14869.00
678.2690, 14998.00
679.4270, 14980.00
680.5840, 15088.00
681.7410, 15089.00
682.8980, 15087.00
684.0540, 15180.00
685.2110, 15184.00
686.3670, 15144.00
687.5230, 15205.00
688.6790, 15421.00
689.8350, 15283.00
690.9900, 15395.00
692.1460, 15658.00
693.3010, 15660.00
694.4560, 15801.03
695.6110, 15779.00
696.7660, 15956.00
697.9210, 16018.00
699.0750, 16086.00
700.2290, 16273.00
701.3840, 16323.00
702.5370, 16387.00
703.6910, 16653.00
704.8450, 16833.00
705.9980, 17040.00
707.1520, 17193.00
708.3050, 17364.00
709.4580, 17780.00
710.6110, 18132.00
711.7630, 18553.00
712.9160, 18879.47
714.0680, 19201.97
715.2200, 19629.00
716.3720, 19904.00
717.5240, 20477.00
718.6760, 21078.00
719.8270, 21517.00
720.9780, 22330.00
722.1300, 22452.00
723.2810, 22747.00
724.4310, 22812.00
725.5820, 23308.00
726.7330, 23188.00
727.8830, 23204.00
729.0330, 23140.00
730.1830, 23000.00
731.3330, 22993.00
732.4830, 22951.41
733.6320, 23112.00
734.7810, 22901.00
735.9310, 23082.00
737.0800, 22987.00
738.2290, 23027.00
739.3770, 22893.00
740.5260, 22850.00
741.6740, 22691.00
742.8220, 22486.00
743.9700, 22760.00
745.1180, 22758.00
746.2660, 22890.00
747.4130, 22702.00
748.5610, 23050.38
749.7080, 22969.00
750.8550, 22977.00
752.0020, 23133.65
753.1490, 23111.94
754.2950, 23273.00
755.4420, 23208.00
756.5880, 23236.00
757.7340, 23233.00
758.8800, 23265.00
760.0250, 23278.00
761.1710, 23179.00
762.3160, 23224.00
763.4620, 23391.00
764.6070, 23518.00
765.7520, 23687.00
766.8960, 23750.00
768.0410, 23805.00
769.1850, 23858.00
770.3300, 23713.00
771.4740, 23670.61
772.6180, 23575.00
773.7610, 23309.00
774.9050, 23160.00
776.0480, 22753.00
777.1920, 22365.00
778.3350, 22097.00
779.4780, 21608.00
780.6200, 21080.00
781.7630, 20826.00
782.9060, 20293.00
784.0480, 20316.00
785.1900, 19998.00
786.3320, 19744.00
787.4740, 19461.00
788.6150, 19405.00
789.7570, 19223.00
790.8980, 19098.00
792.0390, 18831.58
793.1800, 18581.00
794.3210, 18257.00
795.4620, 17976.00
796.6020, 17736.00
797.7420, 17482.83
798.8830, 17560.00
800.0230, 17029.00
801.1620, 16749.00
802.3020, 16488.00
803.4420, 15976.00
804.5810, 15745.00
805.7200, 15483.00
806.8590, 15218.00
807.9980, 14971.00
809.1370, 14774.03
810.2750, 14901.00
811.4140, 14517.00
812.5520, 14245.00
813.6900, 14341.00
814.8280, 14057.00
815.9650, 13875.00
817.1030, 13746.00
818.2400, 13666.00
819.3780, 13672.00
820.5150, 13515.00
821.6520, 13251.00
822.7880, 13336.00
823.9250, 13069.00
825.0610, 13139.00
826.1980, 13008.00
827.3340, 12969.00
828.4700, 12807.00
829.6050, 12775.00
830.7410, 12710.00
831.8760, 12625.00
833.0120, 12588.00
834.1470, 12381.09
835.2820, 12602.77
836.4160, 12730.31
837.5510, 12768.81
838.6860, 12451.50
839.8200, 12593.63
840.9540, 12551.63
842.0880, 12502.09
843.2220, 12708.88
844.3550, 12443.31
845.4890, 12646.04
846.6220, 12661.83
847.7550, 12763.18
848.8880, 12679.26
850.0210, 12652.57
851.1540, 12811.19
852.2860, 12867.20
853.4190, 12532.00
854.5510, 12579.00
855.6830, 12468.00
856.8150, 12492.00
857.9460, 12562.00
859.0780, 12663.00
860.2090, 12642.42
861.3410, 12533.00
862.4720, 12617.00
863.6020, 12573.00
864.7330, 12525.00
865.8640, 12742.00
866.9940, 12643.00
868.1240, 12639.00
869.2540, 12850.00
870.3840, 12566.00
871.5140, 12644.00
872.6440, 12694.00
873.7730, 12859.00
874.9020, 12824.42
876.0320, 12689.00
877.1600, 12774.00
878.2890, 12745.00
879.4180, 12662.00
880.5460, 12785.00
881.6750, 12899.00
882.8030, 12762.00
883.9310, 12871.00
885.0590, 12822.00
886.1860, 12785.00
887.3140, 12735.00
888.4410, 12763.00
889.5680, 12884.00
890.6950, 12977.00
891.8220, 12973.00
892.9490, 13027.00
894.0750, 13051.00
895.2020, 13028.00
896.3280, 13063.53
897.4540, 13044.57
898.5800, 13094.00
899.7050, 13052.00
900.8310, 13087.00
901.9560, 13164.00
903.0820, 13127.00
904.2070, 13234.00
905.3320, 13120.00
906.4560, 13251.00
907.5810, 13199.00
908.7050, 13397.00
909.8300, 13277.00
910.9540, 13224.00
912.0780, 13417.00
913.2010, 13583.00
914.3250, 13531.74
915.4480, 13506.00
916.5720, 13525.00
917.6950, 13530.00
918.8180, 13557.00
919.9410, 13573.00
921.0630, 13397.00
922.1860, 13573.00
923.3080, 13500.00
924.4300, 13572.00
925.5520, 13680.00
926.6740, 13715.00
927.7960, 13757.00
928.9170, 13842.00
930.0390, 13705.00
931.1600, 13855.00
932.2810, 13873.00
933.4020, 13821.00
934.5230, 14074.00
935.6430, 14016.00
936.7640, 14097.00
937.8840, 13951.00
939.0040, 14066.00
940.1240, 14210.00
941.2440, 14220.00
942.3630, 14126.00
943.4830, 14249.00
944.6020, 14348.00
945.7210, 14262.00
946.8400, 14507.00
947.9590, 14577.00
949.0770, 14639.00
950.1960, 14590.00
951.3140, 14854.00
952.4320, 14858.00
953.5500, 14773.00
954.6680, 14884.00
955.7860, 15051.00
956.9030, 14895.00
958.0210, 15161.00
959.1380, 15088.00
960.2550, 15216.00
961.3720, 15295.00
962.4890, 15307.00
963.6050, 15244.00
964.7220, 15313.00
965.8380, 15394.00
966.9540, 15443.00
968.0700, 15535.00
969.1860, 15443.00
970.3010, 15487.00
971.4170, 15624.00
972.5320, 15443.00
973.6470, 15427.00
974.7620, 15453.00
975.8770, 15767.00
976.9910, 15707.00
978.1060, 15565.00
979.2200, 15685.00
980.3340, 15543.00
981.4480, 15574.00
982.5620, 15526.00
983.6760, 15591.00
984.7890, 15479.00
985.9030, 15514.31
987.0160, 15527.40
988.1290, 15499.00
989.2420, 15493.27
990.3550, 15490.00
991.4670, 15420.00
992.5800, 15368.00
993.6920, 15304.89
994.8040, 15374.00
995.9160, 15278.00
997.0280, 15250.00
998.1390, 15444.00
999.2510, 15165.00
1000.362, 15358.00
1001.473, 15294.00
1002.584, 15077.00
1003.695, 15146.00
1004.805, 15206.00
1005.916, 15255.00
1007.026, 15146.00
1008.136, 15262.00
1009.246, 14964.40
1010.356, 15209.56
1011.466, 15360.59
1012.576, 15422.57
1013.685, 15128.71
1014.794, 15294.31
1015.903, 15275.77
1017.012, 15249.69
1018.121, 15479.95
1019.229, 15237.82
1020.338, 15464.01
1021.446, 15361.00
1022.554, 15486.00
1023.662, 15429.00
1024.770, 15329.00
1025.878, 15582.00
1026.985, 15581.00
1028.092, 15583.00
1029.200, 15597.00
1030.307, 15495.00
1031.413, 15666.00
1032.520, 15627.00
1033.627, 15508.00
1034.733, 15924.00
1035.839, 15718.00
1036.945, 15859.00
1038.051, 15912.00
1039.157, 15734.00
1040.262, 15805.00
1041.368, 15797.06
1042.473, 15964.00
1043.578, 15851.00
1044.683, 15863.00
1045.788, 15881.00
1046.893, 15926.00
1047.997, 15921.00
1049.101, 16001.00
1050.205, 15963.00
1051.309, 15980.00
1052.413, 15943.00
1053.517, 15865.00
1054.621, 15885.38
1055.724, 15984.00
1056.827, 15867.00
1057.930, 15896.00
1059.033, 15874.00
1060.136, 16006.00
1061.238, 15968.00
1062.341, 16050.00
1063.443, 16128.00
1064.545, 15991.00
1065.647, 15912.00
1066.749, 15991.00
1067.850, 15935.00
1068.952, 16060.00
1070.053, 15908.00
1071.154, 15951.00
1072.255, 15825.00
1073.356, 15860.00
1074.457, 15831.00
1075.557, 15691.00
1076.658, 15674.00
1077.758, 15569.00
1078.858, 15574.00
1079.958, 15426.00
1081.057, 15591.00
1082.157, 15554.00
1083.256, 15424.00
1084.356, 15401.00
1085.455, 15379.00
1086.554, 15424.00
1087.653, 15365.99
1088.751, 15338.00
1089.850, 15235.00
1090.948, 15383.00
1092.046, 15213.00
1093.144, 15100.00
1094.242, 15281.00
1095.340, 15109.00
1096.437, 15152.00
1097.534, 15298.00
1098.632, 14958.00
1099.729, 14958.00
1100.826, 14952.00
1101.922, 14864.07
1103.019, 14832.29
1104.115, 14874.00
1105.212, 14749.00
1106.308, 14712.00
1107.404, 14783.00
1108.499, 14727.00
1109.595, 14607.00
1110.691, 14447.00
1111.786, 14507.00
1112.881, 14540.00
1113.976, 14338.00
1115.071, 14409.00
1116.166, 14282.00
1117.260, 14290.11
1118.355, 14320.00
1119.449, 14345.00
1120.543, 14335.00
1121.637, 14347.80
1122.731, 14334.59
1123.824, 14340.00
1124.918, 14300.00
1126.011, 14290.49
1127.104, 14271.83
1128.197, 14331.00
1129.290, 14104.00
1130.382, 14106.00
1131.475, 13954.00
1132.567, 14041.00
1133.659, 14003.00
1134.751, 13955.91
1135.843, 13964.00
1136.935, 13915.00
1138.027, 13941.00
1139.118, 13969.00
1140.209, 13980.00
1141.300, 14076.00
1142.391, 14031.00
1143.482, 13901.00
1144.573, 13971.00
1145.663, 13962.00
1146.754, 13916.00
1147.844, 13937.00
1148.934, 13878.00
1150.024, 13849.00
1151.113, 13850.00
1152.203, 13734.00
1153.292, 13937.00
1154.381, 13861.00
1155.470, 14046.00
1156.559, 13990.41
1157.648, 13920.00
1158.737, 13898.00
1159.825, 13795.00
1160.913, 13758.00
1162.001, 13941.00
1163.089, 13859.81
1164.177, 13830.62
1165.265, 13925.00
1166.352, 13729.00
1167.440, 13812.00
1168.527, 13902.00
1169.614, 13850.00
1170.701, 13797.00
1171.788, 13745.00
1172.874, 13731.41
1173.961, 13835.00
1175.047, 13725.00
1176.133, 13767.00
1177.219, 13791.00
1178.305, 13731.00
1179.390, 13796.00
1180.476, 13764.00
1181.561, 13822.00
1182.646, 13793.27
1183.731, 13710.00
1184.816, 13748.00
1185.901, 13703.00
1186.985, 13699.00
1188.070, 13733.00
1189.154, 13725.00
1190.238, 13728.00
1191.322, 13733.00
1192.406, 13699.00
1193.489, 13663.00
1194.573, 13685.00
1195.656, 13789.00
1196.739, 13917.00
1197.822, 13753.00
1198.905, 13924.00
1199.988, 13721.00
1201.070, 13867.00
1202.153, 13778.00
1203.235, 13930.00
1204.317, 13725.00
1205.399, 13924.00
1206.481, 14006.00
1207.562, 13955.00
1208.644, 13997.00
1209.725, 14123.00
1210.806, 14120.00
1211.887, 14103.00
1212.968, 14020.00
1214.049, 14018.00
1215.129, 14097.00
1216.209, 14148.00
1217.290, 14196.00
1218.370, 14254.00
1219.450, 14161.00
1220.529, 14192.00
1221.609, 14287.00
1222.688, 14225.00
1223.768, 14376.00
1224.847, 14347.00
1225.926, 14568.00
1227.005, 14527.00
1228.083, 14305.00
1229.162, 14455.00
1230.240, 14348.00
1231.318, 14602.00
1232.396, 14432.00
1233.474, 14462.00
1234.552, 14367.00
1235.629, 14486.00
1236.707, 14543.00
1237.784, 14644.00
1238.861, 14572.00
1239.938, 14675.00
1241.015, 14692.00
1242.092, 14480.00
1243.168, 14634.00
1244.244, 14653.00
1245.321, 14492.00
1246.397, 14441.00
1247.473, 14525.00
1248.548, 14505.00
1249.624, 14520.00
1250.699, 14554.00
1251.775, 14583.88
1252.850, 14440.00
1253.925, 14611.00
1254.999, 14596.00
1256.074, 14446.00
1257.148, 14574.00
1258.223, 14524.00
1259.297, 14465.00
1260.371, 14379.00
1261.445, 14379.00
1262.519, 14337.43
1263.592, 14397.00
1264.666, 14346.00
1265.739, 14368.20
1266.812, 14450.00
1267.885, 14390.00
1268.958, 14422.00
1270.030, 14495.00
1271.103, 14403.00
1272.175, 14378.00
1273.247, 14358.00
1274.319, 14342.00
1275.391, 14355.19
1276.463, 14359.00
1277.535, 14387.00
1278.606, 14348.00
1279.677, 14339.00
1280.748, 14367.71
1281.819, 14347.00
1282.890, 14382.00
1283.961, 14323.00
1285.031, 14242.00
1286.102, 14225.00
1287.172, 14195.11
1288.242, 14360.00
1289.312, 14162.00
1290.381, 14311.00
1291.451, 14267.00
1292.520, 14337.00
1293.590, 14249.00
1294.659, 14304.00
1295.728, 14345.00
1296.797, 14455.00
1297.865, 14372.00
1298.934, 14341.00
1300.002, 14326.00
1301.070, 14283.00
1302.138, 14337.00
1303.206, 14104.00
1304.274, 14321.00
1305.341, 14152.00
1306.409, 14230.00
1307.476, 14393.00
1308.543, 14231.00
1309.610, 14129.00
1310.677, 14303.00
1311.744, 14341.00
1312.810, 14334.00
1313.877, 14267.00
1314.943, 14126.00
1316.009, 14181.00
1317.075, 14287.00
1318.140, 14220.00
1319.206, 14303.00
1320.272, 14181.00
1321.337, 14300.00
1322.402, 14050.00
1323.467, 14295.00
1324.532, 14348.00
1325.596, 14225.00
1326.661, 14230.00
1327.725, 14312.00
1328.790, 14190.00
1329.854, 14138.00
1330.918, 14121.00
1331.981, 14082.33
1333.045, 14110.26
1334.108, 14086.00
1335.172, 14172.00
1336.235, 14192.00
1337.298, 14194.00
1338.361, 14226.00
1339.423, 14093.00
1340.486, 14298.00
1341.548, 14177.00
1342.611, 14133.00
1343.673, 14361.00
1344.735, 14081.00
1345.796, 14164.00
1346.858, 14291.00
1347.919, 14122.00
1348.981, 14237.00
1350.042, 14252.00
1351.103, 14195.00
1352.164, 14154.00
1353.225, 14219.00
1354.285, 14256.00
1355.346, 14234.00
1356.406, 14146.00
1357.466, 14206.00
1358.526, 14268.00
1359.586, 14169.00
1360.645, 14280.00
1361.705, 14137.00
1362.764, 14285.00
1363.823, 14233.00
1364.882, 14136.00
1365.941, 14030.00
1367.000, 14228.00
1368.059, 14294.00
1369.117, 14249.00
1370.175, 14235.00
1371.233, 14309.00
1372.291, 14187.00
1373.349, 14246.00
1374.407, 14213.92
1375.464, 14420.62
1376.522, 14533.20
1377.579, 14556.73
1378.636, 14224.46
1379.693, 14351.63
1380.750, 14294.68
1381.806, 14230.18
1382.863, 14422.02
1383.919, 14141.50
1384.975, 14329.28
1386.031, 14330.13
1387.087, 14416.53
1388.143, 14317.67
1389.199, 14276.02
1390.254, 14419.71
1391.309, 14460.79
1392.364, 14340.61
1393.419, 14432.45
1394.474, 14145.47
1395.529, 14190.92
1396.583, 14379.79
1397.638, 14268.93
1398.692, 14364.17
1399.746, 14170.00
1400.800, 14090.00
1401.853, 14115.00
1402.907, 14106.00
1403.960, 14168.00
1405.014, 14121.00
1406.067, 13948.00
1407.120, 14162.00
1408.173, 14049.00
1409.225, 13961.00
1410.278, 14117.00
1411.330, 14050.00
1412.383, 14058.00
1413.435, 14064.00
1414.487, 14028.00
1415.538, 14127.00
1416.590, 14028.00
1417.641, 14088.00
1418.693, 14076.00
1419.744, 14060.11
1420.795, 14094.25
1421.846, 14075.00
1422.897, 14128.00
1423.947, 14168.00
1424.998, 14197.00
1426.048, 14290.00
1427.098, 14261.95
1428.148, 14280.00
1429.198, 14207.00
1430.247, 14308.00
1431.297, 14238.00
1432.346, 14216.00
1433.396, 14302.00
1434.445, 14233.00
1435.494, 14182.00
1436.542, 14325.00
1437.591, 14241.00
1438.639, 14130.00
1439.688, 14371.00
1440.736, 14250.00
1441.784, 14426.00
1442.832, 14078.00
1443.880, 14450.00
1444.927, 14342.00
1445.975, 14359.00
1447.022, 14439.00
1448.069, 14466.00
1449.116, 14405.00
1450.163, 14390.00
1451.209, 14427.00
1452.256, 14348.00
1453.302, 14402.00
1454.348, 14335.00
1455.394, 14486.00
1456.440, 14524.00
1457.486, 14429.00
1458.532, 14420.00
1459.577, 14500.00
1460.623, 14527.00
1461.668, 14417.00
1462.713, 14524.00
1463.758, 14329.00
1464.802, 14347.00
1465.847, 14307.00
1466.891, 14500.00
1467.936, 14461.00
1468.980, 14415.00
1470.024, 14550.00
1471.067, 14417.78
1472.111, 14404.91
1473.155, 14324.00
1474.198, 14300.00
1475.241, 14393.00
1476.284, 14430.00
1477.327, 14443.00
1478.370, 14477.00
1479.413, 14315.00
1480.455, 14422.00
1481.497, 14345.00
1482.540, 14459.00
1483.582, 14441.00
1484.624, 14440.00
1485.665, 14360.00
1486.707, 14383.00
1487.748, 14364.00
1488.790, 14319.00
1489.831, 14329.00
1490.872, 14382.00
1491.912, 14405.00
1492.953, 14251.00
1493.994, 14591.00
1495.034, 14333.00
1496.074, 14475.00
1497.114, 14258.00
1498.154, 14497.00
1499.194, 14497.00
1500.234, 14475.00
1501.273, 14467.00
1502.313, 14345.00
1503.352, 14492.00
1504.391, 14546.00
1505.430, 14245.00
1506.468, 14228.00
1507.507, 14481.00
1508.545, 14435.00
1509.584, 14448.00
1510.622, 14425.00
1511.660, 14507.00
1512.698, 14464.00
1513.735, 14363.00
1514.773, 14508.00
1515.810, 14624.00
1516.848, 14474.00
1517.885, 14549.00
1518.922, 14501.00
1519.958, 14532.00
1520.995, 14510.00
1522.032, 14418.00
1523.068, 14471.00
1524.104, 14539.00
1525.140, 14513.00
1526.176, 14404.00
1527.212, 14429.00
1528.248, 14368.00
1529.283, 14244.00
1530.318, 14496.00
1531.353, 14349.00
1532.389, 14309.00
1533.423, 14375.00
1534.458, 14278.00
1535.493, 14326.00
1536.527, 14292.52
1537.561, 14255.66
1538.596, 14240.00
1539.630, 14189.00
##END=



