##NAMES=Fluorapatite
##RRUFFID=R050194
##IDEAL CHEMISTRY=Ca_5_(PO_4_)_3_F
##LOCALITY=Siglo XX mine, Llallagua, Bolivia
##OWNER=RRUFF
##SOURCE=Dave Bunk Minerals
##DESCRIPTION=Purple crystal fragments
##STATUS=The identification of this mineral has been confirmed by X-ray diffraction and chemical analysis
##URL=rruff.info/R050194
##MEASURED CHEMISTRY=Ca_5.00_(P_1.00_O_4_)_3_F_1.00_
##PIN_ID=L01106
##ORIENTATION=Laser parallel to -c* (0 0 -1). Fiducial mark perpendicular to laser is parallel to -a [-1 0 0]
134.1270, 4567.000
135.3560, 4629.000
136.5850, 4578.000
137.8140, 4587.000
139.0430, 4660.000
140.2710, 4713.000
141.5000, 4706.000
142.7280, 4739.000
143.9560, 4750.000
145.1840, 4707.000
146.4120, 4789.000
147.6390, 4815.000
148.8670, 4791.000
150.0940, 4791.000
151.3210, 4794.000
152.5490, 4798.000
153.7750, 4824.164
155.0020, 4863.000
156.2290, 4878.000
157.4550, 4900.000
158.6810, 4911.000
159.9080, 4926.000
161.1340, 4871.000
162.3590, 4930.000
163.5850, 4913.000
164.8110, 4940.891
166.0360, 5044.000
167.2610, 4987.000
168.4860, 5022.000
169.7110, 4999.000
170.9360, 5061.000
172.1610, 5075.000
173.3850, 5140.000
174.6100, 5077.000
175.8340, 5156.000
177.0580, 5186.000
178.2820, 5190.000
179.5050, 5255.000
180.7290, 5247.000
181.9520, 5298.000
183.1760, 5247.000
184.3990, 5289.616
185.6220, 5301.000
186.8450, 5361.000
188.0670, 5349.000
189.2900, 5376.308
190.5120, 5376.000
191.7340, 5399.000
192.9560, 5407.000
194.1780, 5412.000
195.4000, 5430.363
196.6220, 5433.000
197.8430, 5460.000
199.0640, 5479.712
200.2860, 5530.000
201.5070, 5534.000
202.7270, 5559.000
203.9480, 5592.496
205.1690, 5606.642
206.3890, 5648.000
207.6090, 5663.000
208.8290, 5642.000
210.0490, 5689.000
211.2690, 5736.000
212.4890, 5800.000
213.7080, 5678.000
214.9280, 5727.000
216.1470, 5826.000
217.3660, 5683.000
218.5850, 5781.000
219.8030, 5780.000
221.0220, 5836.000
222.2400, 5869.000
223.4590, 5859.000
224.6770, 5878.000
225.8950, 5911.000
227.1120, 5974.000
228.3300, 5946.000
229.5480, 5981.000
230.7650, 6068.000
231.9820, 6024.000
233.1990, 6130.000
234.4160, 6104.000
235.6330, 6055.000
236.8490, 6049.000
238.0660, 6154.000
239.2820, 6228.000
240.4980, 6154.000
241.7140, 6115.000
242.9300, 6160.000
244.1460, 6185.000
245.3610, 6167.000
246.5770, 6188.000
247.7920, 6231.000
249.0070, 6287.000
250.2220, 6350.000
251.4370, 6423.000
252.6510, 6316.000
253.8660, 6382.000
255.0800, 6353.000
256.2940, 6407.000
257.5080, 6382.000
258.7220, 6387.000
259.9360, 6476.000
261.1490, 6468.000
262.3630, 6493.064
263.5760, 6455.000
264.7890, 6537.000
266.0020, 6556.000
267.2150, 6634.000
268.4270, 6653.000
269.6400, 6673.000
270.8520, 6598.000
272.0640, 6692.000
273.2760, 6573.000
274.4880, 6728.000
275.7000, 6746.000
276.9120, 6707.000
278.1230, 6724.000
279.3340, 6779.000
280.5450, 6749.000
281.7560, 6860.000
282.9670, 6763.000
284.1780, 6785.000
285.3880, 6821.000
286.5980, 6960.000
287.8090, 6925.000
289.0190, 6988.000
290.2290, 7024.000
291.4380, 6973.000
292.6480, 6962.000
293.8570, 7000.000
295.0670, 7183.000
296.2760, 7072.000
297.4850, 7135.000
298.6930, 7039.000
299.9020, 7164.000
301.1110, 7162.000
302.3190, 7201.000
303.5270, 7254.000
304.7350, 7285.000
305.9430, 7292.269
307.1510, 7336.000
308.3580, 7301.000
309.5660, 7375.000
310.7730, 7413.000
311.9800, 7344.000
313.1870, 7462.000
314.3940, 7422.000
315.6010, 7421.000
316.8070, 7378.000
318.0130, 7330.000
319.2200, 7424.000
320.4260, 7454.000
321.6310, 7462.000
322.8370, 7573.000
324.0430, 7615.000
325.2480, 7550.000
326.4540, 7581.000
327.6590, 7546.000
328.8640, 7553.000
330.0680, 7695.000
331.2730, 7612.000
332.4780, 7627.000
333.6820, 7708.000
334.8860, 7664.000
336.0900, 7735.000
337.2940, 7732.000
338.4980, 7756.959
339.7010, 7852.000
340.9050, 7825.000
342.1080, 7821.000
343.3110, 7869.000
344.5140, 7905.818
345.7170, 7964.000
346.9200, 8024.000
348.1220, 7997.000
349.3240, 8006.000
350.5270, 8055.000
351.7290, 8051.000
352.9310, 8082.000
354.1320, 8149.000
355.3340, 8110.000
356.5350, 8142.000
357.7370, 8167.436
358.9380, 8156.000
360.1390, 8221.000
361.3400, 8217.000
362.5400, 8251.000
363.7410, 8256.000
364.9410, 8289.625
366.1410, 8378.000
367.3410, 8373.000
368.5410, 8417.165
369.7410, 8486.000
370.9400, 8450.000
372.1400, 8516.000
373.3390, 8544.000
374.5380, 8521.354
375.7370, 8471.000
376.9360, 8538.000
378.1350, 8600.000
379.3330, 8710.000
380.5310, 8624.000
381.7300, 8516.000
382.9280, 8663.000
384.1260, 8718.000
385.3230, 8682.000
386.5210, 8768.000
387.7180, 8779.000
388.9160, 8874.000
390.1130, 8775.000
391.3100, 8870.000
392.5060, 8896.000
393.7030, 8919.000
394.9000, 8991.000
396.0960, 8822.000
397.2920, 9014.000
398.4880, 8921.000
399.6840, 8999.000
400.8800, 9215.000
402.0750, 9034.000
403.2710, 9138.000
404.4660, 9078.000
405.6610, 9061.000
406.8560, 9214.000
408.0510, 9271.000
409.2450, 9303.667
410.4400, 9355.613
411.6340, 9378.000
412.8280, 9368.000
414.0220, 9395.000
415.2160, 9385.000
416.4100, 9461.000
417.6030, 9522.000
418.7970, 9458.000
419.9900, 9421.000
421.1830, 9637.000
422.3760, 9507.000
423.5690, 9337.000
424.7610, 9565.000
425.9540, 9609.000
427.1460, 9569.000
428.3380, 9574.000
429.5300, 9716.000
430.7220, 9813.000
431.9140, 9829.000
433.1050, 9864.000
434.2970, 9808.000
435.4880, 9855.000
436.6790, 9933.000
437.8700, 10011.00
439.0610, 9913.000
440.2510, 9993.000
441.4420, 9888.000
442.6320, 9888.000
443.8220, 10100.00
445.0120, 10159.00
446.2020, 10046.00
447.3910, 10121.00
448.5810, 10213.00
449.7700, 10270.00
450.9600, 10340.00
452.1490, 10371.15
453.3370, 10241.00
454.5260, 10409.00
455.7150, 10312.00
456.9030, 10312.00
458.0910, 10413.00
459.2800, 10425.00
460.4670, 10411.00
461.6550, 10412.00
462.8430, 10519.00
464.0300, 10399.00
465.2180, 10484.00
466.4050, 10637.00
467.5920, 10672.00
468.7790, 10523.00
469.9650, 10556.00
471.1520, 10653.00
472.3380, 10721.00
473.5250, 10783.00
474.7110, 10797.00
475.8970, 10843.17
477.0820, 10884.91
478.2680, 10895.00
479.4540, 10939.00
480.6390, 10973.00
481.8240, 10939.00
483.0090, 10999.00
484.1940, 11071.00
485.3780, 10862.00
486.5630, 11019.00
487.7470, 11144.00
488.9320, 11069.00
490.1160, 11198.00
491.3000, 11216.00
492.4830, 11282.00
493.6670, 11304.00
494.8500, 11350.05
496.0340, 11392.00
497.2170, 11424.00
498.4000, 11371.00
499.5820, 11373.00
500.7650, 11383.00
501.9480, 11561.00
503.1300, 11523.00
504.3120, 11556.00
505.4940, 11411.00
506.6760, 11555.00
507.8580, 11603.00
509.0390, 11542.00
510.2210, 11669.00
511.4020, 11668.00
512.5830, 11712.00
513.7640, 11677.00
514.9450, 11872.00
516.1250, 11840.00
517.3060, 11845.00
518.4860, 11879.00
519.6660, 11860.00
520.8460, 12024.00
522.0260, 11968.00
523.2060, 12049.00
524.3850, 12063.00
525.5650, 12059.00
526.7440, 12069.00
527.9230, 12117.84
529.1020, 12122.00
530.2810, 12240.00
531.4590, 12267.00
532.6380, 12353.00
533.8160, 12339.00
534.9940, 12386.00
536.1720, 12364.00
537.3500, 12432.00
538.5270, 12430.48
539.7050, 12532.00
540.8820, 12486.00
542.0590, 12570.00
543.2360, 12674.00
544.4130, 12695.00
545.5900, 12625.00
546.7660, 12652.00
547.9430, 12804.00
549.1190, 12604.00
550.2950, 12912.00
551.4710, 12888.00
552.6470, 12830.00
553.8220, 12756.00
554.9980, 12897.00
556.1730, 13062.00
557.3480, 13013.00
558.5230, 13070.00
559.6980, 12974.00
560.8730, 13087.00
562.0470, 12940.00
563.2220, 13141.00
564.3960, 13299.00
565.5700, 13194.00
566.7440, 13154.00
567.9170, 13213.00
569.0910, 13385.00
570.2640, 13251.00
571.4380, 13513.00
572.6110, 13435.00
573.7840, 13616.00
574.9570, 13567.00
576.1290, 13639.00
577.3020, 13475.00
578.4740, 13661.00
579.6460, 13900.00
580.8180, 13897.00
581.9900, 13820.00
583.1620, 13881.00
584.3330, 13967.00
585.5040, 13851.00
586.6760, 13867.00
587.8470, 14100.00
589.0180, 13912.00
590.1880, 14039.00
591.3590, 13967.00
592.5290, 14023.00
593.7000, 14079.00
594.8700, 14180.00
596.0400, 14153.00
597.2090, 14246.00
598.3790, 14258.00
599.5490, 14305.00
600.7180, 14361.00
601.8870, 14196.00
603.0560, 14295.00
604.2250, 14467.00
605.3940, 14454.00
606.5620, 14674.00
607.7300, 14512.00
608.8990, 14607.00
610.0670, 14670.00
611.2350, 14780.00
612.4020, 14794.00
613.5700, 14716.00
614.7370, 14851.00
615.9050, 14686.00
617.0720, 14701.00
618.2390, 14976.00
619.4060, 14926.00
620.5720, 14952.00
621.7390, 15079.00
622.9050, 14910.00
624.0710, 14982.00
625.2370, 15068.00
626.4030, 15149.00
627.5690, 15029.00
628.7340, 15302.00
629.9000, 15190.00
631.0650, 15334.00
632.2300, 15280.00
633.3950, 15304.00
634.5600, 15337.00
635.7240, 15409.00
636.8890, 15374.00
638.0530, 15588.00
639.2170, 15418.00
640.3810, 15600.00
641.5450, 15589.00
642.7080, 15689.00
643.8720, 15725.00
645.0350, 15636.00
646.1980, 15904.00
647.3610, 15844.00
648.5240, 15789.00
649.6870, 15974.00
650.8490, 15918.00
652.0120, 15969.00
653.1740, 16040.00
654.3360, 15987.00
655.4980, 16130.00
656.6600, 16096.00
657.8210, 16355.00
658.9830, 16218.00
660.1440, 16268.00
661.3050, 16256.00
662.4660, 16131.00
663.6270, 16381.00
664.7870, 16268.00
665.9480, 16391.00
667.1080, 16532.00
668.2680, 16457.00
669.4280, 16595.00
670.5880, 16445.00
671.7480, 16711.00
672.9070, 16678.00
674.0670, 16736.00
675.2260, 16682.00
676.3850, 16676.00
677.5440, 16738.18
678.7030, 16841.00
679.8610, 16922.00
681.0200, 16931.00
682.1780, 17167.00
683.3360, 17028.00
684.4940, 17105.00
685.6520, 17089.00
686.8090, 17324.00
687.9670, 17172.00
689.1240, 17264.00
690.2810, 17435.00
691.4380, 17483.00
692.5950, 17348.00
693.7520, 17456.00
694.9080, 17458.00
696.0650, 17538.00
697.2210, 17553.11
698.3770, 17552.00
699.5330, 17613.00
700.6880, 17611.00
701.8440, 17724.00
702.9990, 17779.00
704.1550, 17875.00
705.3100, 17818.00
706.4650, 17974.00
707.6190, 17886.00
708.7740, 18014.00
709.9290, 17929.00
711.0830, 18091.00
712.2370, 18070.00
713.3910, 18106.00
714.5450, 18207.00
715.6980, 18121.00
716.8520, 18177.00
718.0050, 18268.00
719.1580, 18349.00
720.3110, 18508.00
721.4640, 18496.00
722.6170, 18487.00
723.7700, 18460.00
724.9220, 18643.00
726.0740, 18730.00
727.2260, 18750.00
728.3780, 18730.00
729.5300, 18800.00
730.6810, 18773.00
731.8330, 18825.00
732.9840, 19085.00
734.1350, 18916.00
735.2860, 19070.00
736.4370, 19057.00
737.5880, 18884.00
738.7380, 19050.00
739.8880, 19260.00
741.0390, 19028.00
742.1890, 19055.00
743.3380, 19341.00
744.4880, 19353.00
745.6380, 19365.00
746.7870, 19398.00
747.9360, 19486.00
749.0850, 19495.00
750.2340, 19517.00
751.3830, 19596.00
752.5310, 19591.49
753.6800, 19786.00
754.8280, 19664.00
755.9760, 19761.00
757.1240, 19884.00
758.2720, 19842.00
759.4190, 19761.00
760.5670, 19888.00
761.7140, 20011.00
762.8610, 20144.00
764.0080, 20095.00
765.1550, 20200.00
766.3020, 20289.00
767.4480, 20273.00
768.5950, 20329.00
769.7410, 20363.00
770.8870, 20396.90
772.0330, 20427.38
773.1780, 20487.00
774.3240, 20465.00
775.4690, 20496.00
776.6140, 20499.00
777.7590, 20584.00
778.9040, 20676.00
780.0490, 20709.00
781.1940, 20792.90
782.3380, 20857.68
783.4820, 20921.00
784.6260, 20974.00
785.7700, 21040.00
786.9140, 21056.00
788.0580, 21036.00
789.2010, 21233.00
790.3450, 21243.00
791.4880, 20979.00
792.6310, 21323.00
793.7730, 21193.00
794.9160, 21385.00
796.0590, 21255.00
797.2010, 21542.00
798.3430, 21545.00
799.4850, 21601.00
800.6270, 21606.00
801.7690, 21586.00
802.9100, 21630.00
804.0520, 21671.18
805.1930, 21717.00
806.3340, 21829.00
807.4750, 21792.00
808.6160, 21925.00
809.7560, 21978.00
810.8970, 21967.00
812.0370, 21997.00
813.1770, 21996.00
814.3170, 22357.00
815.4570, 22034.00
816.5960, 22346.00
817.7360, 22237.00
818.8750, 22317.00
820.0140, 22294.00
821.1530, 22664.00
822.2920, 22540.00
823.4310, 22647.00
824.5690, 22507.00
825.7070, 22699.00
826.8460, 22685.00
827.9840, 22793.00
829.1220, 23031.00
830.2590, 22729.00
831.3970, 22942.00
832.5340, 22937.00
833.6710, 23107.00
834.8080, 23028.00
835.9450, 23080.00
837.0820, 23218.00
838.2190, 23162.00
839.3550, 23086.00
840.4910, 23242.00
841.6270, 23417.00
842.7630, 23480.00
843.8990, 23399.00
845.0350, 23375.00
846.1700, 23507.00
847.3060, 23435.00
848.4410, 23546.00
849.5760, 23760.00
850.7100, 23749.00
851.8450, 23868.00
852.9800, 23899.00
854.1140, 23837.00
855.2480, 23902.00
856.3820, 23963.79
857.5160, 24127.00
858.6500, 24111.00
859.7830, 24269.00
860.9170, 24263.00
862.0500, 24528.00
863.1830, 24408.00
864.3160, 24231.00
865.4480, 24521.00
866.5810, 24532.00
867.7130, 24545.00
868.8460, 24597.00
869.9780, 24616.00
871.1100, 24675.89
872.2410, 24638.00
873.3730, 24831.00
874.5050, 24839.00
875.6360, 24980.00
876.7670, 25114.00
877.8980, 25051.00
879.0290, 25014.00
880.1590, 24997.00
881.2900, 25017.00
882.4200, 25226.00
883.5500, 25223.00
884.6800, 25190.00
885.8100, 25465.00
886.9400, 25494.00
888.0690, 25515.00
889.1990, 25573.00
890.3280, 25650.00
891.4570, 25596.00
892.5860, 25885.00
893.7140, 25670.00
894.8430, 25856.00
895.9710, 25767.00
897.1000, 25753.00
898.2280, 25838.00
899.3560, 25943.00
900.4830, 26009.00
901.6110, 25895.00
902.7380, 25900.00
903.8660, 26097.00
904.9930, 26088.00
906.1200, 26265.00
907.2460, 26407.00
908.3730, 26358.00
909.5000, 26290.00
910.6260, 26561.00
911.7520, 26624.00
912.8780, 26593.00
914.0040, 26664.00
915.1290, 26663.00
916.2550, 26668.00
917.3800, 26757.00
918.5050, 26931.00
919.6300, 26854.00
920.7550, 26823.00
921.8800, 27082.00
923.0040, 27021.00
924.1290, 27153.00
925.2530, 27363.00
926.3770, 27362.00
927.5010, 27563.00
928.6250, 27306.00
929.7480, 27346.00
930.8720, 27417.00
931.9950, 27425.00
933.1180, 27455.00
934.2410, 27584.00
935.3640, 27511.00
936.4860, 27574.82
937.6090, 27724.00
938.7310, 27660.00
939.8530, 27665.00
940.9750, 27830.00
942.0970, 28047.00
943.2180, 28090.00
944.3400, 28293.00
945.4610, 28305.00
946.5820, 28111.00
947.7030, 28440.00
948.8240, 28476.00
949.9450, 28307.00
951.0650, 28433.00
952.1860, 28551.00
953.3060, 28606.00
954.4260, 28580.00
955.5460, 28831.00
956.6650, 29032.00
957.7850, 29001.00
958.9040, 29155.00
960.0230, 29254.00
961.1420, 29751.00
962.2610, 30077.00
963.3800, 30536.00
964.4990, 30886.00
965.6170, 31209.00
966.7350, 31123.00
967.8530, 30524.00
968.9710, 30321.00
970.0890, 29922.00
971.2070, 29802.00
972.3240, 29793.00
973.4410, 29648.00
974.5580, 29848.00
975.6750, 29585.00
976.7920, 29624.00
977.9090, 29929.00
979.0250, 29773.00
980.1410, 29873.00
981.2580, 29899.00
982.3740, 30013.00
983.4890, 30057.00
984.6050, 30362.00
985.7200, 30235.00
986.8360, 30395.00
987.9510, 30257.00
989.0660, 30264.00
990.1810, 30738.00
991.2950, 30636.00
992.4100, 30387.00
993.5240, 30259.00
994.6390, 30623.00
995.7530, 30538.00
996.8660, 30674.00
997.9800, 30649.00
999.0940, 30868.00
1000.207, 30790.00
1001.320, 30784.00
1002.433, 30950.00
1003.546, 31067.00
1004.659, 31064.00
1005.772, 31086.00
1006.884, 31411.00
1007.996, 31268.00
1009.108, 31220.00
1010.220, 31190.00
1011.332, 31580.00
1012.444, 31468.00
1013.555, 31601.00
1014.666, 31658.00
1015.777, 31615.00
1016.888, 31782.00
1017.999, 31745.00
1019.110, 31870.00
1020.220, 31823.00
1021.331, 31809.00
1022.441, 32035.00
1023.551, 31950.00
1024.661, 32083.00
1025.770, 31889.00
1026.880, 32322.00
1027.989, 32274.00
1029.098, 32293.00
1030.207, 32401.00
1031.316, 32615.00
1032.425, 32310.00
1033.533, 32602.00
1034.642, 32744.00
1035.750, 32457.00
1036.858, 32790.00
1037.966, 32760.00
1039.073, 32703.00
1040.181, 32967.00
1041.288, 32906.00
1042.396, 33015.00
1043.503, 32939.00
1044.610, 33220.00
1045.716, 33034.00
1046.823, 33295.00
1047.929, 33180.00
1049.036, 33161.00
1050.142, 33345.00
1051.248, 33322.23
1052.353, 33641.00
1053.459, 33477.00
1054.564, 33649.00
1055.670, 33706.00
1056.775, 33764.00
1057.880, 33846.74
1058.985, 33901.27
1060.089, 33929.00
1061.194, 33995.00
1062.298, 34008.00
1063.402, 33979.00
1064.506, 34131.00
1065.610, 34150.00
1066.713, 34272.00
1067.817, 34356.44
1068.920, 34275.00
1070.023, 34496.00
1071.126, 34546.00
1072.229, 34541.00
1073.332, 34424.00
1074.435, 34723.00
1075.537, 34710.00
1076.639, 34784.00
1077.741, 34811.00
1078.843, 34624.00
1079.945, 34881.00
1081.046, 35219.00
1082.148, 35155.00
1083.249, 35044.00
1084.350, 35056.00
1085.451, 35089.31
1086.551, 35127.84
1087.652, 35306.00
1088.752, 35310.00
1089.853, 35527.00
1090.953, 35630.00
1092.053, 35477.00
1093.152, 35361.00
1094.252, 35965.00
1095.351, 35975.00
1096.451, 35929.00
1097.550, 35967.00
1098.649, 35907.00
1099.748, 35942.00
1100.846, 35997.00
1101.945, 36024.00
1103.043, 36194.00
1104.141, 36445.00
1105.239, 36403.79
1106.337, 36457.00
1107.434, 36438.00
1108.532, 36450.00
1109.629, 36499.00
1110.726, 36475.73
1111.823, 36731.00
1112.920, 36552.00
1114.017, 36604.00
1115.113, 36826.00
1116.210, 36843.00
1117.306, 36837.00
1118.402, 37100.00
1119.498, 36764.00
1120.593, 37212.00
1121.689, 37587.00
1122.784, 37261.00
1123.879, 37222.00
1124.974, 37247.00
1126.069, 37470.00
1127.164, 37400.00
1128.259, 37421.00
1129.353, 37700.00
1130.447, 37602.00
1131.541, 37634.00
1132.635, 37547.00
1133.729, 37821.00
1134.822, 37696.00
1135.916, 37846.00
1137.009, 37760.00
1138.102, 38096.00
1139.195, 38043.00
1140.288, 38084.00
1141.380, 38055.00
1142.473, 38291.00
1143.565, 38276.00
1144.657, 38422.00
1145.749, 38445.00
1146.841, 38266.00
1147.932, 38445.00
1149.024, 38351.00
1150.115, 38902.00
1151.206, 38663.00
1152.297, 38766.00
1153.388, 38644.00
1154.479, 38744.00
1155.569, 38980.00
1156.659, 39194.00
1157.750, 39007.00
1158.839, 39178.00
1159.929, 39314.00
1161.019, 39207.00
1162.108, 39254.00
1163.198, 39564.00
1164.287, 39511.00
1165.376, 39680.37
1166.465, 39489.00
1167.553, 39802.00
1168.642, 39742.00
1169.730, 39600.00
1170.818, 40015.00
1171.906, 39709.00
1172.994, 39877.00
1174.082, 39828.00
1175.170, 40074.00
1176.257, 40026.00
1177.344, 40332.00
1178.431, 40192.00
1179.518, 40068.00
1180.605, 40072.00
1181.691, 40342.00
1182.778, 40374.00
1183.864, 40373.00
1184.950, 40420.00
1186.036, 40480.00
1187.122, 40828.00
1188.207, 40765.00
1189.292, 40533.00
1190.378, 40930.00
1191.463, 40814.00
1192.548, 40890.00
1193.632, 40838.00
1194.717, 41121.00
1195.801, 41167.00
1196.886, 41363.00
1197.970, 41178.00
1199.054, 41369.00
1200.137, 41139.00
1201.221, 41496.00
1202.305, 41485.00
1203.388, 41368.00
1204.471, 41588.00
1205.554, 41653.00
1206.637, 41895.00
1207.719, 41698.00
1208.802, 41669.00
1209.884, 41817.00
1210.966, 41874.00
1212.048, 42023.00
1213.130, 42026.00
1214.212, 42013.00
1215.293, 42083.00
1216.374, 42012.00
1217.456, 42069.33
1218.536, 42109.46
1219.617, 42184.00
1220.698, 42309.00
1221.778, 42486.00
1222.859, 42789.00
1223.939, 42691.00
1225.019, 42589.00
1226.099, 42934.00
1227.178, 42795.00
1228.258, 42917.00
1229.337, 42891.00
1230.417, 43044.00
1231.496, 42799.00
1232.574, 42867.00
1233.653, 43144.00
1234.732, 42995.00
1235.810, 43258.00
1236.888, 43181.00
1237.966, 43465.00
1239.044, 43625.00
1240.122, 43535.00
1241.199, 43270.00
1242.277, 43502.00
1243.354, 43263.04
1244.431, 43642.92
1245.508, 43880.39
1246.585, 43983.10
1247.661, 43547.41
1248.738, 43806.95
1249.814, 43787.83
1250.890, 43757.30
1251.966, 44114.62
1253.042, 43757.23
1254.117, 44108.36
1255.193, 44176.69
1256.268, 44374.41
1257.343, 44291.83
1258.418, 44295.83
1259.493, 44580.23
1260.567, 44709.32
1261.642, 44594.46
1262.716, 44800.37
1263.790, 44433.09
1264.864, 44568.79
1265.938, 44921.50
1267.011, 44820.64
1268.085, 45031.67
1269.158, 45123.89
1270.231, 44676.36
1271.304, 45167.50
1272.377, 45252.70
1273.450, 44921.07
1274.522, 45380.00
1275.594, 45105.80
1276.666, 45093.27
1277.738, 45277.69
1278.810, 45256.80
1279.882, 45559.59
1280.953, 45550.51
1282.025, 45513.62
1283.096, 45598.25
1284.167, 45338.37
1285.238, 45717.65
1286.308, 45660.27
1287.379, 45819.98
1288.449, 46028.82
1289.519, 45861.00
1290.589, 46091.95
1291.659, 45704.51
1292.729, 45834.49
1293.798, 45908.71
1294.868, 46313.70
1295.937, 45929.23
1297.006, 46044.78
1298.075, 46373.25
1299.143, 46403.75
1300.212, 46558.87
1301.280, 46345.20
1302.348, 46477.93
1303.416, 46515.17
1304.484, 46882.36
1305.552, 46989.07
1306.620, 46781.65
1307.687, 46575.52
1308.754, 46966.40
1309.821, 46791.42
1310.888, 46921.71
1311.955, 46736.73
1313.021, 46823.91
1314.088, 46906.84
1315.154, 47129.26
1316.220, 46928.52
1317.286, 47276.68
1318.352, 47307.60
1319.417, 47431.91
1320.483, 47545.88
1321.548, 47234.09
1322.613, 47906.00
1323.678, 47821.00
1324.743, 47644.00
1325.807, 48181.00
1326.872, 48006.00
1327.936, 47876.00
1329.000, 48123.00
1330.064, 48275.00
1331.128, 48159.00
1332.191, 48584.00
1333.255, 48411.00
1334.318, 48297.00
1335.381, 48506.00
1336.444, 48635.00
1337.507, 48530.00
1338.569, 48506.00
1339.632, 48293.00
1340.694, 48830.00
1341.756, 48451.00
1342.818, 48909.00
1343.880, 48921.00
1344.941, 48933.00
1346.003, 49290.00
1347.064, 49217.00
1348.125, 48755.00
1349.186, 49051.00
1350.247, 49159.00
1351.308, 49162.00
1352.368, 49262.00
1353.428, 49643.00
1354.489, 49411.00
1355.549, 49534.00
1356.608, 49628.00
1357.668, 49368.00
1358.727, 49773.00
1359.787, 49680.00
1360.846, 49641.00
1361.905, 49713.00
1362.964, 49825.00
1364.022, 49915.00
1365.081, 49960.53
1366.139, 50024.30
1367.197, 50059.00
1368.255, 50104.00
1369.313, 50183.00
1370.371, 50240.00
1371.428, 49978.00
1372.486, 49994.00
1373.543, 50252.00
1374.600, 50181.00
1375.657, 50363.00
1376.713, 50421.00
1377.770, 50484.08
1378.826, 50594.00
1379.882, 50750.00
1380.938, 50671.00
1381.994, 50989.00
1383.050, 50788.00
1384.106, 50586.00
1385.161, 50933.00
1386.216, 51103.00
1387.271, 51088.00
1388.326, 51170.00
1389.381, 51156.00
1390.435, 51460.00
1391.490, 50950.00
1392.544, 51196.00
1393.598, 51315.00
1394.652, 51599.00
1395.705, 51293.00
1396.759, 51710.00
1397.812, 51452.00
1398.866, 51428.00
1399.919, 52133.00
1400.972, 51460.00
1402.024, 51554.00
1403.077, 52055.00
1404.129, 51982.00
1405.181, 51998.00
1406.233, 51670.00
1407.285, 51844.00
1408.337, 52174.00
1409.389, 51953.00
1410.440, 52040.00
1411.491, 51877.00
1412.542, 52069.00
1413.593, 52165.00
1414.644, 52348.00
1415.695, 52280.00
1416.745, 52382.00
1417.795, 52427.00
1418.845, 52245.00
1419.895, 52759.00
1420.945, 52755.00
1421.995, 52655.00
1423.044, 52338.00
1424.093, 52643.00
1425.142, 52791.00
1426.191, 52753.00
1427.240, 53001.00
1428.289, 53139.00
1429.337, 53174.00
1430.385, 53292.00
1431.433, 53429.00
1432.481, 53117.00
1433.529, 53096.00
1434.577, 53225.00
1435.624, 53320.00
1436.672, 53398.00
1437.719, 53304.00
1438.766, 53514.00
1439.812, 53378.00
1440.859, 53570.00
1441.905, 53747.00
1442.952, 53714.00
1443.998, 53756.00
1445.044, 53913.00
1446.090, 53672.00
1447.135, 53799.00
1448.181, 53789.00
1449.226, 53943.00
1450.271, 54105.00
1451.316, 54084.85
1452.361, 54302.00
1453.405, 54143.00
1454.450, 54166.00
1455.494, 54254.00
1456.538, 54356.00
1457.582, 54396.45
1458.626, 54445.78
1459.670, 54541.00
1460.713, 54492.00
1461.757, 54602.00
1462.800, 54626.00
1463.843, 54630.00
1464.886, 54740.00
1465.928, 54970.00
1466.971, 54990.00
1468.013, 55106.00
1469.055, 55115.85
1470.097, 55123.00
1471.139, 55068.00
1472.181, 55214.00
1473.222, 55213.00
1474.263, 55241.00
1475.305, 55315.99
1476.346, 55354.75
1477.386, 55424.00
1478.427, 55509.00
1479.468, 55599.00
1480.508, 55720.55
1481.548, 55425.00
1482.588, 55884.00
1483.628, 55700.00
1484.668, 55672.00
1485.707, 55849.00
1486.747, 55720.00
1487.786, 56061.00
1488.825, 55880.00
1489.864, 55935.00
1490.902, 55891.00
1491.941, 55880.10
1492.979, 55841.00
1494.017, 55918.00
1495.055, 56043.00
1496.093, 56054.00
1497.131, 56325.00
1498.168, 56379.00
1499.206, 56647.00
1500.243, 56655.00
1501.280, 56334.00
1502.317, 56452.00
1503.354, 56567.00
1504.390, 56713.00
1505.426, 56737.16
1506.463, 56968.00
1507.499, 56764.00
1508.535, 56765.00
1509.570, 56734.77
1510.606, 57199.00
1511.641, 56788.00
1512.676, 57082.00
1513.711, 57166.00
1514.746, 57056.00
1515.781, 57035.00
1516.816, 57423.00
1517.850, 57430.00
1518.884, 57362.00
1519.918, 57616.00
1520.952, 57600.00
1521.986, 57393.00
1523.019, 57678.00
1524.053, 57620.00
1525.086, 57769.00
1526.119, 57823.01
1527.152, 57841.00
1528.185, 57906.00
1529.217, 58011.00
1530.250, 58105.96
1531.282, 58092.82
1532.314, 58175.00
1533.346, 58123.00
1534.377, 58214.00
1535.409, 58382.00
1536.440, 58293.00
1537.472, 58241.00
1538.503, 58342.00
1539.534, 58428.00
1540.564, 58215.00
1541.595, 58654.00
1542.625, 58368.00
1543.656, 58465.00
1544.686, 58411.00
1545.716, 58462.00
1546.745, 58549.00
1547.775, 58549.12
1548.804, 58807.00
1549.834, 58657.00
1550.863, 58735.00
1551.892, 58843.00
1552.920, 59073.00
1553.949, 58816.00
1554.977, 58791.00
1556.006, 59100.00
1557.034, 58866.00
1558.062, 58937.00
1559.089, 59273.00
1560.117, 59073.00
1561.144, 59101.00
1562.172, 59312.00
1563.199, 59215.00
1564.226, 59419.00
1565.252, 59273.00
1566.279, 59407.00
1567.305, 59474.00
1568.332, 59585.00
1569.358, 59557.00
1570.384, 59312.00
1571.409, 59812.00
##END=



