##NAMES=Fluorapatite
##RRUFFID=R050401
##IDEAL CHEMISTRY=Ca_5_(PO_4_)_3_F
##LOCALITY=Urbano mine, Golconda District, Minas Gerais, Brazil
##OWNER=RRUFF
##SOURCE=Bob Downs
##DESCRIPTION=Pale purple hexagonal prism associated with albite R050402
##STATUS=The identification of this mineral has been confirmed by X-ray diffraction and chemical analysis
##URL=rruff.info/R050401
##MEASURED CHEMISTRY=(Ca_0.99_Mn_0.01_)_5_(P_1.00_O_4_)_3_F_1.00_
##PIN_ID=L00654
##ORIENTATION=Laser parallel to c* (0 0 1). Fiducial mark perpendicular to laser is parallel to a [1 0 0]
134.1270, 4628.000
135.3560, 4644.000
136.5850, 4697.000
137.8140, 4752.000
139.0430, 4768.000
140.2710, 4792.220
141.5000, 4776.000
142.7280, 4795.000
143.9560, 4775.000
145.1840, 4752.000
146.4120, 4745.000
147.6390, 4821.000
148.8670, 4815.000
150.0940, 4851.000
151.3210, 4849.000
152.5490, 4852.000
153.7750, 4980.000
155.0020, 4967.000
156.2290, 4928.000
157.4550, 5000.000
158.6810, 4936.000
159.9080, 5047.000
161.1340, 5021.000
162.3590, 5054.000
163.5850, 5108.000
164.8110, 5095.000
166.0360, 5140.840
167.2610, 5099.000
168.4860, 5187.000
169.7110, 5164.000
170.9360, 5166.000
172.1610, 5183.000
173.3850, 5147.000
174.6100, 5206.000
175.8340, 5183.000
177.0580, 5256.000
178.2820, 5199.000
179.5050, 5296.000
180.7290, 5290.000
181.9520, 5375.000
183.1760, 5393.000
184.3990, 5349.000
185.6220, 5326.000
186.8450, 5382.000
188.0670, 5370.734
189.2900, 5440.000
190.5120, 5418.000
191.7340, 5521.000
192.9560, 5539.000
194.1780, 5527.000
195.4000, 5657.000
196.6220, 5521.000
197.8430, 5606.000
199.0640, 5608.000
200.2860, 5576.000
201.5070, 5622.000
202.7270, 5699.000
203.9480, 5682.000
205.1690, 5725.600
206.3890, 5648.000
207.6090, 5769.000
208.8290, 5728.000
210.0490, 5774.000
211.2690, 5781.000
212.4890, 5690.000
213.7080, 5878.000
214.9280, 5822.000
216.1470, 5878.000
217.3660, 5781.000
218.5850, 5838.000
219.8030, 5914.000
221.0220, 5916.000
222.2400, 5900.000
223.4590, 5933.000
224.6770, 5974.000
225.8950, 5993.000
227.1120, 6016.292
228.3300, 6047.000
229.5480, 6070.000
230.7650, 6072.000
231.9820, 6146.000
233.1990, 6108.000
234.4160, 6202.000
235.6330, 6135.000
236.8490, 6172.000
238.0660, 6233.000
239.2820, 6130.000
240.4980, 6275.000
241.7140, 6216.000
242.9300, 6316.000
244.1460, 6276.000
245.3610, 6251.000
246.5770, 6245.000
247.7920, 6383.000
249.0070, 6409.000
250.2220, 6460.000
251.4370, 6384.000
252.6510, 6374.000
253.8660, 6339.000
255.0800, 6404.000
256.2940, 6463.000
257.5080, 6432.000
258.7220, 6541.000
259.9360, 6452.000
261.1490, 6589.000
262.3630, 6572.000
263.5760, 6564.000
264.7890, 6709.000
266.0020, 6543.000
267.2150, 6727.000
268.4270, 6880.000
269.6400, 6699.000
270.8520, 6863.000
272.0640, 6872.000
273.2760, 6788.000
274.4880, 6813.000
275.7000, 6783.000
276.9120, 6875.000
278.1230, 6863.000
279.3340, 6857.000
280.5450, 6952.000
281.7560, 6900.000
282.9670, 6976.000
284.1780, 7037.000
285.3880, 6986.000
286.5980, 6995.000
287.8090, 7050.000
289.0190, 7020.000
290.2290, 7013.000
291.4380, 7219.000
292.6480, 7039.000
293.8570, 7187.000
295.0670, 7241.000
296.2760, 7157.000
297.4850, 7233.000
298.6930, 7321.000
299.9020, 7353.000
301.1110, 7359.000
302.3190, 7326.000
303.5270, 7292.000
304.7350, 7435.000
305.9430, 7350.000
307.1510, 7448.000
308.3580, 7436.000
309.5660, 7402.000
310.7730, 7503.000
311.9800, 7397.000
313.1870, 7369.000
314.3940, 7477.000
315.6010, 7612.000
316.8070, 7587.000
318.0130, 7684.000
319.2200, 7582.000
320.4260, 7616.000
321.6310, 7691.000
322.8370, 7658.000
324.0430, 7657.000
325.2480, 7825.000
326.4540, 7873.000
327.6590, 7818.000
328.8640, 7848.000
330.0680, 7901.000
331.2730, 7859.000
332.4780, 7837.000
333.6820, 7961.000
334.8860, 7949.000
336.0900, 7902.000
337.2940, 7945.000
338.4980, 7993.000
339.7010, 8123.000
340.9050, 8028.000
342.1080, 8104.000
343.3110, 8054.000
344.5140, 8180.000
345.7170, 8171.000
346.9200, 8264.000
348.1220, 8247.000
349.3240, 8278.000
350.5270, 8308.000
351.7290, 8330.000
352.9310, 8277.000
354.1320, 8375.000
355.3340, 8285.000
356.5350, 8407.000
357.7370, 8446.000
358.9380, 8437.000
360.1390, 8346.000
361.3400, 8412.000
362.5400, 8459.000
363.7410, 8597.000
364.9410, 8455.000
366.1410, 8536.000
367.3410, 8693.000
368.5410, 8569.000
369.7410, 8686.000
370.9400, 8709.000
372.1400, 8682.000
373.3390, 8741.000
374.5380, 8777.000
375.7370, 8804.000
376.9360, 8820.000
378.1350, 8939.000
379.3330, 8939.000
380.5310, 8822.000
381.7300, 8926.000
382.9280, 8897.000
384.1260, 8904.000
385.3230, 8943.000
386.5210, 8970.000
387.7180, 9026.000
388.9160, 9109.000
390.1130, 9097.000
391.3100, 9183.000
392.5060, 9011.000
393.7030, 9206.000
394.9000, 9213.000
396.0960, 9168.000
397.2920, 9310.000
398.4880, 9227.000
399.6840, 9286.000
400.8800, 9286.000
402.0750, 9325.000
403.2710, 9340.000
404.4660, 9383.000
405.6610, 9367.000
406.8560, 9554.000
408.0510, 9569.000
409.2450, 9533.000
410.4400, 9480.000
411.6340, 9615.000
412.8280, 9580.000
414.0220, 9625.000
415.2160, 9632.000
416.4100, 9781.000
417.6030, 9817.000
418.7970, 9809.000
419.9900, 9811.000
421.1830, 9867.000
422.3760, 9897.815
423.5690, 9860.000
424.7610, 9977.000
425.9540, 9920.000
427.1460, 9872.000
428.3380, 10111.00
429.5300, 10063.00
430.7220, 10102.00
431.9140, 10054.00
433.1050, 10195.00
434.2970, 10204.00
435.4880, 10194.00
436.6790, 10161.00
437.8700, 10300.00
439.0610, 10377.00
440.2510, 10283.00
441.4420, 10264.00
442.6320, 10347.00
443.8220, 10351.00
445.0120, 10380.00
446.2020, 10499.00
447.3910, 10452.00
448.5810, 10433.00
449.7700, 10670.00
450.9600, 10561.00
452.1490, 10692.00
453.3370, 10621.00
454.5260, 10665.00
455.7150, 10602.00
456.9030, 10746.00
458.0910, 10676.00
459.2800, 10852.00
460.4670, 10796.00
461.6550, 10737.00
462.8430, 10814.00
464.0300, 10911.00
465.2180, 10894.00
466.4050, 10939.00
467.5920, 10896.00
468.7790, 10878.00
469.9650, 11013.00
471.1520, 11011.00
472.3380, 11074.00
473.5250, 11113.00
474.7110, 11167.00
475.8970, 11177.00
477.0820, 11262.00
478.2680, 11161.00
479.4540, 11270.00
480.6390, 11302.00
481.8240, 11483.00
483.0090, 11426.00
484.1940, 11320.00
485.3780, 11364.00
486.5630, 11471.00
487.7470, 11518.00
488.9320, 11489.00
490.1160, 11604.00
491.3000, 11608.00
492.4830, 11679.00
493.6670, 11647.00
494.8500, 11702.00
496.0340, 11799.00
497.2170, 11878.00
498.4000, 11729.00
499.5820, 11826.00
500.7650, 11722.00
501.9480, 12010.00
503.1300, 11898.00
504.3120, 12001.00
505.4940, 12041.00
506.6760, 11984.00
507.8580, 11996.00
509.0390, 12085.00
510.2210, 12054.00
511.4020, 12230.00
512.5830, 12272.00
513.7640, 12199.00
514.9450, 12278.00
516.1250, 12209.00
517.3060, 12415.00
518.4860, 12272.00
519.6660, 12453.00
520.8460, 12379.00
522.0260, 12320.00
523.2060, 12511.00
524.3850, 12572.00
525.5650, 12550.00
526.7440, 12575.00
527.9230, 12566.00
529.1020, 12611.00
530.2810, 12740.00
531.4590, 12784.00
532.6380, 12789.00
533.8160, 13024.00
534.9940, 12890.00
536.1720, 12886.00
537.3500, 13028.00
538.5270, 13013.00
539.7050, 13001.00
540.8820, 13045.00
542.0590, 12938.00
543.2360, 13160.00
544.4130, 13034.00
545.5900, 13282.00
546.7660, 13214.00
547.9430, 13269.00
549.1190, 13306.00
550.2950, 13357.00
551.4710, 13327.00
552.6470, 13287.00
553.8220, 13484.00
554.9980, 13423.00
556.1730, 13536.00
557.3480, 13554.00
558.5230, 13606.00
559.6980, 13703.00
560.8730, 13719.00
562.0470, 13718.00
563.2220, 13687.00
564.3960, 13791.00
565.5700, 13630.00
566.7440, 13865.00
567.9170, 13904.00
569.0910, 13788.00
570.2640, 13982.00
571.4380, 14048.00
572.6110, 14139.00
573.7840, 14094.00
574.9570, 14082.00
576.1290, 14022.00
577.3020, 14240.00
578.4740, 14284.00
579.6460, 14461.00
580.8180, 14333.00
581.9900, 14310.00
583.1620, 14341.00
584.3330, 14352.00
585.5040, 14372.96
586.6760, 14400.68
587.8470, 14469.00
589.0180, 14453.00
590.1880, 14573.00
591.3590, 14604.00
592.5290, 14681.00
593.7000, 14595.00
594.8700, 14806.00
596.0400, 14817.00
597.2090, 14781.00
598.3790, 14903.00
599.5490, 14968.00
600.7180, 14995.76
601.8870, 15041.91
603.0560, 15092.00
604.2250, 15090.00
605.3940, 15137.00
606.5620, 15220.00
607.7300, 15144.00
608.8990, 15277.00
610.0670, 15125.00
611.2350, 15312.00
612.4020, 15431.00
613.5700, 15604.00
614.7370, 15695.00
615.9050, 15698.78
617.0720, 15650.00
618.2390, 15577.00
619.4060, 15586.00
620.5720, 15600.99
621.7390, 15659.00
622.9050, 15725.00
624.0710, 15782.00
625.2370, 15903.00
626.4030, 15756.00
627.5690, 15931.00
628.7340, 16002.00
629.9000, 15931.00
631.0650, 16031.00
632.2300, 16134.00
633.3950, 16016.00
634.5600, 16177.00
635.7240, 16224.00
636.8890, 16005.00
638.0530, 16041.00
639.2170, 16295.00
640.3810, 16274.00
641.5450, 16299.00
642.7080, 16411.00
643.8720, 16344.00
645.0350, 16501.00
646.1980, 16552.00
647.3610, 16484.00
648.5240, 16785.00
649.6870, 16701.00
650.8490, 16597.00
652.0120, 16785.00
653.1740, 16760.00
654.3360, 17050.00
655.4980, 16860.00
656.6600, 16961.00
657.8210, 16872.00
658.9830, 16973.00
660.1440, 16939.00
661.3050, 17169.00
662.4660, 17089.00
663.6270, 17044.00
664.7870, 17295.00
665.9480, 17137.00
667.1080, 17352.00
668.2680, 17360.00
669.4280, 17469.00
670.5880, 17572.00
671.7480, 17549.00
672.9070, 17521.00
674.0670, 17535.00
675.2260, 17691.00
676.3850, 17519.00
677.5440, 17739.00
678.7030, 17627.00
679.8610, 17944.00
681.0200, 17702.00
682.1780, 17904.00
683.3360, 17836.00
684.4940, 18072.00
685.6520, 18127.00
686.8090, 18078.00
687.9670, 18137.00
689.1240, 18267.00
690.2810, 18340.00
691.4380, 18295.00
692.5950, 18272.00
693.7520, 18446.00
694.9080, 18375.83
696.0650, 18493.00
697.2210, 18396.00
698.3770, 18475.00
699.5330, 18517.00
700.6880, 18571.00
701.8440, 18640.49
702.9990, 18670.46
704.1550, 18758.00
705.3100, 18756.00
706.4650, 18782.00
707.6190, 18850.00
708.7740, 18880.40
709.9290, 18927.00
711.0830, 18962.00
712.2370, 19025.00
713.3910, 19002.00
714.5450, 19126.00
715.6980, 18962.00
716.8520, 19331.00
718.0050, 19151.00
719.1580, 19319.00
720.3110, 19334.00
721.4640, 19365.00
722.6170, 19593.00
723.7700, 19370.00
724.9220, 19437.00
726.0740, 19718.00
727.2260, 19603.00
728.3780, 19677.00
729.5300, 19952.00
730.6810, 19855.00
731.8330, 19827.00
732.9840, 20108.00
734.1350, 19913.00
735.2860, 20018.00
736.4370, 19939.00
737.5880, 19940.88
738.7380, 19935.00
739.8880, 20042.00
741.0390, 20131.00
742.1890, 20315.00
743.3380, 20454.00
744.4880, 20215.00
745.6380, 20506.00
746.7870, 20413.00
747.9360, 20608.00
749.0850, 20447.00
750.2340, 20533.00
751.3830, 20759.00
752.5310, 20794.00
753.6800, 20900.00
754.8280, 20674.00
755.9760, 20843.00
757.1240, 20751.00
758.2720, 20859.00
759.4190, 21099.00
760.5670, 20987.00
761.7140, 21184.00
762.8610, 21095.00
764.0080, 21126.00
765.1550, 21252.00
766.3020, 21351.00
767.4480, 21353.00
768.5950, 21499.00
769.7410, 21297.00
770.8870, 21564.00
772.0330, 21753.00
773.1780, 21546.00
774.3240, 21596.00
775.4690, 21592.00
776.6140, 21842.00
777.7590, 21872.00
778.9040, 21772.00
780.0490, 21870.00
781.1940, 21890.00
782.3380, 22034.00
783.4820, 22181.00
784.6260, 22043.00
785.7700, 22084.00
786.9140, 22144.00
788.0580, 22218.00
789.2010, 22132.00
790.3450, 22355.00
791.4880, 22485.00
792.6310, 22393.00
793.7730, 22647.00
794.9160, 22694.00
796.0590, 22593.00
797.2010, 22474.00
798.3430, 22788.00
799.4850, 22703.00
800.6270, 22694.00
801.7690, 22732.00
802.9100, 22862.00
804.0520, 22995.00
805.1930, 23028.00
806.3340, 23068.00
807.4750, 23108.00
808.6160, 23293.00
809.7560, 23290.85
810.8970, 23440.00
812.0370, 23441.00
813.1770, 23335.00
814.3170, 23521.00
815.4570, 23450.00
816.5960, 23551.00
817.7360, 23561.00
818.8750, 23754.00
820.0140, 23897.00
821.1530, 23986.00
822.2920, 23880.00
823.4310, 24090.00
824.5690, 24087.00
825.7070, 23950.00
826.8460, 24183.00
827.9840, 23912.00
829.1220, 23944.00
830.2590, 24292.00
831.3970, 24251.00
832.5340, 24142.00
833.6710, 24381.00
834.8080, 24559.00
835.9450, 24410.00
837.0820, 24577.00
838.2190, 24472.00
839.3550, 24571.00
840.4910, 24559.00
841.6270, 24702.00
842.7630, 24862.00
843.8990, 25054.00
845.0350, 24793.00
846.1700, 24869.00
847.3060, 25049.00
848.4410, 24791.00
849.5760, 25137.00
850.7100, 25111.00
851.8450, 25195.00
852.9800, 25321.00
854.1140, 25190.00
855.2480, 25392.00
856.3820, 25576.00
857.5160, 25474.00
858.6500, 25650.00
859.7830, 25580.00
860.9170, 25679.00
862.0500, 25695.00
863.1830, 25710.00
864.3160, 25868.00
865.4480, 25808.00
866.5810, 25978.00
867.7130, 25979.00
868.8460, 26083.00
869.9780, 26286.00
871.1100, 26185.00
872.2410, 26304.00
873.3730, 26113.00
874.5050, 26508.00
875.6360, 26321.00
876.7670, 26284.00
877.8980, 26542.00
879.0290, 26406.00
880.1590, 26729.00
881.2900, 26712.00
882.4200, 26862.00
883.5500, 26821.00
884.6800, 26846.00
885.8100, 26811.00
886.9400, 26958.00
888.0690, 26838.00
889.1990, 26920.00
890.3280, 27130.00
891.4570, 26918.00
892.5860, 27345.00
893.7140, 27493.00
894.8430, 27326.00
895.9710, 27277.00
897.1000, 27261.00
898.2280, 27450.00
899.3560, 27585.00
900.4830, 27537.00
901.6110, 27616.00
902.7380, 27601.00
903.8660, 27796.00
904.9930, 27655.00
906.1200, 28006.00
907.2460, 27675.00
908.3730, 27873.00
909.5000, 27975.00
910.6260, 28116.00
911.7520, 28206.00
912.8780, 28173.00
914.0040, 28283.00
915.1290, 28152.00
916.2550, 28539.00
917.3800, 28274.00
918.5050, 28664.00
919.6300, 28513.00
920.7550, 28499.00
921.8800, 28852.00
923.0040, 28768.00
924.1290, 28757.00
925.2530, 28941.00
926.3770, 28638.00
927.5010, 28807.00
928.6250, 29180.00
929.7480, 28798.00
930.8720, 28854.00
931.9950, 29200.00
933.1180, 29282.00
934.2410, 29417.00
935.3640, 29267.00
936.4860, 29216.00
937.6090, 29494.00
938.7310, 29538.00
939.8530, 29525.00
940.9750, 29437.00
942.0970, 29803.00
943.2180, 30144.00
944.3400, 30076.00
945.4610, 30293.00
946.5820, 29848.00
947.7030, 30098.00
948.8240, 30032.00
949.9450, 30073.00
951.0650, 30281.00
952.1860, 30421.00
953.3060, 30609.00
954.4260, 30510.00
955.5460, 30484.00
956.6650, 30519.00
957.7850, 30732.00
958.9040, 30985.00
960.0230, 30735.00
961.1420, 31349.00
962.2610, 31340.00
963.3800, 31643.00
964.4990, 32064.00
965.6170, 32401.00
966.7350, 32408.00
967.8530, 31986.00
968.9710, 31656.00
970.0890, 31561.00
971.2070, 31592.00
972.3240, 31682.00
973.4410, 31663.00
974.5580, 31720.00
975.6750, 31705.28
976.7920, 31831.00
977.9090, 31672.00
979.0250, 31864.00
980.1410, 31890.00
981.2580, 31926.00
982.3740, 32051.00
983.4890, 31918.00
984.6050, 31922.00
985.7200, 31984.00
986.8360, 32188.00
987.9510, 32321.00
989.0660, 32272.00
990.1810, 32322.00
991.2950, 32389.00
992.4100, 32364.00
993.5240, 32699.00
994.6390, 32733.00
995.7530, 32665.00
996.8660, 32541.00
997.9800, 32891.00
999.0940, 32758.00
1000.207, 33030.00
1001.320, 32978.00
1002.433, 32923.00
1003.546, 33114.00
1004.659, 33086.00
1005.772, 33322.00
1006.884, 33408.00
1007.996, 33410.00
1009.108, 33048.00
1010.220, 33333.00
1011.332, 33440.00
1012.444, 33369.00
1013.555, 33687.00
1014.666, 33554.00
1015.777, 33928.00
1016.888, 33821.00
1017.999, 33740.00
1019.110, 33947.00
1020.220, 33966.00
1021.331, 34101.00
1022.441, 34011.00
1023.551, 34154.00
1024.661, 34158.00
1025.770, 34142.00
1026.880, 34331.00
1027.989, 34402.00
1029.098, 34561.00
1030.207, 34641.00
1031.316, 34716.53
1032.425, 34784.00
1033.533, 34819.00
1034.642, 34859.02
1035.750, 35057.00
1036.858, 34935.00
1037.966, 34873.00
1039.073, 34973.00
1040.181, 35340.00
1041.288, 35105.00
1042.396, 35269.00
1043.503, 35138.00
1044.610, 35466.00
1045.716, 35308.00
1046.823, 35214.00
1047.929, 35657.00
1049.036, 35583.00
1050.142, 35545.00
1051.248, 35489.00
1052.353, 35662.00
1053.459, 35825.00
1054.564, 35938.00
1055.670, 36016.00
1056.775, 35944.00
1057.880, 36147.00
1058.985, 36318.00
1060.089, 36312.77
1061.194, 36611.00
1062.298, 36439.00
1063.402, 36526.00
1064.506, 36656.00
1065.610, 36572.00
1066.713, 36501.00
1067.817, 36637.00
1068.920, 36795.00
1070.023, 36553.00
1071.126, 37047.00
1072.229, 37043.00
1073.332, 36895.00
1074.435, 37234.00
1075.537, 37034.00
1076.639, 37270.00
1077.741, 37181.00
1078.843, 37359.00
1079.945, 37422.00
1081.046, 37552.00
1082.148, 37709.00
1083.249, 37389.00
1084.350, 37739.00
1085.451, 37641.00
1086.551, 37781.00
1087.652, 37931.00
1088.752, 37805.00
1089.853, 37637.00
1090.953, 37929.00
1092.053, 38098.00
1093.152, 38094.00
1094.252, 38379.00
1095.351, 38501.00
1096.451, 38388.00
1097.550, 38521.00
1098.649, 38337.00
1099.748, 38566.00
1100.846, 38811.00
1101.945, 38469.00
1103.043, 38563.00
1104.141, 38510.00
1105.239, 38592.00
1106.337, 38751.00
1107.434, 38824.00
1108.532, 39095.00
1109.629, 38767.00
1110.726, 39144.00
1111.823, 39037.00
1112.920, 39360.00
1114.017, 39328.00
1115.113, 39333.77
1116.210, 39295.00
1117.306, 39277.00
1118.402, 39575.00
1119.498, 39548.00
1120.593, 39686.00
1121.689, 39685.00
1122.784, 39587.00
1123.879, 40103.00
1124.974, 39854.00
1126.069, 40036.00
1127.164, 40347.00
1128.259, 39998.00
1129.353, 40221.00
1130.447, 40156.00
1131.541, 40356.00
1132.635, 40353.00
1133.729, 40307.00
1134.822, 40214.00
1135.916, 40100.00
1137.009, 40747.00
1138.102, 40440.00
1139.195, 40766.00
1140.288, 40816.00
1141.380, 40826.00
1142.473, 40888.00
1143.565, 40910.00
1144.657, 41056.00
1145.749, 41250.00
1146.841, 41090.00
1147.932, 41422.00
1149.024, 41218.00
1150.115, 41086.00
1151.206, 41550.00
1152.297, 41479.00
1153.388, 41735.00
1154.479, 41471.00
1155.569, 41636.00
1156.659, 41866.00
1157.750, 41923.00
1158.839, 41608.00
1159.929, 41774.00
1161.019, 41966.00
1162.108, 41629.00
1163.198, 42299.00
1164.287, 41976.00
1165.376, 42128.00
1166.465, 42249.00
1167.553, 42275.00
1168.642, 42574.00
1169.730, 42198.00
1170.818, 42436.00
1171.906, 42326.00
1172.994, 42681.00
1174.082, 42733.00
1175.170, 42680.00
1176.257, 43074.00
1177.344, 42771.00
1178.431, 43110.00
1179.518, 43285.00
1180.605, 42884.00
1181.691, 42994.00
1182.778, 42925.00
1183.864, 43276.00
1184.950, 43337.00
1186.036, 43130.00
1187.122, 43611.00
1188.207, 43467.00
1189.292, 43635.00
1190.378, 43328.00
1191.463, 43197.00
1192.548, 43757.00
1193.632, 43707.00
1194.717, 43693.00
1195.801, 43798.00
1196.886, 43773.00
1197.970, 43850.00
1199.054, 43718.00
1200.137, 44339.00
1201.221, 43941.00
1202.305, 44366.00
1203.388, 44236.00
1204.471, 44299.00
1205.554, 44552.00
1206.637, 44194.00
1207.719, 44429.00
1208.802, 44547.00
1209.884, 44588.00
1210.966, 44641.00
1212.048, 44478.00
1213.130, 44941.00
1214.212, 44572.00
1215.293, 45089.00
1216.374, 44927.00
1217.456, 45155.00
1218.536, 45145.00
1219.617, 45028.00
1220.698, 45175.00
1221.778, 45375.00
1222.859, 45403.00
1223.939, 45400.00
1225.019, 45403.00
1226.099, 45732.00
1227.178, 45385.00
1228.258, 45741.00
1229.337, 45800.00
1230.417, 45791.00
1231.496, 45994.00
1232.574, 45832.00
1233.653, 45966.00
1234.732, 46447.00
1235.810, 46175.00
1236.888, 46205.00
1237.966, 45905.00
1239.044, 46311.00
1240.122, 46259.00
1241.199, 46684.00
1242.277, 46757.00
1243.354, 46196.00
1244.431, 46719.00
1245.508, 46346.00
1246.585, 46519.00
1247.661, 46765.00
1248.738, 46471.00
1249.814, 47027.00
1250.890, 46931.00
1251.966, 46958.00
1253.042, 47145.00
1254.117, 46874.00
1255.193, 47334.00
1256.268, 47172.00
1257.343, 47547.00
1258.418, 47379.00
1259.493, 47304.00
1260.567, 47335.53
1261.642, 47739.95
1262.716, 47990.98
1263.790, 48096.89
1264.864, 47623.04
1265.938, 47897.83
1267.011, 47872.55
1268.085, 47835.01
1269.158, 48215.11
1270.231, 47825.54
1271.304, 48199.02
1272.377, 48267.90
1273.450, 48476.19
1274.522, 48382.56
1275.594, 48382.16
1276.666, 48683.74
1277.738, 48818.11
1278.810, 48689.73
1279.882, 48906.82
1280.953, 48506.61
1282.025, 48648.10
1283.096, 49023.24
1284.167, 48909.99
1285.238, 49132.56
1286.308, 49227.18
1287.379, 48740.59
1288.449, 49264.81
1289.519, 49351.88
1290.589, 48990.06
1291.659, 49479.65
1292.729, 49179.72
1293.798, 49161.55
1294.868, 49355.51
1295.937, 49328.33
1297.006, 49649.72
1298.075, 49635.31
1299.143, 49590.85
1300.212, 49677.37
1301.280, 49392.82
1302.348, 49796.58
1303.416, 49730.17
1304.484, 49897.47
1305.552, 50117.75
1306.620, 49932.40
1307.687, 50176.43
1308.754, 49754.52
1309.821, 49889.83
1310.888, 49965.12
1311.955, 50396.58
1313.021, 49977.88
1314.088, 50097.70
1315.154, 50446.75
1316.220, 50474.98
1317.286, 50222.00
1318.352, 50636.00
1319.417, 50601.00
1320.483, 50907.00
1321.548, 50482.00
1322.613, 51089.00
1323.678, 51029.00
1324.743, 50571.00
1325.807, 51178.00
1326.872, 50959.00
1327.936, 51026.00
1329.000, 51192.00
1330.064, 51202.00
1331.128, 51194.00
1332.191, 51120.00
1333.255, 51557.00
1334.318, 51456.00
1335.381, 51459.00
1336.444, 51811.00
1337.507, 51442.00
1338.569, 51621.00
1339.632, 51725.00
1340.694, 51773.00
1341.756, 52047.00
1342.818, 51787.00
1343.880, 51851.00
1344.941, 52027.00
1346.003, 52158.00
1347.064, 52332.00
1348.125, 51981.00
1349.186, 52360.00
1350.247, 52211.00
1351.308, 52333.00
1352.368, 52851.00
1353.428, 52321.00
1354.489, 52807.00
1355.549, 52396.00
1356.608, 52498.00
1357.668, 52796.00
1358.727, 52757.00
1359.787, 52728.00
1360.846, 53057.00
1361.905, 52912.00
1362.964, 53002.00
1364.022, 52530.00
1365.081, 53165.00
1366.139, 52894.00
1367.197, 53031.00
1368.255, 53264.00
1369.313, 53412.00
1370.371, 53352.00
1371.428, 53260.00
1372.486, 53038.00
1373.543, 53563.00
1374.600, 53385.00
1375.657, 53471.00
1376.713, 53216.00
1377.770, 53741.00
1378.826, 53543.00
1379.882, 53562.00
1380.938, 53738.00
1381.994, 53812.00
1383.050, 53677.00
1384.106, 54057.00
1385.161, 53911.00
1386.216, 54183.00
1387.271, 54257.00
1388.326, 53927.00
1389.381, 54177.00
1390.435, 54190.00
1391.490, 54394.00
1392.544, 54169.00
1393.598, 54464.00
1394.652, 54422.00
1395.705, 54180.00
1396.759, 54607.00
1397.812, 54602.00
1398.866, 54655.00
1399.919, 54895.00
1400.972, 54581.00
1402.024, 54717.00
1403.077, 54393.00
1404.129, 55376.00
1405.181, 54719.00
1406.233, 55148.00
1407.285, 55032.00
1408.337, 54837.00
1409.389, 55203.00
1410.440, 55090.00
1411.491, 55044.00
1412.542, 55073.00
1413.593, 55049.00
1414.644, 55233.00
1415.695, 55202.00
1416.745, 55449.00
1417.795, 55440.00
1418.845, 55266.00
1419.895, 55775.00
1420.945, 55413.00
1421.995, 55725.00
1423.044, 55894.00
1424.093, 55473.00
1425.142, 55958.00
1426.191, 56093.00
1427.240, 56140.00
1428.289, 55908.00
1429.337, 55851.00
1430.385, 56573.00
1431.433, 55943.00
1432.481, 56199.00
1433.529, 56701.00
1434.577, 56175.00
1435.624, 56525.00
1436.672, 56848.00
1437.719, 56419.00
1438.766, 56844.00
1439.812, 56330.00
1440.859, 56867.00
1441.905, 56753.00
1442.952, 56935.00
1443.998, 56922.00
1445.044, 56752.00
1446.090, 56890.00
1447.135, 56965.00
1448.181, 57111.00
1449.226, 57140.31
1450.271, 57214.66
1451.316, 57190.00
1452.361, 57245.00
1453.405, 57255.00
1454.450, 57136.00
1455.494, 57358.00
1456.538, 57592.00
1457.582, 57138.00
1458.626, 57437.00
1459.670, 57492.00
1460.713, 57476.00
1461.757, 57554.62
1462.800, 57730.00
1463.843, 57617.00
1464.886, 57627.00
1465.928, 57906.00
1466.971, 57819.00
1468.013, 57700.00
1469.055, 57959.00
1470.097, 58140.00
1471.139, 57557.00
1472.181, 58417.00
1473.222, 57847.00
1474.263, 58539.00
1475.305, 58416.00
1476.346, 58499.00
1477.386, 58449.00
1478.427, 58488.00
1479.468, 58590.00
1480.508, 58633.00
1481.548, 58464.00
1482.588, 58509.00
1483.628, 58394.00
1484.668, 58614.00
1485.707, 58849.00
1486.747, 58982.00
1487.786, 59266.00
1488.825, 59007.00
1489.864, 59071.00
1490.902, 59216.00
1491.941, 58930.00
1492.979, 59192.00
1494.017, 59056.00
1495.055, 59505.00
1496.093, 59054.00
1497.131, 59412.00
1498.168, 59954.00
1499.206, 58980.00
1500.243, 59765.00
1501.280, 59593.00
1502.317, 59808.00
1503.354, 59831.00
1504.390, 60063.00
1505.426, 59908.00
1506.463, 59898.00
1507.499, 59975.00
1508.535, 60088.00
1509.570, 59817.00
1510.606, 59892.00
1511.641, 60297.00
1512.676, 60043.00
1513.711, 60620.00
1514.746, 60262.00
1515.781, 60330.00
1516.816, 60724.00
1517.850, 60258.00
1518.884, 60541.00
1519.918, 60523.00
1520.952, 60766.00
1521.986, 60743.20
1523.019, 60851.00
1524.053, 60673.00
1525.086, 60909.00
1526.119, 60862.00
1527.152, 60998.00
1528.185, 60685.00
1529.217, 61024.00
1530.250, 61133.00
1531.282, 60777.00
1532.314, 61283.00
1533.346, 61228.00
1534.377, 61079.00
1535.409, 61217.00
1536.440, 61620.00
1537.472, 61433.00
1538.503, 61052.00
1539.534, 61540.00
1540.564, 61410.00
1541.595, 61176.00
1542.625, 61737.00
1543.656, 61151.00
1544.686, 61431.00
1545.716, 61723.00
1546.745, 61409.00
1547.775, 61423.00
1548.804, 61486.00
1549.834, 61658.00
1550.863, 61876.00
1551.892, 61735.00
1552.920, 61975.00
1553.949, 61567.00
1554.977, 61889.00
1556.006, 61892.00
1557.034, 61459.00
1558.062, 61841.00
1559.089, 62022.00
1560.117, 62041.00
1561.144, 62267.68
1562.172, 61866.00
1563.199, 62368.00
1564.226, 62059.00
1565.252, 61837.00
1566.279, 62496.00
1567.305, 61805.00
1568.332, 62332.00
1569.358, 62575.00
1570.384, 62286.00
1571.409, 62888.00
##END=



