##NAMES=Fluorapatite
##RRUFFID=R050194
##IDEAL CHEMISTRY=Ca_5_(PO_4_)_3_F
##LOCALITY=Siglo XX mine, Llallagua, Bolivia
##OWNER=RRUFF
##SOURCE=Dave Bunk Minerals
##DESCRIPTION=Purple crystal fragments
##STATUS=The identification of this mineral has been confirmed by X-ray diffraction and chemical analysis
##URL=rruff.info/R050194
##MEASURED CHEMISTRY=Ca_5.00_(P_1.00_O_4_)_3_F_1.00_
##PIN_ID=L01106
##ORIENTATION=Laser parallel to -c* (0 0 -1). Fiducial mark perpendicular to laser is parallel to -a [-1 0 0]
134.1270, 4592.000
135.3560, 4521.000
136.5850, 4673.000
137.8140, 4632.000
139.0430, 4651.000
140.2710, 4721.000
141.5000, 4676.000
142.7280, 4809.000
143.9560, 4824.000
145.1840, 4783.000
146.4120, 4727.000
147.6390, 4794.000
148.8670, 4766.000
150.0940, 4736.000
151.3210, 4766.000
152.5490, 4821.000
153.7750, 4811.000
155.0020, 4859.000
156.2290, 4918.000
157.4550, 4925.000
158.6810, 4992.000
159.9080, 4973.000
161.1340, 4968.000
162.3590, 5015.000
163.5850, 4989.000
164.8110, 4995.000
166.0360, 5007.000
167.2610, 5009.000
168.4860, 5051.000
169.7110, 5050.000
170.9360, 5185.000
172.1610, 5074.000
173.3850, 5226.000
174.6100, 5153.000
175.8340, 5252.000
177.0580, 5157.000
178.2820, 5241.000
179.5050, 5156.000
180.7290, 5202.000
181.9520, 5175.000
183.1760, 5244.000
184.3990, 5353.000
185.6220, 5277.000
186.8450, 5346.000
188.0670, 5280.000
189.2900, 5322.000
190.5120, 5404.000
191.7340, 5365.000
192.9560, 5371.000
194.1780, 5412.000
195.4000, 5406.000
196.6220, 5440.261
197.8430, 5485.000
199.0640, 5497.000
200.2860, 5533.000
201.5070, 5565.000
202.7270, 5546.000
203.9480, 5558.000
205.1690, 5589.000
206.3890, 5586.000
207.6090, 5613.000
208.8290, 5658.000
210.0490, 5636.000
211.2690, 5598.000
212.4890, 5616.000
213.7080, 5725.000
214.9280, 5620.000
216.1470, 5822.000
217.3660, 5803.000
218.5850, 5716.000
219.8030, 5883.000
221.0220, 5758.000
222.2400, 5834.000
223.4590, 5835.000
224.6770, 5880.000
225.8950, 5931.000
227.1120, 5952.047
228.3300, 5985.633
229.5480, 6000.000
230.7650, 6021.000
231.9820, 5997.000
233.1990, 5991.000
234.4160, 6063.000
235.6330, 6038.000
236.8490, 6131.000
238.0660, 6200.000
239.2820, 6122.000
240.4980, 6128.000
241.7140, 6144.000
242.9300, 6150.000
244.1460, 6128.000
245.3610, 6118.000
246.5770, 6270.000
247.7920, 6269.000
249.0070, 6260.000
250.2220, 6292.000
251.4370, 6262.000
252.6510, 6276.000
253.8660, 6311.000
255.0800, 6367.000
256.2940, 6371.000
257.5080, 6431.000
258.7220, 6454.000
259.9360, 6407.000
261.1490, 6495.000
262.3630, 6475.000
263.5760, 6478.000
264.7890, 6582.000
266.0020, 6526.000
267.2150, 6582.000
268.4270, 6608.000
269.6400, 6635.000
270.8520, 6669.000
272.0640, 6654.000
273.2760, 6629.000
274.4880, 6719.000
275.7000, 6719.000
276.9120, 6693.000
278.1230, 6711.000
279.3340, 6803.000
280.5450, 6701.000
281.7560, 6797.000
282.9670, 6864.000
284.1780, 6841.000
285.3880, 6799.000
286.5980, 6887.000
287.8090, 6824.000
289.0190, 6940.000
290.2290, 6930.000
291.4380, 6979.000
292.6480, 7034.470
293.8570, 6923.000
295.0670, 7080.000
296.2760, 7105.000
297.4850, 7037.000
298.6930, 7152.000
299.9020, 7052.000
301.1110, 7083.000
302.3190, 7143.000
303.5270, 7039.000
304.7350, 7185.000
305.9430, 7243.000
307.1510, 7140.000
308.3580, 7254.000
309.5660, 7341.000
310.7730, 7355.000
311.9800, 7388.000
313.1870, 7386.000
314.3940, 7380.000
315.6010, 7386.000
316.8070, 7351.000
318.0130, 7366.481
319.2200, 7472.000
320.4260, 7416.000
321.6310, 7360.000
322.8370, 7462.000
324.0430, 7541.000
325.2480, 7557.000
326.4540, 7465.000
327.6590, 7559.000
328.8640, 7630.000
330.0680, 7558.000
331.2730, 7661.000
332.4780, 7673.000
333.6820, 7695.000
334.8860, 7764.000
336.0900, 7864.000
337.2940, 7861.000
338.4980, 7770.000
339.7010, 7855.000
340.9050, 7821.000
342.1080, 7891.000
343.3110, 7922.000
344.5140, 7849.000
345.7170, 7950.000
346.9200, 7894.000
348.1220, 7907.000
349.3240, 7975.000
350.5270, 7972.123
351.7290, 8078.000
352.9310, 8043.000
354.1320, 8159.000
355.3340, 8188.000
356.5350, 8143.000
357.7370, 8154.000
358.9380, 8149.000
360.1390, 8210.000
361.3400, 8208.000
362.5400, 8234.822
363.7410, 8316.000
364.9410, 8253.000
366.1410, 8342.000
367.3410, 8305.000
368.5410, 8470.000
369.7410, 8287.000
370.9400, 8455.000
372.1400, 8411.000
373.3390, 8380.000
374.5380, 8468.000
375.7370, 8507.000
376.9360, 8551.000
378.1350, 8491.000
379.3330, 8576.000
380.5310, 8580.000
381.7300, 8629.000
382.9280, 8719.000
384.1260, 8705.000
385.3230, 8793.000
386.5210, 8696.000
387.7180, 8682.000
388.9160, 8808.000
390.1130, 8856.000
391.3100, 8937.000
392.5060, 8887.000
393.7030, 8892.000
394.9000, 8902.000
396.0960, 9019.000
397.2920, 8925.000
398.4880, 8879.000
399.6840, 8838.000
400.8800, 8972.000
402.0750, 9046.000
403.2710, 8996.000
404.4660, 9103.000
405.6610, 9150.000
406.8560, 9192.000
408.0510, 9186.000
409.2450, 9267.000
410.4400, 9222.000
411.6340, 9352.000
412.8280, 9267.000
414.0220, 9237.000
415.2160, 9321.000
416.4100, 9362.000
417.6030, 9366.000
418.7970, 9390.000
419.9900, 9380.000
421.1830, 9445.000
422.3760, 9500.000
423.5690, 9503.000
424.7610, 9535.000
425.9540, 9565.000
427.1460, 9585.188
428.3380, 9619.000
429.5300, 9661.000
430.7220, 9642.000
431.9140, 9720.000
433.1050, 9804.000
434.2970, 9770.000
435.4880, 9812.000
436.6790, 9901.000
437.8700, 9991.000
439.0610, 9903.000
440.2510, 9825.000
441.4420, 9994.000
442.6320, 10022.00
443.8220, 10003.00
445.0120, 10046.00
446.2020, 10088.00
447.3910, 10103.00
448.5810, 10133.00
449.7700, 10146.00
450.9600, 10238.00
452.1490, 10220.28
453.3370, 10241.64
454.5260, 10241.00
455.7150, 10239.00
456.9030, 10285.00
458.0910, 10290.00
459.2800, 10298.00
460.4670, 10431.00
461.6550, 10374.00
462.8430, 10482.00
464.0300, 10520.00
465.2180, 10567.00
466.4050, 10415.00
467.5920, 10519.00
468.7790, 10467.00
469.9650, 10630.00
471.1520, 10558.00
472.3380, 10713.00
473.5250, 10663.00
474.7110, 10666.00
475.8970, 10776.00
477.0820, 10780.00
478.2680, 10855.00
479.4540, 10797.00
480.6390, 10857.00
481.8240, 10921.00
483.0090, 10889.00
484.1940, 10972.00
485.3780, 10942.00
486.5630, 11035.00
487.7470, 11161.00
488.9320, 11211.00
490.1160, 11122.00
491.3000, 11206.00
492.4830, 11189.00
493.6670, 11167.00
494.8500, 11229.00
496.0340, 11337.00
497.2170, 11227.00
498.4000, 11433.00
499.5820, 11382.00
500.7650, 11424.00
501.9480, 11364.00
503.1300, 11451.00
504.3120, 11545.00
505.4940, 11496.00
506.6760, 11485.00
507.8580, 11503.00
509.0390, 11504.00
510.2210, 11664.00
511.4020, 11579.00
512.5830, 11792.00
513.7640, 11726.00
514.9450, 11722.00
516.1250, 11808.00
517.3060, 11791.00
518.4860, 11833.50
519.6660, 11884.91
520.8460, 11892.00
522.0260, 11959.00
523.2060, 11993.00
524.3850, 11983.00
525.5650, 12116.00
526.7440, 12094.00
527.9230, 12173.00
529.1020, 12113.00
530.2810, 12297.00
531.4590, 12222.00
532.6380, 12073.00
533.8160, 12284.00
534.9940, 12385.00
536.1720, 12433.00
537.3500, 12397.00
538.5270, 12276.00
539.7050, 12544.00
540.8820, 12539.00
542.0590, 12336.00
543.2360, 12483.00
544.4130, 12540.00
545.5900, 12522.00
546.7660, 12648.00
547.9430, 12641.00
549.1190, 12791.00
550.2950, 12703.00
551.4710, 12795.00
552.6470, 12792.00
553.8220, 12794.00
554.9980, 12885.00
556.1730, 12814.00
557.3480, 12866.00
558.5230, 12957.00
559.6980, 13105.00
560.8730, 13048.00
562.0470, 13192.00
563.2220, 13119.00
564.3960, 13054.00
565.5700, 13016.00
566.7440, 13155.00
567.9170, 13188.00
569.0910, 13256.00
570.2640, 13306.00
571.4380, 13358.00
572.6110, 13353.00
573.7840, 13312.00
574.9570, 13407.00
576.1290, 13483.00
577.3020, 13474.00
578.4740, 13592.00
579.6460, 13686.00
580.8180, 13838.00
581.9900, 13688.00
583.1620, 13755.00
584.3330, 13726.00
585.5040, 13912.00
586.6760, 13801.00
587.8470, 13805.00
589.0180, 13947.00
590.1880, 13880.00
591.3590, 13895.00
592.5290, 14081.00
593.7000, 13937.00
594.8700, 14041.00
596.0400, 14132.00
597.2090, 14229.00
598.3790, 14150.00
599.5490, 14132.00
600.7180, 14241.00
601.8870, 14222.00
603.0560, 14356.00
604.2250, 14297.00
605.3940, 14446.00
606.5620, 14537.00
607.7300, 14656.00
608.8990, 14535.00
610.0670, 14656.00
611.2350, 14493.00
612.4020, 14442.00
613.5700, 14722.00
614.7370, 14549.00
615.9050, 14817.00
617.0720, 14779.00
618.2390, 14819.00
619.4060, 14981.00
620.5720, 14904.00
621.7390, 15015.00
622.9050, 14863.00
624.0710, 14888.00
625.2370, 14973.00
626.4030, 14944.00
627.5690, 15090.00
628.7340, 14989.00
629.9000, 15049.00
631.0650, 15027.00
632.2300, 15096.00
633.3950, 15263.00
634.5600, 15263.00
635.7240, 15408.00
636.8890, 15256.00
638.0530, 15479.00
639.2170, 15450.00
640.3810, 15515.00
641.5450, 15647.00
642.7080, 15555.00
643.8720, 15525.00
645.0350, 15678.00
646.1980, 15706.00
647.3610, 15550.00
648.5240, 15714.00
649.6870, 15810.00
650.8490, 15996.00
652.0120, 16025.00
653.1740, 15868.00
654.3360, 16044.00
655.4980, 16014.00
656.6600, 16004.00
657.8210, 16089.00
658.9830, 16156.00
660.1440, 16181.95
661.3050, 16247.77
662.4660, 16237.00
663.6270, 16338.00
664.7870, 16302.00
665.9480, 16343.00
667.1080, 16456.00
668.2680, 16321.00
669.4280, 16600.00
670.5880, 16448.00
671.7480, 16403.00
672.9070, 16460.00
674.0670, 16766.00
675.2260, 16761.00
676.3850, 16825.00
677.5440, 16859.00
678.7030, 16930.00
679.8610, 16960.57
681.0200, 16918.00
682.1780, 17037.00
683.3360, 17035.00
684.4940, 17088.93
685.6520, 17131.94
686.8090, 17164.00
687.9670, 17159.00
689.1240, 17248.00
690.2810, 17200.00
691.4380, 17266.00
692.5950, 17412.00
693.7520, 17272.00
694.9080, 17457.00
696.0650, 17393.00
697.2210, 17388.00
698.3770, 17488.00
699.5330, 17441.00
700.6880, 17536.00
701.8440, 17629.00
702.9990, 17665.00
704.1550, 17689.20
705.3100, 17687.00
706.4650, 17707.00
707.6190, 17845.00
708.7740, 17931.00
709.9290, 17929.00
711.0830, 17875.00
712.2370, 18137.00
713.3910, 18068.00
714.5450, 18083.00
715.6980, 18256.00
716.8520, 18112.00
718.0050, 18027.00
719.1580, 18377.00
720.3110, 18349.00
721.4640, 18358.00
722.6170, 18423.00
723.7700, 18467.00
724.9220, 18554.86
726.0740, 18622.30
727.2260, 18741.00
728.3780, 18709.00
729.5300, 18754.00
730.6810, 18639.00
731.8330, 18671.00
732.9840, 18777.00
734.1350, 18604.00
735.2860, 18958.00
736.4370, 19022.00
737.5880, 18902.00
738.7380, 18777.00
739.8880, 18990.00
741.0390, 19058.00
742.1890, 19129.00
743.3380, 19092.00
744.4880, 19179.05
745.6380, 19216.00
746.7870, 19317.00
747.9360, 19365.41
749.0850, 19418.00
750.2340, 19453.00
751.3830, 19488.00
752.5310, 19474.00
753.6800, 19436.00
754.8280, 19471.00
755.9760, 19466.00
757.1240, 19538.68
758.2720, 19606.00
759.4190, 19724.00
760.5670, 19776.00
761.7140, 19890.00
762.8610, 19977.00
764.0080, 20073.00
765.1550, 19865.00
766.3020, 20131.00
767.4480, 19906.00
768.5950, 20062.00
769.7410, 20078.00
770.8870, 20309.00
772.0330, 20244.00
773.1780, 20309.00
774.3240, 20433.00
775.4690, 20395.00
776.6140, 20459.00
777.7590, 20502.00
778.9040, 20517.00
780.0490, 20692.00
781.1940, 20814.00
782.3380, 20801.00
783.4820, 20710.00
784.6260, 20760.00
785.7700, 20834.00
786.9140, 20877.00
788.0580, 20983.00
789.2010, 20871.00
790.3450, 20922.00
791.4880, 20888.00
792.6310, 21130.00
793.7730, 21163.00
794.9160, 21314.00
796.0590, 21240.00
797.2010, 21272.00
798.3430, 21355.00
799.4850, 21255.00
800.6270, 21534.00
801.7690, 21268.00
802.9100, 21547.00
804.0520, 21509.00
805.1930, 21742.00
806.3340, 21777.00
807.4750, 21727.00
808.6160, 21783.00
809.7560, 21955.00
810.8970, 21869.00
812.0370, 22066.00
813.1770, 21916.00
814.3170, 22024.00
815.4570, 22246.00
816.5960, 22078.00
817.7360, 22289.00
818.8750, 22285.00
820.0140, 22521.00
821.1530, 22517.00
822.2920, 22613.34
823.4310, 22644.02
824.5690, 22701.00
825.7070, 22625.00
826.8460, 22545.00
827.9840, 22522.00
829.1220, 22817.00
830.2590, 22718.00
831.3970, 22928.00
832.5340, 22858.00
833.6710, 22794.00
834.8080, 22878.00
835.9450, 22912.00
837.0820, 23164.00
838.2190, 23165.00
839.3550, 23142.00
840.4910, 23242.00
841.6270, 23188.00
842.7630, 23186.00
843.8990, 23320.00
845.0350, 23312.00
846.1700, 23645.00
847.3060, 23369.00
848.4410, 23456.00
849.5760, 23576.00
850.7100, 23432.00
851.8450, 23711.00
852.9800, 23794.00
854.1140, 23841.00
855.2480, 23762.00
856.3820, 23937.00
857.5160, 24052.00
858.6500, 24074.00
859.7830, 23919.00
860.9170, 24193.00
862.0500, 23978.00
863.1830, 24068.00
864.3160, 24261.00
865.4480, 24463.00
866.5810, 24343.00
867.7130, 24434.00
868.8460, 24427.00
869.9780, 24355.00
871.1100, 24356.00
872.2410, 24426.57
873.3730, 24460.00
874.5050, 24662.00
875.6360, 24751.00
876.7670, 24970.00
877.8980, 24928.00
879.0290, 24712.00
880.1590, 25167.00
881.2900, 24653.00
882.4200, 25013.00
883.5500, 25090.00
884.6800, 25110.00
885.8100, 25307.00
886.9400, 25055.00
888.0690, 25452.00
889.1990, 25413.00
890.3280, 25293.00
891.4570, 25401.00
892.5860, 25538.00
893.7140, 25411.00
894.8430, 25743.00
895.9710, 25551.00
897.1000, 25627.00
898.2280, 25636.00
899.3560, 25712.00
900.4830, 25766.22
901.6110, 25806.44
902.7380, 25926.00
903.8660, 25861.00
904.9930, 26005.00
906.1200, 25943.00
907.2460, 26091.00
908.3730, 26023.00
909.5000, 26135.25
910.6260, 26403.00
911.7520, 26355.00
912.8780, 26411.00
914.0040, 26569.00
915.1290, 26579.00
916.2550, 26658.00
917.3800, 26679.00
918.5050, 26880.00
919.6300, 26769.00
920.7550, 26950.00
921.8800, 27014.00
923.0040, 27035.00
924.1290, 27100.00
925.2530, 26940.00
926.3770, 27033.00
927.5010, 27012.00
928.6250, 27254.00
929.7480, 27354.00
930.8720, 27090.00
931.9950, 27405.00
933.1180, 27367.00
934.2410, 27370.00
935.3640, 27403.00
936.4860, 27425.77
937.6090, 27766.00
938.7310, 27531.00
939.8530, 27657.00
940.9750, 27727.00
942.0970, 27579.00
943.2180, 28017.00
944.3400, 27815.00
945.4610, 28016.00
946.5820, 28312.00
947.7030, 28081.00
948.8240, 28077.00
949.9450, 28255.00
951.0650, 28467.00
952.1860, 28230.00
953.3060, 28519.00
954.4260, 28417.00
955.5460, 28769.00
956.6650, 28838.00
957.7850, 28965.00
958.9040, 29046.00
960.0230, 29172.00
961.1420, 29515.00
962.2610, 29854.00
963.3800, 30270.00
964.4990, 30770.00
965.6170, 31002.00
966.7350, 30884.00
967.8530, 30522.00
968.9710, 29898.00
970.0890, 29691.00
971.2070, 29642.00
972.3240, 29419.00
973.4410, 29350.00
974.5580, 29524.00
975.6750, 29350.00
976.7920, 29444.00
977.9090, 29748.00
979.0250, 29721.00
980.1410, 29526.00
981.2580, 29918.00
982.3740, 29941.00
983.4890, 29866.00
984.6050, 30120.00
985.7200, 30061.00
986.8360, 29995.00
987.9510, 30182.00
989.0660, 30134.00
990.1810, 30088.00
991.2950, 30365.00
992.4100, 30304.00
993.5240, 30263.00
994.6390, 30254.00
995.7530, 30471.00
996.8660, 30439.24
997.9800, 30584.00
999.0940, 30524.00
1000.207, 30651.00
1001.320, 30625.00
1002.433, 30849.00
1003.546, 31010.00
1004.659, 30939.00
1005.772, 31120.00
1006.884, 30809.00
1007.996, 31125.00
1009.108, 30993.00
1010.220, 30932.00
1011.332, 31140.00
1012.444, 31154.00
1013.555, 31441.00
1014.666, 31436.00
1015.777, 31384.00
1016.888, 31557.00
1017.999, 31708.00
1019.110, 31516.00
1020.220, 31666.00
1021.331, 31845.00
1022.441, 31985.00
1023.551, 31904.00
1024.661, 32096.71
1025.770, 31872.00
1026.880, 32194.00
1027.989, 32193.00
1029.098, 31993.00
1030.207, 32237.00
1031.316, 32200.00
1032.425, 32468.00
1033.533, 32354.00
1034.642, 32623.00
1035.750, 32768.00
1036.858, 32504.00
1037.966, 32826.00
1039.073, 32682.00
1040.181, 32802.00
1041.288, 32551.00
1042.396, 32883.00
1043.503, 32760.00
1044.610, 32831.00
1045.716, 33035.00
1046.823, 32959.00
1047.929, 32831.00
1049.036, 33171.00
1050.142, 32982.00
1051.248, 33368.00
1052.353, 33319.00
1053.459, 33511.00
1054.564, 33201.00
1055.670, 33548.00
1056.775, 33462.00
1057.880, 33573.00
1058.985, 33657.00
1060.089, 33698.00
1061.194, 33856.00
1062.298, 33879.98
1063.402, 33980.37
1064.506, 34018.00
1065.610, 34152.00
1066.713, 34306.00
1067.817, 34412.00
1068.920, 34430.87
1070.023, 34498.48
1071.126, 34386.00
1072.229, 34491.00
1073.332, 34422.00
1074.435, 34333.00
1075.537, 34541.00
1076.639, 34604.00
1077.741, 34629.00
1078.843, 34726.00
1079.945, 34693.00
1081.046, 34927.00
1082.148, 35051.00
1083.249, 34749.00
1084.350, 34980.00
1085.451, 34901.00
1086.551, 35149.00
1087.652, 35221.00
1088.752, 35152.00
1089.853, 35239.00
1090.953, 35359.00
1092.053, 35310.40
1093.152, 35566.00
1094.252, 35352.00
1095.351, 35428.00
1096.451, 35551.00
1097.550, 35675.00
1098.649, 35477.00
1099.748, 35699.00
1100.846, 35807.00
1101.945, 35724.00
1103.043, 35981.00
1104.141, 35973.00
1105.239, 36160.00
1106.337, 35985.00
1107.434, 36227.00
1108.532, 35993.00
1109.629, 36256.00
1110.726, 36436.00
1111.823, 36370.00
1112.920, 36367.00
1114.017, 36579.00
1115.113, 36551.00
1116.210, 36590.00
1117.306, 36723.00
1118.402, 36822.00
1119.498, 36756.00
1120.593, 36864.00
1121.689, 37171.00
1122.784, 36942.00
1123.879, 37143.00
1124.974, 37058.00
1126.069, 37145.00
1127.164, 37409.00
1128.259, 37089.00
1129.353, 37525.00
1130.447, 37279.00
1131.541, 37315.00
1132.635, 37663.00
1133.729, 37887.00
1134.822, 37355.00
1135.916, 37645.00
1137.009, 37747.00
1138.102, 37873.00
1139.195, 37922.00
1140.288, 38057.00
1141.380, 38175.00
1142.473, 38019.00
1143.565, 38011.00
1144.657, 38265.00
1145.749, 38122.00
1146.841, 38138.00
1147.932, 38279.00
1149.024, 38314.00
1150.115, 38499.00
1151.206, 38577.00
1152.297, 38568.00
1153.388, 38290.00
1154.479, 38670.00
1155.569, 38639.00
1156.659, 38903.00
1157.750, 39088.00
1158.839, 38855.00
1159.929, 39013.00
1161.019, 38949.00
1162.108, 39277.00
1163.198, 39063.00
1164.287, 39166.00
1165.376, 39367.00
1166.465, 39477.00
1167.553, 39392.00
1168.642, 39346.00
1169.730, 39386.00
1170.818, 39384.44
1171.906, 39607.00
1172.994, 39610.00
1174.082, 39726.00
1175.170, 40118.00
1176.257, 39766.00
1177.344, 39570.00
1178.431, 39750.00
1179.518, 39947.00
1180.605, 40092.00
1181.691, 40117.00
1182.778, 40482.00
1183.864, 40282.00
1184.950, 40536.00
1186.036, 40594.00
1187.122, 40519.00
1188.207, 40390.00
1189.292, 40651.00
1190.378, 40743.00
1191.463, 40630.00
1192.548, 40373.00
1193.632, 40890.00
1194.717, 40742.00
1195.801, 40739.00
1196.886, 41010.00
1197.970, 40993.00
1199.054, 41161.00
1200.137, 41098.00
1201.221, 41056.00
1202.305, 41384.00
1203.388, 41094.00
1204.471, 41350.00
1205.554, 41719.00
1206.637, 41377.00
1207.719, 41389.00
1208.802, 41429.00
1209.884, 41530.00
1210.966, 41620.55
1212.048, 41765.00
1213.130, 41841.00
1214.212, 42001.00
1215.293, 42034.00
1216.374, 42294.00
1217.456, 41979.00
1218.536, 42084.00
1219.617, 42055.00
1220.698, 42360.00
1221.778, 42223.00
1222.859, 42103.00
1223.939, 42366.00
1225.019, 42201.00
1226.099, 42500.00
1227.178, 42483.00
1228.258, 42483.00
1229.337, 42595.00
1230.417, 42847.00
1231.496, 42926.00
1232.574, 42887.00
1233.653, 42855.00
1234.732, 42919.20
1235.810, 43021.00
1236.888, 43039.00
1237.966, 42999.00
1239.044, 43135.00
1240.122, 43131.00
1241.199, 43236.00
1242.277, 43219.00
1243.354, 43351.00
1244.431, 43385.76
1245.508, 43493.00
1246.585, 43532.00
1247.661, 43596.00
1248.738, 43744.00
1249.814, 43878.00
1250.890, 43849.00
1251.966, 43851.00
1253.042, 44043.00
1254.117, 44119.00
1255.193, 43972.00
1256.268, 44013.00
1257.343, 44166.00
1258.418, 43959.00
1259.493, 43937.00
1260.567, 44458.00
1261.642, 44208.00
1262.716, 44451.00
1263.790, 44518.00
1264.864, 44634.00
1265.938, 44626.00
1267.011, 44475.00
1268.085, 44692.00
1269.158, 44448.00
1270.231, 44841.00
1271.304, 44542.16
1272.377, 44842.83
1273.450, 45035.96
1274.522, 45127.29
1275.594, 44812.09
1276.666, 45021.84
1277.738, 45021.21
1278.810, 45011.96
1279.882, 45295.58
1280.953, 45039.46
1282.025, 45318.45
1283.096, 45383.79
1284.167, 45546.89
1285.238, 45498.32
1286.308, 45515.08
1287.379, 45743.63
1288.449, 45854.88
1289.519, 45781.89
1290.589, 45951.15
1291.659, 45687.59
1292.729, 45803.83
1293.798, 46083.90
1294.868, 46021.56
1295.937, 46194.64
1297.006, 46278.04
1298.075, 45953.85
1299.143, 46338.44
1300.212, 46416.54
1301.280, 46179.84
1302.348, 46540.14
1303.416, 46346.83
1304.484, 46351.12
1305.552, 46504.12
1306.620, 46502.11
1307.687, 46744.45
1308.754, 46751.33
1309.821, 46737.18
1310.888, 46814.82
1311.955, 46632.31
1313.021, 46932.41
1314.088, 46902.86
1315.154, 47000.00
1316.220, 47338.00
1317.286, 47040.00
1318.352, 47330.00
1319.417, 47416.00
1320.483, 47457.00
1321.548, 47265.00
1322.613, 47208.00
1323.678, 47382.00
1324.743, 47381.18
1325.807, 47505.32
1326.872, 47610.00
1327.936, 47800.00
1329.000, 47823.00
1330.064, 48035.00
1331.128, 48025.00
1332.191, 47935.00
1333.255, 47770.00
1334.318, 48049.00
1335.381, 48259.00
1336.444, 48066.00
1337.507, 48461.00
1338.569, 48400.00
1339.632, 48231.00
1340.694, 48447.00
1341.756, 48499.00
1342.818, 48576.00
1343.880, 48706.00
1344.941, 48639.00
1346.003, 48874.00
1347.064, 48763.00
1348.125, 49139.00
1349.186, 48933.00
1350.247, 49388.00
1351.308, 48998.00
1352.368, 49182.00
1353.428, 49317.00
1354.489, 48844.00
1355.549, 49441.00
1356.608, 48984.00
1357.668, 49691.00
1358.727, 49580.00
1359.787, 49488.00
1360.846, 49535.00
1361.905, 49511.41
1362.964, 49625.00
1364.022, 49634.00
1365.081, 49579.00
1366.139, 49711.00
1367.197, 49608.00
1368.255, 49713.00
1369.313, 49929.00
1370.371, 50037.00
1371.428, 50051.00
1372.486, 49882.00
1373.543, 50221.00
1374.600, 50001.00
1375.657, 50374.00
1376.713, 50024.00
1377.770, 50459.00
1378.826, 50252.00
1379.882, 50316.00
1380.938, 50581.00
1381.994, 50398.00
1383.050, 50599.00
1384.106, 50508.00
1385.161, 50542.00
1386.216, 50500.00
1387.271, 50831.00
1388.326, 51105.00
1389.381, 50819.00
1390.435, 50706.00
1391.490, 50997.00
1392.544, 50924.00
1393.598, 51203.00
1394.652, 51253.00
1395.705, 51133.00
1396.759, 51248.00
1397.812, 51227.77
1398.866, 51316.00
1399.919, 51296.00
1400.972, 51331.00
1402.024, 51415.00
1403.077, 51273.00
1404.129, 51615.00
1405.181, 51333.00
1406.233, 51943.00
1407.285, 51613.00
1408.337, 51360.00
1409.389, 51815.00
1410.440, 51672.00
1411.491, 51961.00
1412.542, 52147.00
1413.593, 52204.00
1414.644, 51942.00
1415.695, 52073.00
1416.745, 52065.00
1417.795, 52075.73
1418.845, 52217.00
1419.895, 52245.00
1420.945, 52362.00
1421.995, 52491.00
1423.044, 52657.00
1424.093, 52492.00
1425.142, 52829.00
1426.191, 52556.00
1427.240, 52933.00
1428.289, 52826.00
1429.337, 52720.00
1430.385, 52940.00
1431.433, 52813.00
1432.481, 52793.00
1433.529, 52982.00
1434.577, 53126.00
1435.624, 53418.00
1436.672, 53048.00
1437.719, 53224.00
1438.766, 52937.00
1439.812, 53059.63
1440.859, 53454.00
1441.905, 53224.00
1442.952, 53634.00
1443.998, 53550.00
1445.044, 53614.00
1446.090, 53743.00
1447.135, 53540.00
1448.181, 53775.00
1449.226, 53794.00
1450.271, 53763.00
1451.316, 54096.00
1452.361, 53643.00
1453.405, 54151.00
1454.450, 53868.00
1455.494, 54256.00
1456.538, 53833.00
1457.582, 54405.00
1458.626, 54442.00
1459.670, 54230.00
1460.713, 54258.00
1461.757, 54525.00
1462.800, 54237.00
1463.843, 54579.00
1464.886, 54550.00
1465.928, 54497.00
1466.971, 54294.00
1468.013, 54854.00
1469.055, 54617.00
1470.097, 54803.00
1471.139, 54844.00
1472.181, 54671.00
1473.222, 54892.00
1474.263, 55266.00
1475.305, 55417.00
1476.346, 55003.00
1477.386, 55386.00
1478.427, 55168.00
1479.468, 55534.00
1480.508, 55402.00
1481.548, 55428.00
1482.588, 55230.00
1483.628, 55453.00
1484.668, 55664.00
1485.707, 55656.00
1486.747, 55789.96
1487.786, 55702.00
1488.825, 55841.00
1489.864, 55904.00
1490.902, 55873.00
1491.941, 55904.00
1492.979, 55924.00
1494.017, 56089.00
1495.055, 56139.00
1496.093, 55998.00
1497.131, 56208.00
1498.168, 56186.00
1499.206, 56429.00
1500.243, 56280.00
1501.280, 56488.00
1502.317, 56238.00
1503.354, 56468.00
1504.390, 56590.00
1505.426, 56612.00
1506.463, 56440.00
1507.499, 56644.00
1508.535, 56435.00
1509.570, 57009.00
1510.606, 56818.00
1511.641, 57013.00
1512.676, 56865.00
1513.711, 57012.00
1514.746, 57126.37
1515.781, 56820.00
1516.816, 57368.00
1517.850, 57188.00
1518.884, 57189.00
1519.918, 57138.00
1520.952, 57580.00
1521.986, 57166.00
1523.019, 57396.00
1524.053, 57195.00
1525.086, 57556.00
1526.119, 57596.00
1527.152, 57611.00
1528.185, 57513.00
1529.217, 57923.00
1530.250, 57920.00
1531.282, 57890.00
1532.314, 57794.00
1533.346, 57961.00
1534.377, 57994.00
1535.409, 57848.00
1536.440, 58136.00
1537.472, 58170.00
1538.503, 57857.00
1539.534, 58088.00
1540.564, 58139.00
1541.595, 58199.00
1542.625, 58122.00
1543.656, 58157.00
1544.686, 58039.00
1545.716, 58197.00
1546.745, 58439.00
1547.775, 58341.00
1548.804, 58357.00
1549.834, 58223.00
1550.863, 58332.00
1551.892, 58510.00
1552.920, 58488.52
1553.949, 58579.00
1554.977, 58609.00
1556.006, 58671.00
1557.034, 58695.00
1558.062, 58743.04
1559.089, 58826.00
1560.117, 58850.00
1561.144, 59097.00
1562.172, 59213.00
1563.199, 58832.00
1564.226, 59089.00
1565.252, 58723.00
1566.279, 59205.00
1567.305, 59226.00
1568.332, 59300.00
1569.358, 59475.00
1570.384, 59296.00
1571.409, 59794.00
##END=



