##NAMES=Fluorapatite
##RRUFFID=R050194
##IDEAL CHEMISTRY=Ca_5_(PO_4_)_3_F
##LOCALITY=Siglo XX mine, Llallagua, Bolivia
##OWNER=RRUFF
##SOURCE=Dave Bunk Minerals
##DESCRIPTION=Purple crystal fragments
##STATUS=The identification of this mineral has been confirmed by X-ray diffraction and chemical analysis
##URL=rruff.info/R050194
##MEASURED CHEMISTRY=Ca_5.00_(P_1.00_O_4_)_3_F_1.00_
##PIN_ID=L01106
##ORIENTATION=Laser parallel to -c* (0 0 -1). Fiducial mark perpendicular to laser is parallel to -a [-1 0 0]
137.8140, 5009.000
139.0430, 5111.000
140.2710, 5224.000
141.5000, 5064.000
142.7280, 5189.000
143.9560, 5231.000
145.1840, 5140.000
146.4120, 5250.000
147.6390, 5229.000
148.8670, 5323.000
150.0940, 5178.000
151.3210, 5302.000
152.5490, 5320.000
153.7750, 5380.000
155.0020, 5397.832
156.2290, 5407.000
157.4550, 5402.000
158.6810, 5418.000
159.9080, 5439.000
161.1340, 5493.000
162.3590, 5497.738
163.5850, 5557.000
164.8110, 5511.000
166.0360, 5550.000
167.2610, 5516.000
168.4860, 5543.000
169.7110, 5563.000
170.9360, 5655.000
172.1610, 5738.000
173.3850, 5658.000
174.6100, 5660.000
175.8340, 5673.000
177.0580, 5651.616
178.2820, 5677.622
179.5050, 5689.000
180.7290, 5702.000
181.9520, 5771.000
183.1760, 5760.000
184.3990, 5819.000
185.6220, 5786.000
186.8450, 5930.000
188.0670, 5862.000
189.2900, 5854.000
190.5120, 5911.000
191.7340, 5870.000
192.9560, 5974.000
194.1780, 5988.000
195.4000, 6016.000
196.6220, 6020.000
197.8430, 5968.000
199.0640, 6023.000
200.2860, 6009.000
201.5070, 6120.000
202.7270, 6152.000
203.9480, 6194.000
205.1690, 6213.109
206.3890, 6168.000
207.6090, 6214.000
208.8290, 6192.000
210.0490, 6215.000
211.2690, 6192.000
212.4890, 6242.186
213.7080, 6273.000
214.9280, 6348.000
216.1470, 6394.000
217.3660, 6452.000
218.5850, 6396.000
219.8030, 6400.000
221.0220, 6327.000
222.2400, 6434.000
223.4590, 6460.000
224.6770, 6504.000
225.8950, 6407.000
227.1120, 6523.000
228.3300, 6557.000
229.5480, 6519.000
230.7650, 6623.000
231.9820, 6544.000
233.1990, 6593.000
234.4160, 6709.000
235.6330, 6705.000
236.8490, 6809.000
238.0660, 6683.000
239.2820, 6752.000
240.4980, 6792.000
241.7140, 6760.000
242.9300, 6812.000
244.1460, 6720.000
245.3610, 6755.000
246.5770, 6864.000
247.7920, 6776.000
249.0070, 6945.000
250.2220, 6899.000
251.4370, 6973.000
252.6510, 6925.000
253.8660, 6983.000
255.0800, 7003.000
256.2940, 6915.000
257.5080, 7036.000
258.7220, 7077.000
259.9360, 6974.000
261.1490, 7031.000
262.3630, 7091.000
263.5760, 7247.000
264.7890, 7272.000
266.0020, 7236.000
267.2150, 7256.000
268.4270, 7299.000
269.6400, 7376.000
270.8520, 7271.000
272.0640, 7282.000
273.2760, 7390.000
274.4880, 7321.000
275.7000, 7327.000
276.9120, 7408.000
278.1230, 7394.000
279.3340, 7481.000
280.5450, 7555.000
281.7560, 7492.000
282.9670, 7465.000
284.1780, 7498.000
285.3880, 7525.000
286.5980, 7642.000
287.8090, 7676.000
289.0190, 7650.000
290.2290, 7699.439
291.4380, 7694.000
292.6480, 7693.000
293.8570, 7701.000
295.0670, 7678.000
296.2760, 7712.729
297.4850, 7729.000
298.6930, 7794.000
299.9020, 7756.000
301.1110, 7838.000
302.3190, 7904.000
303.5270, 7943.000
304.7350, 7935.000
305.9430, 7911.000
307.1510, 7893.000
308.3580, 8071.000
309.5660, 7950.000
310.7730, 8056.000
311.9800, 8001.000
313.1870, 8142.000
314.3940, 7986.000
315.6010, 8097.000
316.8070, 8236.000
318.0130, 8150.000
319.2200, 8152.000
320.4260, 8139.000
321.6310, 8233.000
322.8370, 8225.000
324.0430, 8280.000
325.2480, 8252.000
326.4540, 8198.000
327.6590, 8452.000
328.8640, 8348.000
330.0680, 8435.000
331.2730, 8339.000
332.4780, 8478.000
333.6820, 8501.000
334.8860, 8477.000
336.0900, 8506.000
337.2940, 8438.000
338.4980, 8473.906
339.7010, 8492.000
340.9050, 8577.000
342.1080, 8479.000
343.3110, 8662.000
344.5140, 8784.000
345.7170, 8789.000
346.9200, 8755.000
348.1220, 8720.000
349.3240, 8796.000
350.5270, 8865.000
351.7290, 8945.000
352.9310, 8860.000
354.1320, 8797.000
355.3340, 8991.000
356.5350, 8874.000
357.7370, 8856.000
358.9380, 9028.000
360.1390, 9032.000
361.3400, 8977.000
362.5400, 9061.000
363.7410, 8998.000
364.9410, 9176.000
366.1410, 9176.000
367.3410, 9221.000
368.5410, 9191.000
369.7410, 9159.000
370.9400, 9234.000
372.1400, 9305.000
373.3390, 9335.000
374.5380, 9413.000
375.7370, 9287.000
376.9360, 9343.000
378.1350, 9369.000
379.3330, 9404.000
380.5310, 9507.000
381.7300, 9363.000
382.9280, 9555.000
384.1260, 9485.000
385.3230, 9561.000
386.5210, 9715.000
387.7180, 9755.000
388.9160, 9629.000
390.1130, 9697.000
391.3100, 9713.000
392.5060, 9690.000
393.7030, 9715.000
394.9000, 9772.000
396.0960, 9770.911
397.2920, 9926.000
398.4880, 9858.000
399.6840, 9839.000
400.8800, 9965.000
402.0750, 10009.00
403.2710, 9967.000
404.4660, 10006.00
405.6610, 10107.00
406.8560, 10029.00
408.0510, 10096.00
409.2450, 10178.00
410.4400, 10058.00
411.6340, 10196.00
412.8280, 10153.00
414.0220, 10400.00
415.2160, 10308.00
416.4100, 10174.00
417.6030, 10528.00
418.7970, 10347.00
419.9900, 10447.00
421.1830, 10373.00
422.3760, 10437.00
423.5690, 10429.00
424.7610, 10392.00
425.9540, 10520.00
427.1460, 10585.00
428.3380, 10586.00
429.5300, 10702.00
430.7220, 10655.00
431.9140, 10746.00
433.1050, 10779.00
434.2970, 10766.00
435.4880, 10785.00
436.6790, 10900.00
437.8700, 10724.00
439.0610, 10886.00
440.2510, 11023.00
441.4420, 11074.00
442.6320, 10889.00
443.8220, 11155.00
445.0120, 11070.00
446.2020, 11211.00
447.3910, 11090.00
448.5810, 11170.00
449.7700, 11112.00
450.9600, 11056.00
452.1490, 11119.00
453.3370, 11179.00
454.5260, 11224.00
455.7150, 11266.80
456.9030, 11389.00
458.0910, 11318.00
459.2800, 11479.00
460.4670, 11479.00
461.6550, 11432.00
462.8430, 11589.00
464.0300, 11481.00
465.2180, 11519.00
466.4050, 11617.00
467.5920, 11491.00
468.7790, 11632.00
469.9650, 11486.00
471.1520, 11621.00
472.3380, 11663.00
473.5250, 11797.00
474.7110, 11770.00
475.8970, 11826.00
477.0820, 11795.00
478.2680, 11891.00
479.4540, 11790.00
480.6390, 11959.00
481.8240, 11897.00
483.0090, 12018.00
484.1940, 12035.00
485.3780, 12106.00
486.5630, 12065.00
487.7470, 12133.00
488.9320, 12147.00
490.1160, 12050.00
491.3000, 12216.00
492.4830, 12252.00
493.6670, 12336.00
494.8500, 12212.00
496.0340, 12340.00
497.2170, 12346.00
498.4000, 12299.00
499.5820, 12430.00
500.7650, 12511.00
501.9480, 12509.00
503.1300, 12565.00
504.3120, 12594.00
505.4940, 12590.00
506.6760, 12696.00
507.8580, 12601.00
509.0390, 12793.00
510.2210, 12757.00
511.4020, 12821.00
512.5830, 12828.00
513.7640, 12750.00
514.9450, 12802.00
516.1250, 12751.00
517.3060, 13013.00
518.4860, 12921.00
519.6660, 13118.00
520.8460, 13016.00
522.0260, 13040.00
523.2060, 13052.00
524.3850, 13224.00
525.5650, 13263.00
526.7440, 13426.00
527.9230, 13377.00
529.1020, 13448.55
530.2810, 13379.00
531.4590, 13451.00
532.6380, 13432.00
533.8160, 13337.00
534.9940, 13431.00
536.1720, 13420.00
537.3500, 13631.00
538.5270, 13734.00
539.7050, 13678.00
540.8820, 13750.00
542.0590, 13679.00
543.2360, 13818.00
544.4130, 13680.00
545.5900, 13771.00
546.7660, 13811.00
547.9430, 13746.00
549.1190, 13777.00
550.2950, 13928.00
551.4710, 13793.00
552.6470, 14066.00
553.8220, 14105.00
554.9980, 14143.00
556.1730, 14086.00
557.3480, 14025.00
558.5230, 14258.00
559.6980, 14299.00
560.8730, 14191.00
562.0470, 14353.00
563.2220, 14185.00
564.3960, 14326.00
565.5700, 14408.00
566.7440, 14437.00
567.9170, 14481.00
569.0910, 14548.00
570.2640, 14455.00
571.4380, 14619.00
572.6110, 14533.00
573.7840, 14644.00
574.9570, 14764.00
576.1290, 14842.00
577.3020, 14913.23
578.4740, 14913.00
579.6460, 15041.00
580.8180, 14945.00
581.9900, 15045.00
583.1620, 15039.00
584.3330, 15208.00
585.5040, 15114.00
586.6760, 15056.00
587.8470, 15049.00
589.0180, 15221.00
590.1880, 14993.00
591.3590, 15214.00
592.5290, 15298.00
593.7000, 15191.00
594.8700, 15397.00
596.0400, 15502.00
597.2090, 15457.00
598.3790, 15466.00
599.5490, 15422.00
600.7180, 15632.00
601.8870, 15562.00
603.0560, 15498.00
604.2250, 15748.00
605.3940, 15735.00
606.5620, 15912.00
607.7300, 15837.00
608.8990, 15845.00
610.0670, 15860.00
611.2350, 15757.00
612.4020, 16042.00
613.5700, 15896.00
614.7370, 16015.00
615.9050, 16049.00
617.0720, 16119.00
618.2390, 16185.00
619.4060, 16245.00
620.5720, 16274.00
621.7390, 16296.50
622.9050, 16235.00
624.0710, 16293.00
625.2370, 16281.00
626.4030, 16252.00
627.5690, 16399.00
628.7340, 16465.00
629.9000, 16388.00
631.0650, 16631.00
632.2300, 16764.00
633.3950, 16654.00
634.5600, 16745.00
635.7240, 16668.00
636.8890, 16836.00
638.0530, 16684.00
639.2170, 16819.00
640.3810, 16858.00
641.5450, 16928.00
642.7080, 16997.00
643.8720, 17113.00
645.0350, 17068.00
646.1980, 17184.00
647.3610, 17145.00
648.5240, 17159.00
649.6870, 17262.00
650.8490, 17162.00
652.0120, 17298.00
653.1740, 17335.00
654.3360, 17407.00
655.4980, 17398.00
656.6600, 17357.00
657.8210, 17363.00
658.9830, 17479.00
660.1440, 17548.00
661.3050, 17732.00
662.4660, 17658.00
663.6270, 17754.00
664.7870, 17558.00
665.9480, 17760.00
667.1080, 17938.00
668.2680, 17923.00
669.4280, 18129.00
670.5880, 17915.00
671.7480, 17871.00
672.9070, 17931.00
674.0670, 17925.73
675.2260, 18143.00
676.3850, 18145.00
677.5440, 18249.00
678.7030, 18423.00
679.8610, 18328.00
681.0200, 18265.00
682.1780, 18299.00
683.3360, 18279.02
684.4940, 18528.00
685.6520, 18350.00
686.8090, 18521.00
687.9670, 18583.00
689.1240, 18488.00
690.2810, 18655.00
691.4380, 18664.00
692.5950, 18802.00
693.7520, 18945.00
694.9080, 18978.81
696.0650, 18889.00
697.2210, 19085.00
698.3770, 19091.00
699.5330, 19086.00
700.6880, 19157.00
701.8440, 19186.00
702.9990, 19193.00
704.1550, 19261.00
705.3100, 19283.00
706.4650, 19215.00
707.6190, 19191.00
708.7740, 19465.00
709.9290, 19420.00
711.0830, 19518.00
712.2370, 19661.00
713.3910, 19438.00
714.5450, 19566.00
715.6980, 19652.00
716.8520, 19714.00
718.0050, 19701.00
719.1580, 19865.00
720.3110, 19846.00
721.4640, 19785.00
722.6170, 20215.00
723.7700, 20051.00
724.9220, 19960.00
726.0740, 19950.00
727.2260, 20318.00
728.3780, 20214.00
729.5300, 20372.00
730.6810, 20242.00
731.8330, 20496.00
732.9840, 20513.00
734.1350, 20513.00
735.2860, 20548.00
736.4370, 20567.00
737.5880, 20537.00
738.7380, 20617.00
739.8880, 20511.00
741.0390, 20596.00
742.1890, 20854.00
743.3380, 20813.00
744.4880, 20923.00
745.6380, 20826.00
746.7870, 20893.00
747.9360, 20976.00
749.0850, 21035.00
750.2340, 21076.51
751.3830, 21078.00
752.5310, 21135.00
753.6800, 21135.34
754.8280, 21147.00
755.9760, 21166.00
757.1240, 21250.00
758.2720, 21364.00
759.4190, 21576.00
760.5670, 21597.69
761.7140, 21586.00
762.8610, 21695.00
764.0080, 21692.00
765.1550, 21703.00
766.3020, 21674.00
767.4480, 21785.00
768.5950, 21768.00
769.7410, 21678.00
770.8870, 22066.00
772.0330, 21943.00
773.1780, 22178.00
774.3240, 22001.00
775.4690, 22153.00
776.6140, 22163.00
777.7590, 22141.00
778.9040, 22255.00
780.0490, 22227.00
781.1940, 22317.36
782.3380, 22430.00
783.4820, 22461.00
784.6260, 22528.00
785.7700, 22563.00
786.9140, 22619.00
788.0580, 22626.00
789.2010, 22742.00
790.3450, 22784.00
791.4880, 22723.00
792.6310, 22803.00
793.7730, 22926.00
794.9160, 22909.13
796.0590, 22971.00
797.2010, 22982.00
798.3430, 23114.00
799.4850, 23170.00
800.6270, 23095.00
801.7690, 23337.00
802.9100, 23174.00
804.0520, 23210.00
805.1930, 23292.00
806.3340, 23537.00
807.4750, 23513.00
808.6160, 23678.00
809.7560, 23731.00
810.8970, 23623.00
812.0370, 23706.00
813.1770, 23887.00
814.3170, 24101.00
815.4570, 23754.00
816.5960, 23962.00
817.7360, 23873.00
818.8750, 24046.00
820.0140, 23905.00
821.1530, 23990.00
822.2920, 24132.00
823.4310, 24183.00
824.5690, 24212.00
825.7070, 24298.00
826.8460, 24354.00
827.9840, 24388.00
829.1220, 24401.00
830.2590, 24588.00
831.3970, 24726.00
832.5340, 24606.00
833.6710, 24527.00
834.8080, 24623.00
835.9450, 24716.00
837.0820, 24896.00
838.2190, 24738.00
839.3550, 24868.00
840.4910, 24971.00
841.6270, 24852.00
842.7630, 25149.00
843.8990, 25125.00
845.0350, 25199.00
846.1700, 25237.00
847.3060, 25233.00
848.4410, 25520.00
849.5760, 25297.00
850.7100, 25597.00
851.8450, 25428.00
852.9800, 25371.00
854.1140, 25602.00
855.2480, 25783.00
856.3820, 25601.00
857.5160, 25816.00
858.6500, 25923.00
859.7830, 26018.00
860.9170, 26175.00
862.0500, 26258.00
863.1830, 25914.00
864.3160, 26212.00
865.4480, 26225.00
866.5810, 26093.00
867.7130, 26392.00
868.8460, 26448.00
869.9780, 26565.00
871.1100, 26330.00
872.2410, 26441.00
873.3730, 26482.00
874.5050, 26723.00
875.6360, 26626.00
876.7670, 26645.00
877.8980, 26889.00
879.0290, 26961.00
880.1590, 26972.00
881.2900, 26992.00
882.4200, 27081.00
883.5500, 26976.00
884.6800, 27075.00
885.8100, 27286.00
886.9400, 27184.00
888.0690, 27314.00
889.1990, 27238.00
890.3280, 27255.00
891.4570, 27607.00
892.5860, 27320.00
893.7140, 27500.00
894.8430, 27672.00
895.9710, 27546.00
897.1000, 27634.00
898.2280, 27569.00
899.3560, 27939.00
900.4830, 27899.00
901.6110, 27921.00
902.7380, 27990.00
903.8660, 28003.03
904.9930, 28081.00
906.1200, 28102.00
907.2460, 28064.00
908.3730, 28104.00
909.5000, 28134.00
910.6260, 28290.00
911.7520, 28344.00
912.8780, 28451.00
914.0040, 28385.00
915.1290, 28593.00
916.2550, 28705.00
917.3800, 28614.00
918.5050, 28555.00
919.6300, 28737.00
920.7550, 28622.00
921.8800, 29073.00
923.0040, 28847.00
924.1290, 29075.00
925.2530, 29305.00
926.3770, 29051.00
927.5010, 28813.00
928.6250, 29049.00
929.7480, 29166.00
930.8720, 29192.00
931.9950, 29359.86
933.1180, 29238.00
934.2410, 29552.00
935.3640, 29581.00
936.4860, 29650.00
937.6090, 29569.00
938.7310, 29814.00
939.8530, 29985.00
940.9750, 29728.00
942.0970, 30041.00
943.2180, 29913.00
944.3400, 30156.00
945.4610, 29975.00
946.5820, 30013.00
947.7030, 30414.00
948.8240, 30139.00
949.9450, 30379.00
951.0650, 30443.00
952.1860, 30341.00
953.3060, 30545.00
954.4260, 30647.00
955.5460, 30723.23
956.6650, 30990.00
957.7850, 30997.00
958.9040, 31137.00
960.0230, 31329.00
961.1420, 31593.00
962.2610, 31855.00
963.3800, 32341.00
964.4990, 32911.00
965.6170, 33331.00
966.7350, 32943.00
967.8530, 32669.00
968.9710, 32080.00
970.0890, 31810.00
971.2070, 31693.00
972.3240, 31504.00
973.4410, 31670.00
974.5580, 31365.00
975.6750, 31713.00
976.7920, 31884.00
977.9090, 31745.00
979.0250, 31838.00
980.1410, 31899.00
981.2580, 32120.00
982.3740, 32055.00
983.4890, 31973.00
984.6050, 32131.00
985.7200, 32082.00
986.8360, 32282.00
987.9510, 32258.00
989.0660, 32195.00
990.1810, 32423.00
991.2950, 32390.00
992.4100, 32362.00
993.5240, 32341.00
994.6390, 32553.00
995.7530, 32630.00
996.8660, 32686.00
997.9800, 32710.00
999.0940, 32714.00
1000.207, 33038.00
1001.320, 32908.00
1002.433, 33155.00
1003.546, 33018.00
1004.659, 32927.00
1005.772, 33248.00
1006.884, 33255.00
1007.996, 33213.00
1009.108, 33235.00
1010.220, 33511.00
1011.332, 33463.00
1012.444, 33431.00
1013.555, 33316.00
1014.666, 33513.00
1015.777, 33477.00
1016.888, 33727.00
1017.999, 33908.00
1019.110, 34000.00
1020.220, 34065.54
1021.331, 33775.00
1022.441, 34069.00
1023.551, 34010.00
1024.661, 34036.00
1025.770, 34170.00
1026.880, 34342.00
1027.989, 34410.00
1029.098, 34294.00
1030.207, 34335.00
1031.316, 34492.00
1032.425, 34399.00
1033.533, 34868.00
1034.642, 34557.00
1035.750, 34911.00
1036.858, 34883.00
1037.966, 35043.00
1039.073, 35059.00
1040.181, 35133.35
1041.288, 34913.00
1042.396, 35191.00
1043.503, 35145.00
1044.610, 34975.00
1045.716, 35305.00
1046.823, 35331.00
1047.929, 35340.00
1049.036, 35350.00
1050.142, 35459.00
1051.248, 35506.00
1052.353, 35595.02
1053.459, 35623.00
1054.564, 35768.00
1055.670, 35828.00
1056.775, 35868.24
1057.880, 35963.50
1058.985, 35907.00
1060.089, 36069.00
1061.194, 36238.00
1062.298, 36251.00
1063.402, 36210.00
1064.506, 36120.00
1065.610, 36176.00
1066.713, 36442.00
1067.817, 36511.00
1068.920, 36649.00
1070.023, 36504.00
1071.126, 36508.00
1072.229, 36973.00
1073.332, 36603.00
1074.435, 36712.00
1075.537, 36956.00
1076.639, 36739.00
1077.741, 36907.00
1078.843, 36996.00
1079.945, 36908.00
1081.046, 37021.00
1082.148, 37260.00
1083.249, 37158.00
1084.350, 37563.00
1085.451, 37431.00
1086.551, 37421.00
1087.652, 37364.00
1088.752, 37628.00
1089.853, 37800.00
1090.953, 37753.00
1092.053, 37730.00
1093.152, 37768.00
1094.252, 37859.00
1095.351, 37974.00
1096.451, 38030.00
1097.550, 38037.00
1098.649, 37947.00
1099.748, 38226.00
1100.846, 38230.00
1101.945, 38326.00
1103.043, 38504.00
1104.141, 38593.00
1105.239, 38365.00
1106.337, 38337.00
1107.434, 38630.00
1108.532, 38459.00
1109.629, 38695.00
1110.726, 38666.00
1111.823, 38714.00
1112.920, 38849.00
1114.017, 38874.98
1115.113, 39050.00
1116.210, 39064.00
1117.306, 39133.00
1118.402, 39284.00
1119.498, 39171.00
1120.593, 39303.00
1121.689, 39525.00
1122.784, 39636.00
1123.879, 39379.00
1124.974, 39674.00
1126.069, 39447.00
1127.164, 39749.00
1128.259, 39848.00
1129.353, 39677.00
1130.447, 39921.00
1131.541, 40042.00
1132.635, 39922.00
1133.729, 39928.00
1134.822, 40216.00
1135.916, 40070.00
1137.009, 40239.00
1138.102, 40076.00
1139.195, 40576.00
1140.288, 40321.00
1141.380, 40534.00
1142.473, 40575.00
1143.565, 40344.00
1144.657, 40717.00
1145.749, 40782.00
1146.841, 40740.00
1147.932, 40943.00
1149.024, 40902.00
1150.115, 41005.00
1151.206, 40910.00
1152.297, 41256.00
1153.388, 41001.00
1154.479, 41389.00
1155.569, 41299.00
1156.659, 41119.00
1157.750, 41321.00
1158.839, 41436.00
1159.929, 41287.00
1161.019, 41530.00
1162.108, 41563.00
1163.198, 41561.00
1164.287, 41873.00
1165.376, 41833.00
1166.465, 41648.00
1167.553, 41924.00
1168.642, 41891.00
1169.730, 41960.00
1170.818, 42145.00
1171.906, 42118.00
1172.994, 42384.00
1174.082, 42410.00
1175.170, 42425.00
1176.257, 42164.00
1177.344, 42241.00
1178.431, 42330.00
1179.518, 42445.00
1180.605, 42544.00
1181.691, 42724.00
1182.778, 42695.00
1183.864, 42815.00
1184.950, 42610.00
1186.036, 43122.00
1187.122, 43077.00
1188.207, 42860.00
1189.292, 43266.00
1190.378, 43140.00
1191.463, 43055.00
1192.548, 43137.00
1193.632, 43247.00
1194.717, 43380.00
1195.801, 43448.00
1196.886, 43628.00
1197.970, 43516.00
1199.054, 43524.00
1200.137, 43894.00
1201.221, 43825.00
1202.305, 43599.00
1203.388, 43813.00
1204.471, 43876.00
1205.554, 43983.00
1206.637, 44092.00
1207.719, 43997.00
1208.802, 44230.00
1209.884, 44079.00
1210.966, 43962.00
1212.048, 44577.00
1213.130, 44674.00
1214.212, 44634.00
1215.293, 44594.00
1216.374, 44670.00
1217.456, 44458.00
1218.536, 44838.00
1219.617, 44936.00
1220.698, 44873.00
1221.778, 44730.00
1222.859, 44767.00
1223.939, 45028.00
1225.019, 45028.00
1226.099, 45094.00
1227.178, 45141.00
1228.258, 45189.28
1229.337, 45268.27
1230.417, 45306.00
1231.496, 45403.00
1232.574, 45453.00
1233.653, 45476.00
1234.732, 45556.00
1235.810, 45595.00
1236.888, 45875.00
1237.966, 45898.00
1239.044, 45649.00
1240.122, 46044.00
1241.199, 45838.00
1242.277, 46012.00
1243.354, 45964.00
1244.431, 46093.00
1245.508, 46049.00
1246.585, 46252.00
1247.661, 46271.00
1248.738, 46089.00
1249.814, 46469.00
1250.890, 46160.13
1251.966, 46469.95
1253.042, 46667.45
1254.117, 46758.62
1255.193, 46425.27
1256.268, 46640.12
1257.343, 46635.27
1258.418, 46621.39
1259.493, 46913.42
1260.567, 46641.72
1261.642, 46928.89
1262.716, 46992.93
1263.790, 47159.08
1264.864, 47104.15
1265.938, 47117.50
1267.011, 47351.95
1268.085, 47464.00
1269.158, 47383.57
1270.231, 47556.15
1271.304, 47276.68
1272.377, 47393.89
1273.450, 47682.25
1274.522, 47612.89
1275.594, 47789.47
1276.666, 47872.38
1277.738, 47529.61
1278.810, 47927.14
1279.882, 48004.51
1280.953, 47753.11
1282.025, 48125.27
1283.096, 47919.18
1284.167, 47919.48
1285.238, 48075.09
1286.308, 48068.73
1287.379, 48317.71
1288.449, 48320.71
1289.519, 48301.74
1290.589, 48378.65
1291.659, 48183.86
1292.729, 48493.14
1293.798, 48458.04
1294.868, 48594.16
1295.937, 48769.01
1297.006, 48646.81
1298.075, 48839.10
1299.143, 48543.64
1300.212, 48656.32
1301.280, 48724.99
1302.348, 49054.50
1303.416, 48761.42
1304.484, 48862.70
1305.552, 49131.89
1306.620, 49166.13
1307.687, 49298.56
1308.754, 49140.18
1309.821, 49254.99
1310.888, 49294.49
1311.955, 49594.21
1313.021, 49688.46
1314.088, 49535.02
1315.154, 49382.57
1316.220, 50165.00
1317.286, 49841.00
1318.352, 50132.00
1319.417, 49961.00
1320.483, 50344.00
1321.548, 50327.00
1322.613, 50288.00
1323.678, 50158.00
1324.743, 50223.00
1325.807, 50304.00
1326.872, 50413.00
1327.936, 50674.00
1329.000, 50498.00
1330.064, 50697.00
1331.128, 50619.00
1332.191, 51196.00
1333.255, 50621.00
1334.318, 50838.00
1335.381, 51185.00
1336.444, 51047.00
1337.507, 51005.00
1338.569, 51468.00
1339.632, 51079.00
1340.694, 51607.00
1341.756, 51282.00
1342.818, 51322.00
1343.880, 51392.00
1344.941, 51474.00
1346.003, 51416.00
1347.064, 51366.00
1348.125, 51499.00
1349.186, 51653.00
1350.247, 51591.00
1351.308, 51844.00
1352.368, 51678.00
1353.428, 51841.00
1354.489, 51765.00
1355.549, 51765.00
1356.608, 51862.00
1357.668, 52161.00
1358.727, 51975.00
1359.787, 52485.00
1360.846, 52024.00
1361.905, 52250.00
1362.964, 52568.00
1364.022, 52512.00
1365.081, 52497.00
1366.139, 52572.00
1367.197, 52391.00
1368.255, 52625.00
1369.313, 52611.00
1370.371, 52848.00
1371.428, 52510.00
1372.486, 53128.00
1373.543, 52673.00
1374.600, 52876.00
1375.657, 52714.00
1376.713, 52927.00
1377.770, 52967.57
1378.826, 53168.00
1379.882, 53170.00
1380.938, 53102.00
1381.994, 53267.00
1383.050, 53288.45
1384.106, 53608.00
1385.161, 53475.00
1386.216, 53559.00
1387.271, 53641.00
1388.326, 53292.00
1389.381, 53642.00
1390.435, 53665.00
1391.490, 53747.00
1392.544, 54139.00
1393.598, 53605.00
1394.652, 53957.00
1395.705, 53903.00
1396.759, 54014.00
1397.812, 53922.00
1398.866, 54156.00
1399.919, 54355.00
1400.972, 54222.00
1402.024, 54381.82
1403.077, 54064.00
1404.129, 54423.00
1405.181, 54389.00
1406.233, 54406.00
1407.285, 54595.00
1408.337, 54766.00
1409.389, 54489.00
1410.440, 54277.00
1411.491, 54694.00
1412.542, 54554.00
1413.593, 54787.00
1414.644, 54825.00
1415.695, 55043.00
1416.745, 54999.00
1417.795, 55203.00
1418.845, 55067.00
1419.895, 55178.00
1420.945, 55347.00
1421.995, 55143.00
1423.044, 55234.00
1424.093, 55479.00
1425.142, 55271.00
1426.191, 55436.00
1427.240, 55630.00
1428.289, 55697.00
1429.337, 55530.00
1430.385, 55814.00
1431.433, 55568.00
1432.481, 55626.00
1433.529, 55766.00
1434.577, 55665.00
1435.624, 55794.00
1436.672, 55813.00
1437.719, 55978.00
1438.766, 55800.00
1439.812, 56444.00
1440.859, 55957.00
1441.905, 56180.00
1442.952, 56550.00
1443.998, 56259.00
1445.044, 56486.00
1446.090, 56508.00
1447.135, 56576.00
1448.181, 56408.00
1449.226, 56547.00
1450.271, 56865.00
1451.316, 56592.00
1452.361, 56615.00
1453.405, 56891.00
1454.450, 56629.00
1455.494, 56777.00
1456.538, 56958.00
1457.582, 56726.00
1458.626, 56912.00
1459.670, 57259.00
1460.713, 57262.00
1461.757, 57043.00
1462.800, 57238.00
1463.843, 57154.00
1464.886, 57241.00
1465.928, 57745.00
1466.971, 57537.00
1468.013, 57723.00
1469.055, 57614.00
1470.097, 57361.00
1471.139, 57729.00
1472.181, 57710.00
1473.222, 57635.00
1474.263, 58029.00
1475.305, 57897.00
1476.346, 57898.00
1477.386, 58006.00
1478.427, 57995.00
1479.468, 58116.00
1480.508, 58057.00
1481.548, 58165.00
1482.588, 58223.00
1483.628, 58113.00
1484.668, 58155.00
1485.707, 58073.00
1486.747, 58404.00
1487.786, 58591.00
1488.825, 58718.00
1489.864, 58720.00
1490.902, 58826.80
1491.941, 58595.00
1492.979, 58834.00
1494.017, 58751.00
1495.055, 58597.00
1496.093, 58719.00
1497.131, 59132.00
1498.168, 59091.00
1499.206, 59099.00
1500.243, 59323.00
1501.280, 58966.00
1502.317, 59194.00
1503.354, 59268.00
1504.390, 59360.00
1505.426, 59441.00
1506.463, 59509.00
1507.499, 59407.00
1508.535, 59408.00
1509.570, 59551.00
1510.606, 59550.00
1511.641, 59656.00
1512.676, 59758.00
1513.711, 59616.00
1514.746, 59716.00
1515.781, 59801.00
1516.816, 59977.00
1517.850, 59914.00
1518.884, 59812.00
1519.918, 59998.00
1520.952, 60095.00
1521.986, 59898.00
1523.019, 60239.00
1524.053, 60013.00
1525.086, 60537.00
1526.119, 60344.00
1527.152, 60320.00
1528.185, 60413.00
1529.217, 60512.00
1530.250, 60521.00
1531.282, 60703.00
1532.314, 60674.00
1533.346, 60594.00
1534.377, 60553.00
1535.409, 60815.00
1536.440, 60963.00
1537.472, 60709.00
1538.503, 61034.00
1539.534, 61024.00
1540.564, 60907.00
1541.595, 61133.00
1542.625, 61217.00
1543.656, 61059.00
1544.686, 61263.00
1545.716, 60971.00
1546.745, 60987.00
1547.775, 60974.00
1548.804, 61054.00
1549.834, 61083.35
1550.863, 61110.06
1551.892, 61213.00
1552.920, 61193.00
1553.949, 61274.00
1554.977, 61359.00
1556.006, 61832.00
1557.034, 61504.00
1558.062, 61799.00
1559.089, 61551.00
1560.117, 61783.00
1561.144, 61706.00
1562.172, 61649.00
1563.199, 61915.00
1564.226, 61951.00
1565.252, 61924.00
1566.279, 62067.00
1567.305, 61936.00
1568.332, 62057.00
1569.358, 61901.00
1570.384, 62197.00
1571.409, 62247.00
##END=



