##NAMES=Fluor-uvite
##RRUFFID=R050172
##IDEAL CHEMISTRY=CaMg_3_(Al_5_Mg)(Si_6_O_18_)(BO_3_)_3_(OH)_3_F
##LOCALITY=Pierrepont, New York, USA
##OWNER=RRUFF
##SOURCE=Marcus Origlieri
##DESCRIPTION=Black prismatic crystal
##STATUS=The identification of this mineral has been confirmed by X-ray diffraction and chemical analysis
##URL=rruff.info/R050172
##MEASURED CHEMISTRY=(Ca_0.64_Na_0.36_)(Mg_0.56_Fe^2+^_0.34_Al_0.08_Ti_0.02_)_3_(Mg_1.00_Al_5.00_)(BO_3_)_3_Si_6.00_O_18_((OH)_3.45_F_0.55_)
##PIN_ID=M00231
##ORIENTATION=Laser parallel to c* (0 0 1). Fiducial mark perpendicular to laser is parallel to -a [-1 0 0]
153.8640, 23806.00
155.0960, 24005.00
156.3280, 23614.00
157.5600, 23337.00
158.7920, 23244.00
160.0240, 22999.00
161.2560, 22843.00
162.4870, 22822.00
163.7180, 22759.00
164.9490, 23044.00
166.1800, 23829.00
167.4110, 23267.13
168.6410, 23762.00
169.8720, 22718.00
171.1020, 21951.00
172.3320, 22043.00
173.5620, 21839.00
174.7910, 21549.00
176.0210, 21603.00
177.2500, 21402.00
178.4790, 21333.00
179.7080, 21412.00
180.9370, 21347.00
182.1650, 21269.71
183.3940, 21106.00
184.6220, 21070.00
185.8500, 20956.00
187.0780, 20860.00
188.3050, 20924.00
189.5330, 20868.00
190.7600, 20867.00
191.9870, 21004.00
193.2140, 20866.00
194.4410, 20837.00
195.6680, 20692.00
196.8940, 20727.00
198.1200, 21064.00
199.3470, 21039.00
200.5720, 21237.00
201.7980, 21470.00
203.0240, 21311.00
204.2490, 21196.00
205.4740, 20666.00
206.6990, 20533.00
207.9240, 20235.00
209.1490, 20355.00
210.3740, 20231.00
211.5980, 20074.00
212.8220, 19989.00
214.0460, 19803.81
215.2700, 19662.00
216.4930, 19457.00
217.7170, 19245.00
218.9400, 19067.00
220.1630, 18848.00
221.3860, 18773.00
222.6090, 18515.00
223.8320, 18356.00
225.0540, 18338.00
226.2760, 18056.00
227.4980, 17911.00
228.7200, 17703.00
229.9420, 17701.00
231.1630, 17566.00
232.3850, 17550.00
233.6060, 17536.00
234.8270, 17255.00
236.0480, 17165.00
237.2690, 16994.00
238.4890, 17177.00
239.7090, 16950.00
240.9290, 16756.00
242.1490, 16694.00
243.3690, 16500.00
244.5890, 16454.00
245.8080, 16261.00
247.0270, 16007.00
248.2470, 15942.00
249.4650, 15733.82
250.6840, 15815.21
251.9030, 15845.30
253.1210, 15826.88
254.3390, 15614.54
255.5570, 15652.61
256.7750, 15590.32
257.9930, 15523.92
259.2100, 15597.27
260.4280, 15413.13
261.6450, 15484.26
262.8620, 15453.50
264.0790, 15469.37
265.2950, 15384.30
266.5120, 15330.39
267.7280, 15377.51
268.9440, 15302.00
270.1600, 15341.00
271.3760, 15225.00
272.5920, 15174.00
273.8070, 15173.53
275.0220, 15094.27
276.2370, 15149.00
277.4520, 15031.00
278.6670, 15015.00
279.8820, 15032.00
281.0960, 14958.00
282.3100, 14910.00
283.5240, 14772.00
284.7380, 14835.00
285.9520, 14759.00
287.1650, 14737.00
288.3780, 14879.00
289.5920, 14711.00
290.8050, 14411.00
292.0170, 14559.00
293.2300, 14565.00
294.4430, 14741.00
295.6550, 14558.00
296.8670, 14645.00
298.0790, 14605.00
299.2910, 14528.00
300.5020, 14590.00
301.7140, 14664.00
302.9250, 14749.00
304.1360, 14824.00
305.3470, 14839.00
306.5580, 14929.87
307.7680, 14941.74
308.9780, 15037.00
310.1890, 14991.00
311.3990, 14976.00
312.6090, 15019.46
313.8180, 15291.00
315.0280, 15211.00
316.2370, 15283.00
317.4460, 15427.00
318.6550, 15423.00
319.8640, 15532.00
321.0730, 15635.00
322.2810, 15705.00
323.4890, 15780.00
324.6980, 15867.00
325.9060, 15809.00
327.1130, 15932.00
328.3210, 16060.00
329.5280, 16055.00
330.7360, 16196.00
331.9430, 16188.00
333.1500, 16226.00
334.3560, 16256.00
335.5630, 16212.00
336.7690, 16273.36
337.9760, 16313.17
339.1820, 16355.00
340.3870, 16443.00
341.5930, 16512.00
342.7990, 16578.00
344.0040, 16615.76
345.2090, 16608.00
346.4140, 16679.00
347.6190, 16657.00
348.8240, 16707.04
350.0280, 16902.00
351.2330, 16918.00
352.4370, 16996.00
353.6410, 17260.00
354.8440, 17336.00
356.0480, 17477.00
357.2520, 17583.00
358.4550, 17657.00
359.6580, 17764.00
360.8610, 18082.00
362.0640, 18203.00
363.2660, 18456.00
364.4690, 18642.00
365.6710, 18626.00
366.8730, 18814.00
368.0750, 19088.00
369.2770, 18981.00
370.4780, 19135.00
371.6800, 18869.00
372.8810, 18947.00
374.0820, 18673.00
375.2830, 18777.00
376.4830, 18465.00
377.6840, 18458.00
378.8840, 18405.00
380.0840, 18233.00
381.2840, 18041.00
382.4840, 17666.00
383.6840, 17532.00
384.8830, 17386.00
386.0830, 17207.76
387.2820, 17147.00
388.4810, 17003.00
389.6800, 16985.00
390.8780, 16914.00
392.0770, 16879.00
393.2750, 16517.00
394.4730, 16593.00
395.6710, 16407.00
396.8690, 16411.00
398.0660, 16161.00
399.2640, 16110.00
400.4610, 16016.00
401.6580, 16025.00
402.8550, 15937.00
404.0520, 15950.00
405.2490, 15893.00
406.4450, 15841.00
407.6410, 15916.00
408.8370, 15723.00
410.0330, 15722.00
411.2290, 15756.00
412.4240, 15652.00
413.6200, 15581.00
414.8150, 15641.00
416.0100, 15545.00
417.2050, 15512.00
418.4000, 15595.00
419.5940, 15424.00
420.7880, 15341.00
421.9830, 15285.00
423.1770, 15377.00
424.3700, 15061.00
425.5640, 15211.00
426.7580, 15134.00
427.9510, 14965.00
429.1440, 15010.00
430.3370, 14933.79
431.5300, 14804.00
432.7220, 14914.00
433.9150, 14839.00
435.1070, 14850.00
436.2990, 14716.00
437.4910, 14763.00
438.6830, 14672.00
439.8750, 14844.00
441.0660, 14797.00
442.2570, 14759.00
443.4480, 14708.00
444.6390, 14940.00
445.8300, 14970.00
447.0210, 15026.00
448.2110, 14855.00
449.4010, 14814.00
450.5910, 14672.00
451.7810, 14969.00
452.9710, 14839.00
454.1610, 14841.00
455.3500, 14974.00
456.5390, 14858.00
457.7280, 14975.00
458.9170, 15046.00
460.1060, 14988.00
461.2940, 15127.00
462.4830, 15106.00
463.6710, 15106.00
464.8590, 14997.00
466.0470, 15229.00
467.2350, 15228.00
468.4220, 15324.00
469.6090, 15276.00
470.7970, 15392.00
471.9840, 15454.00
473.1700, 15451.00
474.3570, 15550.00
475.5440, 15481.00
476.7300, 15411.00
477.9160, 15444.42
479.1020, 15639.00
480.2880, 15442.00
481.4740, 15582.00
482.6590, 15631.00
483.8440, 15610.00
485.0300, 15704.00
486.2140, 15584.00
487.3990, 15689.00
488.5840, 15939.00
489.7680, 15780.00
490.9530, 15824.00
492.1370, 15808.00
493.3210, 15680.00
494.5040, 15988.00
495.6880, 16066.00
496.8720, 15822.00
498.0550, 15981.00
499.2380, 15886.00
500.4210, 15935.00
501.6040, 15865.00
502.7860, 15815.00
503.9690, 15945.00
505.1510, 15803.00
506.3330, 15828.00
507.5150, 15832.00
508.6970, 15810.00
509.8780, 15722.00
511.0600, 15812.00
512.2410, 15718.00
513.4220, 15990.00
514.6030, 15943.00
515.7840, 15974.00
516.9640, 16036.00
518.1440, 16150.00
519.3250, 16057.00
520.5050, 16218.00
521.6850, 16259.00
522.8640, 16305.00
524.0440, 16391.00
525.2230, 16436.07
526.4020, 16523.03
527.5820, 16542.00
528.7600, 16678.00
529.9390, 16701.00
531.1180, 16739.84
532.2960, 16720.00
533.4740, 16708.00
534.6520, 16678.00
535.8300, 16658.00
537.0080, 16736.00
538.1850, 16748.95
539.3630, 16798.26
540.5400, 16828.00
541.7170, 16899.00
542.8940, 16866.10
544.0700, 16892.39
545.2470, 16981.00
546.4230, 16800.00
547.5990, 16889.00
548.7750, 16870.00
549.9510, 16653.00
551.1270, 16818.00
552.3020, 16799.00
553.4780, 16640.00
554.6530, 16673.00
555.8280, 16729.00
557.0030, 16744.00
558.1770, 16607.00
559.3520, 16641.00
560.5260, 16581.03
561.7000, 16544.86
562.8740, 16538.00
564.0480, 16472.00
565.2220, 16517.00
566.3950, 16428.00
567.5680, 16366.00
568.7420, 16497.00
569.9150, 16595.00
571.0870, 16523.00
572.2600, 16612.12
573.4320, 16538.00
574.6050, 16631.00
575.7770, 16473.00
576.9490, 16448.00
578.1210, 16361.00
579.2920, 16301.62
580.4640, 16328.00
581.6350, 16225.00
582.8060, 16231.00
583.9770, 16214.00
585.1480, 16154.00
586.3190, 16152.00
587.4890, 16057.00
588.6590, 16179.00
589.8290, 16041.00
590.9990, 16030.00
592.1690, 16051.00
593.3390, 15887.00
594.5080, 16020.00
595.6770, 16039.00
596.8470, 15782.00
598.0160, 15658.00
599.1840, 15708.00
600.3530, 15756.00
601.5210, 15686.00
602.6900, 15698.00
603.8580, 15590.00
605.0260, 15658.00
606.1930, 15771.00
607.3610, 15708.00
608.5280, 15658.00
609.6960, 15693.00
610.8630, 15637.16
612.0300, 15595.00
613.1970, 15606.00
614.3630, 15648.00
615.5300, 15660.00
616.6960, 15660.00
617.8620, 15656.30
619.0280, 15585.00
620.1940, 15540.00
621.3590, 15461.00
622.5250, 15235.00
623.6900, 15097.00
624.8550, 15151.00
626.0200, 15199.00
627.1850, 15202.00
628.3490, 14910.00
629.5140, 15000.00
630.6780, 14871.00
631.8420, 14877.00
633.0060, 14815.00
634.1700, 14699.00
635.3330, 14747.00
636.4970, 14633.00
637.6600, 14625.84
638.8230, 14677.00
639.9860, 14616.00
641.1490, 14571.00
642.3110, 14626.00
643.4740, 14603.00
644.6360, 14634.00
645.7980, 14676.00
646.9600, 14809.00
648.1220, 14715.00
649.2840, 14928.00
650.4450, 14936.00
651.6060, 14977.00
652.7670, 14953.00
653.9280, 15180.00
655.0890, 15229.00
656.2500, 15187.00
657.4100, 15326.00
658.5700, 15320.00
659.7300, 15358.00
660.8900, 15407.00
662.0500, 15290.00
663.2100, 15187.00
664.3690, 15218.00
665.5280, 15151.00
666.6880, 15102.19
667.8460, 15055.13
669.0050, 14986.00
670.1640, 14943.00
671.3220, 14853.00
672.4810, 14857.00
673.6390, 14922.00
674.7970, 14991.00
675.9540, 14993.00
677.1120, 14998.00
678.2690, 15028.51
679.4270, 15053.09
680.5840, 15073.00
681.7410, 15107.00
682.8980, 15171.00
684.0540, 15155.00
685.2110, 15254.00
686.3670, 15300.00
687.5230, 15329.00
688.6790, 15389.00
689.8350, 15420.00
690.9900, 15472.00
692.1460, 15548.00
693.3010, 15627.00
694.4560, 15668.00
695.6110, 15708.00
696.7660, 15800.00
697.9210, 15903.95
699.0750, 15887.00
700.2290, 16194.00
701.3840, 16263.00
702.5370, 16463.00
703.6910, 16491.00
704.8450, 16851.00
705.9980, 16988.00
707.1520, 17237.00
708.3050, 17522.00
709.4580, 17804.00
710.6110, 18119.14
711.7630, 18265.00
712.9160, 18739.00
714.0680, 19085.00
715.2200, 19311.00
716.3720, 19845.00
717.5240, 20675.00
718.6760, 20918.00
719.8270, 21365.00
720.9780, 21883.00
722.1300, 22212.00
723.2810, 22613.00
724.4310, 22706.00
725.5820, 22927.00
726.7330, 22782.00
727.8830, 22882.00
729.0330, 22859.00
730.1830, 22799.00
731.3330, 22828.00
732.4830, 22839.00
733.6320, 22807.39
734.7810, 22942.00
735.9310, 22781.00
737.0800, 22742.00
738.2290, 22740.00
739.3770, 22495.00
740.5260, 22599.00
741.6740, 22588.00
742.8220, 22304.00
743.9700, 22653.00
745.1180, 22664.00
746.2660, 22605.00
747.4130, 22741.00
748.5610, 22615.00
749.7080, 22872.00
750.8550, 22611.00
752.0020, 22776.00
753.1490, 22814.00
754.2950, 23020.00
755.4420, 22823.00
756.5880, 23162.00
757.7340, 23135.00
758.8800, 22921.00
760.0250, 22903.00
761.1710, 22924.12
762.3160, 23126.00
763.4620, 23107.00
764.6070, 23127.00
765.7520, 23345.00
766.8960, 23434.00
768.0410, 23407.00
769.1850, 23437.00
770.3300, 23357.00
771.4740, 23235.39
772.6180, 23111.00
773.7610, 22848.00
774.9050, 22622.83
776.0480, 22427.00
777.1920, 21994.00
778.3350, 21697.00
779.4780, 21278.00
780.6200, 20940.00
781.7630, 20555.00
782.9060, 20309.00
784.0480, 20040.00
785.1900, 19659.00
786.3320, 19514.00
787.4740, 19330.00
788.6150, 19099.00
789.7570, 18975.00
790.8980, 18774.00
792.0390, 18644.00
793.1800, 18356.00
794.3210, 18180.00
795.4620, 17982.00
796.6020, 17717.00
797.7420, 17297.00
798.8830, 17088.00
800.0230, 16884.00
801.1620, 16359.00
802.3020, 16203.00
803.4420, 15834.00
804.5810, 15720.00
805.7200, 15431.00
806.8590, 15330.00
807.9980, 15054.00
809.1370, 14839.00
810.2750, 14664.00
811.4140, 14356.00
812.5520, 14404.00
813.6900, 14246.00
814.8280, 13915.00
815.9650, 13945.00
817.1030, 13847.00
818.2400, 13869.00
819.3780, 13453.00
820.5150, 13555.00
821.6520, 13309.00
822.7880, 13326.00
823.9250, 13104.00
825.0610, 13192.14
826.1980, 13194.02
827.3340, 13157.87
828.4700, 13086.33
829.6050, 12834.07
830.7410, 12845.30
831.8760, 12769.38
833.0120, 12702.43
834.1470, 12788.36
835.2820, 12629.98
836.4160, 12586.00
837.5510, 12635.00
838.6860, 12706.00
839.8200, 12449.00
840.9540, 12621.00
842.0880, 12485.00
843.2220, 12548.00
844.3550, 12491.00
845.4890, 12483.00
846.6220, 12469.00
847.7550, 12615.00
848.8880, 12583.00
850.0210, 12614.76
851.1540, 12427.00
852.2860, 12676.00
853.4190, 12582.00
854.5510, 12715.00
855.6830, 12637.00
856.8150, 12576.00
857.9460, 12707.00
859.0780, 12586.00
860.2090, 12743.00
861.3410, 12676.00
862.4720, 12807.00
863.6020, 12876.00
864.7330, 12704.00
865.8640, 12675.00
866.9940, 12847.00
868.1240, 12811.00
869.2540, 12772.00
870.3840, 12872.00
871.5140, 12891.00
872.6440, 12885.42
873.7730, 12965.00
874.9020, 12858.00
876.0320, 12931.00
877.1600, 12876.00
878.2890, 12947.00
879.4180, 12920.65
880.5460, 12912.00
881.6750, 12908.00
882.8030, 12878.00
883.9310, 12924.00
885.0590, 12934.00
886.1860, 12941.00
887.3140, 12863.00
888.4410, 12930.56
889.5680, 13140.00
890.6950, 13010.00
891.8220, 13176.00
892.9490, 13213.00
894.0750, 13163.00
895.2020, 13168.00
896.3280, 13140.00
897.4540, 13232.00
898.5800, 13235.00
899.7050, 13205.00
900.8310, 13309.00
901.9560, 13244.00
903.0820, 13157.00
904.2070, 13301.00
905.3320, 13476.00
906.4560, 13369.00
907.5810, 13477.00
908.7050, 13594.00
909.8300, 13400.00
910.9540, 13588.00
912.0780, 13578.00
913.2010, 13638.00
914.3250, 13651.97
915.4480, 13540.00
916.5720, 13612.00
917.6950, 13538.00
918.8180, 13527.00
919.9410, 13702.00
921.0630, 13704.00
922.1860, 13657.00
923.3080, 13908.00
924.4300, 13690.00
925.5520, 13779.00
926.6740, 13907.00
927.7960, 13957.00
928.9170, 14076.00
930.0390, 13969.00
931.1600, 13924.00
932.2810, 14033.00
933.4020, 14000.00
934.5230, 14133.00
935.6430, 14190.00
936.7640, 14114.00
937.8840, 14423.00
939.0040, 14315.00
940.1240, 14258.00
941.2440, 14164.00
942.3630, 14476.00
943.4830, 14477.00
944.6020, 14437.00
945.7210, 14399.00
946.8400, 14534.00
947.9590, 14647.00
949.0770, 14620.00
950.1960, 14810.00
951.3140, 14910.00
952.4320, 14963.00
953.5500, 14848.00
954.6680, 14965.00
955.7860, 15069.00
956.9030, 15066.00
958.0210, 15234.00
959.1380, 15242.00
960.2550, 15328.00
961.3720, 15365.88
962.4890, 15401.60
963.6050, 15399.00
964.7220, 15442.00
965.8380, 15458.00
966.9540, 15402.00
968.0700, 15485.00
969.1860, 15452.59
970.3010, 15479.00
971.4170, 15464.00
972.5320, 15573.00
973.6470, 15621.00
974.7620, 15661.00
975.8770, 15738.00
976.9910, 15675.00
978.1060, 15742.00
979.2200, 15671.00
980.3340, 15754.00
981.4480, 15726.00
982.5620, 15759.00
983.6760, 15765.00
984.7890, 15671.00
985.9030, 15608.00
987.0160, 15706.00
988.1290, 15638.00
989.2420, 15708.00
990.3550, 15728.00
991.4670, 15589.00
992.5800, 15494.00
993.6920, 15555.00
994.8040, 15282.00
995.9160, 15265.00
997.0280, 15275.00
998.1390, 15300.00
999.2510, 15182.00
1000.362, 15254.00
1001.473, 15399.00
1002.584, 15143.00
1003.695, 15307.00
1004.805, 15434.00
1005.916, 15326.00
1007.026, 15214.00
1008.136, 15174.00
1009.246, 15155.00
1010.356, 15178.51
1011.466, 15272.00
1012.576, 15283.00
1013.685, 15373.00
1014.794, 15380.00
1015.903, 15511.00
1017.012, 15382.00
1018.121, 15605.00
1019.229, 15418.00
1020.338, 15438.00
1021.446, 15547.00
1022.554, 15427.00
1023.662, 15471.00
1024.770, 15628.00
1025.878, 15774.00
1026.985, 15697.00
1028.092, 15605.00
1029.200, 15734.00
1030.307, 15795.00
1031.413, 15740.00
1032.520, 15629.00
1033.627, 15647.00
1034.733, 15806.00
1035.839, 15893.00
1036.945, 15881.00
1038.051, 15888.00
1039.157, 15910.00
1040.262, 15926.00
1041.368, 15851.00
1042.473, 16011.00
1043.578, 16066.00
1044.683, 15914.00
1045.788, 16063.00
1046.893, 15866.00
1047.997, 15982.00
1049.101, 16041.00
1050.205, 15829.00
1051.309, 16023.00
1052.413, 15963.00
1053.517, 16011.00
1054.621, 15919.00
1055.724, 15969.00
1056.827, 16051.00
1057.930, 15937.00
1059.033, 16095.00
1060.136, 15805.00
1061.238, 16014.00
1062.341, 16061.00
1063.443, 16040.00
1064.545, 16177.00
1065.647, 16015.00
1066.749, 15974.00
1067.850, 16014.00
1068.952, 16079.00
1070.053, 15890.00
1071.154, 15956.00
1072.255, 16023.00
1073.356, 15898.00
1074.457, 15703.00
1075.557, 15706.00
1076.658, 15737.00
1077.758, 15799.00
1078.858, 15699.93
1079.958, 15537.00
1081.057, 15520.00
1082.157, 15468.00
1083.256, 15402.00
1084.356, 15672.00
1085.455, 15386.00
1086.554, 15271.00
1087.653, 15501.00
1088.751, 15388.00
1089.850, 15298.00
1090.948, 15452.00
1092.046, 15298.00
1093.144, 15149.00
1094.242, 15293.00
1095.340, 15172.00
1096.437, 15244.00
1097.534, 15128.00
1098.632, 15229.00
1099.729, 15161.00
1100.826, 15079.00
1101.922, 15095.00
1103.019, 14863.00
1104.115, 14943.00
1105.212, 14847.00
1106.308, 15058.00
1107.404, 14872.00
1108.499, 14741.00
1109.595, 14663.00
1110.691, 14573.00
1111.786, 14525.37
1112.881, 14695.00
1113.976, 14461.00
1115.071, 14622.00
1116.166, 14599.00
1117.260, 14503.00
1118.355, 14502.00
1119.449, 14385.00
1120.543, 14255.00
1121.637, 14389.00
1122.731, 14279.00
1123.824, 14290.00
1124.918, 14188.00
1126.011, 14290.00
1127.104, 14248.00
1128.197, 14263.00
1129.290, 14231.00
1130.382, 14222.00
1131.475, 14158.00
1132.567, 14197.00
1133.659, 14146.00
1134.751, 14219.00
1135.843, 14138.00
1136.935, 14043.00
1138.027, 14099.00
1139.118, 14056.00
1140.209, 14108.00
1141.300, 14092.00
1142.391, 14120.00
1143.482, 14038.00
1144.573, 14070.66
1145.663, 14080.00
1146.754, 14103.00
1147.844, 14114.00
1148.934, 14168.86
1150.024, 14137.00
1151.113, 14128.00
1152.203, 14113.77
1153.292, 13844.00
1154.381, 13997.00
1155.470, 13923.00
1156.559, 13750.00
1157.648, 13917.00
1158.737, 13930.00
1159.825, 13829.00
1160.913, 13749.00
1162.001, 14040.00
1163.089, 14014.00
1164.177, 13987.00
1165.265, 14007.00
1166.352, 14013.00
1167.440, 13993.00
1168.527, 13863.00
1169.614, 13869.00
1170.701, 13917.00
1171.788, 13991.00
1172.874, 13971.00
1173.961, 13821.00
1175.047, 13943.00
1176.133, 13894.00
1177.219, 13795.00
1178.305, 13878.00
1179.390, 13824.00
1180.476, 13837.37
1181.561, 14019.00
1182.646, 13856.00
1183.731, 13918.00
1184.816, 13909.00
1185.901, 13874.00
1186.985, 13818.00
1188.070, 13971.00
1189.154, 13905.00
1190.238, 13954.00
1191.322, 13817.00
1192.406, 14008.00
1193.489, 13961.00
1194.573, 13909.00
1195.656, 13935.00
1196.739, 14026.00
1197.822, 13970.00
1198.905, 13846.00
1199.988, 13941.00
1201.070, 13871.00
1202.153, 14045.00
1203.235, 13987.00
1204.317, 13980.00
1205.399, 14101.00
1206.481, 14070.00
1207.562, 14096.00
1208.644, 14197.00
1209.725, 14001.00
1210.806, 14224.00
1211.887, 14241.00
1212.968, 14063.00
1214.049, 14309.00
1215.129, 14321.00
1216.209, 14463.00
1217.290, 14391.00
1218.370, 14336.00
1219.450, 14329.00
1220.529, 14307.73
1221.609, 14291.17
1222.688, 14371.00
1223.768, 14335.00
1224.847, 14471.00
1225.926, 14464.68
1227.005, 14536.00
1228.083, 14514.00
1229.162, 14596.00
1230.240, 14635.00
1231.318, 14635.00
1232.396, 14670.00
1233.474, 14688.00
1234.552, 14771.00
1235.629, 14780.00
1236.707, 14713.00
1237.784, 14797.00
1238.861, 14711.00
1239.938, 14650.00
1241.015, 14795.00
1242.092, 14752.00
1243.168, 14760.00
1244.244, 14655.00
1245.321, 14688.60
1246.397, 14700.00
1247.473, 14715.00
1248.548, 14701.00
1249.624, 14717.00
1250.699, 14827.00
1251.775, 14635.00
1252.850, 14567.00
1253.925, 14730.00
1254.999, 14649.00
1256.074, 14708.00
1257.148, 14586.00
1258.223, 14702.00
1259.297, 14539.00
1260.371, 14620.00
1261.445, 14492.00
1262.519, 14525.00
1263.592, 14474.00
1264.666, 14611.00
1265.739, 14487.00
1266.812, 14509.00
1267.885, 14610.00
1268.958, 14485.00
1270.030, 14466.00
1271.103, 14582.00
1272.175, 14683.00
1273.247, 14584.00
1274.319, 14663.00
1275.391, 14595.00
1276.463, 14589.00
1277.535, 14535.00
1278.606, 14601.00
1279.677, 14628.00
1280.748, 14513.00
1281.819, 14554.00
1282.890, 14524.00
1283.961, 14394.00
1285.031, 14498.00
1286.102, 14480.00
1287.172, 14433.00
1288.242, 14392.00
1289.312, 14557.00
1290.381, 14373.00
1291.451, 14474.00
1292.520, 14453.00
1293.590, 14422.00
1294.659, 14351.00
1295.728, 14430.00
1296.797, 14420.00
1297.865, 14346.00
1298.934, 14350.00
1300.002, 14458.00
1301.070, 14432.00
1302.138, 14462.00
1303.206, 14419.00
1304.274, 14487.00
1305.341, 14462.00
1306.409, 14379.00
1307.476, 14512.00
1308.543, 14490.38
1309.610, 14635.00
1310.677, 14632.00
1311.744, 14301.00
1312.810, 14443.00
1313.877, 14378.00
1314.943, 14394.00
1316.009, 14452.00
1317.075, 14615.00
1318.140, 14406.00
1319.206, 14512.00
1320.272, 14362.00
1321.337, 14432.00
1322.402, 14250.00
1323.467, 14570.00
1324.532, 14481.00
1325.596, 14464.00
1326.661, 14472.00
1327.725, 14265.00
1328.790, 14439.00
1329.854, 14301.00
1330.918, 14407.00
1331.981, 14342.00
1333.045, 14254.00
1334.108, 14300.00
1335.172, 14366.00
1336.235, 14329.00
1337.298, 14374.36
1338.361, 14417.00
1339.423, 14385.00
1340.486, 14291.00
1341.548, 14261.82
1342.611, 14260.00
1343.673, 14254.00
1344.735, 14313.00
1345.796, 14404.00
1346.858, 14341.00
1347.919, 14387.00
1348.981, 14297.00
1350.042, 14307.00
1351.103, 14407.00
1352.164, 14414.00
1353.225, 14338.00
1354.285, 14509.00
1355.346, 14363.00
1356.406, 14408.00
1357.466, 14330.00
1358.526, 14550.00
1359.586, 14403.00
1360.645, 14345.00
1361.705, 14496.00
1362.764, 14234.00
1363.823, 14429.00
1364.882, 14511.00
1365.941, 14478.00
1367.000, 14389.00
1368.059, 14442.00
1369.117, 14449.00
1370.175, 14586.00
1371.233, 14558.10
1372.291, 14430.00
1373.349, 14531.00
1374.407, 14408.00
1375.464, 14324.00
1376.522, 14396.70
1377.579, 14509.99
1378.636, 14571.98
1379.693, 14585.44
1380.750, 14404.97
1381.806, 14474.92
1382.863, 14444.51
1383.919, 14409.98
1384.975, 14515.17
1386.031, 14362.92
1387.087, 14465.89
1388.143, 14466.98
1389.199, 14514.70
1390.254, 14461.45
1391.309, 14439.39
1392.364, 14518.33
1393.419, 14541.35
1394.474, 14476.48
1395.529, 14527.17
1396.583, 14371.39
1397.638, 14396.79
1398.692, 14156.00
1399.746, 14265.00
1400.800, 14238.00
1401.853, 14197.00
1402.907, 14303.00
1403.960, 14234.00
1405.014, 14270.00
1406.067, 14369.00
1407.120, 14231.00
1408.173, 14385.00
1409.225, 14247.00
1410.278, 14290.00
1411.330, 14234.00
1412.383, 14276.00
1413.435, 14167.00
1414.487, 14280.00
1415.538, 14355.00
1416.590, 14305.00
1417.641, 14393.00
1418.693, 14263.00
1419.744, 14160.00
1420.795, 14292.00
1421.846, 14242.00
1422.897, 14426.00
1423.947, 14198.00
1424.998, 14423.00
1426.048, 14232.00
1427.098, 14399.00
1428.148, 14242.00
1429.198, 14249.00
1430.247, 14474.00
1431.297, 14325.00
1432.346, 14528.00
1433.396, 14490.00
1434.445, 14476.00
1435.494, 14481.00
1436.542, 14500.00
1437.591, 14476.35
1438.639, 14564.00
1439.688, 14448.00
1440.736, 14425.00
1441.784, 14417.00
1442.832, 14493.00
1443.880, 14496.00
1444.927, 14553.00
1445.975, 14578.59
1447.022, 14613.00
1448.069, 14601.00
1449.116, 14543.00
1450.163, 14492.00
1451.209, 14509.67
1452.256, 14519.00
1453.302, 14558.00
1454.348, 14586.00
1455.394, 14652.62
1456.440, 14502.00
1457.486, 14667.00
1458.532, 14615.00
1459.577, 14497.00
1460.623, 14577.00
1461.668, 14700.00
1462.713, 14670.00
1463.758, 14532.00
1464.802, 14625.00
1465.847, 14544.00
1466.891, 14543.56
1467.936, 14594.00
1468.980, 14561.00
1470.024, 14555.00
1471.067, 14599.00
1472.111, 14494.00
1473.155, 14529.00
1474.198, 14501.27
1475.241, 14495.00
1476.284, 14519.00
1477.327, 14533.00
1478.370, 14650.00
1479.413, 14672.00
1480.455, 14622.00
1481.497, 14491.00
1482.540, 14510.00
1483.582, 14600.00
1484.624, 14677.00
1485.665, 14678.27
1486.707, 14649.50
1487.748, 14679.00
1488.790, 14654.05
1489.831, 14513.00
1490.872, 14598.00
1491.912, 14558.00
1492.953, 14463.00
1493.994, 14616.00
1495.034, 14553.00
1496.074, 14526.00
1497.114, 14507.00
1498.154, 14581.00
1499.194, 14570.00
1500.234, 14693.00
1501.273, 14647.78
1502.313, 14673.00
1503.352, 14610.00
1504.391, 14577.00
1505.430, 14598.00
1506.468, 14476.00
1507.507, 14565.00
1508.545, 14588.00
1509.584, 14600.00
1510.622, 14546.00
1511.660, 14536.00
1512.698, 14641.00
1513.735, 14588.30
1514.773, 14497.00
1515.810, 14642.00
1516.848, 14480.00
1517.885, 14612.00
1518.922, 14712.00
1519.958, 14595.00
1520.995, 14514.00
1522.032, 14576.00
1523.068, 14439.00
1524.104, 14541.00
1525.140, 14671.00
1526.176, 14570.00
1527.212, 14608.00
1528.248, 14593.00
1529.283, 14522.00
1530.318, 14572.00
1531.353, 14501.00
1532.389, 14423.00
1533.423, 14553.00
1534.458, 14276.00
1535.493, 14380.00
1536.527, 14442.00
1537.561, 14433.00
1538.596, 14452.00
1539.630, 14565.00
1540.663, 14475.00
1541.697, 14406.00
1542.731, 14383.00
1543.764, 14467.00
1544.797, 14527.00
1545.830, 14418.00
1546.863, 14390.00
1547.896, 14436.00
##END=



