##NAMES=Fluorophlogopite
##RRUFFID=R040042
##IDEAL CHEMISTRY=KMg_3_(Si_3_Al)O_10_F_2_
##LOCALITY=Franklin, Sussex County, New Jersey, USA
##OWNER=RRUFF
##SOURCE=University of Arizona Mineral Museum
##DESCRIPTION=Brown flattened hexagonal prism, polytype 1M
##STATUS=The identification of this mineral has been confirmed by X-ray diffraction and chemical analysis
##URL=rruff.info/R040042
##MEASURED CHEMISTRY=(K_0.92_Na_0.08_)_Σ=1_(Mg_2.95_Fe_0.05_)_Σ=3_(Si_3.00_Al_1.00_)O_10_(F_1.40_(OH)_0.60_)_Σ=2_; trace amounts of Ti; OH estimated by charge balance
##PIN_ID=L00310
##ORIENTATION=Laser parallel to c* (0 0 1). Fiducial mark perpendicular to laser is parallel to -a [-1 0 0]
136.1850, 29246.00
137.4140, 29048.00
138.6420, 29169.00
139.8710, 29399.00
141.1000, 29160.00
142.3280, 29053.00
143.5560, 29106.00
144.7840, 28768.00
146.0120, 29199.00
147.2400, 29141.00
148.4680, 28952.00
149.6950, 28869.00
150.9220, 29049.00
152.1500, 29051.00
153.3770, 29218.00
154.6030, 29158.73
155.8300, 29210.00
157.0570, 29075.00
158.2830, 29064.00
159.5090, 29127.00
160.7350, 29385.00
161.9610, 29551.00
163.1870, 29582.00
164.4130, 29470.00
165.6380, 29794.00
166.8630, 29802.00
168.0880, 29730.00
169.3130, 30122.00
170.5380, 29916.00
171.7630, 30013.00
172.9870, 30279.00
174.2120, 30509.00
175.4360, 30867.00
176.6600, 30991.00
177.8840, 31245.00
179.1080, 31264.00
180.3310, 31639.00
181.5550, 32032.00
182.7780, 32384.00
184.0010, 32980.00
185.2240, 34396.00
186.4470, 35081.00
187.6700, 35315.00
188.8920, 36944.00
190.1150, 38677.00
191.3370, 40258.00
192.5590, 42648.00
193.7810, 45251.00
195.0020, 47840.00
196.2240, 50313.00
197.4450, 52431.00
198.6670, 53830.00
199.8880, 53756.00
201.1090, 52578.00
202.3300, 49812.00
203.5500, 47144.00
204.7710, 44254.00
205.9910, 41365.00
207.2110, 39010.00
208.4310, 37395.00
209.6510, 36829.00
210.8710, 35812.00
212.0910, 35324.00
213.3100, 33867.00
214.5290, 33476.00
215.7480, 33094.00
216.9670, 33027.00
218.1860, 32910.00
219.4050, 32611.00
220.6230, 32629.00
221.8420, 32579.00
223.0600, 32051.00
224.2780, 32057.00
225.4960, 32045.00
226.7130, 32032.00
227.9310, 31947.00
229.1480, 31919.00
230.3660, 31890.00
231.5830, 32120.00
232.8000, 32223.00
234.0160, 32230.00
235.2330, 32411.00
236.4490, 32266.00
237.6660, 32207.00
238.8820, 32055.00
240.0980, 32235.00
241.3140, 32300.00
242.5300, 32476.00
243.7450, 32416.00
244.9600, 32501.62
246.1760, 32541.14
247.3910, 32521.00
248.6060, 32569.00
249.8200, 32520.00
251.0350, 32470.00
252.2500, 32568.00
253.4640, 32556.00
254.6780, 32673.94
255.8920, 32862.00
257.1060, 32946.00
258.3190, 33150.00
259.5330, 33322.00
260.7460, 33217.00
261.9600, 33455.00
263.1730, 33747.00
264.3850, 34025.00
265.5980, 34319.00
266.8110, 34900.00
268.0230, 35331.00
269.2360, 35640.00
270.4480, 36528.00
271.6600, 37265.00
272.8710, 38054.00
274.0830, 39283.00
275.2950, 40335.00
276.5060, 41730.00
277.7170, 43286.00
278.9280, 44586.00
280.1390, 45294.00
281.3500, 45649.00
282.5600, 45128.00
283.7710, 43792.00
284.9810, 42712.00
286.1910, 41925.00
287.4010, 39659.00
288.6110, 38620.00
289.8200, 37723.00
291.0300, 37325.00
292.2390, 36729.00
293.4480, 36583.00
294.6570, 36229.00
295.8660, 36282.00
297.0750, 36368.00
298.2830, 36269.00
299.4920, 36337.00
300.7000, 36533.00
301.9080, 36734.61
303.1160, 37196.00
304.3240, 37463.00
305.5310, 37965.00
306.7390, 38527.00
307.9460, 38923.00
309.1530, 39366.47
310.3600, 40390.00
311.5670, 40726.00
312.7740, 41773.00
313.9800, 42393.89
315.1870, 43235.00
316.3930, 43839.00
317.5990, 44244.00
318.8050, 45078.00
320.0110, 44964.00
321.2160, 45490.00
322.4220, 45642.88
323.6270, 45612.21
324.8320, 45662.00
326.0370, 45366.00
327.2420, 44922.00
328.4460, 44347.00
329.6510, 43929.00
330.8550, 42792.00
332.0590, 42336.00
333.2630, 41564.00
334.4670, 40684.00
335.6710, 40375.00
336.8740, 39524.00
338.0780, 39266.00
339.2810, 39062.00
340.4840, 38610.00
341.6870, 38431.20
342.8900, 38047.00
344.0920, 38031.00
345.2950, 37833.00
346.4970, 37848.22
347.6990, 37668.00
348.9010, 37692.00
350.1030, 37535.00
351.3050, 37433.00
352.5060, 37197.00
353.7080, 37359.00
354.9090, 37723.00
356.1100, 37610.00
357.3110, 37519.00
358.5110, 37613.00
359.7120, 37604.89
360.9120, 37600.00
362.1130, 37723.00
363.3130, 37942.00
364.5130, 37931.00
365.7120, 38221.00
366.9120, 38295.21
368.1120, 38219.00
369.3110, 38576.00
370.5100, 38543.00
371.7090, 38759.00
372.9080, 38955.36
374.1070, 38652.00
375.3050, 39272.00
376.5040, 39223.00
377.7020, 39236.24
378.9000, 39003.00
380.0980, 39040.00
381.2950, 39020.96
382.4930, 38606.00
383.6910, 39063.00
384.8880, 38673.00
386.0850, 38638.00
387.2820, 37970.00
388.4790, 38206.00
389.6750, 38135.00
390.8720, 37839.00
392.0680, 37672.00
393.2640, 37871.00
394.4600, 38079.00
395.6560, 37982.00
396.8520, 38123.00
398.0480, 38119.00
399.2430, 38236.00
400.4380, 38198.00
401.6330, 37889.00
402.8280, 38199.00
404.0230, 37984.00
405.2180, 38322.00
406.4120, 38165.00
407.6060, 38147.00
408.8000, 38310.00
409.9940, 38271.00
411.1880, 38335.00
412.3820, 38282.00
413.5750, 38201.00
414.7690, 38043.00
415.9620, 38065.66
417.1550, 38054.26
418.3480, 38066.00
419.5410, 38176.00
420.7330, 38195.00
421.9260, 38307.00
423.1180, 38137.00
424.3100, 38302.00
425.5020, 38393.00
426.6940, 38586.00
427.8850, 38796.00
429.0770, 38759.95
430.2680, 38806.00
431.4590, 38791.00
432.6500, 38897.00
433.8410, 39096.00
435.0320, 39075.00
436.2220, 39151.00
437.4130, 39265.96
438.6030, 39252.00
439.7930, 39426.00
440.9830, 39498.00
442.1730, 39513.00
443.3620, 39699.00
444.5520, 39941.00
445.7410, 40036.55
446.9300, 40371.00
448.1190, 40386.00
449.3080, 40430.34
450.4960, 40649.96
451.6850, 40826.77
452.8730, 40962.89
454.0610, 41090.53
455.2490, 41120.17
456.4370, 41219.60
457.6250, 41247.00
458.8130, 41188.00
460.0000, 41119.00
461.1870, 40905.00
462.3740, 40694.00
463.5610, 40553.00
464.7480, 40257.00
465.9340, 40336.00
467.1210, 40561.00
468.3070, 40257.00
469.4930, 40412.00
470.6790, 40125.00
471.8650, 39935.23
473.0510, 40296.84
474.2360, 40506.86
475.4210, 40573.43
476.6070, 40066.96
477.7920, 40300.46
478.9770, 40237.41
480.1610, 40162.20
481.3460, 40499.85
482.5300, 40076.70
483.7140, 40407.80
484.8980, 40437.81
486.0820, 40605.62
487.2660, 40475.05
488.4500, 40746.50
489.6330, 40937.29
490.8160, 40544.18
492.0000, 40905.18
493.1830, 40963.89
494.3650, 41381.00
495.5480, 41469.00
496.7300, 41751.00
497.9130, 41779.00
499.0950, 42043.00
500.2770, 42322.00
501.4590, 42148.00
502.6410, 42285.00
503.8220, 42251.00
505.0030, 42391.00
506.1850, 42201.00
507.3660, 42385.00
508.5470, 42591.00
509.7270, 42349.00
510.9080, 42737.00
512.0880, 42568.00
513.2690, 42520.00
514.4490, 42729.00
515.6290, 42722.00
516.8090, 42595.00
517.9880, 42736.00
519.1680, 42453.00
520.3470, 42362.00
521.5260, 42448.00
522.7050, 42402.83
523.8840, 42409.00
525.0630, 42518.00
526.2410, 42476.00
527.4200, 42383.00
528.5980, 42270.00
529.7760, 42037.00
530.9540, 42523.00
532.1320, 42272.00
533.3090, 42172.00
534.4870, 42615.00
535.6640, 42362.00
536.8410, 42292.00
538.0180, 42363.00
539.1950, 42203.71
540.3710, 42617.08
541.5480, 42876.04
542.7240, 42988.79
543.9000, 42517.62
545.0760, 42800.46
546.2520, 42781.13
547.4280, 42749.41
548.6040, 43138.38
549.7790, 42752.09
550.9540, 43134.32
552.1290, 43209.78
553.3040, 43425.64
554.4790, 43337.47
555.6530, 43343.15
556.8280, 43653.02
558.0020, 43794.43
559.1760, 43191.00
560.3500, 43120.00
561.5240, 43441.00
562.6980, 43435.00
563.8710, 43478.00
565.0440, 43552.00
566.2170, 43785.00
567.3900, 43667.00
568.5630, 43476.00
569.7360, 43327.00
570.9090, 43703.00
572.0810, 43923.00
573.2530, 43850.00
574.4250, 43798.00
575.5970, 43715.00
576.7690, 43486.00
577.9400, 43771.00
579.1120, 44155.00
580.2830, 43743.00
581.4540, 43818.00
582.6250, 43644.00
583.7960, 44103.00
584.9660, 43959.00
586.1370, 44182.00
587.3070, 44023.00
588.4770, 44198.00
589.6470, 44208.00
590.8170, 44176.00
591.9870, 44147.35
593.1560, 44313.47
594.3260, 44436.74
595.4950, 44519.36
596.6640, 44439.77
597.8330, 44569.64
599.0010, 44615.50
600.1700, 44657.98
601.3380, 44817.27
602.5070, 44761.27
603.6750, 44918.70
604.8430, 44990.91
606.0100, 45102.06
607.1780, 45128.81
608.3450, 45127.00
609.5130, 45287.00
610.6800, 45440.00
611.8470, 45378.00
613.0140, 45626.00
614.1800, 45433.00
615.3470, 45659.00
616.5130, 45683.00
617.6790, 46122.00
618.8450, 46206.00
620.0110, 46370.00
621.1770, 46730.00
622.3420, 46583.00
623.5080, 47134.00
624.6730, 47030.00
625.8380, 47444.00
627.0030, 47971.00
628.1680, 47945.20
629.3320, 48114.00
630.4970, 48226.00
631.6610, 48881.00
632.8250, 49097.00
633.9890, 49635.00
635.1530, 49629.00
636.3160, 50091.00
637.4800, 50329.00
638.6430, 50609.00
639.8060, 50832.00
640.9690, 51039.00
642.1320, 51084.00
643.2950, 51228.75
644.4570, 51135.00
645.6200, 51339.00
646.7820, 51203.00
647.9440, 51170.00
649.1060, 51361.91
650.2670, 51644.00
651.4290, 51660.00
652.5900, 51821.00
653.7520, 51931.00
654.9130, 52179.00
656.0740, 52830.00
657.2340, 52839.00
658.3950, 53318.26
659.5550, 53190.00
660.7160, 53988.00
661.8760, 54264.00
663.0360, 54509.00
664.1960, 54863.00
665.3550, 55331.00
666.5150, 56212.00
667.6740, 57268.00
668.8330, 57640.00
669.9920, 58942.00
671.1510, 60039.00
672.3100, 61195.00
673.4680, 63197.00
674.6270, 64677.00
675.7850, 66550.00
676.9430, 68714.00
678.1010, 71145.00
679.2590, 73815.00
680.4160, 75794.00
681.5740, 78474.00
682.7310, 79550.00
683.8880, 80577.00
685.0450, 80770.00
686.2020, 80767.00
687.3580, 80102.00
688.5150, 78976.00
689.6710, 77168.00
690.8270, 75441.00
691.9830, 72805.00
693.1390, 70827.00
694.2950, 68778.00
695.4500, 66481.00
696.6050, 64777.00
697.7610, 62589.00
698.9160, 60946.00
700.0710, 59322.00
701.2250, 57966.87
702.3800, 57010.00
703.5340, 55891.00
704.6880, 55244.00
705.8420, 54641.00
706.9960, 54090.00
708.1500, 53499.00
709.3040, 53196.00
710.4570, 52655.00
711.6100, 52490.00
712.7640, 52193.00
713.9160, 52244.00
715.0690, 51927.35
716.2220, 52051.00
717.3740, 51651.00
718.5270, 51776.00
719.6790, 52080.00
720.8310, 51597.00
721.9830, 51519.00
723.1340, 51238.00
724.2860, 51218.00
725.4370, 51546.00
726.5880, 51409.57
727.7390, 51462.76
728.8900, 51414.00
730.0410, 51516.00
731.1910, 51254.00
732.3420, 51536.00
733.4920, 51827.00
734.6420, 51986.00
735.7920, 51485.00
736.9420, 51293.00
738.0910, 51596.00
739.2410, 51167.00
740.3900, 51609.00
741.5390, 51612.00
742.6880, 51701.00
743.8370, 51952.00
744.9860, 51674.00
746.1340, 51970.00
747.2820, 51849.11
748.4310, 51868.00
749.5790, 51852.00
750.7260, 51792.00
751.8740, 52078.00
753.0220, 51835.00
754.1690, 51990.00
755.3160, 51899.00
756.4630, 51956.00
757.6100, 52249.00
758.7570, 51979.11
759.9030, 52045.95
761.0500, 51778.00
762.1960, 51906.00
763.3420, 52148.00
764.4880, 52198.00
765.6340, 51907.00
766.7790, 52250.00
767.9250, 52312.00
769.0700, 52169.00
770.2150, 52755.00
771.3600, 52240.00
772.5050, 52604.00
773.6490, 52669.00
774.7940, 52699.00
775.9380, 52844.00
777.0820, 52628.00
778.2260, 52700.00
779.3700, 52613.00
780.5140, 53226.00
781.6570, 53319.00
782.8010, 52956.00
783.9440, 53277.00
785.0870, 53064.00
786.2300, 53123.00
787.3720, 53074.00
788.5150, 53504.00
789.6570, 53385.00
790.8000, 53530.00
791.9420, 53345.00
793.0840, 53464.00
794.2250, 53583.00
795.3670, 53656.00
796.5080, 53445.00
797.6500, 54227.00
798.7910, 53552.00
799.9320, 53806.00
801.0720, 54100.00
802.2130, 53615.00
803.3530, 53709.00
804.4940, 54006.00
805.6340, 53539.00
806.7740, 54125.00
807.9140, 54355.00
809.0530, 53914.00
810.1930, 54050.00
811.3320, 54117.00
812.4710, 54238.00
813.6100, 54144.52
814.7490, 54058.00
815.8880, 53916.00
817.0270, 53840.00
818.1650, 53740.00
819.3030, 54334.00
820.4410, 54312.00
821.5790, 54084.00
822.7170, 54203.00
823.8540, 53953.00
824.9920, 54018.62
826.1290, 54054.11
827.2660, 54082.00
828.4030, 54267.00
829.5400, 54284.00
830.6760, 54562.00
831.8130, 54387.00
832.9490, 54490.00
834.0850, 54381.00
835.2210, 54249.00
836.3570, 54633.00
837.4930, 54580.00
838.6280, 54796.00
839.7640, 54822.75
840.8990, 54812.00
842.0340, 54826.00
843.1690, 54731.00
844.3030, 54772.00
845.4380, 54636.00
846.5720, 54924.00
847.7060, 54923.00
848.8400, 55126.00
849.9740, 55215.00
851.1080, 55280.08
852.2420, 55055.00
853.3750, 55369.00
854.5080, 55309.00
855.6410, 55218.00
856.7740, 55452.00
857.9070, 55481.00
859.0400, 55727.00
860.1720, 55642.00
861.3040, 55817.19
862.4360, 55478.00
863.5680, 55883.00
864.7000, 55838.00
865.8320, 55501.00
866.9630, 55936.00
868.0950, 55523.00
869.2260, 55689.00
870.3570, 55676.00
871.4880, 55896.00
872.6180, 56157.00
873.7490, 56055.92
874.8790, 56233.78
876.0090, 56129.00
877.1390, 56172.00
878.2690, 56582.00
879.3990, 56248.00
880.5280, 56566.00
881.6580, 56766.00
882.7870, 56583.00
883.9160, 56418.00
885.0450, 56704.91
886.1740, 56747.95
887.3020, 56978.00
888.4310, 57097.00
889.5590, 56844.00
890.6870, 56685.00
891.8150, 57266.00
892.9430, 57188.00
894.0700, 57364.00
895.1980, 57753.00
896.3250, 57699.00
897.4520, 57591.00
898.5790, 57457.00
899.7060, 57597.00
900.8330, 57574.00
901.9590, 57826.00
903.0850, 57796.00
904.2120, 57847.00
905.3380, 57755.00
906.4630, 57905.21
907.5890, 58301.00
908.7150, 58047.00
909.8400, 58275.00
910.9650, 58071.00
912.0900, 58592.00
913.2150, 58339.00
914.3400, 58180.00
915.4640, 58544.00
916.5890, 58751.00
917.7130, 58643.00
918.8370, 58823.00
919.9610, 58474.62
921.0850, 58819.94
922.2080, 59036.50
923.3320, 59131.30
924.4550, 58739.48
925.5780, 58975.98
926.7010, 58960.67
927.8240, 58935.04
928.9460, 59259.94
930.0690, 58938.88
931.1910, 59258.21
932.3130, 59321.89
933.4350, 59502.59
934.5570, 59429.91
935.6790, 59435.49
936.8000, 59694.47
937.9220, 59813.16
939.0430, 59711.27
940.1640, 59899.35
941.2850, 59569.35
942.4050, 59693.93
943.5260, 60014.70
944.6460, 59925.50
945.7660, 60118.16
946.8860, 60203.48
948.0060, 59800.95
949.1260, 60246.83
950.2460, 60325.81
951.3650, 60027.99
952.4840, 59970.00
953.6030, 60391.00
954.7220, 60292.00
955.8410, 60132.00
956.9590, 60356.00
958.0780, 60305.00
959.1960, 60683.00
960.3140, 60480.00
961.4320, 60678.00
962.5500, 60817.00
963.6680, 60740.00
964.7850, 61117.00
965.9020, 60923.00
967.0190, 61316.00
968.1360, 60924.00
969.2530, 60915.00
970.3700, 61316.00
971.4860, 61095.00
972.6030, 61191.00
973.7190, 61336.00
974.8350, 61746.00
975.9510, 61764.00
977.0660, 61655.00
978.1820, 61987.00
979.2970, 61754.00
980.4130, 62240.00
981.5280, 61869.00
982.6420, 62082.00
983.7570, 62303.00
984.8720, 62771.00
985.9860, 62560.00
987.1000, 62353.00
988.2140, 62568.00
989.3280, 62491.00
990.4420, 62608.99
991.5560, 62691.63
992.6690, 62914.00
993.7820, 62826.00
994.8950, 63020.00
996.0080, 63052.00
997.1210, 62990.00
998.2340, 63418.00
999.3460, 63376.00
1000.458, 63443.00
1001.571, 63862.00
1002.683, 63594.00
1003.794, 63875.00
1004.906, 63953.00
1006.017, 64385.00
1007.129, 63955.00
1008.240, 64190.00
1009.351, 64279.00
1010.462, 64195.00
1011.572, 64622.00
1012.683, 64340.00
1013.793, 64574.00
1014.904, 64741.00
1016.014, 64576.00
1017.123, 64379.00
1018.233, 64616.00
1019.343, 64664.00
1020.452, 64522.00
1021.561, 64601.00
1022.670, 64571.00
1023.779, 64693.00
1024.888, 64376.00
1025.997, 64518.00
1027.105, 64551.00
1028.213, 64932.00
1029.321, 65196.00
1030.429, 65807.00
1031.537, 65684.00
1032.645, 66141.00
1033.752, 66291.00
1034.859, 66778.00
1035.966, 66966.00
1037.073, 66792.00
1038.180, 66953.00
1039.287, 66945.27
1040.393, 66762.33
1041.500, 66837.00
1042.606, 66572.00
1043.712, 66632.21
1044.818, 66430.00
1045.923, 66663.00
1047.029, 66460.00
1048.134, 66443.00
1049.239, 66994.00
1050.344, 66609.00
1051.449, 66478.00
1052.554, 66219.00
1053.658, 66480.00
1054.763, 66518.00
1055.867, 66772.00
1056.971, 66855.15
1058.075, 66730.00
1059.179, 67027.00
1060.282, 66929.00
1061.385, 66962.00
1062.489, 67433.00
1063.592, 66841.00
1064.695, 67410.00
1065.797, 67415.00
1066.900, 67480.00
1068.002, 67030.00
1069.105, 67553.00
1070.207, 67937.00
1071.309, 67820.00
1072.411, 68272.00
1073.512, 68327.00
1074.614, 68213.00
1075.715, 68393.00
1076.816, 68876.00
1077.917, 68841.00
1079.018, 68819.00
1080.118, 69349.00
1081.219, 69420.72
1082.319, 70059.00
1083.419, 70121.00
1084.519, 70387.00
1085.619, 70983.00
1086.719, 71354.00
1087.818, 71685.00
1088.918, 72222.00
1090.017, 72085.00
1091.116, 72059.00
1092.215, 71715.00
1093.314, 71744.00
1094.412, 71563.00
1095.510, 71679.34
1096.609, 71785.32
1097.707, 71997.00
1098.805, 72317.00
1099.902, 72423.00
1101.000, 72479.25
1102.097, 72315.00
1103.195, 72455.00
1104.292, 72513.00
1105.389, 72542.00
1106.485, 72621.00
1107.582, 72274.00
1108.678, 72100.00
1109.775, 72039.00
1110.871, 72238.00
1111.967, 71866.00
1113.062, 71532.00
1114.158, 71360.00
1115.254, 70931.00
1116.349, 71046.00
1117.444, 70954.00
1118.539, 70653.00
1119.634, 70934.00
1120.728, 70580.00
1121.823, 70486.00
1122.917, 70495.00
1124.011, 70265.00
1125.105, 70144.00
1126.199, 69868.00
1127.293, 70334.00
1128.386, 70184.00
1129.480, 70164.00
1130.573, 69816.00
1131.666, 70178.00
1132.759, 70133.24
1133.851, 70148.00
1134.944, 70255.00
1136.036, 70511.00
1137.129, 70212.00
1138.221, 70821.00
1139.313, 70305.00
1140.404, 70600.00
1141.496, 70635.00
1142.587, 70737.00
1143.678, 70685.00
1144.770, 70701.00
1145.860, 71043.00
1146.951, 70645.00
1148.042, 71159.00
1149.132, 71371.00
1150.223, 70744.00
1151.313, 71476.00
1152.403, 71122.00
1153.492, 71510.00
1154.582, 71344.00
1155.671, 71472.00
1156.761, 71449.00
1157.850, 71258.00
1158.939, 71520.00
1160.028, 71623.00
1161.116, 71806.00
1162.205, 72287.00
1163.293, 71878.00
1164.381, 72358.00
1165.469, 71848.00
1166.557, 71971.00
1167.645, 72304.00
1168.732, 72245.00
1169.820, 72264.00
1170.907, 72245.00
1171.994, 72585.00
1173.081, 72654.00
1174.167, 72644.00
1175.254, 72740.00
1176.340, 72681.00
1177.426, 72925.00
1178.512, 72364.20
1179.598, 72786.86
1180.684, 73055.05
1181.770, 73177.10
1182.855, 72715.16
1183.940, 73007.23
1185.025, 72997.12
1186.110, 72974.63
1187.195, 73372.82
1188.280, 72995.82
1189.364, 73387.27
1190.448, 73471.95
1191.532, 73697.02
1192.616, 73618.06
1193.700, 73633.02
1194.784, 73952.10
1195.867, 74102.72
1196.950, 73988.70
1198.034, 74222.71
1199.117, 73834.95
1200.199, 73992.67
1201.282, 74385.84
1202.364, 74287.05
1203.447, 74526.55
1204.529, 74637.16
1205.611, 74162.35
1206.693, 74705.66
1207.774, 74808.60
1208.856, 74459.52
1209.937, 74967.87
1211.018, 74681.04
1212.099, 74678.05
1213.180, 74888.66
1214.261, 74876.59
1215.341, 75215.52
1216.422, 75216.32
1217.502, 75186.84
1218.582, 75289.22
1219.662, 75269.98
1220.742, 75439.87
1221.821, 75388.22
1222.900, 75571.95
1223.980, 75809.09
1225.059, 75637.65
1226.138, 75898.70
1227.216, 75488.98
1228.295, 75640.55
1229.373, 75731.60
1230.452, 76181.44
1231.530, 75774.98
1232.608, 75910.88
1233.685, 76277.65
1234.763, 76321.34
1235.840, 76500.09
1236.918, 76278.95
1237.995, 76433.45
1239.072, 76484.41
1240.149, 76893.23
1241.225, 77015.00
1242.302, 77061.00
1243.378, 77242.00
1244.454, 77242.53
1245.530, 77299.41
1246.606, 77131.00
1247.681, 77299.00
1248.757, 77334.00
1249.832, 77251.00
1250.907, 77571.00
1251.982, 77562.00
1253.057, 77485.00
1254.132, 77577.00
1255.206, 77588.86
1256.281, 77784.00
1257.355, 77707.00
1258.429, 77614.00
1259.503, 77643.00
1260.576, 77875.00
1261.650, 77930.50
1262.723, 78025.09
1263.797, 78239.00
1264.870, 78227.00
1265.942, 78278.00
1267.015, 78468.00
1268.088, 78387.00
1269.160, 78293.00
1270.232, 78663.00
1271.304, 78558.00
1272.376, 78523.00
1273.448, 78876.00
1274.520, 79120.00
1275.591, 78871.00
1276.662, 78947.00
1277.733, 79029.00
1278.804, 79021.00
1279.875, 79297.00
1280.946, 79262.09
1282.016, 79460.00
1283.086, 79358.00
1284.156, 79589.00
1285.226, 79701.00
1286.296, 79599.59
1287.366, 79926.00
1288.435, 79473.00
1289.505, 79592.00
1290.574, 80020.82
1291.643, 80295.18
1292.711, 80423.32
1293.780, 79967.60
1294.849, 80265.90
1295.917, 80261.95
1296.985, 80245.61
1298.053, 80649.95
1299.121, 80279.10
1300.189, 80676.77
1301.256, 80767.59
1302.323, 80998.83
1303.391, 80926.09
1304.458, 80947.19
1305.524, 81272.35
1306.591, 81429.17
1307.658, 81321.37
1308.724, 81561.45
1309.790, 81179.84
1310.856, 81343.77
1311.922, 81743.09
1312.988, 81650.49
1314.053, 81896.06
1315.119, 82012.89
1316.184, 81544.21
1317.249, 82093.66
1318.314, 82202.79
1319.379, 81859.84
1320.443, 82374.33
1321.508, 82093.70
1322.572, 82096.84
1323.636, 82313.57
1324.700, 82307.63
1325.764, 82652.77
1326.827, 82659.62
1327.891, 82636.33
1328.954, 82744.83
1330.017, 82731.55
1331.080, 82887.00
1332.143, 82866.00
1333.205, 82849.00
1334.268, 83086.00
1335.330, 82764.00
1336.392, 83007.00
1337.454, 83148.00
1338.516, 83195.00
1339.578, 83431.00
1340.639, 83431.00
1341.701, 83477.69
1342.762, 83386.00
1343.823, 83459.00
1344.883, 83560.00
1345.944, 83526.00
1347.005, 83911.00
1348.065, 83941.00
1349.125, 83494.00
1350.185, 84062.00
1351.245, 83564.00
1352.305, 83831.00
1353.364, 83944.00
1354.424, 84107.00
1355.483, 84513.00
1356.542, 83976.00
1357.601, 84062.00
1358.659, 84386.00
1359.718, 84575.00
1360.776, 85206.00
1361.834, 84657.00
1362.893, 84655.00
1363.950, 84948.00
1365.008, 84576.00
1366.066, 84981.00
1367.123, 84608.00
1368.180, 84639.00
1369.237, 84610.00
1370.294, 84767.00
1371.351, 85519.00
1372.408, 85305.00
1373.464, 85443.00
1374.520, 85289.00
1375.576, 85320.00
1376.632, 85790.00
1377.688, 85706.10
1378.744, 85961.00
1379.799, 85942.00
1380.854, 85846.00
1381.910, 85912.00
1382.965, 85599.00
1384.019, 86222.00
1385.074, 85842.00
1386.128, 86035.00
1387.183, 86296.00
1388.237, 86209.00
1389.291, 86547.00
1390.345, 86578.00
1391.398, 86688.00
1392.452, 86926.00
1393.505, 86855.22
1394.558, 86631.00
1395.611, 86965.00
1396.664, 86671.26
1397.717, 87023.39
1398.769, 86678.00
1399.822, 87104.00
1400.874, 87110.00
1401.926, 87330.00
1402.978, 87687.00
1404.029, 87640.00
1405.081, 87460.00
1406.132, 87681.00
1407.183, 87477.00
1408.234, 87573.00
1409.285, 87661.00
1410.336, 87901.00
1411.387, 87902.05
1412.437, 87577.00
1413.487, 88012.00
1414.537, 87790.00
1415.587, 87871.00
1416.637, 88164.00
1417.686, 88146.00
1418.736, 87931.74
1419.785, 88354.67
1420.834, 88623.13
1421.883, 88745.44
1422.932, 88283.83
1423.980, 88576.16
1425.029, 88566.38
1426.077, 88544.15
1427.125, 88942.60
1428.173, 88565.85
1429.221, 88957.62
1430.269, 89042.63
1431.316, 89267.97
1432.363, 89189.27
1433.410, 89204.48
1434.457, 89523.82
1435.504, 89674.76
1436.551, 89561.06
1437.597, 89795.26
1438.644, 89407.83
1439.690, 89565.87
1440.736, 89959.29
1441.781, 89860.75
1442.827, 90100.51
1443.873, 90211.45
1444.918, 89736.88
1445.963, 90280.45
1447.008, 90383.70
1448.053, 90034.87
1449.098, 90543.54
1450.142, 90256.96
1451.186, 90254.22
1452.231, 90465.14
1453.275, 90453.33
1454.319, 90792.58
1455.362, 90793.56
1456.406, 90764.38
1457.449, 90867.01
1458.492, 90848.01
1459.535, 91018.16
1460.578, 90966.82
1461.621, 91150.86
1462.663, 91388.19
1463.706, 91217.05
1464.748, 91478.36
1465.790, 91068.95
1466.832, 91220.75
1467.874, 91312.12
1468.915, 91762.13
1469.957, 91355.98
1470.998, 91492.13
1472.039, 91859.19
1473.080, 91903.13
1474.121, 92082.18
1475.161, 91861.22
1476.202, 92016.04
1477.242, 92067.23
1478.282, 92476.28
1479.322, 92602.81
1480.362, 92388.64
1481.401, 92175.84
1482.441, 92610.65
1483.480, 92431.63
1484.519, 92583.74
1485.558, 92393.88
1486.597, 92499.28
1487.636, 92599.99
1488.674, 92852.00
1489.712, 92890.62
1490.751, 93033.51
1491.788, 93077.73
1492.826, 93223.41
1493.864, 93357.78
1494.901, 93468.05
1495.939, 93468.09
1496.976, 93674.23
1498.013, 93440.94
1499.050, 93374.38
1500.086, 93426.25
1501.123, 93440.01
1502.159, 94128.82
1503.195, 93598.71
1504.231, 94079.00
1505.267, 94000.00
1506.303, 94007.00
1507.338, 94393.00
1508.374, 94272.00
1509.409, 94259.00
1510.444, 94461.00
1511.479, 94478.00
1512.514, 94778.00
1513.548, 94862.03
1514.583, 94704.30
1515.617, 95122.25
1516.651, 95385.75
1517.685, 95503.10
1518.718, 95036.46
1519.752, 95323.89
1520.785, 95309.09
1521.819, 95281.97
1522.852, 95675.46
1523.885, 95293.76
1524.917, 95680.52
1525.950, 95760.55
1526.982, 95980.94
1528.015, 95897.34
1529.047, 95907.60
1530.079, 96221.98
1531.110, 96367.91
1532.142, 96249.26
1533.173, 96478.50
1534.205, 96086.11
1535.236, 96239.20
1536.267, 96627.68
1537.298, 96524.25
1538.328, 96758.99
1539.359, 96864.98
1540.389, 96385.48
1541.419, 96924.09
1542.449, 97022.40
1543.479, 96668.62
1544.508, 97172.28
1545.538, 96880.82
1546.567, 96873.14
1547.596, 97079.05
1548.625, 97062.29
1549.654, 97396.60
1550.683, 97392.70
1551.711, 97358.52
1552.740, 97456.27
1553.768, 97432.31
1554.796, 97597.55
1555.824, 97541.26
1556.851, 97720.30
1557.879, 97952.76
1558.906, 97776.62
1559.933, 98032.98
1560.960, 97618.63
1561.987, 97765.50
1563.014, 97851.93
1564.041, 98297.08
1565.067, 97885.94
1566.093, 98017.14
1567.119, 98379.27
1568.145, 98418.29
1569.171, 98592.41
1570.196, 98366.51
1571.222, 98516.40
1572.247, 98562.65
1573.272, 98553.00
1574.297, 98640.34
1575.322, 98507.00
1576.346, 98787.00
1577.371, 98865.00
1578.395, 99096.00
1579.419, 98498.00
1580.443, 98675.00
##END=



