##NAMES=Fluorapatite
##RRUFFID=R050194
##IDEAL CHEMISTRY=Ca_5_(PO_4_)_3_F
##LOCALITY=Siglo XX mine, Llallagua, Bolivia
##OWNER=RRUFF
##SOURCE=Dave Bunk Minerals
##DESCRIPTION=Purple crystal fragments
##STATUS=The identification of this mineral has been confirmed by X-ray diffraction and chemical analysis
##URL=rruff.info/R050194
##MEASURED CHEMISTRY=Ca_5.00_(P_1.00_O_4_)_3_F_1.00_
##PIN_ID=L01968
##ORIENTATION=Laser parallel to -a* (-1 0 0). Fiducial mark perpendicular to laser is parallel to -c [0 0 -1]
136.5850, 4608.000
137.8140, 4594.000
139.0430, 4640.000
140.2710, 4564.000
141.5000, 4587.000
142.7280, 4578.000
143.9560, 4618.000
145.1840, 4632.000
146.4120, 4649.000
147.6390, 4733.000
148.8670, 4723.000
150.0940, 4773.000
151.3210, 4775.306
152.5490, 4799.000
153.7750, 4762.000
155.0020, 4763.000
156.2290, 4750.934
157.4550, 4781.600
158.6810, 4803.000
159.9080, 4855.000
161.1340, 4922.000
162.3590, 4937.000
163.5850, 4988.000
164.8110, 4965.000
166.0360, 5032.000
167.2610, 4977.000
168.4860, 5012.000
169.7110, 5055.000
170.9360, 5036.000
172.1610, 5131.000
173.3850, 5120.000
174.6100, 5146.000
175.8340, 5175.000
177.0580, 5209.000
178.2820, 5295.000
179.5050, 5252.000
180.7290, 5246.000
181.9520, 5196.000
183.1760, 5148.000
184.3990, 5290.000
185.6220, 5226.000
186.8450, 5315.000
188.0670, 5331.000
189.2900, 5369.000
190.5120, 5345.000
191.7340, 5401.000
192.9560, 5448.000
194.1780, 5405.000
195.4000, 5410.000
196.6220, 5540.000
197.8430, 5463.000
199.0640, 5476.000
200.2860, 5446.000
201.5070, 5558.000
202.7270, 5612.000
203.9480, 5556.000
205.1690, 5609.000
206.3890, 5551.000
207.6090, 5771.000
208.8290, 5619.000
210.0490, 5712.000
211.2690, 5692.000
212.4890, 5676.000
213.7080, 5711.000
214.9280, 5750.000
216.1470, 5780.000
217.3660, 5803.000
218.5850, 5847.000
219.8030, 5818.000
221.0220, 5765.000
222.2400, 5855.000
223.4590, 5858.000
224.6770, 5928.000
225.8950, 5877.000
227.1120, 6000.000
228.3300, 5956.000
229.5480, 6022.000
230.7650, 5943.000
231.9820, 6036.000
233.1990, 6068.000
234.4160, 6032.000
235.6330, 6092.000
236.8490, 6135.000
238.0660, 6087.000
239.2820, 6133.000
240.4980, 6116.000
241.7140, 6170.000
242.9300, 6163.000
244.1460, 6206.000
245.3610, 6204.000
246.5770, 6286.000
247.7920, 6216.000
249.0070, 6231.000
250.2220, 6201.000
251.4370, 6291.000
252.6510, 6281.000
253.8660, 6322.000
255.0800, 6374.000
256.2940, 6390.000
257.5080, 6367.000
258.7220, 6402.000
259.9360, 6438.000
261.1490, 6415.000
262.3630, 6524.000
263.5760, 6529.000
264.7890, 6556.000
266.0020, 6591.000
267.2150, 6606.809
268.4270, 6618.000
269.6400, 6662.000
270.8520, 6698.000
272.0640, 6739.000
273.2760, 6749.815
274.4880, 6782.137
275.7000, 6795.514
276.9120, 6815.000
278.1230, 6804.000
279.3340, 6795.000
280.5450, 6766.000
281.7560, 6804.000
282.9670, 6840.000
284.1780, 6855.000
285.3880, 7036.000
286.5980, 6907.000
287.8090, 7014.000
289.0190, 6953.000
290.2290, 6957.000
291.4380, 6991.000
292.6480, 6962.000
293.8570, 6990.000
295.0670, 7150.000
296.2760, 7190.000
297.4850, 7127.000
298.6930, 7147.000
299.9020, 7132.000
301.1110, 7119.000
302.3190, 7161.868
303.5270, 7189.614
304.7350, 7254.000
305.9430, 7303.000
307.1510, 7379.000
308.3580, 7448.000
309.5660, 7351.000
310.7730, 7433.000
311.9800, 7331.000
313.1870, 7357.000
314.3940, 7525.000
315.6010, 7472.000
316.8070, 7525.000
318.0130, 7488.000
319.2200, 7583.000
320.4260, 7609.000
321.6310, 7630.249
322.8370, 7598.000
324.0430, 7678.000
325.2480, 7661.000
326.4540, 7653.000
327.6590, 7652.000
328.8640, 7759.000
330.0680, 7833.000
331.2730, 7756.000
332.4780, 7681.000
333.6820, 7753.000
334.8860, 7695.000
336.0900, 7700.371
337.2940, 7779.000
338.4980, 7732.000
339.7010, 7815.000
340.9050, 7915.000
342.1080, 7933.000
343.3110, 8035.000
344.5140, 8039.727
345.7170, 8078.000
346.9200, 8034.000
348.1220, 8032.000
349.3240, 7987.000
350.5270, 8211.000
351.7290, 8045.000
352.9310, 8228.000
354.1320, 8230.000
355.3340, 8122.000
356.5350, 8312.000
357.7370, 8300.000
358.9380, 8320.000
360.1390, 8350.000
361.3400, 8434.000
362.5400, 8380.000
363.7410, 8371.000
364.9410, 8456.000
366.1410, 8380.000
367.3410, 8453.000
368.5410, 8600.000
369.7410, 8493.000
370.9400, 8517.000
372.1400, 8713.000
373.3390, 8636.000
374.5380, 8625.000
375.7370, 8594.000
376.9360, 8702.000
378.1350, 8716.000
379.3330, 8788.000
380.5310, 8761.000
381.7300, 8824.000
382.9280, 8615.000
384.1260, 8794.000
385.3230, 8812.000
386.5210, 8999.000
387.7180, 8811.000
388.9160, 8985.000
390.1130, 8997.000
391.3100, 9067.000
392.5060, 8995.000
393.7030, 9071.000
394.9000, 9080.000
396.0960, 9121.000
397.2920, 9227.000
398.4880, 9192.000
399.6840, 9152.000
400.8800, 9213.458
402.0750, 9285.000
403.2710, 9231.000
404.4660, 9291.000
405.6610, 9234.000
406.8560, 9221.000
408.0510, 9348.000
409.2450, 9331.000
410.4400, 9476.000
411.6340, 9393.000
412.8280, 9496.000
414.0220, 9577.000
415.2160, 9468.000
416.4100, 9629.000
417.6030, 9675.000
418.7970, 9659.000
419.9900, 9722.000
421.1830, 9781.000
422.3760, 9763.000
423.5690, 9885.000
424.7610, 9892.000
425.9540, 10025.00
427.1460, 9991.000
428.3380, 10152.00
429.5300, 10142.00
430.7220, 10171.00
431.9140, 10135.00
433.1050, 10173.00
434.2970, 10156.57
435.4880, 10194.00
436.6790, 10138.00
437.8700, 10127.00
439.0610, 10113.00
440.2510, 10190.00
441.4420, 10165.00
442.6320, 10245.00
443.8220, 10316.00
445.0120, 10472.00
446.2020, 10315.00
447.3910, 10345.00
448.5810, 10435.00
449.7700, 10379.00
450.9600, 10517.00
452.1490, 10420.00
453.3370, 10425.00
454.5260, 10481.00
455.7150, 10506.00
456.9030, 10546.00
458.0910, 10592.00
459.2800, 10611.09
460.4670, 10646.00
461.6550, 10655.00
462.8430, 10695.00
464.0300, 10711.00
465.2180, 10761.00
466.4050, 10797.00
467.5920, 10852.00
468.7790, 10946.00
469.9650, 10962.00
471.1520, 11016.00
472.3380, 11027.96
473.5250, 11038.00
474.7110, 11008.00
475.8970, 11110.00
477.0820, 11068.00
478.2680, 11136.00
479.4540, 11267.00
480.6390, 11039.00
481.8240, 11374.00
483.0090, 11049.00
484.1940, 11267.00
485.3780, 11394.00
486.5630, 11325.00
487.7470, 11364.00
488.9320, 11478.00
490.1160, 11326.00
491.3000, 11545.00
492.4830, 11488.00
493.6670, 11646.00
494.8500, 11469.00
496.0340, 11521.00
497.2170, 11702.00
498.4000, 11595.00
499.5820, 11775.00
500.7650, 11705.00
501.9480, 11718.00
503.1300, 11735.00
504.3120, 11990.00
505.4940, 11716.00
506.6760, 11900.00
507.8580, 11864.00
509.0390, 11744.00
510.2210, 11964.00
511.4020, 12051.00
512.5830, 12021.00
513.7640, 11945.00
514.9450, 12078.00
516.1250, 12151.00
517.3060, 12158.00
518.4860, 12170.00
519.6660, 12230.00
520.8460, 12234.00
522.0260, 12299.00
523.2060, 12356.00
524.3850, 12407.00
525.5650, 12439.00
526.7440, 12305.00
527.9230, 12490.00
529.1020, 12532.00
530.2810, 12666.00
531.4590, 12565.00
532.6380, 12685.00
533.8160, 12645.00
534.9940, 12646.00
536.1720, 12675.00
537.3500, 12770.00
538.5270, 12868.00
539.7050, 12934.00
540.8820, 12999.87
542.0590, 13054.51
543.2360, 13102.00
544.4130, 13135.14
545.5900, 13173.04
546.7660, 13175.13
547.9430, 13179.00
549.1190, 13180.00
550.2950, 13216.00
551.4710, 13201.36
552.6470, 13196.35
553.8220, 13203.00
554.9980, 13162.00
556.1730, 13183.00
557.3480, 13169.41
558.5230, 13242.76
559.6980, 13252.00
560.8730, 13398.00
562.0470, 13488.00
563.2220, 13522.00
564.3960, 13570.00
565.5700, 13503.00
566.7440, 13625.00
567.9170, 13630.47
569.0910, 13799.00
570.2640, 13716.00
571.4380, 13776.00
572.6110, 13805.00
573.7840, 14098.00
574.9570, 14008.00
576.1290, 14093.00
577.3020, 14108.00
578.4740, 14110.00
579.6460, 14282.00
580.8180, 14060.00
581.9900, 14277.00
583.1620, 14147.00
584.3330, 14319.00
585.5040, 14307.00
586.6760, 14475.00
587.8470, 14518.00
589.0180, 14532.00
590.1880, 14676.00
591.3590, 14505.00
592.5290, 14551.00
593.7000, 14642.00
594.8700, 14600.00
596.0400, 14568.00
597.2090, 14612.00
598.3790, 14631.14
599.5490, 14694.00
600.7180, 14765.00
601.8870, 14761.00
603.0560, 14865.00
604.2250, 14933.00
605.3940, 14977.00
606.5620, 14990.00
607.7300, 15001.00
608.8990, 15066.00
610.0670, 15190.00
611.2350, 15224.00
612.4020, 15219.00
613.5700, 15184.00
614.7370, 15244.00
615.9050, 15147.00
617.0720, 15343.00
618.2390, 15282.00
619.4060, 15376.00
620.5720, 15497.00
621.7390, 15519.00
622.9050, 15652.00
624.0710, 15534.00
625.2370, 15593.00
626.4030, 15611.00
627.5690, 15589.00
628.7340, 15797.00
629.9000, 15725.00
631.0650, 15794.00
632.2300, 15683.00
633.3950, 15858.00
634.5600, 15872.00
635.7240, 16030.00
636.8890, 15996.00
638.0530, 15989.00
639.2170, 16053.00
640.3810, 16180.00
641.5450, 16140.00
642.7080, 16403.00
643.8720, 16022.00
645.0350, 16401.00
646.1980, 16376.00
647.3610, 16294.00
648.5240, 16486.00
649.6870, 16328.00
650.8490, 16442.00
652.0120, 16518.00
653.1740, 16529.00
654.3360, 16420.00
655.4980, 16508.95
656.6600, 16696.00
657.8210, 16629.00
658.9830, 16747.00
660.1440, 16931.00
661.3050, 16898.00
662.4660, 16938.00
663.6270, 16999.00
664.7870, 16978.00
665.9480, 17120.00
667.1080, 17081.00
668.2680, 17126.00
669.4280, 17227.00
670.5880, 17161.00
671.7480, 17300.00
672.9070, 17278.00
674.0670, 17193.00
675.2260, 17353.00
676.3850, 17484.00
677.5440, 17631.00
678.7030, 17554.00
679.8610, 17541.00
681.0200, 17556.00
682.1780, 17605.00
683.3360, 17591.00
684.4940, 17689.00
685.6520, 17793.00
686.8090, 17690.00
687.9670, 17942.00
689.1240, 17962.00
690.2810, 17925.00
691.4380, 18147.00
692.5950, 18107.00
693.7520, 18087.00
694.9080, 18153.00
696.0650, 18107.00
697.2210, 18247.00
698.3770, 18091.00
699.5330, 18247.00
700.6880, 18225.00
701.8440, 18418.00
702.9990, 18537.00
704.1550, 18525.00
705.3100, 18452.00
706.4650, 18640.00
707.6190, 18512.00
708.7740, 18673.00
709.9290, 18720.00
711.0830, 18619.00
712.2370, 18684.00
713.3910, 18922.00
714.5450, 18984.00
715.6980, 18996.00
716.8520, 18962.00
718.0050, 19040.00
719.1580, 19007.00
720.3110, 18961.00
721.4640, 19039.02
722.6170, 19208.00
723.7700, 19197.00
724.9220, 19164.00
726.0740, 19359.00
727.2260, 19406.00
728.3780, 19538.00
729.5300, 19480.00
730.6810, 19509.00
731.8330, 19626.00
732.9840, 19586.07
734.1350, 19578.00
735.2860, 19656.00
736.4370, 19641.00
737.5880, 19768.00
738.7380, 19752.00
739.8880, 19848.00
741.0390, 19853.00
742.1890, 20022.00
743.3380, 19836.00
744.4880, 20056.00
745.6380, 20232.00
746.7870, 20401.00
747.9360, 20113.00
749.0850, 20458.00
750.2340, 20336.00
751.3830, 20326.00
752.5310, 20363.00
753.6800, 20451.00
754.8280, 20600.00
755.9760, 20655.00
757.1240, 20782.00
758.2720, 20564.00
759.4190, 20780.00
760.5670, 20713.00
761.7140, 20733.00
762.8610, 20797.00
764.0080, 20754.00
765.1550, 20980.00
766.3020, 21131.00
767.4480, 21253.00
768.5950, 21008.00
769.7410, 21012.00
770.8870, 21144.00
772.0330, 21254.00
773.1780, 21301.00
774.3240, 21378.00
775.4690, 21547.00
776.6140, 21572.89
777.7590, 21546.00
778.9040, 21684.00
780.0490, 21693.00
781.1940, 21710.00
782.3380, 21897.00
783.4820, 21717.00
784.6260, 21696.00
785.7700, 21830.00
786.9140, 21891.00
788.0580, 21929.00
789.2010, 21892.00
790.3450, 21977.22
791.4880, 21938.00
792.6310, 22042.00
793.7730, 22214.00
794.9160, 22156.00
796.0590, 22167.00
797.2010, 22335.00
798.3430, 22514.00
799.4850, 22598.00
800.6270, 22545.00
801.7690, 22536.00
802.9100, 22592.37
804.0520, 22601.33
805.1930, 22640.00
806.3340, 22765.00
807.4750, 22723.00
808.6160, 22933.00
809.7560, 23043.00
810.8970, 23063.00
812.0370, 23106.00
813.1770, 22902.00
814.3170, 23001.00
815.4570, 23031.97
816.5960, 23226.00
817.7360, 23192.00
818.8750, 23412.00
820.0140, 23458.00
821.1530, 23496.00
822.2920, 23488.00
823.4310, 23346.00
824.5690, 23399.64
825.7070, 23442.45
826.8460, 23398.00
827.9840, 23649.00
829.1220, 23681.00
830.2590, 23819.00
831.3970, 23932.00
832.5340, 23915.00
833.6710, 23837.00
834.8080, 24031.00
835.9450, 24072.00
837.0820, 23986.00
838.2190, 24284.00
839.3550, 24217.00
840.4910, 24350.00
841.6270, 24485.00
842.7630, 24455.00
843.8990, 24713.00
845.0350, 24558.00
846.1700, 24687.00
847.3060, 24716.00
848.4410, 24882.00
849.5760, 24671.00
850.7100, 24729.00
851.8450, 24987.00
852.9800, 24926.00
854.1140, 25125.00
855.2480, 25112.00
856.3820, 25057.00
857.5160, 25168.00
858.6500, 25374.00
859.7830, 25268.00
860.9170, 25608.00
862.0500, 25228.00
863.1830, 25599.00
864.3160, 25333.00
865.4480, 25755.00
866.5810, 25567.00
867.7130, 25519.00
868.8460, 25715.00
869.9780, 25773.00
871.1100, 25790.00
872.2410, 25832.00
873.3730, 25783.00
874.5050, 26081.00
875.6360, 25944.00
876.7670, 26156.00
877.8980, 26326.00
879.0290, 26392.00
880.1590, 26448.40
881.2900, 26444.01
882.4200, 26442.00
883.5500, 26374.00
884.6800, 26397.00
885.8100, 26439.00
886.9400, 26613.00
888.0690, 26413.00
889.1990, 26737.00
890.3280, 26637.00
891.4570, 26706.00
892.5860, 26797.00
893.7140, 26811.00
894.8430, 26924.00
895.9710, 26960.00
897.1000, 27049.00
898.2280, 27170.00
899.3560, 27255.00
900.4830, 27217.00
901.6110, 27297.00
902.7380, 27138.00
903.8660, 27349.00
904.9930, 27254.00
906.1200, 27488.00
907.2460, 27476.00
908.3730, 27622.00
909.5000, 27604.00
910.6260, 27652.00
911.7520, 27821.00
912.8780, 27989.00
914.0040, 27966.83
915.1290, 28005.00
916.2550, 27974.00
917.3800, 28035.00
918.5050, 28087.00
919.6300, 28154.11
920.7550, 28196.00
921.8800, 28296.00
923.0040, 28475.00
924.1290, 28449.00
925.2530, 28472.00
926.3770, 28665.00
927.5010, 28549.00
928.6250, 28406.00
929.7480, 28791.00
930.8720, 28689.00
931.9950, 28759.00
933.1180, 28821.00
934.2410, 28856.00
935.3640, 28866.00
936.4860, 28858.00
937.6090, 28948.00
938.7310, 29033.87
939.8530, 29318.00
940.9750, 29239.00
942.0970, 29361.00
943.2180, 29354.00
944.3400, 29309.00
945.4610, 29538.00
946.5820, 29598.00
947.7030, 29723.00
948.8240, 29648.00
949.9450, 29791.00
951.0650, 29744.00
952.1860, 29798.00
953.3060, 29815.00
954.4260, 30054.00
955.5460, 30245.00
956.6650, 30331.00
957.7850, 30505.00
958.9040, 30722.00
960.0230, 30945.00
961.1420, 31323.00
962.2610, 31776.00
963.3800, 32262.00
964.4990, 32350.00
965.6170, 32439.00
966.7350, 31792.00
967.8530, 31589.00
968.9710, 31417.00
970.0890, 31052.00
971.2070, 31060.00
972.3240, 30897.00
973.4410, 31128.00
974.5580, 30915.00
975.6750, 30944.00
976.7920, 31162.00
977.9090, 31214.00
979.0250, 31432.00
980.1410, 31461.00
981.2580, 31487.00
982.3740, 31514.00
983.4890, 31486.00
984.6050, 31483.00
985.7200, 31548.12
986.8360, 31684.00
987.9510, 31670.00
989.0660, 31792.00
990.1810, 31828.00
991.2950, 31967.00
992.4100, 31883.00
993.5240, 32006.56
994.6390, 32044.27
995.7530, 32183.00
996.8660, 32143.00
997.9800, 32285.00
999.0940, 32315.00
1000.207, 32485.00
1001.320, 32373.00
1002.433, 32387.00
1003.546, 32384.00
1004.659, 32362.11
1005.772, 32636.00
1006.884, 32497.00
1007.996, 32619.00
1009.108, 32945.00
1010.220, 32976.00
1011.332, 32925.00
1012.444, 32931.00
1013.555, 32977.75
1014.666, 33012.90
1015.777, 33132.00
1016.888, 33186.00
1017.999, 33367.00
1019.110, 33521.00
1020.220, 33348.00
1021.331, 33618.00
1022.441, 33602.00
1023.551, 33463.00
1024.661, 33299.00
1025.770, 33610.00
1026.880, 33697.00
1027.989, 33917.00
1029.098, 34036.37
1030.207, 34148.00
1031.316, 34182.00
1032.425, 34235.00
1033.533, 34299.45
1034.642, 34125.00
1035.750, 34375.00
1036.858, 34381.00
1037.966, 34365.00
1039.073, 34577.00
1040.181, 34891.00
1041.288, 34709.00
1042.396, 34831.00
1043.503, 34575.00
1044.610, 34706.00
1045.716, 34809.00
1046.823, 34815.00
1047.929, 34954.00
1049.036, 35001.00
1050.142, 35081.81
1051.248, 35134.00
1052.353, 35293.00
1053.459, 35221.00
1054.564, 35407.00
1055.670, 35428.00
1056.775, 35472.00
1057.880, 35491.00
1058.985, 35534.00
1060.089, 35501.00
1061.194, 35489.00
1062.298, 35686.00
1063.402, 35781.00
1064.506, 35941.00
1065.610, 35988.00
1066.713, 36178.00
1067.817, 35830.00
1068.920, 36072.00
1070.023, 36009.00
1071.126, 36265.00
1072.229, 36205.00
1073.332, 36530.00
1074.435, 36174.00
1075.537, 36565.00
1076.639, 36561.00
1077.741, 36710.00
1078.843, 36608.00
1079.945, 36795.00
1081.046, 36565.00
1082.148, 36761.00
1083.249, 36875.00
1084.350, 36902.00
1085.451, 37104.00
1086.551, 37062.00
1087.652, 37095.00
1088.752, 36937.00
1089.853, 37091.00
1090.953, 37066.00
1092.053, 37194.00
1093.152, 37395.00
1094.252, 37343.00
1095.351, 37470.00
1096.451, 37616.00
1097.550, 37448.00
1098.649, 37736.00
1099.748, 37739.00
1100.846, 37881.00
1101.945, 37938.00
1103.043, 37886.00
1104.141, 37766.00
1105.239, 38193.00
1106.337, 38321.00
1107.434, 38149.00
1108.532, 38488.00
1109.629, 38439.00
1110.726, 38417.00
1111.823, 38383.00
1112.920, 38246.00
1114.017, 38371.00
1115.113, 38535.00
1116.210, 38690.00
1117.306, 38495.00
1118.402, 38692.00
1119.498, 38965.00
1120.593, 38651.00
1121.689, 39029.00
1122.784, 39124.00
1123.879, 38808.00
1124.974, 39126.00
1126.069, 38865.00
1127.164, 39170.00
1128.259, 39034.00
1129.353, 39380.00
1130.447, 39364.00
1131.541, 39509.00
1132.635, 39623.00
1133.729, 39440.00
1134.822, 39734.00
1135.916, 39773.00
1137.009, 39869.00
1138.102, 39610.00
1139.195, 40054.00
1140.288, 39950.00
1141.380, 40255.00
1142.473, 40183.00
1143.565, 40218.00
1144.657, 40254.00
1145.749, 40433.00
1146.841, 40439.00
1147.932, 40598.00
1149.024, 40621.64
1150.115, 40566.00
1151.206, 40585.00
1152.297, 40611.56
1153.388, 40614.00
1154.479, 40678.00
1155.569, 40660.00
1156.659, 40667.26
1157.750, 40711.43
1158.839, 40874.00
1159.929, 40817.00
1161.019, 41125.00
1162.108, 41281.00
1163.198, 41354.00
1164.287, 41436.00
1165.376, 41226.00
1166.465, 41333.00
1167.553, 41504.00
1168.642, 41692.00
1169.730, 41370.00
1170.818, 41751.00
1171.906, 41676.00
1172.994, 41818.00
1174.082, 41996.00
1175.170, 41971.00
1176.257, 41870.00
1177.344, 42065.00
1178.431, 42087.00
1179.518, 42187.00
1180.605, 42084.00
1181.691, 42337.00
1182.778, 42477.00
1183.864, 42183.00
1184.950, 42751.00
1186.036, 42529.00
1187.122, 42801.00
1188.207, 42670.00
1189.292, 42714.00
1190.378, 43163.00
1191.463, 42930.00
1192.548, 42781.00
1193.632, 43084.00
1194.717, 43259.00
1195.801, 43062.00
1196.886, 43211.00
1197.970, 43230.00
1199.054, 42966.00
1200.137, 43275.00
1201.221, 43500.00
1202.305, 43610.00
1203.388, 43453.00
1204.471, 43547.00
1205.554, 43591.00
1206.637, 43455.00
1207.719, 43722.00
1208.802, 43681.00
1209.884, 43791.00
1210.966, 43973.00
1212.048, 44063.00
1213.130, 44060.00
1214.212, 44235.00
1215.293, 43996.00
1216.374, 44422.00
1217.456, 44213.00
1218.536, 44193.00
1219.617, 44789.00
1220.698, 44223.00
1221.778, 44495.00
1222.859, 44628.00
1223.939, 44595.00
1225.019, 44615.00
1226.099, 45126.00
1227.178, 44877.00
1228.258, 44762.00
1229.337, 44961.00
1230.417, 45442.00
1231.496, 45044.00
1232.574, 45366.00
1233.653, 45333.00
1234.732, 45161.00
1235.810, 45387.00
1236.888, 45440.00
1237.966, 45462.00
1239.044, 45375.00
1240.122, 45837.00
1241.199, 45680.00
1242.277, 45754.00
1243.354, 45661.00
1244.431, 45776.00
1245.508, 45717.00
1246.585, 45645.00
1247.661, 45804.00
1248.738, 45972.00
1249.814, 46177.00
1250.890, 46095.00
1251.966, 46082.00
1253.042, 46173.00
1254.117, 46132.73
1255.193, 46196.73
1256.268, 46175.00
1257.343, 46353.00
1258.418, 46402.00
1259.493, 46615.00
1260.567, 46723.86
1261.642, 46663.00
1262.716, 46923.00
1263.790, 47016.00
1264.864, 46964.00
1265.938, 47107.00
1267.011, 46930.00
1268.085, 46711.00
1269.158, 47020.00
1270.231, 46739.00
1271.304, 47228.00
1272.377, 47121.00
1273.450, 46987.00
1274.522, 47321.00
1275.594, 47547.00
1276.666, 47178.00
1277.738, 47399.00
1278.810, 47178.00
1279.882, 47378.00
1280.953, 47591.00
1282.025, 47973.00
1283.096, 47785.00
1284.167, 47787.00
1285.238, 47812.00
1286.308, 47974.00
1287.379, 48089.00
1288.449, 48172.00
1289.519, 47858.00
1290.589, 48159.00
1291.659, 48105.00
1292.729, 48444.00
1293.798, 48326.00
1294.868, 48541.00
1295.937, 48451.00
1297.006, 48765.00
1298.075, 48822.00
1299.143, 48901.00
1300.212, 48922.00
1301.280, 48964.25
1302.348, 48994.21
1303.416, 49014.00
1304.484, 49028.00
1305.552, 49058.00
1306.620, 49064.00
1307.687, 49116.11
1308.754, 49385.00
1309.821, 49256.00
1310.888, 49444.00
1311.955, 49605.00
1313.021, 49587.00
1314.088, 49832.00
1315.154, 49666.00
1316.220, 49714.00
1317.286, 50082.00
1318.352, 49908.00
1319.417, 49883.00
1320.483, 50037.00
1321.548, 50289.00
1322.613, 49902.00
1323.678, 50258.00
1324.743, 50052.00
1325.807, 50147.00
1326.872, 50292.00
1327.936, 50421.00
1329.000, 50483.24
1330.064, 50608.00
1331.128, 50609.00
1332.191, 50691.00
1333.255, 50757.00
1334.318, 50638.00
1335.381, 50590.00
1336.444, 50893.00
1337.507, 50726.00
1338.569, 50899.00
1339.632, 51014.00
1340.694, 50821.00
1341.756, 51032.00
1342.818, 51065.00
1343.880, 51232.00
1344.941, 51593.00
1346.003, 51391.00
1347.064, 51801.00
1348.125, 51175.00
1349.186, 51716.00
1350.247, 51559.00
1351.308, 51704.00
1352.368, 51624.00
1353.428, 51698.00
1354.489, 51831.00
1355.549, 52067.00
1356.608, 51862.00
1357.668, 51842.00
1358.727, 51632.00
1359.787, 52041.00
1360.846, 51927.00
1361.905, 52126.00
1362.964, 52306.00
1364.022, 52107.00
1365.081, 52317.00
1366.139, 52303.00
1367.197, 52431.00
1368.255, 52766.00
1369.313, 52325.00
1370.371, 52464.00
1371.428, 52814.00
1372.486, 52574.00
1373.543, 52835.00
1374.600, 53031.00
1375.657, 53038.00
1376.713, 53161.34
1377.770, 52889.00
1378.826, 53157.00
1379.882, 53027.00
1380.938, 52906.00
1381.994, 53040.00
1383.050, 53121.00
1384.106, 52977.00
1385.161, 53192.00
1386.216, 53226.00
1387.271, 53422.00
1388.326, 53617.00
1389.381, 53270.00
1390.435, 53708.00
1391.490, 53323.00
1392.544, 53732.00
1393.598, 53617.00
1394.652, 54172.00
1395.705, 53771.00
1396.759, 54158.00
1397.812, 54035.00
1398.866, 54246.00
1399.919, 53811.00
1400.972, 54009.00
1402.024, 54302.00
1403.077, 54171.00
1404.129, 54397.00
1405.181, 54528.00
1406.233, 54448.00
1407.285, 54336.00
1408.337, 54491.00
1409.389, 54608.00
1410.440, 54569.00
1411.491, 54668.00
1412.542, 54755.17
1413.593, 54739.00
1414.644, 54850.00
1415.695, 54980.00
1416.745, 54795.00
1417.795, 54806.00
1418.845, 55196.00
1419.895, 55122.00
1420.945, 55195.00
1421.995, 55181.00
1423.044, 55128.00
1424.093, 55152.00
1425.142, 55325.00
1426.191, 55354.69
1427.240, 55353.00
1428.289, 55578.00
1429.337, 55554.00
1430.385, 55656.00
1431.433, 55878.00
1432.481, 55758.00
1433.529, 56001.00
1434.577, 56060.00
1435.624, 55900.00
1436.672, 55967.00
1437.719, 55798.00
1438.766, 55837.00
1439.812, 56217.00
1440.859, 56318.00
1441.905, 56376.00
1442.952, 56479.89
1443.998, 56504.00
1445.044, 56356.00
1446.090, 56534.00
1447.135, 56242.00
1448.181, 56313.00
1449.226, 56462.00
1450.271, 56656.00
1451.316, 56659.00
1452.361, 56633.00
1453.405, 56612.00
1454.450, 56659.11
1455.494, 56659.22
1456.538, 56808.00
1457.582, 56830.00
1458.626, 57013.00
1459.670, 57049.50
1460.713, 57275.00
1461.757, 57149.00
1462.800, 57343.00
1463.843, 57379.00
1464.886, 57432.00
1465.928, 57172.00
1466.971, 57454.00
1468.013, 57560.00
1469.055, 57495.00
1470.097, 57800.00
1471.139, 57501.00
1472.181, 57661.00
1473.222, 57708.00
1474.263, 57907.00
1475.305, 57851.00
1476.346, 58056.00
1477.386, 58140.00
1478.427, 58093.60
1479.468, 58073.00
1480.508, 57954.00
1481.548, 58282.00
1482.588, 58098.00
1483.628, 58378.00
1484.668, 58166.00
1485.707, 58277.00
1486.747, 58557.00
1487.786, 58165.00
1488.825, 58925.00
1489.864, 58533.00
1490.902, 58452.00
1491.941, 58636.00
1492.979, 58727.00
1494.017, 58683.00
1495.055, 58905.00
1496.093, 58944.00
1497.131, 58775.00
1498.168, 58723.00
1499.206, 58834.00
1500.243, 58828.98
1501.280, 58890.00
1502.317, 59069.00
1503.354, 59127.00
1504.390, 59328.00
1505.426, 59288.00
1506.463, 59234.00
1507.499, 59345.00
1508.535, 59501.00
1509.570, 59355.00
1510.606, 59561.00
1511.641, 59425.00
1512.676, 59682.00
1513.711, 59492.00
1514.746, 59928.00
1515.781, 59789.00
1516.816, 59527.00
1517.850, 59940.00
1518.884, 59788.00
1519.918, 59840.00
1520.952, 59981.00
1521.986, 60048.00
1523.019, 60053.00
1524.053, 59994.00
1525.086, 60206.00
1526.119, 60381.00
1527.152, 60361.48
1528.185, 60622.00
1529.217, 60417.00
1530.250, 60499.00
1531.282, 60531.00
1532.314, 60443.00
1533.346, 60660.00
1534.377, 60644.00
1535.409, 60861.00
1536.440, 60835.00
1537.472, 60514.00
1538.503, 60678.00
1539.534, 60825.00
1540.564, 60499.00
1541.595, 60861.00
1542.625, 61014.00
1543.656, 60977.00
1544.686, 61092.00
1545.716, 61179.00
1546.745, 61187.00
1547.775, 61234.27
1548.804, 61215.00
1549.834, 61245.00
1550.863, 61267.00
1551.892, 61281.00
1552.920, 61303.60
1553.949, 61354.41
1554.977, 61373.00
1556.006, 61483.00
1557.034, 61601.00
1558.062, 61706.00
1559.089, 61657.00
1560.117, 61724.46
1561.144, 61888.00
1562.172, 61759.00
1563.199, 61593.00
1564.226, 61664.00
1565.252, 61734.00
1566.279, 61674.00
1567.305, 61800.00
1568.332, 61878.00
1569.358, 62136.00
1570.384, 61909.00
1571.409, 62748.00
##END=



