##NAMES=Fluorapophyllite-(K)
##RRUFFID=R040095
##IDEAL CHEMISTRY=KCa_4_Si_8_O_20_F&#183;8H_2_O
##LOCALITY=unknown
##OWNER=RRUFF
##SOURCE=University of Arizona Mineral Museum
##DESCRIPTION=Colorless crystals
##STATUS=The identification of this mineral has been confirmed by X-ray diffraction and chemical analysis
##URL=rruff.info/R040095
##MEASURED CHEMISTRY=(K_0.90_Na_0.04_)Ca_3.96_Si_8.00_O_20_(F_0.82_(OH)_0.18_)Â·8H_2_O
##PIN_ID=L00450
##ORIENTATION=Laser parallel to -a* (-1 0 0). Fiducial mark perpendicular to laser is parallel to c [0 0 1]
79.42100, 12079.00
80.65400, 13363.00
81.88700, 14680.00
83.11900, 15708.00
84.35200, 16778.00
85.58400, 17896.00
86.81600, 19476.00
88.04900, 21600.00
89.28100, 23488.00
90.51200, 25260.00
91.74400, 25828.00
92.97600, 25518.00
94.20700, 24777.00
95.43800, 24362.00
96.66900, 24360.00
97.90100, 25870.00
99.13100, 28575.00
100.3620, 32161.00
101.5930, 37053.00
102.8230, 44853.00
104.0530, 55573.00
105.2840, 66351.00
106.5140, 71649.00
107.7440, 68543.00
108.9730, 58118.00
110.2030, 46587.00
111.4320, 36309.00
112.6620, 28808.00
113.8910, 24631.00
115.1200, 21672.00
116.3490, 19771.00
117.5780, 18972.00
118.8060, 19552.00
120.0350, 20782.00
121.2630, 21839.00
122.4920, 22614.00
123.7200, 23021.00
124.9480, 23289.00
126.1750, 23544.00
127.4030, 24194.00
128.6310, 24784.00
129.8580, 25583.00
131.0850, 26985.00
132.3120, 28652.00
133.5390, 30266.00
134.7660, 33461.00
135.9930, 37905.00
137.2200, 43193.00
138.4460, 47256.00
139.6720, 47402.00
140.8980, 44358.00
142.1240, 39189.00
143.3500, 34165.00
144.5760, 30169.00
145.8020, 27458.00
147.0270, 25223.00
148.2520, 23822.00
149.4780, 23070.00
150.7030, 23141.00
151.9270, 23214.00
153.1520, 23577.00
154.3770, 24378.41
155.6010, 25311.46
156.8260, 26739.00
158.0500, 28196.00
159.2740, 30180.00
160.4980, 32446.00
161.7210, 34191.00
162.9450, 35552.00
164.1690, 35802.00
165.3920, 35066.00
166.6150, 33562.00
167.8380, 31153.00
169.0610, 27970.00
170.2840, 24849.00
171.5070, 22676.00
172.7290, 21070.00
173.9510, 20078.00
175.1740, 19265.00
176.3960, 18840.65
177.6180, 18967.00
178.8390, 19131.00
180.0610, 19828.00
181.2830, 21010.00
182.5040, 22513.00
183.7250, 23974.00
184.9460, 24285.00
186.1670, 23826.00
187.3880, 22928.00
188.6090, 21816.00
189.8290, 20653.00
191.0500, 20257.00
192.2700, 20254.00
193.4900, 20521.00
194.7100, 21323.00
195.9300, 22377.00
197.1490, 23707.00
198.3690, 25428.00
199.5880, 27308.00
200.8080, 29399.00
202.0270, 31176.00
203.2460, 33204.00
204.4650, 34387.00
205.6830, 36203.00
206.9020, 37748.00
208.1200, 38556.00
209.3380, 38861.00
210.5570, 37700.00
211.7750, 35753.00
212.9920, 32911.00
214.2100, 30820.00
215.4280, 28397.00
216.6450, 26782.00
217.8620, 25467.00
219.0790, 24500.00
220.2960, 23710.89
221.5130, 23148.00
222.7300, 22889.00
223.9460, 23133.00
225.1630, 23139.00
226.3790, 23300.00
227.5950, 23140.00
228.8110, 22388.00
230.0270, 21256.00
231.2430, 20248.00
232.4580, 18741.00
233.6740, 16961.00
234.8890, 15552.00
236.1040, 14316.11
237.3190, 13065.00
238.5340, 12196.00
239.7490, 11540.00
240.9630, 10779.00
242.1780, 10351.00
243.3920, 9934.000
244.6060, 9880.000
245.8200, 9564.000
247.0340, 9398.000
248.2470, 9394.000
249.4610, 9335.000
250.6740, 9502.000
251.8880, 9654.000
253.1010, 9939.000
254.3140, 10241.00
255.5270, 10597.05
256.7390, 11115.00
257.9520, 11541.00
259.1640, 12015.00
260.3760, 12733.00
261.5880, 13554.00
262.8000, 14080.00
264.0120, 15027.00
265.2240, 15623.00
266.4350, 16056.00
267.6470, 16147.00
268.8580, 15943.00
270.0690, 15488.00
271.2800, 14973.00
272.4910, 14243.00
273.7020, 13666.00
274.9120, 13123.00
276.1230, 12710.30
277.3330, 12347.00
278.5430, 12171.00
279.7530, 12013.00
280.9630, 12009.00
282.1720, 12146.50
283.3820, 12381.00
284.5910, 12737.00
285.8000, 13225.00
287.0090, 13787.00
288.2180, 14482.91
289.4270, 15270.00
290.6360, 16168.00
291.8440, 17186.00
293.0530, 18257.00
294.2610, 19334.00
295.4690, 20324.00
296.6770, 20840.00
297.8850, 21221.00
299.0920, 21016.00
300.3000, 21072.00
301.5070, 21036.00
302.7140, 21151.00
303.9210, 21225.00
305.1280, 21480.00
306.3350, 22050.00
307.5420, 22551.00
308.7480, 23156.00
309.9540, 23796.08
311.1600, 24414.04
312.3660, 25111.00
313.5720, 25745.00
314.7780, 26331.88
315.9840, 26983.00
317.1890, 27591.00
318.3940, 28230.00
319.6000, 28819.00
320.8050, 28924.00
322.0090, 28759.00
323.2140, 28355.00
324.4190, 27533.00
325.6230, 26449.00
326.8270, 25756.00
328.0320, 24959.00
329.2360, 24313.00
330.4390, 23822.00
331.6430, 23663.00
332.8470, 23670.00
334.0500, 23807.00
335.2530, 24052.00
336.4560, 23977.00
337.6590, 24309.00
338.8620, 23526.00
340.0650, 23093.00
341.2670, 21879.00
342.4700, 20373.00
343.6720, 19005.00
344.8740, 17897.00
346.0760, 16672.00
347.2780, 15662.00
348.4790, 15056.00
349.6810, 14432.00
350.8820, 13619.00
352.0830, 13330.00
353.2840, 12937.00
354.4850, 12481.00
355.6860, 11951.00
356.8870, 11685.00
358.0870, 11118.00
359.2870, 10863.00
360.4880, 10572.00
361.6880, 10295.00
362.8870, 10196.00
364.0870, 10062.00
365.2870, 10068.00
366.4860, 10069.00
367.6850, 9968.000
368.8850, 9995.019
370.0840, 10072.00
371.2820, 9988.000
372.4810, 9974.000
373.6800, 9994.000
374.8780, 9989.000
376.0760, 9891.000
377.2740, 9931.000
378.4720, 10036.00
379.6700, 10340.00
380.8680, 10268.00
382.0650, 10697.00
383.2630, 10886.00
384.4600, 11277.00
385.6570, 11615.00
386.8540, 12069.75
388.0510, 12623.00
389.2470, 13126.00
390.4440, 13821.00
391.6400, 14440.00
392.8360, 15195.00
394.0320, 15728.00
395.2280, 16256.00
396.4240, 16775.00
397.6190, 17098.00
398.8150, 17294.00
400.0100, 17081.00
401.2050, 16918.00
402.4000, 16746.00
403.5950, 16434.00
404.7900, 16160.00
405.9840, 15728.00
407.1790, 15461.00
408.3730, 15243.00
409.5670, 15253.00
410.7610, 15451.00
411.9550, 15449.00
413.1480, 15983.00
414.3420, 16312.00
415.5350, 17198.00
416.7280, 18278.00
417.9220, 19555.00
419.1140, 21261.00
420.3070, 23554.00
421.5000, 26142.00
422.6920, 29374.53
423.8850, 33125.00
425.0770, 37211.00
426.2690, 41838.00
427.4610, 46960.00
428.6520, 51637.00
429.8440, 54286.00
431.0350, 54494.00
432.2260, 50843.00
433.4180, 45667.00
434.6090, 39681.00
435.7990, 34297.00
436.9900, 29484.00
438.1800, 25948.00
439.3710, 22967.00
440.5610, 20564.00
441.7510, 18800.00
442.9410, 17404.00
444.1310, 16461.00
445.3200, 15674.00
446.5100, 15166.00
447.6990, 14713.00
448.8880, 14462.00
450.0770, 14204.00
451.2660, 14241.00
452.4550, 14406.00
453.6430, 14425.00
454.8320, 14756.00
456.0200, 15099.00
457.2080, 15368.00
458.3960, 15713.00
459.5840, 15908.23
460.7720, 16001.25
461.9590, 16161.00
463.1460, 16010.00
464.3340, 15838.00
465.5210, 15711.00
466.7080, 15801.00
467.8940, 15807.00
469.0810, 16140.00
470.2670, 16720.00
471.4540, 17562.00
472.6400, 18933.00
473.8260, 20306.00
475.0120, 22318.00
476.1970, 24614.00
477.3830, 27326.00
478.5680, 30962.00
479.7540, 34638.00
480.9390, 38476.00
482.1240, 41651.00
483.3080, 43501.00
484.4930, 43205.00
485.6780, 41341.00
486.8620, 37912.00
488.0460, 34332.00
489.2300, 31194.00
490.4140, 28294.00
491.5980, 25877.53
492.7810, 23689.00
493.9650, 22211.00
495.1480, 21116.00
496.3310, 20465.00
497.5140, 20184.00
498.6970, 20032.00
499.8800, 19890.00
501.0620, 19477.00
502.2440, 19092.00
503.4270, 18651.00
504.6090, 18255.00
505.7910, 17543.00
506.9720, 17137.00
508.1540, 16838.00
509.3350, 16405.00
510.5170, 16315.00
511.6980, 16061.00
512.8790, 16169.00
514.0600, 16032.00
515.2400, 16205.00
516.4210, 16344.00
517.6010, 16730.00
518.7810, 16997.00
519.9620, 17669.00
521.1410, 18287.00
522.3210, 18972.00
523.5010, 19618.00
524.6800, 20734.00
525.8600, 21650.00
527.0390, 22975.00
528.2180, 24211.00
529.3970, 25480.00
530.5750, 26941.00
531.7540, 28336.00
532.9320, 29535.00
534.1110, 31219.00
535.2890, 32010.00
536.4670, 32873.00
537.6440, 33382.00
538.8220, 33759.00
540.0000, 33525.00
541.1770, 33152.00
542.3540, 32666.00
543.5310, 32030.00
544.7080, 31765.00
545.8850, 30843.00
547.0610, 30259.00
548.2380, 29720.00
549.4140, 29618.00
550.5900, 28813.00
551.7660, 28951.00
552.9420, 28637.00
554.1170, 28877.00
555.2930, 28667.00
556.4680, 28764.00
557.6430, 29281.00
558.8180, 29608.00
559.9930, 30302.00
561.1680, 31045.00
562.3430, 31957.00
563.5170, 33098.00
564.6910, 34508.00
565.8650, 36203.00
567.0390, 37662.00
568.2130, 39958.00
569.3870, 42469.00
570.5600, 45512.00
571.7340, 49039.00
572.9070, 52595.00
574.0800, 56941.00
575.2530, 61205.00
576.4250, 65630.00
577.5980, 70168.00
578.7700, 74336.00
579.9430, 77516.00
581.1150, 80069.00
582.2870, 80686.00
583.4590, 80052.00
584.6300, 77420.00
585.8020, 73180.00
586.9730, 68279.00
588.1440, 62756.00
589.3150, 56867.00
590.4860, 51247.00
591.6570, 46287.00
592.8270, 41976.00
593.9980, 37972.00
595.1680, 34517.00
596.3380, 31551.00
597.5080, 28809.00
598.6780, 27012.00
599.8480, 24977.00
601.0170, 23438.00
602.1860, 21939.00
603.3550, 20772.00
604.5240, 19876.00
605.6930, 18882.00
606.8620, 18044.00
608.0310, 17321.00
609.1990, 16873.00
610.3670, 16473.00
611.5350, 16039.00
612.7030, 15638.00
613.8710, 15089.00
615.0390, 15060.00
616.2060, 14705.00
617.3730, 14571.00
618.5410, 14539.00
619.7080, 14293.00
620.8740, 14134.00
622.0410, 13969.00
623.2080, 14048.00
624.3740, 13920.00
625.5400, 13943.00
626.7060, 14036.00
627.8720, 13769.00
629.0380, 13837.00
630.2040, 13875.00
631.3690, 14003.00
632.5340, 13903.00
633.6990, 14077.00
634.8640, 14029.00
636.0290, 14009.00
637.1940, 14036.00
638.3580, 14114.00
639.5230, 14186.00
640.6870, 14173.00
641.8510, 14371.00
643.0150, 14406.00
644.1790, 14574.00
645.3420, 14886.00
646.5060, 15155.00
647.6690, 15424.00
648.8320, 15701.00
649.9950, 15981.00
651.1580, 16467.00
652.3200, 16771.00
653.4830, 17091.00
654.6450, 17675.00
655.8070, 18041.00
656.9690, 18368.00
658.1310, 18582.00
659.2930, 18902.00
660.4540, 19028.00
661.6160, 19168.00
662.7770, 19144.00
663.9380, 19001.00
665.0990, 18976.00
666.2600, 18157.00
667.4200, 17479.00
668.5810, 16901.00
669.7410, 16165.00
670.9010, 15647.00
672.0610, 14928.00
673.2210, 14525.00
674.3810, 13803.00
675.5400, 13437.00
676.6990, 12852.00
677.8590, 12416.00
679.0180, 12125.00
680.1760, 11797.00
681.3350, 11431.00
682.4940, 11301.00
683.6520, 11068.00
684.8100, 10715.00
685.9680, 10595.00
687.1260, 10438.00
688.2840, 10295.00
689.4420, 10164.04
690.5990, 9949.000
691.7560, 9898.000
692.9140, 9757.801
694.0710, 9632.000
695.2270, 9596.000
696.3840, 9560.000
697.5410, 9456.000
698.6970, 9389.000
699.8530, 9365.000
701.0090, 9365.000
702.1650, 9283.000
703.3210, 9312.000
704.4760, 9267.000
705.6320, 9204.000
706.7870, 9198.000
707.9420, 9141.000
709.0970, 9130.000
710.2520, 9131.000
711.4060, 9112.000
712.5610, 9044.000
713.7150, 9066.000
714.8690, 8993.000
716.0230, 8978.637
717.1770, 9058.000
718.3310, 8936.000
719.4840, 8904.000
720.6380, 8894.000
721.7910, 8948.000
722.9440, 9074.000
724.0970, 8841.000
725.2490, 8857.000
726.4020, 8990.000
727.5540, 8834.000
728.7070, 8928.000
729.8590, 8900.000
731.0110, 9028.000
732.1620, 8882.000
733.3140, 8909.000
734.4650, 9073.000
735.6170, 8842.000
736.7680, 8915.000
737.9190, 8779.000
739.0700, 8978.000
740.2200, 8919.000
741.3710, 8990.000
742.5210, 8929.000
743.6710, 8965.000
744.8210, 8971.000
745.9710, 8857.000
747.1210, 8937.000
748.2700, 8986.000
749.4200, 9100.000
750.5690, 9125.000
751.7180, 9148.000
752.8670, 9182.000
754.0160, 9286.000
755.1640, 9387.835
756.3130, 9503.384
757.4610, 9633.000
758.6090, 9761.000
759.7570, 9868.288
760.9050, 9965.381
762.0530, 10047.63
763.2000, 10118.00
764.3470, 10170.55
765.4940, 10207.00
766.6410, 10236.00
767.7880, 10213.00
768.9350, 10281.00
770.0810, 9927.000
771.2280, 9877.000
772.3740, 9912.000
773.5200, 9718.000
774.6660, 9738.000
775.8120, 9599.000
776.9570, 9724.000
778.1030, 9779.000
779.2480, 9807.000
780.3930, 9829.000
781.5380, 10162.00
782.6830, 10239.00
783.8270, 10639.00
784.9720, 10743.00
786.1160, 11151.00
787.2600, 11424.00
788.4040, 11771.00
789.5480, 11909.00
790.6910, 11824.00
791.8350, 11840.00
792.9780, 11788.00
794.1210, 11482.00
795.2640, 11175.00
796.4070, 10661.00
797.5500, 10551.00
798.6920, 10164.00
799.8350, 9935.000
800.9770, 9992.000
802.1190, 9751.000
803.2610, 9713.000
804.4030, 9677.000
805.5440, 9552.000
806.6850, 9506.000
807.8270, 9518.000
808.9680, 9471.000
810.1090, 9546.000
811.2490, 9411.000
812.3900, 9474.000
813.5300, 9465.419
814.6710, 9411.000
815.8110, 9509.000
816.9510, 9516.000
818.0910, 9585.000
819.2300, 9609.000
820.3700, 9658.000
821.5090, 9636.000
822.6480, 9801.000
823.7870, 9851.000
824.9260, 9836.000
826.0640, 9810.000
827.2030, 9873.000
828.3410, 9898.000
829.4790, 9935.699
830.6170, 9950.000
831.7550, 10016.00
832.8930, 10143.00
834.0310, 10082.99
835.1680, 10196.80
836.3050, 10255.71
837.4420, 10262.69
838.5790, 10062.14
839.7160, 10129.55
840.8520, 10127.00
841.9890, 10158.00
843.1250, 10059.00
844.2610, 10138.00
845.3970, 10162.00
846.5330, 10142.00
847.6680, 10203.00
848.8040, 10103.00
849.9390, 9977.000
851.0740, 9862.000
852.2090, 9964.000
853.3440, 9844.000
854.4780, 9889.000
855.6130, 9908.000
856.7470, 9947.000
857.8810, 10016.00
859.0150, 9947.000
860.1490, 9977.000
861.2830, 9902.000
862.4160, 9840.000
863.5490, 9851.000
864.6830, 9856.000
865.8160, 9834.283
866.9480, 9827.689
868.0810, 9806.000
869.2140, 9763.000
870.3460, 9701.000
871.4780, 9612.000
872.6100, 9674.000
873.7420, 9625.000
874.8740, 9753.000
876.0050, 9788.000
877.1370, 9592.000
878.2680, 9680.000
879.3990, 9648.000
880.5300, 9585.000
881.6600, 9617.000
882.7910, 9632.000
883.9210, 9513.000
885.0520, 9697.000
886.1820, 9594.000
887.3120, 9635.000
888.4410, 9621.000
889.5710, 9706.000
890.7000, 9646.000
891.8300, 9746.000
892.9590, 9795.000
894.0880, 9791.000
895.2160, 9858.000
896.3450, 9731.000
897.4730, 9775.000
898.6020, 9896.000
899.7300, 9726.000
900.8580, 9806.000
901.9860, 9774.000
903.1130, 9845.000
904.2410, 9828.000
905.3680, 9753.000
906.4950, 9815.000
907.6220, 9749.000
908.7490, 9813.000
909.8760, 9944.000
911.0020, 9767.000
912.1280, 9792.000
913.2550, 9731.000
914.3810, 9838.000
915.5060, 9772.000
916.6320, 9856.000
917.7580, 9831.000
918.8830, 9671.000
920.0080, 9833.000
921.1330, 9718.000
922.2580, 9817.000
923.3830, 9838.000
924.5070, 9960.000
925.6310, 9876.000
926.7560, 9956.000
927.8800, 9867.000
929.0040, 9814.000
930.1270, 9835.000
931.2510, 9794.727
932.3740, 9802.000
933.4970, 9802.000
934.6200, 9920.000
935.7430, 9946.000
936.8660, 10029.00
937.9890, 9916.000
939.1110, 9913.000
940.2330, 9894.000
941.3550, 9957.000
942.4770, 10109.00
943.5990, 9938.000
944.7200, 10156.00
945.8420, 10037.00
946.9630, 10261.00
948.0840, 10254.00
949.2050, 10225.00
950.3260, 10167.00
951.4460, 10220.00
952.5670, 10421.00
953.6870, 10395.00
954.8070, 10525.00
955.9270, 10316.00
957.0470, 10289.00
958.1660, 10226.00
959.2860, 10283.00
960.4050, 10496.00
961.5240, 10380.00
962.6430, 10414.00
963.7620, 10556.00
964.8810, 10518.00
965.9990, 10553.00
967.1170, 10764.00
968.2350, 10799.00
969.3530, 10837.00
970.4710, 10928.00
971.5890, 10907.00
972.7060, 10697.00
973.8240, 10820.00
974.9410, 10715.00
976.0580, 10752.00
977.1740, 10566.00
978.2910, 10524.00
979.4080, 10737.00
980.5240, 10688.00
981.6400, 10563.00
982.7560, 10748.00
983.8720, 10759.00
984.9870, 10715.00
986.1030, 10692.00
987.2180, 10765.00
988.3330, 10987.00
989.4480, 10930.19
990.5630, 11102.00
991.6780, 10994.00
992.7920, 11008.00
993.9070, 11117.00
995.0210, 11340.00
996.1350, 11325.00
997.2490, 11580.00
998.3620, 11868.00
999.4760, 12045.00
1000.589, 12364.00
1001.702, 12814.00
1002.815, 13275.00
1003.928, 13530.00
1005.041, 13753.00
1006.153, 13940.00
1007.266, 13935.79
1008.378, 13854.20
1009.490, 13687.00
1010.602, 13360.00
1011.713, 12924.00
1012.825, 12448.00
1013.936, 12308.00
1015.047, 12154.00
1016.158, 12154.30
1017.269, 11907.51
1018.380, 11793.86
1019.490, 11594.00
1020.601, 11512.00
1021.711, 11577.00
1022.821, 11572.00
1023.931, 11659.30
1025.040, 11936.00
1026.150, 11946.00
1027.259, 12114.00
1028.368, 12391.00
1029.477, 12528.00
1030.586, 12965.00
1031.695, 13224.00
1032.803, 13747.00
1033.912, 13982.00
1035.020, 14547.00
1036.128, 14958.00
1037.236, 15514.00
1038.343, 15941.00
1039.451, 16420.00
1040.558, 17120.00
1041.665, 18083.00
1042.772, 19140.00
1043.879, 20502.00
1044.986, 22131.00
1046.093, 23984.00
1047.199, 26657.00
1048.305, 29868.00
1049.411, 33724.00
1050.517, 38759.00
1051.623, 45141.00
1052.728, 52676.00
1053.833, 61514.00
1054.939, 72121.00
1056.044, 84072.00
1057.148, 96231.00
1058.253, 106297.0
1059.358, 112394.0
1060.462, 113133.0
1061.566, 107319.0
1062.670, 97555.00
1063.774, 85881.00
1064.878, 74343.00
1065.981, 63678.00
1067.085, 55029.00
1068.188, 47464.00
1069.291, 41799.00
1070.394, 36972.00
1071.496, 32685.00
1072.599, 29904.00
1073.701, 27341.00
1074.803, 25062.00
1075.905, 23312.00
1077.007, 21996.00
1078.109, 20996.00
1079.210, 20159.00
1080.312, 19655.00
1081.413, 18977.00
1082.514, 18723.00
1083.615, 18562.00
1084.715, 18438.00
1085.816, 18620.00
1086.916, 18594.00
1088.016, 18568.00
1089.116, 18253.43
1090.216, 17941.00
1091.316, 17286.00
1092.415, 16626.00
1093.515, 15851.00
1094.614, 15230.00
1095.713, 14767.00
1096.812, 14273.00
1097.910, 13881.00
1099.009, 13573.00
1100.107, 13349.00
1101.205, 13260.00
1102.303, 13018.00
1103.401, 12836.00
1104.499, 12749.00
1105.596, 12631.00
1106.693, 12575.00
1107.791, 12579.00
1108.888, 12525.00
1109.984, 12406.00
1111.081, 12593.00
1112.177, 12477.00
1113.274, 12416.00
1114.370, 12473.00
1115.466, 12406.00
1116.562, 12332.00
1117.657, 12221.00
1118.753, 11950.00
1119.848, 12030.00
1120.943, 11594.00
1122.038, 11629.00
1123.133, 11537.00
1124.228, 11613.00
1125.322, 11598.00
1126.416, 11482.00
1127.510, 11398.00
1128.604, 11479.00
1129.698, 11313.00
1130.792, 11261.00
1131.885, 11271.00
1132.978, 11326.00
1134.071, 11166.00
1135.164, 11095.00
1136.257, 11208.00
1137.350, 11091.00
1138.442, 11198.00
1139.534, 11078.00
1140.627, 11098.00
1141.718, 11029.00
1142.810, 10991.00
1143.902, 11050.00
1144.993, 11099.00
1146.084, 11039.00
1147.176, 11079.00
1148.266, 11041.00
1149.357, 11042.00
1150.448, 10907.00
1151.538, 10952.00
1152.628, 10959.00
1153.718, 10989.35
1154.808, 11062.20
1155.898, 11055.00
1156.988, 11158.00
1158.077, 11015.00
1159.166, 10919.00
1160.255, 11085.00
1161.344, 11096.00
1162.433, 10922.00
1163.521, 10816.00
1164.610, 10828.01
1165.698, 10807.00
1166.786, 10859.00
1167.874, 11001.00
1168.961, 11099.00
1170.049, 11149.00
1171.136, 11127.00
1172.224, 11128.00
1173.311, 11125.91
1174.397, 10940.00
1175.484, 11048.00
1176.571, 11060.00
1177.657, 10921.00
1178.743, 10981.00
1179.829, 11013.00
1180.915, 10969.00
1182.001, 11005.69
1183.086, 10988.00
1184.171, 10967.00
1185.256, 11032.00
1186.341, 10936.00
1187.426, 10900.00
1188.511, 10888.00
1189.595, 10977.00
1190.680, 11052.00
1191.764, 10925.00
1192.848, 10912.00
1193.932, 10860.00
1195.015, 10889.00
1196.099, 10996.00
1197.182, 10801.00
1198.265, 10931.00
1199.348, 10989.00
1200.431, 10801.00
1201.513, 11126.00
1202.596, 11309.00
1203.678, 10874.00
1204.760, 10927.00
1205.842, 11000.00
1206.924, 10922.00
1208.005, 10953.00
1209.087, 10921.00
1210.168, 10857.00
1211.249, 11044.00
1212.330, 10874.00
1213.411, 11004.00
1214.491, 10949.00
1215.572, 10885.00
1216.652, 10870.00
1217.732, 10970.00
1218.812, 10967.00
1219.891, 11113.00
1220.971, 10928.00
1222.050, 10868.00
1223.129, 11084.00
1224.208, 10949.00
1225.287, 11015.00
1226.366, 10916.00
1227.444, 10889.00
1228.523, 10973.00
1229.601, 10977.00
1230.679, 10916.00
1231.757, 11079.00
1232.834, 10917.00
1233.912, 11048.00
1234.989, 11078.00
1236.066, 11083.00
1237.143, 11105.00
1238.220, 11124.00
1239.297, 11130.00
1240.373, 11123.70
1241.449, 11021.00
1242.526, 11089.00
1243.601, 11063.00
1244.677, 11036.00
1245.753, 11088.00
1246.828, 11146.00
1247.904, 11100.00
1248.979, 10991.00
1250.054, 11158.00
1251.128, 11226.00
1252.203, 11055.00
1253.277, 11064.00
1254.351, 11134.00
1255.426, 11113.00
1256.499, 11114.00
1257.573, 11158.00
1258.647, 11233.00
1259.720, 11204.00
1260.793, 11035.00
1261.866, 10982.00
1262.939, 11153.00
1264.012, 11297.00
1265.084, 11236.00
1266.157, 11255.00
1267.229, 11358.00
1268.301, 11346.00
1269.373, 11172.00
1270.444, 11215.00
1271.516, 11235.00
1272.587, 11153.00
1273.658, 11187.00
1274.729, 11269.00
1275.800, 11227.00
1276.871, 11154.00
1277.941, 11165.00
1279.011, 11118.00
1280.082, 11338.00
1281.151, 11265.00
1282.221, 11315.00
1283.291, 11530.00
1284.360, 11345.41
1285.430, 11269.00
1286.499, 11184.00
1287.568, 11187.00
1288.636, 11251.00
1289.705, 11228.00
1290.773, 11242.00
1291.841, 11189.00
1292.909, 11186.00
1293.977, 11258.00
1295.045, 11252.95
1296.113, 11253.00
1297.180, 11301.00
1298.247, 11229.00
1299.314, 11179.00
1300.381, 11222.00
1301.448, 11221.00
1302.514, 11283.00
1303.580, 11187.00
1304.647, 11152.00
1305.713, 11312.00
1306.778, 11274.00
1307.844, 11144.00
1308.910, 11284.00
1309.975, 11089.00
1311.040, 11328.00
1312.105, 11507.00
1313.170, 11275.00
1314.234, 11235.00
1315.299, 11416.00
1316.363, 11347.00
1317.427, 11283.00
1318.491, 11344.00
1319.555, 11439.00
1320.618, 11189.00
1321.682, 11346.00
1322.745, 11259.00
1323.808, 11492.00
1324.871, 11377.00
1325.933, 11228.00
1326.996, 11213.00
1328.058, 11349.00
1329.121, 11283.00
1330.183, 11283.00
1331.244, 11208.00
1332.306, 11213.00
1333.368, 11236.00
1334.429, 11283.00
1335.490, 11234.00
1336.551, 11310.00
1337.612, 11235.00
1338.672, 11281.00
1339.733, 11339.00
1340.793, 11186.00
1341.853, 11222.00
1342.913, 11334.00
1343.973, 11294.00
1345.033, 11337.00
1346.092, 11176.00
1347.151, 11295.00
1348.210, 11245.00
1349.269, 11328.00
1350.328, 11177.00
1351.386, 11306.00
1352.445, 11291.00
1353.503, 11305.00
1354.561, 11237.00
1355.619, 11317.00
1356.677, 11327.00
1357.734, 11274.00
1358.791, 11251.00
1359.849, 11371.00
1360.906, 11405.00
1361.962, 11356.00
1363.019, 11303.00
1364.075, 11344.00
1365.132, 11440.00
1366.188, 11256.00
1367.244, 11444.00
1368.300, 11394.00
1369.355, 11425.00
1370.411, 11476.00
1371.466, 11394.00
1372.521, 11344.00
1373.576, 11350.00
1374.631, 11521.00
1375.685, 11338.00
1376.740, 11602.00
1377.794, 11451.00
1378.848, 11474.00
1379.902, 11532.00
1380.955, 11461.00
1382.009, 11471.44
1383.062, 11554.00
1384.115, 11435.00
1385.168, 11459.00
1386.221, 11503.00
1387.274, 11386.00
1388.326, 11462.00
1389.379, 11537.00
1390.431, 11477.00
1391.483, 11578.00
1392.534, 11428.00
1393.586, 11337.00
1394.637, 11494.00
1395.689, 11572.00
1396.740, 11546.00
1397.791, 11431.00
1398.841, 11580.00
1399.892, 11538.00
1400.942, 11560.00
1401.993, 11551.00
1403.043, 11489.00
1404.092, 11519.00
1405.142, 11572.00
1406.192, 11642.00
1407.241, 11567.00
1408.290, 11598.00
1409.339, 11614.49
1410.388, 11531.00
1411.437, 11654.00
1412.485, 11624.00
1413.533, 11643.00
1414.581, 11723.00
1415.629, 11504.00
1416.677, 11777.00
1417.725, 11634.00
1418.772, 11828.00
1419.819, 11612.00
1420.867, 11708.00
1421.913, 11678.00
1422.960, 11654.00
1424.007, 11645.00
1425.053, 11676.60
1426.099, 11704.00
1427.145, 11791.00
1428.191, 11786.00
1429.237, 11886.00
1430.282, 11720.00
1431.328, 11904.00
1432.373, 11877.00
1433.418, 11710.00
1434.462, 11927.00
1435.507, 11851.00
1436.552, 11774.00
1437.596, 12001.00
1438.640, 11872.00
1439.684, 12123.00
1440.728, 11930.00
1441.771, 12084.00
1442.815, 12164.00
1443.858, 12106.00
1444.901, 11985.00
1445.944, 12156.00
1446.986, 12110.00
1448.029, 12087.00
1449.071, 12206.00
1450.113, 12086.00
1451.155, 12343.00
1452.197, 12321.00
1453.239, 12060.00
1454.280, 12241.00
1455.322, 12360.00
1456.363, 12220.00
1457.404, 12289.00
1458.444, 12418.00
1459.485, 12189.00
1460.525, 12403.00
1461.566, 12238.00
1462.606, 12181.00
1463.646, 12305.00
1464.685, 12339.00
1465.725, 12197.00
1466.764, 12202.00
1467.803, 12208.00
1468.842, 12202.00
1469.881, 12238.34
1470.920, 12230.00
1471.958, 12332.00
1472.997, 12322.00
1474.035, 12411.00
1475.073, 12293.00
1476.111, 12373.00
1477.148, 12156.00
1478.186, 12203.00
1479.223, 12335.00
1480.260, 12363.00
1481.297, 12441.00
1482.334, 12320.00
1483.370, 12324.00
1484.407, 12269.00
1485.443, 12420.00
1486.479, 12294.00
1487.515, 12300.00
1488.550, 12292.00
1489.586, 12183.00
1490.621, 12407.00
1491.656, 12352.00
1492.691, 12411.00
1493.726, 12286.00
1494.761, 12467.00
1495.795, 12478.00
1496.829, 12199.00
1497.863, 12256.00
1498.897, 12377.00
1499.931, 12368.00
1500.965, 12388.00
1501.998, 12473.00
1503.031, 12494.00
1504.064, 12394.00
1505.097, 12455.00
1506.130, 12421.00
1507.162, 12527.00
1508.195, 12351.00
1509.227, 12537.00
1510.259, 12451.00
1511.291, 12653.00
1512.322, 12780.00
1513.354, 12682.00
1514.385, 12589.00
1515.416, 12621.00
1516.447, 12562.00
1517.478, 12780.00
1518.508, 12583.00
1519.539, 12713.00
1520.569, 12809.00
1521.599, 12694.00
1522.629, 12610.00
1523.658, 12757.00
1524.688, 12695.00
1525.717, 12797.00
1526.746, 12815.00
1527.775, 12788.00
1528.804, 12715.00
1529.833, 12801.00
1530.861, 12828.00
1531.890, 12640.00
1532.918, 12755.00
1533.946, 12633.00
1534.973, 12838.00
1536.001, 12871.00
1537.028, 12768.00
1538.055, 12765.00
1539.082, 12894.00
1540.109, 12757.00
1541.136, 12812.00
1542.163, 12789.00
1543.189, 12878.00
1544.215, 12681.00
1545.241, 12776.00
1546.267, 12817.00
1547.292, 12731.00
1548.318, 12963.00
1549.343, 12839.00
1550.368, 12873.00
1551.393, 12823.00
1552.418, 12824.00
1553.442, 12827.00
1554.467, 12835.06
1555.491, 12935.00
1556.515, 12869.00
1557.539, 12833.00
1558.562, 12803.00
1559.586, 12807.29
1560.609, 12786.00
1561.632, 12840.00
1562.655, 12784.00
1563.678, 12771.27
1564.701, 12906.00
1565.723, 12802.00
1566.745, 12891.00
1567.768, 12918.00
1568.789, 12822.00
1569.811, 12888.00
1570.833, 12957.00
1571.854, 12892.00
1572.875, 12916.00
1573.896, 12929.00
1574.917, 12922.00
1575.938, 12904.00
1576.958, 13008.00
##END=



