##NAMES=Fluorite
##RRUFFID=R050046
##IDEAL CHEMISTRY=CaF_2_
##LOCALITY=Shangbao, Lei Yang, Hunan Province, China
##OWNER=RRUFF
##SOURCE=Eugene Schlepp
##DESCRIPTION=Pale purple crystal
##STATUS=The identification of this mineral has been confirmed by X-ray diffraction and chemical analysis
##URL=rruff.info/R050046
##MEASURED CHEMISTRY=Ca_1.000_ F_2.000_
##PIN_ID=L01404
##ORIENTATION=Laser parallel to c* (0 0 1). Fiducial mark perpendicular to laser is parallel to b [0 1 0]
176.6930, 13362.00
177.9200, 13408.45
179.1460, 13408.19
180.3720, 13592.00
181.5980, 13453.00
182.8230, 13445.00
184.0490, 13514.00
185.2740, 13525.00
186.5000, 13675.00
187.7250, 13569.00
188.9500, 13762.00
190.1740, 13712.00
191.3990, 13883.00
192.6230, 14012.00
193.8480, 14114.00
195.0720, 14148.00
196.2960, 14126.00
197.5200, 14155.00
198.7430, 14362.00
199.9670, 14324.00
201.1900, 14438.00
202.4130, 14380.00
203.6360, 14455.00
204.8590, 14425.00
206.0820, 14329.00
207.3050, 14300.00
208.5270, 14370.00
209.7490, 14501.00
210.9710, 14444.00
212.1930, 14499.00
213.4150, 14395.00
214.6370, 14685.00
215.8580, 14721.00
217.0790, 14654.00
218.3010, 14620.00
219.5210, 14725.00
220.7420, 14694.00
221.9630, 14777.00
223.1830, 14753.00
224.4040, 14776.00
225.6240, 14949.00
226.8440, 14975.00
228.0640, 14939.00
229.2840, 14890.00
230.5030, 14811.00
231.7230, 14940.00
232.9420, 14990.00
234.1610, 14967.00
235.3800, 14908.00
236.5990, 14984.00
237.8170, 15089.00
239.0360, 15111.00
240.2540, 15197.00
241.4720, 15138.00
242.6900, 15262.00
243.9080, 15346.00
245.1250, 15224.00
246.3430, 15280.00
247.5600, 15412.00
248.7770, 15439.00
249.9940, 15365.33
251.2110, 15532.57
252.4280, 15632.10
253.6450, 15667.56
254.8610, 15447.04
256.0770, 15557.05
257.2930, 15534.60
258.5090, 15506.72
259.7250, 15663.25
260.9400, 15479.96
262.1560, 15633.56
263.3710, 15652.68
264.5860, 15733.34
265.8010, 15680.73
267.0160, 15669.28
268.2310, 15791.15
269.4450, 15839.19
270.6600, 15771.23
271.8740, 15855.80
273.0880, 15667.84
274.3020, 15719.02
275.5150, 15873.38
276.7290, 15669.00
277.9420, 15913.00
279.1550, 15816.00
280.3680, 15754.00
281.5810, 15893.00
282.7940, 15958.00
284.0070, 16102.00
285.2190, 16149.00
286.4310, 16169.00
287.6430, 16213.00
288.8550, 16227.00
290.0670, 16336.61
291.2790, 16472.00
292.4900, 16634.00
293.7020, 16740.00
294.9130, 16896.71
296.1240, 17006.14
297.3350, 17196.00
298.5450, 17258.00
299.7560, 17424.00
300.9660, 17623.00
302.1760, 17980.00
303.3860, 18180.00
304.5960, 18553.00
305.8060, 18882.00
307.0150, 19698.00
308.2250, 20562.00
309.4340, 21972.00
310.6430, 23657.00
311.8520, 25255.00
313.0610, 27103.00
314.2700, 29263.00
315.4780, 31276.00
316.6860, 33524.00
317.8940, 36261.00
319.1020, 38235.00
320.3100, 39553.00
321.5180, 39697.00
322.7250, 38005.00
323.9330, 35419.00
325.1400, 32739.00
326.3470, 29624.00
327.5540, 27026.00
328.7600, 25131.00
329.9670, 23541.00
331.1730, 22325.00
332.3800, 21516.00
333.5860, 20825.00
334.7920, 20180.00
335.9970, 19783.00
337.2030, 19593.00
338.4080, 19379.00
339.6140, 19299.00
340.8190, 18913.00
342.0240, 18856.00
343.2290, 18737.00
344.4330, 18633.00
345.6380, 18711.00
346.8420, 18446.00
348.0460, 18744.00
349.2500, 18462.00
350.4540, 18484.00
351.6580, 18564.00
352.8610, 18504.00
354.0650, 18514.00
355.2680, 18422.00
356.4710, 18425.00
357.6740, 18443.00
358.8760, 18487.00
360.0790, 18510.00
361.2810, 18471.00
362.4840, 18469.00
363.6860, 18491.00
364.8880, 18261.00
366.0900, 18615.00
367.2910, 18241.00
368.4930, 18451.00
369.6940, 18509.00
370.8950, 18350.00
372.0960, 18488.00
373.2970, 18323.00
374.4980, 18386.00
375.6980, 18565.00
376.8980, 18434.00
378.0990, 18274.00
379.2990, 18401.00
380.4980, 18433.00
381.6980, 18358.00
382.8980, 18518.00
384.0970, 18614.00
385.2960, 18434.00
386.4950, 18540.00
387.6940, 18473.00
388.8930, 18454.00
390.0920, 18477.00
391.2900, 18462.61
392.4880, 18556.38
393.6860, 18515.00
394.8840, 18670.00
396.0820, 18744.00
397.2800, 18601.00
398.4770, 18607.00
399.6750, 18490.00
400.8720, 18567.00
402.0690, 18589.00
403.2660, 18608.00
404.4620, 18408.00
405.6590, 18729.00
406.8550, 18538.00
408.0510, 18681.00
409.2480, 18653.00
410.4430, 18673.00
411.6390, 18740.89
412.8350, 18743.00
414.0300, 18764.00
415.2250, 18706.00
416.4200, 18584.00
417.6150, 18726.00
418.8100, 18786.00
420.0050, 18704.00
421.1990, 18827.00
422.3940, 18858.00
423.5880, 18693.00
424.7820, 18889.00
425.9750, 19078.00
427.1690, 18967.00
428.3630, 18975.00
429.5560, 18973.00
430.7490, 18997.22
431.9420, 19055.40
433.1350, 19137.00
434.3280, 19204.00
435.5200, 19307.00
436.7130, 19393.00
437.9050, 19422.25
439.0970, 19473.10
440.2890, 19421.00
441.4810, 19519.00
442.6720, 19412.00
443.8640, 19438.00
445.0550, 19619.00
446.2460, 19552.00
447.4370, 19548.00
448.6280, 19803.00
449.8180, 19693.00
451.0090, 19570.00
452.1990, 19463.00
453.3890, 19485.69
454.5790, 19503.00
455.7690, 19638.00
456.9590, 19701.00
458.1480, 19738.84
459.3380, 19705.00
460.5270, 19827.00
461.7160, 19753.00
462.9050, 19813.00
464.0940, 19811.00
465.2820, 19840.00
466.4700, 19844.00
467.6590, 19818.00
468.8470, 19905.00
470.0350, 19809.00
471.2220, 19851.24
472.4100, 19834.00
473.5970, 19931.00
474.7850, 19965.00
475.9720, 19997.16
477.1590, 20077.96
478.3460, 20083.00
479.5320, 20194.00
480.7190, 20261.00
481.9050, 20289.00
483.0910, 20441.00
484.2770, 20431.00
485.4630, 20600.00
486.6490, 20414.00
487.8340, 20786.00
489.0200, 20886.00
490.2050, 20965.00
491.3900, 20844.00
492.5750, 20751.00
493.7600, 20794.00
494.9440, 20651.00
496.1290, 20628.00
497.3130, 20698.00
498.4970, 20676.00
499.6810, 20611.00
500.8650, 20514.00
502.0480, 20553.00
503.2320, 20440.00
504.4150, 20567.00
505.5980, 20569.00
506.7810, 20668.00
507.9640, 20529.00
509.1460, 20425.00
510.3290, 20525.00
511.5110, 20370.00
512.6930, 20379.00
513.8750, 20591.00
515.0570, 20569.00
516.2390, 20409.00
517.4210, 20777.00
518.6020, 20522.00
519.7830, 20433.00
520.9640, 20508.00
522.1450, 20413.00
523.3260, 20716.00
524.5060, 20507.00
525.6870, 20682.00
526.8670, 20705.00
528.0470, 20576.00
529.2270, 20705.00
530.4070, 20803.00
531.5870, 20542.00
532.7660, 20951.00
533.9450, 20967.00
535.1240, 20810.00
536.3030, 20733.00
537.4820, 20861.00
538.6610, 20796.00
539.8390, 20735.00
541.0180, 21050.00
542.1960, 21077.00
543.3740, 20966.00
544.5520, 20997.00
545.7290, 20958.00
546.9070, 20983.01
548.0840, 21045.00
549.2620, 21106.00
550.4390, 21173.00
551.6160, 21304.00
552.7920, 21302.00
553.9690, 21153.00
555.1450, 21243.00
556.3220, 21271.00
557.4980, 21223.00
558.6740, 21409.00
559.8490, 21372.00
561.0250, 21422.00
562.2000, 21410.00
563.3760, 21302.00
564.5510, 21406.78
565.7260, 21408.00
566.9010, 21554.00
568.0750, 21683.00
569.2500, 21806.00
570.4240, 21717.00
571.5980, 21755.00
572.7720, 21548.00
573.9460, 21674.00
575.1200, 21728.00
576.2930, 21729.00
577.4670, 21789.92
578.6400, 21792.00
579.8130, 21796.00
580.9860, 21801.00
582.1590, 21738.00
583.3310, 21990.00
584.5040, 21864.00
585.6760, 21805.00
586.8480, 22035.00
588.0200, 22034.00
589.1920, 22166.00
590.3630, 22053.00
591.5350, 22002.00
592.7060, 22070.00
593.8770, 21935.00
595.0480, 22309.00
596.2190, 22039.00
597.3900, 22250.00
598.5600, 22067.00
599.7310, 22190.00
600.9010, 22064.00
602.0710, 22084.00
603.2410, 22145.38
604.4100, 22118.00
605.5800, 22279.00
606.7490, 22352.00
607.9190, 22466.00
609.0880, 22613.00
610.2570, 22630.00
611.4250, 22648.00
612.5940, 22634.00
613.7620, 22771.00
614.9310, 22781.00
616.0990, 22747.00
617.2670, 23134.00
618.4340, 23064.00
619.6020, 22812.00
620.7690, 23126.00
621.9370, 22887.00
623.1040, 23109.00
624.2710, 23043.00
625.4380, 22981.00
626.6040, 23000.00
627.7710, 23171.00
628.9370, 23295.00
630.1030, 23153.00
631.2690, 23232.00
632.4350, 23213.00
633.6010, 23154.00
634.7660, 23245.00
635.9320, 23239.00
637.0970, 23167.00
638.2620, 23150.00
639.4270, 23202.00
640.5920, 23169.00
641.7560, 23420.00
642.9210, 23092.00
644.0850, 23555.00
645.2490, 23417.00
646.4130, 23391.00
647.5770, 23498.00
648.7400, 23614.00
649.9040, 23231.00
651.0670, 23495.00
652.2300, 23309.00
653.3930, 23458.00
654.5560, 23701.00
655.7190, 23438.00
656.8810, 23472.00
658.0440, 23344.00
659.2060, 23525.00
660.3680, 23597.00
661.5300, 23461.00
662.6910, 23858.00
663.8530, 23866.00
665.0140, 23905.00
666.1750, 23928.00
667.3360, 23949.00
668.4970, 23988.00
669.6580, 24070.00
670.8190, 24076.00
671.9790, 23983.00
673.1390, 24169.00
674.2990, 24287.00
675.4590, 24169.00
676.6190, 24211.00
677.7790, 24234.00
678.9380, 24226.00
680.0970, 24412.00
681.2570, 24613.00
682.4160, 24876.00
683.5740, 24947.03
684.7330, 24777.00
685.8920, 25038.00
687.0500, 25111.00
688.2080, 24997.00
689.3660, 25089.00
690.5240, 25474.00
691.6820, 25272.00
692.8390, 25443.00
693.9960, 25437.00
695.1540, 25428.00
696.3110, 25302.00
697.4680, 25733.00
698.6240, 25486.00
699.7810, 25738.00
700.9370, 25387.00
702.0940, 25921.00
703.2500, 25997.00
704.4060, 25840.00
705.5610, 25932.00
706.7170, 26268.00
707.8720, 26054.00
709.0280, 26239.00
710.1830, 26023.00
711.3380, 26082.00
712.4920, 26063.00
713.6470, 26078.00
714.8020, 26084.00
715.9560, 25817.00
717.1100, 25932.00
718.2640, 25784.00
719.4180, 25534.00
720.5720, 25625.00
721.7250, 25464.00
722.8780, 25721.00
724.0320, 25578.00
725.1850, 25640.00
726.3380, 25538.00
727.4900, 25607.00
728.6430, 25490.00
729.7950, 25503.00
730.9470, 25619.00
732.1000, 25737.00
733.2510, 25566.00
734.4030, 25758.00
735.5550, 25544.00
736.7060, 25711.00
737.8570, 25576.00
739.0090, 25424.00
740.1600, 25752.00
741.3100, 25800.00
742.4610, 25602.00
743.6110, 25624.00
744.7620, 25691.00
745.9120, 25747.00
747.0620, 25784.00
748.2120, 25881.00
749.3610, 25735.00
750.5110, 25769.00
751.6600, 25772.00
752.8090, 25797.00
753.9580, 25945.00
755.1070, 26062.00
756.2560, 25982.00
757.4050, 26016.00
758.5530, 25884.00
759.7010, 25940.00
760.8490, 25937.00
761.9970, 25941.71
763.1450, 26005.00
764.2920, 26056.00
765.4400, 25982.00
766.5870, 26107.00
767.7340, 26208.00
768.8810, 26183.00
770.0280, 26061.00
771.1740, 26180.00
772.3210, 26043.00
773.4670, 26146.00
774.6130, 26395.00
775.7590, 26476.00
776.9050, 26603.82
778.0510, 26597.00
779.1960, 26725.00
780.3420, 26692.00
781.4870, 26577.00
782.6320, 26746.00
783.7770, 26761.00
784.9210, 26740.00
786.0660, 26872.00
787.2100, 26794.00
788.3540, 26952.00
789.4980, 26834.00
790.6420, 27144.00
791.7860, 27306.00
792.9300, 27140.00
794.0730, 27187.00
795.2160, 27158.00
796.3590, 27071.00
797.5020, 27147.79
798.6450, 27367.00
799.7880, 27208.00
800.9300, 27332.00
802.0720, 27312.00
803.2150, 27345.00
804.3560, 27564.00
805.4980, 27469.00
806.6400, 27718.00
807.7810, 27623.00
808.9230, 27651.00
810.0640, 27887.00
811.2050, 27659.00
812.3460, 27803.00
813.4860, 27864.00
814.6270, 27854.00
815.7670, 28106.00
816.9070, 27825.00
818.0470, 28261.00
819.1870, 28090.00
820.3270, 27993.00
821.4670, 28203.00
822.6060, 28156.00
823.7450, 28361.00
824.8840, 28195.00
826.0230, 28258.00
827.1620, 28491.00
828.3010, 28762.00
829.4390, 28866.00
830.5770, 28819.00
831.7150, 28983.00
832.8530, 29227.00
833.9910, 29175.00
835.1290, 29441.00
836.2660, 29357.00
837.4030, 29114.00
838.5410, 28792.00
839.6780, 28768.00
840.8140, 28670.00
841.9510, 28600.00
843.0870, 28463.00
844.2240, 28424.00
845.3600, 28525.00
846.4960, 28531.00
847.6320, 28605.00
848.7680, 28604.18
849.9030, 28721.00
851.0380, 28673.00
852.1740, 28478.00
853.3090, 28679.00
854.4440, 28402.00
855.5780, 28399.00
856.7130, 28339.00
857.8470, 28444.00
858.9820, 28524.00
860.1160, 28486.04
861.2500, 28709.00
862.3830, 28493.00
863.5170, 28608.00
864.6500, 28681.00
865.7840, 29068.00
866.9170, 28532.00
868.0500, 28976.00
869.1830, 29101.00
870.3150, 29085.00
871.4480, 29469.00
872.5800, 29709.00
873.7120, 30016.00
874.8440, 30314.00
875.9760, 30874.00
877.1080, 31008.00
878.2390, 31280.00
879.3710, 31524.00
880.5020, 31380.00
881.6330, 31677.00
882.7640, 31386.00
883.8940, 31164.00
885.0250, 30807.00
886.1550, 30564.00
887.2850, 30132.00
888.4160, 29871.00
889.5450, 29739.00
890.6750, 29548.00
891.8050, 29445.00
892.9340, 29539.00
894.0630, 29352.00
895.1930, 29350.00
896.3220, 29250.00
897.4500, 29385.00
898.5790, 29169.00
899.7070, 29207.00
900.8360, 29191.00
901.9640, 29358.00
903.0920, 29795.00
904.2200, 30119.00
905.3470, 30300.00
906.4750, 31121.00
907.6020, 31681.00
908.7290, 32405.00
909.8560, 33354.00
910.9830, 33649.00
912.1100, 34033.00
913.2360, 33767.00
914.3630, 33351.00
915.4890, 33116.00
916.6150, 33180.00
917.7410, 33191.00
918.8670, 33639.00
919.9920, 34755.00
921.1180, 35514.00
922.2430, 36366.00
923.3680, 37027.00
924.4930, 37436.00
925.6180, 37763.00
926.7420, 38539.00
927.8670, 38494.00
928.9910, 38032.00
930.1150, 37335.00
931.2390, 36450.00
932.3630, 35734.00
933.4860, 35178.00
934.6100, 34921.00
935.7330, 34982.00
936.8560, 35036.00
937.9790, 34995.00
939.1020, 34558.00
940.2250, 34413.00
941.3470, 34220.00
942.4700, 34738.00
943.5920, 35171.00
944.7140, 35796.00
945.8360, 36732.00
946.9570, 37936.00
948.0790, 38371.00
949.2000, 38119.00
950.3220, 36500.00
951.4430, 34844.00
952.5640, 33618.00
953.6840, 32954.00
954.8050, 32436.00
955.9250, 32336.00
957.0460, 32102.00
958.1660, 32197.00
959.2860, 32145.00
960.4050, 32012.00
961.5250, 32225.00
962.6440, 32387.00
963.7640, 32330.00
964.8830, 32481.00
966.0020, 32282.00
967.1210, 32266.00
968.2390, 32305.00
969.3580, 32226.00
970.4760, 32262.00
971.5940, 32347.00
972.7120, 32297.00
973.8300, 32242.00
974.9480, 32353.00
976.0650, 32067.00
977.1830, 32009.00
978.3000, 32219.00
979.4170, 32341.00
980.5340, 32223.00
981.6500, 32162.00
982.7670, 32136.00
983.8830, 32120.43
985.0000, 32062.00
986.1160, 32137.00
987.2320, 32290.00
988.3470, 32250.00
989.4630, 32257.00
990.5780, 32289.00
991.6940, 32312.00
992.8090, 32414.00
993.9240, 32362.00
995.0380, 32379.00
996.1530, 32318.00
997.2680, 32755.00
998.3820, 32670.00
999.4960, 32868.00
1000.610, 32774.00
1001.724, 32814.00
1002.837, 33101.00
1003.951, 33267.00
1005.064, 32977.00
1006.177, 33080.00
1007.291, 33177.00
1008.403, 33358.00
1009.516, 33397.00
1010.629, 33423.00
1011.741, 33600.00
1012.853, 33926.00
1013.965, 33949.00
1015.077, 33644.00
1016.189, 34055.00
1017.300, 34069.00
1018.412, 34247.00
1019.523, 34451.00
1020.634, 34641.00
1021.745, 34955.04
1022.856, 35355.00
1023.966, 35573.00
1025.077, 36027.00
1026.187, 36250.00
1027.297, 36937.00
1028.407, 37166.00
1029.517, 37217.00
1030.627, 37114.00
1031.736, 36965.00
1032.845, 36492.00
1033.955, 36427.00
1035.064, 35847.00
1036.172, 35771.00
1037.281, 35947.00
1038.390, 35909.00
1039.498, 35640.00
1040.606, 35585.00
1041.714, 35733.00
1042.822, 35815.00
1043.930, 35561.00
1045.037, 35685.00
1046.145, 35797.00
1047.252, 35746.00
1048.359, 35779.00
1049.466, 35870.00
1050.573, 35774.00
1051.679, 35828.99
1052.786, 35688.00
1053.892, 35843.00
1054.998, 35731.00
1056.104, 35756.00
1057.210, 35751.00
1058.315, 35743.00
1059.421, 35797.00
1060.526, 35703.00
1061.631, 35585.00
1062.736, 35796.00
1063.841, 35716.00
1064.946, 35566.00
1066.050, 35633.00
1067.154, 35806.00
1068.258, 35792.00
1069.362, 35978.00
1070.466, 36221.00
1071.570, 36229.00
1072.674, 36420.00
1073.777, 36874.00
1074.880, 36675.00
1075.983, 36820.00
1077.086, 36778.00
1078.189, 36732.00
1079.291, 36636.00
1080.394, 36408.00
1081.496, 36117.00
1082.598, 35818.00
1083.700, 35941.00
1084.802, 35619.00
1085.903, 35720.29
1087.005, 35790.00
1088.106, 35840.00
1089.207, 35394.00
1090.308, 35347.00
1091.409, 35366.00
1092.509, 35434.00
1093.610, 35582.00
1094.710, 35471.00
1095.810, 35554.35
1096.910, 35456.00
1098.010, 35538.00
1099.110, 35519.00
1100.209, 35448.00
1101.309, 35416.00
1102.408, 35659.00
1103.507, 35596.00
1104.606, 35881.00
1105.704, 35840.00
1106.803, 35960.00
1107.901, 35948.00
1108.999, 36255.00
1110.097, 36240.00
1111.195, 36561.00
1112.293, 36620.00
1113.391, 36962.00
1114.488, 37187.00
1115.585, 37685.45
1116.682, 38251.00
1117.779, 38894.00
1118.876, 39605.00
1119.973, 40371.00
1121.069, 40875.00
1122.165, 41531.00
1123.261, 42027.00
1124.357, 42104.00
1125.453, 42301.00
1126.549, 42309.00
1127.644, 41886.00
1128.739, 41258.00
1129.835, 40642.00
1130.930, 40234.00
1132.024, 39903.00
1133.119, 39808.00
1134.214, 39523.10
1135.308, 39369.12
1136.402, 39176.23
1137.496, 39128.04
1138.590, 38933.00
1139.684, 38948.00
1140.777, 39078.00
1141.871, 38951.00
1142.964, 39001.00
1144.057, 39039.18
1145.150, 39007.14
1146.243, 39105.00
1147.335, 39095.00
1148.428, 39098.00
1149.520, 39277.00
1150.612, 39121.00
1151.704, 39307.00
1152.796, 39020.00
1153.887, 38965.00
1154.979, 39058.00
1156.070, 38565.00
1157.161, 38892.00
1158.252, 38964.00
1159.343, 38801.00
1160.433, 38955.00
1161.524, 39122.00
1162.614, 39099.00
1163.704, 39151.95
1164.794, 38807.00
1165.884, 38988.00
1166.974, 38967.00
1168.063, 38652.00
1169.153, 38727.00
1170.242, 38507.00
1171.331, 38539.00
1172.420, 38374.00
1173.508, 38479.00
1174.597, 38079.00
1175.685, 38066.00
1176.774, 37972.00
1177.862, 38011.00
1178.950, 37905.00
1180.037, 37889.75
1181.125, 37803.11
1182.212, 37822.00
1183.300, 37605.00
1184.387, 37545.00
1185.474, 37448.64
1186.560, 37284.00
1187.647, 37367.00
1188.733, 37379.00
1189.820, 37371.00
1190.906, 37400.58
1191.992, 37057.00
1193.078, 37302.00
1194.163, 37334.00
1195.249, 37073.00
1196.334, 37254.00
1197.419, 37274.00
1198.504, 37189.00
1199.589, 37094.00
1200.674, 37152.00
1201.758, 37118.00
1202.843, 37200.00
1203.927, 37154.00
1205.011, 37308.00
1206.095, 37424.00
1207.179, 37201.00
1208.262, 37180.00
1209.345, 37311.00
1210.429, 37372.00
1211.512, 37537.00
1212.595, 37404.00
1213.677, 37333.00
1214.760, 37576.00
1215.842, 37566.00
1216.925, 37686.00
1218.007, 37709.00
1219.089, 37783.00
1220.171, 38018.00
1221.252, 37950.00
1222.334, 37853.00
1223.415, 38256.00
1224.496, 38142.00
1225.577, 38090.00
1226.658, 38090.00
1227.738, 38115.00
1228.819, 38209.00
1229.899, 38177.92
1230.979, 38194.00
1232.060, 38202.00
1233.139, 38162.00
1234.219, 38241.00
1235.299, 38212.00
1236.378, 38163.00
1237.457, 38229.00
1238.536, 38201.00
1239.615, 38322.00
1240.694, 38397.00
1241.772, 38505.00
1242.851, 38322.00
1243.929, 38491.00
1245.007, 38409.00
1246.085, 38574.00
1247.163, 38766.00
1248.240, 38858.00
1249.318, 39029.00
1250.395, 38938.00
1251.472, 39035.00
1252.549, 39018.00
1253.626, 38920.00
1254.703, 39225.00
1255.779, 39085.00
1256.855, 39292.00
1257.931, 39505.00
1259.007, 39445.00
1260.083, 39629.00
1261.159, 39501.00
1262.234, 39452.00
1263.310, 39618.73
1264.385, 39597.98
1265.460, 39789.00
1266.535, 39835.00
1267.610, 39724.00
1268.684, 39952.00
1269.758, 39851.00
1270.833, 39910.00
1271.907, 39838.00
1272.981, 39843.00
1274.054, 40029.00
1275.128, 40078.00
1276.201, 39969.00
1277.275, 40197.00
1278.348, 40296.00
1279.421, 40223.00
1280.493, 40132.00
1281.566, 40388.00
1282.638, 39998.00
1283.711, 40215.00
1284.783, 40172.00
1285.855, 40210.00
1286.927, 40218.00
1287.998, 40526.00
1289.070, 40587.00
1290.141, 40709.00
1291.212, 40756.00
1292.283, 40985.00
1293.354, 41086.00
1294.425, 40940.00
1295.495, 41000.00
1296.566, 41196.00
1297.636, 41184.00
1298.706, 40965.00
1299.776, 40896.00
1300.845, 41227.00
1301.915, 40776.00
1302.984, 40932.00
1304.054, 40805.00
1305.123, 40760.00
1306.191, 40813.00
1307.260, 40640.00
1308.329, 40684.00
1309.397, 40574.00
1310.465, 40719.00
1311.534, 40814.00
1312.602, 40617.00
1313.669, 40646.00
1314.737, 40949.00
1315.804, 41011.00
1316.872, 40851.00
1317.939, 40871.00
1319.006, 40657.00
1320.073, 40580.00
1321.139, 41007.00
1322.206, 40742.00
1323.272, 40597.00
1324.338, 40730.00
1325.404, 40550.00
1326.470, 40199.00
1327.536, 40405.00
1328.601, 39991.00
1329.667, 40200.00
1330.732, 40002.00
1331.797, 39712.00
1332.862, 40126.00
1333.926, 39676.00
1334.991, 40121.00
1336.055, 39754.00
1337.120, 39494.00
1338.184, 39429.00
1339.248, 39505.00
1340.311, 39473.00
1341.375, 39575.00
1342.438, 39366.00
1343.502, 39611.00
1344.565, 39253.00
1345.628, 39502.00
1346.691, 39302.00
1347.753, 39525.00
1348.816, 39529.00
1349.878, 39572.00
1350.940, 39646.00
1352.002, 39695.00
1353.064, 39972.00
1354.126, 40151.65
1355.187, 40528.00
1356.248, 40742.00
1357.310, 41152.00
1358.371, 41557.00
1359.431, 41999.00
1360.492, 42358.00
1361.553, 42428.00
1362.613, 41958.00
1363.673, 42086.00
1364.733, 41332.00
1365.793, 40771.00
1366.853, 40668.00
1367.912, 40174.00
1368.972, 40205.00
1370.031, 40036.00
1371.090, 39812.00
1372.149, 39831.00
1373.208, 39692.00
1374.267, 39825.00
1375.325, 39650.00
1376.383, 39981.00
1377.441, 40117.00
1378.499, 40229.00
1379.557, 40368.00
1380.615, 40225.00
1381.672, 40613.00
1382.730, 40677.00
1383.787, 40951.00
1384.844, 41240.63
1385.901, 41254.00
1386.957, 41736.00
1388.014, 41486.00
1389.070, 41516.00
1390.126, 41356.00
1391.182, 41455.00
1392.238, 41332.00
1393.294, 41291.00
1394.349, 41322.00
1395.405, 41616.00
1396.460, 41629.00
1397.515, 41470.00
1398.570, 41050.00
1399.625, 40944.00
1400.679, 40404.00
1401.734, 40031.00
1402.788, 39841.00
1403.842, 39692.00
1404.896, 39653.00
1405.950, 39449.00
1407.003, 39478.00
1408.057, 39308.00
1409.110, 39371.00
1410.163, 39192.00
1411.216, 39392.00
1412.269, 39432.00
1413.322, 39201.00
1414.374, 39244.00
1415.427, 39529.00
1416.479, 39257.00
1417.531, 39557.00
1418.583, 39460.00
1419.634, 39780.00
1420.686, 39685.00
1421.737, 39660.00
1422.788, 39676.00
1423.839, 39765.00
1424.890, 40007.00
1425.941, 40120.00
1426.992, 40184.00
1428.042, 40415.00
1429.092, 40267.00
1430.142, 40321.67
1431.192, 40423.00
1432.242, 40163.00
1433.291, 40022.00
1434.341, 39819.00
1435.390, 40475.00
1436.439, 40216.00
1437.488, 40669.00
1438.537, 40601.00
1439.586, 40667.00
1440.634, 40746.00
1441.682, 40975.00
1442.731, 41441.00
1443.779, 41700.00
1444.826, 41878.00
1445.874, 42091.00
1446.922, 41925.00
1447.969, 42315.00
1449.016, 42378.00
1450.063, 42198.00
1451.110, 42379.00
1452.157, 42261.00
1453.203, 42329.00
1454.250, 42348.00
1455.296, 42368.00
1456.342, 42453.00
1457.388, 42724.00
1458.433, 43037.00
1459.479, 42788.00
1460.524, 43233.00
1461.570, 43171.00
1462.615, 43302.00
1463.660, 43383.00
1464.705, 43424.00
1465.749, 43434.00
1466.794, 43146.00
1467.838, 43316.00
1468.882, 43250.00
1469.926, 43345.00
1470.970, 43337.79
1472.013, 43385.00
1473.057, 43326.00
1474.100, 43242.00
1475.143, 43286.00
1476.186, 42939.00
1477.229, 43197.00
1478.272, 43020.00
1479.314, 43311.00
1480.357, 43422.00
1481.399, 43147.00
1482.441, 43461.00
1483.483, 43453.00
1484.525, 43459.00
1485.566, 43247.00
1486.608, 43225.00
1487.649, 43424.00
1488.690, 43334.00
1489.731, 43580.00
1490.771, 43588.58
1491.812, 43532.00
1492.853, 43639.00
1493.893, 43712.00
1494.933, 43637.00
1495.973, 43586.00
1497.013, 43703.00
1498.052, 43825.00
1499.092, 43862.00
1500.131, 43895.00
1501.170, 43954.00
1502.209, 43911.00
1503.248, 44154.00
1504.287, 44036.00
1505.325, 44136.00
1506.363, 44881.00
1507.402, 44647.15
1508.440, 44794.32
1509.478, 44691.00
1510.515, 44681.00
1511.553, 44642.00
1512.590, 44670.00
1513.627, 44693.16
1514.664, 44717.00
1515.701, 44786.00
1516.738, 44779.00
1517.775, 44822.00
1518.811, 44531.00
1519.847, 44499.00
1520.883, 44502.00
1521.919, 44241.00
1522.955, 44200.00
1523.991, 44224.00
1525.026, 44053.00
1526.061, 44201.00
1527.096, 43961.00
1528.131, 44203.00
1529.166, 44134.00
1530.201, 43742.00
1531.235, 44191.00
1532.270, 44112.00
1533.304, 44096.00
1534.338, 43900.00
1535.372, 43899.00
1536.405, 44032.00
1537.439, 44007.00
1538.472, 43891.00
1539.505, 43983.00
1540.538, 43852.00
1541.571, 44173.00
1542.604, 44044.00
1543.637, 44205.00
1544.669, 44033.00
1545.701, 44389.00
1546.733, 44284.00
1547.765, 44232.00
1548.797, 44485.00
1549.829, 44566.00
1550.860, 44471.00
1551.891, 44732.00
1552.922, 44748.00
1553.953, 44650.00
1554.984, 44749.00
1556.015, 44802.00
1557.045, 44738.00
1558.076, 44831.00
1559.106, 44911.00
1560.136, 45221.00
1561.165, 45340.00
1562.195, 45356.00
1563.225, 45438.00
1564.254, 45794.00
1565.283, 45950.00
##END=



