##NAMES=Fluor-buergerite
##RRUFFID=R060132
##IDEAL CHEMISTRY=NaFe^3+^_3_Al_6_(Si_6_O_18_)(BO_3_)_3_O_3_F
##LOCALITY=20 km. south of San Luis Potasi, Mexico
##OWNER=RRUFF
##SOURCE=University of Arizona Mineral Museum
##DESCRIPTION=Brown short prismatic
##STATUS=The identification of this mineral has been confirmed by X-ray diffraction and chemical analysis
##URL=rruff.info/R060132
##MEASURED CHEMISTRY=(Na_0.87_Ca_0.03_[box]_0.10_)(Fe^3+^_0.82_Al_0.12_Mg_0.04_Ti_0.02_)_3_Al_6_(BO_3_)_3_(Si_0.98_Al_0.02_)_6_O_18_(O_0.66_F_0.19_(OH)_0.15_)_4_
##PIN_ID=L00828
##ORIENTATION=Laser parallel to -c* (0 0 -1). Fiducial mark perpendicular to laser is parallel to -a [-1 0 0]
131.6680, 8578.000
132.8980, 8684.000
134.1270, 8665.515
135.3560, 8643.000
136.5850, 8663.000
137.8140, 8829.000
139.0430, 9045.000
140.2710, 9203.000
141.5000, 8934.000
142.7280, 8778.000
143.9560, 8859.000
145.1840, 8912.000
146.4120, 9059.000
147.6390, 9152.000
148.8670, 9258.000
150.0940, 9391.000
151.3210, 9644.000
152.5490, 9905.000
153.7750, 9797.000
155.0020, 9854.000
156.2290, 9862.000
157.4550, 9853.000
158.6810, 9751.000
159.9080, 9892.000
161.1340, 9841.000
162.3590, 9925.000
163.5850, 9990.000
164.8110, 10248.00
166.0360, 10390.00
167.2610, 10407.00
168.4860, 10364.00
169.7110, 10615.00
170.9360, 10576.30
172.1610, 10694.00
173.3850, 10761.00
174.6100, 10682.00
175.8340, 10942.00
177.0580, 10912.00
178.2820, 10962.00
179.5050, 11143.00
180.7290, 11089.00
181.9520, 11030.00
183.1760, 11244.00
184.3990, 11242.00
185.6220, 11427.00
186.8450, 12160.00
188.0670, 12215.00
189.2900, 12345.00
190.5120, 12747.00
191.7340, 11497.00
192.9560, 11685.00
194.1780, 11597.00
195.4000, 11806.00
196.6220, 11786.00
197.8430, 11810.00
199.0640, 12598.00
200.2860, 12053.00
201.5070, 12246.00
202.7270, 12365.00
203.9480, 12062.00
205.1690, 11322.00
206.3890, 10726.00
207.6090, 10365.00
208.8290, 10317.00
210.0490, 10230.00
211.2690, 10326.00
212.4890, 10346.00
213.7080, 10317.00
214.9280, 10202.00
216.1470, 10390.00
217.3660, 10244.21
218.5850, 10318.00
219.8030, 10179.00
221.0220, 10144.00
222.2400, 10258.00
223.4590, 10175.00
224.6770, 10289.00
225.8950, 10319.00
227.1120, 10289.00
228.3300, 10372.00
229.5480, 10340.00
230.7650, 10451.00
231.9820, 10463.73
233.1990, 10476.00
234.4160, 10546.00
235.6330, 10602.00
236.8490, 10680.00
238.0660, 10892.00
239.2820, 11038.00
240.4980, 11002.00
241.7140, 10989.00
242.9300, 11192.00
244.1460, 11476.00
245.3610, 11541.00
246.5770, 11819.00
247.7920, 11784.00
249.0070, 11999.00
250.2220, 12089.00
251.4370, 12286.00
252.6510, 12719.00
253.8660, 13181.00
255.0800, 13190.00
256.2940, 13640.00
257.5080, 14077.00
258.7220, 14707.00
259.9360, 14693.71
261.1490, 15131.00
262.3630, 14614.00
263.5760, 14894.00
264.7890, 14721.00
266.0020, 14761.00
267.2150, 14861.00
268.4270, 14794.00
269.6400, 14973.00
270.8520, 15028.00
272.0640, 15327.00
273.2760, 15300.00
274.4880, 15545.00
275.7000, 15570.00
276.9120, 15553.00
278.1230, 15493.00
279.3340, 15329.00
280.5450, 15078.00
281.7560, 14912.00
282.9670, 14665.00
284.1780, 14453.00
285.3880, 14293.00
286.5980, 14171.00
287.8090, 14059.68
289.0190, 14008.28
290.2290, 13941.00
291.4380, 13969.00
292.6480, 13980.00
293.8570, 13990.00
295.0670, 14077.00
296.2760, 14126.00
297.4850, 14295.00
298.6930, 14128.00
299.9020, 13960.00
301.1110, 14154.00
302.3190, 13929.00
303.5270, 13869.00
304.7350, 13854.00
305.9430, 13480.00
307.1510, 13368.00
308.3580, 13301.00
309.5660, 13462.00
310.7730, 13432.00
311.9800, 13615.00
313.1870, 13514.00
314.3940, 13482.00
315.6010, 13740.00
316.8070, 13684.00
318.0130, 14017.00
319.2200, 14186.00
320.4260, 14434.00
321.6310, 14618.00
322.8370, 14786.00
324.0430, 14677.00
325.2480, 15116.00
326.4540, 14939.00
327.6590, 14978.00
328.8640, 15120.00
330.0680, 15078.00
331.2730, 15048.00
332.4780, 14999.00
333.6820, 14915.35
334.8860, 14865.01
336.0900, 14775.00
337.2940, 14734.00
338.4980, 14768.00
339.7010, 14729.00
340.9050, 14790.64
342.1080, 14641.00
343.3110, 14991.00
344.5140, 15009.00
345.7170, 15264.00
346.9200, 15299.00
348.1220, 15467.00
349.3240, 15710.00
350.5270, 15623.00
351.7290, 15655.00
352.9310, 15559.00
354.1320, 15715.00
355.3340, 15431.00
356.5350, 15409.00
357.7370, 15244.00
358.9380, 15356.00
360.1390, 15182.00
361.3400, 15169.00
362.5400, 15128.00
363.7410, 15111.00
364.9410, 15062.08
366.1410, 14915.00
367.3410, 14925.00
368.5410, 15009.00
369.7410, 14874.00
370.9400, 15019.00
372.1400, 14766.00
373.3390, 14982.00
374.5380, 14821.00
375.7370, 14821.00
376.9360, 14656.00
378.1350, 14827.00
379.3330, 14726.00
380.5310, 14654.00
381.7300, 14579.00
382.9280, 14765.00
384.1260, 14870.00
385.3230, 14978.00
386.5210, 15212.00
387.7180, 15191.00
388.9160, 15569.00
390.1130, 15614.00
391.3100, 15969.00
392.5060, 16326.00
393.7030, 16676.00
394.9000, 17030.00
396.0960, 17246.62
397.2920, 17504.31
398.4880, 17608.00
399.6840, 17893.00
400.8800, 18003.00
402.0750, 18183.00
403.2710, 18126.00
404.4660, 18303.00
405.6610, 18161.00
406.8560, 18089.00
408.0510, 17510.00
409.2450, 17505.00
410.4400, 17152.00
411.6340, 16856.00
412.8280, 16603.00
414.0220, 16215.00
415.2160, 15858.00
416.4100, 15583.00
417.6030, 15307.00
418.7970, 15050.84
419.9900, 14839.01
421.1830, 14610.00
422.3760, 14503.00
423.5690, 14320.00
424.7610, 14276.00
425.9540, 14231.00
427.1460, 14100.00
428.3380, 14425.00
429.5300, 14346.84
430.7220, 14442.98
431.9140, 14471.00
433.1050, 14621.00
434.2970, 14662.00
435.4880, 14830.00
436.6790, 14721.47
437.8700, 15224.50
439.0610, 15554.00
440.2510, 15719.20
441.4420, 15228.45
442.6320, 15584.75
443.8220, 15957.00
445.0120, 16160.00
446.2020, 16175.00
447.3910, 16384.00
448.5810, 16578.00
449.7700, 16724.00
450.9600, 16980.00
452.1490, 17216.00
453.3370, 17469.00
454.5260, 17644.85
455.7150, 17777.66
456.9030, 17933.00
458.0910, 17933.00
459.2800, 17961.00
460.4670, 17960.00
461.6550, 17965.00
462.8430, 17844.00
464.0300, 17936.00
465.2180, 17898.00
466.4050, 17813.00
467.5920, 17637.00
468.7790, 17618.00
469.9650, 17467.00
471.1520, 17218.00
472.3380, 17083.37
473.5250, 16861.07
474.7110, 16687.00
475.8970, 16457.00
477.0820, 16320.00
478.2680, 16155.00
479.4540, 16064.00
480.6390, 15869.00
481.8240, 15715.00
483.0090, 15844.00
484.1940, 15551.00
485.3780, 15494.00
486.5630, 15481.00
487.7470, 15628.00
488.9320, 15331.00
490.1160, 15371.00
491.3000, 15467.00
492.4830, 15239.00
493.6670, 15316.00
494.8500, 15261.00
496.0340, 15256.00
497.2170, 15421.00
498.4000, 15462.00
499.5820, 15490.00
500.7650, 15550.00
501.9480, 15671.00
503.1300, 15813.00
504.3120, 15856.00
505.4940, 16015.00
506.6760, 16230.00
507.8580, 16667.00
509.0390, 16631.00
510.2210, 16934.00
511.4020, 17012.00
512.5830, 17316.00
513.7640, 17370.00
514.9450, 17044.00
516.1250, 16991.00
517.3060, 16982.00
518.4860, 16684.00
519.6660, 16693.00
520.8460, 16632.00
522.0260, 16383.00
523.2060, 16284.00
524.3850, 16112.00
525.5650, 15941.00
526.7440, 15892.00
527.9230, 15808.00
529.1020, 15471.00
530.2810, 15600.00
531.4590, 15653.00
532.6380, 15780.00
533.8160, 15591.00
534.9940, 15545.00
536.1720, 15634.00
537.3500, 15603.00
538.5270, 15842.00
539.7050, 15716.00
540.8820, 16055.00
542.0590, 15984.00
543.2360, 16408.00
544.4130, 16346.00
545.5900, 16594.00
546.7660, 16741.00
547.9430, 16752.00
549.1190, 17102.00
550.2950, 17047.00
551.4710, 17452.00
552.6470, 17442.00
553.8220, 17562.00
554.9980, 17580.00
556.1730, 17632.00
557.3480, 17657.00
558.5230, 17599.00
559.6980, 17740.00
560.8730, 17690.00
562.0470, 17900.00
563.2220, 17661.00
564.3960, 17595.00
565.5700, 17967.00
566.7440, 17863.00
567.9170, 17771.00
569.0910, 17564.69
570.2640, 18111.98
571.4380, 18485.88
572.6110, 18695.43
573.7840, 18248.95
574.9570, 18649.60
576.1290, 18710.64
577.3020, 18757.88
578.4740, 19094.00
579.6460, 19197.00
580.8180, 19283.00
581.9900, 19543.00
583.1620, 19746.00
584.3330, 19916.00
585.5040, 20186.00
586.6760, 20284.00
587.8470, 21013.00
589.0180, 21115.00
590.1880, 21622.00
591.3590, 21881.00
592.5290, 22276.00
593.7000, 22972.00
594.8700, 23304.00
596.0400, 24141.00
597.2090, 24750.00
598.3790, 25472.00
599.5490, 26287.00
600.7180, 26900.00
601.8870, 27914.00
603.0560, 28696.00
604.2250, 29617.00
605.3940, 30489.34
606.5620, 31562.00
607.7300, 32146.00
608.8990, 33078.00
610.0670, 33786.00
611.2350, 34549.00
612.4020, 35197.83
613.5700, 35801.01
614.7370, 36328.00
615.9050, 36903.00
617.0720, 37373.00
618.2390, 37882.00
619.4060, 38556.00
620.5720, 39274.69
621.7390, 40295.00
622.9050, 40952.00
624.0710, 42073.00
625.2370, 43020.00
626.4030, 43992.00
627.5690, 44923.00
628.7340, 46013.38
629.9000, 47024.00
631.0650, 48282.00
632.2300, 49529.00
633.3950, 50829.00
634.5600, 52220.00
635.7240, 52870.00
636.8890, 53514.00
638.0530, 53632.00
639.2170, 53035.00
640.3810, 52424.00
641.5450, 51157.00
642.7080, 49381.00
643.8720, 48059.00
645.0350, 46235.00
646.1980, 44557.00
647.3610, 42823.00
648.5240, 41208.00
649.6870, 40360.00
650.8490, 38916.00
652.0120, 38042.77
653.1740, 36997.96
654.3360, 36335.00
655.4980, 35065.00
656.6600, 34121.00
657.8210, 33223.00
658.9830, 31944.00
660.1440, 31027.00
661.3050, 29853.00
662.4660, 28823.00
663.6270, 27883.00
664.7870, 26671.00
665.9480, 25880.00
667.1080, 25147.00
668.2680, 24261.00
669.4280, 23649.00
670.5880, 22971.00
671.7480, 22257.00
672.9070, 21660.00
674.0670, 21006.00
675.2260, 20146.00
676.3850, 19658.00
677.5440, 18911.00
678.7030, 18308.00
679.8610, 17547.00
681.0200, 17034.00
682.1780, 16523.00
683.3360, 16213.00
684.4940, 15876.00
685.6520, 15595.00
686.8090, 15228.00
687.9670, 15278.00
689.1240, 14982.00
690.2810, 14786.00
691.4380, 14865.00
692.5950, 14764.00
693.7520, 15004.00
694.9080, 14962.00
696.0650, 15162.00
697.2210, 15071.00
698.3770, 15057.00
699.5330, 15202.00
700.6880, 15356.00
701.8440, 15063.00
702.9990, 15302.00
704.1550, 15284.00
705.3100, 15283.00
706.4650, 15469.00
707.6190, 15447.00
708.7740, 15437.00
709.9290, 15356.00
711.0830, 15280.00
712.2370, 15335.00
713.3910, 15279.00
714.5450, 15104.00
715.6980, 14950.00
716.8520, 14874.00
718.0050, 14635.00
719.1580, 14674.00
720.3110, 14533.00
721.4640, 14423.00
722.6170, 14478.00
723.7700, 14281.00
724.9220, 14281.00
726.0740, 14180.00
727.2260, 14130.00
728.3780, 14232.00
729.5300, 14029.00
730.6810, 14107.00
731.8330, 14133.00
732.9840, 14207.00
734.1350, 14085.00
735.2860, 14050.00
736.4370, 14040.00
737.5880, 14135.00
738.7380, 14032.00
739.8880, 13981.00
741.0390, 13923.00
742.1890, 13876.00
743.3380, 14114.00
744.4880, 14245.00
745.6380, 14155.00
746.7870, 14533.00
747.9360, 14543.00
749.0850, 14718.00
750.2340, 14961.00
751.3830, 15130.00
752.5310, 15258.00
753.6800, 15361.00
754.8280, 15404.00
755.9760, 15373.00
757.1240, 15345.00
758.2720, 15221.00
759.4190, 15160.00
760.5670, 15094.00
761.7140, 14749.00
762.8610, 14499.00
764.0080, 14373.00
765.1550, 14145.88
766.3020, 14035.00
767.4480, 13888.00
768.5950, 13694.00
769.7410, 13637.00
770.8870, 13511.00
772.0330, 13450.00
773.1780, 13402.00
774.3240, 13302.00
775.4690, 13387.00
776.6140, 13459.78
777.7590, 13678.00
778.9040, 13724.00
780.0490, 14041.00
781.1940, 14129.00
782.3380, 14373.00
783.4820, 14778.00
784.6260, 14962.00
785.7700, 15224.00
786.9140, 15583.00
788.0580, 15799.00
789.2010, 16054.00
790.3450, 16084.00
791.4880, 15826.00
792.6310, 15467.00
793.7730, 15235.00
794.9160, 14551.00
796.0590, 14165.00
797.2010, 13590.00
798.3430, 13468.00
799.4850, 13245.00
800.6270, 13151.00
801.7690, 13078.00
802.9100, 13074.00
804.0520, 13026.00
805.1930, 12982.00
806.3340, 12920.58
807.4750, 12835.89
808.6160, 12768.00
809.7560, 12647.00
810.8970, 12567.00
812.0370, 12476.00
813.1770, 12453.00
814.3170, 12548.00
815.4570, 12423.00
816.5960, 12368.00
817.7360, 12167.00
818.8750, 12193.00
820.0140, 12179.00
821.1530, 12011.00
822.2920, 12029.39
823.4310, 11881.00
824.5690, 11914.00
825.7070, 11818.00
826.8460, 11714.00
827.9840, 11805.00
829.1220, 11762.00
830.2590, 11705.65
831.3970, 11746.00
832.5340, 11641.00
833.6710, 11660.00
834.8080, 11751.00
835.9450, 11767.00
837.0820, 11692.00
838.2190, 11641.00
839.3550, 11634.00
840.4910, 11583.00
841.6270, 11610.00
842.7630, 11593.95
843.8990, 11560.86
845.0350, 11597.00
846.1700, 11540.00
847.3060, 11532.00
848.4410, 11610.00
849.5760, 11547.00
850.7100, 11710.00
851.8450, 11652.00
852.9800, 11509.00
854.1140, 11662.00
855.2480, 11662.00
856.3820, 11791.00
857.5160, 11769.00
858.6500, 11757.00
859.7830, 11655.00
860.9170, 11881.00
862.0500, 11657.00
863.1830, 11747.00
864.3160, 11581.00
865.4480, 11584.00
866.5810, 11801.00
867.7130, 11693.00
868.8460, 11731.00
869.9780, 11887.00
871.1100, 11833.00
872.2410, 11774.00
873.3730, 11703.00
874.5050, 11689.00
875.6360, 11808.00
876.7670, 11793.00
877.8980, 11696.00
879.0290, 11885.00
880.1590, 11874.00
881.2900, 11842.00
882.4200, 11907.00
883.5500, 11842.00
884.6800, 11917.00
885.8100, 12023.00
886.9400, 11994.00
888.0690, 11902.00
889.1990, 11908.00
890.3280, 11862.00
891.4570, 11964.00
892.5860, 11915.00
893.7140, 12087.00
894.8430, 12055.00
895.9710, 12086.00
897.1000, 12000.00
898.2280, 12104.00
899.3560, 12138.00
900.4830, 12207.00
901.6110, 12110.00
902.7380, 12187.00
903.8660, 12163.00
904.9930, 12212.00
906.1200, 12301.00
907.2460, 12182.00
908.3730, 12144.00
909.5000, 12375.00
910.6260, 12351.00
911.7520, 12474.00
912.8780, 12453.00
914.0040, 12449.00
915.1290, 12479.00
916.2550, 12482.00
917.3800, 12517.00
918.5050, 12558.00
919.6300, 12545.00
920.7550, 12735.00
921.8800, 12637.00
923.0040, 12613.00
924.1290, 12598.00
925.2530, 12840.00
926.3770, 12585.00
927.5010, 12848.00
928.6250, 12837.00
929.7480, 12779.00
930.8720, 12907.00
931.9950, 12974.00
933.1180, 12882.00
934.2410, 12953.00
935.3640, 13037.00
936.4860, 13164.00
937.6090, 13148.00
938.7310, 13157.00
939.8530, 13139.00
940.9750, 13290.00
942.0970, 13298.00
943.2180, 13281.00
944.3400, 13315.00
945.4610, 13261.00
946.5820, 13423.00
947.7030, 13440.00
948.8240, 13476.00
949.9450, 13667.00
951.0650, 13670.00
952.1860, 13798.00
953.3060, 13802.00
954.4260, 13835.52
955.5460, 13774.00
956.6650, 13890.00
957.7850, 13770.00
958.9040, 13828.00
960.0230, 13923.00
961.1420, 13983.00
962.2610, 14123.00
963.3800, 14093.00
964.4990, 14083.00
965.6170, 14171.00
966.7350, 14426.00
967.8530, 14111.00
968.9710, 14160.00
970.0890, 14335.00
971.2070, 14218.00
972.3240, 14449.00
973.4410, 14380.00
974.5580, 14434.00
975.6750, 14602.00
976.7920, 14553.00
977.9090, 14569.00
979.0250, 14672.00
980.1410, 14553.00
981.2580, 14746.00
982.3740, 14587.00
983.4890, 14795.00
984.6050, 14857.00
985.7200, 14726.00
986.8360, 14573.00
987.9510, 14702.00
989.0660, 14945.00
990.1810, 14947.00
991.2950, 14867.00
992.4100, 14846.00
993.5240, 14848.00
994.6390, 14828.00
995.7530, 14927.00
996.8660, 14733.00
997.9800, 14886.00
999.0940, 14831.00
1000.207, 14989.00
1001.320, 15064.00
1002.433, 14982.00
1003.546, 15142.00
1004.659, 15136.00
1005.772, 15154.00
1006.884, 15173.00
1007.996, 15178.05
1009.108, 15176.00
1010.220, 15229.00
1011.332, 15275.35
1012.444, 15362.37
1013.555, 15457.00
1014.666, 15546.00
1015.777, 15646.00
1016.888, 15827.00
1017.999, 15649.00
1019.110, 15752.00
1020.220, 15886.00
1021.331, 15639.00
1022.441, 15856.00
1023.551, 15760.00
1024.661, 15478.00
1025.770, 15622.00
1026.880, 15433.00
1027.989, 15529.00
1029.098, 15360.00
1030.207, 15196.00
1031.316, 15084.00
1032.425, 15010.43
1033.533, 15061.00
1034.642, 14928.00
1035.750, 14973.00
1036.858, 14939.00
1037.966, 14922.00
1039.073, 14866.00
1040.181, 14849.00
1041.288, 14803.00
1042.396, 14767.00
1043.503, 14707.00
1044.610, 14710.00
1045.716, 14763.46
1046.823, 14811.00
1047.929, 14861.00
1049.036, 14968.82
1050.142, 15008.00
1051.248, 15092.00
1052.353, 15207.00
1053.459, 15371.00
1054.564, 15478.86
1055.670, 15607.00
1056.775, 15740.00
1057.880, 15760.00
1058.985, 15860.00
1060.089, 15909.00
1061.194, 15983.00
1062.298, 15755.00
1063.402, 15813.00
1064.506, 15694.00
1065.610, 15673.00
1066.713, 15519.00
1067.817, 15509.00
1068.920, 15428.00
1070.023, 15299.00
1071.126, 15312.00
1072.229, 15127.00
1073.332, 15111.00
1074.435, 15029.00
1075.537, 14874.00
1076.639, 14825.00
1077.741, 14693.00
1078.843, 14673.00
1079.945, 14623.00
1081.046, 14574.00
1082.148, 14694.00
1083.249, 14603.01
1084.350, 14551.00
1085.451, 14585.00
1086.551, 14426.00
1087.652, 14511.00
1088.752, 14368.00
1089.853, 14451.00
1090.953, 14426.00
1092.053, 14331.00
1093.152, 14426.00
1094.252, 14493.00
1095.351, 14448.00
1096.451, 14601.00
1097.550, 14409.00
1098.649, 14412.00
1099.748, 14463.00
1100.846, 14394.00
1101.945, 14205.00
1103.043, 14399.00
1104.141, 14205.00
1105.239, 14168.00
1106.337, 14365.00
1107.434, 14212.00
1108.532, 14306.00
1109.629, 14182.00
1110.726, 14358.00
1111.823, 14349.00
1112.920, 14402.00
1114.017, 14243.00
1115.113, 14168.00
1116.210, 14063.00
1117.306, 14047.00
1118.402, 14104.00
1119.498, 14189.00
1120.593, 14186.00
1121.689, 14121.00
1122.784, 14102.00
1123.879, 13935.00
1124.974, 13840.00
1126.069, 13883.00
1127.164, 13969.00
1128.259, 13810.00
1129.353, 13803.00
1130.447, 13681.00
1131.541, 13729.00
1132.635, 13625.00
1133.729, 13623.59
1134.822, 13684.00
1135.916, 13599.00
1137.009, 13686.00
1138.102, 13660.00
1139.195, 13673.00
1140.288, 13692.08
1141.380, 13666.00
1142.473, 13625.00
1143.565, 13589.00
1144.657, 13402.00
1145.749, 13495.00
1146.841, 13463.00
1147.932, 13465.00
1149.024, 13558.00
1150.115, 13546.00
1151.206, 13530.00
1152.297, 13568.00
1153.388, 13531.01
1154.479, 13523.34
1155.569, 13483.00
1156.659, 13508.00
1157.750, 13475.00
1158.839, 13533.00
1159.929, 13492.00
1161.019, 13543.00
1162.108, 13515.00
1163.198, 13458.00
1164.287, 13520.00
1165.376, 13631.00
1166.465, 13582.00
1167.553, 13747.00
1168.642, 13453.00
1169.730, 13427.00
1170.818, 13627.00
1171.906, 13523.00
1172.994, 13601.00
1174.082, 13655.00
1175.170, 13746.00
1176.257, 13612.00
1177.344, 13567.00
1178.431, 13674.00
1179.518, 13543.00
1180.605, 13649.00
1181.691, 13647.00
1182.778, 13610.00
1183.864, 13706.00
1184.950, 13731.00
1186.036, 13685.00
1187.122, 13685.00
1188.207, 13732.00
1189.292, 13838.00
1190.378, 13864.00
1191.463, 13932.00
1192.548, 13787.00
1193.632, 13763.00
1194.717, 13752.00
1195.801, 13836.00
1196.886, 13758.00
1197.970, 13857.00
1199.054, 13780.00
1200.137, 13837.00
1201.221, 13783.00
1202.305, 13858.00
1203.388, 13734.00
1204.471, 14014.00
1205.554, 14040.00
1206.637, 13927.00
1207.719, 13940.00
1208.802, 14002.00
1209.884, 13893.00
1210.966, 14045.00
1212.048, 14069.00
1213.130, 13975.00
1214.212, 14124.00
1215.293, 14221.00
1216.374, 14072.00
1217.456, 14280.00
1218.536, 14242.55
1219.617, 14288.00
1220.698, 14247.00
1221.778, 14310.32
1222.859, 14414.00
1223.939, 14479.00
1225.019, 14584.98
1226.099, 14655.00
1227.178, 14804.00
1228.258, 14890.00
1229.337, 15015.38
1230.417, 14929.00
1231.496, 15178.00
1232.574, 15308.00
1233.653, 15358.00
1234.732, 15584.00
1235.810, 15664.00
1236.888, 15943.00
1237.966, 15973.00
1239.044, 16115.00
1240.122, 16445.00
1241.199, 16773.00
1242.277, 16556.00
1243.354, 16794.00
1244.431, 16953.00
1245.508, 16932.00
1246.585, 16939.00
1247.661, 16905.00
1248.738, 17005.00
1249.814, 16974.00
1250.890, 16846.00
1251.966, 16819.00
1253.042, 16928.00
1254.117, 16955.00
1255.193, 17021.00
1256.268, 17015.00
1257.343, 17154.00
1258.418, 17203.00
1259.493, 17232.38
1260.567, 17299.49
1261.642, 17289.00
1262.716, 17358.00
1263.790, 17380.00
1264.864, 17396.00
1265.938, 17453.00
1267.011, 17427.00
1268.085, 17461.00
1269.158, 17468.00
1270.231, 17264.00
1271.304, 17351.00
1272.377, 17326.00
1273.450, 17231.00
1274.522, 16990.00
1275.594, 17075.00
1276.666, 16958.00
1277.738, 16812.00
1278.810, 17099.00
1279.882, 17126.00
1280.953, 17225.00
1282.025, 17201.00
1283.096, 17426.00
1284.167, 17496.00
1285.238, 17612.00
1286.308, 17599.00
1287.379, 17968.00
1288.449, 17795.00
1289.519, 17970.00
1290.589, 17815.00
1291.659, 17969.00
1292.729, 17973.00
1293.798, 17727.00
1294.868, 17731.00
1295.937, 17654.00
1297.006, 17517.00
1298.075, 17467.00
1299.143, 17485.00
1300.212, 17107.00
1301.280, 17094.00
1302.348, 17068.00
1303.416, 17183.00
1304.484, 17057.00
1305.552, 17077.00
1306.620, 17116.00
1307.687, 17261.00
1308.754, 17158.00
1309.821, 17437.00
1310.888, 17534.00
1311.955, 17402.00
1313.021, 17521.00
1314.088, 17345.00
1315.154, 17372.00
1316.220, 17213.00
1317.286, 17490.00
1318.352, 17073.00
1319.417, 17196.00
1320.483, 17260.00
1321.548, 17148.00
1322.613, 17144.00
1323.678, 16907.00
1324.743, 16848.00
1325.807, 17131.00
1326.872, 16865.00
1327.936, 16980.00
1329.000, 16872.00
1330.064, 16924.00
1331.128, 16854.00
1332.191, 16824.50
1333.255, 16753.00
1334.318, 16783.00
1335.381, 16742.00
1336.444, 16767.00
1337.507, 16831.00
1338.569, 16831.00
1339.632, 16768.00
1340.694, 16934.00
1341.756, 16798.00
1342.818, 16699.00
1343.880, 16713.00
1344.941, 16561.00
1346.003, 16665.00
1347.064, 16623.54
1348.125, 16658.00
1349.186, 16644.00
1350.247, 16740.00
1351.308, 16750.00
1352.368, 16476.00
1353.428, 16696.00
1354.489, 16575.00
1355.549, 16424.00
1356.608, 16440.00
1357.668, 16425.00
1358.727, 16541.00
1359.787, 16375.00
1360.846, 16365.00
1361.905, 16442.00
1362.964, 16438.00
1364.022, 16361.00
1365.081, 16339.00
1366.139, 16436.00
1367.197, 16107.00
1368.255, 16073.00
1369.313, 16147.00
1370.371, 16172.00
1371.428, 16041.00
1372.486, 15860.00
1373.543, 15915.00
1374.600, 15772.00
1375.657, 15598.00
1376.713, 15748.00
1377.770, 15815.00
1378.826, 15650.00
1379.882, 15649.00
1380.938, 15489.00
1381.994, 15525.00
1383.050, 15503.00
1384.106, 15498.00
1385.161, 15509.49
1386.216, 15488.16
1387.271, 15538.00
1388.326, 15472.00
1389.381, 15530.00
1390.435, 15542.93
1391.490, 15524.09
1392.544, 15588.00
1393.598, 15588.00
1394.652, 15424.00
1395.705, 15596.00
1396.759, 15575.00
1397.812, 15426.00
1398.866, 15526.00
1399.919, 15392.00
1400.972, 15476.00
1402.024, 15635.00
1403.077, 15409.00
1404.129, 15563.00
1405.181, 15400.00
1406.233, 15533.00
1407.285, 15550.00
1408.337, 15659.00
1409.389, 15616.59
1410.440, 15431.00
1411.491, 15493.00
1412.542, 15389.00
1413.593, 15292.00
1414.644, 15420.00
1415.695, 15268.00
1416.745, 15351.00
1417.795, 15292.00
1418.845, 15249.00
1419.895, 15280.00
1420.945, 15299.00
1421.995, 15284.76
1423.044, 15098.00
1424.093, 15249.00
1425.142, 15256.00
1426.191, 15161.00
1427.240, 15272.00
1428.289, 15309.00
1429.337, 15240.00
1430.385, 15197.00
1431.433, 15252.00
1432.481, 15201.00
1433.529, 15142.00
1434.577, 14996.00
1435.624, 15201.00
1436.672, 15031.00
1437.719, 15147.00
1438.766, 15331.00
1439.812, 15118.00
1440.859, 15121.00
1441.905, 15208.00
1442.952, 15264.00
1443.998, 15305.00
1445.044, 15344.00
1446.090, 15170.00
1447.135, 15224.00
1448.181, 15364.00
1449.226, 15192.00
1450.271, 15362.00
1451.316, 15673.00
1452.361, 15151.00
1453.405, 15079.00
1454.450, 15290.00
1455.494, 15183.90
1456.538, 15222.25
1457.582, 15433.00
1458.626, 15235.00
1459.670, 15246.00
1460.713, 15309.00
1461.757, 15339.00
1462.800, 15092.00
1463.843, 15230.00
1464.886, 15163.00
1465.928, 15342.00
1466.971, 15244.00
1468.013, 15292.00
1469.055, 15375.00
1470.097, 15491.00
1471.139, 15279.00
1472.181, 15355.00
1473.222, 15401.00
1474.263, 15433.00
1475.305, 15246.00
1476.346, 15391.00
1477.386, 15309.00
1478.427, 15411.00
1479.468, 15255.00
1480.508, 15280.66
1481.548, 15503.00
1482.588, 15301.00
1483.628, 15361.00
1484.668, 15499.00
1485.707, 15514.00
1486.747, 15591.00
1487.786, 15464.00
1488.825, 15445.00
1489.864, 15453.00
1490.902, 15532.00
1491.941, 15276.00
1492.979, 15390.00
1494.017, 15565.00
1495.055, 15356.00
1496.093, 15625.00
1497.131, 15587.00
1498.168, 15533.00
1499.206, 15786.00
1500.243, 15617.00
1501.280, 15568.00
1502.317, 15532.00
1503.354, 15554.00
1504.390, 15499.00
1505.426, 15531.00
1506.463, 15528.00
1507.499, 15500.00
1508.535, 15763.00
1509.570, 15819.00
1510.606, 15727.00
1511.641, 15737.00
1512.676, 15543.00
1513.711, 15754.00
1514.746, 15656.00
1515.781, 15652.00
1516.816, 15763.00
1517.850, 15561.00
1518.884, 15669.00
1519.918, 15712.00
1520.952, 15746.00
1521.986, 15698.00
1523.019, 15884.00
1524.053, 15778.00
1525.086, 15826.00
1526.119, 15969.00
1527.152, 15787.00
1528.185, 15946.00
1529.217, 15880.00
1530.250, 15801.00
1531.282, 15763.00
1532.314, 15785.86
1533.346, 15789.00
1534.377, 15837.00
1535.409, 15842.00
1536.440, 15774.00
1537.472, 15767.00
1538.503, 15818.00
1539.534, 15934.00
1540.564, 15853.00
1541.595, 15976.00
1542.625, 15903.00
1543.656, 15884.00
1544.686, 15833.00
1545.716, 15944.00
1546.745, 15958.00
1547.775, 15897.00
1548.804, 16248.00
1549.834, 16134.00
1550.863, 16334.00
1551.892, 16100.00
1552.920, 16186.00
1553.949, 16347.00
1554.977, 16381.00
1556.006, 16211.00
1557.034, 15975.00
1558.062, 16180.00
1559.089, 15922.00
1560.117, 16040.00
1561.144, 16184.00
1562.172, 16239.00
1563.199, 16192.00
1564.226, 16221.00
1565.252, 16413.00
1566.279, 16211.00
1567.305, 16433.00
1568.332, 16059.00
1569.358, 16379.00
1570.384, 16228.00
##END=



