##NAMES=Fluor-buergerite
##RRUFFID=R060132
##IDEAL CHEMISTRY=NaFe^3+^_3_Al_6_(Si_6_O_18_)(BO_3_)_3_O_3_F
##LOCALITY=20 km. south of San Luis Potasi, Mexico
##OWNER=RRUFF
##SOURCE=University of Arizona Mineral Museum
##DESCRIPTION=Brown short prismatic
##STATUS=The identification of this mineral has been confirmed by X-ray diffraction and chemical analysis
##URL=rruff.info/R060132
##MEASURED CHEMISTRY=(Na_0.87_Ca_0.03_[box]_0.10_)(Fe^3+^_0.82_Al_0.12_Mg_0.04_Ti_0.02_)_3_Al_6_(BO_3_)_3_(Si_0.98_Al_0.02_)_6_O_18_(O_0.66_F_0.19_(OH)_0.15_)_4_
##PIN_ID=L01714
##ORIENTATION=Laser parallel to a* (1 0 0). Fiducial mark perpendicular to laser is parallel to -c [0 0 -1]
120.5960, 9460.000
121.8270, 9821.000
123.0580, 10054.00
124.2880, 10175.00
125.5190, 9765.000
126.7490, 9694.000
127.9790, 9852.000
129.2090, 10282.00
130.4390, 10605.00
131.6680, 10533.00
132.8980, 10743.00
134.1270, 10729.00
135.3560, 10944.00
136.5850, 11230.00
137.8140, 11702.00
139.0430, 12029.07
140.2710, 12425.12
141.5000, 12943.00
142.7280, 13287.00
143.9560, 13875.00
145.1840, 14477.00
146.4120, 15278.00
147.6390, 15907.00
148.8670, 16345.00
150.0940, 16822.00
151.3210, 17064.00
152.5490, 17146.00
153.7750, 16929.00
155.0020, 16448.00
156.2290, 15235.00
157.4550, 14263.00
158.6810, 13659.00
159.9080, 12982.00
161.1340, 12500.00
162.3590, 12325.00
163.5850, 12224.00
164.8110, 12266.00
166.0360, 12166.00
167.2610, 12059.00
168.4860, 12051.00
169.7110, 12191.00
170.9360, 12183.00
172.1610, 12227.00
173.3850, 11981.00
174.6100, 12086.00
175.8340, 12203.00
177.0580, 12192.00
178.2820, 12369.00
179.5050, 12526.00
180.7290, 12401.00
181.9520, 12468.00
183.1760, 12651.00
184.3990, 13377.00
185.6220, 13600.00
186.8450, 13480.00
188.0670, 13326.00
189.2900, 13597.00
190.5120, 13656.00
191.7340, 13897.00
192.9560, 14242.00
194.1780, 14364.00
195.4000, 14663.00
196.6220, 14947.00
197.8430, 15328.00
199.0640, 15361.00
200.2860, 16091.00
201.5070, 16776.00
202.7270, 17203.00
203.9480, 16987.00
205.1690, 16328.00
206.3890, 16058.00
207.6090, 16308.00
208.8290, 16676.00
210.0490, 16929.00
211.2690, 17483.00
212.4890, 18043.00
213.7080, 18620.00
214.9280, 19231.00
216.1470, 20122.00
217.3660, 21037.84
218.5850, 21992.00
219.8030, 23388.00
221.0220, 24697.00
222.2400, 26345.00
223.4590, 28402.00
224.6770, 30614.00
225.8950, 32535.00
227.1120, 34475.00
228.3300, 36335.00
229.5480, 37299.00
230.7650, 38302.00
231.9820, 38004.00
233.1990, 37379.00
234.4160, 36133.00
235.6330, 34691.00
236.8490, 34079.00
238.0660, 32156.00
239.2820, 30566.00
240.4980, 29286.00
241.7140, 28154.00
242.9300, 27013.00
244.1460, 25899.00
245.3610, 25239.00
246.5770, 24397.00
247.7920, 24094.00
249.0070, 23504.00
250.2220, 23330.00
251.4370, 23142.00
252.6510, 22893.00
253.8660, 22799.00
255.0800, 22513.00
256.2940, 22319.00
257.5080, 22310.00
258.7220, 22341.00
259.9360, 21857.88
261.1490, 22018.00
262.3630, 21002.00
263.5760, 20182.00
264.7890, 19890.00
266.0020, 19576.00
267.2150, 19483.00
268.4270, 19087.00
269.6400, 18906.00
270.8520, 18940.00
272.0640, 18952.00
273.2760, 18698.00
274.4880, 18617.00
275.7000, 18435.00
276.9120, 18182.82
278.1230, 17975.00
279.3340, 17699.00
280.5450, 17375.00
281.7560, 17177.00
282.9670, 16928.00
284.1780, 16835.00
285.3880, 17080.00
286.5980, 16877.00
287.8090, 17282.00
289.0190, 17433.00
290.2290, 18408.00
291.4380, 18714.29
292.6480, 18691.00
293.8570, 19671.00
295.0670, 19296.00
296.2760, 19406.00
297.4850, 19534.00
298.6930, 19141.24
299.9020, 19264.00
301.1110, 18647.00
302.3190, 18226.00
303.5270, 18143.00
304.7350, 16735.00
305.9430, 16162.00
307.1510, 15631.00
308.3580, 15308.00
309.5660, 15378.00
310.7730, 15227.00
311.9800, 15286.10
313.1870, 15514.00
314.3940, 15594.00
315.6010, 15710.00
316.8070, 16066.00
318.0130, 16246.00
319.2200, 16804.00
320.4260, 16874.00
321.6310, 17492.00
322.8370, 18510.00
324.0430, 18365.00
325.2480, 18907.00
326.4540, 19152.00
327.6590, 19367.00
328.8640, 19388.00
330.0680, 19480.00
331.2730, 19379.00
332.4780, 19167.00
333.6820, 19165.00
334.8860, 19306.00
336.0900, 19379.79
337.2940, 19784.00
338.4980, 19900.00
339.7010, 20302.00
340.9050, 20809.00
342.1080, 21106.00
343.3110, 21524.00
344.5140, 21972.00
345.7170, 22401.00
346.9200, 22729.00
348.1220, 23346.00
349.3240, 23652.00
350.5270, 24422.00
351.7290, 24877.00
352.9310, 25359.00
354.1320, 26177.00
355.3340, 26767.00
356.5350, 27252.00
357.7370, 28139.00
358.9380, 29051.00
360.1390, 29844.00
361.3400, 30811.00
362.5400, 31930.00
363.7410, 33307.00
364.9410, 34498.00
366.1410, 35457.00
367.3410, 36980.00
368.5410, 37660.00
369.7410, 38669.00
370.9400, 38810.00
372.1400, 38958.00
373.3390, 38309.00
374.5380, 37311.00
375.7370, 36251.00
376.9360, 34955.00
378.1350, 33556.00
379.3330, 32475.00
380.5310, 31167.00
381.7300, 30017.00
382.9280, 29141.00
384.1260, 28837.00
385.3230, 28025.00
386.5210, 27576.00
387.7180, 27178.00
388.9160, 26740.00
390.1130, 27008.00
391.3100, 27012.00
392.5060, 26794.00
393.7030, 27123.00
394.9000, 26971.00
396.0960, 27210.00
397.2920, 26995.00
398.4880, 27305.00
399.6840, 26781.00
400.8800, 26808.00
402.0750, 26067.00
403.2710, 26077.00
404.4660, 25610.00
405.6610, 24880.00
406.8560, 24173.00
408.0510, 23717.00
409.2450, 22874.00
410.4400, 22192.00
411.6340, 21406.00
412.8280, 20902.00
414.0220, 20367.00
415.2160, 19566.00
416.4100, 19117.00
417.6030, 18571.00
418.7970, 18507.00
419.9900, 18010.00
421.1830, 17727.00
422.3760, 17558.00
423.5690, 17228.00
424.7610, 17195.00
425.9540, 17147.00
427.1460, 16919.00
428.3380, 16969.00
429.5300, 16964.00
430.7220, 16936.00
431.9140, 16807.00
433.1050, 16956.00
434.2970, 16762.00
435.4880, 16995.00
436.6790, 17017.79
437.8700, 17141.49
439.0610, 17208.00
440.2510, 17489.00
441.4420, 17605.00
442.6320, 17771.00
443.8220, 17961.00
445.0120, 17998.00
446.2020, 18240.00
447.3910, 18283.00
448.5810, 18384.94
449.7700, 18684.00
450.9600, 18497.00
452.1490, 18670.00
453.3370, 18636.00
454.5260, 18626.00
455.7150, 18583.00
456.9030, 18290.00
458.0910, 18217.00
459.2800, 18340.00
460.4670, 18055.00
461.6550, 18106.00
462.8430, 17846.00
464.0300, 17919.00
465.2180, 17820.00
466.4050, 17786.00
467.5920, 17838.00
468.7790, 17724.00
469.9650, 17619.00
471.1520, 17427.00
472.3380, 17624.00
473.5250, 17381.00
474.7110, 17296.00
475.8970, 17050.00
477.0820, 17207.00
478.2680, 16809.00
479.4540, 16839.00
480.6390, 16439.00
481.8240, 16385.00
483.0090, 16242.00
484.1940, 16123.00
485.3780, 15829.00
486.5630, 15625.00
487.7470, 15686.00
488.9320, 15453.00
490.1160, 15527.00
491.3000, 15474.00
492.4830, 15520.00
493.6670, 15484.00
494.8500, 15643.00
496.0340, 15518.00
497.2170, 15455.00
498.4000, 15552.00
499.5820, 15666.00
500.7650, 15734.00
501.9480, 16008.00
503.1300, 16124.00
504.3120, 16140.00
505.4940, 16090.00
506.6760, 16550.00
507.8580, 16711.00
509.0390, 16969.00
510.2210, 17445.00
511.4020, 17715.00
512.5830, 18037.00
513.7640, 18216.00
514.9450, 18452.00
516.1250, 18864.00
517.3060, 19278.00
518.4860, 19439.00
519.6660, 19532.00
520.8460, 19522.00
522.0260, 19682.00
523.2060, 19670.00
524.3850, 19656.00
525.5650, 19541.00
526.7440, 19482.00
527.9230, 19440.00
529.1020, 19197.00
530.2810, 18942.00
531.4590, 18895.00
532.6380, 18840.00
533.8160, 18661.00
534.9940, 18796.00
536.1720, 18635.00
537.3500, 18619.00
538.5270, 18783.00
539.7050, 18705.00
540.8820, 18748.00
542.0590, 18748.00
543.2360, 18853.00
544.4130, 18876.00
545.5900, 18905.00
546.7660, 18839.00
547.9430, 19157.00
549.1190, 19026.00
550.2950, 19166.00
551.4710, 19060.00
552.6470, 19124.00
553.8220, 19033.00
554.9980, 19012.00
556.1730, 19007.00
557.3480, 19067.00
558.5230, 18980.00
559.6980, 19129.00
560.8730, 19243.00
562.0470, 19471.00
563.2220, 19354.00
564.3960, 19395.00
565.5700, 19606.00
566.7440, 19840.00
567.9170, 20090.00
569.0910, 20308.00
570.2640, 20439.00
571.4380, 20728.00
572.6110, 21072.00
573.7840, 21162.00
574.9570, 21574.00
576.1290, 21799.00
577.3020, 22051.00
578.4740, 22403.00
579.6460, 22771.00
580.8180, 23116.00
581.9900, 23616.00
583.1620, 23679.00
584.3330, 23965.00
585.5040, 24395.00
586.6760, 24613.00
587.8470, 24898.00
589.0180, 25274.00
590.1880, 25744.00
591.3590, 26033.00
592.5290, 26493.00
593.7000, 27082.00
594.8700, 27256.00
596.0400, 27941.00
597.2090, 28718.00
598.3790, 28832.00
599.5490, 29618.00
600.7180, 29865.00
601.8870, 30427.35
603.0560, 31084.00
604.2250, 31504.00
605.3940, 31962.00
606.5620, 32405.00
607.7300, 32925.00
608.8990, 33087.00
610.0670, 33373.49
611.2350, 33642.00
612.4020, 33752.00
613.5700, 34059.00
614.7370, 34429.00
615.9050, 34887.00
617.0720, 35422.86
618.2390, 36037.40
619.4060, 36788.00
620.5720, 37535.00
621.7390, 38538.00
622.9050, 39554.00
624.0710, 41130.00
625.2370, 42994.00
626.4030, 44661.00
627.5690, 46816.00
628.7340, 48989.00
629.9000, 51655.00
631.0650, 54095.00
632.2300, 56205.00
633.3950, 58530.00
634.5600, 58993.00
635.7240, 59179.00
636.8890, 58713.00
638.0530, 57751.00
639.2170, 56167.00
640.3810, 54702.00
641.5450, 52685.00
642.7080, 51405.00
643.8720, 49665.00
645.0350, 48373.00
646.1980, 46727.00
647.3610, 45584.00
648.5240, 44363.00
649.6870, 43196.00
650.8490, 42407.00
652.0120, 41477.00
653.1740, 40715.00
654.3360, 39846.00
655.4980, 38797.00
656.6600, 37711.93
657.8210, 36526.04
658.9830, 35255.00
660.1440, 33928.00
661.3050, 32631.00
662.4660, 31234.00
663.6270, 29850.00
664.7870, 28930.00
665.9480, 27356.00
667.1080, 26572.00
668.2680, 25306.00
669.4280, 24392.00
670.5880, 23376.00
671.7480, 22462.00
672.9070, 21616.00
674.0670, 20780.96
675.2260, 20000.07
676.3850, 19306.00
677.5440, 18574.00
678.7030, 17961.00
679.8610, 17400.00
681.0200, 16888.00
682.1780, 16458.00
683.3360, 16253.00
684.4940, 15846.00
685.6520, 15886.00
686.8090, 15947.00
687.9670, 15910.00
689.1240, 16024.00
690.2810, 16250.00
691.4380, 16430.00
692.5950, 16681.23
693.7520, 16908.00
694.9080, 17285.00
696.0650, 17737.00
697.2210, 18170.07
698.3770, 18569.41
699.5330, 18930.05
700.6880, 19361.00
701.8440, 19570.00
702.9990, 19885.00
704.1550, 20149.00
705.3100, 20162.00
706.4650, 20133.00
707.6190, 19947.00
708.7740, 19526.00
709.9290, 19037.00
711.0830, 18511.00
712.2370, 18189.00
713.3910, 17593.00
714.5450, 17064.00
715.6980, 16483.00
716.8520, 16047.00
718.0050, 15622.00
719.1580, 15222.00
720.3110, 14971.00
721.4640, 14719.92
722.6170, 14579.00
723.7700, 14464.00
724.9220, 14417.00
726.0740, 14474.00
727.2260, 14477.00
728.3780, 14451.00
729.5300, 14520.00
730.6810, 14354.00
731.8330, 14652.00
732.9840, 14671.00
734.1350, 14589.00
735.2860, 14550.53
736.4370, 14183.00
737.5880, 14185.00
738.7380, 14130.00
739.8880, 13929.00
741.0390, 13889.00
742.1890, 13547.00
743.3380, 13552.00
744.4880, 13536.00
745.6380, 13636.00
746.7870, 13562.00
747.9360, 13570.00
749.0850, 13625.75
750.2340, 13737.00
751.3830, 13767.00
752.5310, 13747.00
753.6800, 13924.00
754.8280, 13801.00
755.9760, 13796.30
757.1240, 13599.00
758.2720, 13563.00
759.4190, 13329.00
760.5670, 13012.00
761.7140, 12915.00
762.8610, 12777.00
764.0080, 12546.00
765.1550, 12458.00
766.3020, 12212.00
767.4480, 12226.00
768.5950, 12025.00
769.7410, 12052.00
770.8870, 12122.00
772.0330, 11818.00
773.1780, 11883.00
774.3240, 11907.00
775.4690, 11777.00
776.6140, 11844.00
777.7590, 11549.00
778.9040, 11689.00
780.0490, 11541.00
781.1940, 11553.00
782.3380, 11424.00
783.4820, 11282.00
784.6260, 11257.00
785.7700, 11134.00
786.9140, 11142.00
788.0580, 11056.00
789.2010, 10952.00
790.3450, 10816.00
791.4880, 10823.00
792.6310, 10843.00
793.7730, 10672.00
794.9160, 10613.00
796.0590, 10613.00
797.2010, 10564.00
798.3430, 10632.00
799.4850, 10603.53
800.6270, 10640.00
801.7690, 10587.00
802.9100, 10580.00
804.0520, 10531.00
805.1930, 10538.12
806.3340, 10580.00
807.4750, 10550.00
808.6160, 10605.00
809.7560, 10603.00
810.8970, 10354.00
812.0370, 10412.00
813.1770, 10277.00
814.3170, 10218.00
815.4570, 10187.00
816.5960, 10246.00
817.7360, 10157.00
818.8750, 10154.00
820.0140, 10080.00
821.1530, 10195.00
822.2920, 10079.00
823.4310, 10078.00
824.5690, 9974.000
825.7070, 10009.00
826.8460, 10002.00
827.9840, 10068.00
829.1220, 9891.000
830.2590, 9878.000
831.3970, 9935.000
832.5340, 9932.000
833.6710, 9909.000
834.8080, 9966.000
835.9450, 9912.130
837.0820, 9789.000
838.2190, 9851.000
839.3550, 9855.000
840.4910, 9846.000
841.6270, 9863.157
842.7630, 9781.000
843.8990, 9875.000
845.0350, 9798.000
846.1700, 9846.000
847.3060, 9798.000
848.4410, 9858.000
849.5760, 9877.000
850.7100, 9783.000
851.8450, 9846.000
852.9800, 9871.000
854.1140, 9942.000
855.2480, 9935.145
856.3820, 9996.000
857.5160, 9932.000
858.6500, 9977.000
859.7830, 10001.00
860.9170, 9905.000
862.0500, 9950.000
863.1830, 10017.00
864.3160, 9927.000
865.4480, 10023.00
866.5810, 9985.000
867.7130, 9924.000
868.8460, 10155.00
869.9780, 9961.000
871.1100, 10132.00
872.2410, 10089.00
873.3730, 9934.000
874.5050, 10067.00
875.6360, 10012.00
876.7670, 10112.00
877.8980, 10159.00
879.0290, 10073.00
880.1590, 10028.00
881.2900, 10213.00
882.4200, 10156.00
883.5500, 10185.00
884.6800, 10276.00
885.8100, 10246.00
886.9400, 10289.00
888.0690, 10278.00
889.1990, 10421.00
890.3280, 10290.00
891.4570, 10337.00
892.5860, 10497.00
893.7140, 10492.00
894.8430, 10596.00
895.9710, 10495.00
897.1000, 10477.00
898.2280, 10565.00
899.3560, 10610.00
900.4830, 10738.00
901.6110, 10675.00
902.7380, 10693.00
903.8660, 10782.00
904.9930, 10760.51
906.1200, 10893.00
907.2460, 10821.00
908.3730, 10847.00
909.5000, 10892.00
910.6260, 10909.00
911.7520, 11006.00
912.8780, 10969.00
914.0040, 11053.00
915.1290, 11087.00
916.2550, 11040.00
917.3800, 11104.14
918.5050, 11130.39
919.6300, 11171.00
920.7550, 11272.00
921.8800, 11364.00
923.0040, 11529.00
924.1290, 11421.00
925.2530, 11466.00
926.3770, 11594.00
927.5010, 11602.00
928.6250, 11779.00
929.7480, 11768.00
930.8720, 11896.31
931.9950, 12055.00
933.1180, 12091.00
934.2410, 12226.00
935.3640, 12276.00
936.4860, 12299.00
937.6090, 12285.00
938.7310, 12507.00
939.8530, 12527.00
940.9750, 12661.00
942.0970, 12786.00
943.2180, 12802.00
944.3400, 13064.00
945.4610, 13000.00
946.5820, 13018.00
947.7030, 13296.00
948.8240, 13281.00
949.9450, 13440.00
951.0650, 13586.00
952.1860, 13569.00
953.3060, 13779.00
954.4260, 13690.00
955.5460, 13807.00
956.6650, 13806.00
957.7850, 14157.00
958.9040, 14009.00
960.0230, 14160.00
961.1420, 14207.00
962.2610, 14098.00
963.3800, 14234.00
964.4990, 14263.00
965.6170, 14322.00
966.7350, 14335.00
967.8530, 14324.00
968.9710, 14378.71
970.0890, 14473.00
971.2070, 14474.00
972.3240, 14658.00
973.4410, 14769.00
974.5580, 14726.00
975.6750, 14690.00
976.7920, 14836.00
977.9090, 14829.00
979.0250, 14877.00
980.1410, 15070.00
981.2580, 14921.00
982.3740, 15003.00
983.4890, 15149.00
984.6050, 15238.00
985.7200, 15326.38
986.8360, 15357.00
987.9510, 15550.00
989.0660, 15627.00
990.1810, 15869.00
991.2950, 15777.00
992.4100, 16035.00
993.5240, 15940.00
994.6390, 16465.00
995.7530, 16409.00
996.8660, 16642.00
997.9800, 16657.00
999.0940, 16803.00
1000.207, 17076.00
1001.320, 17110.00
1002.433, 17155.00
1003.546, 17357.00
1004.659, 17266.00
1005.772, 17362.00
1006.884, 17413.00
1007.996, 17306.00
1009.108, 17322.00
1010.220, 17308.00
1011.332, 17105.00
1012.444, 16938.00
1013.555, 16853.00
1014.666, 16760.00
1015.777, 16517.00
1016.888, 16438.00
1017.999, 16389.00
1019.110, 16317.00
1020.220, 16134.00
1021.331, 15831.00
1022.441, 15742.91
1023.551, 15639.00
1024.661, 15419.00
1025.770, 15322.00
1026.880, 15146.00
1027.989, 15040.00
1029.098, 14939.28
1030.207, 14827.46
1031.316, 14758.00
1032.425, 14648.00
1033.533, 14560.00
1034.642, 14459.61
1035.750, 14418.84
1036.858, 14332.00
1037.966, 14376.00
1039.073, 14379.00
1040.181, 14406.00
1041.288, 14507.00
1042.396, 14301.00
1043.503, 14431.00
1044.610, 14625.00
1045.716, 14869.00
1046.823, 15015.00
1047.929, 15195.60
1049.036, 15353.54
1050.142, 15468.00
1051.248, 15653.00
1052.353, 15720.00
1053.459, 15907.00
1054.564, 16170.00
1055.670, 16292.00
1056.775, 16269.00
1057.880, 16526.00
1058.985, 16443.00
1060.089, 16270.00
1061.194, 16180.00
1062.298, 16094.00
1063.402, 15776.00
1064.506, 15633.00
1065.610, 15707.00
1066.713, 15307.00
1067.817, 15346.00
1068.920, 14943.00
1070.023, 14857.00
1071.126, 14749.00
1072.229, 14508.00
1073.332, 14347.00
1074.435, 14259.00
1075.537, 14159.00
1076.639, 14085.00
1077.741, 14001.00
1078.843, 13884.91
1079.945, 13767.00
1081.046, 13708.74
1082.148, 13611.07
1083.249, 13646.00
1084.350, 13603.00
1085.451, 13529.77
1086.551, 13479.00
1087.652, 13409.00
1088.752, 13391.00
1089.853, 13383.00
1090.953, 13610.00
1092.053, 13420.00
1093.152, 13290.00
1094.252, 13481.00
1095.351, 13272.00
1096.451, 13336.00
1097.550, 13575.00
1098.649, 13559.00
1099.748, 13614.00
1100.846, 13550.00
1101.945, 13738.00
1103.043, 13629.00
1104.141, 13719.00
1105.239, 13642.00
1106.337, 13875.00
1107.434, 13681.00
1108.532, 13688.00
1109.629, 13612.00
1110.726, 13482.00
1111.823, 13490.00
1112.920, 13596.00
1114.017, 13488.00
1115.113, 13664.00
1116.210, 13430.00
1117.306, 13485.00
1118.402, 13437.00
1119.498, 13284.00
1120.593, 13232.00
1121.689, 13177.00
1122.784, 13068.00
1123.879, 13052.00
1124.974, 12974.00
1126.069, 12972.00
1127.164, 12852.00
1128.259, 12627.00
1129.353, 12530.00
1130.447, 12533.00
1131.541, 12439.00
1132.635, 12459.00
1133.729, 12365.00
1134.822, 12309.00
1135.916, 12231.00
1137.009, 12249.00
1138.102, 12274.00
1139.195, 12141.00
1140.288, 12103.00
1141.380, 12161.00
1142.473, 12263.00
1143.565, 12189.00
1144.657, 12095.00
1145.749, 12053.00
1146.841, 12022.00
1147.932, 12024.00
1149.024, 11951.00
1150.115, 11848.00
1151.206, 11970.00
1152.297, 12008.00
1153.388, 12163.00
1154.479, 11962.00
1155.569, 12023.00
1156.659, 11905.00
1157.750, 12041.00
1158.839, 12059.00
1159.929, 12001.00
1161.019, 12064.00
1162.108, 12096.00
1163.198, 12176.00
1164.287, 12047.00
1165.376, 11994.00
1166.465, 12133.00
1167.553, 11920.00
1168.642, 12026.00
1169.730, 12118.00
1170.818, 12180.00
1171.906, 12148.00
1172.994, 12173.00
1174.082, 12077.00
1175.170, 12196.00
1176.257, 12098.00
1177.344, 12141.00
1178.431, 12193.00
1179.518, 12227.00
1180.605, 12125.00
1181.691, 12135.00
1182.778, 12207.00
1183.864, 12064.00
1184.950, 12162.00
1186.036, 12253.00
1187.122, 12182.00
1188.207, 12171.00
1189.292, 12222.00
1190.378, 12223.00
1191.463, 12186.00
1192.548, 12375.00
1193.632, 12408.00
1194.717, 12413.00
1195.801, 12441.00
1196.886, 12395.00
1197.970, 12344.00
1199.054, 12351.00
1200.137, 12345.98
1201.221, 12377.71
1202.305, 12391.00
1203.388, 12424.87
1204.471, 12460.87
1205.554, 12509.00
1206.637, 12552.00
1207.719, 12605.00
1208.802, 12674.00
1209.884, 12682.04
1210.966, 12530.00
1212.048, 12725.00
1213.130, 12692.00
1214.212, 12752.00
1215.293, 12952.00
1216.374, 12942.89
1217.456, 12917.00
1218.536, 13030.00
1219.617, 13096.00
1220.698, 13048.00
1221.778, 13148.00
1222.859, 13219.35
1223.939, 13361.00
1225.019, 13412.00
1226.099, 13518.00
1227.178, 13585.00
1228.258, 13704.00
1229.337, 13804.77
1230.417, 13857.09
1231.496, 14005.00
1232.574, 14208.00
1233.653, 14268.00
1234.732, 14409.20
1235.810, 14680.00
1236.888, 14619.00
1237.966, 14707.00
1239.044, 14837.00
1240.122, 15034.00
1241.199, 15063.00
1242.277, 15346.00
1243.354, 15279.00
1244.431, 15326.00
1245.508, 15452.00
1246.585, 15549.00
1247.661, 15687.00
1248.738, 15774.00
1249.814, 15848.00
1250.890, 15797.00
1251.966, 15961.00
1253.042, 15949.00
1254.117, 16165.00
1255.193, 16216.00
1256.268, 16432.00
1257.343, 16345.00
1258.418, 16525.00
1259.493, 16490.00
1260.567, 16658.00
1261.642, 16711.00
1262.716, 16921.00
1263.790, 16831.00
1264.864, 16833.00
1265.938, 16817.00
1267.011, 16837.00
1268.085, 16827.00
1269.158, 16858.24
1270.231, 16834.00
1271.304, 16907.00
1272.377, 16940.00
1273.450, 16925.00
1274.522, 16961.00
1275.594, 17045.00
1276.666, 17148.00
1277.738, 17344.00
1278.810, 17602.00
1279.882, 17869.00
1280.953, 18116.00
1282.025, 18423.00
1283.096, 18650.00
1284.167, 18945.00
1285.238, 19069.49
1286.308, 19323.00
1287.379, 19240.00
1288.449, 19277.00
1289.519, 19250.00
1290.589, 19244.00
1291.659, 18885.00
1292.729, 18862.00
1293.798, 18691.00
1294.868, 18426.00
1295.937, 18287.00
1297.006, 18286.00
1298.075, 18025.00
1299.143, 18120.00
1300.212, 17889.00
1301.280, 17783.00
1302.348, 17803.00
1303.416, 17744.66
1304.484, 17985.00
1305.552, 17838.00
1306.620, 17917.00
1307.687, 18013.00
1308.754, 17951.00
1309.821, 18079.00
1310.888, 17923.00
1311.955, 17912.00
1313.021, 17946.00
1314.088, 17765.00
1315.154, 17625.00
1316.220, 17564.00
1317.286, 17513.00
1318.352, 17405.00
1319.417, 17277.00
1320.483, 17111.00
1321.548, 17104.00
1322.613, 16911.00
1323.678, 16956.00
1324.743, 16755.00
1325.807, 16631.00
1326.872, 16675.00
1327.936, 16630.00
1329.000, 16695.00
1330.064, 16458.00
1331.128, 16545.00
1332.191, 16353.00
1333.255, 16412.00
1334.318, 16450.00
1335.381, 16391.00
1336.444, 16330.00
1337.507, 16426.00
1338.569, 16180.00
1339.632, 16273.00
1340.694, 16282.00
1341.756, 16298.00
1342.818, 16132.00
1343.880, 16069.00
1344.941, 16064.00
1346.003, 16258.00
1347.064, 16156.00
1348.125, 16186.00
1349.186, 16245.00
1350.247, 16205.00
1351.308, 16286.00
1352.368, 16325.00
1353.428, 16152.00
1354.489, 16190.00
1355.549, 16177.00
1356.608, 16150.00
1357.668, 16119.00
1358.727, 16065.00
1359.787, 16104.00
1360.846, 15997.00
1361.905, 15901.00
1362.964, 15663.00
1364.022, 15714.00
1365.081, 15918.00
1366.139, 15922.00
1367.197, 15712.00
1368.255, 15674.00
1369.313, 15701.00
1370.371, 15556.00
1371.428, 15505.00
1372.486, 15449.00
1373.543, 15312.00
1374.600, 15295.00
1375.657, 15099.00
1376.713, 15127.00
1377.770, 15024.00
1378.826, 15063.00
1379.882, 15057.00
1380.938, 15083.00
1381.994, 14958.00
1383.050, 14894.00
1384.106, 14908.00
1385.161, 14845.99
1386.216, 14918.00
1387.271, 14805.00
1388.326, 14964.00
1389.381, 14924.00
1390.435, 14917.00
1391.490, 14816.00
1392.544, 14794.00
1393.598, 14720.00
1394.652, 14901.00
1395.705, 14859.00
1396.759, 14972.00
1397.812, 14895.00
1398.866, 14816.00
1399.919, 14861.00
1400.972, 14724.00
1402.024, 14950.00
1403.077, 14861.00
1404.129, 14628.00
1405.181, 14835.00
1406.233, 14831.00
1407.285, 14891.00
1408.337, 14736.00
1409.389, 14574.00
1410.440, 14686.00
1411.491, 14667.00
1412.542, 14733.00
1413.593, 14633.00
1414.644, 14572.00
1415.695, 14551.00
1416.745, 14499.00
1417.795, 14468.41
1418.845, 14392.00
1419.895, 14430.00
1420.945, 14403.00
1421.995, 14430.00
1423.044, 14453.00
1424.093, 14448.00
1425.142, 14556.74
1426.191, 14348.00
1427.240, 14394.01
1428.289, 14270.00
1429.337, 14394.00
1430.385, 14226.00
1431.433, 14393.00
1432.481, 14381.00
1433.529, 14382.00
1434.577, 14376.00
1435.624, 14425.00
1436.672, 14352.00
1437.719, 14480.00
1438.766, 14467.00
1439.812, 14388.00
1440.859, 14500.00
1441.905, 14459.03
1442.952, 14316.00
1443.998, 14421.00
1445.044, 14470.00
1446.090, 14319.00
1447.135, 14458.00
1448.181, 14396.00
1449.226, 14500.00
1450.271, 14576.00
1451.316, 14406.00
1452.361, 14361.00
1453.405, 14492.00
1454.450, 14540.00
1455.494, 14472.00
1456.538, 14502.00
1457.582, 14493.00
1458.626, 14439.00
1459.670, 14460.00
1460.713, 14451.06
1461.757, 14457.43
1462.800, 14473.00
1463.843, 14504.00
1464.886, 14523.00
1465.928, 14567.00
1466.971, 14663.00
1468.013, 14648.00
1469.055, 14684.00
1470.097, 14531.00
1471.139, 14556.00
1472.181, 14603.00
1473.222, 14594.00
1474.263, 14595.00
1475.305, 14691.00
1476.346, 14687.00
1477.386, 14705.00
1478.427, 14811.00
1479.468, 14751.00
1480.508, 14736.00
1481.548, 14690.00
1482.588, 14703.35
1483.628, 14745.00
1484.668, 14776.00
1485.707, 14711.00
1486.747, 14808.00
1487.786, 14756.00
1488.825, 14912.00
1489.864, 14775.00
1490.902, 15072.00
1491.941, 14900.00
1492.979, 14807.00
1494.017, 14941.00
1495.055, 14905.00
1496.093, 14870.00
1497.131, 14932.00
1498.168, 14981.00
1499.206, 15038.00
1500.243, 15016.00
1501.280, 15057.00
1502.317, 15064.00
1503.354, 15083.00
1504.390, 15065.00
1505.426, 15059.00
1506.463, 15175.00
1507.499, 15156.00
1508.535, 15178.00
1509.570, 15186.00
1510.606, 15102.00
1511.641, 15269.00
1512.676, 15612.00
1513.711, 16465.00
1514.746, 15218.00
1515.781, 14907.00
1516.816, 15353.00
1517.850, 15862.00
1518.884, 15705.00
1519.918, 15265.00
1520.952, 15534.00
1521.986, 15259.41
1523.019, 15239.54
1524.053, 15168.00
1525.086, 15151.00
1526.119, 15171.46
1527.152, 15152.00
1528.185, 15263.00
1529.217, 15291.00
1530.250, 15382.00
1531.282, 15309.14
1532.314, 15246.00
1533.346, 15164.00
1534.377, 15217.00
1535.409, 15231.00
1536.440, 15233.00
1537.472, 15255.00
1538.503, 15331.00
1539.534, 15399.00
1540.564, 15330.00
1541.595, 15365.00
1542.625, 15208.00
1543.656, 15358.00
1544.686, 15216.00
1545.716, 15515.00
1546.745, 15287.00
1547.775, 15329.00
1548.804, 15491.00
1549.834, 15446.00
1550.863, 15655.00
1551.892, 15525.00
1552.920, 15796.00
1553.949, 15905.00
1554.977, 16091.00
1556.006, 15764.00
1557.034, 15559.00
1558.062, 15469.00
1559.089, 15514.00
1560.117, 15525.00
1561.144, 15466.00
1562.172, 15533.00
1563.199, 15546.00
1564.226, 15653.00
1565.252, 15457.00
1566.279, 15709.00
1567.305, 15555.00
1568.332, 15631.00
1569.358, 15615.00
1570.384, 15826.00
##END=



