##NAMES=Fluorite
##RRUFFID=R040099
##IDEAL CHEMISTRY=CaF_2_
##LOCALITY=Rock Candy mine, Grand Forks, British Columbia, Canada
##OWNER=RRUFF
##SOURCE=Bob Downs
##DESCRIPTION=Pale purple fragment
##STATUS=The identification of this mineral has been confirmed by X-ray diffraction and chemical analysis
##URL=rruff.info/R040099
##MEASURED CHEMISTRY=Ca_0.99_F_2.00_
##PIN_ID=L01716
##ORIENTATION=Laser parallel to a* (1 0 0). Fiducial mark perpendicular to laser is parallel to -c [0 0 -1]
61.07900, 568.0000
62.32000, 549.0000
63.56100, 564.0000
64.80100, 606.0000
66.04100, 618.0000
67.28100, 678.0000
68.52100, 690.0000
69.76100, 737.0000
71.00100, 820.0000
72.24000, 824.0000
73.47900, 921.0000
74.71800, 993.0000
75.95700, 1077.000
77.19600, 1181.000
78.43500, 1256.356
79.67300, 1402.000
80.91200, 1432.000
82.15000, 1505.000
83.38800, 1601.000
84.62600, 1740.000
85.86300, 1792.000
87.10100, 1860.000
88.33800, 1878.000
89.57500, 1974.000
90.81200, 2055.000
92.04900, 2075.000
93.28600, 2156.407
94.52300, 2225.000
95.75900, 2269.000
96.99500, 2363.000
98.23100, 2433.000
99.46700, 2438.000
100.7030, 2475.000
101.9390, 2538.000
103.1740, 2608.000
104.4090, 2560.000
105.6440, 2600.000
106.8790, 2645.000
108.1140, 2737.000
109.3490, 2703.000
110.5830, 2718.000
111.8180, 2743.000
113.0520, 2719.000
114.2860, 2804.000
115.5200, 2805.000
116.7530, 2817.000
117.9870, 2846.000
119.2200, 2781.000
120.4530, 2768.000
121.6860, 2746.000
122.9190, 2655.000
124.1520, 2727.000
125.3850, 2706.000
126.6170, 2644.000
127.8490, 2580.000
129.0810, 2607.000
130.3130, 2588.000
131.5450, 2666.000
132.7770, 2582.000
134.0080, 2628.000
135.2390, 2626.000
136.4710, 2776.000
137.7020, 2936.000
138.9320, 3170.000
140.1630, 3450.000
141.3930, 3733.000
142.6240, 3821.000
143.8540, 4071.000
145.0840, 4236.000
146.3140, 4524.000
147.5440, 4921.000
148.7730, 4786.000
150.0020, 4354.000
151.2320, 3794.000
152.4610, 3361.000
153.6900, 3044.000
154.9180, 2747.000
156.1470, 2739.000
157.3750, 2700.000
158.6040, 2574.000
159.8320, 2526.000
161.0600, 2604.000
162.2870, 2567.000
163.5150, 2632.000
164.7420, 2679.000
165.9700, 2641.000
167.1970, 2651.000
168.4240, 2664.000
169.6510, 2636.301
170.8770, 2638.000
172.1040, 2601.000
173.3300, 2520.000
174.5560, 2487.000
175.7820, 2481.000
177.0080, 2438.000
178.2340, 2466.000
179.4590, 2431.000
180.6850, 2399.000
181.9100, 2329.000
183.1350, 2383.000
184.3600, 2384.000
185.5850, 2460.000
186.8090, 2552.000
188.0340, 2555.000
189.2580, 2687.000
190.4820, 2730.000
191.7060, 2796.000
192.9300, 2923.000
194.1530, 2861.000
195.3770, 2884.000
196.6000, 2857.000
197.8230, 2792.000
199.0460, 2785.000
200.2690, 2736.000
201.4910, 2804.000
202.7140, 2837.000
203.9360, 2782.000
205.1580, 2768.000
206.3800, 2739.000
207.6020, 2701.622
208.8240, 2600.000
210.0450, 2644.000
211.2670, 2638.000
212.4880, 2626.000
213.7090, 2710.000
214.9300, 2638.000
216.1510, 2708.000
217.3710, 2732.000
218.5920, 2758.000
219.8120, 2823.000
221.0320, 2843.000
222.2520, 2963.000
223.4720, 3130.000
224.6910, 3317.000
225.9110, 3338.000
227.1300, 3365.000
228.3490, 3395.000
229.5680, 3259.000
230.7870, 3239.000
232.0050, 3111.000
233.2240, 3153.000
234.4420, 3202.000
235.6600, 3164.000
236.8780, 3156.000
238.0960, 3158.000
239.3140, 3224.000
240.5310, 3421.000
241.7490, 3543.000
242.9660, 3680.000
244.1830, 3751.000
245.4000, 3647.000
246.6160, 3444.000
247.8330, 3278.000
249.0490, 3216.312
250.2660, 3009.000
251.4820, 3098.000
252.6980, 3085.000
253.9130, 3047.000
255.1290, 2953.000
256.3440, 2878.000
257.5600, 2875.000
258.7750, 2991.000
259.9900, 3170.000
261.2040, 3511.000
262.4190, 3812.000
263.6330, 4001.000
264.8480, 4262.000
266.0620, 3700.000
267.2760, 3223.000
268.4900, 2919.000
269.7030, 2821.000
270.9170, 2737.000
272.1300, 2699.000
273.3430, 2713.000
274.5560, 2631.000
275.7690, 2626.000
276.9820, 2620.000
278.1940, 2604.024
279.4070, 2617.018
280.6190, 2607.000
281.8310, 2640.000
283.0430, 2616.000
284.2550, 2625.000
285.4660, 2682.000
286.6770, 2641.000
287.8890, 2687.000
289.1000, 2730.000
290.3110, 2684.000
291.5210, 2749.000
292.7320, 2785.000
293.9420, 2749.000
295.1530, 2757.000
296.3630, 2821.000
297.5730, 2766.000
298.7830, 2885.000
299.9920, 2900.000
301.2020, 2919.000
302.4110, 2867.000
303.6200, 2822.000
304.8290, 2952.000
306.0380, 2898.000
307.2470, 2960.000
308.4550, 3013.000
309.6630, 3103.000
310.8720, 3160.000
312.0800, 3214.000
313.2880, 3299.000
314.4950, 3439.000
315.7030, 3638.000
316.9100, 3905.000
318.1170, 4198.000
319.3240, 4563.000
320.5310, 4960.000
321.7380, 5408.000
322.9450, 5539.000
324.1510, 5542.000
325.3570, 5326.000
326.5630, 4872.000
327.7690, 4522.000
328.9750, 4271.000
330.1810, 4074.000
331.3860, 3919.000
332.5910, 3910.000
333.7960, 3753.000
335.0010, 3759.000
336.2060, 3756.000
337.4110, 3687.000
338.6150, 3785.000
339.8200, 3743.000
341.0240, 3807.000
342.2280, 3828.000
343.4320, 3847.000
344.6350, 3979.000
345.8390, 4013.000
347.0420, 3968.000
348.2450, 4081.000
349.4480, 4145.000
350.6510, 4208.000
351.8540, 4306.000
353.0560, 4335.000
354.2590, 4384.000
355.4610, 4547.000
356.6630, 4545.000
357.8650, 4525.000
359.0670, 4643.000
360.2680, 4715.000
361.4700, 4752.000
362.6710, 4774.000
363.8720, 4768.000
365.0730, 4750.000
366.2740, 4714.000
367.4740, 4705.000
368.6750, 4669.000
369.8750, 4550.000
371.0750, 4552.000
372.2750, 4549.000
373.4750, 4394.000
374.6740, 4379.000
375.8740, 4340.000
377.0730, 4390.000
378.2720, 4202.000
379.4710, 4248.000
380.6700, 4227.000
381.8690, 4169.000
383.0670, 4178.000
384.2660, 4102.000
385.4640, 4061.000
386.6620, 4043.000
387.8600, 3958.000
389.0570, 3899.000
390.2550, 3868.612
391.4520, 3805.000
392.6490, 3794.000
393.8460, 3759.000
395.0430, 3717.000
396.2400, 3688.000
397.4370, 3683.000
398.6330, 3629.000
399.8290, 3600.000
401.0250, 3621.000
402.2210, 3601.000
403.4170, 3501.000
404.6130, 3451.000
405.8080, 3469.000
407.0030, 3378.000
408.1980, 3437.000
409.3930, 3422.000
410.5880, 3399.000
411.7830, 3340.000
412.9770, 3274.000
414.1720, 3360.000
415.3660, 3393.000
416.5600, 3297.000
417.7530, 3308.000
418.9470, 3407.000
420.1410, 3358.000
421.3340, 3283.000
422.5270, 3325.000
423.7200, 3301.000
424.9130, 3303.000
426.1060, 3338.000
427.2980, 3336.000
428.4900, 3297.000
429.6830, 3322.000
430.8750, 3302.000
432.0670, 3318.540
433.2580, 3336.000
434.4500, 3381.000
435.6410, 3405.000
436.8320, 3484.000
438.0240, 3421.000
439.2140, 3435.000
440.4050, 3412.000
441.5960, 3461.000
442.7860, 3521.000
443.9760, 3544.000
445.1670, 3539.000
446.3560, 3635.000
447.5460, 3523.000
448.7360, 3627.000
449.9250, 3654.000
451.1150, 3567.000
452.3040, 3580.000
453.4930, 3598.000
454.6810, 3555.000
455.8700, 3586.000
457.0590, 3642.000
458.2470, 3697.000
459.4350, 3619.000
460.6230, 3625.000
461.8110, 3645.000
462.9980, 3733.000
464.1860, 3776.000
465.3730, 3754.000
466.5600, 3870.000
467.7470, 3856.000
468.9340, 3871.000
470.1210, 3910.000
471.3080, 3931.000
472.4940, 3945.000
473.6800, 3971.000
474.8660, 3969.000
476.0520, 4028.000
477.2380, 3972.000
478.4230, 3969.000
479.6090, 3933.000
480.7940, 3999.000
481.9790, 4008.000
483.1640, 4005.000
484.3490, 3991.000
485.5330, 4027.000
486.7180, 4034.000
487.9020, 4065.000
489.0860, 4171.000
490.2700, 4204.000
491.4540, 4193.000
492.6370, 4211.000
493.8210, 4163.000
495.0040, 4206.000
496.1870, 4261.000
497.3700, 4119.000
498.5530, 4114.000
499.7360, 4002.000
500.9180, 4079.000
502.1000, 3978.000
503.2830, 3891.000
504.4650, 3870.000
505.6460, 3817.000
506.8280, 3776.995
508.0100, 3774.000
509.1910, 3713.000
510.3720, 3739.000
511.5530, 3713.000
512.7340, 3643.000
513.9150, 3676.000
515.0950, 3653.000
516.2760, 3612.000
517.4560, 3625.000
518.6360, 3618.000
519.8160, 3634.000
520.9950, 3587.000
522.1750, 3566.000
523.3540, 3524.000
524.5340, 3541.000
525.7130, 3462.000
526.8920, 3554.000
528.0700, 3474.000
529.2490, 3593.000
530.4270, 3489.000
531.6060, 3525.000
532.7840, 3550.000
533.9620, 3528.000
535.1390, 3610.000
536.3170, 3502.000
537.4940, 3535.000
538.6720, 3568.000
539.8490, 3625.000
541.0260, 3673.000
542.2030, 3682.000
543.3790, 3677.000
544.5560, 3737.000
545.7320, 3760.000
546.9080, 3740.000
548.0840, 3727.000
549.2600, 3699.000
550.4360, 3810.000
551.6110, 3781.000
552.7860, 3806.000
553.9620, 3818.000
555.1370, 3822.000
556.3110, 3848.000
557.4860, 3853.000
558.6610, 3928.000
559.8350, 3960.000
561.0090, 3968.000
562.1830, 3981.000
563.3570, 4009.987
564.5310, 4036.000
565.7040, 4058.000
566.8780, 4076.000
568.0510, 4093.000
569.2240, 4053.000
570.3970, 3997.000
571.5700, 4105.000
572.7420, 4172.000
573.9150, 4183.000
575.0870, 4101.000
576.2590, 4137.000
577.4310, 4127.000
578.6030, 4169.000
579.7740, 4231.000
580.9460, 4117.000
582.1170, 4124.000
583.2880, 4054.000
584.4590, 4089.000
585.6300, 4042.000
586.8010, 4027.000
587.9710, 4000.000
589.1410, 3970.000
590.3110, 4020.000
591.4810, 4001.000
592.6510, 4027.000
593.8210, 4008.000
594.9900, 3944.000
596.1600, 3940.000
597.3290, 3899.000
598.4980, 3996.000
599.6670, 3900.000
600.8350, 3958.000
602.0040, 3901.000
603.1720, 3859.000
604.3400, 3867.000
605.5080, 3945.000
606.6760, 3898.806
607.8440, 3922.619
609.0120, 3900.000
610.1790, 3889.000
611.3460, 3937.000
612.5130, 3877.000
613.6800, 3862.000
614.8470, 3877.000
616.0130, 3936.000
617.1800, 4008.000
618.3460, 3930.000
619.5120, 4541.000
620.6780, 3956.000
621.8440, 3965.000
623.0090, 4970.000
624.1750, 3982.000
625.3400, 3876.000
626.5050, 3900.000
627.6700, 3877.000
628.8350, 3894.000
629.9990, 3894.000
631.1640, 3833.000
632.3280, 3869.000
633.4920, 3735.000
634.6560, 3718.000
635.8200, 3747.000
636.9840, 3786.000
638.1470, 3827.000
639.3100, 3782.000
640.4730, 3769.000
641.6360, 3755.000
642.7990, 3768.965
643.9620, 3782.730
645.1240, 3825.000
646.2870, 3847.000
647.4490, 3876.000
648.6110, 3929.000
649.7730, 3930.492
650.9340, 3920.000
652.0960, 3965.000
653.2570, 3943.000
654.4180, 3992.000
655.5790, 4063.000
656.7400, 4066.000
657.9010, 4087.000
659.0620, 4296.000
660.2220, 4267.000
661.3820, 4400.000
662.5420, 4524.000
663.7020, 4643.000
664.8620, 4740.000
666.0210, 4974.000
667.1810, 5175.000
668.3400, 5244.000
669.4990, 5298.000
670.6580, 5221.000
671.8170, 5251.000
672.9750, 5280.000
674.1340, 5268.000
675.2920, 5306.000
676.4500, 5264.000
677.6080, 5322.000
678.7660, 5438.000
679.9230, 5558.000
681.0810, 5589.000
682.2380, 5789.000
683.3950, 5858.000
684.5520, 6030.000
685.7090, 6294.000
686.8660, 6463.000
688.0220, 6645.755
689.1780, 6818.000
690.3340, 6978.513
691.4900, 7109.000
692.6460, 7274.435
693.8020, 7365.428
694.9570, 7463.000
696.1130, 7483.000
697.2680, 7485.000
698.4230, 7459.000
699.5780, 7614.000
700.7320, 7873.000
701.8870, 7984.000
703.0410, 8221.000
704.1950, 8449.000
705.3490, 8448.000
706.5030, 8750.000
707.6570, 8709.000
708.8110, 8661.000
709.9640, 8770.000
711.1170, 8615.737
712.2700, 8508.881
713.4230, 8358.000
714.5760, 8108.000
715.7280, 7895.000
716.8810, 7601.000
718.0330, 7427.000
719.1850, 7209.629
720.3370, 7036.000
721.4890, 6841.000
722.6400, 6637.000
723.7920, 6477.000
724.9430, 6321.000
726.0940, 6227.000
727.2450, 6182.000
728.3960, 6040.000
729.5460, 5953.000
730.6970, 5817.000
731.8470, 5764.138
732.9970, 5693.000
734.1470, 5680.000
735.2970, 5658.000
736.4460, 5645.000
737.5960, 5610.000
738.7450, 5600.445
739.8940, 5473.000
741.0430, 5568.000
742.1920, 5431.000
743.3410, 5396.000
744.4890, 5440.000
745.6370, 5340.000
746.7850, 5321.000
747.9330, 5291.000
749.0810, 5308.000
750.2290, 5352.000
751.3760, 5423.000
752.5240, 5358.000
753.6710, 5403.000
754.8180, 5499.000
755.9650, 5488.000
757.1110, 5528.000
758.2580, 5521.000
759.4040, 5481.000
760.5510, 5540.000
761.6970, 5482.000
762.8420, 5456.000
763.9880, 5419.000
765.1340, 5435.000
766.2790, 5394.000
767.4240, 5418.000
768.5690, 5439.000
769.7140, 5381.000
770.8590, 5429.000
772.0030, 5577.000
773.1480, 5677.000
774.2920, 5697.000
775.4360, 5594.000
776.5800, 5744.000
777.7240, 5859.000
778.8670, 5992.000
780.0110, 6095.000
781.1540, 6132.000
782.2970, 6209.960
783.4400, 6194.000
784.5830, 6289.000
785.7250, 6319.000
786.8680, 6354.000
788.0100, 6396.000
789.1520, 6526.000
790.2940, 6616.000
791.4360, 6646.000
792.5780, 6811.000
793.7190, 6896.000
794.8600, 6921.000
796.0010, 6982.000
797.1420, 7029.960
798.2830, 7068.000
799.4240, 7112.000
800.5640, 7151.000
801.7050, 7178.000
802.8450, 7359.000
803.9850, 7382.000
805.1250, 7430.000
806.2640, 7464.000
807.4040, 7412.000
808.5430, 7590.000
809.6820, 7551.000
810.8210, 7729.000
811.9600, 7758.000
813.0990, 7788.000
814.2370, 7795.000
815.3760, 7937.000
816.5140, 8036.000
817.6520, 8044.000
818.7900, 8142.000
819.9270, 8304.000
821.0650, 8301.000
822.2020, 8428.000
823.3390, 8449.000
824.4760, 8427.000
825.6130, 8606.000
826.7500, 8705.000
827.8870, 8764.000
829.0230, 8899.000
830.1590, 9104.000
831.2950, 9584.000
832.4310, 9914.000
833.5670, 10670.00
834.7030, 11731.00
835.8380, 12850.00
836.9730, 13603.00
838.1080, 13480.00
839.2430, 13498.00
840.3780, 13965.00
841.5130, 14625.00
842.6470, 15252.00
843.7810, 15274.00
844.9150, 14802.00
846.0490, 13612.00
847.1830, 12767.00
848.3170, 12174.00
849.4500, 11936.00
850.5830, 12033.00
851.7160, 12167.00
852.8490, 11902.00
853.9820, 10999.00
855.1150, 9974.000
856.2470, 9030.000
857.3800, 8151.000
858.5120, 7560.000
859.6440, 7077.000
860.7760, 6569.000
861.9070, 6276.000
863.0390, 6131.000
864.1700, 5887.000
865.3010, 5695.000
866.4320, 5616.000
867.5630, 5518.000
868.6940, 5421.000
869.8240, 5322.000
870.9540, 5290.000
872.0850, 5364.000
873.2150, 5296.000
874.3450, 5345.000
875.4740, 5248.000
876.6040, 5387.000
877.7330, 5377.000
878.8620, 5490.000
879.9910, 5522.000
881.1200, 5556.000
882.2490, 5509.000
883.3770, 5562.000
884.5060, 5556.000
885.6340, 5498.000
886.7620, 5593.000
887.8900, 5511.000
889.0180, 5451.000
890.1450, 5579.000
891.2730, 5633.000
892.4000, 5896.000
893.5270, 6033.000
894.6540, 6360.000
895.7810, 6517.000
896.9070, 6785.000
898.0340, 6927.000
899.1600, 6817.000
900.2860, 6725.000
901.4120, 6530.000
902.5380, 6489.000
903.6630, 6475.000
904.7890, 6632.000
905.9140, 6920.000
907.0390, 7214.000
908.1640, 8266.000
909.2890, 9759.000
910.4130, 12881.00
911.5380, 17664.00
912.6620, 21935.00
913.7860, 21325.00
914.9100, 17738.00
916.0340, 14724.00
917.1580, 13298.00
918.2810, 13472.00
919.4040, 13873.00
920.5280, 15385.00
921.6510, 17923.00
922.7730, 19937.00
923.8960, 19432.00
925.0180, 17824.00
926.1410, 18223.00
927.2630, 21505.00
928.3850, 24584.00
929.5070, 24249.00
930.6280, 20878.00
931.7500, 17985.00
932.8710, 16287.00
933.9920, 15154.00
935.1130, 14358.00
936.2340, 14611.00
937.3550, 17075.00
938.4760, 19432.00
939.5960, 18453.00
940.7160, 15318.00
941.8360, 12857.00
942.9560, 11890.00
944.0760, 12174.00
945.1950, 14054.00
946.3150, 18038.00
947.4340, 25541.00
948.5530, 33569.00
949.6720, 35322.00
950.7900, 28936.00
951.9090, 20973.00
953.0270, 15042.00
954.1460, 12123.00
955.2640, 10809.00
956.3820, 9863.000
957.4990, 9553.000
958.6170, 9369.000
959.7340, 9389.000
960.8520, 9441.000
961.9690, 9592.000
963.0860, 9652.000
964.2020, 9858.000
965.3190, 9869.000
966.4350, 10041.00
967.5520, 9931.000
968.6680, 10002.00
969.7840, 9654.000
970.8990, 9543.000
972.0150, 9325.000
973.1310, 9069.000
974.2460, 8813.000
975.3610, 8549.000
976.4760, 8443.000
977.5910, 8221.000
978.7050, 8219.000
979.8200, 8051.000
980.9340, 7971.000
982.0480, 8004.000
983.1620, 7900.000
984.2760, 7851.000
985.3900, 7871.000
986.5030, 7906.000
987.6160, 7893.000
988.7300, 7986.000
989.8430, 7976.000
990.9550, 7930.000
992.0680, 8046.000
993.1810, 8062.000
994.2930, 8220.000
995.4050, 8205.000
996.5170, 8321.000
997.6290, 8346.000
998.7410, 8474.000
999.8520, 8623.000
1000.964, 8711.000
1002.075, 8780.000
1003.186, 8942.000
1004.297, 9062.000
1005.407, 9246.000
1006.518, 9337.000
1007.628, 9504.609
1008.738, 9668.000
1009.848, 9879.000
1010.958, 10020.00
1012.068, 10355.00
1013.178, 10432.00
1014.287, 10523.00
1015.396, 10939.00
1016.505, 10961.00
1017.614, 11061.00
1018.723, 11382.00
1019.831, 11481.00
1020.940, 11549.00
1022.048, 11910.00
1023.156, 12017.00
1024.264, 12271.00
1025.372, 12247.00
1026.479, 12739.00
1027.587, 12877.00
1028.694, 13194.00
1029.801, 13458.00
1030.908, 13522.00
1032.015, 13703.00
1033.121, 13730.00
1034.228, 13702.00
1035.334, 13679.00
1036.440, 13968.00
1037.546, 13797.00
1038.652, 13870.00
1039.758, 13966.00
1040.863, 13759.00
1041.968, 14126.00
1043.074, 14012.00
1044.178, 14216.00
1045.283, 14315.00
1046.388, 14231.00
1047.492, 14396.00
1048.597, 14447.00
1049.701, 14593.00
1050.805, 14468.00
1051.909, 14354.00
1053.012, 14353.00
1054.116, 14187.00
1055.219, 14297.00
1056.322, 14094.00
1057.425, 14017.00
1058.528, 13979.00
1059.631, 13751.00
1060.733, 13705.00
1061.836, 13480.00
1062.938, 13379.00
1064.040, 13146.00
1065.142, 13141.00
1066.243, 13041.00
1067.345, 12974.00
1068.446, 12899.00
1069.547, 12480.00
1070.648, 12691.00
1071.749, 12413.00
1072.850, 12340.00
1073.951, 12334.00
1075.051, 12182.00
1076.151, 12312.00
1077.251, 12103.00
1078.351, 12054.00
1079.451, 11880.00
1080.550, 11719.00
1081.650, 11628.00
1082.749, 11403.00
1083.848, 11297.00
1084.947, 11130.00
1086.046, 11028.00
1087.144, 11021.00
1088.243, 11081.00
1089.341, 10917.00
1090.439, 10847.00
1091.537, 10853.00
1092.635, 10767.00
1093.732, 10683.00
1094.830, 10628.00
1095.927, 10612.00
1097.024, 10500.00
1098.121, 10518.00
1099.218, 10348.00
1100.314, 10375.00
1101.411, 10412.00
1102.507, 10574.00
1103.603, 10292.00
1104.699, 10331.00
1105.795, 10220.00
1106.890, 10296.00
1107.986, 10377.00
1109.081, 10281.00
1110.176, 10502.00
1111.271, 10501.00
1112.366, 10634.00
1113.461, 10776.00
1114.555, 10865.00
1115.649, 10978.00
1116.744, 10896.00
1117.838, 10984.00
1118.931, 11059.00
1120.025, 11104.00
1121.119, 11440.00
1122.212, 11596.00
1123.305, 11845.00
1124.398, 12201.00
1125.491, 12241.00
1126.584, 12483.00
1127.676, 12638.00
1128.768, 12684.00
1129.861, 12917.00
1130.953, 13057.00
1132.044, 13276.00
1133.136, 13500.00
1134.228, 13892.00
1135.319, 14100.00
1136.410, 14703.00
1137.501, 14953.00
1138.592, 15527.00
1139.683, 15877.00
1140.773, 16232.00
1141.864, 16667.00
1142.954, 17109.00
1144.044, 17328.00
1145.134, 17579.00
1146.224, 17679.00
1147.313, 18086.00
1148.402, 18290.00
1149.492, 18489.00
1150.581, 18397.00
1151.670, 18644.00
1152.758, 18569.00
1153.847, 18167.00
1154.935, 18248.00
1156.024, 17875.00
1157.112, 17553.00
1158.200, 17454.00
1159.287, 17549.00
1160.375, 17565.00
1161.462, 17074.00
1162.550, 17377.00
1163.637, 17068.00
1164.724, 17070.00
1165.810, 16807.00
1166.897, 16632.00
1167.983, 16777.00
1169.070, 16517.00
1170.156, 16390.00
1171.242, 16132.00
1172.327, 16018.00
1173.413, 15764.00
1174.499, 15483.00
1175.584, 15337.00
1176.669, 14910.00
1177.754, 14602.00
1178.839, 14362.00
1179.923, 13914.00
1181.008, 13749.00
1182.092, 13378.00
1183.176, 13174.00
1184.260, 12925.00
1185.344, 12733.00
1186.428, 12741.00
1187.511, 12340.00
1188.595, 12200.00
1189.678, 12012.00
1190.761, 12072.00
1191.843, 12159.00
1192.926, 11830.00
1194.009, 11888.00
1195.091, 11465.00
1196.173, 11701.00
1197.255, 11662.00
1198.337, 11365.00
1199.419, 11439.00
1200.500, 11253.00
1201.582, 11230.00
1202.663, 11163.00
1203.744, 11285.00
1204.825, 11282.00
1205.905, 11340.00
1206.986, 11271.00
1208.066, 11168.00
1209.146, 11293.00
1210.226, 11287.00
1211.306, 11456.00
1212.386, 11429.00
1213.466, 11520.00
1214.545, 11585.00
1215.624, 11630.00
1216.703, 11731.00
1217.782, 11792.00
1218.861, 11657.00
1219.939, 11966.00
1221.018, 11840.00
1222.096, 11964.00
1223.174, 12097.00
1224.252, 11993.00
1225.330, 12234.00
1226.407, 12213.00
1227.485, 12258.00
1228.562, 12407.00
1229.639, 12395.00
1230.716, 12427.00
1231.793, 12618.00
1232.869, 12575.00
1233.946, 12559.00
1235.022, 12704.00
1236.098, 12718.77
1237.174, 12837.00
1238.250, 12950.00
1239.325, 13080.70
1240.401, 13427.00
1241.476, 13448.00
1242.551, 13705.00
1243.626, 13977.00
1244.701, 13977.00
1245.776, 14468.00
1246.850, 14643.00
1247.924, 14879.00
1248.999, 14999.00
1250.073, 15248.00
1251.146, 15599.00
1252.220, 15710.00
1253.293, 15882.00
1254.367, 16224.00
1255.440, 16250.00
1256.513, 16447.00
1257.586, 16407.00
1258.658, 16457.00
1259.731, 16462.00
1260.803, 16456.00
1261.875, 16416.00
1262.947, 16503.00
1264.019, 16447.00
1265.091, 16194.00
1266.162, 16136.00
1267.234, 16159.00
1268.305, 16213.00
1269.376, 16046.00
1270.447, 16201.00
1271.517, 15959.00
1272.588, 16196.00
1273.658, 16292.00
1274.729, 16354.00
1275.799, 16349.00
1276.868, 16376.00
1277.938, 16484.00
1279.008, 16382.00
1280.077, 16571.00
1281.146, 16738.00
1282.215, 16753.00
1283.284, 16947.00
1284.353, 16870.00
1285.421, 17286.00
1286.490, 17378.00
1287.558, 17558.00
1288.626, 17848.00
1289.694, 17836.00
1290.762, 17988.00
1291.829, 18122.00
1292.897, 18258.00
1293.964, 18450.00
1295.031, 18139.00
1296.098, 18288.00
1297.165, 18064.00
1298.231, 17984.00
1299.298, 17728.00
1300.364, 17622.00
1301.430, 17125.00
1302.496, 17065.00
1303.562, 16702.00
1304.627, 16385.00
1305.693, 16223.00
1306.758, 16061.00
1307.823, 15682.00
1308.888, 15704.00
1309.953, 15558.00
1311.018, 15347.00
1312.082, 15606.00
1313.146, 15461.00
1314.210, 15570.00
1315.274, 15582.11
1316.338, 15657.00
1317.402, 15541.00
1318.465, 15478.00
1319.529, 15402.00
1320.592, 15269.38
1321.655, 15137.70
1322.718, 15009.00
1323.780, 14752.00
1324.843, 14604.00
1325.905, 14289.00
1326.967, 13940.00
1328.029, 13945.00
1329.091, 13447.00
1330.153, 13268.00
1331.214, 13122.00
1332.275, 12947.00
1333.337, 12731.00
1334.398, 12567.00
1335.458, 12404.00
1336.519, 12203.00
1337.580, 12111.00
1338.640, 11998.00
1339.700, 11736.00
1340.760, 11670.00
1341.820, 11445.00
1342.880, 11409.00
1343.939, 11374.00
1344.999, 11082.00
1346.058, 11066.00
1347.117, 10982.00
1348.176, 11007.00
1349.235, 10916.00
1350.293, 11032.00
1351.351, 11313.00
1352.410, 11288.00
1353.468, 11717.00
1354.526, 12216.00
1355.583, 12598.00
1356.641, 13574.00
1357.698, 14623.00
1358.756, 16529.00
1359.813, 18187.00
1360.869, 19617.00
1361.926, 20289.00
1362.983, 19316.00
1364.039, 17789.00
1365.095, 15813.00
1366.152, 14126.00
1367.207, 12759.00
1368.263, 11722.00
1369.319, 11226.00
1370.374, 10664.00
1371.430, 10247.00
1372.485, 10142.00
1373.540, 10075.00
1374.594, 10097.00
1375.649, 10281.00
1376.703, 10482.00
1377.758, 10773.00
1378.812, 10984.00
1379.866, 11346.00
1380.920, 11436.00
1381.973, 11896.00
1383.027, 12423.00
1384.080, 12992.00
1385.133, 13900.00
1386.186, 14594.00
1387.239, 15120.00
1388.291, 15055.00
1389.344, 14287.00
1390.396, 13629.00
1391.448, 13050.00
1392.500, 13093.00
1393.552, 13469.00
1394.604, 14253.00
1395.655, 14894.00
1396.707, 15006.00
1397.758, 14252.00
1398.809, 13013.00
1399.860, 11661.00
1400.910, 10567.00
1401.961, 9604.000
1403.011, 8997.000
1404.061, 8520.000
1405.111, 8189.000
1406.161, 7880.000
1407.211, 7706.000
1408.260, 7596.000
1409.310, 7403.000
1410.359, 7388.000
1411.408, 7127.000
1412.457, 7210.000
1413.506, 7146.000
1414.554, 7175.000
1415.603, 7074.000
1416.651, 7243.000
1417.699, 7201.000
1418.747, 7162.000
1419.794, 7263.000
1420.842, 7356.000
1421.889, 7565.000
1422.937, 7690.000
1423.984, 7975.000
1425.031, 8428.000
1426.077, 8694.000
1427.124, 9069.000
1428.170, 9000.000
1429.217, 8754.000
1430.263, 8764.000
1431.309, 8233.000
1432.354, 8163.000
1433.400, 7985.000
1434.445, 7912.000
1435.491, 7903.000
1436.536, 7983.000
1437.581, 8030.000
1438.625, 8123.000
1439.670, 8540.000
1440.714, 8917.000
1441.759, 9201.000
1442.803, 9722.000
1443.847, 10158.00
1444.890, 10854.00
1445.934, 11412.00
1446.978, 11773.00
1448.021, 12037.00
1449.064, 11810.00
1450.107, 11495.00
1451.150, 10900.00
1452.192, 10552.00
1453.235, 10219.00
1454.277, 10068.00
1455.319, 9949.000
1456.361, 9998.000
1457.403, 10062.00
1458.445, 10097.00
1459.486, 10332.00
1460.528, 10708.00
1461.569, 11081.00
1462.610, 11338.00
1463.651, 11563.53
1464.691, 11715.00
1465.732, 11853.00
1466.772, 11853.00
1467.812, 11906.00
1468.852, 11846.00
1469.892, 11820.00
1470.932, 11775.00
1471.971, 12110.00
1473.011, 12072.00
1474.050, 12128.00
1475.089, 12416.00
1476.128, 12415.00
1477.166, 12469.00
1478.205, 12608.00
1479.243, 12785.00
1480.282, 12814.00
1481.320, 13137.00
1482.357, 13252.00
1483.395, 13442.00
1484.433, 13453.00
1485.470, 13470.00
1486.507, 13782.00
1487.544, 13754.00
1488.581, 13861.00
1489.618, 14181.00
1490.655, 14154.00
1491.691, 14376.00
1492.727, 14258.00
1493.763, 14441.00
1494.799, 14530.00
1495.835, 14737.00
1496.871, 14824.00
1497.906, 14810.00
1498.941, 14907.00
1499.976, 15140.00
1501.011, 15048.00
1502.046, 15423.00
1503.081, 15506.00
1504.115, 15687.00
1505.149, 15781.00
1506.183, 16089.00
1507.217, 16247.28
1508.251, 16409.00
1509.285, 16699.00
1510.318, 16827.00
1511.352, 17085.00
1512.385, 16981.00
1513.418, 17178.00
1514.450, 17200.00
1515.483, 16997.00
1516.516, 16772.00
1517.548, 16653.00
1518.580, 16248.00
1519.612, 15965.00
1520.644, 15730.00
1521.675, 15565.00
1522.707, 15243.00
1523.738, 15246.00
1524.769, 14969.00
1525.800, 14754.00
1526.831, 14537.00
1527.862, 14377.00
1528.892, 14301.00
1529.923, 14106.00
1530.953, 14120.00
1531.983, 13933.00
1533.013, 13913.00
1534.042, 13889.00
1535.072, 13644.00
1536.101, 13783.00
1537.131, 13768.00
1538.160, 13676.00
1539.188, 13832.00
1540.217, 13763.00
1541.246, 13813.00
1542.274, 13801.00
1543.302, 13859.00
1544.330, 13872.00
1545.358, 13837.00
1546.386, 13976.00
1547.413, 14129.00
1548.441, 14326.00
1549.468, 14378.00
1550.495, 14442.00
1551.522, 14346.00
1552.549, 14718.00
1553.575, 14535.00
1554.602, 14798.00
1555.628, 14973.00
1556.654, 15109.00
1557.680, 15302.00
1558.706, 15463.00
1559.731, 15901.00
1560.757, 15894.00
1561.782, 16010.00
1562.807, 16467.00
1563.832, 16820.00
1564.857, 17274.00
1565.881, 17476.00
1566.906, 17953.00
1567.930, 18202.00
1568.954, 18514.00
1569.978, 18943.00
1571.002, 19120.00
1572.025, 19423.00
1573.049, 19430.00
1574.072, 19629.00
1575.095, 19570.00
1576.118, 19423.00
1577.141, 19446.00
##END=



