##NAMES=Fluorapatite
##RRUFFID=R040098
##IDEAL CHEMISTRY=Ca_5_(PO_4_)_3_F
##LOCALITY=Cerro de Mercado mine, Durango, Mexico
##OWNER=RRUFF
##SOURCE=Marcus Origlieri
##DESCRIPTION=Pale yellow short hexagonal prism
##STATUS=The identification of this mineral has been confirmed by X-ray diffraction and chemical analysis
##URL=rruff.info/R040098
##MEASURED CHEMISTRY=Ca_5.00_((P_0.98_Si_0.01_S_0.01_)O_4_)_3_F_1.00_
##PIN_ID=M00032
##ORIENTATION=Laser parallel to [-1 -1 0]. Fiducial mark perpendicular to laser is parallel to c [0 0 1]
59.67900, 2343.000
60.92500, 2526.000
62.17000, 2509.000
63.41600, 2273.000
64.66100, 1960.000
65.90700, 1791.000
67.15200, 1812.000
68.39700, 2009.000
69.64100, 2150.000
70.88600, 2079.000
72.13000, 1885.000
73.37400, 1763.000
74.61800, 1852.000
75.86200, 2005.000
77.10600, 2046.000
78.34900, 2022.000
79.59300, 1936.000
80.83600, 1875.000
82.07900, 1831.000
83.32100, 1750.000
84.56400, 1652.000
85.80600, 1591.000
87.04800, 1586.000
88.29000, 1563.000
89.53200, 1633.000
90.77400, 1579.000
92.01500, 1562.000
93.25700, 1628.000
94.49800, 1581.000
95.73900, 1644.000
96.98000, 1666.000
98.22000, 1662.000
99.46100, 1611.000
100.7010, 1645.000
101.9410, 1665.000
103.1810, 1638.000
104.4210, 1680.000
105.6600, 1584.000
106.9000, 1627.000
108.1390, 1600.000
109.3780, 1628.000
110.6170, 1640.000
111.8550, 1642.000
113.0940, 1763.000
114.3320, 1957.000
115.5700, 2086.000
116.8080, 2038.000
118.0460, 2019.000
119.2830, 1978.000
120.5210, 1889.000
121.7580, 1748.000
122.9950, 1689.000
124.2320, 1638.000
125.4690, 1688.000
126.7050, 1677.000
127.9410, 1718.000
129.1780, 1731.000
130.4140, 1813.000
131.6490, 1870.000
132.8850, 1902.000
134.1200, 2037.000
135.3560, 2158.000
136.5910, 2401.000
137.8260, 2496.000
139.0610, 2642.000
140.2950, 2635.000
141.5290, 2532.000
142.7640, 2458.000
143.9980, 2295.000
145.2320, 2158.000
146.4650, 2082.000
147.6990, 2028.000
148.9320, 1950.000
150.1650, 1967.000
151.3980, 1999.000
152.6310, 2018.000
153.8640, 2100.000
155.0960, 2158.000
156.3280, 2237.000
157.5600, 2301.000
158.7920, 2289.355
160.0240, 2238.000
161.2560, 2239.000
162.4870, 2208.000
163.7180, 2167.000
164.9490, 2141.000
166.1800, 2126.000
167.4110, 2126.000
168.6410, 2118.000
169.8720, 2048.000
171.1020, 2079.000
172.3320, 2014.000
173.5620, 2003.000
174.7910, 2045.000
176.0210, 1898.000
177.2500, 1927.000
178.4790, 1908.000
179.7080, 1912.000
180.9370, 1915.498
182.1650, 1826.000
183.3940, 1894.000
184.6220, 1856.000
185.8500, 1801.000
187.0780, 1866.000
188.3050, 1825.000
189.5330, 1807.000
190.7600, 1845.000
191.9870, 1775.000
193.2140, 1798.000
194.4410, 1841.000
195.6680, 1863.000
196.8940, 1860.116
198.1200, 1912.000
199.3470, 1864.000
200.5720, 1828.000
201.7980, 1878.000
203.0240, 1888.000
204.2490, 1907.000
205.4740, 1888.000
206.6990, 1949.000
207.9240, 1953.000
209.1490, 2048.000
210.3740, 1949.000
211.5980, 2026.000
212.8220, 1996.000
214.0460, 2011.000
215.2700, 1989.000
216.4930, 2034.000
217.7170, 2008.000
218.9400, 1995.000
220.1630, 2030.000
221.3860, 2036.000
222.6090, 1997.000
223.8320, 2053.000
225.0540, 2050.000
226.2760, 2080.000
227.4980, 2117.000
228.7200, 2147.000
229.9420, 2139.000
231.1630, 2247.000
232.3850, 2214.000
233.6060, 2264.000
234.8270, 2299.000
236.0480, 2297.299
237.2690, 2397.000
238.4890, 2270.000
239.7090, 2290.000
240.9290, 2159.000
242.1490, 2192.000
243.3690, 2208.000
244.5890, 2136.000
245.8080, 2135.000
247.0270, 2097.000
248.2470, 2122.000
249.4650, 2126.000
250.6840, 2161.000
251.9030, 2169.189
253.1210, 2121.000
254.3390, 2195.000
255.5570, 2212.000
256.7750, 2224.000
257.9930, 2296.000
259.2100, 2350.000
260.4280, 2391.000
261.6450, 2492.000
262.8620, 2569.000
264.0790, 2796.000
265.2950, 2907.000
266.5120, 2996.000
267.7280, 3024.000
268.9440, 2993.000
270.1600, 2935.000
271.3760, 2812.000
272.5920, 2677.000
273.8070, 2661.000
275.0220, 2534.000
276.2370, 2476.000
277.4520, 2437.000
278.6670, 2412.000
279.8820, 2371.000
281.0960, 2399.000
282.3100, 2367.000
283.5240, 2341.000
284.7380, 2251.000
285.9520, 2326.000
287.1650, 2283.000
288.3780, 2242.000
289.5920, 2345.000
290.8050, 2308.000
292.0170, 2360.000
293.2300, 2310.000
294.4430, 2316.000
295.6550, 2345.000
296.8670, 2350.000
298.0790, 2420.000
299.2910, 2380.000
300.5020, 2492.000
301.7140, 2451.000
302.9250, 2466.000
304.1360, 2552.000
305.3470, 2560.000
306.5580, 2655.000
307.7680, 2643.000
308.9780, 2646.000
310.1890, 2718.000
311.3990, 2765.000
312.6090, 2658.000
313.8180, 2660.000
315.0280, 2606.000
316.2370, 2623.000
317.4460, 2487.000
318.6550, 2421.000
319.8640, 2465.000
321.0730, 2451.000
322.2810, 2441.000
323.4890, 2452.000
324.6980, 2406.000
325.9060, 2411.000
327.1130, 2451.000
328.3210, 2339.000
329.5280, 2317.000
330.7360, 2365.000
331.9430, 2353.000
333.1500, 2374.000
334.3560, 2349.000
335.5630, 2388.000
336.7690, 2331.000
337.9760, 2420.000
339.1820, 2356.000
340.3870, 2370.000
341.5930, 2427.000
342.7990, 2453.000
344.0040, 2398.000
345.2090, 2447.000
346.4140, 2397.000
347.6190, 2388.184
348.8240, 2289.363
350.0280, 2385.000
351.2330, 2330.000
352.4370, 2396.000
353.6410, 2380.980
354.8440, 2384.648
356.0480, 2382.000
357.2520, 2371.000
358.4550, 2440.000
359.6580, 2383.000
360.8610, 2464.000
362.0640, 2427.000
363.2660, 2351.000
364.4690, 2376.000
365.6710, 2465.000
366.8730, 2396.000
368.0750, 2430.000
369.2770, 2453.000
370.4780, 2465.000
371.6800, 2450.000
372.8810, 2665.000
374.0820, 2597.881
375.2830, 2606.421
376.4830, 2602.000
377.6840, 2526.000
378.8840, 2520.000
380.0840, 2505.000
381.2840, 2543.000
382.4840, 2518.000
383.6840, 2485.000
384.8830, 2546.000
386.0830, 2493.000
387.2820, 2605.000
388.4810, 2481.000
389.6800, 2551.000
390.8780, 2577.000
392.0770, 2543.000
393.2750, 2521.000
394.4730, 2568.000
395.6710, 2534.000
396.8690, 2585.000
398.0660, 2563.000
399.2640, 2527.000
400.4610, 2598.000
401.6580, 2608.000
402.8550, 2637.000
404.0520, 2672.000
405.2490, 2644.000
406.4450, 2673.000
407.6410, 2648.000
408.8370, 2706.000
410.0330, 2699.000
411.2290, 2703.000
412.4240, 2686.000
413.6200, 2754.000
414.8150, 2801.000
416.0100, 2741.000
417.2050, 2811.000
418.4000, 2795.000
419.5940, 2779.000
420.7880, 2810.000
421.9830, 2871.000
423.1770, 2902.883
424.3700, 2994.000
425.5640, 3056.000
426.7580, 3082.000
427.9510, 3232.000
429.1440, 3165.000
430.3370, 3238.000
431.5300, 3357.000
432.7220, 3373.000
433.9150, 3428.000
435.1070, 3502.000
436.2990, 3487.000
437.4910, 3694.000
438.6830, 3672.000
439.8750, 3892.000
441.0660, 3834.000
442.2570, 4055.000
443.4480, 4195.000
444.6390, 4289.000
445.8300, 4409.000
447.0210, 4461.000
448.2110, 4482.000
449.4010, 4512.000
450.5910, 4373.847
451.7810, 4226.000
452.9710, 4088.000
454.1610, 3968.739
455.3500, 3864.000
456.5390, 3743.000
457.7280, 3625.000
458.9170, 3522.000
460.1060, 3484.000
461.2940, 3444.000
462.4830, 3376.000
463.6710, 3327.000
464.8590, 3293.000
466.0470, 3234.686
467.2350, 3239.000
468.4220, 3161.000
469.6090, 3134.000
470.7970, 3145.000
471.9840, 3124.000
473.1700, 3069.000
474.3570, 3106.000
475.5440, 3108.000
476.7300, 3189.000
477.9160, 3160.557
479.1020, 3163.000
480.2880, 3134.000
481.4740, 3132.000
482.6590, 3126.000
483.8440, 3127.000
485.0300, 3128.231
486.2140, 3127.135
487.3990, 3123.000
488.5840, 3143.000
489.7680, 3116.000
490.9530, 3151.000
492.1370, 3070.000
493.3210, 3151.000
494.5040, 3089.000
495.6880, 3106.000
496.8720, 3181.000
498.0550, 3192.000
499.2380, 3203.000
500.4210, 3246.000
501.6040, 3187.000
502.7860, 3181.000
503.9690, 3193.764
505.1510, 3178.872
506.3330, 3183.000
507.5150, 3195.000
508.6970, 3135.000
509.8780, 3135.000
511.0600, 3267.000
512.2410, 3260.000
513.4220, 3194.000
514.6030, 3133.000
515.7840, 3186.000
516.9640, 3259.000
518.1440, 3295.000
519.3250, 3247.000
520.5050, 3215.000
521.6850, 3283.000
522.8640, 3299.000
524.0440, 3273.000
525.2230, 3251.000
526.4020, 3329.000
527.5820, 3389.000
528.7600, 3506.000
529.9390, 3484.679
531.1180, 3492.678
532.2960, 3425.000
533.4740, 3419.000
534.6520, 3406.409
535.8300, 3398.242
537.0080, 3397.000
538.1850, 3395.000
539.3630, 3405.000
540.5400, 3411.907
541.7170, 3420.000
542.8940, 3443.000
544.0700, 3446.000
545.2470, 3475.000
546.4230, 3469.663
547.5990, 3503.000
548.7750, 3472.000
549.9510, 3458.000
551.1270, 3478.000
552.3020, 3550.000
553.4780, 3523.000
554.6530, 3565.776
555.8280, 3583.000
557.0030, 3589.000
558.1770, 3613.000
559.3520, 3590.000
560.5260, 3605.000
561.7000, 3657.000
562.8740, 3636.000
564.0480, 3626.000
565.2220, 3666.000
566.3950, 3658.000
567.5680, 3761.000
568.7420, 3722.000
569.9150, 3785.000
571.0870, 3910.000
572.2600, 3918.000
573.4320, 4002.000
574.6050, 4140.000
575.7770, 4373.411
576.9490, 4660.000
578.1210, 5037.000
579.2920, 5476.000
580.4640, 5966.000
581.6350, 6101.000
582.8060, 5848.000
583.9770, 5457.000
585.1480, 4998.000
586.3190, 4659.000
587.4890, 4526.000
588.6590, 4506.000
589.8290, 4523.000
590.9990, 4545.000
592.1690, 4466.000
593.3390, 4509.000
594.5080, 4301.000
595.6770, 4228.000
596.8470, 4272.000
598.0160, 4153.000
599.1840, 4182.000
600.3530, 4308.000
601.5210, 4396.000
602.6900, 4435.000
603.8580, 4737.000
605.0260, 5176.000
606.1930, 5516.000
607.3610, 5724.000
608.5280, 5668.000
609.6960, 5389.000
610.8630, 5040.000
612.0300, 4763.000
613.1970, 4675.000
614.3630, 4565.000
615.5300, 4634.000
616.6960, 4679.000
617.8620, 4625.000
619.0280, 4575.000
620.1940, 4492.000
621.3590, 4331.000
622.5250, 4315.000
623.6900, 4203.000
624.8550, 4155.000
626.0200, 4173.000
627.1850, 4134.000
628.3490, 4061.000
629.5140, 4030.000
630.6780, 4022.801
631.8420, 4122.000
633.0060, 4045.000
634.1700, 4065.000
635.3330, 4102.000
636.4970, 4090.000
637.6600, 4098.000
638.8230, 4126.929
639.9860, 4250.000
641.1490, 4165.000
642.3110, 4229.000
643.4740, 4225.000
644.6360, 4223.000
645.7980, 4252.000
646.9600, 4314.000
648.1220, 4353.000
649.2840, 4393.000
650.4450, 4350.000
651.6060, 4399.000
652.7670, 4508.000
653.9280, 4439.000
655.0890, 4515.485
656.2500, 4450.000
657.4100, 4519.000
658.5700, 4560.000
659.7300, 4457.000
660.8900, 4536.000
662.0500, 4533.000
663.2100, 4411.209
664.3690, 4456.627
665.5280, 4477.849
666.6880, 4476.166
667.8460, 4383.028
669.0050, 4408.000
670.1640, 4385.635
671.3220, 4361.337
672.4810, 4390.000
673.6390, 4459.000
674.7970, 4404.000
675.9540, 4394.000
677.1120, 4438.000
678.2690, 4369.000
679.4270, 4448.000
680.5840, 4383.000
681.7410, 4489.000
682.8980, 4390.000
684.0540, 4495.000
685.2110, 4412.000
686.3670, 4436.000
687.5230, 4494.000
688.6790, 4504.000
689.8350, 4535.000
690.9900, 4508.000
692.1460, 4545.000
693.3010, 4473.000
694.4560, 4544.000
695.6110, 4547.000
696.7660, 4627.000
697.9210, 4542.000
699.0750, 4645.000
700.2290, 4596.000
701.3840, 4574.000
702.5370, 4598.000
703.6910, 4592.000
704.8450, 4662.000
705.9980, 4624.000
707.1520, 4658.000
708.3050, 4712.000
709.4580, 4703.000
710.6110, 4656.726
711.7630, 4745.713
712.9160, 4798.411
714.0680, 4816.759
715.2200, 4697.899
716.3720, 4756.215
717.5240, 4743.527
718.6760, 4727.928
719.8270, 4811.176
720.9780, 4712.268
722.1300, 4793.953
723.2810, 4803.545
724.4310, 4846.125
725.5820, 4861.942
726.7330, 4814.000
727.8830, 4861.000
729.0330, 4830.000
730.1830, 4804.000
731.3330, 4898.000
732.4830, 4847.000
733.6320, 4857.000
734.7810, 4897.000
735.9310, 4834.000
737.0800, 5027.000
738.2290, 4904.000
739.3770, 5191.000
740.5260, 5057.912
741.6740, 5004.000
742.8220, 4896.000
743.9700, 5020.000
745.1180, 4987.000
746.2660, 5062.000
747.4130, 5028.547
748.5610, 5078.000
749.7080, 5012.000
750.8550, 4957.000
752.0020, 5109.000
753.1490, 5000.000
754.2950, 5074.000
755.4420, 5082.000
756.5880, 4989.000
757.7340, 5068.000
758.8800, 5114.000
760.0250, 5082.000
761.1710, 5133.000
762.3160, 5045.000
763.4620, 5150.000
764.6070, 5194.000
765.7520, 5208.756
766.8960, 5307.000
768.0410, 5256.000
769.1850, 5246.000
770.3300, 5173.000
771.4740, 5211.000
772.6180, 5287.000
773.7610, 5158.000
774.9050, 5211.000
776.0480, 5318.000
777.1920, 5308.000
778.3350, 5421.000
779.4780, 5203.000
780.6200, 5325.000
781.7630, 5367.000
782.9060, 5400.000
784.0480, 5508.000
785.1900, 5402.000
786.3320, 5377.000
787.4740, 5362.000
788.6150, 5459.000
789.7570, 5458.495
790.8980, 5462.000
792.0390, 5586.000
793.1800, 5427.000
794.3210, 5549.000
795.4620, 5537.000
796.6020, 5496.000
797.7420, 5559.000
798.8830, 5516.000
800.0230, 5600.000
801.1620, 5547.000
802.3020, 5580.000
803.4420, 5660.000
804.5810, 5569.000
805.7200, 5665.000
806.8590, 5643.000
807.9980, 5681.000
809.1370, 5672.000
810.2750, 5663.000
811.4140, 5643.000
812.5520, 5613.000
813.6900, 5616.000
814.8280, 5613.789
815.9650, 5637.727
817.1030, 5623.000
818.2400, 5696.000
819.3780, 5682.000
820.5150, 5679.000
821.6520, 5809.000
822.7880, 5702.000
823.9250, 5852.000
825.0610, 5818.000
826.1980, 5802.000
827.3340, 5831.000
828.4700, 5891.000
829.6050, 5803.000
830.7410, 5938.000
831.8760, 5856.000
833.0120, 5926.000
834.1470, 5970.000
835.2820, 5867.000
836.4160, 5852.000
837.5510, 5856.771
838.6860, 6054.000
839.8200, 5932.000
840.9540, 5872.000
842.0880, 6057.000
843.2220, 5948.000
844.3550, 6061.000
845.4890, 6063.000
846.6220, 6115.000
847.7550, 6162.777
848.8880, 6111.000
850.0210, 6206.000
851.1540, 6218.000
852.2860, 6180.000
853.4190, 6241.000
854.5510, 6248.000
855.6830, 6232.000
856.8150, 6282.219
857.9460, 6369.000
859.0780, 6332.000
860.2090, 6358.000
861.3410, 6364.250
862.4720, 6358.000
863.6020, 6422.000
864.7330, 6421.000
865.8640, 6451.000
866.9940, 6400.000
868.1240, 6517.000
869.2540, 6557.000
870.3840, 6391.000
871.5140, 6471.000
872.6440, 6583.000
873.7730, 6450.000
874.9020, 6429.000
876.0320, 6467.000
877.1600, 6462.000
878.2890, 6505.000
879.4180, 6517.000
880.5460, 6493.000
881.6750, 6623.000
882.8030, 6567.000
883.9310, 6600.000
885.0590, 6510.000
886.1860, 6526.000
887.3140, 6583.000
888.4410, 6563.378
889.5680, 6592.000
890.6950, 6615.000
891.8220, 6625.000
892.9490, 6647.000
894.0750, 6602.000
895.2020, 6712.000
896.3280, 6595.000
897.4540, 6748.000
898.5800, 6639.000
899.7050, 6696.000
900.8310, 6740.000
901.9560, 6655.000
903.0820, 6701.000
904.2070, 6690.000
905.3320, 6808.000
906.4560, 6876.000
907.5810, 6797.000
908.7050, 6790.000
909.8300, 6885.000
910.9540, 6875.000
912.0780, 6914.000
913.2010, 6984.000
914.3250, 6839.397
915.4480, 6987.385
916.5720, 7087.015
917.6950, 7140.818
918.8180, 7011.677
919.9410, 7118.771
921.0630, 7131.161
922.1860, 7139.702
923.3080, 7167.042
924.4300, 7121.000
925.5520, 7146.000
926.6740, 7148.000
927.7960, 7109.000
928.9170, 7141.000
930.0390, 7160.791
931.1600, 7195.000
932.2810, 7235.000
933.4020, 7277.750
934.5230, 7411.000
935.6430, 7399.000
936.7640, 7417.000
937.8840, 7517.000
939.0040, 7488.000
940.1240, 7508.000
941.2440, 7654.000
942.3630, 7712.000
943.4830, 7901.000
944.6020, 7924.000
945.7210, 8115.000
946.8400, 8305.000
947.9590, 8422.000
949.0770, 8620.000
950.1960, 8974.000
951.3140, 9268.000
952.4320, 9381.000
953.5500, 9718.000
954.6680, 10180.00
955.7860, 11152.00
956.9030, 12399.00
958.0210, 14647.00
959.1380, 17594.00
960.2550, 22259.00
961.3720, 29366.00
962.4890, 38351.00
963.6050, 46819.00
964.7220, 51177.00
965.8380, 47923.00
966.9540, 39903.00
968.0700, 30993.00
969.1860, 23669.00
970.3010, 18861.00
971.4170, 15825.00
972.5320, 13735.00
973.6470, 12028.00
974.7620, 11160.00
975.8770, 10332.00
976.9910, 9660.000
978.1060, 9224.000
979.2200, 8915.000
980.3340, 8661.000
981.4480, 8648.000
982.5620, 8370.000
983.6760, 8518.000
984.7890, 8474.000
985.9030, 8223.000
987.0160, 8328.000
988.1290, 8464.000
989.2420, 8189.000
990.3550, 8155.000
991.4670, 8166.000
992.5800, 8155.000
993.6920, 8071.000
994.8040, 8129.000
995.9160, 8242.000
997.0280, 8047.000
998.1390, 8184.000
999.2510, 8332.000
1000.362, 8152.000
1001.473, 8235.000
1002.584, 8396.000
1003.695, 8418.000
1004.805, 8694.000
1005.916, 8818.000
1007.026, 8523.000
1008.136, 8785.000
1009.246, 8571.000
1010.356, 8760.000
1011.466, 8780.000
1012.576, 8823.000
1013.685, 8614.000
1014.794, 8699.000
1015.903, 8650.579
1017.012, 8699.833
1018.121, 8554.000
1019.229, 8603.379
1020.338, 8643.000
1021.446, 8635.000
1022.554, 8672.000
1023.662, 8716.000
1024.770, 8827.000
1025.878, 8975.000
1026.985, 8879.000
1028.092, 9041.000
1029.200, 9245.000
1030.307, 9283.000
1031.413, 9678.000
1032.520, 9837.000
1033.627, 9840.000
1034.733, 9809.000
1035.839, 9702.000
1036.945, 9637.000
1038.051, 9502.000
1039.157, 9451.989
1040.262, 9312.000
1041.368, 9344.000
1042.473, 9334.000
1043.578, 9310.000
1044.683, 9373.000
1045.788, 9307.000
1046.893, 9259.000
1047.997, 9267.371
1049.101, 9242.000
1050.205, 9217.000
1051.309, 9253.000
1052.413, 9263.468
1053.517, 9262.000
1054.621, 9374.000
1055.724, 9451.000
1056.827, 9585.000
1057.930, 9830.000
1059.033, 9847.000
1060.136, 10015.00
1061.238, 9933.000
1062.341, 9945.000
1063.443, 9565.000
1064.545, 9511.000
1065.647, 9464.853
1066.749, 9365.072
1067.850, 9412.000
1068.952, 9398.000
1070.053, 9318.000
1071.154, 9372.000
1072.255, 9572.000
1073.356, 9524.000
1074.457, 9543.000
1075.557, 9465.000
1076.658, 9730.000
1077.758, 9890.000
1078.858, 9853.000
1079.958, 10021.00
1081.057, 9921.000
1082.157, 10009.00
1083.256, 9943.000
1084.356, 9666.000
1085.455, 9649.000
1086.554, 9673.000
1087.653, 9781.000
1088.751, 9575.000
1089.850, 9555.000
1090.948, 9650.000
1092.046, 9657.000
1093.144, 9607.000
1094.242, 9587.000
1095.340, 9627.000
1096.437, 9607.971
1097.534, 9737.000
1098.632, 9663.000
1099.729, 9648.000
1100.826, 9734.000
1101.922, 9705.000
1103.019, 9675.000
1104.115, 9626.000
1105.212, 9622.000
1106.308, 9738.000
1107.404, 9726.000
1108.499, 9771.000
1109.595, 9793.000
1110.691, 9942.000
1111.786, 9889.000
1112.881, 9939.000
1113.976, 9956.000
1115.071, 9889.000
1116.166, 9942.000
1117.260, 9936.000
1118.355, 10007.00
1119.449, 10015.00
1120.543, 10191.00
1121.637, 10225.00
1122.731, 10173.00
1123.824, 10126.00
1124.918, 10257.00
1126.011, 10183.00
1127.104, 10107.00
1128.197, 10169.00
1129.290, 10217.00
1130.382, 10219.45
1131.475, 10252.75
1132.567, 10308.00
1133.659, 10263.00
1134.751, 10337.00
1135.843, 10327.00
1136.935, 10324.00
1138.027, 10323.54
1139.118, 10306.13
1140.209, 10317.00
1141.300, 10300.00
1142.391, 10389.00
1143.482, 10450.00
1144.573, 10483.00
1145.663, 10513.07
1146.754, 10553.00
1147.844, 10532.00
1148.934, 10523.00
1150.024, 10544.00
1151.113, 10588.00
1152.203, 10547.00
1153.292, 10574.00
1154.381, 10656.00
1155.470, 10523.00
1156.559, 10876.00
1157.648, 10731.52
1158.737, 10738.00
1159.825, 10677.00
1160.913, 10608.00
1162.001, 10623.00
1163.089, 10819.00
1164.177, 10661.00
1165.265, 10760.00
1166.352, 10924.00
1167.440, 10778.00
1168.527, 10768.00
1169.614, 10725.00
1170.701, 10830.00
1171.788, 10826.00
1172.874, 10862.00
1173.961, 10914.84
1175.047, 10871.00
1176.133, 10974.00
1177.219, 10890.00
1178.305, 10871.00
1179.390, 10802.00
1180.476, 10835.61
1181.561, 11177.00
1182.646, 10977.00
1183.731, 11039.00
1184.816, 11228.00
1185.901, 11112.00
1186.985, 11077.00
1188.070, 11096.00
1189.154, 11172.00
1190.238, 11100.00
1191.322, 11125.00
1192.406, 11212.00
1193.489, 11262.00
1194.573, 11142.00
1195.656, 11241.00
1196.739, 11281.00
1197.822, 11214.00
1198.905, 11473.00
1199.988, 11384.00
1201.070, 11385.00
1202.153, 11414.00
1203.235, 11369.00
1204.317, 11458.00
1205.399, 11437.00
1206.481, 11448.00
1207.562, 11328.00
1208.644, 11436.00
1209.725, 11399.00
1210.806, 11561.00
1211.887, 11743.00
1212.968, 11465.00
1214.049, 11483.00
1215.129, 11519.73
1216.209, 11610.00
1217.290, 11623.00
1218.370, 11698.00
1219.450, 11834.00
1220.529, 11670.00
1221.609, 11644.00
1222.688, 11838.00
1223.768, 11738.00
1224.847, 11698.00
1225.926, 11831.00
1227.005, 11827.00
1228.083, 11971.00
1229.162, 11942.00
1230.240, 11884.00
1231.318, 11945.00
1232.396, 11958.00
1233.474, 12022.00
1234.552, 11952.62
1235.629, 12121.99
1236.707, 12218.78
1237.784, 12246.88
1238.861, 12000.57
1239.938, 12108.60
1241.015, 12074.63
1242.092, 12034.83
1243.168, 12192.74
1244.244, 11986.33
1245.321, 12179.00
1246.397, 12038.00
1247.473, 12181.00
1248.548, 12168.00
1249.624, 12201.00
1250.699, 12355.00
1251.775, 12281.00
1252.850, 12252.00
1253.925, 12142.00
1254.999, 12247.00
1256.074, 12397.00
1257.148, 12399.00
1258.223, 12441.16
1259.297, 12381.00
1260.371, 12435.00
1261.445, 12438.00
1262.519, 12471.13
1263.592, 12445.00
1264.666, 12429.00
1265.739, 12447.00
1266.812, 12451.00
1267.885, 12539.00
1268.958, 12607.00
1270.030, 12504.00
1271.103, 12606.00
1272.175, 12647.00
1273.247, 12608.00
1274.319, 12656.00
1275.391, 12601.00
1276.463, 12644.25
1277.535, 12795.00
1278.606, 12701.00
1279.677, 12789.00
1280.748, 12799.87
1281.819, 12782.45
1282.890, 12912.00
1283.961, 12807.00
1285.031, 12785.00
1286.102, 12842.00
1287.172, 12968.00
1288.242, 12994.00
1289.312, 13042.00
1290.381, 12992.00
1291.451, 13013.44
1292.520, 13001.00
1293.590, 12980.00
1294.659, 12920.00
1295.728, 12874.00
1296.797, 13040.00
1297.865, 13008.00
1298.934, 13128.00
1300.002, 13223.00
1301.070, 13122.00
1302.138, 13161.00
1303.206, 13180.00
1304.274, 13461.00
1305.341, 13300.00
1306.409, 13517.00
1307.476, 13306.00
1308.543, 13298.00
1309.610, 13441.00
1310.677, 13360.00
1311.744, 13567.00
1312.810, 13517.00
1313.877, 13507.00
1314.943, 13502.00
1316.009, 13552.00
1317.075, 13631.00
1318.140, 13596.00
1319.206, 13753.00
1320.272, 13726.97
1321.337, 13569.00
1322.402, 13857.00
1323.467, 13551.00
1324.532, 13833.00
1325.596, 13693.00
1326.661, 13822.00
1327.725, 13813.00
1328.790, 13848.00
1329.854, 13733.00
1330.918, 13722.00
1331.981, 13764.00
1333.045, 13660.00
1334.108, 13782.00
1335.172, 13824.00
1336.235, 13716.00
1337.298, 13701.00
1338.361, 13932.00
1339.423, 13942.00
1340.486, 13880.00
1341.548, 13889.00
1342.611, 13929.00
1343.673, 13968.00
1344.735, 13957.00
1345.796, 14087.00
1346.858, 13958.00
1347.919, 14193.00
1348.981, 14152.00
1350.042, 14203.00
1351.103, 14159.00
1352.164, 14075.00
1353.225, 14236.00
1354.285, 14193.00
1355.346, 14303.00
1356.406, 14182.00
1357.466, 14447.00
1358.526, 14347.00
1359.586, 14444.00
1360.645, 14552.94
1361.705, 14462.02
1362.764, 14557.58
1363.823, 14332.00
1364.882, 14623.00
1365.941, 14499.00
1367.000, 14557.00
1368.059, 14581.00
1369.117, 14646.00
1370.175, 14581.00
1371.233, 14571.00
1372.291, 14637.00
1373.349, 14535.00
1374.407, 14720.00
1375.464, 14650.00
1376.522, 14805.00
1377.579, 14660.00
1378.636, 14917.00
1379.693, 14909.00
1380.750, 14820.00
1381.806, 14910.00
1382.863, 14886.00
1383.919, 14818.00
1384.975, 14977.00
1386.031, 14897.00
1387.087, 15038.00
1388.143, 14833.00
1389.199, 14927.00
1390.254, 14759.00
1391.309, 14994.00
1392.364, 14960.00
1393.419, 14937.00
1394.474, 15037.00
1395.529, 15232.00
1396.583, 14995.00
1397.638, 15172.00
1398.692, 15120.00
1399.746, 15346.00
1400.800, 15109.00
1401.853, 15339.00
1402.907, 15131.00
1403.960, 15329.00
1405.014, 15315.00
1406.067, 15516.00
1407.120, 15407.00
1408.173, 15330.00
1409.225, 15355.00
1410.278, 15379.00
1411.330, 15552.00
1412.383, 15447.00
1413.435, 15485.00
1414.487, 15532.00
1415.538, 15495.00
1416.590, 15579.00
1417.641, 15582.00
1418.693, 15588.00
1419.744, 15608.19
1420.795, 15629.80
1421.846, 15626.00
1422.897, 15657.00
1423.947, 15722.00
1424.998, 15669.00
1426.048, 15712.35
1427.098, 15698.00
1428.148, 15763.00
1429.198, 15732.00
1430.247, 15827.00
1431.297, 15868.00
1432.346, 15775.00
1433.396, 15805.00
1434.445, 15977.00
1435.494, 15896.00
1436.542, 15992.00
1437.591, 16020.00
1438.639, 15988.00
1439.688, 16153.00
1440.736, 16143.00
1441.784, 16095.00
1442.832, 16113.00
1443.880, 16229.00
1444.927, 16189.00
1445.975, 16232.00
1447.022, 16135.00
1448.069, 16137.00
1449.116, 16166.00
1450.163, 16099.00
1451.209, 16086.00
1452.256, 16156.98
1453.302, 16106.56
1454.348, 16298.82
1455.394, 16418.48
1456.440, 16469.46
1457.486, 16246.02
1458.532, 16376.93
1459.577, 16365.81
1460.623, 16348.89
1461.668, 16529.65
1462.713, 16346.10
1463.758, 16523.72
1464.802, 16557.15
1465.847, 16656.58
1466.891, 16613.11
1467.936, 16530.00
1468.980, 16583.00
1470.024, 16669.00
1471.067, 16850.00
1472.111, 16744.00
1473.155, 16879.00
1474.198, 16700.00
1475.241, 16773.00
1476.284, 16948.00
1477.327, 16717.00
1478.370, 16750.00
1479.413, 16957.00
1480.455, 16831.00
1481.497, 16887.00
1482.540, 16893.00
1483.582, 16864.00
1484.624, 16992.00
1485.665, 17130.00
1486.707, 17015.00
1487.748, 17097.00
1488.790, 17074.00
1489.831, 17035.00
1490.872, 17117.00
1491.912, 17243.00
1492.953, 17149.00
1493.994, 17330.00
1495.034, 17316.00
1496.074, 17289.00
1497.114, 17081.00
1498.154, 17325.00
1499.194, 17289.00
1500.234, 17399.00
1501.273, 17233.00
1502.313, 17349.00
1503.352, 17280.00
1504.391, 17281.00
1505.430, 17391.00
1506.468, 17530.00
1507.507, 17525.00
1508.545, 17537.00
1509.584, 17579.39
1510.622, 17552.00
1511.660, 17580.00
1512.698, 17563.00
1513.735, 17534.00
1514.773, 17858.00
1515.810, 17751.00
1516.848, 17772.00
1517.885, 17828.66
1518.922, 17787.00
1519.958, 17790.00
1520.995, 17914.00
1522.032, 17905.00
1523.068, 17865.00
1524.104, 17903.00
1525.140, 17913.00
1526.176, 17854.00
1527.212, 18056.00
1528.248, 17946.00
1529.283, 18121.00
1530.318, 18160.00
1531.353, 18079.00
1532.389, 18093.00
1533.423, 18158.00
1534.458, 18172.00
1535.493, 18220.00
1536.527, 18264.09
1537.561, 18194.00
1538.596, 18321.00
1539.630, 18399.00
1540.663, 18366.00
1541.697, 18556.00
1542.731, 18305.00
1543.764, 18596.00
1544.797, 18395.00
1545.830, 18262.00
1546.863, 18412.00
1547.896, 18403.00
1548.929, 18582.00
1549.961, 18462.00
1550.994, 18560.00
1552.026, 18645.00
1553.058, 18623.00
1554.090, 18579.00
1555.121, 18871.00
1556.153, 18704.00
1557.185, 18760.00
1558.216, 18620.00
1559.247, 18856.00
1560.278, 18860.00
1561.309, 18951.00
1562.340, 18808.00
1563.370, 18719.00
1564.401, 18906.00
1565.431, 18996.00
1566.461, 18823.00
1567.491, 18840.00
1568.521, 18832.00
1569.551, 18894.00
1570.580, 18959.00
1571.610, 18901.00
1572.639, 18973.00
1573.668, 19037.00
1574.697, 19008.00
1575.726, 19192.00
1576.754, 19133.00
1577.783, 18955.00
##END=



