##NAMES=Fluorapophyllite-(K)
##RRUFFID=R060554
##IDEAL CHEMISTRY=KCa_4_Si_8_O_20_F&#183;8H_2_O
##LOCALITY=unknown
##OWNER=RRUFF
##SOURCE=Gemological Institute of America
##DESCRIPTION=Colorless polished fragment
##STATUS=The identification of this mineral has been confirmed by X-ray diffraction and chemical analysis
##URL=rruff.info/R060554
##MEASURED CHEMISTRY=(K_0.88_Na_0.12_)Ca_4.00_Si_8.00_O_20_F_1.00_Â·8H2O
##PIN_ID=L00812
##ORIENTATION=Laser parallel to -a* (-1 0 0). Fiducial mark perpendicular to laser is parallel to -c [0 0 -1]
53.91000, 494.0000
55.14900, 490.0000
56.38700, 492.0000
57.62600, 522.0000
58.86400, 537.0000
60.10300, 552.0000
61.34100, 587.0000
62.57900, 644.0000
63.81700, 706.0000
65.05400, 807.0000
66.29200, 910.0000
67.52900, 1053.000
68.76700, 1279.000
70.00400, 1504.000
71.24100, 1786.000
72.47700, 2099.000
73.71400, 2533.000
74.95100, 3101.000
76.18700, 3997.000
77.42300, 5081.000
78.65900, 6532.000
79.89500, 8362.000
81.13100, 10591.00
82.36700, 13506.00
83.60200, 16165.00
84.83700, 19010.00
86.07200, 21210.00
87.30800, 23408.00
88.54200, 24633.00
89.77700, 24680.00
91.01200, 24307.00
92.24600, 22717.00
93.48000, 20231.00
94.71400, 17848.00
95.94800, 16220.00
97.18200, 15165.00
98.41600, 15367.00
99.64900, 16793.00
100.8830, 19726.00
102.1160, 24364.00
103.3490, 30409.00
104.5820, 36666.00
105.8150, 40303.00
107.0470, 40203.00
108.2800, 36042.00
109.5120, 30106.00
110.7440, 24586.00
111.9760, 20294.00
113.2080, 17082.00
114.4400, 15168.00
115.6710, 14638.00
116.9030, 14613.00
118.1340, 14773.00
119.3650, 15972.00
120.5960, 17699.00
121.8270, 19419.00
123.0580, 20405.00
124.2880, 20422.00
125.5190, 19688.00
126.7490, 19280.00
127.9790, 19229.00
129.2090, 19488.00
130.4390, 19483.00
131.6680, 19148.00
132.8980, 17372.00
134.1270, 15428.00
135.3560, 13560.00
136.5850, 12104.00
137.8140, 10791.00
139.0430, 9867.000
140.2710, 8969.000
141.5000, 8293.000
142.7280, 7960.000
143.9560, 7764.000
145.1840, 7691.000
146.4120, 7801.000
147.6390, 8010.000
148.8670, 8536.000
150.0940, 9011.000
151.3210, 10156.00
152.5490, 11204.00
153.7750, 12908.00
155.0020, 15141.00
156.2290, 18118.00
157.4550, 21433.00
158.6810, 25011.00
159.9080, 27811.00
161.1340, 28952.00
162.3590, 28235.00
163.5850, 25850.00
164.8110, 22854.00
166.0360, 19667.00
167.2610, 16606.00
168.4860, 13803.00
169.7110, 11872.00
170.9360, 10468.00
172.1610, 9629.000
173.3850, 9322.000
174.6100, 9503.000
175.8340, 10083.00
177.0580, 11704.00
178.2820, 13671.00
179.5050, 16390.00
180.7290, 19971.00
181.9520, 23454.00
183.1760, 26690.00
184.3990, 29020.00
185.6220, 28769.00
186.8450, 27107.00
188.0670, 24670.00
189.2900, 22416.00
190.5120, 20414.00
191.7340, 18804.00
192.9560, 18107.00
194.1780, 17979.00
195.4000, 18336.00
196.6220, 19178.00
197.8430, 21157.00
199.0640, 23358.00
200.2860, 26256.00
201.5070, 30457.00
202.7270, 35648.00
203.9480, 42060.00
205.1690, 49108.00
206.3890, 55893.00
207.6090, 62043.00
208.8290, 65233.00
210.0490, 65353.00
211.2690, 63036.00
212.4890, 58453.00
213.7080, 53141.00
214.9280, 47275.00
216.1470, 42511.00
217.3660, 38610.00
218.5850, 35318.00
219.8030, 33491.00
221.0220, 31878.00
222.2400, 31301.00
223.4590, 31315.00
224.6770, 31500.00
225.8950, 31594.00
227.1120, 31512.00
228.3300, 30599.00
229.5480, 29450.00
230.7650, 27402.00
231.9820, 25117.00
233.1990, 22446.00
234.4160, 20026.00
235.6330, 17598.00
236.8490, 15866.00
238.0660, 13852.00
239.2820, 12514.00
240.4980, 11359.00
241.7140, 10353.00
242.9300, 9552.000
244.1460, 8834.000
245.3610, 8174.000
246.5770, 7892.000
247.7920, 7437.000
249.0070, 7195.000
250.2220, 7032.000
251.4370, 6933.000
252.6510, 6885.858
253.8660, 7039.000
255.0800, 7050.000
256.2940, 7181.000
257.5080, 7549.000
258.7220, 8055.000
259.9360, 8336.000
261.1490, 8796.000
262.3630, 9449.000
263.5760, 10382.00
264.7890, 10640.00
266.0020, 10861.00
267.2150, 10795.00
268.4270, 10524.00
269.6400, 9983.000
270.8520, 9327.000
272.0640, 8844.000
273.2760, 8453.000
274.4880, 8105.000
275.7000, 7859.000
276.9120, 7784.000
278.1230, 7776.110
279.3340, 7862.000
280.5450, 8139.000
281.7560, 8512.000
282.9670, 8980.000
284.1780, 9588.000
285.3880, 10436.00
286.5980, 11444.00
287.8090, 12595.00
289.0190, 14052.00
290.2290, 15952.00
291.4380, 18122.00
292.6480, 20345.00
293.8570, 22348.00
295.0670, 24086.00
296.2760, 25102.00
297.4850, 25693.00
298.6930, 24939.00
299.9020, 23429.00
301.1110, 21649.00
302.3190, 19660.00
303.5270, 17502.00
304.7350, 15877.00
305.9430, 14499.00
307.1510, 13278.00
308.3580, 12261.00
309.5660, 11329.00
310.7730, 10698.00
311.9800, 10316.00
313.1870, 9819.000
314.3940, 9536.000
315.6010, 9440.000
316.8070, 9229.000
318.0130, 9241.000
319.2200, 9365.000
320.4260, 9336.000
321.6310, 9529.000
322.8370, 9682.000
324.0430, 10071.00
325.2480, 10350.00
326.4540, 10805.00
327.6590, 11446.00
328.8640, 11777.00
330.0680, 12511.00
331.2730, 13224.00
332.4780, 13737.00
333.6820, 14542.00
334.8860, 14930.00
336.0900, 15051.00
337.2940, 14878.00
338.4980, 14733.00
339.7010, 14122.00
340.9050, 13087.00
342.1080, 12102.00
343.3110, 11146.00
344.5140, 10130.00
345.7170, 9247.000
346.9200, 8556.000
348.1220, 7776.000
349.3240, 7215.000
350.5270, 6717.000
351.7290, 6312.000
352.9310, 6005.000
354.1320, 5753.000
355.3340, 5519.000
356.5350, 5440.000
357.7370, 5210.000
358.9380, 5267.000
360.1390, 5196.000
361.3400, 5127.000
362.5400, 5242.000
363.7410, 5347.000
364.9410, 5560.000
366.1410, 5812.000
367.3410, 6051.000
368.5410, 6219.000
369.7410, 6561.000
370.9400, 6791.000
372.1400, 6761.000
373.3390, 6631.000
374.5380, 6398.000
375.7370, 5992.000
376.9360, 5639.000
378.1350, 5199.000
379.3330, 4921.000
380.5310, 4703.000
381.7300, 4596.000
382.9280, 4376.000
384.1260, 4296.000
385.3230, 4261.000
386.5210, 4231.000
387.7180, 4243.000
388.9160, 4276.441
390.1130, 4278.000
391.3100, 4429.000
392.5060, 4480.000
393.7030, 4631.000
394.9000, 4735.000
396.0960, 4785.000
397.2920, 4807.000
398.4880, 4923.000
399.6840, 5055.000
400.8800, 5083.000
402.0750, 5195.000
403.2710, 5233.000
404.4660, 5295.000
405.6610, 5389.130
406.8560, 5342.000
408.0510, 5588.000
409.2450, 5563.000
410.4400, 5713.000
411.6340, 5776.000
412.8280, 5937.000
414.0220, 6139.000
415.2160, 6467.000
416.4100, 6731.000
417.6030, 7348.000
418.7970, 7872.000
419.9900, 8687.000
421.1830, 9987.000
422.3760, 11444.00
423.5690, 13621.00
424.7610, 16670.00
425.9540, 20859.00
427.1460, 26408.00
428.3380, 32858.00
429.5300, 38884.00
430.7220, 42784.00
431.9140, 42579.00
433.1050, 39191.00
434.2970, 33725.00
435.4880, 27782.00
436.6790, 22892.00
437.8700, 18568.00
439.0610, 15299.00
440.2510, 12812.00
441.4420, 11110.00
442.6320, 9779.000
443.8220, 8720.000
445.0120, 8093.000
446.2020, 7403.000
447.3910, 7094.000
448.5810, 6845.000
449.7700, 6641.000
450.9600, 6463.000
452.1490, 6392.000
453.3370, 6458.000
454.5260, 6608.000
455.7150, 6704.000
456.9030, 7006.000
458.0910, 7276.000
459.2800, 7499.000
460.4670, 7617.000
461.6550, 7836.000
462.8430, 7869.000
464.0300, 7757.000
465.2180, 7308.000
466.4050, 7089.000
467.5920, 6759.000
468.7790, 6523.000
469.9650, 6219.000
471.1520, 5886.000
472.3380, 5827.000
473.5250, 5646.000
474.7110, 5598.000
475.8970, 5505.000
477.0820, 5728.000
478.2680, 5857.000
479.4540, 6185.000
480.6390, 6420.000
481.8240, 6786.000
483.0090, 7051.000
484.1940, 7127.000
485.3780, 7172.000
486.5630, 6926.000
487.7470, 6571.000
488.9320, 6314.000
490.1160, 6024.000
491.3000, 5731.000
492.4830, 5618.000
493.6670, 5475.000
494.8500, 5352.000
496.0340, 5355.000
497.2170, 5338.000
498.4000, 5337.000
499.5820, 5303.000
500.7650, 5330.436
501.9480, 5394.000
503.1300, 5390.000
504.3120, 5475.000
505.4940, 5534.000
506.6760, 5598.000
507.8580, 5669.000
509.0390, 5782.000
510.2210, 5852.000
511.4020, 5828.000
512.5830, 5893.000
513.7640, 6012.000
514.9450, 6047.000
516.1250, 6139.665
517.3060, 6255.439
518.4860, 6292.000
519.6660, 6489.000
520.8460, 6575.000
522.0260, 6678.000
523.2060, 6973.000
524.3850, 7058.000
525.5650, 7319.000
526.7440, 7520.000
527.9230, 7894.000
529.1020, 8314.000
530.2810, 8579.000
531.4590, 8986.000
532.6380, 9429.000
533.8160, 9714.000
534.9940, 9957.000
536.1720, 10087.00
537.3500, 10260.00
538.5270, 10432.00
539.7050, 10420.00
540.8820, 10186.00
542.0590, 10183.00
543.2360, 9977.000
544.4130, 9957.000
545.5900, 9773.000
546.7660, 9789.000
547.9430, 9632.000
549.1190, 9566.000
550.2950, 9635.000
551.4710, 9500.000
552.6470, 9645.000
553.8220, 9767.000
554.9980, 9792.000
556.1730, 10080.00
557.3480, 10120.00
558.5230, 10468.00
559.6980, 10720.00
560.8730, 11121.00
562.0470, 11482.00
563.2220, 11936.00
564.3960, 12656.00
565.5700, 13056.00
566.7440, 13921.00
567.9170, 14668.00
569.0910, 15687.00
570.2640, 16700.00
571.4380, 18088.00
572.6110, 19571.00
573.7840, 21086.00
574.9570, 23305.00
576.1290, 24956.00
577.3020, 27039.00
578.4740, 29253.00
579.6460, 31243.00
580.8180, 32875.00
581.9900, 34176.00
583.1620, 34541.00
584.3330, 34546.00
585.5040, 33511.00
586.6760, 32272.00
587.8470, 30232.00
589.0180, 27972.00
590.1880, 25895.00
591.3590, 23570.00
592.5290, 21650.00
593.7000, 19582.00
594.8700, 17941.00
596.0400, 16513.00
597.2090, 15445.00
598.3790, 14382.00
599.5490, 13467.00
600.7180, 12663.00
601.8870, 11987.00
603.0560, 11513.00
604.2250, 11123.00
605.3940, 10603.00
606.5620, 10342.00
607.7300, 10014.00
608.8990, 9789.000
610.0670, 9578.000
611.2350, 9523.000
612.4020, 9447.000
613.5700, 9334.000
614.7370, 9409.000
615.9050, 9433.000
617.0720, 9324.000
618.2390, 9255.000
619.4060, 9477.000
620.5720, 9592.000
621.7390, 9732.000
622.9050, 9892.000
624.0710, 9925.000
625.2370, 10025.00
626.4030, 10062.00
627.5690, 10155.00
628.7340, 10065.00
629.9000, 10160.00
631.0650, 10171.00
632.2300, 10422.00
633.3950, 10562.00
634.5600, 10551.00
635.7240, 10869.00
636.8890, 11070.00
638.0530, 11203.00
639.2170, 11730.00
640.3810, 11986.00
641.5450, 12218.00
642.7080, 12724.00
643.8720, 13237.00
645.0350, 13763.00
646.1980, 14429.00
647.3610, 15017.00
648.5240, 15842.00
649.6870, 16622.00
650.8490, 17483.00
652.0120, 18356.00
653.1740, 19346.00
654.3360, 20231.00
655.4980, 21368.00
656.6600, 22286.00
657.8210, 23250.00
658.9830, 24110.00
660.1440, 24687.00
661.3050, 24830.00
662.4660, 25123.00
663.6270, 24993.00
664.7870, 24485.00
665.9480, 23754.00
667.1080, 22791.00
668.2680, 21887.00
669.4280, 20380.00
670.5880, 19178.00
671.7480, 17871.00
672.9070, 16703.00
674.0670, 15601.00
675.2260, 14334.00
676.3850, 13359.00
677.5440, 12282.00
678.7030, 11637.00
679.8610, 10746.00
681.0200, 10075.00
682.1780, 9658.000
683.3360, 9018.000
684.4940, 8689.000
685.6520, 8125.000
686.8090, 7756.000
687.9670, 7366.000
689.1240, 7052.000
690.2810, 6797.000
691.4380, 6576.000
692.5950, 6322.000
693.7520, 6068.000
694.9080, 5960.000
696.0650, 5682.000
697.2210, 5489.000
698.3770, 5418.000
699.5330, 5227.000
700.6880, 5143.000
701.8440, 5033.000
702.9990, 4883.000
704.1550, 4781.000
705.3100, 4659.000
706.4650, 4664.000
707.6190, 4622.000
708.7740, 4537.000
709.9290, 4512.000
711.0830, 4374.000
712.2370, 4350.000
713.3910, 4347.000
714.5450, 4258.000
715.6980, 4252.000
716.8520, 4192.000
718.0050, 4247.000
719.1580, 4197.000
720.3110, 4198.000
721.4640, 4158.000
722.6170, 4089.000
723.7700, 4231.000
724.9220, 4127.000
726.0740, 4079.000
727.2260, 4151.000
728.3780, 4112.000
729.5300, 4035.000
730.6810, 4008.000
731.8330, 3955.000
732.9840, 3992.000
734.1350, 4028.000
735.2860, 3978.000
736.4370, 3891.000
737.5880, 3907.000
738.7380, 3972.000
739.8880, 3865.000
741.0390, 3943.000
742.1890, 3959.000
743.3380, 3948.000
744.4880, 3913.000
745.6380, 3991.000
746.7870, 4045.000
747.9360, 4007.000
749.0850, 4151.000
750.2340, 4109.000
751.3830, 4209.000
752.5310, 4371.000
753.6800, 4313.000
754.8280, 4576.000
755.9760, 4718.000
757.1240, 4888.000
758.2720, 5096.000
759.4190, 5260.000
760.5670, 5470.000
761.7140, 5759.000
762.8610, 6022.000
764.0080, 6189.000
765.1550, 6256.000
766.3020, 6357.000
767.4480, 6166.000
768.5950, 6052.000
769.7410, 5991.000
770.8870, 5787.000
772.0330, 5551.000
773.1780, 5367.000
774.3240, 5293.000
775.4690, 5214.000
776.6140, 5272.000
777.7590, 5172.000
778.9040, 5298.000
780.0490, 5320.000
781.1940, 5475.000
782.3380, 5630.000
783.4820, 5933.000
784.6260, 6310.000
785.7700, 6753.000
786.9140, 7204.000
788.0580, 7728.000
789.2010, 7983.000
790.3450, 8339.000
791.4880, 8288.000
792.6310, 7974.000
793.7730, 7676.000
794.9160, 7056.000
796.0590, 6657.000
797.2010, 6263.157
798.3430, 5873.000
799.4850, 5553.000
800.6270, 5319.000
801.7690, 5130.000
802.9100, 5048.000
804.0520, 4857.000
805.1930, 4872.000
806.3340, 4767.000
807.4750, 4721.000
808.6160, 4722.000
809.7560, 4675.000
810.8970, 4661.000
812.0370, 4734.000
813.1770, 4659.000
814.3170, 4676.000
815.4570, 4755.000
816.5960, 4803.000
817.7360, 4762.000
818.8750, 4807.000
820.0140, 4904.000
821.1530, 4927.000
822.2920, 4993.000
823.4310, 5096.000
824.5690, 5116.000
825.7070, 5173.000
826.8460, 5291.000
827.9840, 5438.000
829.1220, 5384.000
830.2590, 5504.000
831.3970, 5540.000
832.5340, 5648.000
833.6710, 5659.000
834.8080, 5715.000
835.9450, 5717.000
837.0820, 5732.000
838.2190, 5783.000
839.3550, 5793.135
840.4910, 5736.000
841.6270, 5846.000
842.7630, 5894.000
843.8990, 5919.000
845.0350, 5858.000
846.1700, 5906.000
847.3060, 5831.000
848.4410, 5826.000
849.5760, 5839.607
850.7100, 5800.000
851.8450, 5841.000
852.9800, 5815.000
854.1140, 5774.000
855.2480, 5702.000
856.3820, 5769.000
857.5160, 5748.000
858.6500, 5584.000
859.7830, 5582.000
860.9170, 5462.000
862.0500, 5364.000
863.1830, 5321.000
864.3160, 5222.000
865.4480, 5127.000
866.5810, 5054.000
867.7130, 5067.000
868.8460, 4923.000
869.9780, 4911.000
871.1100, 4791.000
872.2410, 4872.000
873.3730, 4792.000
874.5050, 4799.000
875.6360, 4748.000
876.7670, 4742.000
877.8980, 4601.000
879.0290, 4679.000
880.1590, 4591.000
881.2900, 4623.000
882.4200, 4507.000
883.5500, 4612.000
884.6800, 4588.000
885.8100, 4513.000
886.9400, 4613.000
888.0690, 4453.000
889.1990, 4476.000
890.3280, 4514.000
891.4570, 4568.000
892.5860, 4499.000
893.7140, 4559.000
894.8430, 4558.000
895.9710, 4589.000
897.1000, 4593.887
898.2280, 4543.000
899.3560, 4570.000
900.4830, 4601.000
901.6110, 4553.000
902.7380, 4513.000
903.8660, 4582.000
904.9930, 4488.000
906.1200, 4557.000
907.2460, 4501.000
908.3730, 4470.000
909.5000, 4428.000
910.6260, 4453.000
911.7520, 4419.000
912.8780, 4428.000
914.0040, 4388.000
915.1290, 4345.000
916.2550, 4348.000
917.3800, 4309.000
918.5050, 4387.000
919.6300, 4349.000
920.7550, 4373.185
921.8800, 4308.000
923.0040, 4382.000
924.1290, 4340.000
925.2530, 4301.000
926.3770, 4400.000
927.5010, 4369.000
928.6250, 4325.000
929.7480, 4323.000
930.8720, 4373.000
931.9950, 4372.000
933.1180, 4471.000
934.2410, 4357.000
935.3640, 4468.000
936.4860, 4479.000
937.6090, 4562.000
938.7310, 4536.000
939.8530, 4651.000
940.9750, 4712.000
942.0970, 4805.000
943.2180, 4797.000
944.3400, 4794.000
945.4610, 4897.000
946.5820, 5029.000
947.7030, 5095.000
948.8240, 5190.000
949.9450, 5266.000
951.0650, 5344.384
952.1860, 5381.000
953.3060, 5438.196
954.4260, 5452.000
955.5460, 5499.000
956.6650, 5528.000
957.7850, 5517.000
958.9040, 5489.000
960.0230, 5600.000
961.1420, 5554.000
962.2610, 5639.000
963.3800, 5725.000
964.4990, 5714.000
965.6170, 5875.000
966.7350, 6074.000
967.8530, 6305.000
968.9710, 6507.000
970.0890, 6732.000
971.2070, 7037.000
972.3240, 7163.000
973.4410, 7084.000
974.5580, 7040.000
975.6750, 6889.000
976.7920, 6657.000
977.9090, 6509.000
979.0250, 6336.000
980.1410, 6056.000
981.2580, 6041.000
982.3740, 5914.000
983.4890, 6047.000
984.6050, 5904.000
985.7200, 5874.000
986.8360, 5921.000
987.9510, 5935.000
989.0660, 6064.000
990.1810, 5953.000
991.2950, 6078.000
992.4100, 6066.000
993.5240, 6099.000
994.6390, 6118.000
995.7530, 6219.000
996.8660, 6367.000
997.9800, 6557.000
999.0940, 6800.000
1000.207, 7227.000
1001.320, 7408.000
1002.433, 7724.000
1003.546, 7980.000
1004.659, 8179.000
1005.772, 8327.000
1006.884, 8324.000
1007.996, 8198.000
1009.108, 8081.000
1010.220, 7723.000
1011.332, 7254.000
1012.444, 6897.000
1013.555, 6820.000
1014.666, 6392.000
1015.777, 6355.000
1016.888, 6248.000
1017.999, 6157.000
1019.110, 6157.000
1020.220, 6114.000
1021.331, 6142.000
1022.441, 6157.000
1023.551, 6151.000
1024.661, 6131.000
1025.770, 6220.000
1026.880, 6254.000
1027.989, 6394.000
1029.098, 6434.000
1030.207, 6670.000
1031.316, 6898.000
1032.425, 7042.000
1033.533, 7232.000
1034.642, 7602.000
1035.750, 7805.000
1036.858, 8174.000
1037.966, 8453.000
1039.073, 8961.000
1040.181, 9325.000
1041.288, 9961.000
1042.396, 10404.00
1043.503, 11386.00
1044.610, 12368.00
1045.716, 13456.00
1046.823, 14797.00
1047.929, 16393.00
1049.036, 18608.00
1050.142, 21291.00
1051.248, 24598.00
1052.353, 28685.00
1053.459, 33793.00
1054.564, 39331.00
1055.670, 45893.00
1056.775, 52311.00
1057.880, 57664.00
1058.985, 60604.00
1060.089, 60572.00
1061.194, 57412.00
1062.298, 52128.00
1063.402, 45828.00
1064.506, 39388.00
1065.610, 33450.00
1066.713, 28100.00
1067.817, 23924.00
1068.920, 20392.00
1070.023, 17569.00
1071.126, 15298.00
1072.229, 13313.00
1073.332, 11966.00
1074.435, 10703.00
1075.537, 9791.000
1076.639, 8840.000
1077.741, 8242.000
1078.843, 7790.000
1079.945, 7305.000
1081.046, 6926.000
1082.148, 6668.000
1083.249, 6409.000
1084.350, 6354.000
1085.451, 6150.000
1086.551, 5991.000
1087.652, 5947.000
1088.752, 5844.000
1089.853, 6471.000
1090.953, 5489.000
1092.053, 5322.000
1093.152, 5979.000
1094.252, 5006.000
1095.351, 4825.000
1096.451, 4754.000
1097.550, 4707.000
1098.649, 4657.000
1099.748, 4626.958
1100.846, 4593.000
1101.945, 4589.000
1103.043, 4619.000
1104.141, 4613.000
1105.239, 4713.000
1106.337, 4823.000
1107.434, 4986.000
1108.532, 5151.000
1109.629, 5314.000
1110.726, 5493.000
1111.823, 5693.000
1112.920, 5934.000
1114.017, 5941.000
1115.113, 5957.000
1116.210, 5730.000
1117.306, 5422.000
1118.402, 5251.000
1119.498, 4896.000
1120.593, 4770.000
1121.689, 4424.000
1122.784, 4343.000
1123.879, 4216.000
1124.974, 4148.000
1126.069, 4083.000
1127.164, 3959.000
1128.259, 3914.000
1129.353, 3828.000
1130.447, 3845.000
1131.541, 3868.000
1132.635, 3818.000
1133.729, 3806.521
1134.822, 3813.000
1135.916, 3723.000
1137.009, 3666.000
1138.102, 3619.000
1139.195, 3579.683
1140.288, 3565.949
1141.380, 3556.000
1142.473, 3554.000
1143.565, 3589.000
1144.657, 3575.000
1145.749, 3611.000
1146.841, 3553.000
1147.932, 3557.000
1149.024, 3573.000
1150.115, 3518.000
1151.206, 3539.000
1152.297, 3513.000
1153.388, 3518.000
1154.479, 3482.000
1155.569, 3516.000
1156.659, 3770.000
1157.750, 4152.000
1158.839, 4406.000
1159.929, 4306.000
1161.019, 4122.000
1162.108, 4330.000
1163.198, 4219.097
1164.287, 4207.000
1165.376, 4087.000
1166.465, 4125.000
1167.553, 3712.000
1168.642, 3609.000
1169.730, 3551.000
1170.818, 3545.000
1171.906, 3627.000
1172.994, 3516.000
1174.082, 3567.000
1175.170, 3557.000
1176.257, 3541.000
1177.344, 3561.000
1178.431, 3653.000
1179.518, 3579.000
1180.605, 3555.000
1181.691, 3600.000
1182.778, 3519.000
1183.864, 3500.000
1184.950, 3570.000
1186.036, 3589.000
1187.122, 3544.000
1188.207, 3510.000
1189.292, 3489.000
1190.378, 3552.000
1191.463, 3502.000
1192.548, 3522.000
1193.632, 3553.000
1194.717, 3510.000
1195.801, 3568.000
1196.886, 3536.000
1197.970, 3535.491
1199.054, 3544.656
1200.137, 3517.000
1201.221, 3551.000
1202.305, 3538.000
1203.388, 3571.000
1204.471, 3602.000
1205.554, 3536.000
1206.637, 3577.000
1207.719, 3518.000
1208.802, 3626.000
1209.884, 3613.000
1210.966, 3657.000
1212.048, 3603.000
1213.130, 3651.000
1214.212, 3585.000
1215.293, 3599.000
1216.374, 3634.000
1217.456, 3610.000
1218.536, 3595.000
1219.617, 3605.000
1220.698, 3654.000
1221.778, 3637.000
1222.859, 3610.000
1223.939, 3558.000
1225.019, 3615.000
1226.099, 3702.000
1227.178, 3615.000
1228.258, 3657.000
1229.337, 3670.000
1230.417, 3679.000
1231.496, 3679.000
1232.574, 3683.000
1233.653, 3674.000
1234.732, 3721.000
1235.810, 3691.000
1236.888, 3731.000
1237.966, 3711.000
1239.044, 3684.000
1240.122, 3780.000
1241.199, 3681.000
1242.277, 3684.000
1243.354, 3676.000
1244.431, 3742.000
1245.508, 3625.000
1246.585, 3695.000
1247.661, 3683.000
1248.738, 3737.000
1249.814, 3703.000
1250.890, 3774.000
1251.966, 3751.000
1253.042, 3771.000
1254.117, 3738.000
1255.193, 3747.000
1256.268, 3723.000
1257.343, 3710.000
1258.418, 3738.000
1259.493, 3796.000
1260.567, 3715.000
1261.642, 3748.000
1262.716, 3719.000
1263.790, 3774.000
1264.864, 3782.000
1265.938, 3798.000
1267.011, 3789.000
1268.085, 3832.000
1269.158, 3825.000
1270.231, 3801.000
1271.304, 3853.000
1272.377, 3820.000
1273.450, 3839.000
1274.522, 3862.000
1275.594, 3859.000
1276.666, 3851.752
1277.738, 3798.000
1278.810, 3801.000
1279.882, 3795.000
1280.953, 3745.000
1282.025, 3802.000
1283.096, 3727.000
1284.167, 3781.000
1285.238, 3831.000
1286.308, 3766.000
1287.379, 3741.000
1288.449, 3757.000
1289.519, 3755.000
1290.589, 3820.000
1291.659, 3884.000
1292.729, 3792.000
1293.798, 3819.000
1294.868, 3779.000
1295.937, 3827.000
1297.006, 3819.000
1298.075, 3872.000
1299.143, 3863.765
1300.212, 3816.000
1301.280, 3858.000
1302.348, 3813.000
1303.416, 3813.000
1304.484, 3745.000
1305.552, 3798.000
1306.620, 3787.000
1307.687, 3832.000
1308.754, 3875.000
1309.821, 3841.000
1310.888, 3894.000
1311.955, 3862.000
1313.021, 3873.000
1314.088, 3920.000
1315.154, 3848.000
1316.220, 3879.000
1317.286, 3932.000
1318.352, 3905.000
1319.417, 3931.000
1320.483, 3906.000
1321.548, 3852.000
1322.613, 3854.000
1323.678, 3825.972
1324.743, 3757.000
1325.807, 3783.000
1326.872, 3780.000
1327.936, 3726.000
1329.000, 3722.000
1330.064, 3709.000
1331.128, 3747.000
1332.191, 3702.000
1333.255, 3683.000
1334.318, 3764.000
1335.381, 3662.000
1336.444, 3683.000
1337.507, 3681.000
1338.569, 3627.000
1339.632, 3738.000
1340.694, 3676.000
1341.756, 3767.000
1342.818, 3707.000
1343.880, 3701.000
1344.941, 3667.000
1346.003, 3660.812
1347.064, 3659.757
1348.125, 3668.000
1349.186, 3671.000
1350.247, 3684.000
1351.308, 3697.000
1352.368, 3704.000
1353.428, 3776.000
1354.489, 3716.000
1355.549, 3745.000
1356.608, 3691.000
1357.668, 3711.000
1358.727, 3693.000
1359.787, 3720.000
1360.846, 3798.000
1361.905, 3773.000
1362.964, 3735.000
1364.022, 3663.000
1365.081, 3736.000
1366.139, 3712.000
1367.197, 3802.000
1368.255, 3773.000
1369.313, 3736.000
1370.371, 3775.000
1371.428, 3735.000
1372.486, 3696.000
1373.543, 3728.000
1374.600, 3798.000
1375.657, 3763.000
1376.713, 3780.000
1377.770, 3846.000
1378.826, 3750.000
1379.882, 3796.000
1380.938, 3709.000
1381.994, 3723.000
1383.050, 3848.000
1384.106, 3823.000
1385.161, 3784.000
1386.216, 3769.000
1387.271, 3742.000
1388.326, 3763.000
1389.381, 3803.000
1390.435, 3772.000
1391.490, 3842.000
1392.544, 3741.000
1393.598, 3790.000
1394.652, 3785.000
1395.705, 3743.000
1396.759, 3779.000
1397.812, 3665.000
1398.866, 3764.000
1399.919, 3699.000
1400.972, 3755.000
1402.024, 3799.000
1403.077, 3749.000
1404.129, 3744.000
1405.181, 3716.000
1406.233, 3693.000
1407.285, 3711.000
1408.337, 3749.000
1409.389, 3830.000
1410.440, 3740.000
1411.491, 3824.000
1412.542, 3776.000
1413.593, 3718.000
1414.644, 3807.000
1415.695, 3786.000
1416.745, 3763.000
1417.795, 3812.000
1418.845, 3749.000
1419.895, 3773.000
1420.945, 3753.000
1421.995, 3775.000
1423.044, 3802.000
1424.093, 3853.000
1425.142, 3771.000
1426.191, 3870.000
1427.240, 3871.000
1428.289, 3866.000
1429.337, 3926.000
1430.385, 3920.000
1431.433, 3965.000
1432.481, 3886.000
1433.529, 3932.000
1434.577, 3963.000
1435.624, 4008.000
1436.672, 4120.000
1437.719, 4130.000
1438.766, 4203.000
1439.812, 4246.324
1440.859, 4257.321
1441.905, 4318.000
1442.952, 4290.000
1443.998, 4316.000
1445.044, 4347.000
1446.090, 4348.154
1447.135, 4348.000
1448.181, 4398.000
1449.226, 4400.000
1450.271, 4453.821
1451.316, 4478.000
1452.361, 4505.000
1453.405, 4473.000
1454.450, 4475.000
1455.494, 4451.000
1456.538, 4450.000
1457.582, 4458.000
1458.626, 4425.796
1459.670, 4452.000
1460.713, 4385.000
1461.757, 4372.000
1462.800, 4373.000
1463.843, 4325.000
1464.886, 4392.000
1465.928, 4286.000
1466.971, 4308.000
1468.013, 4277.000
1469.055, 4310.000
1470.097, 4279.000
1471.139, 4258.000
1472.181, 4223.000
1473.222, 4260.000
1474.263, 4305.000
1475.305, 4283.000
1476.346, 4248.000
1477.386, 4262.000
1478.427, 4312.000
1479.468, 4236.000
1480.508, 4351.000
1481.548, 4297.000
1482.588, 4232.000
1483.628, 4333.000
1484.668, 4273.000
1485.707, 4269.000
1486.747, 4191.000
1487.786, 4243.000
1488.825, 4293.000
1489.864, 4226.000
1490.902, 4206.000
1491.941, 4355.000
1492.979, 4205.000
1494.017, 4257.000
1495.055, 4252.000
1496.093, 4226.000
1497.131, 4284.000
1498.168, 4229.000
1499.206, 4245.000
1500.243, 4280.000
1501.280, 4320.000
1502.317, 4307.000
1503.354, 4285.000
1504.390, 4318.000
1505.426, 4302.000
1506.463, 4320.000
1507.499, 4393.000
1508.535, 4300.000
1509.570, 4412.000
1510.606, 4349.000
1511.641, 4371.000
1512.676, 4354.000
1513.711, 4460.000
1514.746, 4493.000
1515.781, 4398.000
1516.816, 4324.000
1517.850, 4317.000
1518.884, 4442.000
1519.918, 4369.000
1520.952, 4452.000
1521.986, 4399.000
1523.019, 4414.000
1524.053, 4488.000
1525.086, 4529.000
1526.119, 4446.000
1527.152, 4426.000
1528.185, 4393.000
1529.217, 4427.000
1530.250, 4396.000
1531.282, 4443.000
1532.314, 4450.000
1533.346, 4442.000
1534.377, 4458.734
1535.409, 4440.000
1536.440, 4470.000
1537.472, 4461.000
1538.503, 4494.000
1539.534, 4477.000
1540.564, 4538.000
1541.595, 4491.617
1542.625, 4406.000
1543.656, 4419.000
1544.686, 4446.000
1545.716, 4422.000
1546.745, 4427.000
1547.775, 4422.181
1548.804, 4435.000
1549.834, 4414.000
1550.863, 4459.000
1551.892, 4479.000
1552.920, 4403.000
1553.949, 4391.000
1554.977, 4351.000
1556.006, 4447.000
1557.034, 4356.000
1558.062, 4444.000
1559.089, 4285.000
1560.117, 4390.000
1561.144, 4345.000
1562.172, 4390.000
1563.199, 4407.000
1564.226, 4366.000
1565.252, 4362.000
1566.279, 4416.000
1567.305, 4475.000
1568.332, 4359.000
1569.358, 4410.000
1570.384, 4402.000
1571.409, 4483.000
1572.435, 4520.000
##END=



