##NAMES=Fluorapatite
##RRUFFID=R050401
##IDEAL CHEMISTRY=Ca_5_(PO_4_)_3_F
##LOCALITY=Urbano mine, Golconda District, Minas Gerais, Brazil
##OWNER=RRUFF
##SOURCE=Bob Downs
##DESCRIPTION=Pale purple hexagonal prism associated with albite R050402
##STATUS=The identification of this mineral has been confirmed by X-ray diffraction and chemical analysis
##URL=rruff.info/R050401
##MEASURED CHEMISTRY=(Ca_0.99_Mn_0.01_)_5_(P_1.00_O_4_)_3_F_1.00_
##PIN_ID=L01966
##ORIENTATION=Laser parallel to a* (1 0 0). Fiducial mark perpendicular to laser is parallel to c [0 0 1]
140.2710, 4014.000
141.5000, 3962.000
142.7280, 4007.000
143.9560, 4026.000
145.1840, 4080.000
146.4120, 4097.711
147.6390, 4074.000
148.8670, 4114.000
150.0940, 4189.000
151.3210, 4143.000
152.5490, 4158.000
153.7750, 4262.000
155.0020, 4218.000
156.2290, 4258.000
157.4550, 4196.000
158.6810, 4239.000
159.9080, 4244.000
161.1340, 4282.000
162.3590, 4307.000
163.5850, 4299.000
164.8110, 4344.435
166.0360, 4372.000
167.2610, 4393.000
168.4860, 4419.000
169.7110, 4412.000
170.9360, 4447.000
172.1610, 4469.000
173.3850, 4510.000
174.6100, 4440.000
175.8340, 4510.000
177.0580, 4557.000
178.2820, 4477.000
179.5050, 4553.000
180.7290, 4581.000
181.9520, 4583.000
183.1760, 4676.000
184.3990, 4701.000
185.6220, 4734.000
186.8450, 4614.000
188.0670, 4698.000
189.2900, 4692.000
190.5120, 4668.000
191.7340, 4705.000
192.9560, 4780.000
194.1780, 4731.000
195.4000, 4639.000
196.6220, 4670.000
197.8430, 4826.000
199.0640, 4806.000
200.2860, 4887.000
201.5070, 4929.000
202.7270, 4933.000
203.9480, 4860.000
205.1690, 4963.000
206.3890, 4959.000
207.6090, 4932.000
208.8290, 5114.000
210.0490, 4989.000
211.2690, 4977.000
212.4890, 5019.000
213.7080, 5045.000
214.9280, 5062.000
216.1470, 5043.000
217.3660, 5023.000
218.5850, 5059.000
219.8030, 5076.000
221.0220, 5079.875
222.2400, 5155.000
223.4590, 5138.000
224.6770, 5179.000
225.8950, 5286.000
227.1120, 5132.000
228.3300, 5333.000
229.5480, 5225.000
230.7650, 5328.000
231.9820, 5295.000
233.1990, 5377.000
234.4160, 5362.000
235.6330, 5400.000
236.8490, 5377.000
238.0660, 5370.000
239.2820, 5350.000
240.4980, 5337.000
241.7140, 5359.000
242.9300, 5392.000
244.1460, 5404.188
245.3610, 5431.497
246.5770, 5472.000
247.7920, 5477.000
249.0070, 5540.000
250.2220, 5567.000
251.4370, 5469.000
252.6510, 5590.000
253.8660, 5566.000
255.0800, 5688.000
256.2940, 5670.000
257.5080, 5588.000
258.7220, 5711.000
259.9360, 5724.000
261.1490, 5798.000
262.3630, 5722.000
263.5760, 5698.000
264.7890, 5762.000
266.0020, 5835.000
267.2150, 5838.000
268.4270, 5872.000
269.6400, 5928.000
270.8520, 5882.000
272.0640, 5903.000
273.2760, 5957.000
274.4880, 5930.000
275.7000, 6008.000
276.9120, 5978.000
278.1230, 6026.000
279.3340, 6039.000
280.5450, 6114.000
281.7560, 6104.000
282.9670, 6159.000
284.1780, 6161.508
285.3880, 6175.000
286.5980, 6186.000
287.8090, 6180.000
289.0190, 6245.000
290.2290, 6281.000
291.4380, 6257.000
292.6480, 6254.000
293.8570, 6245.000
295.0670, 6376.000
296.2760, 6334.000
297.4850, 6416.000
298.6930, 6347.000
299.9020, 6468.000
301.1110, 6331.000
302.3190, 6439.000
303.5270, 6510.000
304.7350, 6483.000
305.9430, 6523.000
307.1510, 6532.000
308.3580, 6523.000
309.5660, 6507.000
310.7730, 6550.000
311.9800, 6590.000
313.1870, 6586.000
314.3940, 6607.000
315.6010, 6610.000
316.8070, 6613.000
318.0130, 6614.000
319.2200, 6664.000
320.4260, 6691.000
321.6310, 6715.028
322.8370, 6729.000
324.0430, 6760.000
325.2480, 6807.000
326.4540, 6805.000
327.6590, 6834.000
328.8640, 6795.000
330.0680, 6865.000
331.2730, 6851.000
332.4780, 6952.000
333.6820, 6875.000
334.8860, 7007.000
336.0900, 6991.000
337.2940, 6895.000
338.4980, 6967.000
339.7010, 7030.000
340.9050, 6966.000
342.1080, 7036.000
343.3110, 7145.000
344.5140, 7119.000
345.7170, 7099.000
346.9200, 7081.000
348.1220, 7128.000
349.3240, 7192.000
350.5270, 7144.000
351.7290, 7277.000
352.9310, 7253.000
354.1320, 7254.000
355.3340, 7316.000
356.5350, 7391.000
357.7370, 7342.000
358.9380, 7415.000
360.1390, 7358.000
361.3400, 7433.000
362.5400, 7515.000
363.7410, 7396.000
364.9410, 7468.000
366.1410, 7445.000
367.3410, 7573.000
368.5410, 7614.000
369.7410, 7547.000
370.9400, 7623.000
372.1400, 7626.000
373.3390, 7703.000
374.5380, 7697.000
375.7370, 7648.000
376.9360, 7755.000
378.1350, 7843.000
379.3330, 7704.000
380.5310, 7883.000
381.7300, 7838.000
382.9280, 7754.000
384.1260, 7893.000
385.3230, 7880.000
386.5210, 7995.000
387.7180, 7963.000
388.9160, 8030.000
390.1130, 7960.000
391.3100, 7994.000
392.5060, 7943.000
393.7030, 7911.000
394.9000, 8100.000
396.0960, 8164.000
397.2920, 8185.000
398.4880, 8177.000
399.6840, 8169.000
400.8800, 8152.000
402.0750, 8202.000
403.2710, 8360.000
404.4660, 8336.000
405.6610, 8415.000
406.8560, 8426.000
408.0510, 8420.000
409.2450, 8385.000
410.4400, 8495.000
411.6340, 8575.000
412.8280, 8636.000
414.0220, 8633.000
415.2160, 8667.000
416.4100, 8608.000
417.6030, 8776.000
418.7970, 8771.000
419.9900, 8846.000
421.1830, 8993.000
422.3760, 9213.000
423.5690, 9291.000
424.7610, 9399.929
425.9540, 9494.005
427.1460, 9502.000
428.3380, 9591.000
429.5300, 9577.000
430.7220, 9569.000
431.9140, 9527.000
433.1050, 9392.000
434.2970, 9342.000
435.4880, 9329.000
436.6790, 9337.000
437.8700, 9231.000
439.0610, 9320.000
440.2510, 9326.000
441.4420, 9412.000
442.6320, 9324.000
443.8220, 9448.000
445.0120, 9393.000
446.2020, 9559.000
447.3910, 9640.000
448.5810, 9447.000
449.7700, 9403.000
450.9600, 9471.000
452.1490, 9606.000
453.3370, 9522.000
454.5260, 9466.000
455.7150, 9418.000
456.9030, 9470.723
458.0910, 9596.000
459.2800, 9614.000
460.4670, 9633.000
461.6550, 9669.000
462.8430, 9600.000
464.0300, 9691.000
465.2180, 9647.000
466.4050, 9729.000
467.5920, 9760.000
468.7790, 9758.000
469.9650, 9829.000
471.1520, 9828.000
472.3380, 9862.000
473.5250, 9976.000
474.7110, 9886.000
475.8970, 9873.000
477.0820, 9948.000
478.2680, 10157.00
479.4540, 10057.00
480.6390, 10136.00
481.8240, 10165.00
483.0090, 10067.00
484.1940, 10202.00
485.3780, 10255.00
486.5630, 10154.00
487.7470, 10279.00
488.9320, 10274.00
490.1160, 10330.00
491.3000, 10265.00
492.4830, 10442.00
493.6670, 10317.00
494.8500, 10348.00
496.0340, 10524.00
497.2170, 10483.00
498.4000, 10538.00
499.5820, 10604.00
500.7650, 10574.00
501.9480, 10660.13
503.1300, 10692.00
504.3120, 10725.00
505.4940, 10770.00
506.6760, 10697.00
507.8580, 10757.00
509.0390, 10761.00
510.2210, 10923.00
511.4020, 10875.00
512.5830, 10871.00
513.7640, 10947.00
514.9450, 10931.00
516.1250, 10930.00
517.3060, 10993.00
518.4860, 11028.00
519.6660, 11122.00
520.8460, 11088.00
522.0260, 11203.00
523.2060, 11232.00
524.3850, 11289.00
525.5650, 11254.00
526.7440, 11391.00
527.9230, 11401.00
529.1020, 11329.00
530.2810, 11416.00
531.4590, 11298.00
532.6380, 11406.00
533.8160, 11495.00
534.9940, 11492.00
536.1720, 11534.00
537.3500, 11636.00
538.5270, 11598.00
539.7050, 11650.00
540.8820, 11699.00
542.0590, 11704.00
543.2360, 11829.00
544.4130, 11729.00
545.5900, 11868.00
546.7660, 11739.00
547.9430, 11803.00
549.1190, 11850.00
550.2950, 11944.00
551.4710, 11905.00
552.6470, 11976.00
553.8220, 12053.00
554.9980, 12058.00
556.1730, 12241.00
557.3480, 12169.00
558.5230, 12263.00
559.6980, 12382.00
560.8730, 12306.00
562.0470, 12165.00
563.2220, 12229.00
564.3960, 12383.00
565.5700, 12346.00
566.7440, 12481.00
567.9170, 12499.00
569.0910, 12407.00
570.2640, 12657.00
571.4380, 12642.00
572.6110, 12585.00
573.7840, 12770.00
574.9570, 12802.00
576.1290, 12860.00
577.3020, 13028.00
578.4740, 12863.00
579.6460, 13059.00
580.8180, 13020.00
581.9900, 13119.00
583.1620, 13294.00
584.3330, 13342.00
585.5040, 13485.00
586.6760, 13494.00
587.8470, 13619.00
589.0180, 13866.00
590.1880, 13928.00
591.3590, 13782.00
592.5290, 13769.00
593.7000, 13533.00
594.8700, 13639.00
596.0400, 13693.00
597.2090, 13461.00
598.3790, 13583.00
599.5490, 13449.00
600.7180, 14012.00
601.8870, 13770.00
603.0560, 13836.00
604.2250, 13838.00
605.3940, 13862.00
606.5620, 13920.00
607.7300, 13851.00
608.8990, 13993.00
610.0670, 13962.00
611.2350, 13858.00
612.4020, 13998.00
613.5700, 14025.00
614.7370, 14068.00
615.9050, 13986.00
617.0720, 13968.00
618.2390, 14113.00
619.4060, 14129.00
620.5720, 14245.00
621.7390, 14122.00
622.9050, 14308.00
624.0710, 14293.00
625.2370, 14527.00
626.4030, 14313.00
627.5690, 14505.00
628.7340, 14353.00
629.9000, 14406.00
631.0650, 14446.00
632.2300, 14514.00
633.3950, 14551.00
634.5600, 14553.00
635.7240, 14644.00
636.8890, 14663.00
638.0530, 14731.00
639.2170, 14798.00
640.3810, 14802.00
641.5450, 14769.00
642.7080, 15050.00
643.8720, 15062.00
645.0350, 14909.00
646.1980, 14847.00
647.3610, 15121.00
648.5240, 14941.00
649.6870, 15157.00
650.8490, 15137.00
652.0120, 15274.00
653.1740, 15301.00
654.3360, 15395.00
655.4980, 15344.00
656.6600, 15324.00
657.8210, 15412.00
658.9830, 15443.00
660.1440, 15501.00
661.3050, 15430.00
662.4660, 15586.00
663.6270, 15769.00
664.7870, 15656.00
665.9480, 15662.00
667.1080, 15885.00
668.2680, 15900.00
669.4280, 15853.00
670.5880, 15907.00
671.7480, 16117.00
672.9070, 15776.00
674.0670, 15977.00
675.2260, 16069.00
676.3850, 15963.00
677.5440, 16099.00
678.7030, 16137.00
679.8610, 16239.00
681.0200, 16320.00
682.1780, 16087.00
683.3360, 16292.00
684.4940, 16307.00
685.6520, 16468.00
686.8090, 16540.00
687.9670, 16599.85
689.1240, 16543.00
690.2810, 16694.00
691.4380, 16546.00
692.5950, 16508.00
693.7520, 16714.00
694.9080, 16703.00
696.0650, 16877.00
697.2210, 16766.00
698.3770, 16790.00
699.5330, 16934.00
700.6880, 16896.00
701.8440, 16974.00
702.9990, 17138.00
704.1550, 17114.00
705.3100, 17318.00
706.4650, 17304.54
707.6190, 17264.00
708.7740, 17308.00
709.9290, 17281.00
711.0830, 17246.00
712.2370, 17322.00
713.3910, 17445.00
714.5450, 17461.00
715.6980, 17490.00
716.8520, 17340.00
718.0050, 17677.00
719.1580, 17725.00
720.3110, 17512.00
721.4640, 17841.00
722.6170, 17936.00
723.7700, 17867.00
724.9220, 17965.00
726.0740, 17926.00
727.2260, 18047.00
728.3780, 18081.00
729.5300, 18016.00
730.6810, 17994.00
731.8330, 18053.42
732.9840, 18199.00
734.1350, 18199.00
735.2860, 18331.00
736.4370, 18473.00
737.5880, 18381.00
738.7380, 18305.00
739.8880, 18419.00
741.0390, 18484.00
742.1890, 18463.00
743.3380, 18687.00
744.4880, 18791.00
745.6380, 18791.00
746.7870, 18978.00
747.9360, 18971.00
749.0850, 18830.00
750.2340, 18868.00
751.3830, 18933.00
752.5310, 18986.00
753.6800, 19144.00
754.8280, 18991.00
755.9760, 19086.00
757.1240, 19095.00
758.2720, 19342.00
759.4190, 19275.00
760.5670, 19359.00
761.7140, 19512.00
762.8610, 19527.00
764.0080, 19482.00
765.1550, 19562.00
766.3020, 19629.00
767.4480, 19451.00
768.5950, 19547.00
769.7410, 19744.00
770.8870, 19864.00
772.0330, 19913.86
773.1780, 19957.00
774.3240, 20003.00
775.4690, 20051.00
776.6140, 20131.45
777.7590, 19915.00
778.9040, 20101.00
780.0490, 20200.00
781.1940, 20076.00
782.3380, 20304.00
783.4820, 20134.00
784.6260, 20377.00
785.7700, 20570.00
786.9140, 20284.00
788.0580, 20486.00
789.2010, 20504.00
790.3450, 20572.00
791.4880, 20747.00
792.6310, 20566.00
793.7730, 20502.00
794.9160, 20755.00
796.0590, 20883.00
797.2010, 20753.00
798.3430, 20919.00
799.4850, 20973.00
800.6270, 20828.00
801.7690, 21046.00
802.9100, 21188.00
804.0520, 21076.00
805.1930, 21296.00
806.3340, 21146.00
807.4750, 21292.00
808.6160, 21538.00
809.7560, 21310.00
810.8970, 21491.00
812.0370, 21671.00
813.1770, 21423.00
814.3170, 21671.00
815.4570, 21629.00
816.5960, 21598.00
817.7360, 21677.00
818.8750, 21845.00
820.0140, 21819.00
821.1530, 21917.00
822.2920, 21998.00
823.4310, 22070.00
824.5690, 22174.00
825.7070, 22082.00
826.8460, 21975.00
827.9840, 22223.00
829.1220, 22160.00
830.2590, 22338.00
831.3970, 22407.00
832.5340, 22389.00
833.6710, 22474.00
834.8080, 22624.00
835.9450, 22535.00
837.0820, 22681.00
838.2190, 22795.00
839.3550, 22721.00
840.4910, 22798.00
841.6270, 22992.00
842.7630, 23022.00
843.8990, 23091.00
845.0350, 22985.00
846.1700, 23227.00
847.3060, 23110.00
848.4410, 23193.00
849.5760, 23334.00
850.7100, 23396.00
851.8450, 23296.00
852.9800, 23289.00
854.1140, 23334.00
855.2480, 23398.00
856.3820, 23441.37
857.5160, 23544.19
858.6500, 23574.00
859.7830, 23735.00
860.9170, 23804.00
862.0500, 23849.00
863.1830, 24013.00
864.3160, 23890.00
865.4480, 23931.00
866.5810, 24231.00
867.7130, 24404.00
868.8460, 24285.00
869.9780, 24197.00
871.1100, 24347.00
872.2410, 24215.00
873.3730, 24439.00
874.5050, 24401.00
875.6360, 24770.00
876.7670, 24493.00
877.8980, 24591.00
879.0290, 24466.00
880.1590, 24657.00
881.2900, 24939.00
882.4200, 24813.00
883.5500, 24754.00
884.6800, 24963.00
885.8100, 24874.00
886.9400, 25032.00
888.0690, 24915.00
889.1990, 25158.00
890.3280, 24853.00
891.4570, 25139.00
892.5860, 25284.00
893.7140, 25146.00
894.8430, 25301.00
895.9710, 25369.00
897.1000, 25516.00
898.2280, 25458.00
899.3560, 25577.86
900.4830, 25622.00
901.6110, 25659.00
902.7380, 25800.00
903.8660, 25734.00
904.9930, 25666.00
906.1200, 25941.00
907.2460, 25791.00
908.3730, 26074.00
909.5000, 26041.00
910.6260, 26128.00
911.7520, 26303.00
912.8780, 26257.00
914.0040, 26378.58
915.1290, 26382.00
916.2550, 26511.00
917.3800, 26448.00
918.5050, 26520.00
919.6300, 26570.00
920.7550, 26638.00
921.8800, 26663.00
923.0040, 26783.00
924.1290, 26728.00
925.2530, 26863.00
926.3770, 27082.00
927.5010, 27054.00
928.6250, 26823.00
929.7480, 27136.00
930.8720, 27092.00
931.9950, 27259.00
933.1180, 27150.00
934.2410, 27494.00
935.3640, 27413.00
936.4860, 27340.00
937.6090, 27571.00
938.7310, 27333.00
939.8530, 27802.00
940.9750, 27782.00
942.0970, 27818.00
943.2180, 27733.00
944.3400, 27883.50
945.4610, 28011.00
946.5820, 28174.00
947.7030, 28260.00
948.8240, 28428.00
949.9450, 28304.00
951.0650, 28482.00
952.1860, 28603.00
953.3060, 28592.00
954.4260, 28757.00
955.5460, 29076.00
956.6650, 29480.00
957.7850, 29924.00
958.9040, 30729.00
960.0230, 31665.00
961.1420, 33009.00
962.2610, 34659.00
963.3800, 35785.00
964.4990, 35495.00
965.6170, 34634.00
966.7350, 33454.00
967.8530, 32192.00
968.9710, 31190.00
970.0890, 30314.00
971.2070, 30144.00
972.3240, 29604.00
973.4410, 29748.00
974.5580, 29701.00
975.6750, 29394.00
976.7920, 29476.00
977.9090, 29770.00
979.0250, 29778.00
980.1410, 29850.00
981.2580, 29956.00
982.3740, 29746.00
983.4890, 30019.00
984.6050, 29818.00
985.7200, 29965.00
986.8360, 30251.00
987.9510, 30132.00
989.0660, 30280.00
990.1810, 30462.00
991.2950, 30318.00
992.4100, 30314.00
993.5240, 30555.00
994.6390, 30523.00
995.7530, 30500.00
996.8660, 30673.00
997.9800, 30703.00
999.0940, 30766.00
1000.207, 30714.00
1001.320, 30857.00
1002.433, 31098.00
1003.546, 30974.00
1004.659, 31232.00
1005.772, 31015.00
1006.884, 31413.00
1007.996, 31276.00
1009.108, 31388.00
1010.220, 31340.00
1011.332, 31488.00
1012.444, 31579.00
1013.555, 31494.00
1014.666, 31545.00
1015.777, 31478.00
1016.888, 31686.00
1017.999, 31770.00
1019.110, 31750.00
1020.220, 31753.00
1021.331, 31837.00
1022.441, 31876.00
1023.551, 32104.00
1024.661, 31866.00
1025.770, 32027.00
1026.880, 32221.00
1027.989, 32489.00
1029.098, 32596.00
1030.207, 32663.00
1031.316, 32594.00
1032.425, 32641.00
1033.533, 32882.00
1034.642, 32919.00
1035.750, 33029.00
1036.858, 32910.00
1037.966, 32994.00
1039.073, 32955.00
1040.181, 33331.00
1041.288, 33630.00
1042.396, 33462.00
1043.503, 33613.00
1044.610, 33370.00
1045.716, 33359.00
1046.823, 33423.00
1047.929, 33680.00
1049.036, 33902.00
1050.142, 33885.00
1051.248, 34168.00
1052.353, 34370.00
1053.459, 34319.00
1054.564, 34522.00
1055.670, 34333.00
1056.775, 34432.00
1057.880, 34115.00
1058.985, 34306.00
1060.089, 34251.00
1061.194, 34101.00
1062.298, 34289.00
1063.402, 34271.00
1064.506, 34355.00
1065.610, 34540.00
1066.713, 34705.00
1067.817, 34496.00
1068.920, 34543.00
1070.023, 34861.00
1071.126, 34586.00
1072.229, 34738.00
1073.332, 34965.00
1074.435, 34909.00
1075.537, 34882.00
1076.639, 35243.00
1077.741, 35319.00
1078.843, 35679.00
1079.945, 35553.00
1081.046, 35513.00
1082.148, 35685.00
1083.249, 35809.00
1084.350, 35765.26
1085.451, 35722.00
1086.551, 35704.00
1087.652, 35795.00
1088.752, 35720.00
1089.853, 35776.00
1090.953, 35851.00
1092.053, 35847.00
1093.152, 36004.00
1094.252, 36001.00
1095.351, 36129.00
1096.451, 36095.00
1097.550, 36064.00
1098.649, 36220.00
1099.748, 36252.00
1100.846, 36190.00
1101.945, 36288.00
1103.043, 36638.00
1104.141, 36427.00
1105.239, 36476.00
1106.337, 36716.00
1107.434, 36406.00
1108.532, 36570.00
1109.629, 36669.00
1110.726, 36836.00
1111.823, 36978.00
1112.920, 37204.00
1114.017, 37147.00
1115.113, 37022.00
1116.210, 37185.00
1117.306, 37266.00
1118.402, 37160.00
1119.498, 37194.00
1120.593, 37694.00
1121.689, 37813.00
1122.784, 37725.00
1123.879, 37540.00
1124.974, 37687.00
1126.069, 37588.00
1127.164, 37865.00
1128.259, 37971.00
1129.353, 37977.00
1130.447, 38193.00
1131.541, 38088.00
1132.635, 38006.00
1133.729, 38126.00
1134.822, 38243.00
1135.916, 38292.00
1137.009, 38560.00
1138.102, 38511.00
1139.195, 38578.00
1140.288, 38496.00
1141.380, 38737.00
1142.473, 38591.00
1143.565, 38718.00
1144.657, 38881.00
1145.749, 38808.00
1146.841, 38823.00
1147.932, 39185.00
1149.024, 39105.00
1150.115, 38983.00
1151.206, 39442.00
1152.297, 39172.00
1153.388, 39408.00
1154.479, 39425.00
1155.569, 39448.00
1156.659, 39458.00
1157.750, 39515.00
1158.839, 39534.96
1159.929, 39646.00
1161.019, 39598.00
1162.108, 39720.00
1163.198, 39747.00
1164.287, 39844.00
1165.376, 39995.00
1166.465, 40005.41
1167.553, 40224.00
1168.642, 40162.00
1169.730, 40153.00
1170.818, 40379.00
1171.906, 40212.00
1172.994, 40698.00
1174.082, 40475.00
1175.170, 40513.00
1176.257, 40911.00
1177.344, 40609.00
1178.431, 40787.00
1179.518, 40810.00
1180.605, 41139.00
1181.691, 40890.00
1182.778, 41065.00
1183.864, 40723.00
1184.950, 41129.00
1186.036, 41112.00
1187.122, 41175.00
1188.207, 41288.00
1189.292, 41335.19
1190.378, 41413.99
1191.463, 41478.00
1192.548, 41543.00
1193.632, 41531.00
1194.717, 41579.00
1195.801, 41577.64
1196.886, 41801.00
1197.970, 41631.00
1199.054, 41796.00
1200.137, 41966.00
1201.221, 41829.00
1202.305, 42135.00
1203.388, 42323.00
1204.471, 42321.00
1205.554, 42266.00
1206.637, 42397.00
1207.719, 42381.39
1208.802, 42403.68
1209.884, 42460.00
1210.966, 42466.00
1212.048, 42497.00
1213.130, 42593.00
1214.212, 42516.00
1215.293, 42716.00
1216.374, 42906.00
1217.456, 42838.00
1218.536, 43297.00
1219.617, 43080.00
1220.698, 43380.00
1221.778, 43318.00
1222.859, 43257.00
1223.939, 43288.00
1225.019, 43213.00
1226.099, 43537.00
1227.178, 43496.00
1228.258, 43572.00
1229.337, 43510.00
1230.417, 43615.00
1231.496, 43665.00
1232.574, 43929.00
1233.653, 43882.00
1234.732, 43983.00
1235.810, 43897.00
1236.888, 43983.00
1237.966, 44138.00
1239.044, 44096.00
1240.122, 44097.00
1241.199, 44400.00
1242.277, 44443.00
1243.354, 44347.00
1244.431, 44391.00
1245.508, 44440.84
1246.585, 44391.00
1247.661, 44639.00
1248.738, 44815.00
1249.814, 45031.00
1250.890, 44950.00
1251.966, 45078.00
1253.042, 44868.00
1254.117, 44990.00
1255.193, 44736.00
1256.268, 45052.00
1257.343, 45117.00
1258.418, 45290.00
1259.493, 45254.00
1260.567, 45330.00
1261.642, 45415.00
1262.716, 45481.00
1263.790, 45578.00
1264.864, 45774.00
1265.938, 45597.00
1267.011, 45878.00
1268.085, 45646.00
1269.158, 45661.00
1270.231, 45937.00
1271.304, 45985.00
1272.377, 46035.00
1273.450, 46044.00
1274.522, 46106.00
1275.594, 46177.00
1276.666, 46400.00
1277.738, 46462.00
1278.810, 46207.00
1279.882, 46509.00
1280.953, 46498.00
1282.025, 46256.00
1283.096, 46431.00
1284.167, 46637.00
1285.238, 46597.00
1286.308, 46722.22
1287.379, 46665.00
1288.449, 46736.00
1289.519, 46801.00
1290.589, 46693.00
1291.659, 46699.00
1292.729, 46622.00
1293.798, 46966.00
1294.868, 46819.00
1295.937, 46699.00
1297.006, 47043.00
1298.075, 47023.00
1299.143, 46964.00
1300.212, 47672.00
1301.280, 47077.00
1302.348, 47478.00
1303.416, 47364.00
1304.484, 47498.00
1305.552, 47615.00
1306.620, 47882.00
1307.687, 47982.00
1308.754, 47756.00
1309.821, 48211.00
1310.888, 48038.00
1311.955, 48262.00
1313.021, 48331.00
1314.088, 48088.00
1315.154, 48473.00
1316.220, 48684.00
1317.286, 48524.00
1318.352, 48504.00
1319.417, 48762.00
1320.483, 48539.00
1321.548, 48685.00
1322.613, 48974.00
1323.678, 49304.00
1324.743, 48951.00
1325.807, 48975.00
1326.872, 48881.00
1327.936, 49351.00
1329.000, 49241.00
1330.064, 49280.00
1331.128, 49321.00
1332.191, 49514.00
1333.255, 49365.00
1334.318, 49505.00
1335.381, 49606.00
1336.444, 49524.00
1337.507, 49825.00
1338.569, 49474.00
1339.632, 49899.00
1340.694, 49866.00
1341.756, 49792.00
1342.818, 49873.00
1343.880, 49940.00
1344.941, 50128.00
1346.003, 50272.00
1347.064, 50343.00
1348.125, 50440.00
1349.186, 50496.00
1350.247, 50591.72
1351.308, 50378.00
1352.368, 50831.00
1353.428, 50653.00
1354.489, 50881.00
1355.549, 50693.00
1356.608, 50752.00
1357.668, 50721.00
1358.727, 50896.00
1359.787, 50915.00
1360.846, 51111.00
1361.905, 51116.00
1362.964, 50987.00
1364.022, 51124.00
1365.081, 51300.00
1366.139, 51029.00
1367.197, 51351.00
1368.255, 51385.00
1369.313, 51158.00
1370.371, 51327.00
1371.428, 51337.00
1372.486, 51476.00
1373.543, 51597.00
1374.600, 51699.00
1375.657, 51981.00
1376.713, 51704.00
1377.770, 51762.00
1378.826, 51965.00
1379.882, 52027.00
1380.938, 52035.14
1381.994, 52064.00
1383.050, 51989.00
1384.106, 52049.00
1385.161, 52021.00
1386.216, 52246.00
1387.271, 52059.00
1388.326, 52158.00
1389.381, 52414.00
1390.435, 52632.00
1391.490, 52663.29
1392.544, 52749.05
1393.598, 52751.00
1394.652, 52680.00
1395.705, 52726.00
1396.759, 52603.00
1397.812, 52544.00
1398.866, 52992.00
1399.919, 53114.00
1400.972, 53037.00
1402.024, 53427.00
1403.077, 53438.00
1404.129, 53430.00
1405.181, 53301.00
1406.233, 53169.00
1407.285, 53556.00
1408.337, 53447.00
1409.389, 53484.00
1410.440, 53238.00
1411.491, 53419.00
1412.542, 53623.00
1413.593, 53708.00
1414.644, 53901.00
1415.695, 53980.23
1416.745, 53839.00
1417.795, 54081.00
1418.845, 54105.00
1419.895, 54029.00
1420.945, 54154.00
1421.995, 53943.00
1423.044, 53879.00
1424.093, 54377.00
1425.142, 54306.00
1426.191, 54344.00
1427.240, 53998.00
1428.289, 54594.00
1429.337, 54571.00
1430.385, 54685.00
1431.433, 54788.00
1432.481, 54682.00
1433.529, 54829.00
1434.577, 54955.00
1435.624, 54881.00
1436.672, 54780.00
1437.719, 54737.00
1438.766, 54705.43
1439.812, 54848.00
1440.859, 54797.00
1441.905, 55131.00
1442.952, 55446.00
1443.998, 55416.00
1445.044, 55219.00
1446.090, 55421.00
1447.135, 55474.00
1448.181, 55497.00
1449.226, 55384.00
1450.271, 55768.00
1451.316, 55135.00
1452.361, 55851.00
1453.405, 55654.00
1454.450, 55505.00
1455.494, 56172.00
1456.538, 56230.00
1457.582, 56168.00
1458.626, 56108.00
1459.670, 56247.00
1460.713, 55955.00
1461.757, 56130.00
1462.800, 56448.00
1463.843, 56517.00
1464.886, 55978.00
1465.928, 56293.00
1466.971, 56131.00
1468.013, 56297.00
1469.055, 56509.00
1470.097, 56477.00
1471.139, 56745.00
1472.181, 56882.00
1473.222, 56581.00
1474.263, 56811.00
1475.305, 57022.00
1476.346, 56627.00
1477.386, 57167.00
1478.427, 56989.00
1479.468, 57263.00
1480.508, 57102.00
1481.548, 57281.00
1482.588, 57331.00
1483.628, 57357.00
1484.668, 57490.00
1485.707, 57487.00
1486.747, 57542.00
1487.786, 57654.00
1488.825, 57454.00
1489.864, 57702.00
1490.902, 57667.00
1491.941, 57972.00
1492.979, 57999.00
1494.017, 57676.00
1495.055, 57743.00
1496.093, 57891.00
1497.131, 58009.00
1498.168, 58234.00
1499.206, 58059.00
1500.243, 58400.00
1501.280, 58045.00
1502.317, 58278.00
1503.354, 58104.00
1504.390, 58276.00
1505.426, 58696.00
1506.463, 58655.00
1507.499, 58581.00
1508.535, 58435.00
1509.570, 58741.00
1510.606, 58647.00
1511.641, 58788.00
1512.676, 58786.00
1513.711, 58989.00
1514.746, 58876.00
1515.781, 59107.00
1516.816, 58981.00
1517.850, 59105.00
1518.884, 59147.00
1519.918, 59388.00
1520.952, 59441.00
1521.986, 59311.00
1523.019, 59537.00
1524.053, 59490.00
1525.086, 59407.00
1526.119, 59763.00
1527.152, 59426.00
1528.185, 59689.00
1529.217, 59770.00
1530.250, 59927.00
1531.282, 60176.00
1532.314, 59887.00
1533.346, 59674.00
1534.377, 59528.00
1535.409, 60160.00
1536.440, 60004.00
1537.472, 59960.00
1538.503, 60128.00
1539.534, 60141.00
1540.564, 60208.00
1541.595, 60412.00
1542.625, 60205.00
1543.656, 60275.00
1544.686, 60044.00
1545.716, 60168.00
1546.745, 60336.00
1547.775, 60208.00
1548.804, 60435.00
1549.834, 60521.00
1550.863, 60775.00
1551.892, 60482.00
1552.920, 60890.00
1553.949, 60728.00
1554.977, 60867.00
1556.006, 60697.00
1557.034, 60897.00
1558.062, 60572.00
1559.089, 60845.00
1560.117, 61027.00
1561.144, 61112.00
1562.172, 61286.00
1563.199, 61266.00
1564.226, 61232.00
1565.252, 61142.00
1566.279, 61156.87
1567.305, 61111.00
1568.332, 61204.00
1569.358, 61248.00
1570.384, 61395.00
1571.409, 61719.00
##END=



