##NAMES=Fluorapatite
##RRUFFID=R040098
##IDEAL CHEMISTRY=Ca_5_(PO_4_)_3_F
##LOCALITY=Cerro de Mercado mine, Durango, Mexico
##OWNER=RRUFF
##SOURCE=Marcus Origlieri
##DESCRIPTION=Pale yellow short hexagonal prism
##STATUS=The identification of this mineral has been confirmed by X-ray diffraction and chemical analysis
##URL=rruff.info/R040098
##MEASURED CHEMISTRY=Ca_5.00_((P_0.98_Si_0.01_S_0.01_)O_4_)_3_F_1.00_
##PIN_ID=M00032
##ORIENTATION=Laser parallel to [-1 -1 0]. Fiducial mark perpendicular to laser is parallel to c [0 0 1]
59.67900, 754.0000
60.92500, 801.0000
62.17000, 842.0000
63.41600, 830.0000
64.66100, 737.0000
65.90700, 679.0000
67.15200, 642.0000
68.39700, 714.0000
69.64100, 762.0000
70.88600, 740.1867
72.13000, 854.5159
73.37400, 763.0000
74.61800, 935.0000
75.86200, 1037.000
77.10600, 870.0000
78.34900, 829.0000
79.59300, 796.0000
80.83600, 681.0000
82.07900, 688.0000
83.32100, 660.0000
84.56400, 590.0000
85.80600, 574.0000
87.04800, 526.0000
88.29000, 560.0000
89.53200, 570.0000
90.77400, 560.0000
92.01500, 542.0000
93.25700, 532.0000
94.49800, 574.0000
95.73900, 553.0000
96.98000, 574.0000
98.22000, 595.0000
99.46100, 610.0000
100.7010, 589.0000
101.9410, 570.0000
103.1810, 602.0000
104.4210, 598.0000
105.6600, 609.0000
106.9000, 623.0000
108.1390, 584.0000
109.3780, 588.0000
110.6170, 613.0000
111.8550, 668.0000
113.0940, 847.0000
114.3320, 997.0000
115.5700, 986.0000
116.8080, 854.0000
118.0460, 831.0000
119.2830, 771.1895
120.5210, 701.8488
121.7580, 690.0000
122.9950, 609.0000
124.2320, 609.0000
125.4690, 593.0000
126.7050, 579.0000
127.9410, 565.0000
129.1780, 569.0000
130.4140, 591.0000
131.6490, 609.0000
132.8850, 627.0000
134.1200, 619.0000
135.3560, 595.0000
136.5910, 608.0000
137.8260, 623.0000
139.0610, 641.0000
140.2950, 652.0000
141.5290, 659.3129
142.7640, 660.5735
143.9980, 662.0000
145.2320, 650.0000
146.4650, 637.0000
147.6990, 624.0000
148.9320, 644.0000
150.1650, 629.0000
151.3980, 657.0000
152.6310, 687.0000
153.8640, 752.0000
155.0960, 785.0000
156.3280, 837.0000
157.5600, 861.0000
158.7920, 868.6650
160.0240, 870.6827
161.2560, 861.0000
162.4870, 821.0000
163.7180, 806.0000
164.9490, 744.0000
166.1800, 739.0000
167.4110, 698.0000
168.6410, 714.0000
169.8720, 711.0000
171.1020, 720.0000
172.3320, 712.0000
173.5620, 657.0000
174.7910, 663.0000
176.0210, 644.0000
177.2500, 664.0000
178.4790, 691.0000
179.7080, 663.0000
180.9370, 653.0000
182.1650, 673.0000
183.3940, 701.0000
184.6220, 681.0000
185.8500, 710.0000
187.0780, 699.0000
188.3050, 738.0000
189.5330, 729.0000
190.7600, 747.0000
191.9870, 792.0000
193.2140, 801.0000
194.4410, 839.4306
195.6680, 881.0000
196.8940, 914.0000
198.1200, 969.8071
199.3470, 996.0000
200.5720, 1086.000
201.7980, 1150.000
203.0240, 1220.000
204.2490, 1400.000
205.4740, 1548.000
206.6990, 1742.000
207.9240, 1864.000
209.1490, 2095.000
210.3740, 2204.000
211.5980, 2248.000
212.8220, 2180.000
214.0460, 2036.000
215.2700, 1939.000
216.4930, 1697.000
217.7170, 1540.000
218.9400, 1413.000
220.1630, 1602.000
221.3860, 1346.948
222.6090, 1292.000
223.8320, 1114.000
225.0540, 1055.000
226.2760, 1065.000
227.4980, 1057.000
228.7200, 1053.000
229.9420, 1067.000
231.1630, 989.0000
232.3850, 1041.000
233.6060, 1001.000
234.8270, 1056.000
236.0480, 1040.000
237.2690, 1029.000
238.4890, 989.0000
239.7090, 968.0000
240.9290, 909.0000
242.1490, 876.0000
243.3690, 823.0000
244.5890, 843.0000
245.8080, 839.0000
247.0270, 810.0000
248.2470, 801.0000
249.4650, 824.0000
250.6840, 792.0000
251.9030, 783.0000
253.1210, 762.0000
254.3390, 795.0000
255.5570, 770.0000
256.7750, 780.0000
257.9930, 766.0000
259.2100, 770.0000
260.4280, 755.0000
261.6450, 755.0000
262.8620, 763.0000
264.0790, 789.0000
265.2950, 765.0000
266.5120, 796.0000
267.7280, 807.0000
268.9440, 786.0000
270.1600, 796.0000
271.3760, 769.0000
272.5920, 794.0000
273.8070, 790.0000
275.0220, 802.0000
276.2370, 828.0000
277.4520, 810.0000
278.6670, 796.0000
279.8820, 788.0000
281.0960, 801.0000
282.3100, 811.6443
283.5240, 883.0000
284.7380, 852.0000
285.9520, 886.0000
287.1650, 896.0000
288.3780, 878.0000
289.5920, 927.0000
290.8050, 923.0000
292.0170, 928.0000
293.2300, 1034.000
294.4430, 1018.000
295.6550, 1079.000
296.8670, 1098.000
298.0790, 1160.000
299.2910, 1199.000
300.5020, 1224.000
301.7140, 1287.000
302.9250, 1266.000
304.1360, 1326.000
305.3470, 1283.000
306.5580, 1296.000
307.7680, 1313.000
308.9780, 1222.000
310.1890, 1199.000
311.3990, 1137.000
312.6090, 1132.000
313.8180, 1083.000
315.0280, 1044.000
316.2370, 1009.000
317.4460, 989.0000
318.6550, 1009.000
319.8640, 944.0000
321.0730, 951.0000
322.2810, 864.0000
323.4890, 878.0000
324.6980, 828.0000
325.9060, 832.0000
327.1130, 833.0000
328.3210, 783.0000
329.5280, 827.0000
330.7360, 768.0000
331.9430, 799.0000
333.1500, 773.0000
334.3560, 786.0000
335.5630, 787.0000
336.7690, 769.0000
337.9760, 754.0000
339.1820, 781.0000
340.3870, 768.0000
341.5930, 749.0000
342.7990, 763.0000
344.0040, 756.0000
345.2090, 745.0000
346.4140, 752.0000
347.6190, 758.0000
348.8240, 757.7454
350.0280, 750.0000
351.2330, 753.0000
352.4370, 753.0000
353.6410, 721.0000
354.8440, 769.0000
356.0480, 695.0000
357.2520, 724.0000
358.4550, 760.0000
359.6580, 729.0000
360.8610, 709.0000
362.0640, 710.0000
363.2660, 697.0000
364.4690, 719.0000
365.6710, 701.0000
366.8730, 698.0000
368.0750, 718.0000
369.2770, 715.0000
370.4780, 725.7878
371.6800, 696.0000
372.8810, 735.0000
374.0820, 735.0000
375.2830, 721.0000
376.4830, 739.0000
377.6840, 737.0000
378.8840, 738.0000
380.0840, 729.0000
381.2840, 740.0000
382.4840, 730.9100
383.6840, 740.0000
384.8830, 730.0000
386.0830, 735.0000
387.2820, 755.0000
388.4810, 765.0000
389.6800, 776.9931
390.8780, 769.0000
392.0770, 800.0000
393.2750, 780.0829
394.4730, 785.5450
395.6710, 771.0000
396.8690, 762.0000
398.0660, 762.0000
399.2640, 784.0000
400.4610, 775.0000
401.6580, 802.0000
402.8550, 764.0000
404.0520, 798.0000
405.2490, 860.0595
406.4450, 825.1715
407.6410, 834.5283
408.8370, 805.0000
410.0330, 805.0000
411.2290, 792.0000
412.4240, 817.0000
413.6200, 845.0000
414.8150, 867.0000
416.0100, 869.0891
417.2050, 898.9805
418.4000, 911.6994
419.5940, 938.0000
420.7880, 949.0000
421.9830, 959.0000
423.1770, 981.0000
424.3700, 1010.000
425.5640, 1026.000
426.7580, 1086.000
427.9510, 1144.000
429.1440, 1185.000
430.3370, 1220.000
431.5300, 1262.000
432.7220, 1207.000
433.9150, 1287.000
435.1070, 1227.000
436.2990, 1255.000
437.4910, 1314.000
438.6830, 1278.000
439.8750, 1365.000
441.0660, 1350.000
442.2570, 1467.000
443.4480, 1505.000
444.6390, 1521.000
445.8300, 1663.000
447.0210, 1839.000
448.2110, 1791.000
449.4010, 1988.000
450.5910, 1979.000
451.7810, 2060.000
452.9710, 2067.000
454.1610, 2013.000
455.3500, 1952.000
456.5390, 1885.000
457.7280, 1750.000
458.9170, 1662.000
460.1060, 1546.000
461.2940, 1460.887
462.4830, 1401.000
463.6710, 1324.000
464.8590, 1296.000
466.0470, 1279.000
467.2350, 1210.000
468.4220, 1147.000
469.6090, 1073.000
470.7970, 1079.000
471.9840, 1074.000
473.1700, 1105.000
474.3570, 1025.000
475.5440, 957.0000
476.7300, 1004.000
477.9160, 980.0000
479.1020, 953.0000
480.2880, 957.0000
481.4740, 986.0000
482.6590, 916.0000
483.8440, 963.0000
485.0300, 945.0000
486.2140, 936.0000
487.3990, 889.0000
488.5840, 893.5985
489.7680, 893.0000
490.9530, 891.0000
492.1370, 881.0000
493.3210, 894.0000
494.5040, 903.0000
495.6880, 874.0000
496.8720, 914.0000
498.0550, 865.0000
499.2380, 891.0000
500.4210, 896.0000
501.6040, 845.0000
502.7860, 883.0000
503.9690, 857.0000
505.1510, 882.0000
506.3330, 960.0000
507.5150, 919.8558
508.6970, 929.8217
509.8780, 902.0000
511.0600, 887.0000
512.2410, 890.0000
513.4220, 885.0000
514.6030, 914.0000
515.7840, 901.0000
516.9640, 877.0000
518.1440, 913.0000
519.3250, 942.0000
520.5050, 926.0000
521.6850, 899.0000
522.8640, 932.0000
524.0440, 918.4964
525.2230, 934.4805
526.4020, 932.0000
527.5820, 953.0000
528.7600, 961.0000
529.9390, 938.0000
531.1180, 908.0000
532.2960, 923.0000
533.4740, 940.0000
534.6520, 976.0000
535.8300, 958.9590
537.0080, 944.0000
538.1850, 941.0000
539.3630, 927.0000
540.5400, 938.0000
541.7170, 933.7336
542.8940, 933.9139
544.0700, 943.0000
545.2470, 939.0000
546.4230, 952.0000
547.5990, 960.0000
548.7750, 983.0000
549.9510, 997.0000
551.1270, 1024.000
552.3020, 1025.029
553.4780, 1013.667
554.6530, 1037.000
555.8280, 1028.762
557.0030, 1007.000
558.1770, 1027.000
559.3520, 1044.000
560.5260, 1037.000
561.7000, 1074.000
562.8740, 1042.000
564.0480, 1081.000
565.2220, 1126.000
566.3950, 1116.000
567.5680, 1159.000
568.7420, 1156.000
569.9150, 1178.000
571.0870, 1240.000
572.2600, 1216.000
573.4320, 1256.000
574.6050, 1353.000
575.7770, 1367.000
576.9490, 1380.000
578.1210, 1475.000
579.2920, 1529.000
580.4640, 1625.000
581.6350, 1782.000
582.8060, 1974.000
583.9770, 2137.000
585.1480, 2477.000
586.3190, 2983.000
587.4890, 3688.000
588.6590, 4632.000
589.8290, 5581.000
590.9990, 6078.000
592.1690, 6051.000
593.3390, 5358.000
594.5080, 4414.000
595.6770, 4530.000
596.8470, 3391.000
598.0160, 2426.000
599.1840, 2247.000
600.3530, 2161.000
601.5210, 2123.000
602.6900, 2294.000
603.8580, 2595.000
605.0260, 2997.000
606.1930, 3414.000
607.3610, 3622.000
608.5280, 3371.000
609.6960, 2922.000
610.8630, 2378.000
612.0300, 2071.000
613.1970, 1833.000
614.3630, 1638.000
615.5300, 1587.000
616.6960, 1471.000
617.8620, 1445.000
619.0280, 1413.000
620.1940, 1350.000
621.3590, 1365.000
622.5250, 1354.000
623.6900, 1339.594
624.8550, 1425.000
626.0200, 1326.000
627.1850, 1288.000
628.3490, 1256.520
629.5140, 1313.000
630.6780, 1288.000
631.8420, 1291.000
633.0060, 1178.000
634.1700, 1252.000
635.3330, 1172.000
636.4970, 1230.000
637.6600, 1208.000
638.8230, 1206.000
639.9860, 1178.000
641.1490, 1181.000
642.3110, 1202.000
643.4740, 1180.000
644.6360, 1190.000
645.7980, 1212.000
646.9600, 1203.000
648.1220, 1220.000
649.2840, 1206.000
650.4450, 1239.000
651.6060, 1202.000
652.7670, 1230.000
653.9280, 1211.000
655.0890, 1262.000
656.2500, 1192.000
657.4100, 1218.000
658.5700, 1177.000
659.7300, 1218.000
660.8900, 1211.015
662.0500, 1201.575
663.2100, 1210.000
664.3690, 1174.000
665.5280, 1145.000
666.6880, 1097.000
667.8460, 1114.000
669.0050, 1122.000
670.1640, 1140.000
671.3220, 1165.000
672.4810, 1129.112
673.6390, 1172.000
674.7970, 1066.000
675.9540, 1126.000
677.1120, 1125.000
678.2690, 1053.000
679.4270, 1081.000
680.5840, 1133.000
681.7410, 1098.000
682.8980, 1079.000
684.0540, 1141.000
685.2110, 1109.000
686.3670, 1099.000
687.5230, 1087.000
688.6790, 1113.000
689.8350, 1090.901
690.9900, 1090.578
692.1460, 1085.000
693.3010, 1085.000
694.4560, 1113.000
695.6110, 1139.000
696.7660, 1144.000
697.9210, 1118.000
699.0750, 1145.000
700.2290, 1109.000
701.3840, 1128.000
702.5370, 1086.000
703.6910, 1089.000
704.8450, 1159.000
705.9980, 1155.000
707.1520, 1152.000
708.3050, 1109.000
709.4580, 1118.000
710.6110, 1126.000
711.7630, 1100.000
712.9160, 1128.000
714.0680, 1125.000
715.2200, 1140.000
716.3720, 1129.000
717.5240, 1131.000
718.6760, 1143.000
719.8270, 1119.000
720.9780, 1129.000
722.1300, 1127.000
723.2810, 1148.000
724.4310, 1169.000
725.5820, 1183.000
726.7330, 1174.000
727.8830, 1164.000
729.0330, 1135.000
730.1830, 1162.000
731.3330, 1165.000
732.4830, 1138.000
733.6320, 1157.000
734.7810, 1136.000
735.9310, 1174.000
737.0800, 1193.000
738.2290, 1129.000
739.3770, 1202.000
740.5260, 1147.000
741.6740, 1167.069
742.8220, 1168.197
743.9700, 1205.000
745.1180, 1155.000
746.2660, 1200.000
747.4130, 1198.000
748.5610, 1165.000
749.7080, 1163.000
750.8550, 1213.000
752.0020, 1146.000
753.1490, 1194.000
754.2950, 1195.000
755.4420, 1183.000
756.5880, 1180.000
757.7340, 1220.000
758.8800, 1184.000
760.0250, 1214.000
761.1710, 1169.000
762.3160, 1206.000
763.4620, 1223.000
764.6070, 1221.299
765.7520, 1243.629
766.8960, 1215.000
768.0410, 1249.000
769.1850, 1177.000
770.3300, 1143.979
771.4740, 1170.641
772.6180, 1265.000
773.7610, 1215.000
774.9050, 1209.000
776.0480, 1246.000
777.1920, 1232.000
778.3350, 1242.000
779.4780, 1243.000
780.6200, 1226.000
781.7630, 1239.000
782.9060, 1254.000
784.0480, 1274.000
785.1900, 1242.000
786.3320, 1238.000
787.4740, 1255.000
788.6150, 1258.000
789.7570, 1218.000
790.8980, 1266.000
792.0390, 1256.000
793.1800, 1210.000
794.3210, 1303.000
795.4620, 1256.000
796.6020, 1232.242
797.7420, 1302.603
798.8830, 1343.255
800.0230, 1355.793
801.1620, 1256.012
802.3020, 1301.266
803.4420, 1288.397
804.5810, 1273.143
805.7200, 1338.808
806.8590, 1255.363
807.9980, 1319.745
809.1370, 1325.117
810.2750, 1357.494
811.4140, 1331.391
812.5520, 1323.350
813.6900, 1331.000
814.8280, 1320.000
815.9650, 1274.000
817.1030, 1306.000
818.2400, 1314.000
819.3780, 1324.000
820.5150, 1382.000
821.6520, 1337.000
822.7880, 1306.000
823.9250, 1301.000
825.0610, 1375.000
826.1980, 1354.000
827.3340, 1361.000
828.4700, 1358.000
829.6050, 1337.000
830.7410, 1356.000
831.8760, 1342.000
833.0120, 1399.000
834.1470, 1413.000
835.2820, 1366.000
836.4160, 1413.000
837.5510, 1387.000
838.6860, 1396.000
839.8200, 1374.000
840.9540, 1384.000
842.0880, 1421.000
843.2220, 1439.000
844.3550, 1424.000
845.4890, 1467.000
846.6220, 1473.000
847.7550, 1414.000
848.8880, 1464.000
850.0210, 1503.000
851.1540, 1469.000
852.2860, 1486.000
853.4190, 1560.000
854.5510, 1583.000
855.6830, 1597.000
856.8150, 1637.000
857.9460, 1683.000
859.0780, 1652.000
860.2090, 1628.000
861.3410, 1695.000
862.4720, 1656.000
863.6020, 1666.000
864.7330, 1642.000
865.8640, 1637.000
866.9940, 1658.000
868.1240, 1702.000
869.2540, 1638.000
870.3840, 1634.000
871.5140, 1614.000
872.6440, 1660.000
873.7730, 1633.000
874.9020, 1616.000
876.0320, 1654.000
877.1600, 1599.000
878.2890, 1620.000
879.4180, 1667.000
880.5460, 1605.000
881.6750, 1616.000
882.8030, 1655.000
883.9310, 1654.000
885.0590, 1648.000
886.1860, 1687.000
887.3140, 1629.000
888.4410, 1580.000
889.5680, 1625.000
890.6950, 1634.000
891.8220, 1647.000
892.9490, 1662.224
894.0750, 1623.000
895.2020, 1658.000
896.3280, 1636.000
897.4540, 1599.000
898.5800, 1598.000
899.7050, 1628.000
900.8310, 1611.000
901.9560, 1668.000
903.0820, 1613.000
904.2070, 1658.000
905.3320, 1799.000
906.4560, 1713.847
907.5810, 1748.000
908.7050, 1663.000
909.8300, 1701.000
910.9540, 1713.000
912.0780, 1761.000
913.2010, 1777.000
914.3250, 1783.215
915.4480, 1778.000
916.5720, 1769.000
917.6950, 1793.243
918.8180, 1753.000
919.9410, 1803.000
921.0630, 1800.000
922.1860, 1777.000
923.3080, 1795.000
924.4300, 1803.000
925.5520, 1820.000
926.6740, 1838.570
927.7960, 1883.000
928.9170, 1888.000
930.0390, 1907.705
931.1600, 1953.000
932.2810, 1931.000
933.4020, 1986.000
934.5230, 2024.000
935.6430, 2040.000
936.7640, 2061.000
937.8840, 2092.000
939.0040, 2100.000
940.1240, 2152.000
941.2440, 2190.000
942.3630, 2347.000
943.4830, 2478.000
944.6020, 2627.351
945.7210, 2776.174
946.8400, 2984.000
947.9590, 3081.000
949.0770, 3252.000
950.1960, 3420.000
951.3140, 3716.000
952.4320, 4006.000
953.5500, 4573.000
954.6680, 5226.000
955.7860, 6327.000
956.9030, 7970.000
958.0210, 10409.00
959.1380, 14182.00
960.2550, 20130.00
961.3720, 28725.00
962.4890, 39824.00
963.6050, 49627.00
964.7220, 53282.00
965.8380, 48076.00
966.9540, 37717.00
968.0700, 27555.00
969.1860, 19492.00
970.3010, 14224.00
971.4170, 10945.00
972.5320, 8832.000
973.6470, 7098.000
974.7620, 5882.000
975.8770, 4878.000
976.9910, 4183.000
978.1060, 3699.000
979.2200, 3336.000
980.3340, 3039.000
981.4480, 2854.000
982.5620, 2706.000
983.6760, 2624.000
984.7890, 2453.000
985.9030, 2460.000
987.0160, 2418.000
988.1290, 2288.000
989.2420, 2329.000
990.3550, 2352.000
991.4670, 2275.000
992.5800, 2287.000
993.6920, 2273.000
994.8040, 2257.000
995.9160, 2295.000
997.0280, 2240.000
998.1390, 2254.000
999.2510, 2321.000
1000.362, 2376.000
1001.473, 2392.000
1002.584, 2429.000
1003.695, 2491.000
1004.805, 2569.000
1005.916, 2638.000
1007.026, 2758.000
1008.136, 2750.000
1009.246, 2919.000
1010.356, 2906.000
1011.466, 2903.000
1012.576, 2864.000
1013.685, 2783.000
1014.794, 2743.000
1015.903, 2684.000
1017.012, 2645.000
1018.121, 2632.047
1019.229, 2600.644
1020.338, 2624.000
1021.446, 2598.000
1022.554, 2601.000
1023.662, 2656.000
1024.770, 2690.000
1025.878, 2718.000
1026.985, 2797.000
1028.092, 2812.000
1029.200, 2857.000
1030.307, 2875.000
1031.413, 2920.000
1032.520, 2963.000
1033.627, 2989.000
1034.733, 3052.000
1035.839, 3132.000
1036.945, 3201.000
1038.051, 3365.000
1039.157, 3413.000
1040.262, 3626.000
1041.368, 3761.000
1042.473, 3853.000
1043.578, 4047.000
1044.683, 4261.000
1045.788, 4671.000
1046.893, 5223.000
1047.997, 5972.000
1049.101, 7305.000
1050.205, 8708.000
1051.309, 10061.00
1052.413, 10693.00
1053.517, 9975.000
1054.621, 8787.000
1055.724, 7591.000
1056.827, 6518.000
1057.930, 5715.000
1059.033, 5144.000
1060.136, 4589.000
1061.238, 4261.000
1062.341, 4058.000
1063.443, 3942.000
1064.545, 4022.000
1065.647, 3750.833
1066.749, 3828.000
1067.850, 3442.000
1068.952, 3432.000
1070.053, 3442.000
1071.154, 3389.000
1072.255, 3501.000
1073.356, 3616.000
1074.457, 3816.000
1075.557, 4172.000
1076.658, 4605.000
1077.758, 5117.000
1078.858, 5583.000
1079.958, 5858.000
1081.057, 5795.000
1082.157, 5588.000
1083.256, 5232.000
1084.356, 4801.000
1085.455, 4465.000
1086.554, 4134.000
1087.653, 3896.000
1088.751, 3790.000
1089.850, 3558.000
1090.948, 3452.000
1092.046, 3249.000
1093.144, 3246.000
1094.242, 3027.000
1095.340, 3020.000
1096.437, 3039.000
1097.534, 2964.000
1098.632, 2918.000
1099.729, 2890.847
1100.826, 2836.000
1101.922, 2830.000
1103.019, 2790.000
1104.115, 2808.000
1105.212, 2792.000
1106.308, 2762.000
1107.404, 2803.000
1108.499, 2734.000
1109.595, 2755.000
1110.691, 2767.000
1111.786, 2827.000
1112.881, 2800.000
1113.976, 2743.000
1115.071, 2840.000
1116.166, 2870.000
1117.260, 2838.000
1118.355, 2940.000
1119.449, 2924.000
1120.543, 2976.000
1121.637, 2968.000
1122.731, 2939.000
1123.824, 2957.000
1124.918, 2992.000
1126.011, 2961.000
1127.104, 2950.000
1128.197, 2927.000
1129.290, 2975.000
1130.382, 2932.000
1131.475, 3026.000
1132.567, 3008.000
1133.659, 3014.607
1134.751, 3020.000
1135.843, 3023.000
1136.935, 3009.000
1138.027, 3031.000
1139.118, 2973.000
1140.209, 2964.000
1141.300, 3018.000
1142.391, 3016.000
1143.482, 3056.000
1144.573, 3029.000
1145.663, 3129.000
1146.754, 3163.000
1147.844, 3095.000
1148.934, 3123.000
1150.024, 3088.000
1151.113, 3168.000
1152.203, 3140.000
1153.292, 3136.000
1154.381, 3182.000
1155.470, 3156.000
1156.559, 3129.000
1157.648, 3090.000
1158.737, 3126.000
1159.825, 3069.840
1160.913, 3169.000
1162.001, 3045.000
1163.089, 3147.000
1164.177, 3241.000
1165.265, 3125.000
1166.352, 3224.000
1167.440, 3163.000
1168.527, 3073.000
1169.614, 3122.000
1170.701, 3125.000
1171.788, 3071.000
1172.874, 3134.000
1173.961, 3045.000
1175.047, 3152.000
1176.133, 3111.000
1177.219, 3155.000
1178.305, 3131.000
1179.390, 3172.000
1180.476, 3216.000
1181.561, 3135.000
1182.646, 3157.000
1183.731, 3177.000
1184.816, 3168.000
1185.901, 3169.000
1186.985, 3221.000
1188.070, 3182.000
1189.154, 3216.000
1190.238, 3204.000
1191.322, 3199.000
1192.406, 3118.000
1193.489, 3180.000
1194.573, 3167.000
1195.656, 3225.000
1196.739, 3202.000
1197.822, 3199.000
1198.905, 3298.000
1199.988, 3215.000
1201.070, 3273.000
1202.153, 3210.000
1203.235, 3311.000
1204.317, 3272.000
1205.399, 3268.000
1206.481, 3285.000
1207.562, 3271.524
1208.644, 3286.745
1209.725, 3282.000
1210.806, 3331.000
1211.887, 3342.000
1212.968, 3413.000
1214.049, 3415.000
1215.129, 3453.000
1216.209, 3462.000
1217.290, 3473.668
1218.370, 3439.000
1219.450, 3503.000
1220.529, 3556.000
1221.609, 3596.000
1222.688, 3571.000
1223.768, 3554.000
1224.847, 3618.000
1225.926, 3606.000
1227.005, 3616.000
1228.083, 3647.000
1229.162, 3625.000
1230.240, 3673.000
1231.318, 3683.000
1232.396, 3664.000
1233.474, 3695.000
1234.552, 3679.000
1235.629, 3627.000
1236.707, 3674.000
1237.784, 3678.000
1238.861, 3664.000
1239.938, 3704.000
1241.015, 3593.000
1242.092, 3636.000
1243.168, 3690.000
1244.244, 3609.000
1245.321, 3701.000
1246.397, 3658.776
1247.473, 3664.000
1248.548, 3629.000
1249.624, 3626.000
1250.699, 3627.000
1251.775, 3629.829
1252.850, 3647.344
1253.925, 3660.000
1254.999, 3683.000
1256.074, 3696.000
1257.148, 3696.874
1258.223, 3671.000
1259.297, 3588.475
1260.371, 3684.769
1261.445, 3738.621
1262.519, 3752.311
1263.592, 3605.550
1264.666, 3665.978
1265.739, 3643.374
1266.812, 3617.365
1267.885, 3706.955
1268.958, 3583.531
1270.030, 3671.288
1271.103, 3674.745
1272.175, 3729.000
1273.247, 3679.000
1274.319, 3766.000
1275.391, 3651.000
1276.463, 3717.000
1277.535, 3721.000
1278.606, 3752.000
1279.677, 3728.000
1280.748, 3774.000
1281.819, 3771.000
1282.890, 3744.000
1283.961, 3759.000
1285.031, 3817.000
1286.102, 3806.000
1287.172, 3778.000
1288.242, 3888.000
1289.312, 3735.000
1290.381, 3840.000
1291.451, 3807.000
1292.520, 3874.000
1293.590, 3886.000
1294.659, 3870.000
1295.728, 3928.000
1296.797, 3874.000
1297.865, 3897.000
1298.934, 3948.000
1300.002, 3931.000
1301.070, 3912.000
1302.138, 3933.000
1303.206, 3981.000
1304.274, 3969.000
1305.341, 3973.000
1306.409, 4050.000
1307.476, 4174.000
1308.543, 4157.689
1309.610, 4084.000
1310.677, 4207.000
1311.744, 4055.000
1312.810, 4113.000
1313.877, 4103.000
1314.943, 4098.000
1316.009, 4171.000
1317.075, 4199.000
1318.140, 4201.117
1319.206, 4183.166
1320.272, 4208.000
1321.337, 4098.000
1322.402, 4096.000
1323.467, 4082.000
1324.532, 4073.585
1325.596, 4118.129
1326.661, 4101.000
1327.725, 4221.000
1328.790, 4206.000
1329.854, 4258.000
1330.918, 4096.000
1331.981, 4225.000
1333.045, 4181.000
1334.108, 4136.000
1335.172, 4182.000
1336.235, 4254.000
1337.298, 4159.000
1338.361, 4175.000
1339.423, 4274.000
1340.486, 4237.000
1341.548, 4202.000
1342.611, 4241.000
1343.673, 4247.000
1344.735, 4230.000
1345.796, 4203.000
1346.858, 4257.000
1347.919, 4229.000
1348.981, 4201.000
1350.042, 4231.000
1351.103, 4243.000
1352.164, 4216.000
1353.225, 4206.000
1354.285, 4190.000
1355.346, 4224.000
1356.406, 4330.000
1357.466, 4221.000
1358.526, 4312.000
1359.586, 4273.000
1360.645, 4252.000
1361.705, 4260.000
1362.764, 4250.863
1363.823, 4253.198
1364.882, 4272.000
1365.941, 4259.000
1367.000, 4274.000
1368.059, 4269.000
1369.117, 4372.000
1370.175, 4303.000
1371.233, 4372.000
1372.291, 4419.000
1373.349, 4257.000
1374.407, 4313.000
1375.464, 4403.000
1376.522, 4392.000
1377.579, 4387.000
1378.636, 4338.000
1379.693, 4529.000
1380.750, 4455.446
1381.806, 4446.000
1382.863, 4497.000
1383.919, 4429.000
1384.975, 4544.000
1386.031, 4522.000
1387.087, 4550.000
1388.143, 4554.000
1389.199, 4468.000
1390.254, 4512.000
1391.309, 4511.000
1392.364, 4470.000
1393.419, 4583.000
1394.474, 4527.000
1395.529, 4642.000
1396.583, 4565.000
1397.638, 4545.000
1398.692, 4649.000
1399.746, 4594.000
1400.800, 4570.000
1401.853, 4576.000
1402.907, 4609.000
1403.960, 4603.000
1405.014, 4670.000
1406.067, 4656.736
1407.120, 4573.000
1408.173, 4665.000
1409.225, 4611.000
1410.278, 4629.000
1411.330, 4676.000
1412.383, 4606.000
1413.435, 4713.000
1414.487, 4637.000
1415.538, 4724.000
1416.590, 4685.000
1417.641, 4673.000
1418.693, 4708.000
1419.744, 4697.000
1420.795, 4717.000
1421.846, 4763.000
1422.897, 4772.000
1423.947, 4735.000
1424.998, 4701.000
1426.048, 4691.000
1427.098, 4700.000
1428.148, 4694.000
1429.198, 4729.000
1430.247, 4758.000
1431.297, 4763.000
1432.346, 4839.000
1433.396, 4709.000
1434.445, 4812.000
1435.494, 4742.000
1436.542, 4832.000
1437.591, 4796.000
1438.639, 4800.000
1439.688, 4748.000
1440.736, 4743.000
1441.784, 4763.000
1442.832, 4760.948
1443.880, 4791.002
1444.927, 4794.000
1445.975, 4820.000
1447.022, 4808.000
1448.069, 4831.741
1449.116, 4701.603
1450.163, 4810.464
1451.209, 4876.094
1452.256, 4900.793
1453.302, 4764.252
1454.348, 4834.124
1455.394, 4820.186
1456.440, 4802.063
1457.486, 4898.763
1458.532, 4781.670
1459.577, 4874.977
1460.623, 4883.210
1461.668, 4929.245
1462.713, 4890.958
1463.758, 4877.700
1464.802, 4947.236
1465.847, 4969.723
1466.891, 4918.715
1467.936, 4962.546
1468.980, 4834.769
1470.024, 4856.126
1471.067, 4925.000
1472.111, 4883.000
1473.155, 4989.000
1474.198, 4943.000
1475.241, 4946.000
1476.284, 5017.000
1477.327, 5048.000
1478.370, 5044.000
1479.413, 4974.000
1480.455, 4963.000
1481.497, 5038.000
1482.540, 4977.000
1483.582, 5060.000
1484.624, 4961.000
1485.665, 4986.000
1486.707, 5090.000
1487.748, 5074.000
1488.790, 5140.000
1489.831, 5111.000
1490.872, 5097.000
1491.912, 5093.000
1492.953, 5089.000
1493.994, 5006.000
1495.034, 5082.917
1496.074, 5125.000
1497.114, 5182.000
1498.154, 5114.000
1499.194, 5117.000
1500.234, 5123.000
1501.273, 5149.000
1502.313, 5148.000
1503.352, 5133.000
1504.391, 5225.000
1505.430, 5298.000
1506.468, 5253.000
1507.507, 5309.000
1508.545, 5337.000
1509.584, 5250.000
1510.622, 5293.000
1511.660, 5223.000
1512.698, 5308.000
1513.735, 5283.000
1514.773, 5289.000
1515.810, 5299.000
1516.848, 5237.000
1517.885, 5284.911
1518.922, 5273.000
1519.958, 5344.000
1520.995, 5351.000
1522.032, 5388.000
1523.068, 5421.240
1524.104, 5453.000
1525.140, 5486.000
1526.176, 5426.000
1527.212, 5477.000
1528.248, 5423.000
1529.283, 5493.000
1530.318, 5441.000
1531.353, 5503.000
1532.389, 5466.000
1533.423, 5457.000
1534.458, 5468.000
1535.493, 5519.000
1536.527, 5528.000
1537.561, 5509.000
1538.596, 5614.000
1539.630, 5476.000
1540.663, 5599.000
1541.697, 5547.000
1542.731, 5563.000
1543.764, 5553.000
1544.797, 5554.042
1545.830, 5551.000
1546.863, 5566.000
1547.896, 5584.623
1548.929, 5643.000
1549.961, 5656.000
1550.994, 5727.000
1552.026, 5727.383
1553.058, 5737.791
1554.090, 5719.000
1555.121, 5737.000
1556.153, 5694.000
1557.185, 5706.000
1558.216, 5714.000
1559.247, 5825.000
1560.278, 5775.000
1561.309, 5726.000
1562.340, 5844.000
1563.370, 5801.000
1564.401, 5751.000
1565.431, 5735.000
1566.461, 5722.250
1567.491, 5843.000
1568.521, 5760.000
1569.551, 5807.000
1570.580, 5901.000
1571.610, 5862.000
1572.639, 5838.000
1573.668, 5802.000
1574.697, 5932.000
1575.726, 5813.000
1576.754, 5790.000
1577.783, 5845.000
##END=



