##NAMES=Fluorapatite
##RRUFFID=R060333
##IDEAL CHEMISTRY=Ca_5_(PO_4_)_3_F
##LOCALITY=Lovozero Massif, Kola Peninsula, U.S.S.R.
##OWNER=RRUFF
##SOURCE=Michael Scott
##DESCRIPTION=Colorless fragment associated with red villiaumite
##STATUS=The identification of this mineral has been confirmed by X-ray diffraction and chemical analysis
##URL=rruff.info/R060333
##MEASURED CHEMISTRY=(Ca_4.29_Sr_0.47_Na_0.12_Ce_0.07_La_0.06_)_Σ=5_((P_0.99_Si_0.01_)_Σ=1_O_4_)_3_F_1.00_
##PIN_ID=L00852
##ORIENTATION=Laser parallel to c* (0 0 1). Fiducial mark perpendicular to laser is parallel to -a [-1 0 0]
164.2210, 5067.000
165.4520, 4927.000
166.6830, 5038.000
167.9140, 4965.000
169.1450, 5062.000
170.3760, 5059.000
171.6060, 4953.000
172.8360, 4931.000
174.0660, 5012.000
175.2960, 4961.000
176.5260, 5060.000
177.7550, 5028.000
178.9840, 5070.000
180.2130, 5046.000
181.4420, 5035.000
182.6710, 5080.000
183.9000, 5120.000
185.1280, 5086.000
186.3560, 5067.000
187.5840, 5141.000
188.8120, 5163.000
190.0400, 5110.000
191.2670, 5164.000
192.4950, 5263.000
193.7220, 5219.000
194.9490, 5216.000
196.1750, 5197.000
197.4020, 5233.000
198.6280, 5353.000
199.8540, 5335.000
201.0800, 5399.000
202.3060, 5337.000
203.5320, 5365.000
204.7570, 5382.000
205.9830, 5541.000
207.2080, 5482.000
208.4330, 5524.000
209.6570, 5646.000
210.8820, 5481.000
212.1060, 5536.000
213.3310, 5526.000
214.5550, 5641.000
215.7780, 5578.000
217.0020, 5631.000
218.2260, 5621.000
219.4490, 5694.000
220.6720, 5671.000
221.8950, 5783.000
223.1180, 5734.000
224.3400, 5763.000
225.5630, 5777.000
226.7850, 5880.000
228.0070, 5881.000
229.2290, 5911.000
230.4500, 5919.000
231.6720, 5973.000
232.8930, 5908.000
234.1140, 6000.000
235.3350, 5989.000
236.5560, 6137.000
237.7770, 6095.000
238.9970, 6109.000
240.2170, 6185.000
241.4370, 6111.000
242.6570, 6147.000
243.8770, 6090.000
245.0960, 6128.000
246.3160, 6245.000
247.5350, 6208.000
248.7540, 6220.000
249.9730, 6223.000
251.1910, 6358.000
252.4100, 6417.000
253.6280, 6513.000
254.8460, 6497.000
256.0640, 6678.000
257.2810, 6632.000
258.4990, 6631.000
259.7160, 6754.000
260.9330, 6604.000
262.1500, 6734.000
263.3670, 6692.000
264.5840, 6777.000
265.8000, 6664.000
267.0170, 6688.000
268.2330, 6537.000
269.4490, 6656.000
270.6640, 6620.000
271.8800, 6675.000
273.0950, 6652.000
274.3100, 6579.000
275.5260, 6592.000
276.7400, 6613.000
277.9550, 6599.000
279.1690, 6608.000
280.3840, 6715.000
281.5980, 6659.000
282.8120, 6692.000
284.0260, 6675.000
285.2390, 6657.000
286.4530, 6689.000
287.6660, 6691.000
288.8790, 6711.000
290.0920, 6726.000
291.3040, 6791.000
292.5170, 6834.000
293.7290, 6883.000
294.9410, 6931.919
296.1530, 6941.353
297.3650, 7004.000
298.5770, 6959.000
299.7880, 6951.000
301.0000, 6969.000
302.2110, 6989.131
303.4220, 7044.000
304.6320, 7071.000
305.8430, 7096.000
307.0530, 7115.000
308.2630, 7141.000
309.4730, 7138.000
310.6830, 7201.000
311.8930, 7267.000
313.1030, 7176.000
314.3120, 7152.000
315.5210, 7109.000
316.7300, 7206.000
317.9390, 7154.000
319.1470, 7266.000
320.3560, 7221.000
321.5640, 7310.000
322.7720, 7228.000
323.9800, 7239.000
325.1880, 7267.000
326.3950, 7224.000
327.6030, 7328.000
328.8100, 7331.000
330.0170, 7169.000
331.2240, 7361.000
332.4300, 7301.000
333.6370, 7348.000
334.8430, 7391.000
336.0490, 7461.000
337.2550, 7460.000
338.4610, 7340.000
339.6660, 7439.000
340.8720, 7447.000
342.0770, 7494.000
343.2820, 7525.000
344.4870, 7561.000
345.6920, 7566.000
346.8960, 7601.000
348.1010, 7609.969
349.3050, 7591.000
350.5090, 7622.000
351.7130, 7657.000
352.9160, 7647.000
354.1200, 7743.000
355.3230, 7729.000
356.5260, 7757.000
357.7290, 7649.000
358.9320, 7745.000
360.1350, 7846.000
361.3370, 7767.000
362.5390, 7863.000
363.7410, 7893.000
364.9430, 7946.000
366.1450, 7958.000
367.3470, 8009.000
368.5480, 7999.000
369.7490, 8046.000
370.9500, 8044.327
372.1510, 8074.000
373.3520, 8072.000
374.5520, 8102.000
375.7530, 8177.000
376.9530, 8154.000
378.1530, 8288.000
379.3520, 8155.000
380.5520, 8241.000
381.7510, 8196.000
382.9510, 8291.000
384.1500, 8264.000
385.3490, 8319.000
386.5480, 8206.000
387.7460, 8223.000
388.9440, 8342.000
390.1430, 8249.000
391.3410, 8379.000
392.5390, 8437.000
393.7360, 8360.000
394.9340, 8487.000
396.1310, 8411.000
397.3280, 8404.000
398.5250, 8485.000
399.7220, 8524.000
400.9190, 8615.000
402.1150, 8615.000
403.3120, 8610.000
404.5080, 8682.000
405.7040, 8653.000
406.8990, 8722.000
408.0950, 8681.000
409.2900, 8836.000
410.4860, 8878.000
411.6810, 8830.000
412.8760, 8888.000
414.0700, 8827.000
415.2650, 8973.000
416.4590, 8945.000
417.6540, 9066.000
418.8480, 8946.000
420.0420, 9120.000
421.2350, 9199.000
422.4290, 9103.000
423.6220, 9089.000
424.8150, 9347.000
426.0080, 9408.000
427.2010, 9367.000
428.3940, 9482.000
429.5860, 9533.000
430.7790, 9678.000
431.9710, 9685.000
433.1630, 9816.000
434.3540, 9900.000
435.5460, 9846.000
436.7370, 10032.00
437.9290, 10274.00
439.1200, 10307.00
440.3110, 10446.00
441.5010, 10653.00
442.6920, 10709.00
443.8820, 10901.00
445.0730, 10881.00
446.2630, 10948.00
447.4530, 10936.00
448.6420, 10894.00
449.8320, 10943.00
451.0210, 10887.00
452.2100, 10803.00
453.3990, 10786.00
454.5880, 10561.00
455.7770, 10524.00
456.9660, 10362.00
458.1540, 10429.00
459.3420, 10344.00
460.5300, 10409.00
461.7180, 10350.00
462.9050, 10347.00
464.0930, 10302.00
465.2800, 10361.00
466.4670, 10208.00
467.6540, 10281.00
468.8410, 10218.00
470.0280, 10276.00
471.2140, 10315.00
472.4000, 10253.00
473.5870, 10387.00
474.7720, 10330.00
475.9580, 10211.00
477.1440, 10292.00
478.3290, 10318.00
479.5140, 10294.00
480.6990, 10388.00
481.8840, 10295.00
483.0690, 10363.00
484.2540, 10504.00
485.4380, 10431.00
486.6220, 10490.00
487.8060, 10500.00
488.9900, 10588.00
490.1740, 10686.00
491.3570, 10526.00
492.5410, 10579.00
493.7240, 10581.00
494.9070, 10724.00
496.0900, 10727.00
497.2720, 10692.00
498.4550, 10756.00
499.6370, 10818.00
500.8190, 10796.00
502.0010, 10772.00
503.1830, 10790.00
504.3650, 10899.00
505.5460, 10755.00
506.7280, 11029.00
507.9090, 11011.00
509.0900, 11045.00
510.2710, 10946.00
511.4510, 11118.00
512.6320, 11086.00
513.8120, 11112.00
514.9920, 11161.00
516.1720, 11169.00
517.3520, 11130.00
518.5310, 11070.00
519.7110, 11227.00
520.8900, 11409.00
522.0690, 11263.00
523.2480, 11338.00
524.4270, 11403.00
525.6050, 11428.00
526.7840, 11487.00
527.9620, 11427.00
529.1400, 11604.00
530.3180, 11421.00
531.4960, 11597.00
532.6730, 11490.00
533.8510, 11621.00
535.0280, 11656.00
536.2050, 11565.00
537.3820, 11701.00
538.5590, 11720.00
539.7350, 11805.00
540.9120, 11884.00
542.0880, 11898.63
543.2640, 12022.00
544.4400, 11936.00
545.6150, 11995.00
546.7910, 11987.25
547.9660, 12295.00
549.1410, 12083.00
550.3170, 12130.00
551.4910, 12261.00
552.6660, 12126.00
553.8410, 12220.00
555.0150, 12267.00
556.1890, 12339.00
557.3630, 12275.00
558.5370, 12318.00
559.7110, 12427.00
560.8840, 12615.00
562.0570, 12520.00
563.2310, 12584.00
564.4040, 12714.00
565.5760, 12543.00
566.7490, 12885.00
567.9220, 12841.00
569.0940, 13030.00
570.2660, 13089.00
571.4380, 13296.00
572.6100, 13588.00
573.7820, 13741.00
574.9530, 13974.00
576.1240, 14114.90
577.2960, 14284.00
578.4670, 14325.00
579.6370, 14348.00
580.8080, 14369.32
581.9790, 14267.45
583.1490, 14240.00
584.3190, 14040.00
585.4890, 13969.00
586.6590, 13905.00
587.8280, 13821.00
588.9980, 13774.00
590.1670, 13635.00
591.3360, 13831.00
592.5050, 13900.00
593.6740, 13986.00
594.8430, 13881.00
596.0110, 13973.00
597.1790, 14027.00
598.3480, 14237.00
599.5160, 14213.00
600.6830, 14357.00
601.8510, 14558.00
603.0180, 14759.00
604.1860, 14856.00
605.3530, 15044.00
606.5200, 15174.00
607.6870, 15101.00
608.8530, 15036.00
610.0200, 14782.00
611.1860, 14643.00
612.3520, 14607.00
613.5180, 14523.00
614.6840, 14622.00
615.8500, 14447.00
617.0150, 14496.00
618.1800, 14548.00
619.3450, 14376.00
620.5100, 14391.00
621.6750, 14366.00
622.8400, 14287.00
624.0040, 14288.94
625.1690, 14268.00
626.3330, 14270.00
627.4970, 14269.00
628.6610, 14341.00
629.8240, 14344.00
630.9880, 14446.00
632.1510, 14507.00
633.3140, 14649.00
634.4770, 14627.00
635.6400, 14689.00
636.8020, 14824.00
637.9650, 14642.00
639.1270, 14673.00
640.2890, 14762.00
641.4510, 14937.00
642.6130, 14996.00
643.7750, 14878.00
644.9360, 15160.00
646.0980, 15094.00
647.2590, 15084.00
648.4200, 15204.00
649.5810, 15209.00
650.7410, 15392.00
651.9020, 15430.31
653.0620, 15549.00
654.2220, 15537.00
655.3820, 15504.00
656.5420, 15477.00
657.7020, 15644.00
658.8610, 15637.00
660.0200, 15794.00
661.1800, 15896.00
662.3390, 15921.00
663.4970, 15710.00
664.6560, 16033.00
665.8150, 15991.00
666.9730, 15767.00
668.1310, 15959.00
669.2890, 15745.00
670.4470, 15965.00
671.6050, 15810.00
672.7620, 15858.00
673.9200, 16031.00
675.0770, 15934.00
676.2340, 16253.00
677.3910, 16089.00
678.5470, 16168.00
679.7040, 16117.00
680.8600, 16095.00
682.0160, 16165.00
683.1720, 15998.00
684.3280, 16227.00
685.4840, 16081.00
686.6390, 16268.00
687.7950, 16271.00
688.9500, 16336.00
690.1050, 16479.00
691.2600, 16314.00
692.4150, 16501.00
693.5690, 16427.00
694.7240, 16507.00
695.8780, 16632.00
697.0320, 16626.00
698.1860, 16695.00
699.3400, 16715.00
700.4930, 16646.00
701.6470, 16734.00
702.8000, 16680.00
703.9530, 16838.00
705.1060, 16784.00
706.2590, 16983.00
707.4110, 17059.00
708.5640, 16978.00
709.7160, 17030.00
710.8680, 17117.00
712.0200, 17229.00
713.1720, 17209.00
714.3230, 17310.00
715.4750, 17379.00
716.6260, 17407.00
717.7770, 17406.00
718.9280, 17444.00
720.0790, 17626.00
721.2300, 17531.00
722.3800, 17455.00
723.5300, 17694.00
724.6810, 17661.00
725.8300, 17665.00
726.9800, 17664.00
728.1300, 17643.00
729.2790, 17638.00
730.4290, 17667.20
731.5780, 17757.51
732.7270, 17750.00
733.8760, 17955.00
735.0240, 18039.00
736.1730, 18042.00
737.3210, 18088.00
738.4700, 18136.00
739.6180, 18161.00
740.7650, 18138.00
741.9130, 18230.00
743.0610, 18223.12
744.2080, 18511.00
745.3550, 18302.00
746.5020, 18474.00
747.6490, 18602.00
748.7960, 18503.00
749.9430, 18796.00
751.0890, 18657.00
752.2350, 18738.00
753.3810, 18635.00
754.5270, 18587.00
755.6730, 18770.00
756.8190, 18835.00
757.9640, 18911.00
759.1090, 19084.00
760.2540, 18937.00
761.3990, 19008.00
762.5440, 18945.00
763.6890, 19134.00
764.8330, 18993.00
765.9780, 19227.00
767.1220, 19126.00
768.2660, 19270.00
769.4100, 19330.00
770.5530, 19440.00
771.6970, 19409.00
772.8400, 19523.00
773.9830, 19420.00
775.1260, 19744.00
776.2690, 19603.00
777.4120, 19728.00
778.5540, 19866.00
779.6970, 19652.00
780.8390, 19663.00
781.9810, 19783.00
783.1230, 19893.00
784.2650, 19934.79
785.4060, 19968.00
786.5480, 20108.00
787.6890, 20052.00
788.8300, 20223.00
789.9710, 19997.00
791.1120, 20127.00
792.2520, 20329.00
793.3930, 20145.00
794.5330, 20289.00
795.6730, 20505.00
796.8130, 20337.00
797.9530, 20428.00
799.0930, 20587.00
800.2320, 20540.00
801.3710, 20542.00
802.5110, 20787.00
803.6500, 20769.00
804.7880, 20894.00
805.9270, 20986.29
807.0660, 20967.22
808.2040, 21126.00
809.3420, 20963.00
810.4800, 21006.00
811.6180, 21006.00
812.7560, 21047.00
813.8930, 21050.00
815.0310, 21208.00
816.1680, 21303.00
817.3050, 21385.00
818.4420, 21471.00
819.5790, 21453.00
820.7150, 21240.00
821.8520, 21633.00
822.9880, 21303.00
824.1240, 21682.00
825.2600, 21569.00
826.3960, 21705.00
827.5320, 21632.00
828.6670, 21779.00
829.8020, 21781.00
830.9380, 21900.00
832.0730, 21909.00
833.2080, 22148.00
834.3420, 22250.00
835.4770, 22145.00
836.6110, 22127.00
837.7450, 22356.00
838.8790, 22478.00
840.0130, 22440.00
841.1470, 22439.00
842.2810, 22517.00
843.4140, 22539.55
844.5470, 22547.00
845.6800, 22652.00
846.8130, 22724.00
847.9460, 22734.00
849.0790, 22751.00
850.2110, 22788.37
851.3440, 22896.00
852.4760, 22841.00
853.6080, 22841.00
854.7400, 22880.62
855.8710, 23088.00
857.0030, 23037.00
858.1340, 23168.00
859.2650, 23224.00
860.3960, 23223.00
861.5270, 23397.00
862.6580, 23436.00
863.7890, 23468.00
864.9190, 23697.00
866.0490, 23607.00
867.1790, 23527.00
868.3090, 23645.00
869.4390, 23661.00
870.5690, 23743.18
871.6980, 23843.00
872.8270, 23936.00
873.9570, 23939.00
875.0860, 23986.00
876.2140, 24063.00
877.3430, 24034.00
878.4720, 24083.75
879.6000, 24007.00
880.7280, 24206.00
881.8560, 24262.00
882.9840, 24515.00
884.1120, 24501.00
885.2390, 24398.00
886.3670, 24508.00
887.4940, 24318.00
888.6210, 24454.00
889.7480, 24759.00
890.8750, 24770.00
892.0020, 24782.00
893.1280, 24896.54
894.2540, 24768.00
895.3810, 24914.00
896.5070, 24890.00
897.6320, 24803.00
898.7580, 24849.00
899.8840, 25012.00
901.0090, 24964.00
902.1340, 25177.00
903.2590, 25038.00
904.3840, 25245.00
905.5090, 25451.00
906.6340, 25148.00
907.7580, 25233.00
908.8820, 25456.00
910.0060, 25445.00
911.1300, 25552.00
912.2540, 25437.00
913.3780, 25673.00
914.5010, 25487.00
915.6250, 25731.00
916.7480, 25710.00
917.8710, 26026.00
918.9940, 26181.00
920.1160, 26101.00
921.2390, 26076.00
922.3610, 26146.00
923.4840, 26263.00
924.6060, 26242.00
925.7280, 26167.00
926.8490, 26308.00
927.9710, 26345.00
929.0930, 26395.00
930.2140, 26623.00
931.3350, 26524.00
932.4560, 26682.00
933.5770, 26768.00
934.6980, 26821.00
935.8180, 26967.00
936.9380, 27148.00
938.0590, 27181.00
939.1790, 27385.00
940.2990, 27407.00
941.4180, 27433.00
942.5380, 27873.00
943.6570, 28292.00
944.7770, 28269.00
945.8960, 28547.00
947.0150, 28918.00
948.1340, 29452.00
949.2520, 29795.00
950.3710, 30943.00
951.4890, 31976.00
952.6070, 33586.00
953.7260, 35492.00
954.8430, 37883.00
955.9610, 40698.00
957.0790, 43728.00
958.1960, 47099.00
959.3130, 50180.00
960.4310, 52920.00
961.5480, 54696.00
962.6640, 54921.00
963.7810, 53776.00
964.8970, 51234.00
966.0140, 47871.00
967.1300, 44231.00
968.2460, 41318.00
969.3620, 38445.00
970.4780, 36140.00
971.5930, 34574.00
972.7090, 33324.00
973.8240, 31814.00
974.9390, 31215.00
976.0540, 30680.00
977.1690, 30195.00
978.2830, 29943.00
979.3980, 29536.00
980.5120, 29228.00
981.6260, 29515.00
982.7400, 29536.00
983.8540, 29252.00
984.9680, 29504.00
986.0820, 29196.00
987.1950, 29194.00
988.3080, 29209.00
989.4210, 29568.00
990.5340, 29491.00
991.6470, 29564.00
992.7600, 29543.00
993.8720, 29620.00
994.9850, 29783.00
996.0970, 29863.00
997.2090, 29829.00
998.3210, 29830.00
999.4320, 29973.00
1000.544, 30091.00
1001.655, 29910.00
1002.767, 29992.00
1003.878, 30184.00
1004.989, 30199.00
1006.100, 30320.00
1007.210, 30460.00
1008.321, 30499.66
1009.431, 30452.00
1010.541, 30670.00
1011.651, 30497.00
1012.761, 30619.00
1013.871, 30774.00
1014.980, 30836.00
1016.090, 30912.00
1017.199, 31115.00
1018.308, 31002.00
1019.417, 30885.00
1020.526, 30999.00
1021.635, 31468.00
1022.743, 31482.00
1023.852, 31629.00
1024.960, 31394.00
1026.068, 31837.00
1027.176, 31747.00
1028.283, 31950.00
1029.391, 32289.00
1030.498, 32324.00
1031.606, 32308.00
1032.713, 32498.00
1033.820, 32621.00
1034.927, 32498.00
1036.033, 32255.00
1037.140, 32330.00
1038.246, 32337.00
1039.353, 32222.00
1040.459, 32370.00
1041.564, 32286.00
1042.670, 32706.00
1043.776, 32540.00
1044.881, 32870.00
1045.987, 32663.00
1047.092, 32519.00
1048.197, 32876.00
1049.302, 32933.00
1050.406, 33009.00
1051.511, 33070.00
1052.615, 33258.00
1053.720, 33415.00
1054.824, 33303.00
1055.928, 33466.00
1057.031, 33360.00
1058.135, 33604.00
1059.238, 33501.00
1060.342, 33553.00
1061.445, 33562.00
1062.548, 33730.00
1063.651, 33711.00
1064.754, 33630.00
1065.856, 33596.00
1066.959, 33838.00
1068.061, 33789.00
1069.163, 33874.00
1070.265, 33718.00
1071.367, 33869.00
1072.469, 34129.00
1073.570, 34040.00
1074.671, 34176.00
1075.773, 34151.00
1076.874, 34179.98
1077.975, 34423.00
1079.075, 34252.00
1080.176, 34425.00
1081.276, 34495.00
1082.377, 34623.00
1083.477, 34436.00
1084.577, 34587.00
1085.677, 34532.00
1086.777, 34607.00
1087.876, 34399.00
1088.975, 34464.00
1090.075, 34456.00
1091.174, 34548.00
1092.273, 34671.00
1093.372, 34845.00
1094.470, 34877.00
1095.569, 34753.00
1096.667, 35012.00
1097.765, 35049.00
1098.863, 35263.00
1099.961, 34997.00
1101.059, 35070.00
1102.157, 35168.00
1103.254, 35029.00
1104.351, 35250.00
1105.449, 35207.00
1106.546, 35723.00
1107.642, 35773.00
1108.739, 35654.00
1109.836, 35742.00
1110.932, 35637.00
1112.028, 35802.00
1113.124, 35944.00
1114.220, 35960.00
1115.316, 35975.00
1116.412, 35901.00
1117.507, 36157.00
1118.603, 36195.00
1119.698, 35912.00
1120.793, 36413.00
1121.888, 36249.00
1122.983, 36359.00
1124.077, 36316.00
1125.172, 36314.00
1126.266, 36510.00
1127.360, 36640.00
1128.454, 36593.00
1129.548, 36875.00
1130.642, 36717.00
1131.735, 36748.00
1132.829, 36859.00
1133.922, 36958.00
1135.015, 36988.00
1136.108, 37108.00
1137.201, 37061.00
1138.294, 37010.00
1139.386, 37352.00
1140.478, 37313.00
1141.571, 37430.00
1142.663, 37146.00
1143.755, 37653.00
1144.846, 37446.00
1145.938, 37501.00
1147.030, 37746.00
1148.121, 37718.00
1149.212, 37589.00
1150.303, 37787.00
1151.394, 37807.00
1152.485, 37910.00
1153.575, 38010.00
1154.666, 37996.00
1155.756, 37974.00
1156.846, 38104.00
1157.936, 38271.00
1159.026, 38162.00
1160.116, 38212.00
1161.205, 38465.00
1162.295, 38536.00
1163.384, 38526.00
1164.473, 38677.00
1165.562, 38682.00
1166.651, 38727.00
1167.739, 38730.00
1168.828, 38753.00
1169.916, 39093.00
1171.005, 38926.00
1172.093, 39134.00
1173.181, 39247.00
1174.268, 39046.00
1175.356, 39197.00
1176.443, 39061.00
1177.531, 39391.00
1178.618, 39134.00
1179.705, 39617.00
1180.792, 39334.00
1181.879, 39394.00
1182.965, 39628.00
1184.052, 39718.00
1185.138, 39689.00
1186.224, 39899.00
1187.310, 39768.00
1188.396, 40073.00
1189.482, 40004.00
1190.567, 39824.00
1191.653, 40199.00
1192.738, 40240.00
1193.823, 40313.00
1194.908, 40419.00
1195.993, 40364.00
1197.077, 40359.00
1198.162, 40550.00
1199.246, 40480.00
1200.331, 40557.00
1201.415, 40571.00
1202.499, 40443.00
1203.582, 40502.00
1204.666, 40430.00
1205.750, 40505.60
1206.833, 40773.00
1207.916, 40681.00
1208.999, 41020.00
1210.082, 41112.00
1211.165, 41110.00
1212.248, 41135.00
1213.330, 41254.00
1214.412, 41179.00
1215.495, 41259.00
1216.577, 41328.00
1217.658, 41366.78
1218.740, 41469.46
1219.822, 41538.00
1220.903, 41612.00
1221.985, 41716.00
1223.066, 41699.00
1224.147, 41741.00
1225.228, 41925.00
1226.308, 41904.00
1227.389, 42276.00
1228.469, 41974.00
1229.550, 41951.00
1230.630, 42247.00
1231.710, 42077.00
1232.790, 42204.00
1233.869, 42281.00
1234.949, 42538.00
1236.028, 42385.00
1237.108, 42295.00
1238.187, 42210.00
1239.266, 42580.00
1240.344, 42367.00
1241.423, 42963.00
1242.502, 42622.00
1243.580, 42802.00
1244.658, 42585.00
1245.736, 42586.00
1246.814, 42593.00
1247.892, 42599.00
1248.970, 42651.96
1250.047, 42949.00
1251.125, 42791.00
1252.202, 43130.00
1253.279, 43262.00
1254.356, 43344.00
1255.433, 43210.00
1256.509, 43416.00
1257.586, 43445.00
1258.662, 43678.00
1259.738, 43645.00
1260.814, 43571.00
1261.890, 43824.00
1262.966, 43723.00
1264.042, 43974.00
1265.117, 44148.00
1266.193, 43826.00
1267.268, 44365.00
1268.343, 43919.00
1269.418, 44166.00
1270.492, 44156.00
1271.567, 44137.00
1272.642, 44179.00
1273.716, 44285.00
1274.790, 44388.00
1275.864, 44384.00
1276.938, 44445.00
1278.012, 44815.00
1279.085, 44694.00
1280.159, 44441.00
1281.232, 44775.00
1282.305, 44491.00
1283.378, 44553.00
1284.451, 44576.00
1285.524, 44341.00
1286.597, 44435.00
1287.669, 44556.00
1288.741, 44350.00
1289.813, 44450.00
1290.885, 44757.00
1291.957, 44951.00
1293.029, 45000.00
1294.101, 45191.00
1295.172, 45441.00
1296.243, 45365.00
1297.315, 45241.00
1298.386, 45649.00
1299.456, 45635.00
1300.527, 45484.00
1301.598, 45630.00
1302.668, 45695.00
1303.738, 45930.00
1304.809, 45870.00
1305.879, 45865.00
1306.948, 46226.00
1308.018, 46413.00
1309.088, 46470.00
1310.157, 46727.00
1311.226, 46736.37
1312.296, 46749.00
1313.365, 46717.00
1314.433, 46798.00
1315.502, 46605.00
1316.571, 46648.00
1317.639, 46658.00
1318.707, 46912.00
1319.776, 47356.00
1320.844, 47158.00
1321.911, 47270.00
1322.979, 47284.00
1324.047, 47151.76
1325.114, 47439.00
1326.181, 47148.00
1327.249, 47200.00
1328.316, 47614.00
1329.382, 47350.00
1330.449, 47750.00
1331.516, 47526.00
1332.582, 47820.00
1333.648, 47755.00
1334.715, 47975.00
1335.781, 47873.00
1336.846, 48054.00
1337.912, 48112.00
1338.978, 47958.00
1340.043, 48194.00
1341.108, 48054.00
1342.174, 48274.00
1343.239, 48109.00
1344.303, 48228.00
1345.368, 48371.00
1346.433, 48671.00
1347.497, 48535.00
1348.561, 48462.00
1349.626, 48584.00
1350.690, 48607.00
1351.753, 48842.00
1352.817, 48949.00
1353.881, 48957.15
1354.944, 49093.00
1356.007, 48993.00
1357.071, 48796.00
1358.134, 48862.00
1359.196, 48811.00
1360.259, 49099.00
1361.322, 49247.00
1362.384, 49501.00
1363.447, 49533.49
1364.509, 49278.00
1365.571, 49494.00
1366.633, 49422.00
1367.694, 49266.00
1368.756, 49628.00
1369.817, 49587.00
1370.879, 49869.00
1371.940, 49573.00
1373.001, 49717.00
1374.062, 49843.00
1375.122, 49772.00
1376.183, 50122.00
1377.244, 49983.00
1378.304, 50135.00
1379.364, 50114.00
1380.424, 50230.00
1381.484, 50265.00
1382.544, 50520.00
1383.603, 50523.00
1384.663, 50329.00
1385.722, 50201.00
1386.781, 50479.00
1387.840, 50667.00
1388.899, 50561.00
1389.958, 50580.00
1391.017, 50532.00
1392.075, 50750.00
1393.134, 50923.00
1394.192, 50817.00
1395.250, 50843.00
1396.308, 50852.00
1397.365, 50701.00
1398.423, 51133.00
1399.481, 51125.00
1400.538, 50956.00
1401.595, 51346.00
1402.652, 51407.00
1403.709, 51754.00
1404.766, 51595.00
1405.823, 51770.00
1406.879, 51476.00
1407.936, 51807.00
1408.992, 51822.00
1410.048, 51498.00
1411.104, 51472.00
1412.160, 51839.00
1413.215, 51618.00
1414.271, 51895.00
1415.326, 52078.00
1416.382, 52004.00
1417.437, 52223.00
1418.492, 51985.00
1419.546, 52477.00
1420.601, 52160.00
1421.656, 52307.00
1422.710, 52140.00
1423.764, 52436.00
1424.819, 52660.00
1425.873, 52697.00
1426.926, 52559.00
1427.980, 52681.00
1429.034, 52559.00
1430.087, 52714.00
1431.140, 52870.00
1432.194, 52921.00
1433.247, 52979.00
1434.299, 53043.00
1435.352, 53274.00
1436.405, 53233.00
1437.457, 53339.02
1438.510, 53062.00
1439.562, 53383.00
1440.614, 53269.00
1441.666, 53178.00
1442.717, 53472.00
1443.769, 53234.00
1444.821, 53524.00
1445.872, 53923.00
1446.923, 53800.00
1447.974, 53553.00
1449.025, 53771.00
1450.076, 54245.00
1451.127, 53864.00
1452.177, 53894.00
1453.227, 53739.00
1454.278, 54350.00
1455.328, 53946.00
1456.378, 54195.00
1457.428, 54336.00
1458.477, 54306.00
1459.527, 54413.00
1460.576, 54324.00
1461.625, 54689.00
1462.675, 54340.00
1463.724, 54542.00
1464.772, 54737.00
1465.821, 54548.00
1466.870, 54747.00
1467.918, 54535.00
1468.966, 55148.00
1470.015, 54903.00
1471.063, 54567.00
1472.110, 54948.00
1473.158, 54834.00
1474.206, 55146.00
1475.253, 55176.00
1476.301, 54797.00
1477.348, 55333.00
1478.395, 55074.00
1479.442, 55406.00
1480.488, 55795.00
1481.535, 55300.00
1482.582, 55462.00
1483.628, 55413.00
1484.674, 55558.00
1485.720, 55836.00
1486.766, 55539.00
1487.812, 55796.00
1488.858, 55571.00
1489.903, 55791.00
1490.949, 55586.00
1491.994, 56146.00
1493.039, 56106.00
1494.084, 56012.00
1495.129, 55955.00
1496.173, 56035.00
1497.218, 56313.00
1498.262, 55957.00
1499.307, 56341.00
1500.351, 56044.00
1501.395, 56244.00
1502.439, 56426.00
1503.483, 56461.00
1504.526, 56346.00
1505.570, 56493.00
1506.613, 56744.00
1507.656, 56554.00
1508.699, 56709.00
1509.742, 56951.00
1510.785, 56686.00
1511.827, 56626.00
1512.870, 56976.00
1513.912, 56804.00
1514.955, 57078.00
1515.997, 56921.00
1517.039, 57178.00
1518.080, 57241.00
1519.122, 57408.00
1520.164, 57155.00
1521.205, 57670.00
1522.246, 57742.00
1523.288, 57433.00
1524.329, 57546.00
1525.369, 57518.00
1526.410, 57619.00
1527.451, 57734.00
1528.491, 57940.00
1529.531, 57853.39
1530.572, 57900.00
1531.612, 57817.00
1532.652, 57722.00
1533.691, 57940.00
1534.731, 57940.00
1535.770, 58178.00
1536.810, 58085.00
1537.849, 58051.00
1538.888, 58243.00
1539.927, 58437.00
1540.966, 58216.00
1542.005, 58478.00
1543.043, 58129.00
1544.082, 58370.00
1545.120, 58351.00
1546.158, 58474.00
1547.196, 58438.00
1548.234, 58565.70
1549.272, 58577.00
1550.309, 58728.00
1551.347, 58876.00
1552.384, 58807.00
1553.421, 58767.00
1554.458, 58809.75
1555.495, 58951.00
1556.532, 58813.00
1557.568, 58967.00
1558.605, 59009.00
1559.641, 59339.00
1560.678, 59153.00
1561.714, 59243.00
1562.750, 59105.00
1563.785, 59639.00
##END=



