##NAMES=Fluorapatite
##RRUFFID=R050401
##IDEAL CHEMISTRY=Ca_5_(PO_4_)_3_F
##LOCALITY=Urbano mine, Golconda District, Minas Gerais, Brazil
##OWNER=RRUFF
##SOURCE=Bob Downs
##DESCRIPTION=Pale purple hexagonal prism associated with albite R050402
##STATUS=The identification of this mineral has been confirmed by X-ray diffraction and chemical analysis
##URL=rruff.info/R050401
##MEASURED CHEMISTRY=(Ca_0.99_Mn_0.01_)_5_(P_1.00_O_4_)_3_F_1.00_
##PIN_ID=L00654
##ORIENTATION=Laser parallel to c* (0 0 1). Fiducial mark perpendicular to laser is parallel to a [1 0 0]
134.1270, 4923.000
135.3560, 4904.000
136.5850, 4936.000
137.8140, 4945.000
139.0430, 4951.843
140.2710, 4979.955
141.5000, 4984.000
142.7280, 5021.000
143.9560, 5056.000
145.1840, 5071.000
146.4120, 5115.287
147.6390, 5095.000
148.8670, 5186.000
150.0940, 5145.000
151.3210, 5165.000
152.5490, 5193.000
153.7750, 5188.000
155.0020, 5205.135
156.2290, 5250.000
157.4550, 5226.000
158.6810, 5262.000
159.9080, 5293.000
161.1340, 5350.000
162.3590, 5254.000
163.5850, 5306.000
164.8110, 5307.000
166.0360, 5389.000
167.2610, 5439.000
168.4860, 5411.000
169.7110, 5368.000
170.9360, 5440.000
172.1610, 5617.000
173.3850, 5374.000
174.6100, 5570.000
175.8340, 5603.000
177.0580, 5517.000
178.2820, 5559.000
179.5050, 5572.000
180.7290, 5616.000
181.9520, 5647.000
183.1760, 5624.000
184.3990, 5707.000
185.6220, 5663.000
186.8450, 5710.000
188.0670, 5727.000
189.2900, 5719.331
190.5120, 5836.000
191.7340, 5729.000
192.9560, 5809.000
194.1780, 5821.000
195.4000, 5951.000
196.6220, 5934.000
197.8430, 6009.000
199.0640, 5969.000
200.2860, 5952.000
201.5070, 5971.000
202.7270, 6016.000
203.9480, 5964.000
205.1690, 6017.000
206.3890, 6022.000
207.6090, 6154.000
208.8290, 6070.000
210.0490, 6091.000
211.2690, 6150.000
212.4890, 6101.000
213.7080, 6179.000
214.9280, 6218.000
216.1470, 6206.000
217.3660, 6171.000
218.5850, 6236.000
219.8030, 6353.000
221.0220, 6319.000
222.2400, 6318.000
223.4590, 6367.000
224.6770, 6296.000
225.8950, 6295.000
227.1120, 6435.000
228.3300, 6423.000
229.5480, 6497.000
230.7650, 6382.000
231.9820, 6447.000
233.1990, 6537.000
234.4160, 6479.000
235.6330, 6529.000
236.8490, 6650.000
238.0660, 6589.000
239.2820, 6691.000
240.4980, 6729.000
241.7140, 6570.000
242.9300, 6641.000
244.1460, 6616.000
245.3610, 6683.000
246.5770, 6732.000
247.7920, 6772.000
249.0070, 6788.000
250.2220, 6898.000
251.4370, 6860.000
252.6510, 6915.000
253.8660, 6796.000
255.0800, 6896.000
256.2940, 6875.000
257.5080, 6867.000
258.7220, 7062.000
259.9360, 7042.000
261.1490, 7012.000
262.3630, 7065.000
263.5760, 7137.000
264.7890, 7033.000
266.0020, 7187.000
267.2150, 7090.000
268.4270, 7096.000
269.6400, 7203.000
270.8520, 7105.000
272.0640, 7179.000
273.2760, 7239.000
274.4880, 7249.000
275.7000, 7344.000
276.9120, 7245.000
278.1230, 7273.000
279.3340, 7317.000
280.5450, 7290.000
281.7560, 7323.000
282.9670, 7362.000
284.1780, 7421.000
285.3880, 7478.000
286.5980, 7490.000
287.8090, 7523.000
289.0190, 7471.000
290.2290, 7464.000
291.4380, 7503.505
292.6480, 7559.000
293.8570, 7590.000
295.0670, 7645.000
296.2760, 7706.000
297.4850, 7678.000
298.6930, 7750.000
299.9020, 7692.000
301.1110, 7884.000
302.3190, 7727.000
303.5270, 7813.000
304.7350, 7813.000
305.9430, 7810.000
307.1510, 7906.000
308.3580, 7974.000
309.5660, 7870.000
310.7730, 7967.000
311.9800, 7959.000
313.1870, 7978.000
314.3940, 8107.000
315.6010, 7988.000
316.8070, 8018.000
318.0130, 8067.000
319.2200, 8125.000
320.4260, 8186.000
321.6310, 8228.109
322.8370, 8178.000
324.0430, 8305.000
325.2480, 8210.000
326.4540, 8212.000
327.6590, 8279.000
328.8640, 8278.000
330.0680, 8377.000
331.2730, 8410.000
332.4780, 8442.000
333.6820, 8432.000
334.8860, 8413.000
336.0900, 8492.000
337.2940, 8495.000
338.4980, 8467.000
339.7010, 8449.000
340.9050, 8606.000
342.1080, 8458.000
343.3110, 8715.000
344.5140, 8680.000
345.7170, 8565.000
346.9200, 8804.000
348.1220, 8702.000
349.3240, 8723.000
350.5270, 8831.000
351.7290, 8766.000
352.9310, 8846.000
354.1320, 8823.000
355.3340, 8940.000
356.5350, 8946.000
357.7370, 8951.000
358.9380, 8989.000
360.1390, 8937.000
361.3400, 8971.000
362.5400, 9128.000
363.7410, 9075.000
364.9410, 9197.000
366.1410, 9132.000
367.3410, 9078.000
368.5410, 9296.000
369.7410, 9166.000
370.9400, 9280.000
372.1400, 9163.000
373.3390, 9173.000
374.5380, 9215.000
375.7370, 9251.000
376.9360, 9195.000
378.1350, 9275.055
379.3330, 9546.000
380.5310, 9390.000
381.7300, 9508.000
382.9280, 9605.000
384.1260, 9557.000
385.3230, 9633.000
386.5210, 9570.000
387.7180, 9578.000
388.9160, 9688.000
390.1130, 9610.000
391.3100, 9678.000
392.5060, 9723.000
393.7030, 9712.000
394.9000, 9813.000
396.0960, 9803.000
397.2920, 9857.000
398.4880, 9931.000
399.6840, 9927.000
400.8800, 9992.000
402.0750, 10088.00
403.2710, 9956.000
404.4660, 10053.00
405.6610, 10106.00
406.8560, 10075.00
408.0510, 10170.00
409.2450, 10116.00
410.4400, 10141.00
411.6340, 10210.00
412.8280, 10157.00
414.0220, 10305.00
415.2160, 10325.00
416.4100, 10225.00
417.6030, 10379.00
418.7970, 10435.00
419.9900, 10352.00
421.1830, 10486.00
422.3760, 10477.00
423.5690, 10498.00
424.7610, 10567.00
425.9540, 10477.00
427.1460, 10733.00
428.3380, 10732.00
429.5300, 10579.00
430.7220, 10745.00
431.9140, 10648.00
433.1050, 10762.00
434.2970, 10824.00
435.4880, 10806.00
436.6790, 10901.00
437.8700, 10941.00
439.0610, 10929.00
440.2510, 11061.00
441.4420, 11134.00
442.6320, 11149.00
443.8220, 11033.00
445.0120, 11163.00
446.2020, 11150.00
447.3910, 11110.00
448.5810, 11194.00
449.7700, 11383.00
450.9600, 11279.00
452.1490, 11351.00
453.3370, 11261.00
454.5260, 11318.00
455.7150, 11286.00
456.9030, 11426.00
458.0910, 11398.00
459.2800, 11466.00
460.4670, 11574.00
461.6550, 11476.00
462.8430, 11645.00
464.0300, 11584.00
465.2180, 11536.00
466.4050, 11730.00
467.5920, 11797.00
468.7790, 11751.00
469.9650, 11835.00
471.1520, 11755.00
472.3380, 11718.00
473.5250, 11751.00
474.7110, 11750.88
475.8970, 11778.00
477.0820, 11873.00
478.2680, 11968.00
479.4540, 12103.00
480.6390, 12052.00
481.8240, 12142.00
483.0090, 12038.00
484.1940, 12220.00
485.3780, 12260.00
486.5630, 12202.00
487.7470, 12347.00
488.9320, 12230.00
490.1160, 12313.00
491.3000, 12494.00
492.4830, 12410.00
493.6670, 12449.00
494.8500, 12483.00
496.0340, 12564.00
497.2170, 12555.41
498.4000, 12509.00
499.5820, 12597.00
500.7650, 12523.00
501.9480, 12619.00
503.1300, 12856.00
504.3120, 12822.00
505.4940, 12825.00
506.6760, 12797.00
507.8580, 12847.00
509.0390, 12956.00
510.2210, 12771.00
511.4020, 12889.00
512.5830, 13149.00
513.7640, 13003.00
514.9450, 12991.00
516.1250, 13067.00
517.3060, 13005.00
518.4860, 13223.00
519.6660, 13196.00
520.8460, 13107.00
522.0260, 13272.00
523.2060, 13235.00
524.3850, 13367.00
525.5650, 13430.00
526.7440, 13400.00
527.9230, 13494.00
529.1020, 13463.00
530.2810, 13390.00
531.4590, 13698.00
532.6380, 13727.00
533.8160, 13513.00
534.9940, 13827.00
536.1720, 13753.00
537.3500, 13639.00
538.5270, 13855.00
539.7050, 13763.00
540.8820, 13989.00
542.0590, 13895.00
543.2360, 14038.00
544.4130, 14064.00
545.5900, 14053.00
546.7660, 13946.00
547.9430, 14121.00
549.1190, 14109.00
550.2950, 14243.00
551.4710, 14285.00
552.6470, 14311.00
553.8220, 14396.39
554.9980, 14315.00
556.1730, 14461.00
557.3480, 14443.00
558.5230, 14375.00
559.6980, 14641.00
560.8730, 14626.00
562.0470, 14636.00
563.2220, 14542.00
564.3960, 14679.00
565.5700, 14613.00
566.7440, 14828.00
567.9170, 14746.00
569.0910, 14778.00
570.2640, 14948.00
571.4380, 15014.00
572.6110, 14861.00
573.7840, 14990.00
574.9570, 15028.00
576.1290, 15196.00
577.3020, 15203.00
578.4740, 15178.00
579.6460, 15324.00
580.8180, 15415.00
581.9900, 15418.90
583.1620, 15421.00
584.3330, 15457.00
585.5040, 15468.00
586.6760, 15471.00
587.8470, 15576.00
589.0180, 15489.00
590.1880, 15526.00
591.3590, 15674.00
592.5290, 15650.00
593.7000, 15753.00
594.8700, 15654.00
596.0400, 15692.00
597.2090, 15827.00
598.3790, 15840.00
599.5490, 15797.00
600.7180, 15865.00
601.8870, 15932.00
603.0560, 16152.00
604.2250, 16022.00
605.3940, 16054.00
606.5620, 16266.00
607.7300, 16141.00
608.8990, 16355.00
610.0670, 16432.00
611.2350, 16427.94
612.4020, 16352.00
613.5700, 16517.00
614.7370, 16489.00
615.9050, 16588.00
617.0720, 16637.00
618.2390, 16736.00
619.4060, 16796.00
620.5720, 16549.00
621.7390, 16718.00
622.9050, 16816.00
624.0710, 16678.00
625.2370, 16861.00
626.4030, 16858.00
627.5690, 16952.00
628.7340, 16827.00
629.9000, 17033.00
631.0650, 16810.00
632.2300, 17222.00
633.3950, 16993.00
634.5600, 17216.00
635.7240, 17331.00
636.8890, 17166.00
638.0530, 17252.00
639.2170, 17454.00
640.3810, 17316.00
641.5450, 17411.00
642.7080, 17593.00
643.8720, 17509.00
645.0350, 17679.00
646.1980, 17747.00
647.3610, 17777.00
648.5240, 17712.00
649.6870, 17710.00
650.8490, 17801.00
652.0120, 17908.00
653.1740, 17878.00
654.3360, 18106.00
655.4980, 18088.00
656.6600, 18284.00
657.8210, 18150.00
658.9830, 18205.00
660.1440, 18056.00
661.3050, 18405.00
662.4660, 18363.00
663.6270, 18325.00
664.7870, 18286.00
665.9480, 18288.00
667.1080, 18373.00
668.2680, 18392.00
669.4280, 18716.00
670.5880, 18513.00
671.7480, 18872.00
672.9070, 18672.00
674.0670, 18754.00
675.2260, 18870.00
676.3850, 18775.00
677.5440, 19048.00
678.7030, 18959.00
679.8610, 19001.00
681.0200, 18915.00
682.1780, 19052.00
683.3360, 19003.00
684.4940, 19364.00
685.6520, 19155.00
686.8090, 19115.00
687.9670, 19481.00
689.1240, 19314.00
690.2810, 19512.00
691.4380, 19410.00
692.5950, 19526.00
693.7520, 19656.00
694.9080, 19667.00
696.0650, 19484.00
697.2210, 19673.00
698.3770, 19682.00
699.5330, 19880.00
700.6880, 19853.00
701.8440, 20037.00
702.9990, 19920.00
704.1550, 20035.00
705.3100, 19945.00
706.4650, 19999.00
707.6190, 20257.00
708.7740, 20031.00
709.9290, 20121.00
711.0830, 20400.00
712.2370, 19977.00
713.3910, 20295.00
714.5450, 20362.00
715.6980, 20374.00
716.8520, 20622.00
718.0050, 20539.00
719.1580, 20616.00
720.3110, 20826.00
721.4640, 20610.00
722.6170, 20832.00
723.7700, 21070.00
724.9220, 20953.00
726.0740, 20920.00
727.2260, 21162.00
728.3780, 21043.00
729.5300, 21038.00
730.6810, 21161.00
731.8330, 21132.00
732.9840, 21268.00
734.1350, 21293.00
735.2860, 21394.00
736.4370, 21535.00
737.5880, 21552.00
738.7380, 21500.00
739.8880, 21516.00
741.0390, 21477.00
742.1890, 21686.00
743.3380, 21800.00
744.4880, 21623.00
745.6380, 22075.00
746.7870, 21925.00
747.9360, 21947.00
749.0850, 21844.00
750.2340, 22135.00
751.3830, 22036.00
752.5310, 22209.00
753.6800, 22193.00
754.8280, 22239.47
755.9760, 22310.00
757.1240, 22405.00
758.2720, 22314.00
759.4190, 22520.00
760.5670, 22403.00
761.7140, 22389.00
762.8610, 22743.00
764.0080, 22592.00
765.1550, 22528.00
766.3020, 22792.00
767.4480, 22735.00
768.5950, 22926.00
769.7410, 23002.00
770.8870, 22773.00
772.0330, 23229.00
773.1780, 23035.00
774.3240, 23073.00
775.4690, 23253.00
776.6140, 23151.00
777.7590, 23230.00
778.9040, 23282.00
780.0490, 23462.00
781.1940, 23334.00
782.3380, 23478.00
783.4820, 23272.00
784.6260, 23569.00
785.7700, 23605.00
786.9140, 23519.00
788.0580, 23726.00
789.2010, 23871.00
790.3450, 23878.00
791.4880, 23749.00
792.6310, 24153.00
793.7730, 23963.00
794.9160, 24086.00
796.0590, 23989.00
797.2010, 23965.00
798.3430, 24259.00
799.4850, 24204.00
800.6270, 24149.00
801.7690, 24503.00
802.9100, 24478.00
804.0520, 24516.00
805.1930, 24674.00
806.3340, 24854.00
807.4750, 24730.00
808.6160, 24764.00
809.7560, 24673.00
810.8970, 24849.00
812.0370, 24967.00
813.1770, 25010.00
814.3170, 25050.00
815.4570, 25055.00
816.5960, 25125.00
817.7360, 25282.00
818.8750, 25416.00
820.0140, 25389.00
821.1530, 25523.00
822.2920, 25553.00
823.4310, 25323.00
824.5690, 25752.00
825.7070, 25471.00
826.8460, 25703.00
827.9840, 25672.00
829.1220, 25735.00
830.2590, 25591.00
831.3970, 25622.00
832.5340, 25796.00
833.6710, 25868.00
834.8080, 25949.00
835.9450, 26077.00
837.0820, 26057.05
838.2190, 26198.00
839.3550, 26113.00
840.4910, 26130.00
841.6270, 26333.00
842.7630, 26268.00
843.8990, 26445.00
845.0350, 26724.00
846.1700, 26730.00
847.3060, 26659.00
848.4410, 26556.00
849.5760, 26546.00
850.7100, 26884.00
851.8450, 26814.00
852.9800, 27060.00
854.1140, 27318.00
855.2480, 27024.00
856.3820, 27238.00
857.5160, 27166.00
858.6500, 27083.00
859.7830, 27085.00
860.9170, 27433.00
862.0500, 27616.00
863.1830, 27553.00
864.3160, 27732.00
865.4480, 27684.64
866.5810, 27932.00
867.7130, 27669.00
868.8460, 27695.00
869.9780, 27821.00
871.1100, 27949.00
872.2410, 27943.00
873.3730, 28008.00
874.5050, 28112.00
875.6360, 28162.00
876.7670, 28185.88
877.8980, 28280.00
879.0290, 28265.00
880.1590, 28331.00
881.2900, 28516.00
882.4200, 28674.00
883.5500, 28396.00
884.6800, 28690.00
885.8100, 28749.00
886.9400, 29021.00
888.0690, 28675.00
889.1990, 28811.00
890.3280, 29138.00
891.4570, 28718.00
892.5860, 29043.00
893.7140, 28973.00
894.8430, 29050.00
895.9710, 29236.00
897.1000, 29324.00
898.2280, 29333.00
899.3560, 29288.00
900.4830, 29263.00
901.6110, 29415.00
902.7380, 29659.00
903.8660, 29548.00
904.9930, 29808.00
906.1200, 29874.00
907.2460, 29591.00
908.3730, 29663.00
909.5000, 30047.00
910.6260, 30035.00
911.7520, 29833.00
912.8780, 30355.00
914.0040, 30229.00
915.1290, 30118.00
916.2550, 30654.00
917.3800, 30251.00
918.5050, 30531.00
919.6300, 30589.00
920.7550, 30546.00
921.8800, 30641.00
923.0040, 30658.00
924.1290, 30622.00
925.2530, 30778.00
926.3770, 30823.00
927.5010, 30926.00
928.6250, 31037.00
929.7480, 31135.00
930.8720, 30888.00
931.9950, 31394.00
933.1180, 31082.00
934.2410, 31372.00
935.3640, 31417.00
936.4860, 31357.00
937.6090, 31383.00
938.7310, 31529.00
939.8530, 31768.00
940.9750, 31775.56
942.0970, 31767.00
943.2180, 31921.00
944.3400, 31902.00
945.4610, 32003.00
946.5820, 31842.00
947.7030, 31955.72
948.8240, 31920.00
949.9450, 32079.00
951.0650, 32273.00
952.1860, 32360.00
953.3060, 32517.00
954.4260, 32440.00
955.5460, 32441.00
956.6650, 32530.00
957.7850, 32826.00
958.9040, 32897.00
960.0230, 32745.00
961.1420, 33373.00
962.2610, 33284.00
963.3800, 33447.00
964.4990, 34233.00
965.6170, 34543.00
966.7350, 34409.00
967.8530, 33971.00
968.9710, 33998.00
970.0890, 33350.00
971.2070, 33890.00
972.3240, 33500.00
973.4410, 33474.00
974.5580, 33584.00
975.6750, 33626.00
976.7920, 33778.00
977.9090, 33874.00
979.0250, 33911.00
980.1410, 33922.00
981.2580, 33924.00
982.3740, 33994.00
983.4890, 34004.00
984.6050, 34394.00
985.7200, 34350.00
986.8360, 34304.00
987.9510, 34517.00
989.0660, 34354.00
990.1810, 34385.00
991.2950, 34399.00
992.4100, 34576.00
993.5240, 34549.00
994.6390, 34794.00
995.7530, 34905.00
996.8660, 34839.00
997.9800, 35012.00
999.0940, 34992.00
1000.207, 35239.00
1001.320, 35279.69
1002.433, 35296.00
1003.546, 35437.00
1004.659, 35370.00
1005.772, 35418.00
1006.884, 35703.00
1007.996, 35515.00
1009.108, 35427.00
1010.220, 35666.00
1011.332, 35766.00
1012.444, 35849.00
1013.555, 35926.00
1014.666, 35746.00
1015.777, 35831.00
1016.888, 36019.00
1017.999, 35927.00
1019.110, 36170.00
1020.220, 36273.00
1021.331, 36356.00
1022.441, 36226.00
1023.551, 36367.00
1024.661, 36381.56
1025.770, 36288.00
1026.880, 36578.00
1027.989, 36668.00
1029.098, 36923.00
1030.207, 36984.03
1031.316, 37116.89
1032.425, 37084.00
1033.533, 37203.00
1034.642, 37251.00
1035.750, 37043.00
1036.858, 37552.00
1037.966, 37107.00
1039.073, 37249.00
1040.181, 37583.00
1041.288, 37500.00
1042.396, 37732.00
1043.503, 37752.00
1044.610, 37669.00
1045.716, 37576.00
1046.823, 37675.00
1047.929, 37715.00
1049.036, 37888.00
1050.142, 38122.00
1051.248, 37999.00
1052.353, 38207.00
1053.459, 38369.00
1054.564, 37941.00
1055.670, 38394.00
1056.775, 38508.00
1057.880, 38370.00
1058.985, 38652.00
1060.089, 38848.00
1061.194, 38721.00
1062.298, 38812.00
1063.402, 38945.00
1064.506, 38827.00
1065.610, 38999.00
1066.713, 39065.00
1067.817, 38877.00
1068.920, 39335.00
1070.023, 39392.00
1071.126, 39224.00
1072.229, 39461.00
1073.332, 39402.00
1074.435, 39475.00
1075.537, 39514.00
1076.639, 39702.00
1077.741, 39644.00
1078.843, 39847.00
1079.945, 39837.00
1081.046, 39922.00
1082.148, 40337.00
1083.249, 40075.00
1084.350, 40159.00
1085.451, 39974.00
1086.551, 40258.00
1087.652, 40279.00
1088.752, 40377.00
1089.853, 40383.00
1090.953, 40557.00
1092.053, 40884.00
1093.152, 40460.00
1094.252, 40682.00
1095.351, 40872.00
1096.451, 40553.00
1097.550, 40797.00
1098.649, 40930.00
1099.748, 40741.00
1100.846, 40983.00
1101.945, 41134.00
1103.043, 40981.00
1104.141, 41124.00
1105.239, 41296.00
1106.337, 41229.00
1107.434, 41310.00
1108.532, 41510.00
1109.629, 41459.00
1110.726, 41836.00
1111.823, 41645.00
1112.920, 41625.00
1114.017, 41855.00
1115.113, 41924.00
1116.210, 41985.00
1117.306, 42061.00
1118.402, 42223.00
1119.498, 41928.00
1120.593, 42269.00
1121.689, 42411.00
1122.784, 42134.00
1123.879, 42419.00
1124.974, 42293.00
1126.069, 42253.00
1127.164, 42517.00
1128.259, 42486.00
1129.353, 42538.00
1130.447, 42534.00
1131.541, 42697.00
1132.635, 42496.00
1133.729, 43194.00
1134.822, 43203.00
1135.916, 42744.00
1137.009, 43263.00
1138.102, 43326.00
1139.195, 43128.00
1140.288, 43246.00
1141.380, 43731.00
1142.473, 43430.00
1143.565, 43757.00
1144.657, 43744.00
1145.749, 43578.00
1146.841, 44108.00
1147.932, 44073.00
1149.024, 43968.00
1150.115, 44345.00
1151.206, 43872.00
1152.297, 44153.00
1153.388, 44244.00
1154.479, 44265.00
1155.569, 44385.00
1156.659, 44308.00
1157.750, 44450.00
1158.839, 44250.00
1159.929, 44673.00
1161.019, 44785.00
1162.108, 44549.00
1163.198, 44779.00
1164.287, 45047.00
1165.376, 44909.00
1166.465, 44877.00
1167.553, 45034.00
1168.642, 45129.00
1169.730, 45051.00
1170.818, 45378.00
1171.906, 45068.00
1172.994, 45398.00
1174.082, 45641.00
1175.170, 45153.00
1176.257, 45475.00
1177.344, 45714.00
1178.431, 45569.00
1179.518, 46050.00
1180.605, 45676.00
1181.691, 45795.00
1182.778, 45754.00
1183.864, 45666.00
1184.950, 45974.00
1186.036, 46178.00
1187.122, 46321.00
1188.207, 46100.00
1189.292, 46836.00
1190.378, 46419.00
1191.463, 46372.00
1192.548, 46658.00
1193.632, 46606.00
1194.717, 46590.00
1195.801, 46618.00
1196.886, 47184.00
1197.970, 46620.00
1199.054, 46960.00
1200.137, 47206.00
1201.221, 46670.00
1202.305, 47256.00
1203.388, 46980.00
1204.471, 46974.00
1205.554, 47479.00
1206.637, 46994.00
1207.719, 47491.00
1208.802, 47410.00
1209.884, 47655.00
1210.966, 47720.85
1212.048, 47519.00
1213.130, 47800.00
1214.212, 47708.00
1215.293, 47855.00
1216.374, 47932.00
1217.456, 48040.00
1218.536, 48265.00
1219.617, 48333.85
1220.698, 48234.00
1221.778, 48512.00
1222.859, 48154.00
1223.939, 48081.00
1225.019, 48304.00
1226.099, 48605.00
1227.178, 48211.00
1228.258, 48458.00
1229.337, 48771.00
1230.417, 48310.00
1231.496, 49169.00
1232.574, 48741.00
1233.653, 49170.00
1234.732, 48822.00
1235.810, 49050.00
1236.888, 48967.00
1237.966, 48966.00
1239.044, 49175.00
1240.122, 49276.00
1241.199, 49130.00
1242.277, 49733.00
1243.354, 49006.00
1244.431, 49836.00
1245.508, 49514.00
1246.585, 49445.00
1247.661, 49768.00
1248.738, 49882.00
1249.814, 49741.00
1250.890, 50143.00
1251.966, 50049.00
1253.042, 49668.00
1254.117, 50099.00
1255.193, 50467.00
1256.268, 50090.00
1257.343, 50550.00
1258.418, 50498.00
1259.493, 50452.00
1260.567, 50738.00
1261.642, 50592.00
1262.716, 50804.00
1263.790, 50691.00
1264.864, 50722.00
1265.938, 50873.00
1267.011, 50927.00
1268.085, 51126.00
1269.158, 50743.00
1270.231, 51248.00
1271.304, 51056.00
1272.377, 50886.00
1273.450, 51281.00
1274.522, 50915.00
1275.594, 51664.00
1276.666, 51300.81
1277.738, 51781.99
1278.810, 52079.82
1279.882, 52204.16
1280.953, 51635.32
1282.025, 51961.56
1283.096, 51929.05
1284.167, 51881.84
1285.238, 52334.00
1286.308, 51865.91
1287.379, 52310.15
1288.449, 52390.16
1289.519, 52636.85
1290.589, 52522.63
1291.659, 52519.89
1292.729, 52878.16
1293.798, 53036.47
1294.868, 52880.71
1295.937, 53137.93
1297.006, 52657.18
1298.075, 52824.01
1299.143, 53270.18
1300.212, 53132.51
1301.280, 53396.27
1302.348, 53507.12
1303.416, 52923.06
1304.484, 53547.52
1305.552, 53649.33
1306.620, 53214.50
1307.687, 53797.50
1308.754, 53436.59
1309.821, 53412.60
1310.888, 53642.15
1311.955, 53607.39
1313.021, 53989.31
1314.088, 53969.81
1315.154, 53914.39
1316.220, 54015.50
1317.286, 53673.05
1318.352, 54153.50
1319.417, 54071.77
1320.483, 54269.53
1321.548, 54530.55
1322.613, 54306.64
1323.678, 54596.12
1324.743, 54089.45
1325.807, 54248.89
1326.872, 54336.65
1327.936, 54850.16
1329.000, 54347.31
1330.064, 54488.24
1331.128, 54382.00
1332.191, 54266.00
1333.255, 54870.00
1334.318, 54609.00
1335.381, 54689.00
1336.444, 54884.00
1337.507, 54696.00
1338.569, 55319.00
1339.632, 54955.00
1340.694, 54672.00
1341.756, 55190.00
1342.818, 55281.00
1343.880, 55249.00
1344.941, 55113.00
1346.003, 55218.00
1347.064, 55534.00
1348.125, 55174.00
1349.186, 55589.00
1350.247, 55215.00
1351.308, 55543.00
1352.368, 55850.00
1353.428, 55288.00
1354.489, 55631.00
1355.549, 56105.00
1356.608, 55481.00
1357.668, 55719.00
1358.727, 55703.00
1359.787, 55843.00
1360.846, 55904.00
1361.905, 56197.00
1362.964, 56028.00
1364.022, 55937.00
1365.081, 56490.00
1366.139, 56255.00
1367.197, 56115.00
1368.255, 55846.00
1369.313, 56562.00
1370.371, 56297.00
1371.428, 56329.00
1372.486, 56474.00
1373.543, 56266.00
1374.600, 56764.00
1375.657, 56865.00
1376.713, 56386.00
1377.770, 57003.00
1378.826, 56853.00
1379.882, 56503.00
1380.938, 56754.00
1381.994, 56978.00
1383.050, 57087.00
1384.106, 57293.00
1385.161, 57363.00
1386.216, 56796.00
1387.271, 57044.00
1388.326, 57483.00
1389.381, 57349.00
1390.435, 57945.00
1391.490, 57519.00
1392.544, 57155.00
1393.598, 57688.00
1394.652, 57681.00
1395.705, 57773.00
1396.759, 57675.00
1397.812, 57773.00
1398.866, 58144.00
1399.919, 57317.00
1400.972, 58208.00
1402.024, 58163.00
1403.077, 57866.00
1404.129, 58616.00
1405.181, 58185.00
1406.233, 58002.00
1407.285, 58399.00
1408.337, 58068.00
1409.389, 58243.00
1410.440, 58474.00
1411.491, 58731.00
1412.542, 58385.00
1413.593, 58800.00
1414.644, 58832.00
1415.695, 58370.00
1416.745, 58663.00
1417.795, 58876.00
1418.845, 58319.00
1419.895, 58876.00
1420.945, 58837.00
1421.995, 58911.00
1423.044, 58977.00
1424.093, 59062.00
1425.142, 58868.00
1426.191, 59096.00
1427.240, 59057.00
1428.289, 59633.00
1429.337, 59222.00
1430.385, 59378.00
1431.433, 59551.00
1432.481, 59457.00
1433.529, 59600.00
1434.577, 59752.00
1435.624, 59889.00
1436.672, 59762.00
1437.719, 59865.00
1438.766, 59890.00
1439.812, 60075.00
1440.859, 60185.00
1441.905, 59955.00
1442.952, 60130.00
1443.998, 60153.00
1445.044, 60016.00
1446.090, 60612.00
1447.135, 60357.00
1448.181, 60161.00
1449.226, 60678.00
1450.271, 60469.00
1451.316, 60375.00
1452.361, 60486.00
1453.405, 60722.00
1454.450, 60210.00
1455.494, 60696.00
1456.538, 60682.00
1457.582, 60403.00
1458.626, 60987.00
1459.670, 60937.00
1460.713, 60562.00
1461.757, 61053.00
1462.800, 61162.00
1463.843, 60725.00
1464.886, 60823.00
1465.928, 61053.00
1466.971, 61103.00
1468.013, 61183.00
1469.055, 61623.00
1470.097, 61296.00
1471.139, 61233.00
1472.181, 61637.00
1473.222, 61526.00
1474.263, 61366.00
1475.305, 61732.00
1476.346, 61535.00
1477.386, 61828.00
1478.427, 61969.00
1479.468, 62007.00
1480.508, 61991.00
1481.548, 62010.00
1482.588, 62290.00
1483.628, 61881.00
1484.668, 62219.00
1485.707, 62676.00
1486.747, 61923.00
1487.786, 62451.00
1488.825, 62625.00
1489.864, 62477.00
1490.902, 62090.00
1491.941, 62394.00
1492.979, 62222.00
1494.017, 62643.00
1495.055, 62685.00
1496.093, 62451.00
1497.131, 62506.00
1498.168, 62751.00
1499.206, 62933.00
1500.243, 62937.00
1501.280, 62992.00
1502.317, 63248.00
1503.354, 63162.00
1504.390, 63287.00
1505.426, 63307.00
1506.463, 63131.00
1507.499, 63230.00
1508.535, 63696.00
1509.570, 63189.00
1510.606, 63634.00
1511.641, 63940.00
1512.676, 63535.00
1513.711, 63521.00
1514.746, 63437.00
1515.781, 63789.00
1516.816, 63567.00
1517.850, 63823.00
1518.884, 64170.00
1519.918, 63610.00
1520.952, 64128.00
1521.986, 64169.00
1523.019, 63540.00
1524.053, 64461.00
1525.086, 64020.00
1526.119, 63669.00
1527.152, 64164.00
1528.185, 64324.00
1529.217, 64360.00
1530.250, 64211.00
1531.282, 64406.00
1532.314, 64503.00
1533.346, 64247.00
1534.377, 64587.00
1535.409, 64226.00
1536.440, 64328.00
1537.472, 64931.00
1538.503, 64359.00
1539.534, 64669.00
1540.564, 64740.00
1541.595, 64426.00
1542.625, 64237.00
1543.656, 64751.00
1544.686, 64693.00
1545.716, 64474.00
1546.745, 65021.00
1547.775, 64801.00
1548.804, 64503.00
1549.834, 65116.00
1550.863, 65170.00
1551.892, 64848.00
1552.920, 64989.00
1553.949, 64967.00
1554.977, 64942.00
1556.006, 65147.00
1557.034, 65123.00
1558.062, 65097.00
1559.089, 64825.00
1560.117, 65376.00
1561.144, 65080.00
1562.172, 65275.00
1563.199, 65437.00
1564.226, 65481.00
1565.252, 65141.00
1566.279, 65310.00
1567.305, 65337.00
1568.332, 65535.00
1569.358, 65535.00
1570.384, 65535.00
1571.409, 65535.00
##END=



