##NAMES=Fluorophlogopite
##RRUFFID=R040042
##IDEAL CHEMISTRY=KMg_3_(Si_3_Al)O_10_F_2_
##LOCALITY=Franklin, Sussex County, New Jersey, USA
##OWNER=RRUFF
##SOURCE=University of Arizona Mineral Museum
##DESCRIPTION=Brown flattened hexagonal prism, polytype 1M
##STATUS=The identification of this mineral has been confirmed by X-ray diffraction and chemical analysis
##URL=rruff.info/R040042
##MEASURED CHEMISTRY=(K_0.92_Na_0.08_)_Σ=1_(Mg_2.95_Fe_0.05_)_Σ=3_(Si_3.00_Al_1.00_)O_10_(F_1.40_(OH)_0.60_)_Σ=2_; trace amounts of Ti; OH estimated by charge balance
##PIN_ID=L00310
##ORIENTATION=Laser parallel to c* (0 0 1). Fiducial mark perpendicular to laser is parallel to -a [-1 0 0]
144.7840, 30824.00
146.0120, 30961.00
147.2400, 30885.00
148.4680, 31038.00
149.6950, 30803.00
150.9220, 31001.00
152.1500, 31007.98
153.3770, 30932.00
154.6030, 30936.00
155.8300, 30932.61
157.0570, 30760.00
158.2830, 30983.00
159.5090, 30862.00
160.7350, 30951.00
161.9610, 31116.00
163.1870, 31092.00
164.4130, 31275.00
165.6380, 31166.00
166.8630, 31418.00
168.0880, 31464.09
169.3130, 31821.59
170.5380, 32108.41
171.7630, 32328.34
172.9870, 32280.88
174.2120, 32578.66
175.4360, 32737.98
176.6600, 32891.64
177.8840, 33237.81
179.1080, 33229.23
180.3310, 33572.19
181.5550, 33774.92
182.7780, 34254.00
184.0010, 34593.00
185.2240, 35613.00
186.4470, 36824.00
187.6700, 37741.00
188.8920, 39506.00
190.1150, 41517.00
191.3370, 43351.00
192.5590, 45817.00
193.7810, 49327.00
195.0020, 52615.00
196.2240, 56021.00
197.4450, 58937.00
198.6670, 60859.00
199.8880, 60853.00
201.1090, 59443.00
202.3300, 56520.00
203.5500, 52918.00
204.7710, 48759.00
205.9910, 45241.00
207.2110, 42580.00
208.4310, 40737.00
209.6510, 38610.00
210.8710, 37768.00
212.0910, 36655.00
213.3100, 35907.00
214.5290, 35448.00
215.7480, 34979.00
216.9670, 34760.00
218.1860, 34468.00
219.4050, 34123.00
220.6230, 34004.00
221.8420, 33758.00
223.0600, 33780.00
224.2780, 33597.00
225.4960, 33531.00
226.7130, 33394.00
227.9310, 33520.00
229.1480, 33499.00
230.3660, 33470.00
231.5830, 33498.44
232.8000, 33328.91
234.0160, 33498.59
235.2330, 33597.59
236.4490, 33629.70
237.6660, 33394.59
238.8820, 33504.54
240.0980, 33476.20
241.3140, 33442.18
242.5300, 33600.70
243.7450, 33404.44
244.9600, 33559.89
246.1760, 33574.96
247.3910, 33654.27
248.6060, 33594.44
249.8200, 33577.59
251.0350, 33768.00
252.2500, 33634.36
253.4640, 33748.18
254.6780, 33839.51
255.8920, 33912.15
257.1060, 33765.77
258.3190, 34012.51
259.5330, 34169.26
260.7460, 34368.33
261.9600, 34808.29
263.1730, 34941.40
264.3850, 35474.00
265.5980, 35964.00
266.8110, 36405.00
268.0230, 37005.54
269.2360, 37392.00
270.4480, 38211.00
271.6600, 39082.00
272.8710, 39846.00
274.0830, 41137.00
275.2950, 42471.00
276.5060, 44455.00
277.7170, 45901.00
278.9280, 47333.00
280.1390, 48706.00
281.3500, 49030.00
282.5600, 48228.00
283.7710, 46988.00
284.9810, 45603.00
286.1910, 43685.00
287.4010, 42180.00
288.6110, 41020.00
289.8200, 39905.00
291.0300, 39243.00
292.2390, 38831.00
293.4480, 38475.00
294.6570, 38261.00
295.8660, 38116.00
297.0750, 38103.00
298.2830, 38288.00
299.4920, 38370.00
300.7000, 38116.00
301.9080, 38604.00
303.1160, 39035.00
304.3240, 39342.00
305.5310, 40028.00
306.7390, 40589.00
307.9460, 41233.00
309.1530, 42362.00
310.3600, 42800.00
311.5670, 44229.00
312.7740, 45012.00
313.9800, 46233.00
315.1870, 46922.00
316.3930, 47507.00
317.5990, 48350.00
318.8050, 48696.00
320.0110, 48841.00
321.2160, 48951.00
322.4220, 49666.00
323.6270, 49471.00
324.8320, 49395.00
326.0370, 49108.00
327.2420, 48521.00
328.4460, 47432.00
329.6510, 46772.00
330.8550, 45791.00
332.0590, 44990.00
333.2630, 44095.00
334.4670, 43313.00
335.6710, 42608.10
336.8740, 41936.50
338.0780, 41292.00
339.2810, 40840.00
340.4840, 40253.00
341.6870, 39890.00
342.8900, 39814.00
344.0920, 39494.00
345.2950, 39784.00
346.4970, 39586.00
347.6990, 39283.00
348.9010, 38774.00
350.1030, 38901.00
351.3050, 38689.00
352.5060, 38609.00
353.7080, 38661.00
354.9090, 38586.63
356.1100, 38683.00
357.3110, 38633.00
358.5110, 38875.00
359.7120, 38934.00
360.9120, 38826.00
362.1130, 39204.00
363.3130, 39157.00
364.5130, 39297.00
365.7120, 39335.00
366.9120, 39328.00
368.1120, 39522.00
369.3110, 39454.00
370.5100, 40078.00
371.7090, 39843.00
372.9080, 39996.00
374.1070, 40125.00
375.3050, 39795.00
376.5040, 39827.00
377.7020, 39689.00
378.9000, 39531.00
380.0980, 39463.00
381.2950, 39334.00
382.4930, 39592.00
383.6910, 39185.00
384.8880, 39486.00
386.0850, 39220.00
387.2820, 39185.00
388.4790, 39267.00
389.6750, 39482.00
390.8720, 39196.00
392.0680, 39464.00
393.2640, 39525.00
394.4600, 39379.00
395.6560, 39535.00
396.8520, 39197.00
398.0480, 39643.00
399.2430, 39251.00
400.4380, 39553.00
401.6330, 39448.00
402.8280, 39545.00
404.0230, 39631.00
405.2180, 39576.00
406.4120, 39522.00
407.6060, 39624.00
408.8000, 39630.00
409.9940, 39609.00
411.1880, 39458.00
412.3820, 39558.00
413.5750, 39498.00
414.7690, 39543.00
415.9620, 39584.00
417.1550, 39573.00
418.3480, 39588.09
419.5410, 39853.00
420.7330, 39486.00
421.9260, 39645.00
423.1180, 39427.00
424.3100, 39679.00
425.5020, 39727.00
426.6940, 39741.00
427.8850, 39803.00
429.0770, 39774.00
430.2680, 40016.00
431.4590, 39963.30
432.6500, 40009.00
433.8410, 39980.00
435.0320, 40172.00
436.2220, 40170.00
437.4130, 40257.00
438.6030, 40477.00
439.7930, 40563.79
440.9830, 40494.00
442.1730, 40880.00
443.3620, 40835.00
444.5520, 40943.00
445.7410, 41120.00
446.9300, 41365.00
448.1190, 41238.00
449.3080, 41424.00
450.4960, 41523.18
451.6850, 41377.00
452.8730, 41821.00
454.0610, 41914.00
455.2490, 42186.00
456.4370, 42199.37
457.6250, 42015.00
458.8130, 41988.00
460.0000, 41882.00
461.1870, 41522.00
462.3740, 41940.00
463.5610, 41415.00
464.7480, 41351.00
465.9340, 41667.00
467.1210, 41484.00
468.3070, 41472.00
469.4930, 41254.00
470.6790, 41210.65
471.8650, 41036.00
473.0510, 41131.00
474.2360, 40963.00
475.4210, 41029.00
476.6070, 41121.00
477.7920, 41148.00
478.9770, 40930.00
480.1610, 41077.00
481.3460, 41493.00
482.5300, 41159.00
483.7140, 41534.00
484.8980, 41268.00
486.0820, 41561.00
487.2660, 41528.00
488.4500, 41578.00
489.6330, 41491.00
490.8160, 42012.00
492.0000, 41840.00
493.1830, 42243.00
494.3650, 41917.00
495.5480, 42402.00
496.7300, 42689.00
497.9130, 42455.93
499.0950, 42751.98
500.2770, 42977.35
501.4590, 43135.83
502.6410, 43027.08
503.8220, 43263.29
505.0030, 43361.21
506.1850, 43453.57
507.3660, 43738.34
508.5470, 43668.36
509.7270, 43949.96
510.9080, 44091.29
512.0880, 44296.77
513.2690, 44293.00
514.4490, 44155.00
515.6290, 43835.00
516.8090, 43760.00
517.9880, 43899.00
519.1680, 43809.00
520.3470, 43774.00
521.5260, 43634.00
522.7050, 43580.47
523.8840, 43481.91
525.0630, 43410.00
526.2410, 43395.00
527.4200, 43277.00
528.5980, 43457.97
529.7760, 43439.00
530.9540, 43530.00
532.1320, 43352.00
533.3090, 43188.00
534.4870, 43512.00
535.6640, 43592.00
536.8410, 43325.00
538.0180, 43898.00
539.1950, 43785.00
540.3710, 43412.00
541.5480, 43660.00
542.7240, 43699.00
543.9000, 43845.00
545.0760, 43959.00
546.2520, 43496.00
547.4280, 44057.00
548.6040, 43816.00
549.7790, 44093.00
550.9540, 44056.00
552.1290, 43965.00
553.3040, 44522.00
554.4790, 44615.00
555.6530, 44106.00
556.8280, 44320.00
558.0020, 44354.00
559.1760, 44159.00
560.3500, 44125.00
561.5240, 44425.00
562.6980, 44716.00
563.8710, 44481.00
565.0440, 44779.00
566.2170, 45030.00
567.3900, 44687.00
568.5630, 44622.00
569.7360, 44780.00
570.9090, 44779.00
572.0810, 44783.00
573.2530, 44733.00
574.4250, 44942.00
575.5970, 44978.00
576.7690, 44992.00
577.9400, 44803.00
579.1120, 44967.00
580.2830, 44646.00
581.4540, 44960.00
582.6250, 44738.00
583.7960, 44865.00
584.9660, 44822.00
586.1370, 44878.00
587.3070, 44947.00
588.4770, 45072.00
589.6470, 45274.00
590.8170, 45292.00
591.9870, 45452.00
593.1560, 45243.00
594.3260, 45215.00
595.4950, 45273.00
596.6640, 45618.00
597.8330, 45373.00
599.0010, 45475.00
600.1700, 45710.00
601.3380, 45695.00
602.5070, 45903.00
603.6750, 45805.00
604.8430, 45894.00
606.0100, 46116.00
607.1780, 46233.00
608.3450, 46165.00
609.5130, 46332.00
610.6800, 46374.00
611.8470, 46548.00
613.0140, 46348.00
614.1800, 46720.00
615.3470, 46845.00
616.5130, 46937.78
617.6790, 47294.00
618.8450, 47230.00
620.0110, 47462.00
621.1770, 47569.00
622.3420, 47686.00
623.5080, 48207.00
624.6730, 48255.00
625.8380, 48741.00
627.0030, 49115.00
628.1680, 49171.00
629.3320, 49916.00
630.4970, 49701.00
631.6610, 50206.00
632.8250, 50627.00
633.9890, 50870.00
635.1530, 51156.00
636.3160, 51625.00
637.4800, 52230.00
638.6430, 52256.00
639.8060, 52825.00
640.9690, 52886.00
642.1320, 52969.00
643.2950, 53169.00
644.4570, 53120.00
645.6200, 52998.00
646.7820, 53441.00
647.9440, 53216.00
649.1060, 53158.00
650.2670, 53275.87
651.4290, 53607.00
652.5900, 53476.00
653.7520, 53953.00
654.9130, 54520.00
656.0740, 54552.00
657.2340, 54563.00
658.3950, 54906.00
659.5550, 55766.00
660.7160, 55670.00
661.8760, 56387.00
663.0360, 56802.00
664.1960, 57165.00
665.3550, 57936.00
666.5150, 58885.00
667.6740, 59531.00
668.8330, 60240.00
669.9920, 62109.00
671.1510, 62766.00
672.3100, 64652.00
673.4680, 66389.00
674.6270, 68396.00
675.7850, 70512.00
676.9430, 73412.00
678.1010, 76175.00
679.2590, 78696.00
680.4160, 81731.00
681.5740, 84229.00
682.7310, 86128.00
683.8880, 87707.00
685.0450, 88083.00
686.2020, 88171.00
687.3580, 87044.00
688.5150, 85694.00
689.6710, 83642.00
690.8270, 81272.00
691.9830, 78860.00
693.1390, 76373.00
694.2950, 73865.00
695.4500, 71298.00
696.6050, 68701.00
697.7610, 66417.00
698.9160, 64705.00
700.0710, 62905.00
701.2250, 61160.00
702.3800, 59778.00
703.5340, 58547.23
704.6880, 57638.00
705.8420, 56712.00
706.9960, 56103.00
708.1500, 55628.00
709.3040, 54859.00
710.4570, 54183.00
711.6100, 53919.00
712.7640, 54037.00
713.9160, 53456.00
715.0690, 53404.00
716.2220, 53137.00
717.3740, 53214.00
718.5270, 53003.00
719.6790, 52611.00
720.8310, 52889.00
721.9830, 52822.00
723.1340, 52502.00
724.2860, 52478.00
725.4370, 52767.00
726.5880, 52875.00
727.7390, 52494.00
728.8900, 52678.00
730.0410, 52526.00
731.1910, 52376.00
732.3420, 52416.00
733.4920, 52349.42
734.6420, 52520.00
735.7920, 52386.00
736.9420, 52526.00
738.0910, 52569.00
739.2410, 52565.80
740.3900, 52838.00
741.5390, 52702.00
742.6880, 52540.00
743.8370, 52737.00
744.9860, 52847.00
746.1340, 52982.00
747.2820, 52519.00
748.4310, 52817.00
749.5790, 52802.00
750.7260, 52724.00
751.8740, 52976.00
753.0220, 52703.00
754.1690, 52863.00
755.3160, 52795.00
756.4630, 52811.46
757.6100, 52981.00
758.7570, 52916.00
759.9030, 53098.00
761.0500, 53135.00
762.1960, 53180.00
763.3420, 53182.00
764.4880, 52915.00
765.6340, 53393.00
766.7790, 53438.00
767.9250, 53536.00
769.0700, 53301.00
770.2150, 53327.00
771.3600, 53189.00
772.5050, 53492.00
773.6490, 53630.00
774.7940, 53467.00
775.9380, 53707.00
777.0820, 53602.00
778.2260, 53860.00
779.3700, 53558.00
780.5140, 54054.00
781.6570, 54289.00
782.8010, 54540.00
783.9440, 53813.00
785.0870, 54282.00
786.2300, 54346.00
787.3720, 54301.00
788.5150, 54556.00
789.6570, 54420.00
790.8000, 54698.00
791.9420, 54808.00
793.0840, 54352.00
794.2250, 54808.00
795.3670, 54629.00
796.5080, 54758.00
797.6500, 54736.00
798.7910, 54314.00
799.9320, 54885.00
801.0720, 55011.00
802.2130, 54745.00
803.3530, 54841.00
804.4940, 54802.00
805.6340, 54763.00
806.7740, 54657.00
807.9140, 54781.00
809.0530, 54727.00
810.1930, 54840.28
811.3320, 54762.00
812.4710, 55083.00
813.6100, 54916.00
814.7490, 55007.00
815.8880, 54762.00
817.0270, 55156.00
818.1650, 54884.00
819.3030, 54684.00
820.4410, 55182.00
821.5790, 55010.00
822.7170, 55205.00
823.8540, 55189.00
824.9920, 55112.00
826.1290, 54980.00
827.2660, 55284.00
828.4030, 55249.00
829.5400, 55167.00
830.6760, 55267.33
831.8130, 55185.51
832.9490, 55160.00
834.0850, 55280.00
835.2210, 55063.00
836.3570, 55425.00
837.4930, 55167.00
838.6280, 55705.00
839.7640, 55253.00
840.8990, 55705.00
842.0340, 55377.00
843.1690, 55706.00
844.3030, 55863.00
845.4380, 55443.00
846.5720, 55505.00
847.7060, 55537.00
848.8400, 56158.00
849.9740, 56361.00
851.1080, 55945.00
852.2420, 56022.00
853.3750, 55852.00
854.5080, 56299.00
855.6410, 55963.00
856.7740, 56131.09
857.9070, 56156.07
859.0400, 56086.00
860.1720, 56275.00
861.3040, 55959.00
862.4360, 56263.00
863.5680, 56168.00
864.7000, 56523.00
865.8320, 56550.30
866.9630, 56788.00
868.0950, 56653.00
869.2260, 56678.00
870.3570, 56618.00
871.4880, 56598.12
872.6180, 56457.00
873.7490, 56663.00
874.8790, 56683.00
876.0090, 56872.00
877.1390, 56797.00
878.2690, 57090.00
879.3990, 57088.00
880.5280, 57357.00
881.6580, 57287.00
882.7870, 57139.00
883.9160, 57416.00
885.0450, 57752.00
886.1740, 57574.00
887.3020, 57406.00
888.4310, 58009.00
889.5590, 57469.00
890.6870, 58060.00
891.8150, 58411.00
892.9430, 58109.00
894.0700, 58418.00
895.1980, 57964.00
896.3250, 58721.00
897.4520, 58579.00
898.5790, 58352.00
899.7060, 58400.00
900.8330, 58398.00
901.9590, 58586.00
903.0850, 58499.00
904.2120, 58700.00
905.3380, 58667.00
906.4630, 58555.00
907.5890, 58676.00
908.7150, 58688.00
909.8400, 58838.00
910.9650, 58509.00
912.0900, 59129.00
913.2150, 59163.00
914.3400, 58834.00
915.4640, 58844.00
916.5890, 59123.00
917.7130, 59108.00
918.8370, 59375.00
919.9610, 59535.00
921.0850, 59306.00
922.2080, 59467.00
923.3320, 59693.00
924.4550, 59319.00
925.5780, 59623.00
926.7010, 59207.00
927.8240, 59482.90
928.9460, 59569.63
930.0690, 59915.00
931.1910, 59839.00
932.3130, 59961.00
933.4350, 59956.00
934.5570, 60056.00
935.6790, 60107.00
936.8000, 60176.00
937.9220, 60288.00
939.0430, 60751.00
940.1640, 60495.30
941.2850, 60509.00
942.4050, 60190.00
943.5260, 60409.00
944.6460, 60311.00
945.7660, 60345.00
946.8860, 60339.00
948.0060, 60564.00
949.1260, 60752.00
950.2460, 60466.00
951.3650, 60689.40
952.4840, 60669.72
953.6030, 60791.00
954.7220, 60804.00
955.8410, 60898.00
956.9590, 61066.00
958.0780, 61417.00
959.1960, 61560.00
960.3140, 61483.00
961.4320, 61323.00
962.5500, 61732.00
963.6680, 61317.00
964.7850, 61253.00
965.9020, 61177.00
967.0190, 61523.00
968.1360, 61517.00
969.2530, 61579.00
970.3700, 61739.00
971.4860, 61789.00
972.6030, 62099.00
973.7190, 62087.71
974.8350, 62165.29
975.9510, 62071.00
977.0660, 62286.00
978.1820, 62083.00
979.2970, 62315.00
980.4130, 62702.00
981.5280, 62639.00
982.6420, 62842.00
983.7570, 63140.00
984.8720, 63037.00
985.9860, 62947.00
987.1000, 63013.00
988.2140, 63015.09
989.3280, 63171.00
990.4420, 63331.00
991.5560, 63292.00
992.6690, 63416.99
993.7820, 63570.00
994.8950, 63579.00
996.0080, 63645.39
997.1210, 63868.00
998.2340, 63888.40
999.3460, 63880.00
1000.458, 64058.00
1001.571, 64139.00
1002.683, 64194.00
1003.794, 64346.00
1004.906, 64601.00
1006.017, 64618.00
1007.129, 64706.36
1008.240, 64508.00
1009.351, 64936.00
1010.462, 64471.66
1011.572, 65021.74
1012.683, 65359.82
1013.793, 65497.18
1014.904, 64832.93
1016.014, 65203.80
1017.123, 65159.77
1018.233, 65098.78
1019.343, 65615.35
1020.452, 65067.59
1021.561, 65574.95
1022.670, 65661.11
1023.779, 65940.05
1024.888, 65801.57
1025.997, 65792.02
1027.105, 66199.95
1028.213, 66376.70
1029.321, 66190.10
1030.429, 66428.00
1031.537, 66949.00
1032.645, 67162.00
1033.752, 66927.00
1034.859, 67458.00
1035.966, 67885.00
1037.073, 67806.00
1038.180, 68515.00
1039.287, 68329.00
1040.393, 68013.00
1041.500, 67904.00
1042.606, 67874.00
1043.712, 67395.00
1044.818, 67044.00
1045.923, 67234.00
1047.029, 67050.00
1048.134, 67249.00
1049.239, 67114.00
1050.344, 67151.00
1051.449, 67213.00
1052.554, 67192.00
1053.658, 67156.00
1054.763, 67021.00
1055.867, 67133.00
1056.971, 67644.00
1058.075, 67407.51
1059.179, 67719.62
1060.282, 67321.00
1061.385, 67814.00
1062.489, 67848.00
1063.592, 67474.00
1064.695, 67952.00
1065.797, 67826.00
1066.900, 68180.00
1068.002, 67943.00
1069.105, 67940.00
1070.207, 68130.00
1071.309, 68028.00
1072.411, 68728.00
1073.512, 68340.00
1074.614, 68948.00
1075.715, 68878.00
1076.816, 69208.00
1077.917, 69233.00
1079.018, 69239.00
1080.118, 70326.00
1081.219, 70248.00
1082.319, 70956.00
1083.419, 71017.00
1084.519, 70985.00
1085.619, 71718.00
1086.719, 71878.00
1087.818, 72470.00
1088.918, 72748.00
1090.017, 72977.00
1091.116, 72993.00
1092.215, 72688.00
1093.314, 72560.00
1094.412, 72632.00
1095.510, 72861.00
1096.609, 72855.00
1097.707, 72900.00
1098.805, 73347.00
1099.902, 73259.00
1101.000, 73510.00
1102.097, 73849.00
1103.195, 73367.00
1104.292, 73711.00
1105.389, 73278.00
1106.485, 72947.00
1107.582, 72949.00
1108.678, 73376.00
1109.775, 72984.00
1110.871, 72793.00
1111.967, 72900.00
1113.062, 71913.00
1114.158, 72300.00
1115.254, 71682.00
1116.349, 72042.00
1117.444, 71854.00
1118.539, 71355.00
1119.634, 71492.00
1120.728, 71002.93
1121.823, 70951.00
1122.917, 70716.00
1124.011, 71081.00
1125.105, 70883.21
1126.199, 70821.00
1127.293, 70954.00
1128.386, 70876.59
1129.480, 70704.00
1130.573, 70962.00
1131.666, 70736.00
1132.759, 70776.00
1133.851, 70715.00
1134.944, 70887.00
1136.036, 71061.00
1137.129, 70608.00
1138.221, 71161.00
1139.313, 70796.00
1140.404, 70958.00
1141.496, 70903.00
1142.587, 70824.00
1143.678, 71254.00
1144.770, 71149.00
1145.860, 71347.00
1146.951, 71163.00
1148.042, 71277.00
1149.132, 71296.00
1150.223, 71141.00
1151.313, 71567.00
1152.403, 71467.00
1153.492, 71608.00
1154.582, 71963.00
1155.671, 71573.00
1156.761, 71993.00
1157.850, 71789.00
1158.939, 71666.00
1160.028, 71665.00
1161.116, 72302.00
1162.205, 72319.00
1163.293, 72131.00
1164.381, 72449.00
1165.469, 72292.00
1166.557, 72472.00
1167.645, 72085.00
1168.732, 72429.00
1169.820, 72543.00
1170.907, 72438.00
1171.994, 72730.00
1173.081, 73036.00
1174.167, 72987.00
1175.254, 72957.00
1176.340, 72653.00
1177.426, 73083.00
1178.512, 72986.00
1179.598, 73303.00
1180.684, 72876.00
1181.770, 73284.00
1182.855, 73618.00
1183.940, 73446.00
1185.025, 73187.00
1186.110, 73121.00
1187.195, 73321.00
1188.280, 73565.00
1189.364, 73602.00
1190.448, 73865.00
1191.532, 73409.00
1192.616, 73517.00
1193.700, 74358.00
1194.784, 73976.00
1195.867, 74143.00
1196.950, 73872.00
1198.034, 73755.00
1199.117, 74435.00
1200.199, 74589.00
1201.282, 74458.00
1202.364, 74598.26
1203.447, 74533.00
1204.529, 74451.00
1205.611, 74638.00
1206.693, 74886.00
1207.774, 74662.00
1208.856, 75182.00
1209.937, 74351.00
1211.018, 74791.00
1212.099, 74775.00
1213.180, 74851.00
1214.261, 75179.00
1215.341, 75158.00
1216.422, 75618.00
1217.502, 75478.00
1218.582, 75391.00
1219.662, 75736.00
1220.742, 75052.00
1221.821, 76000.00
1222.900, 75511.00
1223.980, 75869.00
1225.059, 75889.00
1226.138, 75677.00
1227.216, 76035.00
1228.295, 75689.00
1229.373, 75735.00
1230.452, 75925.00
1231.530, 75668.00
1232.608, 75913.70
1233.685, 76285.00
1234.763, 76225.00
1235.840, 76366.00
1236.918, 76609.00
1237.995, 76509.00
1239.072, 76672.00
1240.149, 76962.00
1241.225, 76910.00
1242.302, 77088.00
1243.378, 77038.00
1244.454, 77221.00
1245.530, 77369.00
1246.606, 77117.00
1247.681, 77694.00
1248.757, 77314.00
1249.832, 77159.00
1250.907, 77891.00
1251.982, 78091.00
1253.057, 77767.00
1254.132, 77442.00
1255.206, 77134.00
1256.281, 77880.00
1257.355, 78231.00
1258.429, 78398.00
1259.503, 78131.00
1260.576, 77672.00
1261.650, 78312.00
1262.723, 77876.00
1263.797, 78394.00
1264.870, 78227.00
1265.942, 78283.00
1267.015, 78996.00
1268.088, 78601.00
1269.160, 78967.00
1270.232, 78355.00
1271.304, 78449.00
1272.376, 78978.00
1273.448, 78825.00
1274.520, 79005.00
1275.591, 78691.00
1276.662, 78982.00
1277.733, 79129.00
1278.804, 79230.00
1279.875, 79181.00
1280.946, 79171.00
1282.016, 79382.00
1283.086, 79499.00
1284.156, 79491.00
1285.226, 79452.26
1286.296, 79999.89
1287.366, 80335.46
1288.435, 80470.31
1289.505, 79803.55
1290.574, 80171.92
1291.643, 80125.44
1292.711, 80061.89
1293.780, 80575.95
1294.849, 80025.74
1295.917, 80530.59
1296.985, 80614.25
1298.053, 80890.68
1299.121, 80749.70
1300.189, 80737.63
1301.256, 81143.06
1302.323, 81317.30
1303.391, 81128.26
1304.458, 81416.88
1305.524, 80851.91
1306.591, 81035.98
1307.658, 81543.21
1308.724, 81375.05
1309.790, 81671.25
1310.856, 81790.58
1311.922, 81106.19
1312.988, 81819.57
1314.053, 81928.40
1315.119, 81416.61
1316.184, 82082.03
1317.249, 81655.75
1318.314, 81619.14
1319.379, 81875.79
1320.443, 81826.66
1321.508, 82259.59
1322.572, 82228.12
1323.636, 82155.16
1324.700, 82263.26
1325.764, 82204.35
1326.827, 82405.10
1327.891, 82301.80
1328.954, 82521.60
1330.017, 82814.66
1331.080, 82546.84
1332.143, 82872.80
1333.205, 82277.88
1334.268, 82453.52
1335.330, 82546.12
1336.392, 83131.20
1337.454, 82540.77
1338.516, 82694.94
1339.578, 83166.15
1340.639, 82884.00
1341.701, 83052.00
1342.762, 83285.00
1343.823, 83181.00
1344.883, 83435.00
1345.944, 83282.00
1347.005, 83588.00
1348.065, 84070.00
1349.125, 83954.00
1350.185, 84098.00
1351.245, 83943.00
1352.305, 84254.00
1353.364, 84284.00
1354.424, 83701.00
1355.483, 84328.00
1356.542, 84229.00
1357.601, 84155.00
1358.659, 84625.00
1359.718, 84351.00
1360.776, 84747.00
1361.834, 84427.00
1362.893, 84650.00
1363.950, 84644.00
1365.008, 84433.00
1366.066, 84812.00
1367.123, 84597.00
1368.180, 84806.00
1369.237, 85111.00
1370.294, 84839.00
1371.351, 85594.00
1372.408, 85159.00
1373.464, 85540.00
1374.520, 85803.00
1375.576, 85135.00
1376.632, 85619.00
1377.688, 84927.00
1378.744, 85430.00
1379.799, 85650.00
1380.854, 85233.00
1381.910, 86030.00
1382.965, 85410.00
1384.019, 85904.00
1385.074, 85295.00
1386.128, 85670.00
1387.183, 86197.00
1388.237, 85753.00
1389.291, 85969.00
1390.345, 86372.00
1391.398, 86011.00
1392.452, 86823.00
1393.505, 86356.00
1394.558, 86652.00
1395.611, 86411.00
1396.664, 86739.00
1397.717, 86966.00
1398.769, 86403.00
1399.822, 87267.00
1400.874, 86762.00
1401.926, 86672.52
1402.978, 87219.70
1404.029, 87554.77
1405.081, 87689.23
1406.132, 87021.97
1407.183, 87389.89
1408.234, 87342.96
1409.285, 87279.02
1410.336, 87792.64
1411.387, 87241.98
1412.437, 87746.38
1413.487, 87829.59
1414.537, 88105.58
1415.587, 87964.14
1416.637, 87951.63
1417.686, 88356.62
1418.736, 88530.45
1419.785, 88340.91
1420.834, 88629.09
1421.883, 88063.73
1422.932, 88247.36
1423.980, 88754.09
1425.029, 88585.53
1426.077, 88881.27
1427.125, 89000.16
1428.173, 88315.32
1429.221, 89028.25
1430.269, 89136.70
1431.316, 88624.40
1432.363, 89289.38
1433.410, 88862.64
1434.457, 88825.59
1435.504, 89081.78
1436.551, 89032.27
1437.597, 89464.69
1438.644, 89432.83
1439.690, 89359.42
1440.736, 89467.06
1441.781, 89407.70
1442.827, 89608.01
1443.873, 89504.26
1444.918, 89723.61
1445.963, 90016.22
1447.008, 89747.95
1448.053, 90073.47
1449.098, 89478.16
1450.142, 89653.27
1451.186, 89745.43
1452.231, 90330.12
1453.275, 89739.25
1454.319, 89892.96
1455.362, 90363.66
1456.406, 90390.80
1457.449, 90603.36
1458.492, 90266.83
1459.535, 90446.13
1460.578, 90483.24
1461.621, 91011.68
1462.663, 91152.18
1463.706, 90824.97
1464.748, 90499.69
1465.790, 91063.41
1466.832, 90784.52
1467.874, 90960.22
1468.915, 90666.37
1469.957, 90777.94
1470.998, 90883.02
1472.039, 91195.91
1473.080, 90878.68
1474.121, 91378.82
1475.161, 91423.00
1476.202, 91762.00
1477.242, 91402.00
1478.282, 92302.00
1479.322, 92151.00
1480.362, 91871.00
1481.401, 92441.00
1482.441, 91942.00
1483.480, 92284.00
1484.519, 92358.00
1485.558, 92387.00
1486.597, 92784.00
1487.636, 92510.00
1488.674, 92269.00
1489.712, 92273.00
1490.751, 92809.00
1491.788, 92705.00
1492.826, 92149.00
1493.864, 92857.00
1494.901, 92897.00
1495.939, 92684.00
1496.976, 93083.00
1498.013, 92640.00
1499.050, 93254.00
1500.086, 93287.00
1501.123, 93248.00
1502.159, 93363.00
1503.195, 93104.00
1504.231, 93688.00
1505.267, 93906.00
1506.303, 93853.00
1507.338, 93954.00
1508.374, 93887.00
1509.409, 93930.00
1510.444, 93645.00
1511.479, 94284.00
1512.514, 94560.00
1513.548, 94226.00
1514.583, 94753.00
1515.617, 94489.00
1516.651, 94123.00
1517.685, 95224.00
1518.718, 95004.00
1519.752, 94860.00
1520.785, 94769.00
1521.819, 95144.00
1522.852, 95378.00
1523.885, 94794.00
1524.917, 95207.00
1525.950, 95155.00
1526.982, 95098.00
1528.015, 95602.00
1529.047, 95007.00
1530.079, 95593.00
1531.110, 95932.00
1532.142, 95407.00
1533.173, 95568.00
1534.205, 95201.00
1535.236, 95695.00
1536.267, 96002.00
1537.298, 96101.00
1538.328, 96133.00
1539.359, 96118.00
1540.389, 96051.00
1541.419, 96483.00
1542.449, 95846.00
1543.479, 96528.00
1544.508, 95742.00
1545.538, 96115.00
1546.567, 96543.00
1547.596, 96066.00
1548.625, 96361.00
1549.654, 96315.00
1550.683, 96180.00
1551.711, 96844.00
1552.740, 97010.00
1553.768, 97317.00
1554.796, 96785.00
1555.824, 97652.00
1556.851, 97396.00
1557.879, 97086.00
1558.906, 97454.00
1559.933, 96717.00
1560.960, 96913.00
1561.987, 97371.00
1563.014, 97249.00
1564.041, 97169.00
1565.067, 97190.00
1566.093, 97090.00
1567.119, 97184.50
1568.145, 97387.00
1569.171, 97330.00
1570.196, 97824.00
1571.222, 97845.00
1572.247, 98225.00
1573.272, 97771.00
1574.297, 97817.00
1575.322, 98091.00
1576.346, 98171.00
1577.371, 98676.00
1578.395, 97610.00
##END=



