##NAMES=Fluorapatite
##RRUFFID=R060070
##IDEAL CHEMISTRY=Ca_5_(PO_4_)_3_F
##LOCALITY=Panasqueira, Portugal
##OWNER=RRUFF
##SOURCE=Dave Bunk
##DESCRIPTION=Green hexagonal tablet
##STATUS=The identification of this mineral has been confirmed by X-ray diffraction and chemical analysis
##URL=rruff.info/R060070
##MEASURED CHEMISTRY=(Ca_0.99_Mn_0.01_)_5_(P_1.00_O_4_)_3_F_1.00_
##PIN_ID=L01870
##ORIENTATION=Laser parallel to -c* (0 0 -1). Fiducial mark perpendicular to laser is parallel to -a [-1 0 0]
127.9790, 4022.000
129.2090, 3912.000
130.4390, 3986.000
131.6680, 3981.000
132.8980, 4025.000
134.1270, 4088.000
135.3560, 4179.000
136.5850, 4169.000
137.8140, 4189.000
139.0430, 4188.000
140.2710, 4241.000
141.5000, 4255.244
142.7280, 4317.000
143.9560, 4321.000
145.1840, 4305.000
146.4120, 4350.000
147.6390, 4395.000
148.8670, 4390.000
150.0940, 4389.000
151.3210, 4426.000
152.5490, 4477.000
153.7750, 4461.000
155.0020, 4466.000
156.2290, 4501.000
157.4550, 4502.000
158.6810, 4528.771
159.9080, 4553.875
161.1340, 4570.000
162.3590, 4596.000
163.5850, 4606.000
164.8110, 4603.000
166.0360, 4662.000
167.2610, 4613.000
168.4860, 4609.000
169.7110, 4623.117
170.9360, 4712.000
172.1610, 4644.000
173.3850, 4702.000
174.6100, 4750.000
175.8340, 4733.000
177.0580, 4730.000
178.2820, 4784.000
179.5050, 4768.386
180.7290, 4862.000
181.9520, 4802.000
183.1760, 4856.000
184.3990, 4912.000
185.6220, 4919.000
186.8450, 4924.000
188.0670, 4908.000
189.2900, 4915.000
190.5120, 4927.427
191.7340, 4943.137
192.9560, 4978.000
194.1780, 4990.000
195.4000, 5048.000
196.6220, 5061.000
197.8430, 5062.000
199.0640, 5055.000
200.2860, 5113.000
201.5070, 5099.000
202.7270, 5129.000
203.9480, 5193.000
205.1690, 5184.000
206.3890, 5177.000
207.6090, 5247.000
208.8290, 5235.000
210.0490, 5267.000
211.2690, 5325.000
212.4890, 5347.000
213.7080, 5330.000
214.9280, 5264.000
216.1470, 5288.000
217.3660, 5310.000
218.5850, 5336.000
219.8030, 5339.000
221.0220, 5362.000
222.2400, 5429.000
223.4590, 5493.000
224.6770, 5509.000
225.8950, 5491.000
227.1120, 5522.000
228.3300, 5590.000
229.5480, 5537.000
230.7650, 5604.000
231.9820, 5645.000
233.1990, 5625.000
234.4160, 5585.000
235.6330, 5703.000
236.8490, 5631.000
238.0660, 5764.000
239.2820, 5735.000
240.4980, 5823.000
241.7140, 5840.000
242.9300, 5777.000
244.1460, 5740.000
245.3610, 5789.000
246.5770, 5841.000
247.7920, 5894.000
249.0070, 5826.000
250.2220, 5819.000
251.4370, 5988.000
252.6510, 5898.000
253.8660, 5966.000
255.0800, 5954.000
256.2940, 5977.000
257.5080, 6016.000
258.7220, 6050.000
259.9360, 6057.994
261.1490, 6088.000
262.3630, 6085.000
263.5760, 6081.000
264.7890, 6119.000
266.0020, 6129.372
267.2150, 6141.000
268.4270, 6183.000
269.6400, 6164.000
270.8520, 6184.379
272.0640, 6224.468
273.2760, 6261.000
274.4880, 6279.000
275.7000, 6321.000
276.9120, 6286.000
278.1230, 6304.000
279.3340, 6333.474
280.5450, 6386.000
281.7560, 6409.000
282.9670, 6426.000
284.1780, 6489.000
285.3880, 6530.000
286.5980, 6558.000
287.8090, 6591.906
289.0190, 6598.000
290.2290, 6623.000
291.4380, 6623.000
292.6480, 6614.000
293.8570, 6586.000
295.0670, 6656.000
296.2760, 6629.000
297.4850, 6686.000
298.6930, 6737.000
299.9020, 6723.000
301.1110, 6725.000
302.3190, 6750.000
303.5270, 6764.000
304.7350, 6871.000
305.9430, 6887.000
307.1510, 6885.000
308.3580, 6860.000
309.5660, 6962.000
310.7730, 6891.000
311.9800, 6917.000
313.1870, 6967.000
314.3940, 6907.000
315.6010, 7096.000
316.8070, 7051.000
318.0130, 7080.000
319.2200, 7095.000
320.4260, 7114.000
321.6310, 7140.000
322.8370, 7274.000
324.0430, 7110.000
325.2480, 7201.000
326.4540, 7404.000
327.6590, 7175.000
328.8640, 7276.000
330.0680, 7376.000
331.2730, 7312.000
332.4780, 7342.000
333.6820, 7373.000
334.8860, 7465.000
336.0900, 7422.000
337.2940, 7504.000
338.4980, 7379.000
339.7010, 7465.000
340.9050, 7559.000
342.1080, 7479.000
343.3110, 7537.000
344.5140, 7551.000
345.7170, 7593.000
346.9200, 7649.000
348.1220, 7642.000
349.3240, 7676.000
350.5270, 7696.000
351.7290, 7753.020
352.9310, 7738.000
354.1320, 7845.000
355.3340, 7867.000
356.5350, 7813.000
357.7370, 7794.000
358.9380, 7895.000
360.1390, 7884.000
361.3400, 7865.000
362.5400, 7876.000
363.7410, 7951.000
364.9410, 7937.084
366.1410, 8084.000
367.3410, 8000.000
368.5410, 8052.000
369.7410, 8150.000
370.9400, 8047.000
372.1400, 8052.000
373.3390, 8186.000
374.5380, 8244.000
375.7370, 8270.000
376.9360, 8324.000
378.1350, 8336.264
379.3330, 8394.000
380.5310, 8355.000
381.7300, 8345.000
382.9280, 8349.000
384.1260, 8423.000
385.3230, 8563.000
386.5210, 8471.000
387.7180, 8380.000
388.9160, 8543.000
390.1130, 8476.000
391.3100, 8530.000
392.5060, 8613.000
393.7030, 8631.000
394.9000, 8677.629
396.0960, 8669.000
397.2920, 8745.000
398.4880, 8761.000
399.6840, 8819.572
400.8800, 8804.000
402.0750, 8871.000
403.2710, 8874.775
404.4660, 8948.000
405.6610, 8899.000
406.8560, 8884.000
408.0510, 8894.000
409.2450, 9071.000
410.4400, 9087.000
411.6340, 9034.000
412.8280, 9144.000
414.0220, 8948.000
415.2160, 9046.000
416.4100, 9023.000
417.6030, 9290.000
418.7970, 9127.000
419.9900, 9356.000
421.1830, 9281.000
422.3760, 9312.000
423.5690, 9263.000
424.7610, 9322.000
425.9540, 9421.000
427.1460, 9353.000
428.3380, 9361.000
429.5300, 9404.000
430.7220, 9523.000
431.9140, 9532.000
433.1050, 9528.000
434.2970, 9425.000
435.4880, 9705.000
436.6790, 9602.000
437.8700, 9693.000
439.0610, 9616.000
440.2510, 9738.000
441.4420, 9694.000
442.6320, 9667.000
443.8220, 9776.000
445.0120, 9796.000
446.2020, 9850.000
447.3910, 10017.00
448.5810, 9949.000
449.7700, 9988.000
450.9600, 10093.00
452.1490, 10000.00
453.3370, 9993.000
454.5260, 10195.00
455.7150, 10114.00
456.9030, 10112.00
458.0910, 10210.00
459.2800, 10249.00
460.4670, 10286.00
461.6550, 10268.00
462.8430, 10329.00
464.0300, 10232.00
465.2180, 10457.00
466.4050, 10378.00
467.5920, 10461.00
468.7790, 10389.00
469.9650, 10462.00
471.1520, 10477.00
472.3380, 10614.00
473.5250, 10575.00
474.7110, 10665.00
475.8970, 10717.72
477.0820, 10729.00
478.2680, 10795.00
479.4540, 10832.00
480.6390, 10806.00
481.8240, 10832.00
483.0090, 10805.00
484.1940, 10830.00
485.3780, 10903.00
486.5630, 11004.00
487.7470, 10969.00
488.9320, 11032.00
490.1160, 10952.00
491.3000, 11067.00
492.4830, 11172.00
493.6670, 11320.00
494.8500, 11231.00
496.0340, 11154.00
497.2170, 11217.00
498.4000, 11242.00
499.5820, 11286.00
500.7650, 11273.00
501.9480, 11333.00
503.1300, 11373.00
504.3120, 11414.00
505.4940, 11513.00
506.6760, 11408.00
507.8580, 11483.00
509.0390, 11549.00
510.2210, 11372.00
511.4020, 11605.00
512.5830, 11551.00
513.7640, 11690.00
514.9450, 11562.00
516.1250, 11874.00
517.3060, 11875.00
518.4860, 11773.00
519.6660, 11877.00
520.8460, 11804.00
522.0260, 11794.00
523.2060, 11877.00
524.3850, 11990.00
525.5650, 11998.91
526.7440, 11930.00
527.9230, 12058.00
529.1020, 12150.00
530.2810, 12132.00
531.4590, 12259.00
532.6380, 12218.00
533.8160, 12304.00
534.9940, 12353.00
536.1720, 12276.00
537.3500, 12280.00
538.5270, 12345.00
539.7050, 12453.00
540.8820, 12435.00
542.0590, 12439.00
543.2360, 12477.00
544.4130, 12748.00
545.5900, 12536.00
546.7660, 12765.00
547.9430, 12506.00
549.1190, 12712.00
550.2950, 12726.00
551.4710, 12809.00
552.6470, 12975.00
553.8220, 12834.00
554.9980, 12952.00
556.1730, 13146.00
557.3480, 12855.00
558.5230, 12911.00
559.6980, 13051.00
560.8730, 13168.00
562.0470, 13132.00
563.2220, 13186.00
564.3960, 13154.00
565.5700, 13186.00
566.7440, 13323.00
567.9170, 13198.00
569.0910, 13255.00
570.2640, 13529.00
571.4380, 13573.00
572.6110, 13547.00
573.7840, 13529.00
574.9570, 13587.00
576.1290, 13691.00
577.3020, 13698.00
578.4740, 13793.00
579.6460, 13779.00
580.8180, 13858.00
581.9900, 13831.00
583.1620, 13718.00
584.3330, 13966.00
585.5040, 13895.00
586.6760, 14033.00
587.8470, 13977.00
589.0180, 14041.00
590.1880, 14031.00
591.3590, 14075.48
592.5290, 14142.00
593.7000, 14206.00
594.8700, 14239.03
596.0400, 14348.00
597.2090, 14241.00
598.3790, 14352.00
599.5490, 14332.00
600.7180, 14415.00
601.8870, 14392.00
603.0560, 14490.00
604.2250, 14601.00
605.3940, 14587.00
606.5620, 14711.00
607.7300, 14703.00
608.8990, 14697.00
610.0670, 14637.00
611.2350, 14819.00
612.4020, 14810.00
613.5700, 14729.00
614.7370, 14954.00
615.9050, 14964.00
617.0720, 15060.00
618.2390, 15038.00
619.4060, 15161.00
620.5720, 14997.00
621.7390, 15201.00
622.9050, 15070.00
624.0710, 15212.00
625.2370, 15099.00
626.4030, 15290.00
627.5690, 15369.00
628.7340, 15413.00
629.9000, 15552.00
631.0650, 15465.00
632.2300, 15356.00
633.3950, 15457.00
634.5600, 15423.00
635.7240, 15510.00
636.8890, 15728.00
638.0530, 15640.00
639.2170, 15760.00
640.3810, 15879.00
641.5450, 15864.00
642.7080, 15865.00
643.8720, 15912.00
645.0350, 15887.00
646.1980, 15983.00
647.3610, 15953.00
648.5240, 16090.00
649.6870, 16147.00
650.8490, 16184.00
652.0120, 16249.33
653.1740, 16290.28
654.3360, 16303.00
655.4980, 16391.00
656.6600, 16399.00
657.8210, 16468.00
658.9830, 16424.00
660.1440, 16614.00
661.3050, 16691.00
662.4660, 16689.00
663.6270, 16623.00
664.7870, 16760.00
665.9480, 16747.00
667.1080, 16865.00
668.2680, 16979.00
669.4280, 16841.00
670.5880, 16804.00
671.7480, 16956.00
672.9070, 16986.00
674.0670, 16977.00
675.2260, 17063.00
676.3850, 17097.78
677.5440, 17219.00
678.7030, 17210.00
679.8610, 17275.00
681.0200, 17304.00
682.1780, 17321.00
683.3360, 17604.00
684.4940, 17540.00
685.6520, 17624.00
686.8090, 17572.00
687.9670, 17591.00
689.1240, 17690.00
690.2810, 17788.00
691.4380, 17693.00
692.5950, 17770.00
693.7520, 17808.00
694.9080, 17895.00
696.0650, 18027.00
697.2210, 18044.32
698.3770, 18082.00
699.5330, 18074.00
700.6880, 18202.00
701.8440, 18110.00
702.9990, 18296.00
704.1550, 18135.00
705.3100, 18229.00
706.4650, 18231.00
707.6190, 18387.00
708.7740, 18409.00
709.9290, 18477.71
711.0830, 18544.00
712.2370, 18584.00
713.3910, 18581.00
714.5450, 18602.00
715.6980, 18550.00
716.8520, 18760.00
718.0050, 18846.00
719.1580, 18850.00
720.3110, 19067.00
721.4640, 18872.00
722.6170, 19060.00
723.7700, 19263.00
724.9220, 19010.00
726.0740, 18966.00
727.2260, 19385.00
728.3780, 19371.00
729.5300, 19344.00
730.6810, 19317.00
731.8330, 19306.00
732.9840, 19425.00
734.1350, 19409.00
735.2860, 19403.00
736.4370, 19365.00
737.5880, 19703.00
738.7380, 19707.00
739.8880, 19910.00
741.0390, 19836.00
742.1890, 19896.00
743.3380, 20012.00
744.4880, 19892.00
745.6380, 19960.00
746.7870, 19907.00
747.9360, 20010.00
749.0850, 20030.00
750.2340, 20049.11
751.3830, 20050.00
752.5310, 20103.00
753.6800, 20301.00
754.8280, 20330.00
755.9760, 20401.00
757.1240, 20495.00
758.2720, 20449.00
759.4190, 20523.00
760.5670, 20564.00
761.7140, 20604.00
762.8610, 20850.00
764.0080, 20593.00
765.1550, 20858.00
766.3020, 20942.00
767.4480, 20832.00
768.5950, 20927.00
769.7410, 21122.00
770.8870, 21046.00
772.0330, 21213.00
773.1780, 21141.00
774.3240, 21183.55
775.4690, 21392.00
776.6140, 21220.00
777.7590, 21295.00
778.9040, 21313.00
780.0490, 21674.00
781.1940, 21552.00
782.3380, 21525.00
783.4820, 21419.00
784.6260, 21750.00
785.7700, 21670.00
786.9140, 21864.00
788.0580, 21755.00
789.2010, 21935.00
790.3450, 21953.00
791.4880, 21878.00
792.6310, 22031.00
793.7730, 22103.00
794.9160, 22146.00
796.0590, 22138.00
797.2010, 22223.51
798.3430, 22183.00
799.4850, 22340.00
800.6270, 22419.00
801.7690, 22461.00
802.9100, 22556.00
804.0520, 22638.00
805.1930, 22509.00
806.3340, 22644.00
807.4750, 22710.00
808.6160, 22791.00
809.7560, 22899.00
810.8970, 22995.00
812.0370, 22862.00
813.1770, 22815.00
814.3170, 23115.00
815.4570, 23103.00
816.5960, 23412.00
817.7360, 23200.00
818.8750, 23302.00
820.0140, 23372.00
821.1530, 23287.00
822.2920, 23233.00
823.4310, 23499.00
824.5690, 23456.00
825.7070, 23452.00
826.8460, 23589.00
827.9840, 23601.00
829.1220, 23619.00
830.2590, 23701.00
831.3970, 23699.00
832.5340, 23751.27
833.6710, 23850.00
834.8080, 23849.00
835.9450, 24005.00
837.0820, 24107.00
838.2190, 24164.00
839.3550, 24163.00
840.4910, 24161.00
841.6270, 24360.00
842.7630, 24374.00
843.8990, 24458.00
845.0350, 24734.00
846.1700, 24381.00
847.3060, 24745.00
848.4410, 24714.00
849.5760, 24901.00
850.7100, 24887.00
851.8450, 24842.00
852.9800, 25004.00
854.1140, 24961.00
855.2480, 25125.00
856.3820, 24995.00
857.5160, 25204.00
858.6500, 25133.00
859.7830, 25342.00
860.9170, 25310.00
862.0500, 25359.00
863.1830, 25288.00
864.3160, 25467.00
865.4480, 25487.00
866.5810, 25669.00
867.7130, 25777.00
868.8460, 25684.00
869.9780, 25693.00
871.1100, 25664.00
872.2410, 25995.00
873.3730, 25812.00
874.5050, 26028.00
875.6360, 25911.00
876.7670, 25993.00
877.8980, 26123.00
879.0290, 26128.00
880.1590, 26176.00
881.2900, 26221.00
882.4200, 26577.00
883.5500, 26471.00
884.6800, 26363.00
885.8100, 26382.00
886.9400, 26794.00
888.0690, 26765.00
889.1990, 26625.00
890.3280, 26823.00
891.4570, 26694.00
892.5860, 26846.00
893.7140, 26868.00
894.8430, 27051.00
895.9710, 27081.00
897.1000, 27214.00
898.2280, 27171.00
899.3560, 27160.00
900.4830, 27370.00
901.6110, 27162.00
902.7380, 27525.00
903.8660, 27517.00
904.9930, 27679.00
906.1200, 27680.00
907.2460, 27616.00
908.3730, 27635.00
909.5000, 27604.00
910.6260, 27681.00
911.7520, 27886.00
912.8780, 27892.00
914.0040, 28018.00
915.1290, 28071.00
916.2550, 28101.00
917.3800, 28219.00
918.5050, 28096.00
919.6300, 28169.00
920.7550, 28318.00
921.8800, 28490.00
923.0040, 28386.00
924.1290, 28499.00
925.2530, 28517.00
926.3770, 28629.00
927.5010, 28704.00
928.6250, 28723.00
929.7480, 28835.00
930.8720, 29157.00
931.9950, 29156.00
933.1180, 29132.00
934.2410, 28905.00
935.3640, 29223.00
936.4860, 28979.00
937.6090, 28964.00
938.7310, 29337.00
939.8530, 29619.00
940.9750, 29571.00
942.0970, 29413.00
943.2180, 29520.00
944.3400, 29601.00
945.4610, 29718.00
946.5820, 29768.00
947.7030, 29885.00
948.8240, 29876.00
949.9450, 29850.00
951.0650, 29959.00
952.1860, 30327.00
953.3060, 30127.00
954.4260, 30125.00
955.5460, 30402.00
956.6650, 30251.00
957.7850, 30499.00
958.9040, 30584.00
960.0230, 30814.00
961.1420, 31128.00
962.2610, 31235.00
963.3800, 31545.00
964.4990, 31578.21
965.6170, 31776.00
966.7350, 31567.00
967.8530, 31492.00
968.9710, 31325.00
970.0890, 31435.00
971.2070, 31438.00
972.3240, 31124.00
973.4410, 31242.00
974.5580, 31345.00
975.6750, 31429.00
976.7920, 31279.00
977.9090, 31454.00
979.0250, 31538.00
980.1410, 31471.00
981.2580, 31813.00
982.3740, 31591.00
983.4890, 32001.00
984.6050, 31772.00
985.7200, 31998.00
986.8360, 31729.00
987.9510, 32037.00
989.0660, 32119.00
990.1810, 32045.00
991.2950, 32267.00
992.4100, 32172.00
993.5240, 32300.00
994.6390, 32432.00
995.7530, 32447.00
996.8660, 32453.00
997.9800, 32538.75
999.0940, 32574.20
1000.207, 32640.00
1001.320, 32703.00
1002.433, 32747.01
1003.546, 32804.00
1004.659, 32948.00
1005.772, 32995.00
1006.884, 33114.00
1007.996, 33034.00
1009.108, 33247.00
1010.220, 32951.00
1011.332, 33430.00
1012.444, 33305.00
1013.555, 33579.00
1014.666, 33491.00
1015.777, 33560.00
1016.888, 33392.00
1017.999, 33788.00
1019.110, 33712.00
1020.220, 33813.00
1021.331, 33761.00
1022.441, 33786.00
1023.551, 34036.00
1024.661, 34025.00
1025.770, 34189.00
1026.880, 34140.00
1027.989, 34258.00
1029.098, 34357.00
1030.207, 34366.00
1031.316, 34411.00
1032.425, 34504.00
1033.533, 34506.00
1034.642, 34557.00
1035.750, 34638.00
1036.858, 34614.00
1037.966, 34716.48
1039.073, 34788.00
1040.181, 34882.00
1041.288, 34945.00
1042.396, 35054.00
1043.503, 35073.00
1044.610, 34950.00
1045.716, 35154.00
1046.823, 35125.00
1047.929, 35377.00
1049.036, 35418.00
1050.142, 35569.00
1051.248, 35528.00
1052.353, 35629.00
1053.459, 35711.00
1054.564, 35739.00
1055.670, 35891.00
1056.775, 35974.00
1057.880, 35967.00
1058.985, 35954.00
1060.089, 36175.00
1061.194, 36088.00
1062.298, 36070.00
1063.402, 36530.00
1064.506, 36356.00
1065.610, 36433.00
1066.713, 36572.00
1067.817, 36267.00
1068.920, 36535.00
1070.023, 36629.00
1071.126, 36601.00
1072.229, 36896.00
1073.332, 36732.00
1074.435, 36822.00
1075.537, 36980.00
1076.639, 37066.00
1077.741, 37198.00
1078.843, 37270.00
1079.945, 37084.00
1081.046, 37326.00
1082.148, 37126.00
1083.249, 37304.00
1084.350, 37411.00
1085.451, 37469.00
1086.551, 37693.00
1087.652, 37601.00
1088.752, 37544.00
1089.853, 37679.00
1090.953, 37803.00
1092.053, 37962.00
1093.152, 37959.00
1094.252, 37830.00
1095.351, 38045.00
1096.451, 38272.00
1097.550, 38030.00
1098.649, 38213.00
1099.748, 38307.00
1100.846, 38413.00
1101.945, 38660.00
1103.043, 38279.00
1104.141, 38390.00
1105.239, 38427.00
1106.337, 38762.00
1107.434, 38713.00
1108.532, 38749.00
1109.629, 38777.00
1110.726, 38873.00
1111.823, 38996.00
1112.920, 38918.00
1114.017, 39111.43
1115.113, 39150.78
1116.210, 39317.00
1117.306, 39367.00
1118.402, 39316.00
1119.498, 39500.00
1120.593, 39389.00
1121.689, 39641.00
1122.784, 39596.00
1123.879, 39883.00
1124.974, 39943.00
1126.069, 39575.00
1127.164, 39891.00
1128.259, 39874.00
1129.353, 39995.00
1130.447, 40113.00
1131.541, 40328.00
1132.635, 40249.00
1133.729, 40194.00
1134.822, 40418.00
1135.916, 40709.00
1137.009, 40361.00
1138.102, 40742.00
1139.195, 40625.00
1140.288, 40571.00
1141.380, 40610.00
1142.473, 40637.63
1143.565, 40638.00
1144.657, 40880.00
1145.749, 40995.00
1146.841, 41237.00
1147.932, 41223.00
1149.024, 41405.00
1150.115, 41348.00
1151.206, 41481.00
1152.297, 41518.22
1153.388, 41262.00
1154.479, 41513.00
1155.569, 41734.00
1156.659, 41565.00
1157.750, 41762.00
1158.839, 41795.00
1159.929, 41799.00
1161.019, 41901.00
1162.108, 41953.59
1163.198, 42085.89
1164.287, 42111.00
1165.376, 42289.00
1166.465, 42347.00
1167.553, 42231.00
1168.642, 42432.00
1169.730, 42266.00
1170.818, 42577.00
1171.906, 42359.00
1172.994, 42654.00
1174.082, 42404.00
1175.170, 42777.00
1176.257, 42707.00
1177.344, 43059.00
1178.431, 42784.00
1179.518, 42831.00
1180.605, 43246.00
1181.691, 42997.00
1182.778, 43207.00
1183.864, 43313.00
1184.950, 43489.00
1186.036, 43539.31
1187.122, 43532.00
1188.207, 43573.00
1189.292, 43428.00
1190.378, 43354.00
1191.463, 43768.00
1192.548, 43341.00
1193.632, 43838.00
1194.717, 43990.00
1195.801, 43861.00
1196.886, 43966.00
1197.970, 43940.00
1199.054, 43946.00
1200.137, 44052.00
1201.221, 44243.00
1202.305, 44338.00
1203.388, 44480.00
1204.471, 44594.00
1205.554, 44453.00
1206.637, 44513.00
1207.719, 44397.00
1208.802, 44496.10
1209.884, 44598.00
1210.966, 44761.00
1212.048, 44855.00
1213.130, 45100.00
1214.212, 44864.00
1215.293, 45245.00
1216.374, 45070.00
1217.456, 44975.00
1218.536, 45195.00
1219.617, 45257.00
1220.698, 45527.00
1221.778, 45323.00
1222.859, 45340.00
1223.939, 45587.00
1225.019, 45753.00
1226.099, 45838.00
1227.178, 45494.00
1228.258, 45593.00
1229.337, 45692.00
1230.417, 45722.00
1231.496, 46018.00
1232.574, 46000.00
1233.653, 45936.00
1234.732, 46599.00
1235.810, 46016.00
1236.888, 46212.00
1237.966, 46468.00
1239.044, 46362.00
1240.122, 46787.00
1241.199, 46726.00
1242.277, 46546.00
1243.354, 46827.00
1244.431, 46919.00
1245.508, 46594.00
1246.585, 46497.00
1247.661, 46872.00
1248.738, 47010.00
1249.814, 46987.00
1250.890, 47193.00
1251.966, 47353.00
1253.042, 47045.00
1254.117, 47184.00
1255.193, 47136.00
1256.268, 47256.00
1257.343, 47467.00
1258.418, 47564.00
1259.493, 47728.34
1260.567, 47643.00
1261.642, 47893.00
1262.716, 47849.00
1263.790, 47640.00
1264.864, 47884.00
1265.938, 47897.00
1267.011, 47834.00
1268.085, 47914.00
1269.158, 48018.00
1270.231, 47728.00
1271.304, 48134.00
1272.377, 47895.00
1273.450, 48121.00
1274.522, 48354.00
1275.594, 48243.00
1276.666, 48335.00
1277.738, 48720.00
1278.810, 48610.00
1279.882, 48621.00
1280.953, 48775.00
1282.025, 48663.00
1283.096, 48740.00
1284.167, 49054.00
1285.238, 49064.00
1286.308, 48717.00
1287.379, 48736.00
1288.449, 49160.00
1289.519, 48758.00
1290.589, 49094.00
1291.659, 49294.00
1292.729, 49321.00
1293.798, 49035.00
1294.868, 49520.00
1295.937, 49276.00
1297.006, 49322.00
1298.075, 49800.00
1299.143, 49522.00
1300.212, 49371.00
1301.280, 49697.00
1302.348, 49937.00
1303.416, 49956.00
1304.484, 50022.00
1305.552, 49951.00
1306.620, 49902.00
1307.687, 50067.00
1308.754, 50036.00
1309.821, 50039.00
1310.888, 50147.07
1311.955, 50159.61
1313.021, 50281.00
1314.088, 50302.00
1315.154, 50339.00
1316.220, 50438.73
1317.286, 50721.00
1318.352, 50725.00
1319.417, 50975.00
1320.483, 50876.00
1321.548, 51099.00
1322.613, 50938.00
1323.678, 51082.00
1324.743, 51040.00
1325.807, 51066.00
1326.872, 51120.07
1327.936, 51205.93
1329.000, 51242.00
1330.064, 51413.00
1331.128, 51621.00
1332.191, 51633.00
1333.255, 51637.00
1334.318, 51772.00
1335.381, 51791.36
1336.444, 51926.00
1337.507, 51896.00
1338.569, 51965.00
1339.632, 51954.00
1340.694, 52117.00
1341.756, 52048.00
1342.818, 52388.00
1343.880, 52211.00
1344.941, 52459.00
1346.003, 52293.00
1347.064, 52205.00
1348.125, 52480.00
1349.186, 52880.00
1350.247, 52695.00
1351.308, 52665.00
1352.368, 52919.00
1353.428, 52548.00
1354.489, 52808.00
1355.549, 52630.00
1356.608, 52663.75
1357.668, 52975.00
1358.727, 52866.00
1359.787, 52901.00
1360.846, 53205.00
1361.905, 53374.00
1362.964, 53312.00
1364.022, 53064.00
1365.081, 53290.00
1366.139, 53613.00
1367.197, 53444.00
1368.255, 53706.00
1369.313, 53699.00
1370.371, 53678.00
1371.428, 53617.00
1372.486, 53266.00
1373.543, 53749.00
1374.600, 53611.00
1375.657, 53653.00
1376.713, 54220.00
1377.770, 53755.00
1378.826, 54141.00
1379.882, 54141.00
1380.938, 54178.00
1381.994, 54016.00
1383.050, 54113.00
1384.106, 54135.00
1385.161, 54315.00
1386.216, 54541.00
1387.271, 54411.00
1388.326, 54621.00
1389.381, 54556.00
1390.435, 54788.00
1391.490, 54530.00
1392.544, 54607.00
1393.598, 54535.00
1394.652, 54855.00
1395.705, 54927.00
1396.759, 55279.00
1397.812, 54936.00
1398.866, 55123.00
1399.919, 55005.00
1400.972, 55351.00
1402.024, 55202.00
1403.077, 55179.00
1404.129, 55274.00
1405.181, 55355.00
1406.233, 55616.00
1407.285, 55361.00
1408.337, 55625.00
1409.389, 55457.00
1410.440, 55609.00
1411.491, 55673.58
1412.542, 55698.00
1413.593, 55707.00
1414.644, 55964.00
1415.695, 55775.00
1416.745, 55901.00
1417.795, 56120.00
1418.845, 56135.00
1419.895, 56323.00
1420.945, 56218.00
1421.995, 56295.91
1423.044, 56261.00
1424.093, 56396.00
1425.142, 56378.00
1426.191, 56583.00
1427.240, 56590.00
1428.289, 56302.00
1429.337, 56690.00
1430.385, 56652.00
1431.433, 56775.00
1432.481, 56517.00
1433.529, 56812.00
1434.577, 56920.00
1435.624, 56838.00
1436.672, 56905.00
1437.719, 57108.00
1438.766, 56877.00
1439.812, 57253.00
1440.859, 57553.00
1441.905, 57403.00
1442.952, 57277.00
1443.998, 57382.00
1445.044, 57393.00
1446.090, 57177.00
1447.135, 57387.00
1448.181, 57255.00
1449.226, 57780.00
1450.271, 57662.00
1451.316, 57711.00
1452.361, 57879.00
1453.405, 57868.00
1454.450, 57915.00
1455.494, 57547.00
1456.538, 57763.00
1457.582, 58176.00
1458.626, 58000.00
1459.670, 58523.00
1460.713, 58199.00
1461.757, 58229.00
1462.800, 58349.00
1463.843, 58415.00
1464.886, 58463.36
1465.928, 58314.00
1466.971, 58617.00
1468.013, 58684.00
1469.055, 58880.00
1470.097, 58480.00
1471.139, 58636.00
1472.181, 58643.00
1473.222, 58744.00
1474.263, 59037.00
1475.305, 58927.00
1476.346, 58782.00
1477.386, 59030.00
1478.427, 59111.00
1479.468, 59118.00
1480.508, 59280.00
1481.548, 59214.70
1482.588, 59164.00
1483.628, 59152.00
1484.668, 59154.00
1485.707, 59170.78
1486.747, 59673.00
1487.786, 59415.00
1488.825, 59706.00
1489.864, 59696.00
1490.902, 59456.00
1491.941, 59985.00
1492.979, 59807.00
1494.017, 59608.00
1495.055, 60271.00
1496.093, 60002.00
1497.131, 60097.00
1498.168, 59547.00
1499.206, 59810.00
1500.243, 59816.00
1501.280, 59858.00
1502.317, 60027.00
1503.354, 60190.00
1504.390, 60240.00
1505.426, 60184.00
1506.463, 60474.00
1507.499, 60267.00
1508.535, 60198.00
1509.570, 60580.00
1510.606, 60192.00
1511.641, 60721.00
1512.676, 60479.00
1513.711, 60375.00
1514.746, 60499.00
1515.781, 60964.00
1516.816, 60952.00
1517.850, 60992.00
1518.884, 60898.00
1519.918, 60978.00
1520.952, 61007.00
1521.986, 61004.00
1523.019, 61078.00
1524.053, 61120.00
1525.086, 61316.00
1526.119, 61286.00
1527.152, 61338.00
1528.185, 61110.00
1529.217, 61456.00
1530.250, 61451.00
1531.282, 61656.00
1532.314, 61721.00
1533.346, 61162.00
1534.377, 61613.00
1535.409, 61362.00
1536.440, 61569.00
1537.472, 61469.00
1538.503, 61755.00
1539.534, 61658.00
1540.564, 61740.00
1541.595, 61510.00
1542.625, 61940.00
1543.656, 62185.00
1544.686, 62020.00
1545.716, 62108.00
1546.745, 62110.00
1547.775, 61951.00
1548.804, 62250.00
1549.834, 62217.00
1550.863, 62227.00
1551.892, 62376.00
1552.920, 62300.00
1553.949, 62537.00
1554.977, 62269.00
1556.006, 62335.00
1557.034, 62662.00
1558.062, 62452.00
1559.089, 62758.00
1560.117, 62579.00
1561.144, 62955.00
1562.172, 62521.00
1563.199, 62735.00
1564.226, 62787.00
1565.252, 62844.00
1566.279, 62737.00
1567.305, 63016.00
1568.332, 62859.00
1569.358, 63123.00
1570.384, 63112.00
1571.409, 63256.00
##END=



