##NAMES=Fluorapatite
##RRUFFID=R050369
##IDEAL CHEMISTRY=Ca_5_(PO_4_)_3_F
##LOCALITY=Russia
##OWNER=RRUFF
##SOURCE=Eugene Schlepp
##DESCRIPTION=Blueish-green hexagonal prismatic crystal
##STATUS=The identification of this mineral has been confirmed by X-ray diffraction and chemical analysis
##URL=rruff.info/R050369
##MEASURED CHEMISTRY=(Ca_0.99_Na_0.01_)_5_((P_0.98_S_0.02_)O_4_)_3_F_1.00_
##PIN_ID=L01224
##ORIENTATION=Laser parallel to a* (1 0 0). Fiducial mark perpendicular to laser is parallel to c [0 0 1]
53.91000, 404.0000
55.14900, 418.0000
56.38700, 400.0000
57.62600, 408.0000
58.86400, 423.0000
60.10300, 412.0000
61.34100, 424.0000
62.57900, 422.0000
63.81700, 443.0000
65.05400, 471.0000
66.29200, 470.0000
67.52900, 484.0000
68.76700, 494.0000
70.00400, 555.0000
71.24100, 572.0000
72.47700, 618.0000
73.71400, 644.0000
74.95100, 703.0000
76.18700, 763.0000
77.42300, 807.0000
78.65900, 863.0000
79.89500, 911.0000
81.13100, 947.0000
82.36700, 987.0000
83.60200, 1057.000
84.83700, 1116.000
86.07200, 1187.000
87.30800, 1178.000
88.54200, 1235.000
89.77700, 1290.000
91.01200, 1387.000
92.24600, 1417.000
93.48000, 1484.000
94.71400, 1512.000
95.94800, 1518.000
97.18200, 1561.000
98.41600, 1593.000
99.64900, 1627.000
100.8830, 1656.000
102.1160, 1688.000
103.3490, 1638.000
104.5820, 1656.000
105.8150, 1745.000
107.0470, 1700.000
108.2800, 1795.000
109.5120, 1804.000
110.7440, 1748.000
111.9760, 1702.000
113.2080, 1767.000
114.4400, 1809.000
115.6710, 1838.000
116.9030, 1891.000
118.1340, 1919.000
119.3650, 1938.175
120.5960, 1859.000
121.8270, 1940.000
123.0580, 1949.000
124.2880, 1895.000
125.5190, 1976.000
126.7490, 2070.000
127.9790, 2108.000
129.2090, 2175.000
130.4390, 2337.000
131.6680, 2401.000
132.8980, 2508.000
134.1270, 2644.000
135.3560, 2854.000
136.5850, 3025.000
137.8140, 3170.000
139.0430, 3179.000
140.2710, 2970.000
141.5000, 2762.000
142.7280, 2720.000
143.9560, 2568.000
145.1840, 2484.000
146.4120, 2468.000
147.6390, 2405.000
148.8670, 2421.000
150.0940, 2452.000
151.3210, 2442.000
152.5490, 2508.000
153.7750, 2579.000
155.0020, 2704.000
156.2290, 2697.000
157.4550, 2814.000
158.6810, 2774.000
159.9080, 2751.000
161.1340, 2556.000
162.3590, 2638.000
163.5850, 2623.000
164.8110, 2656.000
166.0360, 2597.000
167.2610, 2613.000
168.4860, 2565.000
169.7110, 2485.000
170.9360, 2458.000
172.1610, 2404.513
173.3850, 2376.526
174.6100, 2332.000
175.8340, 2340.000
177.0580, 2329.000
178.2820, 2320.000
179.5050, 2274.000
180.7290, 2238.000
181.9520, 2285.000
183.1760, 2195.000
184.3990, 2258.000
185.6220, 2289.000
186.8450, 2238.000
188.0670, 2240.000
189.2900, 2259.000
190.5120, 2234.000
191.7340, 2244.000
192.9560, 2253.000
194.1780, 2233.000
195.4000, 2255.000
196.6220, 2274.000
197.8430, 2281.000
199.0640, 2285.000
200.2860, 2323.000
201.5070, 2358.000
202.7270, 2399.000
203.9480, 2398.000
205.1690, 2357.000
206.3890, 2358.000
207.6090, 2415.000
208.8290, 2499.000
210.0490, 2443.000
211.2690, 2472.000
212.4890, 2460.000
213.7080, 2443.000
214.9280, 2470.000
216.1470, 2402.000
217.3660, 2414.000
218.5850, 2495.000
219.8030, 2466.000
221.0220, 2465.000
222.2400, 2532.000
223.4590, 2503.000
224.6770, 2511.000
225.8950, 2593.000
227.1120, 2637.000
228.3300, 2656.000
229.5480, 2724.000
230.7650, 2767.000
231.9820, 2827.000
233.1990, 2830.000
234.4160, 2789.000
235.6330, 2853.000
236.8490, 2776.000
238.0660, 2778.000
239.2820, 2759.000
240.4980, 2634.000
241.7140, 2635.000
242.9300, 2588.000
244.1460, 2559.000
245.3610, 2580.000
246.5770, 2610.000
247.7920, 2556.000
249.0070, 2629.000
250.2220, 2608.000
251.4370, 2652.000
252.6510, 2638.000
253.8660, 2747.000
255.0800, 2791.000
256.2940, 2825.000
257.5080, 3004.000
258.7220, 3064.000
259.9360, 3197.000
261.1490, 3261.000
262.3630, 3330.000
263.5760, 3456.000
264.7890, 3473.000
266.0020, 3504.000
267.2150, 3441.000
268.4270, 3416.000
269.6400, 3381.000
270.8520, 3286.000
272.0640, 3205.000
273.2760, 3144.000
274.4880, 3053.000
275.7000, 2975.000
276.9120, 2974.000
278.1230, 2967.000
279.3340, 2939.000
280.5450, 2842.000
281.7560, 2867.000
282.9670, 2866.000
284.1780, 2821.000
285.3880, 2843.000
286.5980, 2838.000
287.8090, 2830.000
289.0190, 2795.000
290.2290, 2772.000
291.4380, 2889.000
292.6480, 2848.000
293.8570, 2854.000
295.0670, 2915.000
296.2760, 2903.000
297.4850, 2933.000
298.6930, 3024.000
299.9020, 3008.000
301.1110, 3002.000
302.3190, 3114.000
303.5270, 3096.000
304.7350, 3148.000
305.9430, 3204.000
307.1510, 3240.000
308.3580, 3244.000
309.5660, 3264.000
310.7730, 3240.000
311.9800, 3223.000
313.1870, 3145.000
314.3940, 3139.000
315.6010, 3079.000
316.8070, 3077.000
318.0130, 3115.000
319.2200, 2998.000
320.4260, 2989.000
321.6310, 3016.000
322.8370, 2919.000
324.0430, 2896.000
325.2480, 2871.000
326.4540, 2915.000
327.6590, 2894.000
328.8640, 2889.000
330.0680, 2902.000
331.2730, 2889.000
332.4780, 2908.000
333.6820, 2916.000
334.8860, 2865.000
336.0900, 2930.000
337.2940, 2822.000
338.4980, 2828.000
339.7010, 2883.000
340.9050, 2890.000
342.1080, 2871.000
343.3110, 2841.000
344.5140, 2845.000
345.7170, 2898.000
346.9200, 2888.000
348.1220, 2819.000
349.3240, 2903.000
350.5270, 2858.000
351.7290, 2906.000
352.9310, 2872.000
354.1320, 2926.000
355.3340, 2944.000
356.5350, 2913.000
357.7370, 2906.000
358.9380, 2918.365
360.1390, 2903.978
361.3400, 2905.267
362.5400, 2905.000
363.7410, 2903.531
364.9410, 2906.779
366.1410, 2918.000
367.3410, 2949.000
368.5410, 2944.000
369.7410, 2999.000
370.9400, 2959.000
372.1400, 3007.000
373.3390, 3069.000
374.5380, 3041.000
375.7370, 3062.000
376.9360, 3081.385
378.1350, 3008.000
379.3330, 3110.000
380.5310, 3056.000
381.7300, 3068.000
382.9280, 3078.000
384.1260, 3068.000
385.3230, 3107.000
386.5210, 3090.000
387.7180, 3132.000
388.9160, 3080.000
390.1130, 3049.000
391.3100, 3096.000
392.5060, 3108.000
393.7030, 3182.000
394.9000, 3123.000
396.0960, 3193.000
397.2920, 3151.000
398.4880, 3187.000
399.6840, 3189.000
400.8800, 3168.000
402.0750, 3241.000
403.2710, 3244.000
404.4660, 3181.000
405.6610, 3228.000
406.8560, 3257.000
408.0510, 3378.000
409.2450, 3261.000
410.4400, 3296.000
411.6340, 3384.000
412.8280, 3341.000
414.0220, 3403.000
415.2160, 3443.000
416.4100, 3534.000
417.6030, 3524.000
418.7970, 3510.000
419.9900, 3533.000
421.1830, 3665.000
422.3760, 3747.000
423.5690, 3724.000
424.7610, 3915.000
425.9540, 3969.000
427.1460, 4133.000
428.3380, 4181.000
429.5300, 4251.000
430.7220, 4362.000
431.9140, 4321.000
433.1050, 4424.000
434.2970, 4506.000
435.4880, 4692.000
436.6790, 4755.000
437.8700, 4932.000
439.0610, 5076.000
440.2510, 5081.000
441.4420, 5291.000
442.6320, 5345.000
443.8220, 5510.000
445.0120, 5512.000
446.2020, 5439.000
447.3910, 5449.000
448.5810, 5400.000
449.7700, 5172.000
450.9600, 5019.000
452.1490, 4888.000
453.3370, 4729.000
454.5260, 4596.575
455.7150, 4466.000
456.9030, 4348.000
458.0910, 4240.061
459.2800, 4149.106
460.4670, 4061.000
461.6550, 4015.000
462.8430, 3974.000
464.0300, 3964.000
465.2180, 3920.000
466.4050, 3900.693
467.5920, 3840.000
468.7790, 3847.000
469.9650, 3818.000
471.1520, 3773.000
472.3380, 3764.000
473.5250, 3741.667
474.7110, 3736.766
475.8970, 3732.000
477.0820, 3737.000
478.2680, 3742.312
479.4540, 3753.000
480.6390, 3767.698
481.8240, 3776.000
483.0090, 3799.000
484.1940, 3787.000
485.3780, 3836.000
486.5630, 3781.000
487.7470, 3715.000
488.9320, 3751.000
490.1160, 3803.000
491.3000, 3880.000
492.4830, 3803.000
493.6670, 3814.000
494.8500, 3779.000
496.0340, 3829.000
497.2170, 3792.000
498.4000, 3818.000
499.5820, 3826.000
500.7650, 3801.000
501.9480, 3884.000
503.1300, 3796.000
504.3120, 3858.000
505.4940, 3838.000
506.6760, 3779.000
507.8580, 3822.000
509.0390, 3886.000
510.2210, 3891.000
511.4020, 3912.000
512.5830, 3954.000
513.7640, 3823.000
514.9450, 3944.000
516.1250, 3896.000
517.3060, 3793.000
518.4860, 3894.000
519.6660, 3974.000
520.8460, 3906.000
522.0260, 3989.000
523.2060, 3968.000
524.3850, 3913.000
525.5650, 4002.000
526.7440, 3915.000
527.9230, 3995.000
529.1020, 3968.000
530.2810, 3979.000
531.4590, 3953.000
532.6380, 3996.000
533.8160, 4013.000
534.9940, 4008.000
536.1720, 4015.000
537.3500, 4102.000
538.5270, 4109.000
539.7050, 4138.000
540.8820, 4026.000
542.0590, 4175.000
543.2360, 4038.000
544.4130, 4146.000
545.5900, 4060.000
546.7660, 4139.000
547.9430, 4177.000
549.1190, 4177.000
550.2950, 4263.000
551.4710, 4185.000
552.6470, 4194.000
553.8220, 4280.000
554.9980, 4160.000
556.1730, 4313.000
557.3480, 4271.000
558.5230, 4350.000
559.6980, 4289.000
560.8730, 4377.000
562.0470, 4381.000
563.2220, 4365.000
564.3960, 4406.000
565.5700, 4438.000
566.7440, 4498.000
567.9170, 4587.000
569.0910, 4670.000
570.2640, 4837.000
571.4380, 5020.000
572.6110, 5296.000
573.7840, 5527.000
574.9570, 5821.000
576.1290, 6167.000
577.3020, 6704.000
578.4740, 7210.000
579.6460, 7240.000
580.8180, 7045.000
581.9900, 6596.000
583.1620, 6119.000
584.3330, 5762.000
585.5040, 5610.000
586.6760, 5488.000
587.8470, 5437.000
589.0180, 5402.000
590.1880, 5422.000
591.3590, 5283.000
592.5290, 5284.000
593.7000, 5187.000
594.8700, 5087.000
596.0400, 5078.000
597.2090, 5144.000
598.3790, 5348.000
599.5490, 5526.000
600.7180, 5672.000
601.8870, 5958.000
603.0560, 6183.000
604.2250, 6610.000
605.3940, 6626.000
606.5620, 6594.000
607.7300, 6213.000
608.8990, 6072.000
610.0670, 5687.000
611.2350, 5619.000
612.4020, 5554.000
613.5700, 5650.000
614.7370, 5430.000
615.9050, 5399.000
617.0720, 5355.000
618.2390, 5147.000
619.4060, 5056.000
620.5720, 4972.000
621.7390, 4944.000
622.9050, 4935.000
624.0710, 4846.000
625.2370, 4842.598
626.4030, 4853.000
627.5690, 4793.000
628.7340, 4836.000
629.9000, 4822.000
631.0650, 4868.000
632.2300, 4792.000
633.3950, 4926.000
634.5600, 4831.000
635.7240, 4841.000
636.8890, 4900.000
638.0530, 4846.000
639.2170, 4826.000
640.3810, 4920.000
641.5450, 4899.000
642.7080, 4904.000
643.8720, 5038.000
645.0350, 4974.000
646.1980, 4910.000
647.3610, 4991.000
648.5240, 4968.000
649.6870, 5009.000
650.8490, 5060.000
652.0120, 5061.000
653.1740, 5056.000
654.3360, 5022.000
655.4980, 5042.894
656.6600, 5043.390
657.8210, 5075.000
658.9830, 5077.000
660.1440, 5112.000
661.3050, 5136.000
662.4660, 5138.000
663.6270, 5114.000
664.7870, 5036.000
665.9480, 5059.000
667.1080, 5104.000
668.2680, 5178.000
669.4280, 5077.000
670.5880, 5166.000
671.7480, 5139.000
672.9070, 5146.000
674.0670, 5169.000
675.2260, 5244.000
676.3850, 5172.000
677.5440, 5188.000
678.7030, 5152.000
679.8610, 5242.000
681.0200, 5154.000
682.1780, 5155.000
683.3360, 5256.000
684.4940, 5285.000
685.6520, 5220.000
686.8090, 5232.000
687.9670, 5256.000
689.1240, 5302.000
690.2810, 5320.000
691.4380, 5211.000
692.5950, 5300.000
693.7520, 5313.000
694.9080, 5411.000
696.0650, 5320.000
697.2210, 5376.000
698.3770, 5288.000
699.5330, 5354.000
700.6880, 5362.000
701.8440, 5398.000
702.9990, 5436.000
704.1550, 5428.000
705.3100, 5379.000
706.4650, 5482.000
707.6190, 5422.000
708.7740, 5475.000
709.9290, 5503.000
711.0830, 5595.000
712.2370, 5484.000
713.3910, 5458.000
714.5450, 5500.000
715.6980, 5429.000
716.8520, 5463.000
718.0050, 5572.000
719.1580, 5499.000
720.3110, 5525.000
721.4640, 5617.000
722.6170, 5568.000
723.7700, 5599.000
724.9220, 5632.000
726.0740, 5546.000
727.2260, 5650.000
728.3780, 5739.000
729.5300, 5600.000
730.6810, 5699.000
731.8330, 5627.000
732.9840, 5661.000
734.1350, 5702.000
735.2860, 5694.000
736.4370, 5598.000
737.5880, 5771.000
738.7380, 5695.000
739.8880, 5752.000
741.0390, 5851.000
742.1890, 5827.000
743.3380, 5862.000
744.4880, 5766.000
745.6380, 5857.000
746.7870, 5796.000
747.9360, 5838.000
749.0850, 5867.539
750.2340, 5778.000
751.3830, 5916.000
752.5310, 5907.000
753.6800, 5910.000
754.8280, 5830.000
755.9760, 5846.000
757.1240, 5908.000
758.2720, 5809.000
759.4190, 5774.000
760.5670, 5932.000
761.7140, 5853.000
762.8610, 5965.000
764.0080, 5875.000
765.1550, 5952.000
766.3020, 6017.000
767.4480, 5934.000
768.5950, 5938.000
769.7410, 6056.000
770.8870, 5971.000
772.0330, 6010.000
773.1780, 6143.000
774.3240, 6075.000
775.4690, 6074.000
776.6140, 6060.000
777.7590, 6151.000
778.9040, 6109.000
780.0490, 6172.000
781.1940, 6080.000
782.3380, 6039.000
783.4820, 6147.000
784.6260, 6134.000
785.7700, 6277.000
786.9140, 6188.000
788.0580, 6242.000
789.2010, 6213.000
790.3450, 6184.000
791.4880, 6209.000
792.6310, 6243.000
793.7730, 6170.000
794.9160, 6204.000
796.0590, 6236.000
797.2010, 6244.000
798.3430, 6229.000
799.4850, 6194.000
800.6270, 6224.000
801.7690, 6223.000
802.9100, 6275.000
804.0520, 6332.000
805.1930, 6470.000
806.3340, 6291.000
807.4750, 6432.000
808.6160, 6342.000
809.7560, 6508.000
810.8970, 6372.000
812.0370, 6445.000
813.1770, 6474.000
814.3170, 6539.000
815.4570, 6458.000
816.5960, 6487.000
817.7360, 6476.000
818.8750, 6573.000
820.0140, 6470.000
821.1530, 6538.000
822.2920, 6459.000
823.4310, 6513.000
824.5690, 6589.000
825.7070, 6665.000
826.8460, 6521.000
827.9840, 6565.000
829.1220, 6637.000
830.2590, 6596.000
831.3970, 6633.000
832.5340, 6679.000
833.6710, 6730.000
834.8080, 6708.000
835.9450, 6593.000
837.0820, 6630.000
838.2190, 6679.000
839.3550, 6789.000
840.4910, 6753.000
841.6270, 6731.000
842.7630, 6686.000
843.8990, 6705.645
845.0350, 6709.522
846.1700, 6765.000
847.3060, 6768.000
848.4410, 6833.000
849.5760, 6878.000
850.7100, 6844.000
851.8450, 6786.000
852.9800, 6911.000
854.1140, 6884.000
855.2480, 6999.000
856.3820, 6900.000
857.5160, 7003.000
858.6500, 6996.000
859.7830, 6994.000
860.9170, 7042.000
862.0500, 7027.000
863.1830, 7047.000
864.3160, 6999.000
865.4480, 6985.000
866.5810, 7050.000
867.7130, 7119.000
868.8460, 7074.000
869.9780, 7122.000
871.1100, 7088.000
872.2410, 7171.000
873.3730, 7143.000
874.5050, 7151.000
875.6360, 7207.000
876.7670, 7056.000
877.8980, 7177.000
879.0290, 7141.000
880.1590, 7190.000
881.2900, 7099.000
882.4200, 7141.000
883.5500, 7219.000
884.6800, 7231.000
885.8100, 7301.000
886.9400, 7185.000
888.0690, 7293.000
889.1990, 7195.000
890.3280, 7196.000
891.4570, 7230.000
892.5860, 7234.000
893.7140, 7231.000
894.8430, 7295.000
895.9710, 7253.000
897.1000, 7388.000
898.2280, 7427.000
899.3560, 7466.000
900.4830, 7390.000
901.6110, 7429.000
902.7380, 7390.000
903.8660, 7470.000
904.9930, 7377.000
906.1200, 7548.000
907.2460, 7411.000
908.3730, 7561.000
909.5000, 7588.000
910.6260, 7639.000
911.7520, 7549.000
912.8780, 7536.000
914.0040, 7685.000
915.1290, 7604.000
916.2550, 7679.000
917.3800, 7626.000
918.5050, 7682.000
919.6300, 7692.000
920.7550, 7660.000
921.8800, 7739.000
923.0040, 7667.000
924.1290, 7751.000
925.2530, 7726.000
926.3770, 7774.000
927.5010, 7851.000
928.6250, 7827.000
929.7480, 7840.000
930.8720, 7837.000
931.9950, 7947.000
933.1180, 8001.000
934.2410, 8026.000
935.3640, 7956.000
936.4860, 8191.000
937.6090, 8109.000
938.7310, 8263.000
939.8530, 8350.000
940.9750, 8539.000
942.0970, 8456.000
943.2180, 8825.000
944.3400, 8882.000
945.4610, 9168.000
946.5820, 9360.000
947.7030, 9714.000
948.8240, 9824.000
949.9450, 10269.00
951.0650, 10593.00
952.1860, 11466.00
953.3060, 12574.00
954.4260, 14111.00
955.5460, 16592.00
956.6650, 20168.00
957.7850, 25324.00
958.9040, 31478.00
960.0230, 38538.00
961.1420, 47599.00
962.2610, 56404.00
963.3800, 60350.00
964.4990, 56710.00
965.6170, 47805.00
966.7350, 37769.00
967.8530, 29694.00
968.9710, 22891.00
970.0890, 18298.00
971.2070, 15127.00
972.3240, 12991.00
973.4410, 11778.00
974.5580, 10632.00
975.6750, 10195.00
976.7920, 9654.000
977.9090, 9334.000
979.0250, 9153.000
980.1410, 8949.000
981.2580, 8884.000
982.3740, 8831.000
983.4890, 8714.000
984.6050, 8700.000
985.7200, 8740.000
986.8360, 8702.000
987.9510, 8741.000
989.0660, 8612.000
990.1810, 8631.000
991.2950, 8616.000
992.4100, 8510.000
993.5240, 8670.000
994.6390, 8601.000
995.7530, 8620.000
996.8660, 8582.000
997.9800, 8627.414
999.0940, 8713.000
1000.207, 8760.000
1001.320, 8816.000
1002.433, 8922.000
1003.546, 9009.000
1004.659, 9215.000
1005.772, 9474.000
1006.884, 9420.000
1007.996, 9587.000
1009.108, 9691.000
1010.220, 9700.000
1011.332, 9521.000
1012.444, 9281.000
1013.555, 9330.000
1014.666, 9148.000
1015.777, 9245.000
1016.888, 9347.000
1017.999, 9191.000
1019.110, 9266.000
1020.220, 9178.000
1021.331, 9100.000
1022.441, 9180.000
1023.551, 9310.000
1024.661, 9310.000
1025.770, 9446.000
1026.880, 9669.000
1027.989, 9774.000
1029.098, 10039.00
1030.207, 10375.00
1031.316, 10472.00
1032.425, 10592.00
1033.533, 10540.00
1034.642, 10367.00
1035.750, 10184.00
1036.858, 10025.00
1037.966, 9949.000
1039.073, 9908.000
1040.181, 9846.027
1041.288, 9755.000
1042.396, 9773.000
1043.503, 9766.000
1044.610, 9658.000
1045.716, 9584.000
1046.823, 9611.000
1047.929, 9577.551
1049.036, 9647.000
1050.142, 9653.000
1051.248, 9686.000
1052.353, 9799.000
1053.459, 9817.000
1054.564, 9919.000
1055.670, 10160.00
1056.775, 10342.00
1057.880, 10402.00
1058.985, 10449.00
1060.089, 10436.00
1061.194, 10282.00
1062.298, 9970.000
1063.402, 9886.000
1064.506, 9715.000
1065.610, 9756.000
1066.713, 9575.000
1067.817, 9675.000
1068.920, 9776.000
1070.023, 9718.000
1071.126, 9751.000
1072.229, 9834.000
1073.332, 9812.000
1074.435, 9876.000
1075.537, 10087.00
1076.639, 10153.00
1077.741, 10277.00
1078.843, 10295.75
1079.945, 10328.00
1081.046, 10216.00
1082.148, 10134.00
1083.249, 9978.000
1084.350, 9842.000
1085.451, 9797.000
1086.551, 9773.000
1087.652, 9776.000
1088.752, 9783.000
1089.853, 9776.000
1090.953, 9658.000
1092.053, 9741.000
1093.152, 9809.000
1094.252, 9633.000
1095.351, 9539.000
1096.451, 9578.000
1097.550, 9695.000
1098.649, 9661.000
1099.748, 9675.000
1100.846, 9696.000
1101.945, 9782.000
1103.043, 9780.000
1104.141, 9876.000
1105.239, 9807.000
1106.337, 9730.000
1107.434, 9825.000
1108.532, 9789.000
1109.629, 9880.000
1110.726, 9824.000
1111.823, 9934.000
1112.920, 9895.000
1114.017, 10055.00
1115.113, 9945.000
1116.210, 9906.000
1117.306, 9963.000
1118.402, 9918.000
1119.498, 10024.00
1120.593, 10040.00
1121.689, 10135.00
1122.784, 10142.69
1123.879, 10097.00
1124.974, 10173.00
1126.069, 10121.00
1127.164, 10171.00
1128.259, 10088.00
1129.353, 10150.00
1130.447, 10100.00
1131.541, 10218.00
1132.635, 10066.00
1133.729, 10206.00
1134.822, 10263.00
1135.916, 10108.00
1137.009, 10196.00
1138.102, 10204.00
1139.195, 10233.00
1140.288, 10277.00
1141.380, 10160.00
1142.473, 10290.00
1143.565, 10276.00
1144.657, 10143.00
1145.749, 10286.00
1146.841, 10253.00
1147.932, 10252.00
1149.024, 10404.00
1150.115, 10376.00
1151.206, 10412.00
1152.297, 10299.00
1153.388, 10411.00
1154.479, 10400.00
1155.569, 10512.00
1156.659, 10383.00
1157.750, 10337.00
1158.839, 10397.00
1159.929, 10463.00
1161.019, 10411.00
1162.108, 10420.00
1163.198, 10526.00
1164.287, 10471.00
1165.376, 10510.00
1166.465, 10678.00
1167.553, 10565.00
1168.642, 10590.00
1169.730, 10567.00
1170.818, 10557.00
1171.906, 10575.39
1172.994, 10590.00
1174.082, 10605.00
1175.170, 10559.00
1176.257, 10579.00
1177.344, 10477.00
1178.431, 10676.00
1179.518, 10584.00
1180.605, 10542.00
1181.691, 10697.00
1182.778, 10675.00
1183.864, 10682.00
1184.950, 10600.00
1186.036, 10795.00
1187.122, 10668.00
1188.207, 10726.00
1189.292, 10662.00
1190.378, 10765.00
1191.463, 10688.00
1192.548, 10701.00
1193.632, 10813.00
1194.717, 10732.00
1195.801, 10838.00
1196.886, 10806.00
1197.970, 10842.01
1199.054, 10842.00
1200.137, 10887.00
1201.221, 10898.00
1202.305, 10850.00
1203.388, 10894.00
1204.471, 10932.00
1205.554, 10875.00
1206.637, 10896.00
1207.719, 10923.20
1208.802, 10896.00
1209.884, 10989.00
1210.966, 10993.00
1212.048, 11014.00
1213.130, 11052.00
1214.212, 10954.00
1215.293, 10988.00
1216.374, 10894.00
1217.456, 11053.00
1218.536, 11011.00
1219.617, 11116.00
1220.698, 11024.00
1221.778, 11123.00
1222.859, 11093.00
1223.939, 11068.00
1225.019, 11059.00
1226.099, 11003.00
1227.178, 11117.00
1228.258, 11230.00
1229.337, 11219.00
1230.417, 11288.55
1231.496, 11273.00
1232.574, 11271.00
1233.653, 11250.00
1234.732, 11124.00
1235.810, 11307.00
1236.888, 11019.00
1237.966, 11277.00
1239.044, 11380.00
1240.122, 11242.00
1241.199, 11305.00
1242.277, 11278.00
1243.354, 11231.00
1244.431, 11250.00
1245.508, 11292.00
1246.585, 11245.00
1247.661, 11109.00
1248.738, 11257.00
1249.814, 11275.00
1250.890, 11388.00
1251.966, 11268.00
1253.042, 11353.00
1254.117, 11295.00
1255.193, 11326.00
1256.268, 11411.00
1257.343, 11261.00
1258.418, 11381.00
1259.493, 11362.00
1260.567, 11287.00
1261.642, 11450.00
1262.716, 11402.00
1263.790, 11347.00
1264.864, 11460.00
1265.938, 11431.00
1267.011, 11502.00
1268.085, 11429.00
1269.158, 11498.00
1270.231, 11525.00
1271.304, 11409.00
1272.377, 11487.00
1273.450, 11544.00
1274.522, 11482.00
1275.594, 11477.00
1276.666, 11662.00
1277.738, 11559.00
1278.810, 11658.00
1279.882, 11493.00
1280.953, 11675.00
1282.025, 11599.00
1283.096, 11506.00
1284.167, 11678.00
1285.238, 11700.00
1286.308, 11437.00
1287.379, 11652.00
1288.449, 11642.00
1289.519, 11660.00
1290.589, 11550.00
1291.659, 11695.00
1292.729, 11835.00
1293.798, 11663.00
1294.868, 11714.00
1295.937, 11769.00
1297.006, 11843.00
1298.075, 11733.00
1299.143, 11815.00
1300.212, 11807.00
1301.280, 11831.00
1302.348, 11817.00
1303.416, 11864.00
1304.484, 11811.00
1305.552, 11905.00
1306.620, 11852.00
1307.687, 11807.00
1308.754, 11875.00
1309.821, 11898.00
1310.888, 11945.00
1311.955, 11980.03
1313.021, 11982.00
1314.088, 12055.00
1315.154, 11983.00
1316.220, 12042.00
1317.286, 11936.00
1318.352, 12027.00
1319.417, 12118.00
1320.483, 11983.00
1321.548, 12091.00
1322.613, 12007.00
1323.678, 12115.00
1324.743, 12057.00
1325.807, 11976.00
1326.872, 12015.00
1327.936, 12169.00
1329.000, 12129.00
1330.064, 12140.00
1331.128, 12147.00
1332.191, 12084.00
1333.255, 12162.00
1334.318, 12289.00
1335.381, 12285.00
1336.444, 12332.22
1337.507, 12308.00
1338.569, 12318.00
1339.632, 12263.00
1340.694, 12199.00
1341.756, 12121.00
1342.818, 12225.00
1343.880, 12237.00
1344.941, 12245.00
1346.003, 12286.00
1347.064, 12324.00
1348.125, 12341.00
1349.186, 12313.00
1350.247, 12446.00
1351.308, 12322.00
1352.368, 12366.00
1353.428, 12380.00
1354.489, 12475.00
1355.549, 12356.00
1356.608, 12448.00
1357.668, 12369.00
1358.727, 12455.00
1359.787, 12406.00
1360.846, 12404.00
1361.905, 12514.00
1362.964, 12587.00
1364.022, 12481.00
1365.081, 12584.00
1366.139, 12471.00
1367.197, 12436.00
1368.255, 12426.00
1369.313, 12433.00
1370.371, 12576.00
1371.428, 12686.00
1372.486, 12530.00
1373.543, 12507.00
1374.600, 12498.00
1375.657, 12686.00
1376.713, 12696.00
1377.770, 12572.00
1378.826, 12648.00
1379.882, 12547.00
1380.938, 12486.00
1381.994, 12707.00
1383.050, 12613.00
1384.106, 12673.00
1385.161, 12662.00
1386.216, 12695.00
1387.271, 12533.00
1388.326, 12622.00
1389.381, 12772.00
1390.435, 12631.00
1391.490, 12758.00
1392.544, 12660.00
1393.598, 12700.00
1394.652, 12782.00
1395.705, 12819.00
1396.759, 12711.00
1397.812, 12807.00
1398.866, 12866.00
1399.919, 12686.00
1400.972, 12902.00
1402.024, 12923.00
1403.077, 12838.00
1404.129, 12813.00
1405.181, 12937.00
1406.233, 12776.00
1407.285, 13127.00
1408.337, 12888.00
1409.389, 12836.00
1410.440, 12771.00
1411.491, 13029.00
1412.542, 12929.00
1413.593, 12941.00
1414.644, 13015.00
1415.695, 12970.00
1416.745, 13044.00
1417.795, 13026.00
1418.845, 12970.00
1419.895, 13046.00
1420.945, 12896.00
1421.995, 13110.00
1423.044, 13091.00
1424.093, 13063.00
1425.142, 13198.00
1426.191, 13176.00
1427.240, 12980.00
1428.289, 13169.00
1429.337, 13177.00
1430.385, 13002.00
1431.433, 13118.00
1432.481, 13044.00
1433.529, 13226.00
1434.577, 13277.00
1435.624, 13113.00
1436.672, 13145.00
1437.719, 13088.00
1438.766, 13238.00
1439.812, 13105.00
1440.859, 13186.00
1441.905, 13343.00
1442.952, 13435.00
1443.998, 13279.00
1445.044, 13215.00
1446.090, 13148.00
1447.135, 13337.00
1448.181, 13279.00
1449.226, 13283.00
1450.271, 13265.00
1451.316, 13334.00
1452.361, 13434.00
1453.405, 13360.00
1454.450, 13313.00
1455.494, 13459.00
1456.538, 13329.00
1457.582, 13448.00
1458.626, 13462.00
1459.670, 13436.00
1460.713, 13435.00
1461.757, 13432.09
1462.800, 13462.00
1463.843, 13443.00
1464.886, 13460.00
1465.928, 13508.00
1466.971, 13582.00
1468.013, 13537.00
1469.055, 13411.00
1470.097, 13534.00
1471.139, 13482.00
1472.181, 13542.00
1473.222, 13476.00
1474.263, 13563.00
1475.305, 13584.00
1476.346, 13636.00
1477.386, 13481.00
1478.427, 13467.00
1479.468, 13569.00
1480.508, 13525.00
1481.548, 13575.89
1482.588, 13619.00
1483.628, 13627.00
1484.668, 13674.00
1485.707, 13686.00
1486.747, 13655.00
1487.786, 13625.00
1488.825, 13821.00
1489.864, 13733.00
1490.902, 13715.00
1491.941, 13767.00
1492.979, 13678.00
1494.017, 13605.00
1495.055, 13823.00
1496.093, 13759.00
1497.131, 13640.00
1498.168, 13755.00
1499.206, 13827.00
1500.243, 13731.00
1501.280, 13660.00
1502.317, 13822.00
1503.354, 13816.00
1504.390, 13784.00
1505.426, 13847.00
1506.463, 13777.00
1507.499, 13872.00
1508.535, 13993.00
1509.570, 13886.00
1510.606, 13869.00
1511.641, 13806.00
1512.676, 13898.00
1513.711, 13893.00
1514.746, 13962.00
1515.781, 13957.71
1516.816, 13954.00
1517.850, 13937.00
1518.884, 13994.00
1519.918, 13984.00
1520.952, 13923.00
1521.986, 14027.00
1523.019, 13859.00
1524.053, 13966.00
1525.086, 14017.00
1526.119, 14037.00
1527.152, 14059.00
1528.185, 14096.00
1529.217, 14042.00
1530.250, 14132.00
1531.282, 14117.00
1532.314, 14135.00
1533.346, 14069.00
1534.377, 14178.00
1535.409, 14066.00
1536.440, 14051.00
1537.472, 14265.00
1538.503, 14162.00
1539.534, 14195.00
1540.564, 14088.00
1541.595, 14216.00
1542.625, 14237.00
1543.656, 14201.00
1544.686, 14130.00
1545.716, 14181.00
1546.745, 14196.00
1547.775, 14208.00
1548.804, 14176.00
1549.834, 14346.00
1550.863, 14254.00
1551.892, 14198.00
1552.920, 14392.00
1553.949, 14373.00
1554.977, 14241.00
1556.006, 14214.00
1557.034, 14176.00
1558.062, 14323.00
1559.089, 14416.00
1560.117, 14409.00
1561.144, 14361.00
1562.172, 14470.00
1563.199, 14400.00
1564.226, 14369.00
1565.252, 14297.00
1566.279, 14285.00
1567.305, 14217.00
1568.332, 14486.00
1569.358, 14426.00
1570.384, 14474.00
1571.409, 14421.00
1572.435, 14684.00
##END=



