##NAMES=Fluorapatite
##RRUFFID=R060184
##IDEAL CHEMISTRY=Ca_5_(PO_4_)_3_F
##LOCALITY=Yates mine, Otter Lake, Quebec, Canada
##OWNER=RRUFF
##SOURCE=Lloyd Twaites
##DESCRIPTION=Green colored fragment of a hexagonal prism
##STATUS=The identification of this mineral has been confirmed by X-ray diffraction and chemical analysis
##URL=rruff.info/R060184
##MEASURED CHEMISTRY=(Ca_0.99_Ce_0.01_)_5.00_((P_0.98_Si_0.01_S_0.01_)O_4_)_3_F_1.00_
##PIN_ID=M00532
##ORIENTATION=Laser parallel to -a* (-1 0 0). Fiducial mark perpendicular to laser is parallel to -c [0 0 -1]
170.5590, 2729.000
171.7860, 2763.000
173.0130, 2774.000
174.2400, 2773.000
175.4670, 2866.000
176.6930, 2859.000
177.9200, 2876.000
179.1460, 2926.000
180.3720, 2865.000
181.5980, 2816.000
182.8230, 2824.000
184.0490, 2803.000
185.2740, 2749.000
186.5000, 2812.000
187.7250, 2727.000
188.9500, 2711.000
190.1740, 2765.000
191.3990, 2729.000
192.6230, 2711.000
193.8480, 2785.000
195.0720, 2766.000
196.2960, 2847.000
197.5200, 2812.000
198.7430, 2890.000
199.9670, 2907.000
201.1900, 2971.000
202.4130, 3116.000
203.6360, 3077.000
204.8590, 3164.000
206.0820, 3164.000
207.3050, 3240.000
208.5270, 3271.000
209.7490, 3257.000
210.9710, 3250.000
212.1930, 3220.000
213.4150, 3206.000
214.6370, 3175.000
215.8580, 3189.000
217.0790, 3144.000
218.3010, 3112.000
219.5210, 3120.000
220.7420, 3178.000
221.9630, 3225.000
223.1830, 3171.000
224.4040, 3140.000
225.6240, 3239.000
226.8440, 3279.000
228.0640, 3251.000
229.2840, 3245.000
230.5030, 3276.000
231.7230, 3315.000
232.9420, 3295.000
234.1610, 3137.000
235.3800, 3162.000
236.5990, 3140.000
237.8170, 3185.000
239.0360, 3118.000
240.2540, 3041.000
241.4720, 3030.000
242.6900, 3007.000
243.9080, 3003.000
245.1250, 2985.000
246.3430, 3003.986
247.5600, 2976.000
248.7770, 3049.000
249.9940, 3058.000
251.2110, 3077.000
252.4280, 3053.000
253.6450, 3068.000
254.8610, 3096.000
256.0770, 3209.000
257.2930, 3238.000
258.5090, 3274.000
259.7250, 3325.439
260.9400, 3391.000
262.1560, 3391.000
263.3710, 3390.000
264.5860, 3437.000
265.8010, 3434.000
267.0160, 3561.000
268.2310, 3569.000
269.4450, 3532.000
270.6600, 3508.000
271.8740, 3472.000
273.0880, 3590.000
274.3020, 3531.000
275.5150, 3613.000
276.7290, 3565.000
277.9420, 3588.000
279.1550, 3640.000
280.3680, 3666.000
281.5810, 3697.000
282.7940, 3692.000
284.0070, 3716.000
285.2190, 3688.000
286.4310, 3756.000
287.6430, 3646.000
288.8550, 3726.000
290.0670, 3714.000
291.2790, 3734.000
292.4900, 3654.000
293.7020, 3660.000
294.9130, 3620.000
296.1240, 3587.000
297.3350, 3630.000
298.5450, 3629.000
299.7560, 3650.000
300.9660, 3598.000
302.1760, 3614.000
303.3860, 3694.000
304.5960, 3612.000
305.8060, 3602.000
307.0150, 3608.000
308.2250, 3538.000
309.4340, 3597.000
310.6430, 3545.000
311.8520, 3518.000
313.0610, 3434.000
314.2700, 3383.000
315.4780, 3422.000
316.6860, 3404.000
317.8940, 3338.000
319.1020, 3323.000
320.3100, 3293.000
321.5180, 3251.000
322.7250, 3328.000
323.9330, 3250.000
325.1400, 3263.000
326.3470, 3210.000
327.5540, 3258.000
328.7600, 3212.000
329.9670, 3180.000
331.1730, 3216.000
332.3800, 3221.000
333.5860, 3186.000
334.7920, 3178.000
335.9970, 3173.000
337.2030, 3161.497
338.4080, 3219.000
339.6140, 3182.000
340.8190, 3180.000
342.0240, 3242.000
343.2290, 3192.000
344.4330, 3238.000
345.6380, 3202.688
346.8420, 3187.203
348.0460, 3155.000
349.2500, 3131.000
350.4540, 3157.000
351.6580, 3104.000
352.8610, 3152.000
354.0650, 3258.000
355.2680, 3194.000
356.4710, 3172.000
357.6740, 3219.000
358.8760, 3161.000
360.0790, 3203.000
361.2810, 3152.000
362.4840, 3204.000
363.6860, 3176.000
364.8880, 3246.000
366.0900, 3272.000
367.2910, 3238.000
368.4930, 3267.000
369.6940, 3234.000
370.8950, 3233.000
372.0960, 3257.000
373.2970, 3186.000
374.4980, 3281.000
375.6980, 3349.000
376.8980, 3316.000
378.0990, 3350.000
379.2990, 3335.000
380.4980, 3418.000
381.6980, 3378.000
382.8980, 3402.000
384.0970, 3379.000
385.2960, 3389.000
386.4950, 3460.000
387.6940, 3483.000
388.8930, 3457.000
390.0920, 3493.000
391.2900, 3494.000
392.4880, 3605.000
393.6860, 3574.000
394.8840, 3630.000
396.0820, 3651.000
397.2800, 3605.000
398.4770, 3724.000
399.6750, 3684.000
400.8720, 3629.000
402.0690, 3807.000
403.2660, 3756.000
404.4620, 3766.000
405.6590, 3787.000
406.8550, 3887.000
408.0510, 3872.000
409.2480, 3943.000
410.4430, 3934.000
411.6390, 4065.000
412.8350, 4127.000
414.0300, 4282.000
415.2250, 4304.000
416.4200, 4415.000
417.6150, 4620.000
418.8100, 4940.000
420.0050, 5129.000
421.1990, 5348.000
422.3940, 5617.000
423.5880, 6106.000
424.7820, 6492.000
425.9750, 6949.000
427.1690, 7265.000
428.3630, 7679.000
429.5560, 7799.000
430.7490, 7793.000
431.9420, 7472.000
433.1350, 7372.000
434.3280, 6904.000
435.5200, 6680.000
436.7130, 6466.000
437.9050, 6197.000
439.0970, 6050.000
440.2890, 5919.000
441.4810, 5872.000
442.6720, 5814.000
443.8640, 5911.000
445.0550, 5770.000
446.2460, 5794.000
447.4370, 5701.000
448.6280, 5615.000
449.8180, 5601.000
451.0090, 5525.000
452.1990, 5341.000
453.3890, 5187.000
454.5790, 5190.000
455.7690, 5044.000
456.9590, 4915.000
458.1480, 4862.000
459.3380, 4712.000
460.5270, 4657.000
461.7160, 4659.000
462.9050, 4574.000
464.0940, 4583.000
465.2820, 4565.000
466.4700, 4451.000
467.6590, 4436.000
468.8470, 4323.000
470.0350, 4434.000
471.2220, 4404.000
472.4100, 4342.000
473.5970, 4314.000
474.7850, 4237.000
475.9720, 4268.000
477.1590, 4326.000
478.3460, 4304.000
479.5320, 4210.000
480.7190, 4268.000
481.9050, 4316.000
483.0910, 4272.000
484.2770, 4364.000
485.4630, 4211.000
486.6490, 4299.000
487.8340, 4292.000
489.0200, 4323.000
490.2050, 4303.000
491.3900, 4300.000
492.5750, 4352.000
493.7600, 4331.000
494.9440, 4264.000
496.1290, 4356.000
497.3130, 4352.000
498.4970, 4354.000
499.6810, 4438.000
500.8650, 4445.000
502.0480, 4344.000
503.2320, 4354.000
504.4150, 4327.000
505.5980, 4415.000
506.7810, 4460.000
507.9640, 4533.000
509.1460, 4541.000
510.3290, 4482.000
511.5110, 4533.000
512.6930, 4491.000
513.8750, 4573.000
515.0570, 4608.000
516.2390, 4591.000
517.4210, 4594.000
518.6020, 4649.000
519.7830, 4567.000
520.9640, 4652.000
522.1450, 4628.000
523.3260, 4640.000
524.5060, 4659.000
525.6870, 4713.000
526.8670, 4720.000
528.0470, 4688.000
529.2270, 4702.000
530.4070, 4678.000
531.5870, 4730.000
532.7660, 4757.000
533.9450, 4825.000
535.1240, 4812.000
536.3030, 4803.000
537.4820, 4769.000
538.6610, 4922.000
539.8390, 4900.000
541.0180, 4960.000
542.1960, 4961.000
543.3740, 4960.000
544.5520, 4992.000
545.7290, 4996.368
546.9070, 5043.000
548.0840, 5020.000
549.2620, 5068.000
550.4390, 5062.000
551.6160, 5076.000
552.7920, 5086.000
553.9690, 5204.000
555.1450, 5211.000
556.3220, 5143.000
557.4980, 5278.000
558.6740, 5226.000
559.8490, 5332.000
561.0250, 5420.000
562.2000, 5467.000
563.3760, 5528.131
564.5510, 5585.004
565.7260, 5594.000
566.9010, 5685.000
568.0750, 5707.000
569.2500, 5756.000
570.4240, 5918.000
571.5980, 6072.000
572.7720, 6295.000
573.9460, 6440.000
575.1200, 6663.459
576.2930, 6778.000
577.4670, 7126.000
578.6400, 7325.000
579.8130, 7613.000
580.9860, 7699.000
582.1590, 7842.000
583.3310, 8084.000
584.5040, 8132.000
585.6760, 8332.000
586.8480, 8823.000
588.0200, 9321.000
589.1920, 9461.000
590.3630, 9528.000
591.5350, 9240.000
592.7060, 8739.000
593.8770, 8184.000
595.0480, 7771.000
596.2190, 7491.000
597.3900, 7469.000
598.5600, 7254.000
599.7310, 7384.000
600.9010, 7473.000
602.0710, 7665.000
603.2410, 7831.000
604.4100, 8060.000
605.5800, 7823.000
606.7490, 7828.000
607.9190, 7584.000
609.0880, 7288.000
610.2570, 7100.000
611.4250, 6950.000
612.5940, 6743.000
613.7620, 6733.000
614.9310, 6692.000
616.0990, 6612.000
617.2670, 6466.000
618.4340, 6479.000
619.6020, 6406.000
620.7690, 6296.000
621.9370, 6342.000
623.1040, 6339.000
624.2710, 6268.000
625.4380, 6275.000
626.6040, 6287.979
627.7710, 6433.000
628.9370, 6350.000
630.1030, 6449.000
631.2690, 6491.000
632.4350, 6485.000
633.6010, 6526.000
634.7660, 6501.000
635.9320, 6530.000
637.0970, 6597.000
638.2620, 6670.000
639.4270, 6536.000
640.5920, 6662.000
641.7560, 6685.000
642.9210, 6825.000
644.0850, 6873.000
645.2490, 6881.000
646.4130, 6934.000
647.5770, 6901.000
648.7400, 6948.000
649.9040, 6933.000
651.0670, 6971.000
652.2300, 7002.000
653.3930, 6972.000
654.5560, 7002.000
655.7190, 6965.000
656.8810, 6928.000
658.0440, 7006.000
659.2060, 6951.000
660.3680, 6903.000
661.5300, 6930.000
662.6910, 6951.000
663.8530, 6846.000
665.0140, 6874.000
666.1750, 6800.000
667.3360, 6901.000
668.4970, 6867.000
669.6580, 6925.000
670.8190, 6922.610
671.9790, 6830.000
673.1390, 6905.000
674.2990, 6878.000
675.4590, 6870.000
676.6190, 6866.000
677.7790, 6846.000
678.9380, 6860.000
680.0970, 6832.000
681.2570, 6836.000
682.4160, 6890.000
683.5740, 6935.000
684.7330, 6901.000
685.8920, 7003.000
687.0500, 6970.000
688.2080, 6892.000
689.3660, 7055.000
690.5240, 7004.000
691.6820, 7018.000
692.8390, 6993.000
693.9960, 7015.000
695.1540, 7006.482
696.3110, 7077.000
697.4680, 7039.000
698.6240, 7089.000
699.7810, 7188.000
700.9370, 7208.000
702.0940, 7169.000
703.2500, 7136.000
704.4060, 7279.000
705.5610, 7151.000
706.7170, 7139.000
707.8720, 7274.000
709.0280, 7260.000
710.1830, 7332.000
711.3380, 7309.000
712.4920, 7226.000
713.6470, 7373.000
714.8020, 7262.000
715.9560, 7323.000
717.1100, 7436.000
718.2640, 7290.000
719.4180, 7371.000
720.5720, 7426.000
721.7250, 7450.000
722.8780, 7417.000
724.0320, 7514.000
725.1850, 7363.000
726.3380, 7546.000
727.4900, 7622.000
728.6430, 7532.000
729.7950, 7501.000
730.9470, 7588.000
732.1000, 7534.000
733.2510, 7543.000
734.4030, 7528.000
735.5550, 7567.000
736.7060, 7516.000
737.8570, 7686.000
739.0090, 7767.000
740.1600, 7656.000
741.3100, 7570.000
742.4610, 7731.000
743.6110, 7769.000
744.7620, 7785.000
745.9120, 7821.000
747.0620, 7797.000
748.2120, 7726.000
749.3610, 7821.000
750.5110, 7902.000
751.6600, 7846.000
752.8090, 7801.000
753.9580, 7901.000
755.1070, 7962.000
756.2560, 8009.000
757.4050, 7868.000
758.5530, 7978.000
759.7010, 7950.000
760.8490, 8059.000
761.9970, 7980.000
763.1450, 8073.000
764.2920, 7976.000
765.4400, 8110.000
766.5870, 7986.000
767.7340, 8118.000
768.8810, 8258.000
770.0280, 8146.000
771.1740, 8196.000
772.3210, 8198.000
773.4670, 8254.000
774.6130, 8157.000
775.7590, 8291.000
776.9050, 8269.000
778.0510, 8236.000
779.1960, 8428.000
780.3420, 8342.000
781.4870, 8255.000
782.6320, 8340.000
783.7770, 8294.521
784.9210, 8383.000
786.0660, 8384.000
787.2100, 8319.000
788.3540, 8449.000
789.4980, 8437.000
790.6420, 8526.000
791.7860, 8471.000
792.9300, 8457.000
794.0730, 8508.000
795.2160, 8676.000
796.3590, 8690.000
797.5020, 8681.000
798.6450, 8676.000
799.7880, 8640.000
800.9300, 8730.000
802.0720, 8535.000
803.2150, 8760.000
804.3560, 8685.000
805.4980, 8672.000
806.6400, 8741.000
807.7810, 8854.000
808.9230, 8928.000
810.0640, 8734.000
811.2050, 8883.000
812.3460, 8928.000
813.4860, 8859.000
814.6270, 9024.000
815.7670, 9095.000
816.9070, 8899.000
818.0470, 9095.000
819.1870, 9021.000
820.3270, 9112.000
821.4670, 9028.000
822.6060, 9140.000
823.7450, 8962.000
824.8840, 9083.000
826.0230, 9158.000
827.1620, 9148.000
828.3010, 9301.000
829.4390, 9226.000
830.5770, 9378.000
831.7150, 9256.000
832.8530, 9364.000
833.9910, 9290.000
835.1290, 9345.000
836.2660, 9300.000
837.4030, 9325.000
838.5410, 9416.000
839.6780, 9441.000
840.8140, 9527.000
841.9510, 9551.000
843.0870, 9528.000
844.2240, 9617.000
845.3600, 9706.000
846.4960, 9670.000
847.6320, 9669.000
848.7680, 9802.000
849.9030, 9914.000
851.0380, 9715.000
852.1740, 9898.000
853.3090, 9908.000
854.4440, 10071.00
855.5780, 9993.000
856.7130, 10017.00
857.8470, 10050.00
858.9820, 9941.000
860.1160, 10157.00
861.2500, 10122.00
862.3830, 10318.00
863.5170, 10203.00
864.6500, 10249.00
865.7840, 10218.00
866.9170, 10336.00
868.0500, 10344.00
869.1830, 10239.00
870.3150, 10287.00
871.4480, 10301.00
872.5800, 10343.00
873.7120, 10364.68
874.8440, 10364.00
875.9760, 10404.00
877.1080, 10355.00
878.2390, 10360.00
879.3710, 10471.00
880.5020, 10379.00
881.6330, 10465.00
882.7640, 10553.00
883.8940, 10486.00
885.0250, 10380.00
886.1550, 10460.00
887.2850, 10598.00
888.4160, 10497.00
889.5450, 10560.00
890.6750, 10711.00
891.8050, 10605.00
892.9340, 10725.00
894.0630, 10759.00
895.1930, 10709.00
896.3220, 10738.00
897.4500, 10752.00
898.5790, 10769.00
899.7070, 10694.00
900.8360, 10777.00
901.9640, 10886.00
903.0920, 10775.00
904.2200, 10872.73
905.3470, 10935.00
906.4750, 10959.00
907.6020, 11007.00
908.7290, 11040.20
909.8560, 11056.00
910.9830, 11130.00
912.1100, 11141.00
913.2360, 11246.00
914.3630, 11192.00
915.4890, 11219.00
916.6150, 11310.00
917.7410, 11351.00
918.8670, 11259.00
919.9920, 11224.00
921.1180, 11485.00
922.2430, 11366.00
923.3680, 11494.00
924.4930, 11498.00
925.6180, 11581.00
926.7420, 11573.00
927.8670, 11734.00
928.9910, 11633.00
930.1150, 11626.00
931.2390, 11916.00
932.3630, 11894.00
933.4860, 11942.00
934.6100, 12020.00
935.7330, 12067.05
936.8560, 12187.11
937.9790, 12281.00
939.1020, 12473.00
940.2250, 12699.00
941.3470, 12932.00
942.4700, 13200.00
943.5920, 13336.00
944.7140, 13616.00
945.8360, 14239.00
946.9570, 14463.00
948.0790, 14964.00
949.2000, 15648.00
950.3220, 16463.00
951.4430, 17530.00
952.5640, 19056.00
953.6840, 20988.00
954.8050, 23491.00
955.9250, 26966.00
957.0460, 30955.00
958.1660, 36134.00
959.2860, 41714.00
960.4050, 47064.00
961.5250, 52331.00
962.6440, 56271.00
963.7640, 57255.00
964.8830, 54343.00
966.0020, 48305.00
967.1210, 40803.00
968.2390, 34294.00
969.3580, 28580.00
970.4760, 24545.00
971.5940, 21802.00
972.7120, 19275.00
973.8300, 17981.00
974.9480, 16646.00
976.0650, 15731.00
977.1830, 15059.00
978.3000, 14766.00
979.4170, 14403.00
980.5340, 14023.00
981.6500, 13712.00
982.7670, 13579.02
983.8830, 13526.00
985.0000, 13445.00
986.1160, 13499.00
987.2320, 13507.00
988.3470, 13588.00
989.4630, 13344.00
990.5780, 13554.00
991.6940, 13443.00
992.8090, 13596.00
993.9240, 13547.00
995.0380, 13498.00
996.1530, 13519.00
997.2680, 13598.00
998.3820, 13699.00
999.4960, 13777.00
1000.610, 13864.00
1001.724, 13960.00
1002.837, 14057.00
1003.951, 14152.00
1005.064, 14291.00
1006.177, 14380.00
1007.291, 14417.00
1008.403, 14529.00
1009.516, 14480.00
1010.629, 14584.00
1011.741, 14565.00
1012.853, 14394.00
1013.965, 14510.00
1015.077, 14372.00
1016.189, 14427.00
1017.300, 14424.00
1018.412, 14545.00
1019.523, 14568.00
1020.634, 14757.00
1021.745, 14576.00
1022.856, 15147.00
1023.966, 14924.00
1025.077, 15176.00
1026.187, 15232.00
1027.297, 15308.00
1028.407, 15487.00
1029.517, 15649.00
1030.627, 15776.00
1031.736, 15868.00
1032.845, 15852.00
1033.955, 16065.00
1035.064, 16024.00
1036.172, 16285.00
1037.281, 16297.00
1038.390, 16655.00
1039.498, 16899.00
1040.606, 16890.00
1041.714, 17044.00
1042.822, 17083.00
1043.930, 17226.59
1045.037, 17413.88
1046.145, 17550.00
1047.252, 17841.00
1048.359, 18047.00
1049.466, 18291.00
1050.573, 18881.00
1051.679, 18839.00
1052.786, 18784.00
1053.892, 18731.00
1054.998, 18383.00
1056.104, 18105.00
1057.210, 17736.00
1058.315, 17575.00
1059.421, 17362.00
1060.526, 17118.00
1061.631, 16850.00
1062.736, 16805.00
1063.841, 16947.00
1064.946, 16773.00
1066.050, 16913.00
1067.154, 17085.00
1068.258, 17046.00
1069.362, 17252.00
1070.466, 17121.00
1071.570, 17377.00
1072.674, 17523.00
1073.777, 17425.00
1074.880, 17656.00
1075.983, 17579.00
1077.086, 17451.00
1078.189, 17488.00
1079.291, 17720.00
1080.394, 17788.00
1081.496, 17488.52
1082.598, 17097.00
1083.700, 16834.00
1084.802, 16823.00
1085.903, 16676.00
1087.005, 16687.00
1088.106, 16488.00
1089.207, 16461.82
1090.308, 16418.00
1091.409, 16347.00
1092.509, 16360.00
1093.610, 16302.00
1094.710, 16232.00
1095.810, 16273.00
1096.910, 16414.00
1098.010, 16410.00
1099.110, 16287.00
1100.209, 16333.00
1101.309, 16263.00
1102.408, 16248.00
1103.507, 16313.00
1104.606, 16308.00
1105.704, 16276.00
1106.803, 16494.00
1107.901, 16370.00
1108.999, 16570.00
1110.097, 16369.00
1111.195, 16535.00
1112.293, 16433.00
1113.391, 16627.00
1114.488, 16616.00
1115.585, 16720.00
1116.682, 16752.00
1117.779, 16798.00
1118.876, 16943.00
1119.973, 16996.00
1121.069, 16875.00
1122.165, 16955.00
1123.261, 16884.00
1124.357, 17027.00
1125.453, 16954.00
1126.549, 17162.00
1127.644, 17025.00
1128.739, 17050.00
1129.835, 16947.00
1130.930, 17124.00
1132.024, 17109.00
1133.119, 17078.00
1134.214, 17042.00
1135.308, 17215.00
1136.402, 17197.00
1137.496, 17224.00
1138.590, 17216.00
1139.684, 17276.00
1140.777, 17357.00
1141.871, 17343.00
1142.964, 17401.00
1144.057, 17510.00
1145.150, 17399.00
1146.243, 17550.00
1147.335, 17505.00
1148.428, 17531.00
1149.520, 17553.00
1150.612, 17513.00
1151.704, 17633.00
1152.796, 17585.00
1153.887, 17540.00
1154.979, 17566.00
1156.070, 17473.00
1157.161, 17714.00
1158.252, 17526.00
1159.343, 17711.00
1160.433, 17765.00
1161.524, 17817.00
1162.614, 17940.00
1163.704, 17855.00
1164.794, 17887.00
1165.884, 17777.00
1166.974, 17869.00
1168.063, 17957.00
1169.153, 18116.00
1170.242, 18102.00
1171.331, 17900.00
1172.420, 18140.00
1173.508, 18106.00
1174.597, 18014.00
1175.685, 18233.00
1176.774, 17868.00
1177.862, 18006.00
1178.950, 18189.00
1180.037, 17994.00
1181.125, 18036.00
1182.212, 18051.00
1183.300, 18231.00
1184.387, 18246.00
1185.474, 18287.00
1186.560, 18338.00
1187.647, 18338.92
1188.733, 18319.00
1189.820, 18354.00
1190.906, 18331.00
1191.992, 18333.00
1193.078, 18420.00
1194.163, 18465.00
1195.249, 18423.00
1196.334, 18490.00
1197.419, 18592.00
1198.504, 18481.00
1199.589, 18502.00
1200.674, 18584.00
1201.758, 18341.00
1202.843, 18583.00
1203.927, 18732.00
1205.011, 18612.00
1206.095, 18502.00
1207.179, 18554.00
1208.262, 18515.27
1209.345, 18531.00
1210.429, 18688.00
1211.512, 18693.00
1212.595, 19003.00
1213.677, 18906.00
1214.760, 18774.00
1215.842, 18731.00
1216.925, 19020.00
1218.007, 18992.00
1219.089, 19090.00
1220.171, 18984.00
1221.252, 19079.00
1222.334, 19211.00
1223.415, 18995.00
1224.496, 19001.00
1225.577, 19140.00
1226.658, 19234.00
1227.738, 19187.00
1228.819, 19089.00
1229.899, 19267.00
1230.979, 19100.00
1232.060, 19210.00
1233.139, 19328.00
1234.219, 19358.00
1235.299, 19316.00
1236.378, 19515.00
1237.457, 19396.00
1238.536, 19409.00
1239.615, 19416.00
1240.694, 19471.00
1241.772, 19402.00
1242.851, 19303.00
1243.929, 19469.00
1245.007, 19340.00
1246.085, 19489.00
1247.163, 19616.00
1248.240, 19470.00
1249.318, 19378.00
1250.395, 19637.00
1251.472, 19466.00
1252.549, 19617.00
1253.626, 19484.00
1254.703, 19762.00
1255.779, 19526.00
1256.855, 19794.00
1257.931, 19652.00
1259.007, 19710.00
1260.083, 19834.00
1261.159, 19783.00
1262.234, 19818.00
1263.310, 19892.15
1264.385, 19707.00
1265.460, 19985.00
1266.535, 19831.00
1267.610, 19786.00
1268.684, 20002.00
1269.758, 20076.00
1270.833, 20099.00
1271.907, 20141.76
1272.981, 20025.00
1274.054, 20082.00
1275.128, 19978.00
1276.201, 19931.00
1277.275, 20016.00
1278.348, 20020.00
1279.421, 20170.00
1280.493, 20173.00
1281.566, 19982.00
1282.638, 20108.00
1283.711, 20098.00
1284.783, 20141.00
1285.855, 20205.00
1286.927, 20215.00
1287.998, 20202.00
1289.070, 20354.00
1290.141, 20473.00
1291.212, 20432.00
1292.283, 20395.00
1293.354, 20467.00
1294.425, 20407.00
1295.495, 20385.00
1296.566, 20510.00
1297.636, 20468.00
1298.706, 20613.00
1299.776, 20556.00
1300.845, 20553.00
1301.915, 20553.00
1302.984, 20688.00
1304.054, 20761.00
1305.123, 20562.00
1306.191, 20824.00
1307.260, 20733.00
1308.329, 20793.00
1309.397, 20887.00
1310.465, 20874.00
1311.534, 21078.00
1312.602, 20880.00
1313.669, 20832.00
1314.737, 20870.00
1315.804, 21056.00
1316.872, 21080.00
1317.939, 21143.00
1319.006, 21142.00
1320.073, 21081.00
1321.139, 21071.00
1322.206, 21144.00
1323.272, 21136.00
1324.338, 21217.00
1325.404, 21301.00
1326.470, 21225.00
1327.536, 21233.00
1328.601, 21319.00
1329.667, 21255.00
1330.732, 21180.00
1331.797, 21300.00
1332.862, 21452.00
1333.926, 21377.00
1334.991, 21598.00
1336.055, 21439.00
1337.120, 21397.00
1338.184, 21289.00
1339.248, 21426.00
1340.311, 21196.00
1341.375, 21619.00
1342.438, 21602.00
1343.502, 21521.00
1344.565, 21568.00
1345.628, 21492.00
1346.691, 21660.00
1347.753, 21635.00
1348.816, 21668.00
1349.878, 21556.00
1350.940, 21543.00
1352.002, 21635.00
1353.064, 21579.28
1354.126, 21738.00
1355.187, 21665.00
1356.248, 21576.00
1357.310, 21748.00
1358.371, 21862.00
1359.431, 21612.00
1360.492, 21989.00
1361.553, 21823.00
1362.613, 21750.00
1363.673, 21991.00
1364.733, 21929.00
1365.793, 21894.00
1366.853, 21936.00
1367.912, 21937.00
1368.972, 22052.00
1370.031, 21943.00
1371.090, 21853.00
1372.149, 21919.00
1373.208, 21814.00
1374.267, 21890.76
1375.325, 22069.00
1376.383, 22048.00
1377.441, 22067.00
1378.499, 22192.00
1379.557, 22276.00
1380.615, 22299.87
1381.672, 22340.57
1382.730, 22331.00
1383.787, 22357.00
1384.844, 22305.00
1385.901, 22347.00
1386.957, 22337.00
1388.014, 22336.00
1389.070, 22386.00
1390.126, 22532.00
1391.182, 22221.00
1392.238, 22634.00
1393.294, 22519.00
1394.349, 22347.00
1395.405, 22418.00
1396.460, 22493.00
1397.515, 22580.00
1398.570, 22389.00
1399.625, 22354.00
1400.679, 22580.00
1401.734, 22446.00
1402.788, 22644.00
1403.842, 22554.00
1404.896, 22635.00
1405.950, 22466.00
1407.003, 22567.00
1408.057, 22636.00
1409.110, 22540.00
1410.163, 22619.00
1411.216, 22595.00
1412.269, 22718.00
1413.322, 22811.00
1414.374, 22897.00
1415.427, 22818.00
1416.479, 22758.00
1417.531, 22760.00
1418.583, 22680.00
1419.634, 22999.00
1420.686, 22824.00
1421.737, 22933.00
1422.788, 22843.00
1423.839, 22966.00
1424.890, 23036.00
1425.941, 23070.00
1426.992, 22889.00
1428.042, 22982.00
1429.092, 22870.00
1430.142, 22827.00
1431.192, 23053.00
1432.242, 22939.00
1433.291, 23156.00
1434.341, 23124.00
1435.390, 23160.00
1436.439, 23171.00
1437.488, 23217.00
1438.537, 23077.00
1439.586, 23295.00
1440.634, 23245.00
1441.682, 23208.00
1442.731, 23365.00
1443.779, 23208.00
1444.826, 23150.00
1445.874, 23240.00
1446.922, 23338.00
1447.969, 23381.00
1449.016, 23158.00
1450.063, 23221.00
1451.110, 23290.00
1452.157, 23272.00
1453.203, 23347.46
1454.250, 23293.00
1455.296, 23393.00
1456.342, 23441.00
1457.388, 23364.00
1458.433, 23621.00
1459.479, 23432.00
1460.524, 23623.00
1461.570, 23318.00
1462.615, 23600.00
1463.660, 23436.00
1464.705, 23776.00
1465.749, 23622.00
1466.794, 23781.00
1467.838, 23593.00
1468.882, 23898.00
1469.926, 23700.00
1470.970, 23650.00
1472.013, 23891.00
1473.057, 23688.00
1474.100, 23676.00
1475.143, 23947.00
1476.186, 23759.00
1477.229, 23805.00
1478.272, 23682.00
1479.314, 23776.00
1480.357, 23747.00
1481.399, 23808.00
1482.441, 23738.00
1483.483, 23963.00
1484.525, 23883.00
1485.566, 23923.00
1486.608, 23837.00
1487.649, 23968.00
1488.690, 23956.00
1489.731, 23807.00
1490.771, 23771.00
1491.812, 23990.00
1492.853, 23981.00
1493.893, 24047.00
1494.933, 24079.00
1495.973, 23977.00
1497.013, 24033.00
1498.052, 24119.00
1499.092, 24243.00
1500.131, 24299.00
1501.170, 24193.00
1502.209, 24052.00
1503.248, 24201.00
1504.287, 24189.00
1505.325, 24266.00
1506.363, 24167.00
1507.402, 24463.00
1508.440, 24485.00
1509.478, 24326.00
1510.515, 24304.00
1511.553, 24253.00
1512.590, 24605.00
1513.627, 24431.00
1514.664, 24490.00
1515.701, 24483.00
1516.738, 24454.00
1517.775, 24590.00
1518.811, 24552.00
1519.847, 24611.00
1520.883, 24591.00
1521.919, 24630.00
1522.955, 24719.00
1523.991, 24623.00
1525.026, 24833.00
1526.061, 24607.00
1527.096, 24672.00
1528.131, 24751.00
1529.166, 24811.00
1530.201, 24596.00
1531.235, 24734.00
1532.270, 24763.00
1533.304, 24927.00
1534.338, 24848.00
1535.372, 24938.00
1536.405, 24845.00
1537.439, 24844.00
1538.472, 24888.00
1539.505, 24825.00
1540.538, 24983.00
1541.571, 24730.00
1542.604, 24760.00
1543.637, 24855.00
1544.669, 24918.00
1545.701, 25093.00
1546.733, 24911.00
1547.765, 25242.00
1548.797, 25040.00
1549.829, 25186.00
1550.860, 25135.00
1551.891, 25209.00
1552.922, 25010.00
1553.953, 25237.00
1554.984, 25025.00
1556.015, 25113.00
1557.045, 25133.00
1558.076, 25333.00
1559.106, 25305.51
1560.136, 25243.00
1561.165, 25363.00
1562.195, 25195.00
1563.225, 25287.00
1564.254, 25192.00
1565.283, 25428.00
##END=



