##NAMES=Forsterite
##RRUFFID=R060539
##IDEAL CHEMISTRY=Mg_2_SiO_4_
##LOCALITY=Sri Lanka
##OWNER=RRUFF
##SOURCE=Gemological Institute of America
##DESCRIPTION=Brown cut gemstone
##STATUS=The identification of this mineral has been confirmed by X-ray diffraction and chemical analysis
##URL=rruff.info/R060539
##MEASURED CHEMISTRY=(Mg_1.67_Fe_0.33_)_Î£=2_Si_1.00_O_4_; trace amounts of Mn and Ca
##PIN_ID=L01074
##ORIENTATION=Laser parallel to a* (1 0 0). Fiducial mark perpendicular to laser is parallel to b [0 1 0]
168.1040, 1681.000
169.3320, 1677.000
170.5590, 1659.000
171.7860, 1666.000
173.0130, 1638.000
174.2400, 1661.000
175.4670, 1616.000
176.6930, 1720.000
177.9200, 1713.000
179.1460, 1706.000
180.3720, 1700.000
181.5980, 1713.000
182.8230, 1810.000
184.0490, 1775.000
185.2740, 1828.000
186.5000, 1830.000
187.7250, 1867.000
188.9500, 1900.000
190.1740, 1908.000
191.3990, 1864.000
192.6230, 1968.000
193.8480, 2038.000
195.0720, 1985.000
196.2960, 2038.000
197.5200, 2105.000
198.7430, 2108.000
199.9670, 2163.000
201.1900, 2268.000
202.4130, 2329.000
203.6360, 2330.000
204.8590, 2359.000
206.0820, 2400.000
207.3050, 2509.000
208.5270, 2616.000
209.7490, 2657.000
210.9710, 2683.000
212.1930, 2688.000
213.4150, 2746.000
214.6370, 2672.000
215.8580, 2610.000
217.0790, 2656.000
218.3010, 2599.000
219.5210, 2478.000
220.7420, 2401.000
221.9630, 2343.000
223.1830, 2252.000
224.4040, 2148.000
225.6240, 2209.000
226.8440, 2093.000
228.0640, 2123.000
229.2840, 2089.000
230.5030, 2051.000
231.7230, 2008.000
232.9420, 1982.000
234.1610, 1912.000
235.3800, 1892.000
236.5990, 1881.000
237.8170, 1812.000
239.0360, 1836.000
240.2540, 1802.000
241.4720, 1813.000
242.6900, 1750.000
243.9080, 1704.000
245.1250, 1701.000
246.3430, 1678.000
247.5600, 1682.000
248.7770, 1661.000
249.9940, 1688.000
251.2110, 1687.000
252.4280, 1707.000
253.6450, 1709.000
254.8610, 1711.103
256.0770, 1708.146
257.2930, 1719.000
258.5090, 1713.306
259.7250, 1707.958
260.9400, 1704.000
262.1560, 1694.000
263.3710, 1680.000
264.5860, 1685.000
265.8010, 1664.000
267.0160, 1691.000
268.2310, 1686.000
269.4450, 1717.000
270.6600, 1733.000
271.8740, 1758.000
273.0880, 1751.000
274.3020, 1754.000
275.5150, 1779.650
276.7290, 1785.000
277.9420, 1822.000
279.1550, 1855.000
280.3680, 1895.796
281.5810, 1938.000
282.7940, 2005.000
284.0070, 2067.181
285.2190, 2141.000
286.4310, 2225.000
287.6430, 2320.000
288.8550, 2401.000
290.0670, 2551.000
291.2790, 2672.000
292.4900, 2790.000
293.7020, 2834.000
294.9130, 2981.000
296.1240, 2947.000
297.3350, 2952.000
298.5450, 2996.000
299.7560, 2904.000
300.9660, 2713.000
302.1760, 2595.000
303.3860, 2529.000
304.5960, 2432.000
305.8060, 2401.000
307.0150, 2317.000
308.2250, 2242.000
309.4340, 2258.000
310.6430, 2187.000
311.8520, 2223.000
313.0610, 2300.000
314.2700, 2289.000
315.4780, 2311.000
316.6860, 2298.000
317.8940, 2260.000
319.1020, 2302.000
320.3100, 2332.000
321.5180, 2308.000
322.7250, 2332.000
323.9330, 2279.000
325.1400, 2282.000
326.3470, 2287.000
327.5540, 2242.000
328.7600, 2246.000
329.9670, 2256.000
331.1730, 2349.000
332.3800, 2344.000
333.5860, 2349.000
334.7920, 2250.000
335.9970, 2263.000
337.2030, 2197.000
338.4080, 2129.000
339.6140, 2125.000
340.8190, 2091.000
342.0240, 1986.000
343.2290, 2039.000
344.4330, 2046.000
345.6380, 1920.000
346.8420, 1924.000
348.0460, 1908.000
349.2500, 1931.000
350.4540, 1926.000
351.6580, 1865.000
352.8610, 1866.000
354.0650, 1885.000
355.2680, 1840.000
356.4710, 1892.000
357.6740, 1877.000
358.8760, 1890.000
360.0790, 1854.000
361.2810, 1842.000
362.4840, 1839.000
363.6860, 1897.000
364.8880, 1876.000
366.0900, 1875.000
367.2910, 1824.000
368.4930, 1823.000
369.6940, 1803.000
370.8950, 1837.000
372.0960, 1839.000
373.2970, 1832.000
374.4980, 1838.000
375.6980, 1822.000
376.8980, 1790.000
378.0990, 1782.000
379.2990, 1764.099
380.4980, 1732.000
381.6980, 1749.000
382.8980, 1749.000
384.0970, 1764.000
385.2960, 1744.000
386.4950, 1727.000
387.6940, 1712.000
388.8930, 1790.000
390.0920, 1699.000
391.2900, 1736.000
392.4880, 1801.000
393.6860, 1762.000
394.8840, 1744.000
396.0820, 1776.000
397.2800, 1837.000
398.4770, 1816.000
399.6750, 1801.000
400.8720, 1787.000
402.0690, 1857.000
403.2660, 1841.000
404.4620, 1843.000
405.6590, 1858.000
406.8550, 1864.000
408.0510, 1887.000
409.2480, 1880.000
410.4430, 1931.000
411.6390, 1963.000
412.8350, 1918.000
414.0300, 1963.000
415.2250, 1941.000
416.4200, 1957.000
417.6150, 1939.000
418.8100, 1928.000
420.0050, 1970.000
421.1990, 1989.000
422.3940, 1957.000
423.5880, 1948.000
424.7820, 1954.000
425.9750, 1958.000
427.1690, 1989.000
428.3630, 1983.000
429.5560, 1968.000
430.7490, 2020.000
431.9420, 2026.000
433.1350, 2015.419
434.3280, 1979.000
435.5200, 1990.000
436.7130, 1949.000
437.9050, 1936.000
439.0970, 1945.000
440.2890, 1910.000
441.4810, 1915.000
442.6720, 1924.000
443.8640, 1927.000
445.0550, 1914.000
446.2460, 1963.000
447.4370, 1953.000
448.6280, 1948.000
449.8180, 1898.000
451.0090, 1874.000
452.1990, 1953.000
453.3890, 1992.000
454.5790, 1976.000
455.7690, 1967.000
456.9590, 1943.000
458.1480, 1942.000
459.3380, 1952.028
460.5270, 1993.000
461.7160, 1991.000
462.9050, 1991.000
464.0940, 2016.000
465.2820, 2019.000
466.4700, 2061.000
467.6590, 2041.000
468.8470, 2072.000
470.0350, 2067.000
471.2220, 2065.671
472.4100, 2051.000
473.5970, 2061.000
474.7850, 2046.000
475.9720, 2040.000
477.1590, 2041.380
478.3460, 2038.000
479.5320, 2032.000
480.7190, 2044.000
481.9050, 2027.000
483.0910, 2054.000
484.2770, 2035.000
485.4630, 2075.000
486.6490, 2064.000
487.8340, 2065.000
489.0200, 2086.000
490.2050, 2026.000
491.3900, 2055.000
492.5750, 2015.000
493.7600, 2117.000
494.9440, 2075.000
496.1290, 2135.000
497.3130, 2069.000
498.4970, 2128.000
499.6810, 2165.000
500.8650, 2147.000
502.0480, 2162.000
503.2320, 2167.000
504.4150, 2184.000
505.5980, 2199.371
506.7810, 2200.880
507.9640, 2225.000
509.1460, 2225.000
510.3290, 2215.000
511.5110, 2265.000
512.6930, 2248.000
513.8750, 2291.000
515.0570, 2321.000
516.2390, 2285.000
517.4210, 2355.000
518.6020, 2350.000
519.7830, 2297.000
520.9640, 2400.000
522.1450, 2393.000
523.3260, 2393.000
524.5060, 2396.000
525.6870, 2485.000
526.8670, 2572.000
528.0470, 2618.000
529.2270, 2633.000
530.4070, 2773.000
531.5870, 2775.000
532.7660, 2831.000
533.9450, 2950.000
535.1240, 3000.000
536.3030, 3068.000
537.4820, 3072.000
538.6610, 3040.000
539.8390, 2949.000
541.0180, 2808.000
542.1960, 2715.000
543.3740, 2614.273
544.5520, 2519.307
545.7290, 2438.000
546.9070, 2376.000
548.0840, 2318.000
549.2620, 2293.000
550.4390, 2332.000
551.6160, 2331.000
552.7920, 2306.000
553.9690, 2315.359
555.1450, 2278.000
556.3220, 2293.000
557.4980, 2277.000
558.6740, 2267.000
559.8490, 2190.000
561.0250, 2295.000
562.2000, 2203.000
563.3760, 2292.000
564.5510, 2294.000
565.7260, 2289.000
566.9010, 2360.000
568.0750, 2306.000
569.2500, 2315.000
570.4240, 2380.000
571.5980, 2365.000
572.7720, 2371.000
573.9460, 2343.000
575.1200, 2409.000
576.2930, 2389.000
577.4670, 2441.000
578.6400, 2437.000
579.8130, 2431.000
580.9860, 2518.000
582.1590, 2487.000
583.3310, 2538.000
584.5040, 2505.000
585.6760, 2594.000
586.8480, 2514.000
588.0200, 2510.000
589.1920, 2482.000
590.3630, 2540.000
591.5350, 2489.000
592.7060, 2524.000
593.8770, 2562.000
595.0480, 2527.000
596.2190, 2569.000
597.3900, 2574.000
598.5600, 2663.000
599.7310, 2649.000
600.9010, 2631.000
602.0710, 2676.000
603.2410, 2673.000
604.4100, 2658.267
605.5800, 2664.000
606.7490, 2626.000
607.9190, 2638.000
609.0880, 2637.000
610.2570, 2602.000
611.4250, 2559.000
612.5940, 2568.000
613.7620, 2526.000
614.9310, 2509.371
616.0990, 2476.000
617.2670, 2464.000
618.4340, 2468.000
619.6020, 2442.000
620.7690, 2435.000
621.9370, 2382.000
623.1040, 2440.000
624.2710, 2407.000
625.4380, 2429.000
626.6040, 2387.000
627.7710, 2470.000
628.9370, 2398.000
630.1030, 2430.000
631.2690, 2485.000
632.4350, 2406.000
633.6010, 2345.000
634.7660, 2356.000
635.9320, 2408.000
637.0970, 2356.000
638.2620, 2418.000
639.4270, 2435.000
640.5920, 2407.000
641.7560, 2444.000
642.9210, 2417.000
644.0850, 2443.000
645.2490, 2389.000
646.4130, 2366.000
647.5770, 2401.000
648.7400, 2430.000
649.9040, 2423.000
651.0670, 2402.000
652.2300, 2403.000
653.3930, 2433.000
654.5560, 2438.000
655.7190, 2430.000
656.8810, 2408.000
658.0440, 2452.000
659.2060, 2437.000
660.3680, 2477.000
661.5300, 2437.000
662.6910, 2484.000
663.8530, 2460.000
665.0140, 2534.000
666.1750, 2452.000
667.3360, 2411.000
668.4970, 2483.000
669.6580, 2502.000
670.8190, 2486.000
671.9790, 2426.000
673.1390, 2499.000
674.2990, 2519.000
675.4590, 2506.000
676.6190, 2552.000
677.7790, 2569.000
678.9380, 2584.000
680.0970, 2580.000
681.2570, 2589.799
682.4160, 2560.000
683.5740, 2574.000
684.7330, 2610.000
685.8920, 2565.000
687.0500, 2577.000
688.2080, 2606.000
689.3660, 2638.000
690.5240, 2617.000
691.6820, 2593.000
692.8390, 2597.000
693.9960, 2602.104
695.1540, 2600.000
696.3110, 2638.000
697.4680, 2667.000
698.6240, 2685.000
699.7810, 2686.000
700.9370, 2623.000
702.0940, 2651.000
703.2500, 2654.000
704.4060, 2727.000
705.5610, 2626.000
706.7170, 2692.000
707.8720, 2661.000
709.0280, 2645.000
710.1830, 2702.000
711.3380, 2747.000
712.4920, 2683.000
713.6470, 2732.000
714.8020, 2709.000
715.9560, 2670.000
717.1100, 2686.000
718.2640, 2762.000
719.4180, 2752.000
720.5720, 2749.000
721.7250, 2790.000
722.8780, 2779.000
724.0320, 2823.000
725.1850, 2881.000
726.3380, 2830.000
727.4900, 2808.000
728.6430, 2933.000
729.7950, 2840.000
730.9470, 2882.000
732.1000, 2830.000
733.2510, 2847.000
734.4030, 2957.000
735.5550, 2893.000
736.7060, 2931.000
737.8570, 2944.000
739.0090, 2950.000
740.1600, 2928.000
741.3100, 2980.000
742.4610, 2948.000
743.6110, 2981.000
744.7620, 2952.000
745.9120, 2976.000
747.0620, 2971.000
748.2120, 3014.000
749.3610, 3006.000
750.5110, 3082.000
751.6600, 3016.000
752.8090, 3012.000
753.9580, 3008.000
755.1070, 3088.000
756.2560, 3058.000
757.4050, 3077.000
758.5530, 3073.000
759.7010, 3109.000
760.8490, 3129.000
761.9970, 3163.000
763.1450, 3149.000
764.2920, 3167.000
765.4400, 3102.000
766.5870, 3197.000
767.7340, 3235.000
768.8810, 3237.000
770.0280, 3323.000
771.1740, 3263.000
772.3210, 3362.000
773.4670, 3377.863
774.6130, 3366.011
775.7590, 3455.000
776.9050, 3347.000
778.0510, 3386.000
779.1960, 3355.000
780.3420, 3401.000
781.4870, 3493.000
782.6320, 3460.000
783.7770, 3560.000
784.9210, 3506.000
786.0660, 3639.000
787.2100, 3621.000
788.3540, 3671.000
789.4980, 3667.000
790.6420, 3768.000
791.7860, 3785.000
792.9300, 3827.000
794.0730, 3905.000
795.2160, 3913.000
796.3590, 4036.000
797.5020, 4165.000
798.6450, 4157.000
799.7880, 4291.000
800.9300, 4354.000
802.0720, 4568.000
803.2150, 4777.000
804.3560, 4965.000
805.4980, 5257.000
806.6400, 5594.000
807.7810, 5970.000
808.9230, 6580.000
810.0640, 7255.000
811.2050, 8159.000
812.3460, 9146.000
813.4860, 10612.00
814.6270, 12144.00
815.7670, 13969.00
816.9070, 15447.00
818.0470, 17128.00
819.1870, 17937.00
820.3270, 18409.00
821.4670, 18070.00
822.6060, 16945.00
823.7450, 15775.00
824.8840, 14576.00
826.0230, 13578.00
827.1620, 12604.00
828.3010, 11934.00
829.4390, 11509.00
830.5770, 11291.00
831.7150, 11141.00
832.8530, 11345.84
833.9910, 11762.00
835.1290, 12224.00
836.2660, 12899.00
837.4030, 13736.00
838.5410, 14927.00
839.6780, 16075.00
840.8140, 17915.00
841.9510, 20171.00
843.0870, 23006.00
844.2240, 26404.00
845.3600, 30174.00
846.4960, 34106.00
847.6320, 38458.00
848.7680, 42356.00
849.9030, 45539.00
851.0380, 47558.00
852.1740, 47628.00
853.3090, 46338.00
854.4440, 43333.00
855.5780, 39237.00
856.7130, 34889.00
857.8470, 30700.00
858.9820, 26313.00
860.1160, 22862.00
861.2500, 19847.00
862.3830, 17316.00
863.5170, 15202.00
864.6500, 13656.00
865.7840, 11866.00
866.9170, 10960.00
868.0500, 9921.000
869.1830, 9114.000
870.3150, 8460.000
871.4480, 7867.000
872.5800, 7525.000
873.7120, 7022.000
874.8440, 6821.000
875.9760, 6664.000
877.1080, 6365.000
878.2390, 6199.000
879.3710, 5943.000
880.5020, 5755.000
881.6330, 5585.000
882.7640, 5342.000
883.8940, 5221.000
885.0250, 5078.000
886.1550, 4962.000
887.2850, 4834.000
888.4160, 4774.000
889.5450, 4744.000
890.6750, 4646.000
891.8050, 4635.000
892.9340, 4543.000
894.0630, 4529.758
895.1930, 4591.000
896.3220, 4495.000
897.4500, 4489.000
898.5790, 4460.000
899.7070, 4434.000
900.8360, 4508.000
901.9640, 4477.000
903.0920, 4442.000
904.2200, 4483.000
905.3470, 4586.000
906.4750, 4610.000
907.6020, 4675.000
908.7290, 4897.000
909.8560, 4950.000
910.9830, 5128.000
912.1100, 5366.000
913.2360, 5639.000
914.3630, 5718.000
915.4890, 5878.000
916.6150, 5855.000
917.7410, 5708.000
918.8670, 5607.000
919.9920, 5318.000
921.1180, 5170.000
922.2430, 5047.000
923.3680, 5022.000
924.4930, 4843.000
925.6180, 4916.000
926.7420, 4964.000
927.8670, 4876.000
928.9910, 4966.000
930.1150, 4945.000
931.2390, 5052.000
932.3630, 5107.000
933.4860, 5248.000
934.6100, 5293.000
935.7330, 5456.000
936.8560, 5567.000
937.9790, 5768.000
939.1020, 5816.000
940.2250, 6137.000
941.3470, 6297.000
942.4700, 6496.000
943.5920, 6874.000
944.7140, 7012.000
945.8360, 7375.000
946.9570, 7758.000
948.0790, 7984.000
949.2000, 8330.396
950.3220, 8578.083
951.4430, 8797.000
952.5640, 8992.000
953.6840, 8973.000
954.8050, 9005.000
955.9250, 8982.000
957.0460, 8792.000
958.1660, 8590.000
959.2860, 8257.000
960.4050, 7910.000
961.5250, 7659.000
962.6440, 7281.000
963.7640, 7001.000
964.8830, 6714.000
966.0020, 6359.000
967.1210, 6187.000
968.2390, 5778.000
969.3580, 5500.000
970.4760, 5245.000
971.5940, 5014.048
972.7120, 4901.000
973.8300, 4685.000
974.9480, 4611.617
976.0650, 4491.000
977.1830, 4424.000
978.3000, 4333.000
979.4170, 4224.000
980.5340, 4139.000
981.6500, 4144.000
982.7670, 4113.000
983.8830, 4044.000
985.0000, 3940.000
986.1160, 3965.000
987.2320, 3898.000
988.3470, 3939.000
989.4630, 3890.000
990.5780, 3908.000
991.6940, 3843.000
992.8090, 3893.000
993.9240, 3851.000
995.0380, 3803.000
996.1530, 3833.000
997.2680, 3815.000
998.3820, 3791.000
999.4960, 3842.000
1000.610, 3789.000
1001.724, 3742.000
1002.837, 3752.000
1003.951, 3738.000
1005.064, 3771.000
1006.177, 3711.000
1007.291, 3753.000
1008.403, 3776.000
1009.516, 3715.000
1010.629, 3695.000
1011.741, 3785.000
1012.853, 3800.000
1013.965, 3830.000
1015.077, 3847.000
1016.189, 3846.456
1017.300, 3739.000
1018.412, 3824.000
1019.523, 3799.000
1020.634, 3756.000
1021.745, 3847.000
1022.856, 3779.147
1023.966, 3774.453
1025.077, 3754.000
1026.187, 3727.000
1027.297, 3778.000
1028.407, 3792.000
1029.517, 3811.000
1030.627, 3788.000
1031.736, 3800.000
1032.845, 3810.000
1033.955, 3888.880
1035.064, 3850.915
1036.172, 3866.658
1037.281, 3816.000
1038.390, 3808.000
1039.498, 3799.000
1040.606, 3784.179
1041.714, 3795.000
1042.822, 3764.000
1043.930, 3803.000
1045.037, 3761.000
1046.145, 3810.000
1047.252, 3805.000
1048.359, 3749.000
1049.466, 3829.000
1050.573, 3771.000
1051.679, 3804.000
1052.786, 3754.000
1053.892, 3695.000
1054.998, 3658.000
1056.104, 3819.000
1057.210, 3835.000
1058.315, 3792.000
1059.421, 3806.000
1060.526, 3756.000
1061.631, 3758.000
1062.736, 3737.000
1063.841, 3770.000
1064.946, 3765.000
1066.050, 3751.000
1067.154, 3756.000
1068.258, 3751.056
1069.362, 3787.000
1070.466, 3771.000
1071.570, 3787.000
1072.674, 3840.000
1073.777, 3809.000
1074.880, 3755.000
1075.983, 3796.000
1077.086, 3774.000
1078.189, 3781.000
1079.291, 3803.000
1080.394, 3811.000
1081.496, 3763.000
1082.598, 3878.000
1083.700, 3798.000
1084.802, 3827.000
1085.903, 3817.000
1087.005, 3800.000
1088.106, 3792.000
1089.207, 3809.000
1090.308, 3793.000
1091.409, 3798.000
1092.509, 3804.000
1093.610, 3788.000
1094.710, 3837.000
1095.810, 3770.000
1096.910, 3819.000
1098.010, 3882.000
1099.110, 3779.552
1100.209, 3886.399
1101.309, 3943.297
1102.408, 3952.943
1103.507, 3773.783
1104.606, 3838.426
1105.704, 3805.371
1106.803, 3768.302
1107.901, 3867.266
1108.999, 3715.574
1110.097, 3812.381
1111.195, 3888.000
1112.293, 3814.000
1113.391, 3864.000
1114.488, 3861.000
1115.585, 3830.000
1116.682, 3822.000
1117.779, 3926.000
1118.876, 3863.000
1119.973, 3878.000
1121.069, 3826.000
1122.165, 3886.000
1123.261, 3850.000
1124.357, 3904.000
1125.453, 3889.000
1126.549, 3898.000
1127.644, 3885.000
1128.739, 3838.000
1129.835, 3873.000
1130.930, 3840.959
1132.024, 3885.000
1133.119, 3843.000
1134.214, 3902.000
1135.308, 3961.000
1136.402, 3968.000
1137.496, 3983.000
1138.590, 3945.000
1139.684, 3957.000
1140.777, 3946.000
1141.871, 3933.000
1142.964, 3951.000
1144.057, 3957.000
1145.150, 3942.000
1146.243, 3944.000
1147.335, 3947.000
1148.428, 4008.000
1149.520, 3941.000
1150.612, 3954.000
1151.704, 4032.000
1152.796, 3971.000
1153.887, 4009.000
1154.979, 4010.000
1156.070, 3942.346
1157.161, 4050.555
1158.252, 4108.822
1159.343, 4119.829
1160.433, 3942.037
1161.524, 4008.042
1162.614, 3976.347
1163.704, 3940.646
1164.794, 4040.971
1165.884, 3890.639
1166.974, 3988.807
1168.063, 3987.784
1169.153, 4032.155
1170.242, 3978.223
1171.331, 3964.000
1172.420, 3954.000
1173.508, 4001.000
1174.597, 3958.000
1175.685, 4001.000
1176.774, 3995.000
1177.862, 3950.000
1178.950, 3971.000
1180.037, 3864.000
1181.125, 3879.000
1182.212, 3861.694
1183.300, 3956.000
1184.387, 3875.000
1185.474, 3895.000
1186.560, 3947.000
1187.647, 3929.000
1188.733, 3886.000
1189.820, 3928.000
1190.906, 4014.000
1191.992, 3975.000
1193.078, 3965.000
1194.163, 4036.000
1195.249, 3972.000
1196.334, 3984.000
1197.419, 4040.000
1198.504, 4027.000
1199.589, 4039.111
1200.674, 3967.000
1201.758, 4014.000
1202.843, 4020.000
1203.927, 3973.000
1205.011, 3983.000
1206.095, 4025.000
1207.179, 4051.000
1208.262, 4021.000
1209.345, 4061.000
1210.429, 3962.000
1211.512, 3996.000
1212.595, 3978.000
1213.677, 4033.000
1214.760, 4081.000
1215.842, 4066.000
1216.925, 3979.000
1218.007, 4056.000
1219.089, 3971.000
1220.171, 4073.000
1221.252, 3997.000
1222.334, 3974.000
1223.415, 3955.000
1224.496, 3955.000
1225.577, 3993.000
1226.658, 4032.000
1227.738, 3988.000
1228.819, 3981.000
1229.899, 4005.000
1230.979, 4011.000
1232.060, 4070.000
1233.139, 4017.000
1234.219, 3956.000
1235.299, 3998.000
1236.378, 3998.000
1237.457, 3994.000
1238.536, 3979.000
1239.615, 3985.000
1240.694, 3953.000
1241.772, 3954.000
1242.851, 3929.000
1243.929, 3973.000
1245.007, 4011.000
1246.085, 4015.000
1247.163, 3953.000
1248.240, 4006.000
1249.318, 3980.000
1250.395, 3991.000
1251.472, 4008.000
1252.549, 3958.000
1253.626, 3975.000
1254.703, 3946.000
1255.779, 3942.000
1256.855, 4005.000
1257.931, 4028.000
1259.007, 4057.000
1260.083, 4002.000
1261.159, 3973.000
1262.234, 3920.000
1263.310, 3900.000
1264.385, 3936.000
1265.460, 3902.000
1266.535, 3958.000
1267.610, 3968.000
1268.684, 3926.000
1269.758, 4014.000
1270.833, 3913.000
1271.907, 4017.000
1272.981, 4009.000
1274.054, 3952.000
1275.128, 3929.000
1276.201, 3963.000
1277.275, 3898.000
1278.348, 3932.000
1279.421, 3940.000
1280.493, 3934.000
1281.566, 3960.040
1282.638, 4003.000
1283.711, 3980.000
1284.783, 3986.000
1285.855, 3976.000
1286.927, 4008.000
1287.998, 4052.000
1289.070, 3932.000
1290.141, 3927.000
1291.212, 3959.000
1292.283, 3960.000
1293.354, 3907.000
1294.425, 3948.000
1295.495, 3916.000
1296.566, 3981.000
1297.636, 4000.000
1298.706, 4006.000
1299.776, 4027.000
1300.845, 3992.000
1301.915, 4019.000
1302.984, 4006.000
1304.054, 3926.000
1305.123, 4002.000
1306.191, 3934.000
1307.260, 4015.000
1308.329, 3977.000
1309.397, 3937.000
1310.465, 3959.000
1311.534, 4052.000
1312.602, 3982.000
1313.669, 3987.000
1314.737, 4039.000
1315.804, 4005.000
1316.872, 3995.000
1317.939, 3988.000
1319.006, 4047.000
1320.073, 4011.000
1321.139, 4057.000
1322.206, 3991.000
1323.272, 4059.000
1324.338, 3989.000
1325.404, 4006.000
1326.470, 4037.000
1327.536, 4064.000
1328.601, 3978.000
1329.667, 3987.000
1330.732, 4004.000
1331.797, 4042.000
1332.862, 4052.589
1333.926, 4056.000
1334.991, 4085.000
1336.055, 4022.000
1337.120, 4014.000
1338.184, 4112.000
1339.248, 4055.000
1340.311, 3987.000
1341.375, 4062.000
1342.438, 3980.000
1343.502, 4004.000
1344.565, 4011.000
1345.628, 3970.000
1346.691, 3984.000
1347.753, 3986.000
1348.816, 3999.000
1349.878, 4006.000
1350.940, 4017.008
1352.002, 4016.679
1353.064, 4033.000
1354.126, 4010.000
1355.187, 3997.000
1356.248, 3986.000
1357.310, 4050.000
1358.371, 4123.000
1359.431, 4063.000
1360.492, 4044.000
1361.553, 4028.000
1362.613, 4116.000
1363.673, 4101.000
1364.733, 4076.000
1365.793, 4037.000
1366.853, 4020.359
1367.912, 4015.519
1368.972, 4008.000
1370.031, 4013.000
1371.090, 4026.928
1372.149, 4032.276
1373.208, 4040.141
1374.267, 4056.000
1375.325, 4054.000
1376.383, 4060.290
1377.441, 4067.296
1378.499, 4078.000
1379.557, 4093.000
1380.615, 4093.000
1381.672, 4109.000
1382.730, 4041.000
1383.787, 4058.000
1384.844, 4093.000
1385.901, 4009.000
1386.957, 4096.000
1388.014, 4085.000
1389.070, 4005.000
1390.126, 4113.000
1391.182, 4060.000
1392.238, 4108.000
1393.294, 4026.000
1394.349, 3996.000
1395.405, 4047.000
1396.460, 4044.000
1397.515, 4058.000
1398.570, 4098.000
1399.625, 4089.000
1400.679, 4021.000
1401.734, 4078.000
1402.788, 4044.000
1403.842, 4122.000
1404.896, 4052.000
1405.950, 4120.000
1407.003, 4105.000
1408.057, 4114.000
1409.110, 4131.000
1410.163, 4092.000
1411.216, 4029.000
1412.269, 3991.000
1413.322, 4000.099
1414.374, 4011.000
1415.427, 4041.000
1416.479, 4065.000
1417.531, 4090.000
1418.583, 4095.000
1419.634, 4111.113
1420.686, 4102.477
1421.737, 4114.000
1422.788, 4090.000
1423.839, 4061.000
1424.890, 4082.000
1425.941, 4159.000
1426.992, 4042.000
1428.042, 4027.000
1429.092, 4029.000
1430.142, 4151.000
1431.192, 4073.000
1432.242, 4058.000
1433.291, 4113.000
1434.341, 4054.000
1435.390, 4112.000
1436.439, 4117.000
1437.488, 4138.000
1438.537, 4069.000
1439.586, 4079.000
1440.634, 4089.000
1441.682, 4120.000
1442.731, 4141.000
1443.779, 4131.000
1444.826, 4108.000
1445.874, 4068.000
1446.922, 4147.000
1447.969, 4108.000
1449.016, 4194.000
1450.063, 4072.000
1451.110, 4150.000
1452.157, 4192.000
1453.203, 4147.000
1454.250, 4155.000
1455.296, 4140.000
1456.342, 4062.000
1457.388, 4182.000
1458.433, 4104.000
1459.479, 4131.000
1460.524, 4214.000
1461.570, 4110.000
1462.615, 4136.000
1463.660, 4109.000
1464.705, 4147.000
1465.749, 4173.000
1466.794, 4204.000
1467.838, 4150.000
1468.882, 4063.000
1469.926, 4152.000
1470.970, 4156.000
1472.013, 4251.000
1473.057, 4129.000
1474.100, 4155.000
1475.143, 4143.000
1476.186, 4112.000
1477.229, 4143.000
1478.272, 4127.000
1479.314, 4118.000
1480.357, 4138.000
1481.399, 4111.000
1482.441, 4177.000
1483.483, 4167.000
1484.525, 4136.000
1485.566, 4183.000
1486.608, 4167.000
1487.649, 4107.000
1488.690, 4134.000
1489.731, 4054.000
1490.771, 4062.000
1491.812, 4212.000
1492.853, 4099.000
1493.893, 4169.000
1494.933, 4208.000
1495.973, 4107.000
1497.013, 4106.000
1498.052, 4079.000
1499.092, 4099.000
1500.131, 4112.000
1501.170, 4223.000
1502.209, 4126.000
1503.248, 4158.000
1504.287, 4143.000
1505.325, 4094.000
1506.363, 4143.000
1507.402, 4053.000
1508.440, 4098.000
1509.478, 4145.000
1510.515, 4138.000
1511.553, 4144.223
1512.590, 4120.000
1513.627, 4118.000
1514.664, 4089.000
1515.701, 4097.000
1516.738, 4160.000
1517.775, 4204.000
1518.811, 4158.000
1519.847, 4195.378
1520.883, 4143.000
1521.919, 4162.000
1522.955, 4217.000
1523.991, 4147.000
1525.026, 4103.000
1526.061, 4144.000
1527.096, 4194.000
1528.131, 4146.000
1529.166, 4212.000
1530.201, 4196.000
1531.235, 4106.000
1532.270, 4110.000
1533.304, 4094.000
1534.338, 4097.000
1535.372, 4087.000
1536.405, 4090.616
1537.439, 4103.000
1538.472, 4101.000
1539.505, 4129.000
1540.538, 4136.000
1541.571, 4053.000
1542.604, 4171.000
1543.637, 4030.000
1544.669, 4083.000
1545.701, 4087.000
1546.733, 4056.000
1547.765, 4208.000
1548.797, 4114.000
1549.829, 4156.000
1550.860, 4095.000
1551.891, 4188.000
1552.922, 4171.000
1553.953, 4166.000
1554.984, 4202.000
1556.015, 4201.000
1557.045, 4176.265
1558.076, 4179.000
1559.106, 4124.000
1560.136, 4069.000
1561.165, 4068.000
1562.195, 4171.000
1563.225, 4137.000
1564.254, 4122.000
1565.283, 4153.000
##END=



