##NAMES=Forsterite
##RRUFFID=R060551
##IDEAL CHEMISTRY=Mg_2_SiO_4_
##LOCALITY=Kohiston, Pakistan
##OWNER=RRUFF
##SOURCE=Gemological Institute of America
##DESCRIPTION=Pale green fragment
##STATUS=The identification of this mineral has been confirmed by X-ray diffraction and chemical analysis
##URL=rruff.info/R060551
##MEASURED CHEMISTRY=(Mg_1.82_Fe_0.18_)_Î£=2_Si_1.00_O_4_; trace amounts of Mn
##PIN_ID=M00884
##ORIENTATION=Laser parallel to a* (1 0 0). Fiducial mark perpendicular to laser is parallel to c [0 0 1]
62.89900, 224.0000
64.14700, 267.0000
65.39500, 263.0000
66.64300, 289.0000
67.89000, 358.0000
69.13800, 346.0000
70.38500, 437.0000
71.63200, 448.0000
72.87900, 541.0000
74.12500, 535.0000
75.37200, 637.0000
76.61800, 633.0000
77.86400, 755.0000
79.10900, 836.0000
80.35500, 883.0000
81.60000, 945.0000
82.84600, 1086.000
84.09100, 1185.000
85.33500, 1220.000
86.58000, 1272.000
87.82400, 1352.000
89.06900, 1441.000
90.31300, 1533.000
91.55600, 1582.000
92.80000, 1655.000
94.04300, 1681.478
95.28700, 1639.000
96.53000, 1715.000
97.77300, 1713.000
99.01500, 1722.000
100.2580, 1741.000
101.5000, 1750.000
102.7420, 1752.000
103.9840, 1728.000
105.2260, 1774.000
106.4670, 1850.000
107.7080, 1865.000
108.9490, 1862.000
110.1900, 1924.000
111.4310, 1885.000
112.6720, 1901.000
113.9120, 1938.275
115.1520, 1937.629
116.3920, 1973.000
117.6320, 1974.000
118.8710, 1973.630
120.1110, 1972.838
121.3500, 1956.000
122.5890, 1957.000
123.8270, 1935.000
125.0660, 1948.000
126.3040, 1961.000
127.5430, 2055.000
128.7810, 2026.000
130.0180, 1966.000
131.2560, 2043.000
132.4940, 2140.000
133.7310, 2095.000
134.9680, 2144.000
136.2050, 2121.000
137.4410, 2123.000
138.6780, 2208.000
139.9140, 2313.000
141.1500, 2286.000
142.3860, 2292.000
143.6220, 2350.000
144.8570, 2351.000
146.0920, 2352.000
147.3280, 2409.000
148.5620, 2376.000
149.7970, 2441.000
151.0320, 2453.000
152.2660, 2372.000
153.5000, 2435.000
154.7340, 2457.000
155.9680, 2450.000
157.2020, 2380.000
158.4350, 2345.000
159.6680, 2351.000
160.9010, 2384.000
162.1340, 2398.000
163.3670, 2384.908
164.5990, 2369.000
165.8310, 2357.000
167.0630, 2282.000
168.2950, 2276.000
169.5270, 2247.000
170.7580, 2251.380
171.9900, 2256.694
173.2210, 2287.000
174.4510, 2264.000
175.6820, 2268.000
176.9130, 2225.000
178.1430, 2202.000
179.3730, 2152.000
180.6030, 2165.027
181.8330, 2098.000
183.0620, 2203.000
184.2920, 2274.000
185.5210, 2318.000
186.7500, 2269.000
187.9790, 2294.000
189.2070, 2385.000
190.4360, 2364.000
191.6640, 2427.000
192.8920, 2497.000
194.1200, 2462.000
195.3480, 2581.000
196.5750, 2491.000
197.8020, 2584.000
199.0290, 2575.000
200.2560, 2648.000
201.4830, 2688.000
202.7090, 2769.000
203.9360, 2744.000
205.1620, 2773.000
206.3880, 2907.000
207.6140, 3014.000
208.8390, 3292.000
210.0650, 3364.000
211.2900, 3630.000
212.5150, 3992.000
213.7400, 4134.000
214.9640, 4478.000
216.1890, 4929.000
217.4130, 5217.000
218.6370, 5738.000
219.8610, 6027.000
221.0850, 6380.000
222.3080, 6537.000
223.5310, 6580.000
224.7540, 6328.000
225.9770, 6109.000
227.2000, 5659.000
228.4230, 5177.000
229.6450, 4724.000
230.8670, 4467.000
232.0890, 4102.000
233.3110, 3875.000
234.5320, 3603.000
235.7540, 3451.000
236.9750, 3328.000
238.1960, 3088.000
239.4170, 2896.000
240.6380, 2795.000
241.8580, 2661.000
243.0780, 2491.000
244.2990, 2436.000
245.5180, 2395.000
246.7380, 2300.000
247.9580, 2234.000
249.1770, 2202.000
250.3960, 2180.000
251.6150, 2155.000
252.8340, 2103.000
254.0530, 2085.000
255.2710, 2110.000
256.4890, 2057.000
257.7070, 2046.000
258.9250, 2072.000
260.1430, 2030.000
261.3600, 2077.000
262.5770, 2051.000
263.7950, 2033.000
265.0110, 2113.000
266.2280, 2064.000
267.4450, 2096.000
268.6610, 2052.000
269.8770, 2065.000
271.0930, 2130.000
272.3090, 2084.000
273.5250, 2162.000
274.7400, 2109.000
275.9550, 2089.000
277.1700, 2188.000
278.3850, 2225.000
279.6000, 2226.000
280.8140, 2262.000
282.0290, 2361.000
283.2430, 2391.000
284.4570, 2401.000
285.6700, 2542.000
286.8840, 2538.000
288.0970, 2707.000
289.3100, 2837.000
290.5230, 2957.000
291.7360, 3250.000
292.9490, 3582.000
294.1610, 3982.000
295.3740, 4424.000
296.5860, 5011.000
297.7970, 5633.000
299.0090, 6511.000
300.2210, 7172.000
301.4320, 7984.000
302.6430, 8465.000
303.8540, 8220.000
305.0650, 7841.000
306.2750, 7191.000
307.4860, 6359.000
308.6960, 5578.000
309.9060, 4990.000
311.1160, 4497.000
312.3260, 4192.000
313.5350, 3991.000
314.7440, 3806.000
315.9530, 3815.000
317.1620, 3795.000
318.3710, 3935.000
319.5800, 4134.000
320.7880, 4325.000
321.9960, 4575.000
323.2040, 4834.000
324.4120, 5140.000
325.6200, 5463.000
326.8270, 5465.000
328.0340, 5568.000
329.2410, 5430.000
330.4480, 5299.000
331.6550, 5185.000
332.8610, 5187.000
334.0680, 5147.000
335.2740, 5431.000
336.4800, 5580.000
337.6860, 5797.000
338.8910, 5791.000
340.0970, 5700.000
341.3020, 5240.000
342.5070, 4993.000
343.7120, 4604.000
344.9170, 4183.000
346.1210, 3931.000
347.3250, 3487.000
348.5290, 3335.000
349.7330, 3048.000
350.9370, 2961.000
352.1410, 2804.000
353.3440, 2690.000
354.5470, 2667.000
355.7500, 2553.000
356.9530, 2566.000
358.1560, 2506.000
359.3580, 2500.000
360.5610, 2457.000
361.7630, 2402.000
362.9650, 2516.000
364.1660, 2452.000
365.3680, 2501.000
366.5690, 2426.000
367.7710, 2481.000
368.9720, 2421.000
370.1720, 2403.383
371.3730, 2380.851
372.5740, 2361.000
373.7740, 2305.000
374.9740, 2302.000
376.1740, 2278.000
377.3740, 2252.000
378.5730, 2153.000
379.7730, 2151.000
380.9720, 2174.000
382.1710, 2045.000
383.3700, 2043.000
384.5680, 2161.000
385.7670, 1972.000
386.9650, 2032.000
388.1630, 2040.000
389.3610, 2006.000
390.5590, 1938.000
391.7560, 1977.000
392.9540, 1999.000
394.1510, 1869.000
395.3480, 1982.000
396.5450, 1991.000
397.7420, 1867.000
398.9380, 1942.000
400.1340, 1977.000
401.3300, 2004.000
402.5260, 2048.677
403.7220, 2050.000
404.9180, 2121.000
406.1130, 2148.000
407.3080, 2212.000
408.5030, 2320.000
409.6980, 2379.000
410.8930, 2426.000
412.0870, 2558.000
413.2820, 2702.000
414.4760, 2867.000
415.6700, 3026.000
416.8630, 3114.000
418.0570, 3252.000
419.2500, 3287.000
420.4440, 3218.000
421.6370, 3116.000
422.8290, 2881.000
424.0220, 2905.000
425.2150, 2789.000
426.4070, 2644.000
427.5990, 2574.000
428.7910, 2561.000
429.9830, 2511.000
431.1740, 2466.208
432.3660, 2411.000
433.5570, 2386.000
434.7480, 2383.000
435.9390, 2360.882
437.1300, 2339.144
438.3200, 2321.000
439.5110, 2288.000
440.7010, 2272.518
441.8910, 2269.000
443.0810, 2234.000
444.2700, 2232.000
445.4600, 2215.000
446.6490, 2187.581
447.8380, 2162.000
449.0270, 2137.000
450.2160, 2085.000
451.4040, 2057.000
452.5930, 2028.000
453.7810, 2101.000
454.9690, 2082.000
456.1570, 2044.000
457.3440, 1999.000
458.5320, 2028.000
459.7190, 2031.000
460.9060, 2101.000
462.0930, 2103.000
463.2800, 2134.000
464.4660, 2100.000
465.6530, 2096.000
466.8390, 2117.000
468.0250, 2119.000
469.2110, 2153.000
470.3970, 2155.000
471.5820, 2189.000
472.7680, 2193.459
473.9530, 2211.000
475.1380, 2180.000
476.3230, 2198.000
477.5070, 2138.000
478.6920, 2174.000
479.8760, 2197.000
481.0600, 2189.000
482.2440, 2156.000
483.4280, 2109.000
484.6110, 2138.000
485.7950, 2116.000
486.9780, 2117.000
488.1610, 2130.260
489.3440, 2093.000
490.5260, 2124.000
491.7090, 2158.000
492.8910, 2104.000
494.0730, 2163.000
495.2550, 2217.000
496.4370, 2131.000
497.6190, 2151.000
498.8000, 2160.000
499.9810, 2111.000
501.1620, 2176.000
502.3430, 2191.000
503.5240, 2220.000
504.7050, 2155.000
505.8850, 2204.000
507.0650, 2189.000
508.2450, 2212.000
509.4250, 2295.000
510.6050, 2310.000
511.7840, 2325.000
512.9630, 2347.000
514.1430, 2367.000
515.3220, 2383.000
516.5000, 2382.000
517.6790, 2407.905
518.8570, 2425.000
520.0360, 2460.000
521.2140, 2504.000
522.3920, 2560.000
523.5690, 2599.000
524.7470, 2661.000
525.9240, 2664.000
527.1010, 2724.000
528.2780, 2793.000
529.4550, 2824.000
530.6320, 2967.000
531.8080, 3143.000
532.9850, 3277.000
534.1610, 3646.000
535.3370, 3902.000
536.5130, 4186.000
537.6880, 4640.000
538.8640, 5216.000
540.0390, 5732.000
541.2140, 6341.000
542.3890, 6728.000
543.5640, 6841.000
544.7380, 6576.000
545.9130, 6064.000
547.0870, 5213.000
548.2610, 4401.000
549.4350, 3991.000
550.6090, 3485.000
551.7820, 3212.000
552.9550, 2856.000
554.1290, 2765.000
555.3020, 2609.000
556.4740, 2508.000
557.6470, 2443.993
558.8200, 2339.039
559.9920, 2335.000
561.1640, 2234.000
562.3360, 2172.000
563.5080, 2210.000
564.6790, 2224.000
565.8510, 2204.000
567.0220, 2265.000
568.1930, 2179.000
569.3640, 2254.000
570.5350, 2174.000
571.7050, 2281.000
572.8760, 2293.000
574.0460, 2319.000
575.2160, 2334.000
576.3860, 2358.000
577.5550, 2451.000
578.7250, 2419.000
579.8940, 2585.000
581.0630, 2613.000
582.2320, 2662.000
583.4010, 2781.000
584.5700, 2946.000
585.7380, 3037.000
586.9070, 3077.000
588.0750, 3233.000
589.2430, 3230.000
590.4110, 3333.000
591.5780, 3216.000
592.7460, 3201.000
593.9130, 3097.000
595.0800, 3083.000
596.2470, 3160.000
597.4140, 3048.000
598.5800, 3090.000
599.7470, 3100.000
600.9130, 3292.000
602.0790, 3505.000
603.2450, 3557.000
604.4100, 3722.000
605.5760, 3826.000
606.7410, 3892.930
607.9070, 4028.000
609.0720, 3953.000
610.2360, 3957.000
611.4010, 3812.000
612.5660, 3639.000
613.7300, 3522.000
614.8940, 3351.000
616.0580, 3203.000
617.2220, 3107.000
618.3860, 2980.000
619.5490, 2930.000
620.7120, 2783.000
621.8750, 2780.000
623.0380, 2681.000
624.2010, 2672.000
625.3640, 2599.000
626.5260, 2570.000
627.6880, 2570.000
628.8510, 2521.000
630.0120, 2509.000
631.1740, 2441.000
632.3360, 2493.000
633.4970, 2332.000
634.6580, 2409.000
635.8200, 2363.000
636.9800, 2329.000
638.1410, 2359.000
639.3020, 2350.000
640.4620, 2322.000
641.6220, 2330.000
642.7820, 2289.000
643.9420, 2296.000
645.1020, 2312.000
646.2610, 2225.000
647.4210, 2289.000
648.5800, 2256.000
649.7390, 2341.000
650.8980, 2315.000
652.0570, 2253.000
653.2150, 2326.000
654.3730, 2273.000
655.5320, 2277.000
656.6900, 2210.000
657.8470, 2250.000
659.0050, 2192.000
660.1620, 2203.000
661.3200, 2224.000
662.4770, 2198.473
663.6340, 2261.000
664.7910, 2193.000
665.9470, 2174.000
667.1040, 2173.000
668.2600, 2196.000
669.4160, 2198.402
670.5720, 2215.000
671.7280, 2244.000
672.8840, 2172.000
674.0390, 2209.000
675.1940, 2300.000
676.3490, 2198.000
677.5040, 2243.000
678.6590, 2201.000
679.8140, 2219.000
680.9680, 2277.000
682.1220, 2321.000
683.2760, 2280.000
684.4300, 2330.000
685.5840, 2282.000
686.7380, 2295.000
687.8910, 2293.000
689.0440, 2339.000
690.1970, 2345.000
691.3500, 2386.000
692.5030, 2344.000
693.6560, 2323.000
694.8080, 2319.000
695.9600, 2426.000
697.1120, 2438.000
698.2640, 2441.000
699.4160, 2454.000
700.5670, 2429.000
701.7190, 2442.338
702.8700, 2469.000
704.0210, 2450.000
705.1720, 2466.000
706.3230, 2476.000
707.4730, 2498.000
708.6240, 2503.600
709.7740, 2499.075
710.9240, 2522.000
712.0740, 2523.000
713.2230, 2539.000
714.3730, 2557.859
715.5220, 2562.736
716.6720, 2599.000
717.8210, 2574.000
718.9690, 2596.000
720.1180, 2586.000
721.2670, 2627.000
722.4150, 2624.000
723.5630, 2678.000
724.7110, 2742.000
725.8590, 2746.000
727.0070, 2801.000
728.1540, 2762.000
729.3020, 2807.000
730.4490, 2784.000
731.5960, 2900.000
732.7430, 2896.000
733.8890, 2853.000
735.0360, 2912.000
736.1820, 2901.000
737.3280, 2955.000
738.4740, 3008.000
739.6200, 2918.000
740.7660, 3007.000
741.9120, 3015.000
743.0570, 3033.000
744.2020, 3068.000
745.3470, 3100.000
746.4920, 3108.000
747.6370, 3141.000
748.7810, 3191.000
749.9250, 3170.000
751.0700, 3212.000
752.2140, 3171.000
753.3580, 3214.000
754.5010, 3285.000
755.6450, 3235.000
756.7880, 3260.000
757.9310, 3319.000
759.0740, 3426.000
760.2170, 3466.000
761.3600, 3436.000
762.5020, 3452.000
763.6450, 3580.000
764.7870, 3576.000
765.9290, 3624.000
767.0710, 3709.000
768.2120, 3704.000
769.3540, 3770.000
770.4950, 3823.000
771.6370, 3856.000
772.7780, 3872.000
773.9180, 3932.000
775.0590, 3981.000
776.2000, 3884.000
777.3400, 4136.000
778.4800, 4032.000
779.6200, 4145.000
780.7600, 4289.000
781.9000, 4225.000
783.0390, 4297.000
784.1790, 4393.000
785.3180, 4448.000
786.4570, 4495.000
787.5960, 4514.000
788.7350, 4632.000
789.8730, 4708.000
791.0120, 4848.000
792.1500, 4991.000
793.2880, 5061.000
794.4260, 5169.000
795.5630, 5402.000
796.7010, 5476.000
797.8380, 5722.000
798.9760, 5935.000
800.1130, 6319.000
801.2500, 6511.000
802.3860, 6867.000
803.5230, 7313.000
804.6590, 7694.000
805.7960, 8336.000
806.9320, 8978.000
808.0680, 9899.000
809.2030, 10787.00
810.3390, 11971.00
811.4740, 13547.00
812.6100, 15415.00
813.7450, 17826.00
814.8800, 20896.00
816.0140, 24926.00
817.1490, 30002.00
818.2830, 36366.00
819.4180, 43407.00
820.5520, 51545.00
821.6860, 59249.00
822.8200, 64769.00
823.9530, 67294.00
825.0870, 65575.00
826.2200, 60554.00
827.3530, 54268.00
828.4860, 47881.00
829.6190, 42281.00
830.7510, 37882.00
831.8840, 34605.00
833.0160, 32244.00
834.1480, 30951.00
835.2800, 30091.00
836.4120, 30300.00
837.5440, 30843.00
838.6750, 32170.00
839.8070, 34451.00
840.9380, 36876.00
842.0690, 41085.00
843.2000, 45861.00
844.3300, 52432.00
845.4610, 60863.00
846.5910, 71380.00
847.7220, 84497.00
848.8520, 101128.0
849.9810, 120367.0
851.1110, 141922.0
852.2410, 164341.0
853.3700, 185414.0
854.4990, 195654.0
855.6280, 195663.0
856.7570, 195663.0
857.8860, 190753.0
859.0150, 170931.0
860.1430, 146403.0
861.2710, 123042.0
862.3990, 101458.0
863.5270, 83913.00
864.6550, 69111.00
865.7830, 57531.00
866.9100, 48518.00
868.0370, 41123.00
869.1640, 35547.00
870.2910, 30735.00
871.4180, 27163.00
872.5450, 23828.00
873.6710, 21620.00
874.7980, 19273.00
875.9240, 17622.00
877.0500, 16252.00
878.1760, 15155.00
879.3010, 14160.00
880.4270, 13265.00
881.5520, 12461.23
882.6770, 11922.00
883.8020, 11126.00
884.9270, 10527.00
886.0520, 10044.00
887.1760, 9293.000
888.3010, 8953.000
889.4250, 8416.000
890.5490, 8062.000
891.6730, 7774.000
892.7970, 7446.088
893.9200, 7218.000
895.0440, 7015.000
896.1670, 6815.000
897.2900, 6704.000
898.4130, 6510.000
899.5360, 6461.000
900.6580, 6437.000
901.7810, 6184.000
902.9030, 6329.000
904.0250, 6276.000
905.1470, 6287.000
906.2690, 6231.000
907.3910, 6283.000
908.5120, 6514.000
909.6330, 6682.000
910.7540, 7073.000
911.8750, 7366.000
912.9960, 8046.000
914.1170, 8755.000
915.2380, 9847.000
916.3580, 10634.00
917.4780, 11644.00
918.5980, 12170.00
919.7180, 11838.00
920.8380, 11138.00
921.9570, 10109.00
923.0770, 9065.000
924.1960, 8065.000
925.3150, 7697.000
926.4340, 7173.000
927.5530, 7028.000
928.6710, 6917.000
929.7900, 6750.000
930.9080, 6769.000
932.0260, 6941.000
933.1440, 7019.000
934.2620, 7306.000
935.3800, 7564.000
936.4970, 7768.000
937.6140, 8061.000
938.7320, 8393.000
939.8490, 8812.000
940.9660, 9208.000
942.0820, 9781.000
943.1990, 10325.00
944.3150, 11103.00
945.4310, 11703.00
946.5470, 12362.00
947.6630, 13354.00
948.7790, 14405.00
949.8950, 15691.00
951.0100, 17048.25
952.1250, 18580.00
953.2400, 20224.00
954.3550, 21930.00
955.4700, 23900.00
956.5850, 25851.00
957.6990, 27487.00
958.8140, 28998.00
959.9280, 29872.00
961.0420, 30210.00
962.1560, 29792.00
963.2690, 28451.00
964.3830, 26987.00
965.4960, 24908.00
966.6090, 22589.00
967.7230, 20536.29
968.8350, 18395.00
969.9480, 16098.00
971.0610, 14062.00
972.1730, 12400.00
973.2850, 10856.00
974.3980, 9724.000
975.5100, 8596.000
976.6210, 7720.000
977.7330, 6967.000
978.8440, 6420.000
979.9560, 5927.000
981.0670, 5580.000
982.1780, 5288.000
983.2890, 4895.000
984.3990, 4666.000
985.5100, 4487.000
986.6200, 4341.000
987.7310, 4200.000
988.8410, 4046.000
989.9510, 3861.000
991.0600, 3817.000
992.1700, 3689.000
993.2790, 3632.000
994.3890, 3564.000
995.4980, 3530.000
996.6070, 3478.000
997.7160, 3430.000
998.8240, 3439.000
999.9330, 3399.000
1001.041, 3441.000
1002.149, 3405.000
1003.257, 3318.000
1004.365, 3190.000
1005.473, 3205.000
1006.580, 3135.000
1007.688, 3051.000
1008.795, 3111.000
1009.902, 3036.000
1011.009, 3054.000
1012.116, 3033.000
1013.222, 3006.000
1014.329, 2986.000
1015.435, 3043.000
1016.541, 3036.000
1017.647, 2998.000
1018.753, 3064.000
1019.859, 2957.000
1020.964, 3076.000
1022.070, 3011.000
1023.175, 3062.000
1024.280, 3065.000
1025.385, 3061.000
1026.490, 3074.000
1027.594, 3126.000
1028.699, 3077.000
1029.803, 3105.000
1030.907, 3056.000
1032.011, 2993.000
1033.115, 3101.000
1034.219, 3025.000
1035.322, 3000.000
1036.426, 3077.000
1037.529, 3061.000
1038.632, 3041.000
1039.735, 3043.000
1040.837, 2995.000
1041.940, 2982.000
1043.042, 2985.775
1044.145, 2975.384
1045.247, 3019.000
1046.349, 2985.000
1047.451, 3041.000
1048.552, 3037.000
1049.654, 3034.000
1050.755, 2976.000
1051.856, 2946.000
1052.957, 2976.000
1054.058, 2940.525
1055.159, 2983.000
1056.259, 2899.000
1057.360, 2940.000
1058.460, 2854.000
1059.560, 2940.000
1060.660, 2832.000
1061.760, 2859.000
1062.860, 2791.000
1063.959, 2855.000
1065.058, 2822.000
1066.158, 2768.000
1067.257, 2766.000
1068.355, 2743.081
1069.454, 2796.000
1070.553, 2740.000
1071.651, 2689.000
1072.749, 2706.000
1073.847, 2646.000
1074.945, 2760.000
1076.043, 2766.000
1077.141, 2740.000
1078.238, 2777.000
1079.336, 2771.513
1080.433, 2759.000
1081.530, 2779.000
1082.627, 2777.000
1083.723, 2754.000
1084.820, 2743.000
1085.916, 2748.000
1087.013, 2738.000
1088.109, 2728.000
1089.205, 2716.000
1090.301, 2704.000
1091.396, 2709.000
1092.492, 2733.000
1093.587, 2733.220
1094.682, 2728.000
1095.777, 2741.000
1096.872, 2720.000
1097.967, 2685.000
1099.061, 2650.000
1100.156, 2691.000
1101.250, 2787.000
1102.344, 2772.000
1103.438, 2706.000
1104.532, 2781.000
1105.626, 2720.000
1106.719, 2827.000
1107.813, 2806.000
1108.906, 2801.000
1109.999, 2917.000
1111.092, 2812.000
1112.184, 2729.000
1113.277, 2759.000
1114.370, 2813.000
1115.462, 2760.000
1116.554, 2760.000
1117.646, 2701.000
1118.738, 2803.000
1119.829, 2763.000
1120.921, 2760.000
1122.012, 2755.000
1123.104, 2726.000
1124.195, 2790.000
1125.286, 2803.000
1126.376, 2833.000
1127.467, 2723.000
1128.557, 2860.000
1129.648, 2708.000
1130.738, 2711.000
1131.828, 2866.000
1132.918, 2824.000
1134.008, 2821.000
1135.097, 2834.000
1136.186, 2764.000
1137.276, 2782.000
1138.365, 2857.000
1139.454, 2922.000
1140.543, 2903.311
1141.631, 2875.000
1142.720, 2876.000
1143.808, 2847.000
1144.896, 2839.000
1145.984, 2972.000
1147.072, 2894.000
1148.160, 2967.000
1149.248, 2971.000
1150.335, 2975.873
1151.422, 2980.000
1152.509, 2977.099
1153.596, 2967.000
1154.683, 2967.862
1155.770, 2962.000
1156.857, 2954.000
1157.943, 2933.000
1159.029, 2943.000
1160.115, 2984.000
1161.201, 2932.000
1162.287, 2955.000
1163.373, 2908.000
1164.458, 2924.000
1165.543, 2963.000
1166.629, 3041.000
1167.714, 2906.000
1168.799, 2981.000
1169.883, 2833.000
1170.968, 2916.000
1172.052, 2931.000
1173.137, 2904.000
1174.221, 2838.000
1175.305, 2809.000
1176.389, 2747.000
1177.472, 2816.000
1178.556, 2804.000
1179.639, 2746.000
1180.722, 2777.000
1181.805, 2692.000
1182.888, 2701.108
1183.971, 2715.000
1185.054, 2680.000
1186.136, 2710.000
1187.219, 2687.000
1188.301, 2608.000
1189.383, 2609.000
1190.465, 2696.000
1191.547, 2652.000
1192.628, 2703.000
1193.710, 2576.000
1194.791, 2686.000
1195.872, 2668.000
1196.953, 2699.000
1198.034, 2700.000
1199.115, 2714.000
1200.195, 2703.000
1201.276, 2677.000
1202.356, 2684.000
1203.436, 2683.000
1204.516, 2683.000
1205.596, 2722.000
1206.675, 2764.000
1207.755, 2693.000
1208.834, 2769.000
1209.913, 2670.000
1210.992, 2718.000
1212.071, 2732.000
1213.150, 2703.000
1214.229, 2782.000
1215.307, 2722.000
1216.386, 2769.000
1217.464, 2798.000
1218.542, 2786.000
1219.620, 2775.000
1220.697, 2765.000
1221.775, 2785.000
1222.852, 2767.000
1223.930, 2801.000
1225.007, 2738.000
1226.084, 2719.000
1227.161, 2798.000
1228.237, 2774.000
1229.314, 2799.000
1230.390, 2764.000
1231.466, 2721.000
1232.543, 2763.000
1233.619, 2755.000
1234.694, 2764.000
1235.770, 2782.000
1236.845, 2751.000
1237.921, 2777.000
1238.996, 2676.000
1240.071, 2670.000
1241.146, 2658.000
1242.221, 2694.000
1243.295, 2678.000
1244.370, 2655.000
1245.444, 2695.000
1246.518, 2619.000
1247.592, 2666.000
1248.666, 2594.000
1249.740, 2588.000
1250.814, 2635.000
1251.887, 2550.000
1252.960, 2594.000
1254.034, 2579.000
1255.107, 2557.000
1256.179, 2528.000
1257.252, 2520.000
1258.325, 2496.000
1259.397, 2493.475
1260.469, 2479.892
1261.542, 2496.000
1262.614, 2461.000
1263.685, 2468.000
1264.757, 2460.829
1265.829, 2453.000
1266.900, 2475.000
1267.971, 2456.000
1269.042, 2469.000
1270.113, 2542.000
1271.184, 2455.000
1272.255, 2492.000
1273.325, 2482.000
1274.396, 2440.000
1275.466, 2432.906
1276.536, 2388.000
1277.606, 2384.000
1278.676, 2392.000
1279.745, 2413.000
1280.815, 2382.000
1281.884, 2401.000
1282.953, 2457.000
1284.022, 2386.000
1285.091, 2434.000
1286.160, 2395.000
1287.229, 2377.000
1288.297, 2382.000
1289.366, 2397.000
1290.434, 2367.000
1291.502, 2422.000
1292.570, 2413.000
1293.637, 2397.000
1294.705, 2372.000
1295.773, 2452.000
1296.840, 2396.000
1297.907, 2391.000
1298.974, 2449.000
1300.041, 2394.000
1301.108, 2416.000
1302.174, 2485.000
1303.241, 2400.000
1304.307, 2394.000
1305.373, 2435.000
1306.439, 2396.000
1307.505, 2407.000
1308.571, 2407.478
1309.636, 2367.000
1310.702, 2407.000
1311.767, 2425.000
1312.832, 2437.000
1313.897, 2465.000
1314.962, 2372.000
1316.027, 2406.000
1317.091, 2404.000
1318.156, 2360.000
1319.220, 2441.000
1320.284, 2430.000
1321.348, 2436.000
1322.412, 2496.000
1323.475, 2454.000
1324.539, 2453.000
1325.602, 2408.000
1326.666, 2419.000
1327.729, 2424.000
1328.792, 2396.000
1329.855, 2464.000
1330.917, 2424.000
1331.980, 2470.000
1333.042, 2392.000
1334.104, 2416.000
1335.167, 2500.000
1336.229, 2434.000
1337.290, 2450.000
1338.352, 2450.000
1339.414, 2424.000
1340.475, 2453.000
1341.536, 2437.492
1342.597, 2494.000
1343.658, 2446.000
1344.719, 2501.000
1345.780, 2539.000
1346.840, 2534.000
1347.901, 2549.698
1348.961, 2554.000
1350.021, 2509.000
1351.081, 2503.000
1352.141, 2433.000
1353.200, 2510.000
1354.260, 2542.000
1355.319, 2511.000
1356.379, 2520.000
1357.438, 2531.000
1358.497, 2569.000
1359.555, 2528.000
1360.614, 2557.000
1361.673, 2552.000
1362.731, 2533.000
1363.789, 2567.000
1364.847, 2524.000
1365.905, 2571.000
1366.963, 2540.000
1368.021, 2624.000
1369.078, 2604.721
1370.136, 2599.458
1371.193, 2571.000
1372.250, 2567.000
1373.307, 2483.000
1374.364, 2462.000
1375.420, 2503.000
1376.477, 2546.000
1377.533, 2470.000
1378.589, 2537.000
1379.646, 2539.000
1380.702, 2439.000
1381.757, 2507.000
1382.813, 2412.000
1383.869, 2459.000
1384.924, 2499.000
1385.979, 2465.000
1387.034, 2464.000
1388.089, 2465.153
1389.144, 2470.000
1390.199, 2471.000
1391.253, 2443.000
1392.308, 2486.000
1393.362, 2435.000
1394.416, 2495.000
1395.470, 2446.000
1396.524, 2473.000
1397.577, 2557.000
1398.631, 2483.000
1399.684, 2474.000
1400.738, 2392.000
1401.791, 2452.000
1402.844, 2478.000
1403.897, 2435.000
1404.949, 2425.000
1406.002, 2424.000
1407.054, 2472.000
1408.107, 2452.000
1409.159, 2384.000
1410.211, 2451.000
1411.263, 2432.000
1412.314, 2401.000
1413.366, 2513.000
1414.417, 2547.000
1415.468, 2469.000
1416.520, 2457.000
1417.571, 2473.000
1418.621, 2373.000
1419.672, 2470.000
1420.723, 2450.000
1421.773, 2460.000
1422.824, 2495.000
1423.874, 2467.000
1424.924, 2494.000
1425.974, 2482.000
1427.023, 2431.000
1428.073, 2534.000
1429.122, 2463.000
1430.172, 2442.000
1431.221, 2431.000
1432.270, 2488.000
1433.319, 2434.000
1434.367, 2397.000
1435.416, 2478.000
1436.465, 2474.000
1437.513, 2475.000
1438.561, 2539.000
1439.609, 2518.000
1440.657, 2488.000
1441.705, 2556.000
1442.752, 2517.000
1443.800, 2548.000
1444.847, 2560.000
1445.894, 2581.000
1446.942, 2598.000
1447.988, 2575.000
1449.035, 2605.000
1450.082, 2606.000
1451.128, 2624.000
1452.175, 2656.000
1453.221, 2668.000
1454.267, 2639.000
1455.313, 2640.000
1456.359, 2626.000
1457.405, 2642.000
1458.450, 2626.000
1459.496, 2659.000
1460.541, 2640.000
1461.586, 2597.000
1462.631, 2598.000
1463.676, 2616.000
1464.720, 2537.000
1465.765, 2575.000
1466.809, 2597.000
1467.854, 2576.000
1468.898, 2615.000
1469.942, 2581.000
1470.986, 2575.000
1472.029, 2592.000
1473.073, 2565.000
1474.116, 2622.000
1475.160, 2544.000
1476.203, 2634.000
1477.246, 2576.000
1478.289, 2587.000
1479.332, 2554.000
1480.374, 2622.000
1481.417, 2628.000
1482.459, 2607.000
1483.501, 2562.000
1484.543, 2567.000
1485.585, 2584.000
1486.627, 2543.000
1487.669, 2630.000
1488.710, 2622.000
1489.752, 2569.000
1490.793, 2589.000
1491.834, 2574.000
1492.875, 2571.000
1493.916, 2634.000
1494.956, 2509.000
1495.997, 2636.000
1497.037, 2591.000
1498.077, 2502.000
1499.118, 2548.000
1500.158, 2534.000
1501.197, 2620.000
1502.237, 2569.000
1503.277, 2573.330
1504.316, 2593.000
1505.355, 2541.000
1506.395, 2545.000
1507.434, 2562.000
1508.473, 2468.000
1509.511, 2497.000
1510.550, 2592.000
1511.588, 2543.000
1512.627, 2530.000
1513.665, 2536.000
1514.703, 2547.000
1515.741, 2600.000
1516.779, 2599.000
1517.816, 2487.000
1518.854, 2519.000
1519.891, 2449.000
1520.928, 2507.000
1521.966, 2528.000
1523.003, 2557.000
1524.039, 2552.000
1525.076, 2577.000
1526.113, 2479.000
1527.149, 2515.000
1528.185, 2504.000
1529.221, 2545.000
1530.257, 2511.000
1531.293, 2502.644
1532.329, 2488.000
1533.365, 2456.000
1534.400, 2467.000
1535.435, 2454.000
1536.471, 2482.000
1537.506, 2461.000
1538.541, 2497.000
1539.575, 2513.000
1540.610, 2474.000
1541.644, 2487.000
1542.679, 2458.759
1543.713, 2465.000
1544.747, 2444.000
1545.781, 2439.000
1546.815, 2513.000
1547.849, 2436.000
1548.882, 2468.000
1549.916, 2495.000
1550.949, 2447.000
1551.982, 2549.000
1553.015, 2453.000
1554.048, 2514.000
1555.081, 2496.000
1556.113, 2434.000
1557.146, 2478.000
1558.178, 2392.000
1559.210, 2395.000
1560.242, 2483.000
1561.274, 2431.000
1562.306, 2489.000
1563.338, 2461.000
1564.369, 2397.000
1565.400, 2454.000
1566.432, 2426.000
1567.463, 2441.000
1568.494, 2387.000
1569.525, 2410.000
1570.555, 2474.000
1571.586, 2435.000
1572.616, 2443.000
1573.647, 2458.000
1574.677, 2457.000
1575.707, 2444.000
1576.737, 2452.000
1577.766, 2418.000
1578.796, 2478.000
##END=



