##NAMES=Forsterite
##RRUFFID=R060535
##IDEAL CHEMISTRY=Mg_2_SiO_4_
##LOCALITY=unknown
##OWNER=RRUFF
##SOURCE=Gemological Institute of America
##DESCRIPTION=Transparent brown gemstone
##STATUS=The identification of this mineral has been confirmed by X-ray diffraction and chemical analysis
##URL=rruff.info/R060535
##MEASURED CHEMISTRY=(Mg_1.81_Fe_0.18_Ni_0.01_)_Î£=2_Si_1.00_O_4_
##PIN_ID=L01261
##ORIENTATION=Laser parallel to b* (0 1 0). Fiducial mark perpendicular to laser is parallel to c [0 0 1]
208.8360, 7195.000
210.0610, 7360.000
211.2860, 7417.000
212.5100, 7518.000
213.7350, 7597.000
214.9590, 7687.000
216.1830, 7642.000
217.4070, 7777.000
218.6310, 7795.000
219.8540, 7845.806
221.0780, 7970.000
222.3010, 7934.000
223.5240, 7950.000
224.7470, 7936.000
225.9690, 7855.000
227.1920, 7798.000
228.4140, 7737.104
229.6360, 7526.000
230.8580, 7565.000
232.0800, 7518.000
233.3020, 7373.000
234.5230, 7409.000
235.7440, 7399.000
236.9650, 7426.000
238.1860, 7325.000
239.4070, 7391.000
240.6280, 7310.000
241.8480, 7203.000
243.0680, 7345.000
244.2880, 7273.000
245.5080, 7354.000
246.7280, 7243.000
247.9470, 7296.000
249.1660, 7266.000
250.3860, 7257.000
251.6040, 7306.000
252.8230, 7273.697
254.0420, 7290.000
255.2600, 7282.000
256.4790, 7299.000
257.6970, 7352.000
258.9150, 7496.000
260.1320, 7495.000
261.3500, 7473.000
262.5670, 7356.000
263.7840, 7513.000
265.0010, 7386.000
266.2180, 7471.000
267.4350, 7360.000
268.6510, 7459.000
269.8680, 7461.000
271.0840, 7428.217
272.3000, 7451.023
273.5160, 7430.000
274.7310, 7421.000
275.9470, 7492.000
277.1620, 7505.000
278.3770, 7510.000
279.5920, 7591.000
280.8070, 7547.000
282.0210, 7602.000
283.2360, 7523.000
284.4500, 7568.000
285.6640, 7647.000
286.8780, 7570.000
288.0920, 7573.000
289.3050, 7807.000
290.5180, 7830.000
291.7320, 8055.000
292.9450, 8206.000
294.1570, 8219.000
295.3700, 8270.000
296.5830, 8485.000
297.7950, 8587.000
299.0070, 8596.000
300.2190, 8647.000
301.4310, 8787.000
302.6420, 8706.000
303.8540, 8667.000
305.0650, 8571.000
306.2760, 8365.000
307.4870, 8429.000
308.6980, 8403.000
309.9080, 8032.000
311.1190, 8147.000
312.3290, 8039.000
313.5390, 8082.000
314.7490, 8165.000
315.9580, 8138.000
317.1680, 8181.000
318.3770, 8244.000
319.5860, 8209.000
320.7950, 8400.000
322.0040, 8390.000
323.2130, 8461.000
324.4210, 8477.000
325.6290, 8570.000
326.8380, 8536.000
328.0460, 8591.000
329.2530, 8597.682
330.4610, 8621.937
331.6680, 8592.000
332.8760, 8647.000
334.0830, 8626.000
335.2890, 8550.000
336.4960, 8550.000
337.7030, 8711.000
338.9090, 8619.000
340.1150, 8546.000
341.3210, 8472.000
342.5270, 8314.000
343.7330, 8443.000
344.9380, 8237.000
346.1440, 8332.000
347.3490, 8118.000
348.5540, 8134.000
349.7590, 8183.000
350.9630, 8112.000
352.1680, 8208.000
353.3720, 8093.000
354.5760, 8148.000
355.7800, 8106.000
356.9840, 8021.000
358.1870, 8117.000
359.3910, 8159.000
360.5940, 8141.000
361.7970, 8229.000
363.0000, 8161.000
364.2030, 8165.000
365.4050, 8134.000
366.6080, 8216.000
367.8100, 8153.000
369.0120, 8245.000
370.2140, 8224.000
371.4150, 8159.000
372.6170, 8234.000
373.8180, 8189.000
375.0190, 8269.000
376.2200, 8184.000
377.4210, 8235.000
378.6220, 8173.000
379.8220, 8306.000
381.0230, 8247.265
382.2230, 8151.000
383.4230, 8210.000
384.6220, 8179.000
385.8220, 8182.000
387.0220, 8227.000
388.2210, 8281.000
389.4200, 8242.000
390.6190, 8197.000
391.8180, 8169.000
393.0160, 8235.000
394.2150, 8351.000
395.4130, 8304.000
396.6110, 8267.000
397.8090, 8283.000
399.0060, 8204.000
400.2040, 8350.000
401.4010, 8317.000
402.5980, 8440.000
403.7950, 8301.000
404.9920, 8388.000
406.1890, 8409.000
407.3860, 8516.000
408.5820, 8532.000
409.7780, 8469.000
410.9740, 8593.000
412.1700, 8676.000
413.3650, 8550.000
414.5610, 8556.000
415.7560, 8703.000
416.9510, 8766.000
418.1460, 8703.000
419.3410, 8761.000
420.5360, 8890.000
421.7300, 8819.000
422.9240, 8697.000
424.1180, 8773.000
425.3120, 8659.000
426.5060, 8610.000
427.7000, 8653.000
428.8930, 8746.000
430.0860, 8770.000
431.2790, 8704.000
432.4720, 8778.000
433.6650, 8791.000
434.8580, 8711.000
436.0500, 8790.000
437.2420, 8871.000
438.4340, 8689.000
439.6260, 8658.000
440.8180, 8713.000
442.0090, 8783.000
443.2010, 8794.000
444.3920, 8794.000
445.5830, 8787.000
446.7740, 8734.000
447.9640, 8714.000
449.1550, 8717.000
450.3450, 8775.000
451.5350, 8739.000
452.7250, 8596.000
453.9150, 8657.827
455.1050, 8838.000
456.2940, 8684.000
457.4830, 8805.000
458.6720, 8870.000
459.8610, 8710.000
461.0500, 8906.000
462.2390, 8742.000
463.4270, 8823.000
464.6150, 8925.000
465.8040, 8928.000
466.9910, 8921.000
468.1790, 8967.000
469.3670, 8951.629
470.5540, 9015.000
471.7410, 8932.000
472.9280, 8970.000
474.1150, 8922.000
475.3020, 8946.000
476.4890, 9021.000
477.6750, 9067.000
478.8610, 9065.309
480.0470, 9066.000
481.2330, 9073.000
482.4190, 9041.000
483.6040, 9081.000
484.7900, 9077.000
485.9750, 9130.000
487.1600, 9139.000
488.3450, 8955.000
489.5290, 9014.000
490.7140, 9068.000
491.8980, 9104.000
493.0820, 9203.000
494.2660, 9208.000
495.4500, 9246.777
496.6340, 9201.000
497.8170, 9265.000
499.0010, 9262.000
500.1840, 9234.000
501.3670, 9257.000
502.5500, 9335.000
503.7320, 9253.000
504.9150, 9292.429
506.0970, 9308.000
507.2790, 9287.000
508.4610, 9260.000
509.6430, 9271.000
510.8250, 9459.000
512.0060, 9338.000
513.1870, 9459.000
514.3680, 9374.000
515.5490, 9464.000
516.7300, 9388.000
517.9110, 9490.000
519.0910, 9462.000
520.2710, 9520.000
521.4510, 9474.000
522.6310, 9492.000
523.8110, 9521.000
524.9910, 9556.000
526.1700, 9672.000
527.3490, 9774.000
528.5280, 9609.000
529.7070, 9814.000
530.8860, 9783.000
532.0650, 9941.000
533.2430, 10150.00
534.4210, 10129.00
535.5990, 10269.00
536.7770, 10341.00
537.9550, 10370.00
539.1320, 10558.00
540.3100, 10563.00
541.4870, 10569.00
542.6640, 10447.00
543.8410, 10486.00
545.0170, 10434.00
546.1940, 10354.00
547.3700, 10173.00
548.5470, 10099.00
549.7230, 10029.40
550.8980, 9977.000
552.0740, 9943.000
553.2500, 9943.000
554.4250, 9931.261
555.6000, 9892.000
556.7750, 9878.000
557.9500, 9875.000
559.1250, 9868.000
560.2990, 9869.459
561.4730, 9876.516
562.6480, 9884.000
563.8220, 9884.000
564.9950, 9904.000
566.1690, 9879.000
567.3430, 9933.000
568.5160, 9833.000
569.6890, 9929.000
570.8620, 9982.000
572.0350, 9944.000
573.2070, 10005.00
574.3800, 9921.000
575.5520, 10030.00
576.7240, 9965.000
577.8960, 9858.000
579.0680, 10125.00
580.2400, 10275.00
581.4110, 10199.00
582.5830, 10363.00
583.7540, 10385.00
584.9250, 10330.00
586.0950, 10321.00
587.2660, 10464.00
588.4370, 10442.00
589.6070, 10417.00
590.7770, 10550.00
591.9470, 10368.00
593.1170, 10280.00
594.2860, 10361.00
595.4560, 10411.00
596.6250, 10340.00
597.7940, 10504.00
598.9630, 10444.00
600.1320, 10588.00
601.3000, 10612.38
602.4690, 10557.00
603.6370, 10665.00
604.8050, 10709.00
605.9730, 10695.00
607.1410, 10647.00
608.3090, 10682.00
609.4760, 10575.00
610.6430, 10639.00
611.8100, 10463.00
612.9770, 10494.00
614.1440, 10632.00
615.3110, 10587.00
616.4770, 10488.00
617.6430, 10364.00
618.8090, 10404.00
619.9750, 10244.00
621.1410, 10459.00
622.3070, 10406.00
623.4720, 10523.00
624.6370, 10543.00
625.8020, 10559.00
626.9670, 10574.02
628.1320, 10508.00
629.2970, 10511.00
630.4610, 10495.00
631.6250, 10412.00
632.7890, 10542.00
633.9530, 10494.00
635.1170, 10620.00
636.2810, 10419.00
637.4440, 10495.00
638.6070, 10526.00
639.7700, 10512.00
640.9330, 10574.00
642.0960, 10583.00
643.2590, 10579.00
644.4210, 10560.00
645.5830, 10594.00
646.7450, 10565.00
647.9070, 10527.00
649.0690, 10657.00
650.2310, 10640.00
651.3920, 10705.00
652.5530, 10584.00
653.7140, 10735.00
654.8750, 10704.00
656.0360, 10726.00
657.1970, 10772.00
658.3570, 10665.00
659.5170, 10660.00
660.6770, 10646.00
661.8370, 10543.00
662.9970, 10724.00
664.1570, 10690.93
665.3160, 10719.00
666.4750, 10830.00
667.6340, 10727.00
668.7930, 10862.00
669.9520, 10819.00
671.1110, 10738.00
672.2690, 10806.00
673.4270, 10758.27
674.5850, 10768.26
675.7430, 10784.00
676.9010, 10813.00
678.0590, 10888.00
679.2160, 10882.42
680.3730, 10944.00
681.5300, 10902.00
682.6870, 10896.00
683.8440, 10897.00
685.0010, 10958.00
686.1570, 10845.00
687.3130, 10879.00
688.4690, 10985.00
689.6250, 10855.00
690.7810, 11046.00
691.9370, 10982.00
693.0920, 11048.00
694.2470, 11145.00
695.4020, 11018.00
696.5570, 11243.00
697.7120, 10993.00
698.8670, 11080.00
700.0210, 11135.00
701.1750, 11156.00
702.3290, 11344.00
703.4830, 11268.00
704.6370, 11282.00
705.7910, 11267.00
706.9440, 11122.00
708.0970, 11265.00
709.2510, 11436.00
710.4030, 11430.00
711.5560, 11336.00
712.7090, 11372.00
713.8610, 11418.00
715.0140, 11465.00
716.1660, 11539.00
717.3180, 11593.00
718.4690, 11519.00
719.6210, 11435.00
720.7730, 11530.00
721.9240, 11614.00
723.0750, 11589.00
724.2260, 11598.00
725.3770, 11776.00
726.5270, 11671.00
727.6780, 11684.00
728.8280, 11847.00
729.9780, 11787.00
731.1280, 11880.00
732.2780, 11704.00
733.4280, 11740.00
734.5770, 11820.00
735.7260, 11888.00
736.8760, 11789.00
738.0250, 11840.00
739.1730, 11982.00
740.3220, 11903.00
741.4700, 11982.00
742.6190, 12088.00
743.7670, 12099.00
744.9150, 12050.00
746.0630, 12076.00
747.2100, 12219.00
748.3580, 12346.00
749.5050, 12242.00
750.6520, 12208.00
751.7990, 12288.00
752.9460, 12396.00
754.0930, 12346.00
755.2390, 12152.00
756.3860, 12395.00
757.5320, 12431.00
758.6780, 12155.00
759.8240, 12260.00
760.9690, 12406.00
762.1150, 12297.00
763.2600, 12346.00
764.4060, 12413.00
765.5510, 12319.00
766.6950, 12386.00
767.8400, 12269.00
768.9850, 12417.00
770.1290, 12404.00
771.2730, 12386.00
772.4170, 12549.00
773.5610, 12638.00
774.7050, 12521.00
775.8480, 12682.00
776.9920, 12740.00
778.1350, 12537.00
779.2780, 12644.00
780.4210, 12760.00
781.5640, 12729.00
782.7060, 12678.00
783.8490, 12802.00
784.9910, 12728.00
786.1330, 12689.00
787.2750, 12708.00
788.4170, 12837.00
789.5580, 12781.00
790.7000, 12867.00
791.8410, 12896.00
792.9820, 12839.00
794.1230, 12901.00
795.2640, 12940.45
796.4040, 13096.00
797.5450, 13093.00
798.6850, 13138.00
799.8250, 13252.00
800.9650, 13313.88
802.1050, 13574.00
803.2450, 13551.00
804.3840, 13748.00
805.5230, 13930.00
806.6630, 14249.00
807.8020, 14400.00
808.9400, 14762.00
810.0790, 15079.00
811.2170, 15613.00
812.3560, 16339.00
813.4940, 17490.00
814.6320, 18467.00
815.7700, 19731.00
816.9070, 21251.00
818.0450, 22788.00
819.1820, 24128.00
820.3190, 25752.00
821.4560, 26591.00
822.5930, 27086.00
823.7300, 27265.00
824.8670, 26623.00
826.0030, 25293.00
827.1390, 23995.00
828.2750, 22720.00
829.4110, 21543.00
830.5470, 20739.24
831.6820, 20097.00
832.8180, 19540.00
833.9530, 19207.00
835.0880, 19069.00
836.2230, 19155.60
837.3580, 19446.22
838.4920, 19899.00
839.6270, 20690.00
840.7610, 21469.00
841.8950, 22667.00
843.0290, 24225.00
844.1630, 25887.00
845.2960, 28439.00
846.4300, 31541.00
847.5630, 34969.00
848.6960, 39117.00
849.8290, 43338.00
850.9620, 47231.00
852.0940, 50719.00
853.2270, 53483.00
854.3590, 54664.00
855.4910, 54113.00
856.6230, 52547.00
857.7550, 49263.00
858.8870, 45448.00
860.0180, 40432.00
861.1500, 35808.00
862.2810, 31908.00
863.4120, 28638.00
864.5430, 25905.00
865.6730, 23939.00
866.8040, 22031.00
867.9340, 20552.00
869.0640, 19744.00
870.1940, 18963.00
871.3240, 18168.00
872.4540, 17865.00
873.5830, 17296.00
874.7130, 17007.00
875.8420, 16836.00
876.9710, 16519.00
878.1000, 16643.00
879.2290, 16452.00
880.3570, 16359.00
881.4860, 16252.00
882.6140, 16155.00
883.7420, 16040.00
884.8700, 15780.00
885.9980, 15469.00
887.1250, 15346.00
888.2530, 15123.00
889.3800, 14886.00
890.5070, 14798.00
891.6340, 14657.00
892.7610, 14537.00
893.8880, 14556.00
895.0140, 14555.00
896.1400, 14406.00
897.2670, 14490.00
898.3930, 14433.00
899.5180, 14314.00
900.6440, 14434.00
901.7700, 14378.00
902.8950, 14312.00
904.0200, 14467.00
905.1450, 14465.00
906.2700, 14520.00
907.3950, 14581.00
908.5190, 14514.00
909.6440, 14606.00
910.7680, 14573.00
911.8920, 14911.00
913.0160, 14964.00
914.1400, 15144.00
915.2630, 15005.00
916.3870, 15232.00
917.5100, 15309.00
918.6330, 15429.00
919.7560, 15388.00
920.8790, 15287.00
922.0010, 15237.00
923.1240, 15019.00
924.2460, 14952.00
925.3680, 14748.00
926.4900, 14791.00
927.6120, 14770.00
928.7340, 14923.00
929.8550, 15058.00
930.9760, 14980.00
932.0980, 14848.00
933.2190, 15030.00
934.3390, 15030.00
935.4600, 15191.00
936.5810, 15170.00
937.7010, 15351.00
938.8210, 15304.00
939.9410, 15522.00
941.0610, 15558.00
942.1810, 15640.00
943.3010, 15994.00
944.4200, 16018.00
945.5390, 16348.00
946.6580, 16609.00
947.7770, 16888.00
948.8960, 17061.00
950.0150, 17428.00
951.1330, 17670.00
952.2510, 18276.00
953.3690, 18606.00
954.4870, 18935.00
955.6050, 19461.00
956.7230, 19885.00
957.8400, 20187.00
958.9580, 20378.62
960.0750, 20599.00
961.1920, 20407.00
962.3090, 20334.00
963.4250, 20040.00
964.5420, 19393.00
965.6580, 18946.00
966.7740, 18673.00
967.8900, 18020.00
969.0060, 17741.00
970.1220, 17147.00
971.2380, 16816.00
972.3530, 16382.00
973.4680, 16212.00
974.5830, 16005.00
975.6980, 15610.00
976.8130, 15512.00
977.9280, 15287.00
979.0420, 15386.00
980.1560, 15304.00
981.2710, 15100.00
982.3850, 15148.00
983.4980, 15174.00
984.6120, 15015.00
985.7260, 14981.00
986.8390, 14930.00
987.9520, 14973.00
989.0650, 15009.00
990.1780, 15043.00
991.2910, 15010.00
992.4030, 15004.00
993.5160, 14968.00
994.6280, 14959.00
995.7400, 15028.00
996.8520, 15047.00
997.9640, 15171.00
999.0750, 15219.74
1000.187, 15294.00
1001.298, 15323.00
1002.409, 15139.00
1003.520, 15070.00
1004.631, 15168.00
1005.741, 15213.00
1006.852, 15043.00
1007.962, 15051.00
1009.072, 14914.00
1010.182, 15072.00
1011.292, 15095.00
1012.402, 15010.00
1013.511, 14934.00
1014.621, 15161.00
1015.730, 15129.00
1016.839, 15007.00
1017.948, 15392.00
1019.056, 15278.00
1020.165, 15278.00
1021.273, 15297.00
1022.382, 15190.00
1023.490, 15201.00
1024.598, 15344.00
1025.706, 15271.00
1026.813, 15447.00
1027.921, 15458.00
1029.028, 15326.00
1030.135, 15458.00
1031.242, 15518.00
1032.349, 15197.00
1033.456, 15282.00
1034.562, 15507.00
1035.668, 15384.00
1036.775, 15532.00
1037.881, 15572.00
1038.987, 15401.00
1040.092, 15489.00
1041.198, 15596.00
1042.303, 15537.00
1043.408, 15666.00
1044.514, 15532.00
1045.618, 15499.00
1046.723, 15473.00
1047.828, 15513.61
1048.932, 15517.00
1050.037, 15624.00
1051.141, 15598.00
1052.245, 15511.00
1053.349, 15686.00
1054.452, 15768.00
1055.556, 15602.00
1056.659, 15649.00
1057.762, 15648.00
1058.865, 15784.00
1059.968, 15787.00
1061.071, 15855.00
1062.174, 15846.00
1063.276, 15775.00
1064.378, 15635.00
1065.480, 15705.00
1066.582, 15648.00
1067.684, 15824.00
1068.786, 15713.00
1069.887, 15873.00
1070.988, 15932.00
1072.090, 15837.00
1073.191, 15930.00
1074.291, 15840.00
1075.392, 16051.00
1076.493, 16052.00
1077.593, 15894.00
1078.693, 16019.00
1079.793, 15781.00
1080.893, 16040.00
1081.993, 16177.00
1083.092, 16248.00
1084.192, 16129.00
1085.291, 16277.00
1086.390, 16124.00
1087.489, 16072.00
1088.588, 16091.00
1089.686, 16051.00
1090.785, 16049.00
1091.883, 16063.00
1092.981, 16141.00
1094.079, 16184.00
1095.177, 16106.00
1096.275, 16207.00
1097.373, 16112.00
1098.470, 16182.00
1099.567, 16243.00
1100.664, 16322.00
1101.761, 16314.00
1102.858, 16168.00
1103.954, 16173.00
1105.051, 16434.00
1106.147, 16288.00
1107.243, 16378.00
1108.339, 16349.00
1109.435, 16366.00
1110.531, 16373.00
1111.626, 16431.00
1112.722, 16383.00
1113.817, 16429.61
1114.912, 16483.00
1116.007, 16483.00
1117.101, 16426.00
1118.196, 16462.00
1119.290, 16535.00
1120.385, 16600.00
1121.479, 16550.00
1122.573, 16623.71
1123.666, 16657.00
1124.760, 16651.00
1125.853, 16677.00
1126.947, 16622.00
1128.040, 16668.01
1129.133, 16675.90
1130.226, 16731.00
1131.318, 16723.00
1132.411, 16761.00
1133.503, 16774.00
1134.596, 16820.00
1135.688, 16805.00
1136.780, 16871.00
1137.871, 16851.00
1138.963, 16692.00
1140.054, 16749.00
1141.146, 16675.00
1142.237, 16785.00
1143.328, 16737.00
1144.419, 16924.00
1145.509, 16861.00
1146.600, 16768.00
1147.690, 16757.00
1148.780, 16892.00
1149.870, 16988.00
1150.960, 17055.00
1152.050, 17040.00
1153.139, 16971.00
1154.229, 17028.00
1155.318, 17127.00
1156.407, 16980.00
1157.496, 17091.00
1158.585, 17191.00
1159.674, 16943.00
1160.762, 17052.00
1161.850, 17114.00
1162.939, 17250.00
1164.027, 17150.00
1165.114, 17118.00
1166.202, 17156.00
1167.290, 17222.00
1168.377, 17191.02
1169.464, 17280.00
1170.551, 17206.00
1171.638, 17220.00
1172.725, 17287.00
1173.812, 17279.00
1174.898, 17297.00
1175.984, 17329.00
1177.071, 17413.00
1178.157, 17278.00
1179.242, 17275.00
1180.328, 17448.00
1181.414, 17350.00
1182.499, 17370.00
1183.584, 17462.00
1184.669, 17530.00
1185.754, 17501.94
1186.839, 17466.00
1187.924, 17481.00
1189.008, 17439.00
1190.092, 17503.00
1191.177, 17596.00
1192.260, 17526.32
1193.344, 17523.00
1194.428, 17491.00
1195.512, 17435.00
1196.595, 17514.00
1197.678, 17486.00
1198.761, 17470.00
1199.844, 17720.00
1200.927, 17720.00
1202.009, 17694.00
1203.092, 17737.00
1204.174, 17625.00
1205.256, 17780.00
1206.338, 17607.00
1207.420, 17837.00
1208.502, 17691.00
1209.583, 17674.00
1210.665, 17774.00
1211.746, 17757.00
1212.827, 17822.00
1213.908, 17769.00
1214.988, 17801.27
1216.069, 17843.00
1217.149, 17840.00
1218.230, 17848.00
1219.310, 17899.41
1220.390, 18030.00
1221.470, 17896.00
1222.549, 17906.00
1223.629, 17854.00
1224.708, 17982.00
1225.787, 17927.00
1226.866, 17882.00
1227.945, 18179.00
1229.024, 18229.00
1230.103, 18083.00
1231.181, 18326.00
1232.259, 18199.00
1233.337, 18211.00
1234.415, 18281.00
1235.493, 18028.00
1236.571, 18069.00
1237.648, 18312.00
1238.726, 18196.00
1239.803, 18258.00
1240.880, 18148.00
1241.957, 18190.00
1243.034, 18254.00
1244.110, 18143.00
1245.187, 18335.00
1246.263, 18321.00
1247.339, 18314.00
1248.415, 18253.00
1249.491, 18377.00
1250.566, 18342.00
1251.642, 18326.00
1252.717, 18430.00
1253.793, 18546.00
1254.868, 18384.00
1255.943, 18518.00
1257.017, 18429.00
1258.092, 18519.00
1259.166, 18552.00
1260.241, 18527.00
1261.315, 18531.00
1262.389, 18494.00
1263.462, 18737.00
1264.536, 18579.00
1265.610, 18473.00
1266.683, 18671.00
1267.756, 18494.00
1268.829, 18770.00
1269.902, 18457.00
1270.975, 18759.00
1272.048, 18797.00
1273.120, 18810.00
1274.192, 18751.00
1275.264, 18789.83
1276.336, 18733.00
1277.408, 18768.00
1278.480, 18801.00
1279.551, 18715.00
1280.623, 18876.00
1281.694, 18823.00
1282.765, 18811.00
1283.836, 18882.00
1284.907, 18829.00
1285.977, 18914.00
1287.048, 18938.15
1288.118, 18906.00
1289.188, 19051.00
1290.258, 19093.00
1291.328, 19204.00
1292.398, 19319.00
1293.467, 19210.00
1294.537, 19397.00
1295.606, 19476.00
1296.675, 19197.00
1297.744, 19377.00
1298.813, 19136.00
1299.882, 19239.00
1300.950, 19294.00
1302.018, 19266.00
1303.086, 19360.00
1304.155, 19309.00
1305.222, 19324.00
1306.290, 19211.00
1307.358, 19283.00
1308.425, 19213.00
1309.492, 19331.00
1310.559, 19434.00
1311.626, 19437.00
1312.693, 19435.00
1313.760, 19447.00
1314.826, 19444.20
1315.893, 19436.00
1316.959, 19466.00
1318.025, 19479.00
1319.091, 19535.00
1320.157, 19542.00
1321.222, 19482.00
1322.288, 19559.00
1323.353, 19611.00
1324.418, 19592.00
1325.483, 19683.00
1326.548, 19698.00
1327.612, 19500.00
1328.677, 19715.00
1329.741, 19553.00
1330.806, 19671.00
1331.870, 19751.00
1332.934, 19590.00
1333.997, 19737.00
1335.061, 19702.00
1336.124, 19707.00
1337.188, 19713.00
1338.251, 19880.00
1339.314, 19901.00
1340.377, 19998.00
1341.439, 19960.47
1342.502, 19817.00
1343.564, 19830.00
1344.627, 19850.00
1345.689, 19793.00
1346.751, 19913.00
1347.813, 19869.00
1348.874, 19876.00
1349.936, 19922.00
1350.997, 19917.72
1352.058, 19968.24
1353.119, 19994.00
1354.180, 20005.00
1355.241, 20095.00
1356.301, 20001.00
1357.362, 20039.47
1358.422, 20007.00
1359.482, 20054.00
1360.542, 19981.00
1361.602, 20056.00
1362.662, 20118.00
1363.721, 20044.00
1364.781, 20109.00
1365.840, 20016.00
1366.899, 20234.00
1367.958, 20043.00
1369.017, 20072.00
1370.075, 20268.00
1371.134, 19884.00
1372.192, 20026.00
1373.250, 20134.00
1374.308, 20066.00
1375.366, 20370.00
1376.424, 20177.00
1377.481, 20308.00
1378.539, 20441.00
1379.596, 20143.00
1380.653, 20231.00
1381.710, 20242.00
1382.767, 20145.00
1383.824, 20237.00
1384.880, 20209.00
1385.937, 20143.00
1386.993, 20222.00
1388.049, 20270.00
1389.105, 20286.00
1390.161, 20347.00
1391.216, 20513.00
1392.272, 20423.00
1393.327, 20396.00
1394.382, 20299.00
1395.437, 20414.00
1396.492, 20380.00
1397.547, 20548.00
1398.601, 20376.00
1399.656, 20388.00
1400.710, 20533.00
1401.764, 20546.00
1402.818, 20590.00
1403.872, 20495.00
1404.925, 20496.00
1405.979, 20547.00
1407.032, 20585.00
1408.085, 20344.00
1409.139, 20534.00
1410.191, 20609.00
1411.244, 20236.00
1412.297, 20516.00
1413.349, 20612.00
1414.402, 20734.00
1415.454, 20572.00
1416.506, 20503.00
1417.558, 20889.00
1418.609, 20678.00
1419.661, 20806.00
1420.712, 20657.00
1421.764, 20701.00
1422.815, 20777.00
1423.866, 20760.00
1424.916, 20788.00
1425.967, 20768.00
1427.018, 20726.00
1428.068, 20893.00
1429.118, 20894.00
1430.168, 20899.00
1431.218, 20899.00
1432.268, 21064.00
1433.318, 21131.00
1434.367, 21153.00
1435.416, 21246.00
1436.465, 21164.00
1437.514, 21151.00
1438.563, 21194.00
1439.612, 21159.00
1440.661, 21096.00
1441.709, 21105.00
1442.757, 21124.29
1443.805, 21111.00
1444.853, 21202.00
1445.901, 21274.00
1446.949, 21280.00
1447.996, 21479.00
1449.044, 21256.00
1450.091, 21260.00
1451.138, 21350.00
1452.185, 21361.00
1453.232, 21225.00
1454.278, 21304.00
1455.325, 21364.00
1456.371, 21400.00
1457.417, 21481.00
1458.463, 21455.03
1459.509, 21570.00
1460.555, 21435.00
1461.601, 21341.00
1462.646, 21390.00
1463.691, 21318.00
1464.737, 21247.00
1465.782, 21292.00
1466.826, 21266.00
1467.871, 21221.00
1468.916, 21382.00
1469.960, 21335.00
1471.004, 21305.00
1472.048, 21368.00
1473.092, 21331.00
1474.136, 21337.00
1475.180, 21455.00
1476.223, 21313.00
1477.267, 21209.00
1478.310, 21516.00
1479.353, 21461.00
1480.396, 21503.00
1481.439, 21568.96
1482.481, 21513.00
1483.524, 21549.00
1484.566, 21495.00
1485.608, 21453.00
1486.650, 21331.00
1487.692, 21327.00
1488.734, 21315.67
1489.775, 21404.00
1490.817, 21329.00
1491.858, 21433.00
1492.899, 21391.00
1493.940, 21465.00
1494.981, 21404.00
1496.022, 21477.86
1497.062, 21650.00
1498.103, 21575.00
1499.143, 21618.00
1500.183, 21605.00
1501.223, 21676.00
1502.263, 21473.00
1503.302, 21713.00
1504.342, 21518.00
1505.381, 21550.00
1506.420, 21711.00
1507.459, 21530.00
1508.498, 21557.00
1509.537, 21592.00
1510.576, 21883.00
1511.614, 21669.00
1512.652, 21740.00
1513.691, 21732.00
1514.729, 21547.00
1515.767, 21818.00
1516.804, 21673.00
1517.842, 21867.00
1518.879, 21789.00
1519.917, 21930.00
1520.954, 21718.00
1521.991, 21844.00
1523.028, 21850.00
1524.064, 22017.00
1525.101, 22140.00
1526.137, 22061.00
1527.173, 22022.00
1528.210, 21989.00
1529.245, 21901.00
1530.281, 21925.00
1531.317, 21878.00
1532.352, 21888.00
1533.388, 21998.00
1534.423, 22003.00
1535.458, 22159.00
1536.493, 22099.00
1537.528, 21937.00
1538.562, 22148.00
1539.597, 22064.00
1540.631, 22135.00
1541.665, 22056.00
1542.700, 22050.00
1543.733, 21977.00
1544.767, 22105.00
1545.801, 22191.00
1546.834, 22093.00
1547.868, 22235.00
1548.901, 22085.00
1549.934, 22302.00
1550.967, 22248.00
1551.999, 22146.00
1553.032, 22333.00
1554.064, 22447.00
1555.097, 22312.00
1556.129, 22375.00
1557.161, 22152.00
1558.193, 22206.00
1559.224, 22294.00
1560.256, 22357.00
1561.287, 22240.00
1562.318, 22357.00
1563.350, 22400.00
##END=



