##NAMES=Forsterite
##RRUFFID=R060551
##IDEAL CHEMISTRY=Mg_2_SiO_4_
##LOCALITY=Kohiston, Pakistan
##OWNER=RRUFF
##SOURCE=Gemological Institute of America
##DESCRIPTION=Pale green fragment
##STATUS=The identification of this mineral has been confirmed by X-ray diffraction and chemical analysis
##URL=rruff.info/R060551
##MEASURED CHEMISTRY=(Mg_1.82_Fe_0.18_)_Î£=2_Si_1.00_O_4_; trace amounts of Mn
##PIN_ID=M00797
##ORIENTATION=Laser parallel to -c* (0 0 -1). Fiducial mark perpendicular to laser is parallel to a [1 0 0]
62.89900, 137.0000
64.14700, 155.0000
65.39500, 191.0000
66.64300, 216.0000
67.89000, 224.0000
69.13800, 277.0000
70.38500, 355.0000
71.63200, 393.0000
72.87900, 459.0000
74.12500, 545.0000
75.37200, 671.0000
76.61800, 778.0000
77.86400, 933.0000
79.10900, 1084.000
80.35500, 1240.000
81.60000, 1429.000
82.84600, 1724.000
84.09100, 2008.000
85.33500, 2195.000
86.58000, 2349.000
87.82400, 2595.000
89.06900, 2872.000
90.31300, 3151.000
91.55600, 3379.668
92.80000, 3700.000
94.04300, 3793.000
95.28700, 4036.000
96.53000, 4128.000
97.77300, 4200.000
99.01500, 4426.000
100.2580, 4501.000
101.5000, 4522.000
102.7420, 4620.000
103.9840, 4675.000
105.2260, 4776.000
106.4670, 4924.000
107.7080, 5018.000
108.9490, 4993.000
110.1900, 4927.000
111.4310, 4940.000
112.6720, 5015.000
113.9120, 5076.000
115.1520, 5156.000
116.3920, 5256.000
117.6320, 5287.000
118.8710, 5224.000
120.1110, 5185.000
121.3500, 5229.000
122.5890, 5295.000
123.8270, 5299.000
125.0660, 5310.000
126.3040, 5331.000
127.5430, 5241.000
128.7810, 5291.000
130.0180, 5275.000
131.2560, 5417.000
132.4940, 5460.000
133.7310, 5425.000
134.9680, 5458.000
136.2050, 5433.000
137.4410, 5520.000
138.6780, 5549.000
139.9140, 5669.000
141.1500, 5644.000
142.3860, 5681.000
143.6220, 5642.000
144.8570, 5615.000
146.0920, 5662.000
147.3280, 5813.000
148.5620, 5708.000
149.7970, 5800.000
151.0320, 5799.000
152.2660, 5726.000
153.5000, 5899.000
154.7340, 5907.000
155.9680, 5922.000
157.2020, 5807.000
158.4350, 5978.000
159.6680, 5804.000
160.9010, 5842.000
162.1340, 5899.000
163.3670, 5822.000
164.5990, 5883.000
165.8310, 5810.000
167.0630, 5892.000
168.2950, 5885.000
169.5270, 6031.000
170.7580, 5988.000
171.9900, 6020.000
173.2210, 5984.000
174.4510, 5996.000
175.6820, 6063.000
176.9130, 6033.000
178.1430, 6037.000
179.3730, 6047.000
180.6030, 6052.000
181.8330, 5996.000
183.0620, 6068.000
184.2920, 6144.000
185.5210, 6116.000
186.7500, 6112.652
187.9790, 6085.513
189.2070, 6049.000
190.4360, 5971.000
191.6640, 6017.000
192.8920, 5948.000
194.1200, 5888.000
195.3480, 5951.000
196.5750, 5926.475
197.8020, 5933.000
199.0290, 5987.000
200.2560, 6005.000
201.4830, 6042.000
202.7090, 6132.000
203.9360, 6130.044
205.1620, 6177.029
206.3880, 6187.000
207.6140, 6244.000
208.8390, 6316.000
210.0650, 6389.000
211.2900, 6459.000
212.5150, 6615.000
213.7400, 6752.000
214.9640, 6810.000
216.1890, 7072.000
217.4130, 7099.000
218.6370, 7181.000
219.8610, 7313.000
221.0850, 7360.000
222.3080, 7391.000
223.5310, 7442.000
224.7540, 7469.000
225.9770, 7432.000
227.2000, 7367.000
228.4230, 7293.000
229.6450, 7239.000
230.8670, 7121.000
232.0890, 7087.572
233.3110, 6959.000
234.5320, 6968.000
235.7540, 6896.000
236.9750, 6783.000
238.1960, 6737.000
239.4170, 6723.000
240.6380, 6726.000
241.8580, 6559.000
243.0780, 6530.000
244.2990, 6446.000
245.5180, 6390.000
246.7380, 6307.000
247.9580, 6316.000
249.1770, 6231.000
250.3960, 6244.000
251.6150, 6261.000
252.8340, 6138.000
254.0530, 6279.000
255.2710, 6244.000
256.4890, 6056.000
257.7070, 6157.000
258.9250, 6216.000
260.1430, 6204.000
261.3600, 6134.000
262.5770, 6183.000
263.7950, 6124.000
265.0110, 6129.000
266.2280, 6195.000
267.4450, 6134.000
268.6610, 6257.000
269.8770, 6247.000
271.0930, 6168.000
272.3090, 6232.000
273.5250, 6279.000
274.7400, 6281.000
275.9550, 6346.000
277.1700, 6334.000
278.3850, 6285.000
279.6000, 6318.000
280.8140, 6342.000
282.0290, 6407.000
283.2430, 6365.000
284.4570, 6406.000
285.6700, 6439.000
286.8840, 6588.000
288.0970, 6767.000
289.3100, 6805.000
290.5230, 6981.000
291.7360, 7116.000
292.9490, 7382.000
294.1610, 7671.000
295.3740, 8031.000
296.5860, 8463.000
297.7970, 8884.000
299.0090, 9300.000
300.2210, 9745.000
301.4320, 10249.00
302.6430, 10503.00
303.8540, 10427.00
305.0650, 10311.00
306.2750, 10338.00
307.4860, 9812.000
308.6960, 9583.000
309.9060, 9305.000
311.1160, 9194.000
312.3260, 9041.000
313.5350, 8970.000
314.7440, 9121.000
315.9530, 9208.000
317.1620, 9355.000
318.3710, 9476.000
319.5800, 9317.000
320.7880, 9275.000
321.9960, 9270.000
323.2040, 9211.000
324.4120, 9223.000
325.6200, 9254.000
326.8270, 9241.000
328.0340, 9180.568
329.2410, 9079.000
330.4480, 8922.000
331.6550, 8769.000
332.8610, 8431.000
334.0680, 8441.000
335.2740, 8249.000
336.4800, 8080.000
337.6860, 8031.000
338.8910, 7884.000
340.0970, 7833.000
341.3020, 7709.000
342.5070, 7560.000
343.7120, 7375.000
344.9170, 7228.000
346.1210, 7118.000
347.3250, 6979.000
348.5290, 6892.338
349.7330, 6840.292
350.9370, 6764.000
352.1410, 6781.000
353.3440, 6802.000
354.5470, 6784.000
355.7500, 6781.051
356.9530, 6759.000
358.1560, 6745.000
359.3580, 6744.000
360.5610, 6732.000
361.7630, 6738.502
362.9650, 6737.000
364.1660, 6758.049
365.3680, 6759.000
366.5690, 6777.000
367.7710, 6732.000
368.9720, 6726.000
370.1720, 6690.000
371.3730, 6689.655
372.5740, 6687.000
373.7740, 6724.000
374.9740, 6762.000
376.1740, 6769.006
377.3740, 6790.413
378.5730, 6797.000
379.7730, 6802.000
380.9720, 6803.000
382.1710, 6798.000
383.3700, 6880.000
384.5680, 6887.000
385.7670, 6856.000
386.9650, 6811.000
388.1630, 6762.000
389.3610, 6816.000
390.5590, 6735.000
391.7560, 6785.428
392.9540, 6932.000
394.1510, 6870.000
395.3480, 6854.000
396.5450, 6926.000
397.7420, 6856.000
398.9380, 6897.000
400.1340, 6972.000
401.3300, 7068.000
402.5260, 7113.000
403.7220, 7109.000
404.9180, 7170.000
406.1130, 7218.053
407.3080, 7370.000
408.5030, 7412.000
409.6980, 7555.000
410.8930, 7807.000
412.0870, 7845.000
413.2820, 8138.000
414.4760, 8307.000
415.6700, 8477.000
416.8630, 8620.000
418.0570, 8856.000
419.2500, 9049.000
420.4440, 9237.000
421.6370, 9441.000
422.8290, 9713.000
424.0220, 10068.00
425.2150, 10370.00
426.4070, 11011.00
427.5990, 11562.00
428.7910, 12102.00
429.9830, 12397.00
431.1740, 12438.19
432.3660, 12281.40
433.5570, 12029.00
434.7480, 11378.00
435.9390, 10750.00
437.1300, 10012.00
438.3200, 9262.000
439.5110, 9021.000
440.7010, 8346.000
441.8910, 8183.000
443.0810, 8020.000
444.2700, 7731.000
445.4600, 7725.000
446.6490, 7547.000
447.8380, 7609.000
449.0270, 7390.000
450.2160, 7269.000
451.4040, 7397.000
452.5930, 7349.000
453.7810, 7312.000
454.9690, 7358.000
456.1570, 7406.000
457.3440, 7335.190
458.5320, 7329.029
459.7190, 7276.000
460.9060, 7224.000
462.0930, 7225.363
463.2800, 7204.562
464.4660, 7231.000
465.6530, 7227.000
466.8390, 7272.085
468.0250, 7321.000
469.2110, 7399.000
470.3970, 7416.000
471.5820, 7461.000
472.7680, 7387.000
473.9530, 7375.000
475.1380, 7344.000
476.3230, 7531.000
477.5070, 7476.000
478.6920, 7593.000
479.8760, 7567.000
481.0600, 7446.000
482.2440, 7483.000
483.4280, 7528.000
484.6110, 7469.000
485.7950, 7405.000
486.9780, 7578.000
488.1610, 7492.000
489.3440, 7564.000
490.5260, 7492.000
491.7090, 7563.000
492.8910, 7532.000
494.0730, 7454.000
495.2550, 7448.000
496.4370, 7506.000
497.6190, 7536.000
498.8000, 7557.000
499.9810, 7555.000
501.1620, 7559.897
502.3430, 7587.000
503.5240, 7546.000
504.7050, 7569.000
505.8850, 7572.000
507.0650, 7534.000
508.2450, 7591.000
509.4250, 7592.000
510.6050, 7512.000
511.7840, 7575.000
512.9630, 7616.000
514.1430, 7563.000
515.3220, 7695.000
516.5000, 7607.000
517.6790, 7671.000
518.8570, 7636.000
520.0360, 7599.000
521.2140, 7753.000
522.3920, 7740.000
523.5690, 7943.000
524.7470, 7903.000
525.9240, 7767.000
527.1010, 7837.000
528.2780, 7971.000
529.4550, 7931.000
530.6320, 8117.000
531.8080, 8177.000
532.9850, 8351.000
534.1610, 8563.000
535.3370, 8723.000
536.5130, 9086.000
537.6880, 9336.000
538.8640, 9761.000
540.0390, 9876.000
541.2140, 10252.00
542.3890, 10485.00
543.5640, 10570.00
544.7380, 10443.00
545.9130, 10449.00
547.0870, 9922.000
548.2610, 9570.000
549.4350, 9279.000
550.6090, 9035.000
551.7820, 8813.000
552.9550, 8641.065
554.1290, 8556.000
555.3020, 8425.000
556.4740, 8350.000
557.6470, 8380.000
558.8200, 8293.000
559.9920, 8363.000
561.1640, 8384.000
562.3360, 8510.000
563.5080, 8538.000
564.6790, 8633.000
565.8510, 8595.000
567.0220, 8685.000
568.1930, 8724.000
569.3640, 8832.000
570.5350, 9058.000
571.7050, 9372.000
572.8760, 9489.000
574.0460, 9728.000
575.2160, 9816.000
576.3860, 10157.00
577.5550, 10360.00
578.7250, 10435.00
579.8940, 10710.00
581.0630, 10772.00
582.2320, 10700.00
583.4010, 10856.00
584.5700, 10599.00
585.7380, 10568.00
586.9070, 10594.00
588.0750, 10384.00
589.2430, 10380.00
590.4110, 10403.00
591.5780, 10443.00
592.7460, 10535.00
593.9130, 10726.00
595.0800, 10939.00
596.2470, 11212.00
597.4140, 11653.00
598.5800, 12109.00
599.7470, 12631.00
600.9130, 13057.00
602.0790, 13637.00
603.2450, 14095.00
604.4100, 14336.00
605.5760, 14609.00
606.7410, 14906.00
607.9070, 14601.00
609.0720, 14380.00
610.2360, 14171.00
611.4010, 13518.00
612.5660, 13087.00
613.7300, 12507.00
614.8940, 11856.00
616.0580, 11273.00
617.2220, 11057.00
618.3860, 10619.00
619.5490, 10409.00
620.7120, 10151.00
621.8750, 9965.000
623.0380, 9719.000
624.2010, 9704.000
625.3640, 9542.000
626.5260, 9573.000
627.6880, 9403.000
628.8510, 9539.000
630.0120, 9293.000
631.1740, 9335.000
632.3360, 9183.000
633.4970, 9118.000
634.6580, 9089.000
635.8200, 9032.000
636.9800, 9005.000
638.1410, 9066.000
639.3020, 9023.000
640.4620, 8914.000
641.6220, 9018.000
642.7820, 9086.000
643.9420, 9076.000
645.1020, 8967.000
646.2610, 8975.000
647.4210, 8905.000
648.5800, 8898.000
649.7390, 8876.000
650.8980, 8970.000
652.0570, 9102.000
653.2150, 8947.000
654.3730, 8807.000
655.5320, 8979.000
656.6900, 8908.000
657.8470, 8965.000
659.0050, 8920.000
660.1620, 8773.000
661.3200, 8924.000
662.4770, 8846.000
663.6340, 8875.000
664.7910, 8865.000
665.9470, 8829.000
667.1040, 8911.000
668.2600, 8891.000
669.4160, 8901.000
670.5720, 8876.000
671.7280, 8794.000
672.8840, 8957.000
674.0390, 8808.000
675.1940, 9068.000
676.3490, 9046.000
677.5040, 8849.000
678.6590, 8991.000
679.8140, 9044.000
680.9680, 9034.000
682.1220, 8976.000
683.2760, 9064.000
684.4300, 9013.000
685.5840, 9173.000
686.7380, 9164.000
687.8910, 9066.000
689.0440, 9140.000
690.1970, 9089.000
691.3500, 9220.000
692.5030, 9086.000
693.6560, 9032.000
694.8080, 9111.000
695.9600, 9265.000
697.1120, 9231.000
698.2640, 9198.000
699.4160, 9161.000
700.5670, 9153.000
701.7190, 9115.000
702.8700, 9146.455
704.0210, 9343.000
705.1720, 9244.000
706.3230, 9271.000
707.4730, 9378.000
708.6240, 9294.000
709.7740, 9425.000
710.9240, 9369.000
712.0740, 9564.000
713.2230, 9411.000
714.3730, 9545.000
715.5220, 9530.000
716.6720, 9532.000
717.8210, 9572.000
718.9690, 9645.000
720.1180, 9627.000
721.2670, 9619.000
722.4150, 9656.000
723.5630, 9645.000
724.7110, 9762.000
725.8590, 9657.000
727.0070, 9580.000
728.1540, 9698.000
729.3020, 9620.000
730.4490, 9779.000
731.5960, 9749.000
732.7430, 9716.000
733.8890, 9827.000
735.0360, 9845.000
736.1820, 9861.000
737.3280, 9868.000
738.4740, 9929.000
739.6200, 10002.00
740.7660, 9810.000
741.9120, 9918.000
743.0570, 9887.000
744.2020, 9920.000
745.3470, 9961.000
746.4920, 10177.00
747.6370, 10042.00
748.7810, 10090.00
749.9250, 10166.00
751.0700, 10073.00
752.2140, 10169.00
753.3580, 10209.00
754.5010, 10341.00
755.6450, 10214.00
756.7880, 10238.00
757.9310, 10266.00
759.0740, 10428.00
760.2170, 10440.00
761.3600, 10527.00
762.5020, 10462.00
763.6450, 10658.00
764.7870, 10773.00
765.9290, 10649.00
767.0710, 10625.00
768.2120, 10797.00
769.3540, 10893.00
770.4950, 10975.00
771.6370, 10909.00
772.7780, 11120.00
773.9180, 11022.00
775.0590, 11033.00
776.2000, 11139.00
777.3400, 11086.00
778.4800, 11188.00
779.6200, 11410.00
780.7600, 11423.00
781.9000, 11433.00
783.0390, 11499.00
784.1790, 11540.00
785.3180, 11783.00
786.4570, 11791.00
787.5960, 11898.00
788.7350, 12005.00
789.8730, 12050.00
791.0120, 12332.00
792.1500, 12464.00
793.2880, 12813.00
794.4260, 12798.00
795.5630, 13195.00
796.7010, 13443.00
797.8380, 13735.00
798.9760, 14081.00
800.1130, 14409.00
801.2500, 14866.00
802.3860, 15473.00
803.5230, 16158.00
804.6590, 16960.00
805.7960, 17724.00
806.9320, 18677.00
808.0680, 20317.00
809.2030, 21616.00
810.3390, 23441.00
811.4740, 25957.00
812.6100, 29111.00
813.7450, 32907.00
814.8800, 37818.00
816.0140, 44668.00
817.1490, 51777.00
818.2830, 60811.00
819.4180, 70423.00
820.5520, 79495.00
821.6860, 87688.00
822.8200, 94536.00
823.9530, 96725.00
825.0870, 94716.00
826.2200, 89253.00
827.3530, 80516.00
828.4860, 70556.00
829.6190, 61333.00
830.7510, 53794.00
831.8840, 47332.00
833.0160, 43014.00
834.1480, 38981.00
835.2800, 36674.00
836.4120, 34711.00
837.5440, 33671.00
838.6750, 32713.00
839.8070, 31955.00
840.9380, 31717.00
842.0690, 31691.00
843.2000, 32408.00
844.3300, 33916.00
845.4610, 35888.00
846.5910, 38556.00
847.7220, 42657.00
848.8520, 47421.00
849.9810, 53214.00
851.1110, 59715.00
852.2410, 66080.00
853.3700, 71551.00
854.4990, 76291.00
855.6280, 78088.00
856.7570, 77437.00
857.8860, 74454.00
859.0150, 69509.00
860.1430, 62795.00
861.2710, 56312.00
862.3990, 49984.00
863.5270, 44613.00
864.6550, 39886.00
865.7830, 36082.00
866.9100, 32888.00
868.0370, 29786.00
869.1640, 27273.00
870.2910, 24821.00
871.4180, 23049.00
872.5450, 21480.00
873.6710, 20045.00
874.7980, 19029.00
875.9240, 18112.00
877.0500, 17452.00
878.1760, 17008.00
879.3010, 16358.00
880.4270, 15978.70
881.5520, 15650.00
882.6770, 15279.00
883.8020, 14924.00
884.9270, 14685.00
886.0520, 14153.00
887.1760, 14059.00
888.3010, 13662.00
889.4250, 13343.00
890.5490, 13392.00
891.6730, 13092.00
892.7970, 12874.00
893.9200, 12751.00
895.0440, 12847.00
896.1670, 12601.00
897.2900, 12579.00
898.4130, 12581.00
899.5360, 12428.00
900.6580, 12315.00
901.7810, 12203.00
902.9030, 12266.00
904.0250, 12341.00
905.1470, 12211.00
906.2690, 12345.00
907.3910, 12182.00
908.5120, 12239.00
909.6330, 12118.00
910.7540, 12283.00
911.8750, 12378.00
912.9960, 12315.00
914.1170, 12459.00
915.2380, 12346.00
916.3580, 12647.00
917.4780, 12764.00
918.5980, 12666.00
919.7180, 12598.00
920.8380, 12674.00
921.9570, 12540.00
923.0770, 12391.00
924.1960, 12318.00
925.3150, 12310.00
926.4340, 12206.00
927.5530, 12292.00
928.6710, 12275.00
929.7900, 12219.00
930.9080, 12121.00
932.0260, 12289.00
933.1440, 12252.00
934.2620, 12225.00
935.3800, 12465.00
936.4970, 12500.00
937.6140, 12498.00
938.7320, 12572.00
939.8490, 12729.00
940.9660, 12968.00
942.0820, 12984.00
943.1990, 13015.00
944.3150, 13371.00
945.4310, 13459.00
946.5470, 13761.00
947.6630, 14142.00
948.7790, 14374.00
949.8950, 14826.00
951.0100, 15308.00
952.1250, 15834.00
953.2400, 16569.00
954.3550, 17231.00
955.4700, 18292.00
956.5850, 18824.00
957.6990, 19782.00
958.8140, 20538.00
959.9280, 21219.00
961.0420, 21728.00
962.1560, 21988.00
963.2690, 21964.00
964.3830, 21739.00
965.4960, 21237.00
966.6090, 20830.00
967.7230, 19784.00
968.8350, 19042.00
969.9480, 18391.00
971.0610, 17842.00
972.1730, 17056.00
973.2850, 16319.00
974.3980, 15756.00
975.5100, 15209.00
976.6210, 14640.00
977.7330, 14511.00
978.8440, 13942.00
979.9560, 13755.00
981.0670, 13443.00
982.1780, 13417.00
983.2890, 13175.00
984.3990, 13022.00
985.5100, 12941.00
986.6200, 12855.00
987.7310, 12753.88
988.8410, 12647.00
989.9510, 12624.00
991.0600, 12601.00
992.1700, 12612.00
993.2790, 12547.00
994.3890, 12476.00
995.4980, 12471.00
996.6070, 12437.00
997.7160, 12689.00
998.8240, 12439.00
999.9330, 12603.00
1001.041, 12614.00
1002.149, 12484.00
1003.257, 12451.00
1004.365, 12435.00
1005.473, 12487.00
1006.580, 12407.00
1007.688, 12283.00
1008.795, 12352.00
1009.902, 12289.00
1011.009, 12413.00
1012.116, 12215.00
1013.222, 12417.00
1014.329, 12174.00
1015.435, 12321.00
1016.541, 12296.00
1017.647, 12316.00
1018.753, 12410.00
1019.859, 12275.00
1020.964, 12434.00
1022.070, 12460.00
1023.175, 12316.00
1024.280, 12414.00
1025.385, 12461.00
1026.490, 12393.00
1027.594, 12454.00
1028.699, 12571.00
1029.803, 12493.00
1030.907, 12618.00
1032.011, 12404.00
1033.115, 12386.00
1034.219, 12408.00
1035.322, 12494.00
1036.426, 12473.00
1037.529, 12517.00
1038.632, 12469.00
1039.735, 12495.89
1040.837, 12439.00
1041.940, 12524.00
1043.042, 12544.00
1044.145, 12566.00
1045.247, 12338.00
1046.349, 12463.00
1047.451, 12459.00
1048.552, 12534.00
1049.654, 12551.00
1050.755, 12507.00
1051.856, 12633.00
1052.957, 12468.00
1054.058, 12738.00
1055.159, 12574.00
1056.259, 12564.00
1057.360, 12523.00
1058.460, 12448.00
1059.560, 12676.00
1060.660, 12405.00
1061.760, 12653.00
1062.860, 12660.00
1063.959, 12702.00
1065.058, 12562.00
1066.158, 12720.00
1067.257, 12679.00
1068.355, 12515.00
1069.454, 12741.00
1070.553, 12691.00
1071.651, 12882.00
1072.749, 12804.00
1073.847, 12691.00
1074.945, 12759.00
1076.043, 12889.00
1077.141, 12770.00
1078.238, 12883.00
1079.336, 12915.00
1080.433, 12929.00
1081.530, 12982.00
1082.627, 12994.80
1083.723, 13019.00
1084.820, 13002.00
1085.916, 13003.00
1087.013, 12930.00
1088.109, 12893.00
1089.205, 13068.00
1090.301, 13001.00
1091.396, 13075.00
1092.492, 13048.00
1093.587, 12959.00
1094.682, 13001.00
1095.777, 13133.00
1096.872, 12998.00
1097.967, 13103.00
1099.061, 13054.00
1100.156, 13196.00
1101.250, 13134.00
1102.344, 13131.00
1103.438, 13095.00
1104.532, 13197.00
1105.626, 13146.00
1106.719, 13197.00
1107.813, 13315.00
1108.906, 13227.00
1109.999, 13430.00
1111.092, 13198.00
1112.184, 13329.00
1113.277, 13198.00
1114.370, 13389.00
1115.462, 13241.00
1116.554, 13423.00
1117.646, 13357.00
1118.738, 13368.00
1119.829, 13450.00
1120.921, 13275.00
1122.012, 13366.00
1123.104, 13257.00
1124.195, 13335.00
1125.286, 13416.00
1126.376, 13392.00
1127.467, 13420.00
1128.557, 13632.00
1129.648, 13356.00
1130.738, 13633.00
1131.828, 13306.00
1132.918, 13676.00
1134.008, 13411.00
1135.097, 13547.00
1136.186, 13593.00
1137.276, 13525.00
1138.365, 13568.00
1139.454, 13552.00
1140.543, 13491.00
1141.631, 13598.00
1142.720, 13512.00
1143.808, 13459.00
1144.896, 13473.00
1145.984, 13554.00
1147.072, 13543.22
1148.160, 13552.00
1149.248, 13592.00
1150.335, 13642.00
1151.422, 13630.00
1152.509, 13620.00
1153.596, 13623.00
1154.683, 13685.00
1155.770, 13732.00
1156.857, 13781.00
1157.943, 13890.00
1159.029, 13765.00
1160.115, 13864.00
1161.201, 13837.58
1162.287, 13654.00
1163.373, 13784.00
1164.458, 13761.00
1165.543, 13657.00
1166.629, 13698.00
1167.714, 13694.00
1168.799, 13614.00
1169.883, 13672.00
1170.968, 13743.00
1172.052, 13779.00
1173.137, 13779.00
1174.221, 13705.00
1175.305, 13873.00
1176.389, 13677.00
1177.472, 13781.00
1178.556, 13832.00
1179.639, 13873.00
1180.722, 13871.17
1181.805, 13726.00
1182.888, 13849.00
1183.971, 13803.00
1185.054, 13871.00
1186.136, 13935.00
1187.219, 13888.00
1188.301, 13841.00
1189.383, 13838.00
1190.465, 13821.00
1191.547, 13852.00
1192.628, 13912.00
1193.710, 14002.00
1194.791, 13928.00
1195.872, 14055.00
1196.953, 13920.00
1198.034, 13975.00
1199.115, 14117.00
1200.195, 13957.00
1201.276, 14165.00
1202.356, 13994.00
1203.436, 14234.00
1204.516, 13953.00
1205.596, 14016.00
1206.675, 14022.00
1207.755, 14012.00
1208.834, 14155.00
1209.913, 14088.00
1210.992, 14051.00
1212.071, 14140.00
1213.150, 14050.00
1214.229, 14162.00
1215.307, 14303.00
1216.386, 14206.00
1217.464, 14378.00
1218.542, 14325.00
1219.620, 14396.00
1220.697, 14201.00
1221.775, 14233.00
1222.852, 14282.00
1223.930, 14224.00
1225.007, 14177.00
1226.084, 14310.00
1227.161, 14268.00
1228.237, 14243.00
1229.314, 14451.00
1230.390, 14405.00
1231.466, 14423.00
1232.543, 14482.00
1233.619, 14339.00
1234.694, 14270.00
1235.770, 14372.00
1236.845, 14291.00
1237.921, 14309.65
1238.996, 14369.00
1240.071, 14325.00
1241.146, 14468.00
1242.221, 14532.00
1243.295, 14466.32
1244.370, 14392.00
1245.444, 14346.00
1246.518, 14343.52
1247.592, 14340.00
1248.666, 14405.00
1249.740, 14449.00
1250.814, 14553.00
1251.887, 14363.00
1252.960, 14329.00
1254.034, 14333.00
1255.107, 14642.00
1256.179, 14493.83
1257.252, 14616.00
1258.325, 14404.00
1259.397, 14432.00
1260.469, 14380.00
1261.542, 14481.00
1262.614, 14428.00
1263.685, 14366.00
1264.757, 14602.00
1265.829, 14523.00
1266.900, 14460.00
1267.971, 14539.00
1269.042, 14509.00
1270.113, 14582.00
1271.184, 14452.00
1272.255, 14680.00
1273.325, 14441.00
1274.396, 14474.00
1275.466, 14636.00
1276.536, 14496.00
1277.606, 14562.00
1278.676, 14578.00
1279.745, 14498.00
1280.815, 14657.00
1281.884, 14601.00
1282.953, 14586.00
1284.022, 14663.00
1285.091, 14701.00
1286.160, 14737.00
1287.229, 14676.00
1288.297, 14669.00
1289.366, 14698.00
1290.434, 14683.00
1291.502, 14669.00
1292.570, 14703.82
1293.637, 14721.75
1294.705, 14734.00
1295.773, 14799.00
1296.840, 14767.00
1297.907, 14792.00
1298.974, 14753.00
1300.041, 14815.00
1301.108, 14804.54
1302.174, 14829.28
1303.241, 14835.00
1304.307, 14844.00
1305.373, 14885.00
1306.439, 14810.00
1307.505, 14940.00
1308.571, 14797.00
1309.636, 14866.00
1310.702, 14987.00
1311.767, 15066.00
1312.832, 15025.10
1313.897, 14890.00
1314.962, 14932.00
1316.027, 14999.00
1317.091, 15019.00
1318.156, 15044.00
1319.220, 15073.00
1320.284, 15108.00
1321.348, 15055.00
1322.412, 15039.00
1323.475, 14928.00
1324.539, 14871.00
1325.602, 14938.00
1326.666, 15082.00
1327.729, 15157.00
1328.792, 15079.00
1329.855, 15100.00
1330.917, 15092.34
1331.980, 15030.00
1333.042, 15111.00
1334.104, 15081.00
1335.167, 15185.00
1336.229, 15185.00
1337.290, 15183.00
1338.352, 15168.00
1339.414, 15230.00
1340.475, 15215.00
1341.536, 15240.16
1342.597, 15274.85
1343.658, 15300.00
1344.719, 15290.00
1345.780, 15370.00
1346.840, 15285.00
1347.901, 15306.00
1348.961, 15368.00
1350.021, 15837.00
1351.081, 15480.00
1352.141, 15355.00
1353.200, 15546.00
1354.260, 15224.00
1355.319, 15297.00
1356.379, 15411.00
1357.438, 15455.00
1358.497, 15427.00
1359.555, 15436.00
1360.614, 15262.00
1361.673, 15438.00
1362.731, 15286.00
1363.789, 15276.00
1364.847, 15463.00
1365.905, 15452.00
1366.963, 15506.00
1368.021, 15565.00
1369.078, 15468.00
1370.136, 15668.00
1371.193, 15449.00
1372.250, 15454.00
1373.307, 15346.00
1374.364, 15515.00
1375.420, 15499.00
1376.477, 15448.00
1377.533, 15359.00
1378.589, 15466.00
1379.646, 15412.85
1380.702, 15443.00
1381.757, 15453.00
1382.813, 15561.00
1383.869, 15627.00
1384.924, 15565.00
1385.979, 15460.00
1387.034, 15409.00
1388.089, 15543.00
1389.144, 15680.00
1390.199, 15618.00
1391.253, 15460.00
1392.308, 15496.00
1393.362, 15547.00
1394.416, 15617.00
1395.470, 15638.00
1396.524, 15626.08
1397.577, 15726.00
1398.631, 15587.00
1399.684, 15521.00
1400.738, 15561.00
1401.791, 15489.00
1402.844, 15528.00
1403.897, 15508.00
1404.949, 15418.00
1406.002, 15634.00
1407.054, 15586.00
1408.107, 15686.00
1409.159, 15536.00
1410.211, 15573.00
1411.263, 15722.00
1412.314, 15627.00
1413.366, 15679.00
1414.417, 15775.00
1415.468, 15739.00
1416.520, 15757.00
1417.571, 15656.00
1418.621, 15771.00
1419.672, 15769.00
1420.723, 15650.00
1421.773, 15641.00
1422.824, 15721.00
1423.874, 15689.00
1424.924, 15734.00
1425.974, 15684.00
1427.023, 15754.00
1428.073, 15842.00
1429.122, 15821.00
1430.172, 15928.00
1431.221, 15786.00
1432.270, 15742.00
1433.319, 15868.00
1434.367, 15852.00
1435.416, 15987.00
1436.465, 16035.00
1437.513, 16087.00
1438.561, 15850.00
1439.609, 15969.00
1440.657, 16001.00
1441.705, 16203.00
1442.752, 16143.00
1443.800, 16037.00
1444.847, 16120.00
1445.894, 16093.00
1446.942, 15959.00
1447.988, 16256.00
1449.035, 16067.00
1450.082, 16147.00
1451.128, 16305.00
1452.175, 16304.00
1453.221, 16238.00
1454.267, 16211.00
1455.313, 16124.00
1456.359, 16220.00
1457.405, 16333.00
1458.450, 16365.00
1459.496, 16195.00
1460.541, 16345.00
1461.586, 16286.00
1462.631, 16137.00
1463.676, 16241.00
1464.720, 16106.00
1465.765, 16035.00
1466.809, 16272.00
1467.854, 16155.00
1468.898, 16127.00
1469.942, 16269.00
1470.986, 16169.00
1472.029, 16164.00
1473.073, 16158.00
1474.116, 16176.00
1475.160, 16199.15
1476.203, 16193.00
1477.246, 16249.00
1478.289, 16254.43
1479.332, 16232.00
1480.374, 16268.00
1481.417, 16235.00
1482.459, 16258.00
1483.501, 16169.00
1484.543, 16467.00
1485.585, 16227.00
1486.627, 16423.00
1487.669, 16335.00
1488.710, 16435.00
1489.752, 16398.00
1490.793, 16216.00
1491.834, 16203.00
1492.875, 16322.00
1493.916, 16277.00
1494.956, 16452.00
1495.997, 16203.00
1497.037, 16498.00
1498.077, 16295.00
1499.118, 16484.00
1500.158, 16293.00
1501.197, 16498.00
1502.237, 16355.00
1503.277, 16161.00
1504.316, 16412.00
1505.355, 16403.00
1506.395, 16430.00
1507.434, 16504.00
1508.473, 16479.00
1509.511, 16446.00
1510.550, 16500.00
1511.588, 16471.00
1512.627, 16510.00
1513.665, 16577.00
1514.703, 16516.00
1515.741, 16600.00
1516.779, 16637.00
1517.816, 16644.00
1518.854, 16544.00
1519.891, 16685.00
1520.928, 16548.00
1521.966, 16722.00
1523.003, 16544.00
1524.039, 16686.00
1525.076, 16548.00
1526.113, 16395.00
1527.149, 16740.00
1528.185, 16695.00
1529.221, 16732.00
1530.257, 16748.00
1531.293, 16773.00
1532.329, 16657.00
1533.365, 16653.00
1534.400, 16720.00
1535.435, 16506.00
1536.471, 16976.00
1537.506, 16571.00
1538.541, 16721.00
1539.575, 16916.00
1540.610, 16722.00
1541.644, 16695.00
1542.679, 16554.00
1543.713, 16652.00
1544.747, 16844.00
1545.781, 16954.00
1546.815, 16890.00
1547.849, 16866.00
1548.882, 16837.00
1549.916, 16765.00
1550.949, 16766.00
1551.982, 16833.00
1553.015, 17046.00
1554.048, 16800.00
1555.081, 16819.00
1556.113, 16947.00
1557.146, 16822.00
1558.178, 16848.00
1559.210, 16798.00
1560.242, 16899.00
1561.274, 16852.00
1562.306, 16925.00
1563.338, 16802.00
1564.369, 16716.00
1565.400, 16883.00
1566.432, 16880.00
1567.463, 16791.00
1568.494, 16926.00
1569.525, 16981.00
1570.555, 16832.00
1571.586, 16900.00
1572.616, 17014.00
1573.647, 16918.00
1574.677, 17077.00
1575.707, 17033.00
1576.737, 16885.00
1577.766, 16915.00
1578.796, 16960.00
##END=



