##NAMES=Forsterite
##RRUFFID=R060535
##IDEAL CHEMISTRY=Mg_2_SiO_4_
##LOCALITY=unknown
##OWNER=RRUFF
##SOURCE=Gemological Institute of America
##DESCRIPTION=Transparent brown gemstone
##STATUS=The identification of this mineral has been confirmed by X-ray diffraction and chemical analysis
##URL=rruff.info/R060535
##MEASURED CHEMISTRY=(Mg_1.81_Fe_0.18_Ni_0.01_)_Î£=2_Si_1.00_O_4_
##PIN_ID=L01269
##ORIENTATION=Laser parallel to a* (1 0 0). Fiducial mark perpendicular to laser is parallel to b [0 1 0]
208.8360, 903.0000
210.0610, 959.0000
211.2860, 963.0000
212.5100, 1034.000
213.7350, 1061.000
214.9590, 1078.000
216.1830, 1134.000
217.4070, 1170.000
218.6310, 1186.000
219.8540, 1239.000
221.0780, 1277.000
222.3010, 1272.000
223.5240, 1230.000
224.7470, 1200.000
225.9690, 1167.000
227.1920, 1157.000
228.4140, 1113.000
229.6360, 1078.000
230.8580, 1093.000
232.0800, 1055.000
233.3020, 1014.000
234.5230, 1001.000
235.7440, 975.8591
236.9650, 996.0000
238.1860, 947.0000
239.4070, 948.0000
240.6280, 932.0000
241.8480, 896.0000
243.0680, 907.0000
244.2880, 838.0000
245.5080, 876.0000
246.7280, 880.0000
247.9470, 849.0000
249.1660, 837.0000
250.3860, 842.0000
251.6040, 864.0000
252.8230, 824.0000
254.0420, 848.0000
255.2600, 856.0000
256.4790, 850.0000
257.6970, 868.0000
258.9150, 945.0000
260.1320, 945.0000
261.3500, 893.0000
262.5670, 835.0000
263.7840, 838.0000
265.0010, 873.0000
266.2180, 872.0000
267.4350, 854.0000
268.6510, 834.0000
269.8680, 862.0000
271.0840, 861.0000
272.3000, 846.0000
273.5160, 842.0000
274.7310, 842.0000
275.9470, 882.0000
277.1620, 859.0000
278.3770, 868.0000
279.5920, 891.0000
280.8070, 881.0000
282.0210, 891.0000
283.2360, 878.0000
284.4500, 919.0000
285.6640, 898.0000
286.8780, 882.0000
288.0920, 928.0000
289.3050, 955.0000
290.5180, 966.0000
291.7320, 969.0000
292.9450, 995.0000
294.1570, 1012.000
295.3700, 1041.000
296.5830, 1089.000
297.7950, 1150.000
299.0070, 1186.000
300.2190, 1246.000
301.4310, 1213.000
302.6420, 1175.000
303.8540, 1168.000
305.0650, 1177.000
306.2760, 1141.000
307.4870, 1156.000
308.6980, 1118.000
309.9080, 1132.000
311.1190, 1122.000
312.3290, 1148.000
313.5390, 1199.000
314.7490, 1168.000
315.9580, 1208.000
317.1680, 1170.000
318.3770, 1173.000
319.5860, 1231.000
320.7950, 1222.000
322.0040, 1232.000
323.2130, 1289.000
324.4210, 1304.000
325.6290, 1325.696
326.8380, 1346.000
328.0460, 1347.000
329.2530, 1353.000
330.4610, 1334.000
331.6680, 1301.000
332.8760, 1319.000
334.0830, 1263.000
335.2890, 1284.000
336.4960, 1288.000
337.7030, 1206.000
338.9090, 1239.000
340.1150, 1175.000
341.3210, 1106.000
342.5270, 1067.000
343.7330, 1041.000
344.9380, 993.0000
346.1440, 966.0000
347.3490, 963.0000
348.5540, 957.0000
349.7590, 924.0000
350.9630, 957.0000
352.1680, 904.0000
353.3720, 913.0000
354.5760, 910.0000
355.7800, 919.0000
356.9840, 915.0000
358.1870, 913.0000
359.3910, 944.0000
360.5940, 985.0000
361.7970, 991.0000
363.0000, 993.0000
364.2030, 1074.000
365.4050, 1046.000
366.6080, 1105.000
367.8100, 1140.000
369.0120, 1172.000
370.2140, 1149.000
371.4150, 1121.000
372.6170, 1074.000
373.8180, 1057.000
375.0190, 1002.000
376.2200, 954.0000
377.4210, 925.0000
378.6220, 907.0000
379.8220, 895.0000
381.0230, 846.0000
382.2230, 877.0000
383.4230, 836.0000
384.6220, 813.0000
385.8220, 845.0000
387.0220, 829.0000
388.2210, 828.0000
389.4200, 829.0000
390.6190, 821.0000
391.8180, 817.0000
393.0160, 808.0000
394.2150, 788.0000
395.4130, 827.0000
396.6110, 813.0000
397.8090, 845.0000
399.0060, 858.0000
400.2040, 870.0000
401.4010, 863.0000
402.5980, 929.0000
403.7950, 925.0000
404.9920, 958.0000
406.1890, 959.0000
407.3860, 994.0000
408.5820, 933.0000
409.7780, 935.0000
410.9740, 940.0000
412.1700, 927.0000
413.3650, 922.0000
414.5610, 916.0000
415.7560, 911.0000
416.9510, 924.0000
418.1460, 956.0000
419.3410, 969.0000
420.5360, 1001.000
421.7300, 1043.000
422.9240, 1068.000
424.1180, 1091.000
425.3120, 1119.000
426.5060, 1160.000
427.7000, 1202.000
428.8930, 1235.000
430.0860, 1214.000
431.2790, 1218.000
432.4720, 1165.000
433.6650, 1094.000
434.8580, 1071.000
436.0500, 1028.000
437.2420, 997.0000
438.4340, 983.0000
439.6260, 955.5042
440.8180, 931.0000
442.0090, 926.0000
443.2010, 911.0000
444.3920, 905.0000
445.5830, 894.0000
446.7740, 871.0000
447.9640, 887.0000
449.1550, 880.0000
450.3450, 851.0000
451.5350, 885.0000
452.7250, 899.0000
453.9150, 869.0000
455.1050, 886.0000
456.2940, 896.0000
457.4830, 896.0000
458.6720, 882.0000
459.8610, 889.0000
461.0500, 877.0000
462.2390, 895.0000
463.4270, 941.0000
464.6150, 911.0000
465.8040, 947.0000
466.9910, 923.0000
468.1790, 924.0000
469.3670, 916.0000
470.5540, 946.0000
471.7410, 935.0000
472.9280, 909.0000
474.1150, 974.0000
475.3020, 959.0000
476.4890, 940.0000
477.6750, 968.0000
478.8610, 976.0000
480.0470, 1013.000
481.2330, 999.0000
482.4190, 961.0000
483.6040, 1000.000
484.7900, 1023.000
485.9750, 968.0000
487.1600, 989.0000
488.3450, 1019.000
489.5290, 1003.000
490.7140, 1023.000
491.8980, 1021.000
493.0820, 1051.000
494.2660, 995.0000
495.4500, 1032.000
496.6340, 1017.000
497.8170, 1036.000
499.0010, 992.0000
500.1840, 998.0000
501.3670, 1007.000
502.5500, 1022.000
503.7320, 1026.000
504.9150, 1015.000
506.0970, 1005.000
507.2790, 1017.000
508.4610, 1028.000
509.6430, 1062.000
510.8250, 1033.000
512.0060, 1046.503
513.1870, 1011.000
514.3680, 1037.000
515.5490, 1030.000
516.7300, 1025.000
517.9110, 1046.000
519.0910, 1072.000
520.2710, 1079.000
521.4510, 1110.242
522.6310, 1147.000
523.8110, 1161.000
524.9910, 1171.000
526.1700, 1190.000
527.3490, 1219.000
528.5280, 1241.000
529.7070, 1236.000
530.8860, 1311.000
532.0650, 1353.000
533.2430, 1439.000
534.4210, 1499.000
535.5990, 1578.000
536.7770, 1679.000
537.9550, 1763.000
539.1320, 1857.000
540.3100, 1910.000
541.4870, 1968.000
542.6640, 1893.000
543.8410, 1824.000
545.0170, 1662.000
546.1940, 1550.000
547.3700, 1433.000
548.5470, 1323.000
549.7230, 1282.000
550.8980, 1219.000
552.0740, 1204.000
553.2500, 1167.000
554.4250, 1144.000
555.6000, 1108.000
556.7750, 1135.000
557.9500, 1074.000
559.1250, 1102.000
560.2990, 1113.000
561.4730, 1114.000
562.6480, 1131.000
563.8220, 1114.000
564.9950, 1136.000
566.1690, 1154.000
567.3430, 1169.000
568.5160, 1161.000
569.6890, 1195.000
570.8620, 1239.000
572.0350, 1248.000
573.2070, 1293.000
574.3800, 1320.943
575.5520, 1308.000
576.7240, 1373.000
577.8960, 1435.000
579.0680, 1438.000
580.2400, 1527.000
581.4110, 1608.000
582.5830, 1631.000
583.7540, 1703.000
584.9250, 1805.000
586.0950, 1870.000
587.2660, 1937.000
588.4370, 1916.000
589.6070, 1955.000
590.7770, 1853.000
591.9470, 1806.000
593.1170, 1687.000
594.2860, 1619.000
595.4560, 1505.000
596.6250, 1431.000
597.7940, 1398.000
598.9630, 1357.000
600.1320, 1396.000
601.3000, 1346.000
602.4690, 1350.000
603.6370, 1339.000
604.8050, 1330.000
605.9730, 1346.000
607.1410, 1327.000
608.3090, 1316.000
609.4760, 1280.000
610.6430, 1261.000
611.8100, 1208.000
612.9770, 1174.000
614.1440, 1150.000
615.3110, 1130.000
616.4770, 1147.000
617.6430, 1105.000
618.8090, 1098.000
619.9750, 1044.000
621.1410, 1031.000
622.3070, 1050.000
623.4720, 1031.000
624.6370, 1027.000
625.8020, 1000.000
626.9670, 971.0000
628.1320, 968.0000
629.2970, 992.0000
630.4610, 977.0000
631.6250, 981.0000
632.7890, 952.0000
633.9530, 951.0000
635.1170, 965.0000
636.2810, 946.0000
637.4440, 957.0000
638.6070, 941.0000
639.7700, 935.0000
640.9330, 933.0000
642.0960, 926.0000
643.2590, 938.0000
644.4210, 916.0000
645.5830, 949.0000
646.7450, 923.0000
647.9070, 952.0000
649.0690, 913.0000
650.2310, 978.0000
651.3920, 946.0000
652.5530, 947.0000
653.7140, 923.0000
654.8750, 963.0000
656.0360, 938.0000
657.1970, 905.0000
658.3570, 967.0000
659.5170, 927.0000
660.6770, 967.0000
661.8370, 920.0000
662.9970, 913.0000
664.1570, 945.0000
665.3160, 932.0000
666.4750, 918.0000
667.6340, 948.0000
668.7930, 920.0000
669.9520, 959.0000
671.1110, 932.0000
672.2690, 945.0000
673.4270, 982.0000
674.5850, 964.0000
675.7430, 941.0000
676.9010, 931.0000
678.0590, 952.0000
679.2160, 962.0000
680.3730, 961.0000
681.5300, 974.0000
682.6870, 939.0000
683.8440, 974.0000
685.0010, 964.0000
686.1570, 1006.000
687.3130, 968.0000
688.4690, 976.0000
689.6250, 1000.000
690.7810, 1004.000
691.9370, 972.0000
693.0920, 1019.000
694.2470, 1000.000
695.4020, 988.0000
696.5570, 1002.000
697.7120, 1019.000
698.8670, 980.0000
700.0210, 1014.000
701.1750, 1039.000
702.3290, 1015.000
703.4830, 1036.000
704.6370, 1063.000
705.7910, 1080.000
706.9440, 1079.000
708.0970, 1074.000
709.2510, 1112.000
710.4030, 1093.000
711.5560, 1098.000
712.7090, 1124.000
713.8610, 1127.000
715.0140, 1119.000
716.1660, 1133.000
717.3180, 1166.000
718.4690, 1204.000
719.6210, 1198.000
720.7730, 1205.000
721.9240, 1227.000
723.0750, 1280.000
724.2260, 1275.000
725.3770, 1333.000
726.5270, 1286.000
727.6780, 1364.000
728.8280, 1360.000
729.9780, 1378.000
731.1280, 1412.000
732.2780, 1456.000
733.4280, 1488.000
734.5770, 1515.131
735.7260, 1499.000
736.8760, 1556.000
738.0250, 1596.000
739.1730, 1603.000
740.3220, 1656.000
741.4700, 1698.064
742.6190, 1762.000
743.7670, 1834.000
744.9150, 1909.000
746.0630, 1967.017
747.2100, 2073.000
748.3580, 2084.000
749.5050, 2146.000
750.6520, 2198.000
751.7990, 2190.000
752.9460, 2241.000
754.0930, 2178.000
755.2390, 2182.000
756.3860, 2085.000
757.5320, 2088.000
758.6780, 1971.000
759.8240, 1903.000
760.9690, 1850.000
762.1150, 1775.000
763.2600, 1728.000
764.4060, 1678.000
765.5510, 1590.000
766.6950, 1583.000
767.8400, 1530.000
768.9850, 1508.000
770.1290, 1494.000
771.2730, 1524.000
772.4170, 1552.000
773.5610, 1516.000
774.7050, 1482.000
775.8480, 1526.000
776.9920, 1571.000
778.1350, 1520.000
779.2780, 1556.000
780.4210, 1511.000
781.5640, 1573.000
782.7060, 1531.000
783.8490, 1525.000
784.9910, 1536.000
786.1330, 1510.000
787.2750, 1564.000
788.4170, 1576.000
789.5580, 1539.000
790.7000, 1571.000
791.8410, 1566.000
792.9820, 1611.000
794.1230, 1666.000
795.2640, 1679.000
796.4040, 1757.000
797.5450, 1808.000
798.6850, 1886.000
799.8250, 1959.000
800.9650, 2046.000
802.1050, 2147.000
803.2450, 2286.485
804.3840, 2467.000
805.5230, 2648.000
806.6630, 2912.000
807.8020, 3208.000
808.9400, 3553.000
810.0790, 3963.000
811.2170, 4440.000
812.3560, 5285.000
813.4940, 6168.000
814.6320, 7395.000
815.7700, 9005.000
816.9070, 10863.00
818.0450, 12573.00
819.1820, 14578.00
820.3190, 16483.00
821.4560, 17620.00
822.5930, 18053.00
823.7300, 17492.00
824.8670, 17882.00
826.0030, 14670.00
827.1390, 12406.00
828.2750, 10519.00
829.4110, 8941.000
830.5470, 7919.000
831.6820, 6948.000
832.8180, 6265.000
833.9530, 5733.000
835.0880, 5359.000
836.2230, 5256.000
837.3580, 5103.000
838.4920, 5118.000
839.6270, 5057.000
840.7610, 5150.000
841.8950, 5386.000
843.0290, 5784.219
844.1630, 6294.000
845.2960, 7047.000
846.4300, 7931.000
847.5630, 8978.000
848.6960, 10498.00
849.8290, 12000.00
850.9620, 13445.00
852.0940, 14702.00
853.2270, 15538.00
854.3590, 16154.00
855.4910, 15934.00
856.6230, 14977.00
857.7550, 13496.00
858.8870, 12001.00
860.0180, 10458.00
861.1500, 8867.000
862.2810, 7630.000
863.4120, 6595.000
864.5430, 5671.000
865.6730, 5049.000
866.8040, 4424.000
867.9340, 3984.000
869.0640, 3577.000
870.1940, 3324.000
871.3240, 3002.000
872.4540, 2881.000
873.5830, 2734.000
874.7130, 2609.000
875.8420, 2579.000
876.9710, 2560.000
878.1000, 2463.000
879.2290, 2454.000
880.3570, 2391.000
881.4860, 2365.000
882.6140, 2238.000
883.7420, 2093.000
884.8700, 2044.000
885.9980, 1905.000
887.1250, 1848.000
888.2530, 1797.000
889.3800, 1708.000
890.5070, 1665.000
891.6340, 1612.000
892.7610, 1598.000
893.8880, 1586.000
895.0140, 1563.000
896.1400, 1543.000
897.2670, 1547.392
898.3930, 1557.000
899.5180, 1560.000
900.6440, 1582.000
901.7700, 1594.000
902.8950, 1646.000
904.0200, 1603.000
905.1450, 1685.000
906.2700, 1764.000
907.3950, 1794.000
908.5190, 1899.000
909.6440, 2062.000
910.7680, 2293.000
911.8920, 2596.000
913.0160, 2939.000
914.1400, 3288.000
915.2630, 3768.000
916.3870, 4163.000
917.5100, 4542.000
918.6330, 4391.000
919.7560, 4123.000
920.8790, 3678.000
922.0010, 3151.000
923.1240, 2700.000
924.2460, 2323.000
925.3680, 2053.000
926.4900, 1893.000
927.6120, 1757.000
928.7340, 1714.000
929.8550, 1595.000
930.9760, 1614.000
932.0980, 1624.000
933.2190, 1614.000
934.3390, 1599.000
935.4600, 1573.000
936.5810, 1592.000
937.7010, 1590.227
938.8210, 1657.000
939.9410, 1639.000
941.0610, 1669.000
942.1810, 1738.000
943.3010, 1747.000
944.4200, 1769.000
945.5390, 1844.000
946.6580, 1885.069
947.7770, 1991.000
948.8960, 2044.000
950.0150, 2135.000
951.1330, 2268.000
952.2510, 2405.000
953.3690, 2489.000
954.4870, 2630.000
955.6050, 2769.000
956.7230, 2836.000
957.8400, 3050.000
958.9580, 3048.000
960.0750, 3139.000
961.1920, 3136.000
962.3090, 3128.000
963.4250, 2951.000
964.5420, 2869.000
965.6580, 2749.000
966.7740, 2515.000
967.8900, 2395.000
969.0060, 2278.000
970.1220, 2068.000
971.2380, 1955.000
972.3530, 1889.000
973.4680, 1768.000
974.5830, 1668.000
975.6980, 1659.000
976.8130, 1565.000
977.9280, 1532.000
979.0420, 1451.000
980.1560, 1454.000
981.2710, 1449.000
982.3850, 1420.000
983.4980, 1376.000
984.6120, 1397.000
985.7260, 1382.000
986.8390, 1317.000
987.9520, 1341.000
989.0650, 1306.000
990.1780, 1322.000
991.2910, 1309.000
992.4030, 1308.000
993.5160, 1291.000
994.6280, 1290.338
995.7400, 1293.694
996.8520, 1288.000
997.9640, 1289.000
999.0750, 1294.000
1000.187, 1253.000
1001.298, 1260.000
1002.409, 1302.000
1003.520, 1282.000
1004.631, 1308.000
1005.741, 1291.000
1006.852, 1258.000
1007.962, 1246.000
1009.072, 1242.000
1010.182, 1286.000
1011.292, 1306.000
1012.402, 1261.000
1013.511, 1190.000
1014.621, 1228.000
1015.730, 1249.000
1016.839, 1266.000
1017.948, 1277.000
1019.056, 1262.000
1020.165, 1264.000
1021.273, 1258.000
1022.382, 1244.000
1023.490, 1275.000
1024.598, 1235.000
1025.706, 1264.000
1026.813, 1260.000
1027.921, 1259.000
1029.028, 1256.000
1030.135, 1258.936
1031.242, 1245.000
1032.349, 1264.000
1033.456, 1273.000
1034.562, 1271.000
1035.668, 1256.000
1036.775, 1281.000
1037.881, 1254.000
1038.987, 1245.000
1040.092, 1279.000
1041.198, 1232.000
1042.303, 1218.000
1043.408, 1229.000
1044.514, 1258.000
1045.618, 1215.000
1046.723, 1246.000
1047.828, 1238.000
1048.932, 1210.000
1050.037, 1203.000
1051.141, 1230.000
1052.245, 1242.000
1053.349, 1241.000
1054.452, 1252.000
1055.556, 1252.000
1056.659, 1220.000
1057.762, 1221.000
1058.865, 1213.000
1059.968, 1199.000
1061.071, 1230.000
1062.174, 1218.000
1063.276, 1249.000
1064.378, 1227.000
1065.480, 1215.000
1066.582, 1243.000
1067.684, 1232.000
1068.786, 1230.000
1069.887, 1209.000
1070.988, 1241.000
1072.090, 1228.000
1073.191, 1223.000
1074.291, 1248.000
1075.392, 1215.000
1076.493, 1202.000
1077.593, 1211.000
1078.693, 1216.000
1079.793, 1246.000
1080.893, 1218.000
1081.993, 1242.000
1083.092, 1206.000
1084.192, 1202.000
1085.291, 1250.000
1086.390, 1219.000
1087.489, 1216.000
1088.588, 1205.000
1089.686, 1216.000
1090.785, 1242.000
1091.883, 1202.000
1092.981, 1227.000
1094.079, 1214.000
1095.177, 1264.000
1096.275, 1242.000
1097.373, 1212.000
1098.470, 1210.000
1099.567, 1202.479
1100.664, 1248.000
1101.761, 1212.000
1102.858, 1248.000
1103.954, 1263.000
1105.051, 1250.000
1106.147, 1243.000
1107.243, 1242.000
1108.339, 1248.000
1109.435, 1250.000
1110.531, 1280.000
1111.626, 1280.462
1112.722, 1247.000
1113.817, 1284.000
1114.912, 1287.000
1116.007, 1256.000
1117.101, 1267.000
1118.196, 1227.000
1119.290, 1266.000
1120.385, 1243.000
1121.479, 1270.000
1122.573, 1287.000
1123.666, 1258.000
1124.760, 1257.000
1125.853, 1262.923
1126.947, 1246.135
1128.040, 1274.000
1129.133, 1229.000
1130.226, 1231.000
1131.318, 1216.000
1132.411, 1232.000
1133.503, 1272.000
1134.596, 1240.000
1135.688, 1299.000
1136.780, 1241.000
1137.871, 1250.000
1138.963, 1258.000
1140.054, 1241.000
1141.146, 1257.000
1142.237, 1260.000
1143.328, 1245.000
1144.419, 1245.000
1145.509, 1269.000
1146.600, 1255.000
1147.690, 1270.000
1148.780, 1278.000
1149.870, 1275.000
1150.960, 1301.000
1152.050, 1260.000
1153.139, 1283.000
1154.229, 1243.000
1155.318, 1274.000
1156.407, 1256.000
1157.496, 1256.000
1158.585, 1272.000
1159.674, 1283.000
1160.762, 1268.000
1161.850, 1308.000
1162.939, 1265.000
1164.027, 1263.000
1165.114, 1278.000
1166.202, 1248.000
1167.290, 1283.000
1168.377, 1242.000
1169.464, 1288.000
1170.551, 1295.000
1171.638, 1297.000
1172.725, 1274.000
1173.812, 1302.000
1174.898, 1286.660
1175.984, 1308.000
1177.071, 1273.000
1178.157, 1289.000
1179.242, 1271.000
1180.328, 1270.000
1181.414, 1264.000
1182.499, 1297.000
1183.584, 1268.000
1184.669, 1290.000
1185.754, 1262.000
1186.839, 1271.000
1187.924, 1277.000
1189.008, 1301.000
1190.092, 1294.000
1191.177, 1246.000
1192.260, 1289.000
1193.344, 1275.000
1194.428, 1317.000
1195.512, 1305.000
1196.595, 1314.000
1197.678, 1284.000
1198.761, 1256.000
1199.844, 1289.000
1200.927, 1289.000
1202.009, 1249.000
1203.092, 1334.000
1204.174, 1297.000
1205.256, 1319.000
1206.338, 1303.000
1207.420, 1321.000
1208.502, 1324.000
1209.583, 1278.000
1210.665, 1317.000
1211.746, 1314.000
1212.827, 1357.000
1213.908, 1313.000
1214.988, 1345.000
1216.069, 1310.000
1217.149, 1329.000
1218.230, 1324.000
1219.310, 1347.000
1220.390, 1344.000
1221.470, 1362.000
1222.549, 1325.000
1223.629, 1355.000
1224.708, 1326.000
1225.787, 1350.000
1226.866, 1379.000
1227.945, 1343.000
1229.024, 1331.000
1230.103, 1343.000
1231.181, 1383.000
1232.259, 1336.000
1233.337, 1347.000
1234.415, 1393.000
1235.493, 1342.000
1236.571, 1380.000
1237.648, 1362.000
1238.726, 1368.000
1239.803, 1314.000
1240.880, 1374.000
1241.957, 1344.000
1243.034, 1358.000
1244.110, 1343.000
1245.187, 1356.000
1246.263, 1323.000
1247.339, 1319.000
1248.415, 1327.000
1249.491, 1386.000
1250.566, 1323.000
1251.642, 1359.000
1252.717, 1321.000
1253.793, 1309.000
1254.868, 1326.000
1255.943, 1332.000
1257.017, 1307.000
1258.092, 1313.000
1259.166, 1337.000
1260.241, 1382.000
1261.315, 1323.000
1262.389, 1322.000
1263.462, 1334.000
1264.536, 1299.000
1265.610, 1314.000
1266.683, 1323.000
1267.756, 1319.000
1268.829, 1285.000
1269.902, 1347.000
1270.975, 1303.000
1272.048, 1312.000
1273.120, 1321.000
1274.192, 1321.000
1275.264, 1338.000
1276.336, 1344.000
1277.408, 1311.000
1278.480, 1301.000
1279.551, 1330.000
1280.623, 1285.000
1281.694, 1308.000
1282.765, 1314.000
1283.836, 1346.000
1284.907, 1278.000
1285.977, 1299.000
1287.048, 1318.000
1288.118, 1337.000
1289.188, 1341.000
1290.258, 1336.000
1291.328, 1311.000
1292.398, 1327.000
1293.467, 1335.000
1294.537, 1307.000
1295.606, 1336.000
1296.675, 1312.000
1297.744, 1358.000
1298.813, 1331.000
1299.882, 1315.000
1300.950, 1299.000
1302.018, 1330.000
1303.086, 1314.000
1304.155, 1272.000
1305.222, 1306.000
1306.290, 1264.000
1307.358, 1289.000
1308.425, 1310.000
1309.492, 1295.000
1310.559, 1286.000
1311.626, 1293.000
1312.693, 1294.000
1313.760, 1226.000
1314.826, 1303.000
1315.893, 1258.000
1316.959, 1305.000
1318.025, 1288.000
1319.091, 1292.000
1320.157, 1286.000
1321.222, 1294.000
1322.288, 1289.000
1323.353, 1313.000
1324.418, 1340.000
1325.483, 1275.000
1326.548, 1321.000
1327.612, 1295.000
1328.677, 1320.000
1329.741, 1272.000
1330.806, 1332.000
1331.870, 1317.000
1332.934, 1289.000
1333.997, 1302.000
1335.061, 1329.000
1336.124, 1297.000
1337.188, 1308.000
1338.251, 1261.000
1339.314, 1342.000
1340.377, 1292.000
1341.439, 1314.000
1342.502, 1331.000
1343.564, 1335.000
1344.627, 1294.000
1345.689, 1337.000
1346.751, 1308.000
1347.813, 1332.000
1348.874, 1320.000
1349.936, 1325.000
1350.997, 1329.336
1352.058, 1325.000
1353.119, 1323.000
1354.180, 1344.000
1355.241, 1326.000
1356.301, 1348.000
1357.362, 1308.000
1358.422, 1297.000
1359.482, 1312.000
1360.542, 1327.000
1361.602, 1337.000
1362.662, 1339.164
1363.721, 1340.779
1364.781, 1340.000
1365.840, 1329.000
1366.899, 1336.000
1367.958, 1323.000
1369.017, 1349.000
1370.075, 1355.000
1371.134, 1313.000
1372.192, 1308.000
1373.250, 1286.000
1374.308, 1297.981
1375.366, 1302.000
1376.424, 1329.000
1377.481, 1331.000
1378.539, 1325.000
1379.596, 1334.000
1380.653, 1327.183
1381.710, 1331.000
1382.767, 1329.000
1383.824, 1324.000
1384.880, 1346.000
1385.937, 1356.000
1386.993, 1298.000
1388.049, 1322.000
1389.105, 1328.000
1390.161, 1376.000
1391.216, 1338.000
1392.272, 1335.000
1393.327, 1338.000
1394.382, 1311.000
1395.437, 1314.000
1396.492, 1334.000
1397.547, 1339.000
1398.601, 1329.000
1399.656, 1355.000
1400.710, 1342.000
1401.764, 1344.000
1402.818, 1313.000
1403.872, 1377.000
1404.925, 1337.000
1405.979, 1362.000
1407.032, 1380.000
1408.085, 1379.000
1409.139, 1345.000
1410.191, 1370.000
1411.244, 1336.000
1412.297, 1378.000
1413.349, 1323.000
1414.402, 1327.000
1415.454, 1364.000
1416.506, 1345.000
1417.558, 1340.000
1418.609, 1343.000
1419.661, 1365.000
1420.712, 1343.000
1421.764, 1393.000
1422.815, 1358.000
1423.866, 1347.000
1424.916, 1394.000
1425.967, 1349.000
1427.018, 1393.000
1428.068, 1374.000
1429.118, 1365.000
1430.168, 1379.000
1431.218, 1356.000
1432.268, 1382.000
1433.318, 1375.000
1434.367, 1420.000
1435.416, 1361.000
1436.465, 1370.000
1437.514, 1399.000
1438.563, 1397.000
1439.612, 1379.000
1440.661, 1378.000
1441.709, 1405.000
1442.757, 1377.000
1443.805, 1374.000
1444.853, 1383.000
1445.901, 1423.000
1446.949, 1401.000
1447.996, 1393.000
1449.044, 1413.741
1450.091, 1403.000
1451.138, 1435.000
1452.185, 1440.000
1453.232, 1450.000
1454.278, 1384.000
1455.325, 1361.000
1456.371, 1426.000
1457.417, 1395.000
1458.463, 1415.000
1459.509, 1388.000
1460.555, 1446.000
1461.601, 1404.000
1462.646, 1366.000
1463.691, 1439.000
1464.737, 1390.000
1465.782, 1447.000
1466.826, 1411.000
1467.871, 1403.000
1468.916, 1451.000
1469.960, 1416.000
1471.004, 1382.000
1472.048, 1525.000
1473.092, 1439.000
1474.136, 1456.000
1475.180, 1482.000
1476.223, 1439.000
1477.267, 1417.000
1478.310, 1479.000
1479.353, 1476.000
1480.396, 1454.000
1481.439, 1452.000
1482.481, 1497.000
1483.524, 1506.000
1484.566, 1458.000
1485.608, 1488.000
1486.650, 1449.000
1487.692, 1508.000
1488.734, 1459.000
1489.775, 1480.000
1490.817, 1535.000
1491.858, 1490.000
1492.899, 1494.000
1493.940, 1511.000
1494.981, 1480.000
1496.022, 1474.000
1497.062, 1538.000
1498.103, 1504.000
1499.143, 1481.000
1500.183, 1522.000
1501.223, 1511.000
1502.263, 1489.000
1503.302, 1516.000
1504.342, 1510.000
1505.381, 1460.000
1506.420, 1508.000
1507.459, 1517.000
1508.498, 1500.000
1509.537, 1522.000
1510.576, 1507.539
1511.614, 1471.000
1512.652, 1486.000
1513.691, 1478.000
1514.729, 1457.000
1515.767, 1480.000
1516.804, 1462.000
1517.842, 1453.000
1518.879, 1423.000
1519.917, 1430.000
1520.954, 1432.000
1521.991, 1436.000
1523.028, 1441.260
1524.064, 1444.356
1525.101, 1451.000
1526.137, 1451.000
1527.173, 1456.000
1528.210, 1456.000
1529.245, 1456.000
1530.281, 1446.000
1531.317, 1428.000
1532.352, 1396.000
1533.388, 1442.000
1534.423, 1395.000
1535.458, 1426.000
1536.493, 1422.000
1537.528, 1426.000
1538.562, 1419.000
1539.597, 1433.000
1540.631, 1424.000
1541.665, 1407.000
1542.700, 1447.000
1543.733, 1460.000
1544.767, 1423.000
1545.801, 1453.000
1546.834, 1415.000
1547.868, 1437.000
1548.901, 1413.000
1549.934, 1405.000
1550.967, 1467.000
1551.999, 1493.000
1553.032, 1462.000
1554.064, 1481.000
1555.097, 1442.000
1556.129, 1408.000
1557.161, 1411.000
1558.193, 1403.000
1559.224, 1426.000
1560.256, 1486.000
1561.287, 1443.000
1562.318, 1432.000
1563.350, 1490.000
##END=



