##NAMES=Forsterite
##RRUFFID=R060535
##IDEAL CHEMISTRY=Mg_2_SiO_4_
##LOCALITY=unknown
##OWNER=RRUFF
##SOURCE=Gemological Institute of America
##DESCRIPTION=Transparent brown gemstone
##STATUS=The identification of this mineral has been confirmed by X-ray diffraction and chemical analysis
##URL=rruff.info/R060535
##MEASURED CHEMISTRY=(Mg_1.81_Fe_0.18_Ni_0.01_)_Î£=2_Si_1.00_O_4_
##PIN_ID=L00998
##ORIENTATION=Laser parallel to c* (0 0 1). Fiducial mark perpendicular to laser is parallel to a [1 0 0]
225.6240, 1710.000
226.8440, 1685.000
228.0640, 1659.000
229.2840, 1666.000
230.5030, 1593.000
231.7230, 1627.000
232.9420, 1539.000
234.1610, 1589.000
235.3800, 1517.000
236.5990, 1503.000
237.8170, 1466.000
239.0360, 1484.000
240.2540, 1439.000
241.4720, 1368.000
242.6900, 1390.000
243.9080, 1360.000
245.1250, 1324.000
246.3430, 1306.000
247.5600, 1333.000
248.7770, 1304.000
249.9940, 1265.000
251.2110, 1305.000
252.4280, 1247.000
253.6450, 1251.000
254.8610, 1274.000
256.0770, 1267.000
257.2930, 1316.000
258.5090, 1309.000
259.7250, 1313.000
260.9400, 1244.000
262.1560, 1256.000
263.3710, 1248.000
264.5860, 1261.000
265.8010, 1261.420
267.0160, 1287.000
268.2310, 1261.000
269.4450, 1266.000
270.6600, 1254.000
271.8740, 1306.000
273.0880, 1293.000
274.3020, 1284.000
275.5150, 1322.000
276.7290, 1294.000
277.9420, 1322.000
279.1550, 1313.000
280.3680, 1348.028
281.5810, 1395.000
282.7940, 1427.000
284.0070, 1498.000
285.2190, 1534.000
286.4310, 1676.000
287.6430, 1811.000
288.8550, 1984.000
290.0670, 2218.000
291.2790, 2439.000
292.4900, 2808.000
293.7020, 3128.000
294.9130, 3448.000
296.1240, 3792.000
297.3350, 4187.000
298.5450, 4496.000
299.7560, 4686.000
300.9660, 4761.000
302.1760, 4580.000
303.3860, 4440.000
304.5960, 4105.000
305.8060, 3764.000
307.0150, 3218.000
308.2250, 2895.000
309.4340, 2591.000
310.6430, 2355.000
311.8520, 2215.000
313.0610, 2028.000
314.2700, 2007.000
315.4780, 2017.000
316.6860, 1924.000
317.8940, 1998.000
319.1020, 1963.000
320.3100, 1951.000
321.5180, 1979.000
322.7250, 1963.000
323.9330, 1870.000
325.1400, 1929.000
326.3470, 1795.000
327.5540, 1736.000
328.7600, 1669.000
329.9670, 1561.000
331.1730, 1444.000
332.3800, 1394.000
333.5860, 1348.000
334.7920, 1306.000
335.9970, 1299.000
337.2030, 1295.000
338.4080, 1246.000
339.6140, 1219.000
340.8190, 1229.000
342.0240, 1210.000
343.2290, 1172.000
344.4330, 1175.000
345.6380, 1158.000
346.8420, 1168.000
348.0460, 1128.000
349.2500, 1156.000
350.4540, 1153.000
351.6580, 1181.000
352.8610, 1161.000
354.0650, 1129.000
355.2680, 1151.000
356.4710, 1108.000
357.6740, 1115.000
358.8760, 1164.000
360.0790, 1121.000
361.2810, 1160.000
362.4840, 1111.000
363.6860, 1128.000
364.8880, 1142.000
366.0900, 1123.000
367.2910, 1136.000
368.4930, 1130.000
369.6940, 1122.000
370.8950, 1130.589
372.0960, 1113.000
373.2970, 1130.000
374.4980, 1121.000
375.6980, 1104.000
376.8980, 1119.000
378.0990, 1120.000
379.2990, 1139.000
380.4980, 1132.000
381.6980, 1150.000
382.8980, 1148.639
384.0970, 1151.757
385.2960, 1142.000
386.4950, 1157.000
387.6940, 1141.000
388.8930, 1143.000
390.0920, 1164.000
391.2900, 1154.000
392.4880, 1177.000
393.6860, 1198.000
394.8840, 1155.000
396.0820, 1172.000
397.2800, 1181.000
398.4770, 1232.000
399.6750, 1234.000
400.8720, 1281.000
402.0690, 1305.000
403.2660, 1365.000
404.4620, 1444.000
405.6590, 1461.000
406.8550, 1591.000
408.0510, 1691.000
409.2480, 1806.000
410.4430, 1889.000
411.6390, 1963.000
412.8350, 2034.000
414.0300, 2078.000
415.2250, 2055.000
416.4200, 2012.000
417.6150, 1986.000
418.8100, 1924.000
420.0050, 1818.000
421.1990, 1702.000
422.3940, 1632.000
423.5880, 1531.000
424.7820, 1518.000
425.9750, 1486.000
427.1690, 1395.000
428.3630, 1379.000
429.5560, 1402.000
430.7490, 1362.000
431.9420, 1346.000
433.1350, 1303.000
434.3280, 1269.000
435.5200, 1240.000
436.7130, 1245.000
437.9050, 1200.000
439.0970, 1213.000
440.2890, 1159.000
441.4810, 1209.000
442.6720, 1148.000
443.8640, 1141.000
445.0550, 1155.000
446.2460, 1166.000
447.4370, 1142.000
448.6280, 1160.000
449.8180, 1159.000
451.0090, 1099.000
452.1990, 1124.000
453.3890, 1123.000
454.5790, 1142.000
455.7690, 1130.000
456.9590, 1120.000
458.1480, 1140.000
459.3380, 1156.000
460.5270, 1152.000
461.7160, 1166.000
462.9050, 1181.000
464.0940, 1129.000
465.2820, 1147.000
466.4700, 1152.000
467.6590, 1168.000
468.8470, 1159.000
470.0350, 1162.481
471.2220, 1158.054
472.4100, 1162.000
473.5970, 1164.000
474.7850, 1179.000
475.9720, 1186.335
477.1590, 1199.000
478.3460, 1207.000
479.5320, 1202.000
480.7190, 1203.000
481.9050, 1170.000
483.0910, 1197.000
484.2770, 1204.000
485.4630, 1236.000
486.6490, 1301.000
487.8340, 1197.000
489.0200, 1208.000
490.2050, 1172.000
491.3900, 1271.000
492.5750, 1225.000
493.7600, 1268.000
494.9440, 1239.000
496.1290, 1193.000
497.3130, 1232.000
498.4970, 1251.000
499.6810, 1209.000
500.8650, 1230.000
502.0480, 1208.000
503.2320, 1260.000
504.4150, 1218.000
505.5980, 1227.000
506.7810, 1252.000
507.9640, 1247.000
509.1460, 1253.000
510.3290, 1261.000
511.5110, 1215.000
512.6930, 1251.000
513.8750, 1248.000
515.0570, 1265.000
516.2390, 1286.000
517.4210, 1292.913
518.6020, 1260.000
519.7830, 1298.000
520.9640, 1307.000
522.1450, 1261.000
523.3260, 1228.000
524.5060, 1251.000
525.6870, 1291.000
526.8670, 1269.000
528.0470, 1308.000
529.2270, 1264.000
530.4070, 1265.000
531.5870, 1240.000
532.7660, 1300.000
533.9450, 1285.000
535.1240, 1309.000
536.3030, 1328.000
537.4820, 1304.000
538.6610, 1373.000
539.8390, 1359.000
541.0180, 1383.000
542.1960, 1347.000
543.3740, 1395.000
544.5520, 1395.000
545.7290, 1394.000
546.9070, 1369.000
548.0840, 1398.000
549.2620, 1397.000
550.4390, 1375.000
551.6160, 1363.000
552.7920, 1339.000
553.9690, 1410.000
555.1450, 1376.000
556.3220, 1435.000
557.4980, 1475.000
558.6740, 1446.000
559.8490, 1449.000
561.0250, 1466.000
562.2000, 1455.000
563.3760, 1461.000
564.5510, 1484.000
565.7260, 1510.000
566.9010, 1575.000
568.0750, 1562.000
569.2500, 1572.000
570.4240, 1607.000
571.5980, 1600.000
572.7720, 1653.000
573.9460, 1733.000
575.1200, 1747.000
576.2930, 1817.000
577.4670, 1810.000
578.6400, 1844.000
579.8130, 1962.000
580.9860, 2015.000
582.1590, 2010.000
583.3310, 2149.000
584.5040, 2254.000
585.6760, 2319.000
586.8480, 2497.000
588.0200, 2672.000
589.1920, 2789.000
590.3630, 3019.000
591.5350, 3388.000
592.7060, 3734.000
593.8770, 4149.000
595.0480, 4573.000
596.2190, 5080.000
597.3900, 5538.000
598.5600, 6145.000
599.7310, 6516.000
600.9010, 7122.000
602.0710, 7450.000
603.2410, 7629.000
604.4100, 7569.000
605.5800, 7533.000
606.7490, 7176.000
607.9190, 6710.000
609.0880, 6339.000
610.2570, 5681.000
611.4250, 4980.000
612.5940, 4570.000
613.7620, 4110.000
614.9310, 3649.000
616.0990, 3301.000
617.2670, 3003.000
618.4340, 2754.000
619.6020, 2600.000
620.7690, 2465.000
621.9370, 2303.000
623.1040, 2183.000
624.2710, 2134.000
625.4380, 2012.000
626.6040, 1936.000
627.7710, 1860.000
628.9370, 1820.000
630.1030, 1745.000
631.2690, 1711.000
632.4350, 1677.000
633.6010, 1644.703
634.7660, 1664.000
635.9320, 1594.000
637.0970, 1600.000
638.2620, 1547.000
639.4270, 1561.000
640.5920, 1556.000
641.7560, 1566.000
642.9210, 1563.000
644.0850, 1507.000
645.2490, 1536.000
646.4130, 1499.000
647.5770, 1534.000
648.7400, 1532.000
649.9040, 1494.000
651.0670, 1482.000
652.2300, 1475.000
653.3930, 1488.000
654.5560, 1482.000
655.7190, 1455.000
656.8810, 1494.000
658.0440, 1453.000
659.2060, 1462.000
660.3680, 1439.000
661.5300, 1455.000
662.6910, 1388.000
663.8530, 1398.000
665.0140, 1403.000
666.1750, 1398.000
667.3360, 1395.000
668.4970, 1393.000
669.6580, 1409.000
670.8190, 1386.000
671.9790, 1407.000
673.1390, 1396.000
674.2990, 1425.000
675.4590, 1408.141
676.6190, 1363.000
677.7790, 1392.000
678.9380, 1390.000
680.0970, 1406.000
681.2570, 1409.000
682.4160, 1423.000
683.5740, 1419.000
684.7330, 1446.000
685.8920, 1390.000
687.0500, 1377.000
688.2080, 1464.000
689.3660, 1399.000
690.5240, 1449.000
691.6820, 1461.000
692.8390, 1406.000
693.9960, 1467.000
695.1540, 1428.000
696.3110, 1472.000
697.4680, 1415.000
698.6240, 1511.000
699.7810, 1502.000
700.9370, 1484.000
702.0940, 1500.000
703.2500, 1524.000
704.4060, 1489.000
705.5610, 1491.000
706.7170, 1529.000
707.8720, 1547.000
709.0280, 1537.000
710.1830, 1518.000
711.3380, 1538.000
712.4920, 1561.000
713.6470, 1543.000
714.8020, 1620.000
715.9560, 1575.000
717.1100, 1636.000
718.2640, 1640.000
719.4180, 1632.000
720.5720, 1597.000
721.7250, 1651.000
722.8780, 1691.000
724.0320, 1704.000
725.1850, 1670.000
726.3380, 1747.000
727.4900, 1721.000
728.6430, 1697.000
729.7950, 1721.000
730.9470, 1801.000
732.1000, 1779.000
733.2510, 1786.000
734.4030, 1783.000
735.5550, 1784.000
736.7060, 1852.000
737.8570, 1835.000
739.0090, 1871.000
740.1600, 1853.000
741.3100, 1848.000
742.4610, 1936.000
743.6110, 1922.000
744.7620, 1988.000
745.9120, 1911.000
747.0620, 2015.000
748.2120, 2057.000
749.3610, 2011.000
750.5110, 1988.000
751.6600, 2010.000
752.8090, 2079.000
753.9580, 2058.000
755.1070, 2050.000
756.2560, 2089.000
757.4050, 2086.000
758.5530, 2129.000
759.7010, 2114.000
760.8490, 2070.000
761.9970, 2100.000
763.1450, 2115.000
764.2920, 2195.000
765.4400, 2187.000
766.5870, 2235.000
767.7340, 2267.000
768.8810, 2337.000
770.0280, 2373.000
771.1740, 2368.000
772.3210, 2504.000
773.4670, 2577.000
774.6130, 2585.000
775.7590, 2647.000
776.9050, 2715.000
778.0510, 2774.000
779.1960, 2823.000
780.3420, 2830.000
781.4870, 2806.000
782.6320, 2773.000
783.7770, 2763.000
784.9210, 2801.000
786.0660, 2819.000
787.2100, 2853.333
788.3540, 2891.313
789.4980, 2946.000
790.6420, 2978.000
791.7860, 3040.000
792.9300, 3100.000
794.0730, 3216.032
795.2160, 3343.000
796.3590, 3490.000
797.5020, 3625.000
798.6450, 3783.000
799.7880, 4118.000
800.9300, 4287.000
802.0720, 4585.000
803.2150, 4977.000
804.3560, 5399.000
805.4980, 5764.000
806.6400, 6494.000
807.7810, 7296.000
808.9230, 8246.000
810.0640, 9359.000
811.2050, 10941.00
812.3460, 12970.00
813.4860, 15625.00
814.6270, 18785.00
815.7670, 22674.00
816.9070, 26830.00
818.0470, 31088.00
819.1870, 34940.00
820.3270, 38157.00
821.4670, 40333.00
822.6060, 40344.00
823.7450, 39077.00
824.8840, 35976.00
826.0230, 31994.00
827.1620, 27634.00
828.3010, 23547.00
829.4390, 19869.00
830.5770, 17296.00
831.7150, 15129.00
832.8530, 13575.00
833.9910, 12425.00
835.1290, 11936.00
836.2660, 11347.00
837.4030, 11276.00
838.5410, 11310.00
839.6780, 11747.00
840.8140, 12235.00
841.9510, 13253.00
843.0870, 14765.00
844.2240, 16598.00
845.3600, 19127.00
846.4960, 22215.00
847.6320, 26215.00
848.7680, 30295.00
849.9030, 34486.00
851.0380, 38799.00
852.1740, 42163.00
853.3090, 44460.00
854.4440, 44895.00
855.5780, 43769.00
856.7130, 41276.00
857.8470, 37181.00
858.9820, 32372.00
860.1160, 27627.00
861.2500, 23303.00
862.3830, 19521.00
863.5170, 16239.00
864.6500, 13969.00
865.7840, 11763.00
866.9170, 10251.00
868.0500, 8904.000
869.1830, 7926.000
870.3150, 6948.000
871.4480, 6282.000
872.5800, 5798.000
873.7120, 5365.000
874.8440, 4990.000
875.9760, 4605.000
877.1080, 4358.558
878.2390, 4219.000
879.3710, 3973.000
880.5020, 3813.000
881.6330, 3718.000
882.7640, 3531.000
883.8940, 3373.000
885.0250, 3258.000
886.1550, 3034.000
887.2850, 2933.000
888.4160, 2734.000
889.5450, 2730.000
890.6750, 2606.000
891.8050, 2561.000
892.9340, 2501.000
894.0630, 2447.000
895.1930, 2346.000
896.3220, 2270.000
897.4500, 2272.000
898.5790, 2236.000
899.7070, 2210.000
900.8360, 2141.000
901.9640, 2135.000
903.0920, 2163.000
904.2200, 2107.000
905.3470, 2172.000
906.4750, 2104.000
907.6020, 2091.000
908.7290, 2097.619
909.8560, 2094.000
910.9830, 2074.000
912.1100, 2060.000
913.2360, 2031.000
914.3630, 2089.000
915.4890, 2072.000
916.6150, 2088.000
917.7410, 2043.000
918.8670, 2057.000
919.9920, 2036.000
921.1180, 2014.000
922.2430, 2033.000
923.3680, 2006.000
924.4930, 1963.000
925.6180, 1979.000
926.7420, 2030.000
927.8670, 1966.000
928.9910, 2020.000
930.1150, 1996.000
931.2390, 2052.000
932.3630, 2054.000
933.4860, 2059.000
934.6100, 2065.000
935.7330, 2085.000
936.8560, 2171.000
937.9790, 2182.000
939.1020, 2234.000
940.2250, 2264.000
941.3470, 2319.000
942.4700, 2458.000
943.5920, 2568.000
944.7140, 2650.000
945.8360, 2776.000
946.9570, 2920.000
948.0790, 3145.000
949.2000, 3394.440
950.3220, 3605.000
951.4430, 4041.000
952.5640, 4443.000
953.6840, 4880.000
954.8050, 5531.000
955.9250, 5973.000
957.0460, 6566.000
958.1660, 7016.000
959.2860, 7411.000
960.4050, 7754.000
961.5250, 7867.000
962.6440, 7889.000
963.7640, 7641.000
964.8830, 7372.000
966.0020, 6947.000
967.1210, 6491.000
968.2390, 5997.000
969.3580, 5521.000
970.4760, 5005.000
971.5940, 4593.000
972.7120, 4195.000
973.8300, 3884.355
974.9480, 3590.000
976.0650, 3379.000
977.1830, 3228.000
978.3000, 3007.000
979.4170, 2872.000
980.5340, 2737.000
981.6500, 2648.000
982.7670, 2548.173
983.8830, 2495.000
985.0000, 2410.000
986.1160, 2372.000
987.2320, 2346.000
988.3470, 2283.000
989.4630, 2224.000
990.5780, 2168.000
991.6940, 2241.000
992.8090, 2162.000
993.9240, 2189.000
995.0380, 2140.000
996.1530, 2164.000
997.2680, 2164.000
998.3820, 2094.000
999.4960, 2100.000
1000.610, 2089.000
1001.724, 2102.000
1002.837, 2121.000
1003.951, 2119.000
1005.064, 2088.934
1006.177, 2071.517
1007.291, 2002.000
1008.403, 2002.000
1009.516, 1956.000
1010.629, 1929.000
1011.741, 1901.000
1012.853, 1899.000
1013.965, 1858.000
1015.077, 1863.686
1016.189, 1904.000
1017.300, 1875.000
1018.412, 1899.000
1019.523, 1927.000
1020.634, 1890.000
1021.745, 1938.000
1022.856, 1939.000
1023.966, 1911.000
1025.077, 1880.000
1026.187, 1931.000
1027.297, 1880.000
1028.407, 1888.000
1029.517, 1864.000
1030.627, 1858.000
1031.736, 1878.000
1032.845, 1907.000
1033.955, 1860.000
1035.064, 1866.000
1036.172, 1873.000
1037.281, 1802.000
1038.390, 1868.000
1039.498, 1849.000
1040.606, 1816.000
1041.714, 1796.000
1042.822, 1841.000
1043.930, 1833.000
1045.037, 1778.000
1046.145, 1851.000
1047.252, 1832.000
1048.359, 1787.000
1049.466, 1832.000
1050.573, 1763.000
1051.679, 1722.000
1052.786, 1751.000
1053.892, 1709.000
1054.998, 1730.000
1056.104, 1740.000
1057.210, 1741.000
1058.315, 1776.000
1059.421, 1713.000
1060.526, 1691.000
1061.631, 1716.000
1062.736, 1713.000
1063.841, 1699.000
1064.946, 1718.000
1066.050, 1722.000
1067.154, 1706.000
1068.258, 1695.000
1069.362, 1691.761
1070.466, 1700.000
1071.570, 1690.000
1072.674, 1720.000
1073.777, 1746.000
1074.880, 1735.000
1075.983, 1702.000
1077.086, 1791.000
1078.189, 1721.000
1079.291, 1717.000
1080.394, 1759.000
1081.496, 1773.000
1082.598, 1802.000
1083.700, 1770.000
1084.802, 1781.489
1085.903, 1726.000
1087.005, 1768.000
1088.106, 1737.000
1089.207, 1735.000
1090.308, 1761.000
1091.409, 1752.000
1092.509, 1773.000
1093.610, 1749.000
1094.710, 1791.000
1095.810, 1758.000
1096.910, 1728.000
1098.010, 1756.000
1099.110, 1782.000
1100.209, 1799.000
1101.309, 1810.000
1102.408, 1778.000
1103.507, 1822.000
1104.606, 1779.000
1105.704, 1731.000
1106.803, 1783.000
1107.901, 1761.000
1108.999, 1831.000
1110.097, 1815.000
1111.195, 1806.000
1112.293, 1778.000
1113.391, 1764.000
1114.488, 1846.000
1115.585, 1819.000
1116.682, 1846.000
1117.779, 1761.000
1118.876, 1826.000
1119.973, 1824.000
1121.069, 1794.000
1122.165, 1877.000
1123.261, 1844.000
1124.357, 1874.000
1125.453, 1820.000
1126.549, 1836.000
1127.644, 1801.000
1128.739, 1808.000
1129.835, 1777.000
1130.930, 1812.000
1132.024, 1809.000
1133.119, 1801.000
1134.214, 1840.000
1135.308, 1811.000
1136.402, 1841.000
1137.496, 1845.000
1138.590, 1770.000
1139.684, 1781.000
1140.777, 1832.000
1141.871, 1809.000
1142.964, 1858.000
1144.057, 1843.000
1145.150, 1834.000
1146.243, 1835.000
1147.335, 1841.000
1148.428, 1815.000
1149.520, 1810.000
1150.612, 1886.000
1151.704, 1868.000
1152.796, 1886.000
1153.887, 1821.000
1154.979, 1924.000
1156.070, 1864.000
1157.161, 1835.000
1158.252, 1907.000
1159.343, 1844.000
1160.433, 1910.000
1161.524, 1866.000
1162.614, 1857.000
1163.704, 1855.000
1164.794, 1857.000
1165.884, 1855.000
1166.974, 1879.000
1168.063, 1826.000
1169.153, 1919.000
1170.242, 1893.000
1171.331, 1889.000
1172.420, 1826.000
1173.508, 1873.000
1174.597, 1824.000
1175.685, 1881.000
1176.774, 1823.000
1177.862, 1867.000
1178.950, 1851.000
1180.037, 1872.000
1181.125, 1876.000
1182.212, 1866.000
1183.300, 1850.000
1184.387, 1862.000
1185.474, 1864.000
1186.560, 1882.000
1187.647, 1871.000
1188.733, 1911.000
1189.820, 1904.000
1190.906, 1865.000
1191.992, 1907.000
1193.078, 1866.000
1194.163, 1882.000
1195.249, 1883.000
1196.334, 1897.000
1197.419, 1851.000
1198.504, 1914.000
1199.589, 1932.000
1200.674, 1897.000
1201.758, 1872.000
1202.843, 1881.000
1203.927, 1890.863
1205.011, 1929.000
1206.095, 1950.000
1207.179, 1934.000
1208.262, 1957.000
1209.345, 1955.000
1210.429, 1952.000
1211.512, 1960.000
1212.595, 1911.000
1213.677, 1926.000
1214.760, 2026.000
1215.842, 1945.000
1216.925, 1935.000
1218.007, 2001.000
1219.089, 1967.000
1220.171, 1975.000
1221.252, 1972.000
1222.334, 2063.000
1223.415, 1985.000
1224.496, 2004.000
1225.577, 2016.000
1226.658, 1922.000
1227.738, 1963.000
1228.819, 2013.000
1229.899, 1999.000
1230.979, 2023.000
1232.060, 1956.000
1233.139, 2041.000
1234.219, 2006.000
1235.299, 1979.000
1236.378, 2012.000
1237.457, 1975.000
1238.536, 1954.000
1239.615, 1964.000
1240.694, 1995.000
1241.772, 1994.000
1242.851, 1968.000
1243.929, 1961.000
1245.007, 1975.000
1246.085, 1979.000
1247.163, 1927.000
1248.240, 2006.000
1249.318, 1941.000
1250.395, 1979.000
1251.472, 1959.000
1252.549, 1943.000
1253.626, 1918.000
1254.703, 1934.000
1255.779, 1893.000
1256.855, 1959.000
1257.931, 1998.000
1259.007, 1889.000
1260.083, 1928.000
1261.159, 1889.000
1262.234, 1953.000
1263.310, 1939.000
1264.385, 1930.000
1265.460, 1943.000
1266.535, 1946.000
1267.610, 1917.000
1268.684, 1911.000
1269.758, 1947.000
1270.833, 1938.000
1271.907, 1918.000
1272.981, 1920.000
1274.054, 1958.000
1275.128, 1869.000
1276.201, 1937.000
1277.275, 1933.000
1278.348, 1911.000
1279.421, 1939.000
1280.493, 1891.000
1281.566, 1922.000
1282.638, 1907.000
1283.711, 1934.000
1284.783, 1961.000
1285.855, 1907.000
1286.927, 1863.000
1287.998, 1927.000
1289.070, 1931.000
1290.141, 1878.000
1291.212, 1917.000
1292.283, 1921.000
1293.354, 1893.000
1294.425, 1892.000
1295.495, 1893.193
1296.566, 1888.728
1297.636, 1903.000
1298.706, 1897.000
1299.776, 1904.000
1300.845, 1905.000
1301.915, 1902.343
1302.984, 1895.000
1304.054, 1895.000
1305.123, 1915.000
1306.191, 1905.000
1307.260, 1926.000
1308.329, 1908.000
1309.397, 1942.000
1310.465, 1953.000
1311.534, 1925.000
1312.602, 1899.000
1313.669, 1940.000
1314.737, 1928.000
1315.804, 1904.000
1316.872, 1950.000
1317.939, 1906.000
1319.006, 1938.000
1320.073, 1944.000
1321.139, 1917.000
1322.206, 1893.000
1323.272, 1919.000
1324.338, 1911.000
1325.404, 1965.000
1326.470, 1968.000
1327.536, 1944.000
1328.601, 1936.000
1329.667, 1870.000
1330.732, 1896.000
1331.797, 1949.000
1332.862, 1949.000
1333.926, 1870.000
1334.991, 1945.000
1336.055, 1886.000
1337.120, 1936.000
1338.184, 1950.000
1339.248, 1954.000
1340.311, 1928.000
1341.375, 1919.000
1342.438, 1879.000
1343.502, 1884.647
1344.565, 1900.000
1345.628, 1887.000
1346.691, 1913.000
1347.753, 1914.000
1348.816, 1919.213
1349.878, 1936.000
1350.940, 1936.000
1352.002, 1916.000
1353.064, 1931.000
1354.126, 1917.000
1355.187, 1938.000
1356.248, 1957.000
1357.310, 1931.000
1358.371, 1903.000
1359.431, 1943.000
1360.492, 1906.000
1361.553, 1922.000
1362.613, 1899.000
1363.673, 1903.000
1364.733, 1942.000
1365.793, 1916.000
1366.853, 1967.000
1367.912, 1938.000
1368.972, 1952.000
1370.031, 1910.000
1371.090, 1976.000
1372.149, 1962.000
1373.208, 1973.000
1374.267, 1985.713
1375.325, 1961.000
1376.383, 1985.000
1377.441, 1939.000
1378.499, 1939.000
1379.557, 1925.000
1380.615, 1918.000
1381.672, 1980.000
1382.730, 1913.000
1383.787, 1941.000
1384.844, 2001.000
1385.901, 1952.000
1386.957, 1967.000
1388.014, 1953.000
1389.070, 2004.000
1390.126, 1970.000
1391.182, 1962.000
1392.238, 1934.000
1393.294, 1941.000
1394.349, 1896.000
1395.405, 1961.000
1396.460, 1996.000
1397.515, 1950.000
1398.570, 1967.000
1399.625, 1905.000
1400.679, 1961.000
1401.734, 1958.000
1402.788, 1942.000
1403.842, 1936.000
1404.896, 1934.000
1405.950, 1903.000
1407.003, 1908.000
1408.057, 1930.000
1409.110, 1915.105
1410.163, 1901.000
1411.216, 1925.000
1412.269, 1957.000
1413.322, 1982.000
1414.374, 1956.000
1415.427, 1903.000
1416.479, 2004.000
1417.531, 1940.000
1418.583, 2022.000
1419.634, 2043.000
1420.686, 1963.000
1421.737, 1974.000
1422.788, 1987.000
1423.839, 1931.000
1424.890, 1936.000
1425.941, 1992.000
1426.992, 1986.000
1428.042, 1978.000
1429.092, 1970.000
1430.142, 1956.000
1431.192, 1984.000
1432.242, 2029.000
1433.291, 1988.000
1434.341, 2002.000
1435.390, 2010.000
1436.439, 2001.000
1437.488, 1975.000
1438.537, 1973.000
1439.586, 2070.000
1440.634, 2003.000
1441.682, 2035.000
1442.731, 2063.000
1443.779, 2048.000
1444.826, 2011.000
1445.874, 2077.000
1446.922, 2071.000
1447.969, 2122.000
1449.016, 2054.000
1450.063, 2127.000
1451.110, 2082.000
1452.157, 2093.000
1453.203, 2149.000
1454.250, 2092.000
1455.296, 2120.000
1456.342, 2116.000
1457.388, 2110.000
1458.433, 2090.000
1459.479, 2109.000
1460.524, 2075.000
1461.570, 2050.000
1462.615, 2090.000
1463.660, 2057.000
1464.705, 2019.000
1465.749, 2016.000
1466.794, 2037.000
1467.838, 2043.000
1468.882, 2067.000
1469.926, 2041.000
1470.970, 2065.000
1472.013, 2071.000
1473.057, 2056.000
1474.100, 2074.000
1475.143, 2058.000
1476.186, 1995.000
1477.229, 2051.000
1478.272, 1988.000
1479.314, 2072.000
1480.357, 2047.000
1481.399, 2024.000
1482.441, 2049.000
1483.483, 2022.000
1484.525, 1988.000
1485.566, 2021.000
1486.608, 1998.000
1487.649, 2021.000
1488.690, 2008.000
1489.731, 2006.000
1490.771, 2043.000
1491.812, 1995.000
1492.853, 2017.000
1493.893, 2053.000
1494.933, 1991.000
1495.973, 1959.000
1497.013, 1992.000
1498.052, 2064.000
1499.092, 2015.000
1500.131, 2002.000
1501.170, 2002.000
1502.209, 1994.000
1503.248, 2034.000
1504.287, 2070.000
1505.325, 2029.000
1506.363, 2022.000
1507.402, 1970.000
1508.440, 2068.000
1509.478, 2005.000
1510.515, 2034.000
1511.553, 1945.000
1512.590, 2060.000
1513.627, 1997.000
1514.664, 1978.000
1515.701, 2055.000
1516.738, 2012.000
1517.775, 2016.000
1518.811, 2011.000
1519.847, 2014.000
1520.883, 2011.000
1521.919, 1981.000
1522.955, 1977.000
1523.991, 2047.000
1525.026, 2043.000
1526.061, 2026.000
1527.096, 1982.000
1528.131, 2034.000
1529.166, 2005.000
1530.201, 1998.000
1531.235, 2022.000
1532.270, 2063.000
1533.304, 2067.000
1534.338, 2010.000
1535.372, 2050.000
1536.405, 2012.000
1537.439, 2004.000
1538.472, 2032.000
1539.505, 2046.000
1540.538, 2080.000
1541.571, 2076.209
1542.604, 2075.183
1543.637, 2080.000
1544.669, 2039.000
1545.701, 2060.000
1546.733, 2022.000
1547.765, 2031.000
1548.797, 2037.000
1549.829, 2030.000
1550.860, 2074.000
1551.891, 2045.000
1552.922, 2027.000
1553.953, 2047.000
1554.984, 2069.000
1556.015, 2052.000
1557.045, 2068.000
1558.076, 2037.000
1559.106, 2012.000
1560.136, 2060.000
1561.165, 2059.000
1562.195, 2066.000
1563.225, 2018.000
1564.254, 2098.000
1565.283, 2138.000
##END=



