##NAMES=Forsterite
##RRUFFID=R060535
##IDEAL CHEMISTRY=Mg_2_SiO_4_
##LOCALITY=unknown
##OWNER=RRUFF
##SOURCE=Gemological Institute of America
##DESCRIPTION=Transparent brown gemstone
##STATUS=The identification of this mineral has been confirmed by X-ray diffraction and chemical analysis
##URL=rruff.info/R060535
##MEASURED CHEMISTRY=(Mg_1.81_Fe_0.18_Ni_0.01_)_Î£=2_Si_1.00_O_4_
##PIN_ID=L01269
##ORIENTATION=Laser parallel to a* (1 0 0). Fiducial mark perpendicular to laser is parallel to b [0 1 0]
208.8360, 977.0000
210.0610, 1027.000
211.2860, 1021.000
212.5100, 1086.000
213.7350, 1126.000
214.9590, 1157.000
216.1830, 1229.000
217.4070, 1283.000
218.6310, 1277.000
219.8540, 1290.000
221.0780, 1278.000
222.3010, 1271.000
223.5240, 1251.000
224.7470, 1184.000
225.9690, 1165.000
227.1920, 1098.000
228.4140, 1065.000
229.6360, 1004.000
230.8580, 998.0000
232.0800, 985.0000
233.3020, 982.0000
234.5230, 959.2285
235.7440, 922.0000
236.9650, 910.0000
238.1860, 900.0000
239.4070, 868.0000
240.6280, 861.0000
241.8480, 843.0000
243.0680, 854.0000
244.2880, 833.0000
245.5080, 841.0000
246.7280, 792.0000
247.9470, 800.0000
249.1660, 806.0000
250.3860, 817.0000
251.6040, 795.0000
252.8230, 804.0000
254.0420, 810.0000
255.2600, 802.0000
256.4790, 862.0000
257.6970, 829.0000
258.9150, 912.0000
260.1320, 937.0000
261.3500, 878.0000
262.5670, 852.0000
263.7840, 813.0000
265.0010, 807.7916
266.2180, 829.0000
267.4350, 816.0000
268.6510, 829.0000
269.8680, 836.0000
271.0840, 840.0000
272.3000, 847.5522
273.5160, 852.9519
274.7310, 854.0000
275.9470, 862.0000
277.1620, 860.0000
278.3770, 858.0000
279.5920, 865.0000
280.8070, 868.0000
282.0210, 873.0000
283.2360, 864.0000
284.4500, 902.0000
285.6640, 923.0000
286.8780, 930.0000
288.0920, 969.0000
289.3050, 966.0000
290.5180, 1031.000
291.7320, 1107.000
292.9450, 1141.000
294.1570, 1234.000
295.3700, 1270.000
296.5830, 1390.000
297.7950, 1485.000
299.0070, 1520.000
300.2190, 1554.000
301.4310, 1514.000
302.6420, 1482.000
303.8540, 1375.000
305.0650, 1314.000
306.2760, 1240.000
307.4870, 1153.000
308.6980, 1094.000
309.9080, 1066.000
311.1190, 1036.000
312.3290, 1041.000
313.5390, 1011.000
314.7490, 1052.000
315.9580, 1046.000
317.1680, 1058.000
318.3770, 1076.000
319.5860, 1152.000
320.7950, 1159.000
322.0040, 1213.000
323.2130, 1210.000
324.4210, 1243.000
325.6290, 1265.000
326.8380, 1207.000
328.0460, 1207.000
329.2530, 1215.000
330.4610, 1211.000
331.6680, 1201.000
332.8760, 1194.000
334.0830, 1222.000
335.2890, 1223.000
336.4960, 1237.000
337.7030, 1204.000
338.9090, 1207.000
340.1150, 1113.000
341.3210, 1092.000
342.5270, 1018.000
343.7330, 1031.000
344.9380, 975.0000
346.1440, 954.0000
347.3490, 953.0000
348.5540, 932.0000
349.7590, 898.0000
350.9630, 879.0000
352.1680, 872.7988
353.3720, 897.0000
354.5760, 886.0000
355.7800, 871.0000
356.9840, 911.0000
358.1870, 912.0000
359.3910, 901.0000
360.5940, 885.0000
361.7970, 890.0000
363.0000, 878.0000
364.2030, 876.0000
365.4050, 872.0000
366.6080, 898.0000
367.8100, 864.0000
369.0120, 891.0000
370.2140, 888.0000
371.4150, 882.0000
372.6170, 867.0000
373.8180, 866.0000
375.0190, 854.0000
376.2200, 881.0000
377.4210, 873.0344
378.6220, 872.9432
379.8220, 871.0000
381.0230, 869.0000
382.2230, 849.0000
383.4230, 852.0000
384.6220, 839.0000
385.8220, 815.0000
387.0220, 824.0000
388.2210, 807.0000
389.4200, 840.0000
390.6190, 819.0000
391.8180, 819.0000
393.0160, 836.0000
394.2150, 824.0000
395.4130, 819.0000
396.6110, 838.0000
397.8090, 836.0000
399.0060, 832.0000
400.2040, 863.0000
401.4010, 850.0000
402.5980, 830.0000
403.7950, 856.0000
404.9920, 890.0000
406.1890, 867.0000
407.3860, 898.0000
408.5820, 892.0000
409.7780, 933.0000
410.9740, 933.0000
412.1700, 957.0000
413.3650, 945.0000
414.5610, 966.0000
415.7560, 997.0000
416.9510, 996.0000
418.1460, 1006.000
419.3410, 973.0000
420.5360, 956.0000
421.7300, 984.0000
422.9240, 939.0000
424.1180, 949.0000
425.3120, 965.0000
426.5060, 928.0000
427.7000, 925.0000
428.8930, 959.0000
430.0860, 947.0000
431.2790, 924.0000
432.4720, 939.0000
433.6650, 972.0000
434.8580, 956.0000
436.0500, 956.0000
437.2420, 936.0000
438.4340, 924.0000
439.6260, 935.0000
440.8180, 887.0000
442.0090, 892.0000
443.2010, 907.0000
444.3920, 878.0000
445.5830, 901.0000
446.7740, 886.0000
447.9640, 890.0000
449.1550, 877.0000
450.3450, 861.0000
451.5350, 884.0000
452.7250, 891.0000
453.9150, 878.0000
455.1050, 910.0000
456.2940, 881.0000
457.4830, 858.0000
458.6720, 846.0000
459.8610, 855.0000
461.0500, 870.0000
462.2390, 887.0000
463.4270, 884.0000
464.6150, 908.0000
465.8040, 857.0000
466.9910, 911.0000
468.1790, 881.0000
469.3670, 889.0000
470.5540, 917.0000
471.7410, 901.0000
472.9280, 894.0000
474.1150, 904.0000
475.3020, 906.0000
476.4890, 893.0000
477.6750, 875.0000
478.8610, 894.0000
480.0470, 880.3083
481.2330, 884.0000
482.4190, 886.0000
483.6040, 875.0000
484.7900, 894.0000
485.9750, 893.0000
487.1600, 911.0000
488.3450, 879.0000
489.5290, 885.0000
490.7140, 899.0000
491.8980, 928.0000
493.0820, 882.0000
494.2660, 889.0000
495.4500, 915.0000
496.6340, 897.0000
497.8170, 908.0000
499.0010, 883.0000
500.1840, 891.0000
501.3670, 885.0000
502.5500, 906.0000
503.7320, 923.0000
504.9150, 914.0000
506.0970, 925.0000
507.2790, 906.0000
508.4610, 946.0000
509.6430, 933.0000
510.8250, 934.0000
512.0060, 916.0000
513.1870, 931.0000
514.3680, 962.0000
515.5490, 953.0000
516.7300, 921.0000
517.9110, 966.0000
519.0910, 982.0000
520.2710, 944.0000
521.4510, 951.0000
522.6310, 976.0000
523.8110, 939.0000
524.9910, 1003.000
526.1700, 994.0000
527.3490, 998.0000
528.5280, 1039.000
529.7070, 1047.000
530.8860, 1059.000
532.0650, 1100.000
533.2430, 1148.000
534.4210, 1208.000
535.5990, 1234.000
536.7770, 1277.000
537.9550, 1328.000
539.1320, 1401.000
540.3100, 1432.000
541.4870, 1416.000
542.6640, 1358.000
543.8410, 1301.000
545.0170, 1260.000
546.1940, 1192.864
547.3700, 1085.000
548.5470, 1079.000
549.7230, 1023.000
550.8980, 989.0000
552.0740, 1000.000
553.2500, 998.0000
554.4250, 951.0000
555.6000, 964.0000
556.7750, 968.0000
557.9500, 958.0000
559.1250, 948.0000
560.2990, 926.0000
561.4730, 960.0000
562.6480, 980.0000
563.8220, 930.0000
564.9950, 950.0000
566.1690, 937.0000
567.3430, 978.0000
568.5160, 947.0000
569.6890, 960.0000
570.8620, 985.0000
572.0350, 969.0000
573.2070, 1001.000
574.3800, 1007.000
575.5520, 1008.000
576.7240, 1079.000
577.8960, 1059.000
579.0680, 1085.000
580.2400, 1076.000
581.4110, 1123.000
582.5830, 1138.000
583.7540, 1141.969
584.9250, 1160.000
586.0950, 1154.000
587.2660, 1149.000
588.4370, 1157.000
589.6070, 1140.000
590.7770, 1143.000
591.9470, 1143.000
593.1170, 1086.000
594.2860, 1091.000
595.4560, 1084.000
596.6250, 1117.000
597.7940, 1130.000
598.9630, 1132.000
600.1320, 1156.476
601.3000, 1144.000
602.4690, 1185.000
603.6370, 1185.000
604.8050, 1194.000
605.9730, 1196.000
607.1410, 1147.000
608.3090, 1184.000
609.4760, 1183.000
610.6430, 1112.000
611.8100, 1129.000
612.9770, 1096.000
614.1440, 1094.000
615.3110, 1046.000
616.4770, 1059.000
617.6430, 1022.000
618.8090, 1020.000
619.9750, 1027.000
621.1410, 1020.000
622.3070, 1036.000
623.4720, 986.0000
624.6370, 976.0000
625.8020, 987.0000
626.9670, 951.0000
628.1320, 1002.000
629.2970, 969.0000
630.4610, 993.0000
631.6250, 974.0000
632.7890, 987.0000
633.9530, 978.0000
635.1170, 964.0000
636.2810, 942.0000
637.4440, 943.8513
638.6070, 949.0000
639.7700, 947.0000
640.9330, 939.0000
642.0960, 950.0000
643.2590, 966.0000
644.4210, 927.0000
645.5830, 979.0000
646.7450, 973.0000
647.9070, 930.0000
649.0690, 952.0000
650.2310, 975.0000
651.3920, 966.0000
652.5530, 963.0000
653.7140, 971.0000
654.8750, 984.0000
656.0360, 971.0000
657.1970, 982.0000
658.3570, 977.9026
659.5170, 958.0000
660.6770, 973.0000
661.8370, 972.0000
662.9970, 971.0000
664.1570, 969.0000
665.3160, 970.0000
666.4750, 961.3234
667.6340, 970.0000
668.7930, 954.0000
669.9520, 944.0000
671.1110, 962.0000
672.2690, 961.0000
673.4270, 956.0000
674.5850, 952.6113
675.7430, 945.0000
676.9010, 935.0000
678.0590, 962.0000
679.2160, 968.0000
680.3730, 958.0000
681.5300, 1004.000
682.6870, 935.0000
683.8440, 982.0000
685.0010, 975.0000
686.1570, 956.0000
687.3130, 983.0000
688.4690, 971.0000
689.6250, 958.0000
690.7810, 1003.000
691.9370, 964.0000
693.0920, 1003.000
694.2470, 998.0000
695.4020, 1013.000
696.5570, 1036.000
697.7120, 1007.000
698.8670, 1001.000
700.0210, 998.0000
701.1750, 985.2274
702.3290, 1002.000
703.4830, 989.0000
704.6370, 999.0000
705.7910, 1031.000
706.9440, 994.0000
708.0970, 1025.000
709.2510, 1037.000
710.4030, 1029.000
711.5560, 1031.000
712.7090, 1043.000
713.8610, 1066.000
715.0140, 1076.000
716.1660, 1083.477
717.3180, 1059.000
718.4690, 1089.000
719.6210, 1083.000
720.7730, 1078.000
721.9240, 1094.000
723.0750, 1107.000
724.2260, 1110.000
725.3770, 1094.000
726.5270, 1145.000
727.6780, 1132.000
728.8280, 1131.000
729.9780, 1168.000
731.1280, 1146.000
732.2780, 1119.000
733.4280, 1150.000
734.5770, 1154.000
735.7260, 1165.000
736.8760, 1210.000
738.0250, 1179.000
739.1730, 1208.000
740.3220, 1220.000
741.4700, 1152.000
742.6190, 1204.000
743.7670, 1239.000
744.9150, 1222.000
746.0630, 1268.000
747.2100, 1259.000
748.3580, 1262.000
749.5050, 1244.000
750.6520, 1272.000
751.7990, 1298.000
752.9460, 1255.000
754.0930, 1298.000
755.2390, 1265.000
756.3860, 1324.000
757.5320, 1294.000
758.6780, 1256.000
759.8240, 1286.000
760.9690, 1254.000
762.1150, 1267.000
763.2600, 1291.000
764.4060, 1210.000
765.5510, 1240.000
766.6950, 1257.000
767.8400, 1305.000
768.9850, 1310.245
770.1290, 1312.000
771.2730, 1331.000
772.4170, 1340.000
773.5610, 1348.000
774.7050, 1350.000
775.8480, 1413.000
776.9920, 1392.000
778.1350, 1416.000
779.2780, 1406.000
780.4210, 1405.000
781.5640, 1407.723
782.7060, 1405.000
783.8490, 1398.000
784.9910, 1394.000
786.1330, 1384.000
787.2750, 1414.000
788.4170, 1381.000
789.5580, 1400.000
790.7000, 1442.000
791.8410, 1395.000
792.9820, 1436.000
794.1230, 1498.000
795.2640, 1460.000
796.4040, 1480.000
797.5450, 1509.000
798.6850, 1532.000
799.8250, 1577.000
800.9650, 1644.000
802.1050, 1701.000
803.2450, 1757.000
804.3840, 1862.177
805.5230, 1926.000
806.6630, 2094.000
807.8020, 2206.000
808.9400, 2358.000
810.0790, 2557.000
811.2170, 2895.000
812.3560, 3197.000
813.4940, 3642.000
814.6320, 4356.000
815.7700, 4953.000
816.9070, 5913.000
818.0450, 6700.000
819.1820, 7694.000
820.3190, 8431.000
821.4560, 8869.000
822.5930, 9120.000
823.7300, 8581.000
824.8670, 7989.000
826.0030, 7107.000
827.1390, 6407.000
828.2750, 5810.000
829.4110, 5219.000
830.5470, 4918.000
831.6820, 4637.000
832.8180, 4518.000
833.9530, 4395.000
835.0880, 4409.000
836.2230, 4594.000
837.3580, 4750.000
838.4920, 5034.000
839.6270, 5409.000
840.7610, 5951.000
841.8950, 6688.000
843.0290, 7506.000
844.1630, 8750.000
845.2960, 10257.05
846.4300, 12048.00
847.5630, 14164.00
848.6960, 16641.00
849.8290, 19401.00
850.9620, 21827.00
852.0940, 24233.00
853.2270, 25653.00
854.3590, 25759.00
855.4910, 24600.00
856.6230, 22383.00
857.7550, 19813.00
858.8870, 17027.00
860.0180, 14405.00
861.1500, 11921.00
862.2810, 9910.000
863.4120, 8364.000
864.5430, 7009.000
865.6730, 6086.000
866.8040, 5376.000
867.9340, 4714.000
869.0640, 4207.000
870.1940, 3893.000
871.3240, 3548.000
872.4540, 3293.000
873.5830, 3052.000
874.7130, 2951.000
875.8420, 2883.000
876.9710, 2810.000
878.1000, 2711.000
879.2290, 2650.000
880.3570, 2584.000
881.4860, 2556.000
882.6140, 2390.000
883.7420, 2289.000
884.8700, 2214.000
885.9980, 2042.000
887.1250, 1966.000
888.2530, 1806.000
889.3800, 1818.000
890.5070, 1782.000
891.6340, 1709.000
892.7610, 1663.000
893.8880, 1650.000
895.0140, 1628.000
896.1400, 1595.000
897.2670, 1554.000
898.3930, 1561.000
899.5180, 1547.000
900.6440, 1506.000
901.7700, 1534.000
902.8950, 1576.000
904.0200, 1499.000
905.1450, 1566.000
906.2700, 1559.000
907.3950, 1531.000
908.5190, 1605.000
909.6440, 1602.000
910.7680, 1729.000
911.8920, 1792.000
913.0160, 1901.000
914.1400, 1980.000
915.2630, 2059.000
916.3870, 2126.000
917.5100, 2119.979
918.6330, 2101.929
919.7560, 2059.000
920.8790, 1957.000
922.0010, 1880.000
923.1240, 1752.000
924.2460, 1733.000
925.3680, 1661.000
926.4900, 1626.000
927.6120, 1669.000
928.7340, 1603.000
929.8550, 1595.000
930.9760, 1611.000
932.0980, 1564.000
933.2190, 1682.000
934.3390, 1719.000
935.4600, 1732.000
936.5810, 1743.000
937.7010, 1757.000
938.8210, 1819.000
939.9410, 1894.000
941.0610, 1952.000
942.1810, 2032.000
943.3010, 2077.000
944.4200, 2239.000
945.5390, 2240.000
946.6580, 2422.000
947.7770, 2545.000
948.8960, 2688.000
950.0150, 2798.000
951.1330, 2993.876
952.2510, 3206.000
953.3690, 3409.000
954.4870, 3669.000
955.6050, 3927.000
956.7230, 4025.000
957.8400, 4125.000
958.9580, 4197.000
960.0750, 4205.000
961.1920, 4148.000
962.3090, 4015.000
963.4250, 3726.000
964.5420, 3502.000
965.6580, 3282.000
966.7740, 2977.000
967.8900, 2655.000
969.0060, 2474.000
970.1220, 2264.000
971.2380, 2126.000
972.3530, 1960.000
973.4680, 1866.000
974.5830, 1738.000
975.6980, 1714.000
976.8130, 1585.000
977.9280, 1538.000
979.0420, 1477.000
980.1560, 1483.000
981.2710, 1377.000
982.3850, 1359.000
983.4980, 1329.000
984.6120, 1358.000
985.7260, 1308.000
986.8390, 1295.000
987.9520, 1274.000
989.0650, 1291.000
990.1780, 1294.000
991.2910, 1266.000
992.4030, 1269.000
993.5160, 1277.000
994.6280, 1280.000
995.7400, 1261.000
996.8520, 1264.000
997.9640, 1277.000
999.0750, 1260.000
1000.187, 1235.000
1001.298, 1269.000
1002.409, 1283.000
1003.520, 1225.000
1004.631, 1217.000
1005.741, 1205.000
1006.852, 1207.000
1007.962, 1233.000
1009.072, 1233.000
1010.182, 1224.000
1011.292, 1215.000
1012.402, 1205.000
1013.511, 1202.331
1014.621, 1203.170
1015.730, 1200.577
1016.839, 1199.000
1017.948, 1204.000
1019.056, 1202.000
1020.165, 1226.000
1021.273, 1207.000
1022.382, 1235.000
1023.490, 1231.232
1024.598, 1196.000
1025.706, 1230.000
1026.813, 1225.000
1027.921, 1216.000
1029.028, 1188.000
1030.135, 1235.000
1031.242, 1228.000
1032.349, 1224.000
1033.456, 1225.000
1034.562, 1211.000
1035.668, 1239.000
1036.775, 1244.000
1037.881, 1248.000
1038.987, 1229.000
1040.092, 1237.000
1041.198, 1252.000
1042.303, 1202.000
1043.408, 1207.000
1044.514, 1208.000
1045.618, 1242.000
1046.723, 1217.000
1047.828, 1261.000
1048.932, 1262.000
1050.037, 1214.000
1051.141, 1244.000
1052.245, 1229.000
1053.349, 1217.000
1054.452, 1193.000
1055.556, 1224.000
1056.659, 1220.000
1057.762, 1203.000
1058.865, 1176.000
1059.968, 1189.000
1061.071, 1216.000
1062.174, 1215.000
1063.276, 1212.000
1064.378, 1204.000
1065.480, 1166.000
1066.582, 1245.000
1067.684, 1163.000
1068.786, 1168.000
1069.887, 1221.000
1070.988, 1204.000
1072.090, 1193.000
1073.191, 1212.000
1074.291, 1205.000
1075.392, 1176.000
1076.493, 1183.000
1077.593, 1174.776
1078.693, 1173.119
1079.793, 1183.000
1080.893, 1183.000
1081.993, 1203.000
1083.092, 1215.000
1084.192, 1192.000
1085.291, 1227.000
1086.390, 1167.000
1087.489, 1217.000
1088.588, 1183.000
1089.686, 1228.000
1090.785, 1208.000
1091.883, 1190.000
1092.981, 1214.000
1094.079, 1167.000
1095.177, 1207.000
1096.275, 1207.000
1097.373, 1196.000
1098.470, 1217.000
1099.567, 1214.000
1100.664, 1183.000
1101.761, 1191.000
1102.858, 1195.000
1103.954, 1236.000
1105.051, 1223.000
1106.147, 1220.000
1107.243, 1224.000
1108.339, 1209.000
1109.435, 1240.000
1110.531, 1200.000
1111.626, 1238.000
1112.722, 1246.000
1113.817, 1229.000
1114.912, 1243.000
1116.007, 1243.000
1117.101, 1223.000
1118.196, 1249.000
1119.290, 1196.000
1120.385, 1214.000
1121.479, 1227.000
1122.573, 1251.000
1123.666, 1257.000
1124.760, 1244.000
1125.853, 1235.000
1126.947, 1230.000
1128.040, 1210.000
1129.133, 1226.000
1130.226, 1245.000
1131.318, 1217.000
1132.411, 1197.000
1133.503, 1241.000
1134.596, 1234.000
1135.688, 1210.000
1136.780, 1224.000
1137.871, 1256.000
1138.963, 1227.000
1140.054, 1240.000
1141.146, 1185.000
1142.237, 1244.000
1143.328, 1265.000
1144.419, 1246.000
1145.509, 1222.000
1146.600, 1247.000
1147.690, 1218.000
1148.780, 1252.000
1149.870, 1210.000
1150.960, 1249.000
1152.050, 1239.000
1153.139, 1239.000
1154.229, 1230.000
1155.318, 1272.000
1156.407, 1241.000
1157.496, 1270.000
1158.585, 1238.000
1159.674, 1233.000
1160.762, 1284.000
1161.850, 1301.000
1162.939, 1276.000
1164.027, 1260.000
1165.114, 1257.000
1166.202, 1266.000
1167.290, 1284.000
1168.377, 1251.000
1169.464, 1257.000
1170.551, 1231.000
1171.638, 1248.000
1172.725, 1235.000
1173.812, 1250.000
1174.898, 1244.179
1175.984, 1236.866
1177.071, 1236.000
1178.157, 1221.000
1179.242, 1218.000
1180.328, 1213.000
1181.414, 1214.894
1182.499, 1253.000
1183.584, 1243.000
1184.669, 1219.000
1185.754, 1266.000
1186.839, 1272.000
1187.924, 1236.000
1189.008, 1248.000
1190.092, 1235.000
1191.177, 1237.000
1192.260, 1189.000
1193.344, 1213.000
1194.428, 1252.000
1195.512, 1210.000
1196.595, 1216.000
1197.678, 1284.000
1198.761, 1265.000
1199.844, 1229.000
1200.927, 1239.000
1202.009, 1276.000
1203.092, 1260.000
1204.174, 1213.000
1205.256, 1300.000
1206.338, 1258.000
1207.420, 1250.000
1208.502, 1268.000
1209.583, 1261.000
1210.665, 1249.000
1211.746, 1265.000
1212.827, 1264.000
1213.908, 1270.000
1214.988, 1273.790
1216.069, 1281.922
1217.149, 1273.000
1218.230, 1277.417
1219.310, 1287.920
1220.390, 1276.000
1221.470, 1273.000
1222.549, 1273.000
1223.629, 1270.000
1224.708, 1272.941
1225.787, 1255.000
1226.866, 1290.000
1227.945, 1301.000
1229.024, 1333.000
1230.103, 1283.000
1231.181, 1302.000
1232.259, 1250.000
1233.337, 1285.000
1234.415, 1272.000
1235.493, 1256.000
1236.571, 1259.000
1237.648, 1275.000
1238.726, 1250.000
1239.803, 1247.000
1240.880, 1283.000
1241.957, 1250.000
1243.034, 1275.000
1244.110, 1279.000
1245.187, 1240.000
1246.263, 1260.000
1247.339, 1241.000
1248.415, 1278.000
1249.491, 1277.000
1250.566, 1233.000
1251.642, 1264.000
1252.717, 1224.000
1253.793, 1271.000
1254.868, 1217.000
1255.943, 1247.000
1257.017, 1225.000
1258.092, 1298.000
1259.166, 1230.000
1260.241, 1279.000
1261.315, 1260.000
1262.389, 1262.000
1263.462, 1233.000
1264.536, 1263.000
1265.610, 1265.000
1266.683, 1246.000
1267.756, 1244.000
1268.829, 1254.000
1269.902, 1279.000
1270.975, 1237.000
1272.048, 1272.000
1273.120, 1242.000
1274.192, 1245.000
1275.264, 1251.000
1276.336, 1253.000
1277.408, 1233.000
1278.480, 1315.000
1279.551, 1291.000
1280.623, 1216.000
1281.694, 1275.000
1282.765, 1295.000
1283.836, 1228.000
1284.907, 1234.000
1285.977, 1271.000
1287.048, 1226.000
1288.118, 1221.000
1289.188, 1285.000
1290.258, 1253.000
1291.328, 1291.000
1292.398, 1240.000
1293.467, 1257.000
1294.537, 1291.000
1295.606, 1262.000
1296.675, 1268.000
1297.744, 1214.000
1298.813, 1259.000
1299.882, 1248.000
1300.950, 1268.000
1302.018, 1271.000
1303.086, 1269.000
1304.155, 1255.000
1305.222, 1258.000
1306.290, 1254.000
1307.358, 1295.000
1308.425, 1264.000
1309.492, 1313.000
1310.559, 1278.000
1311.626, 1254.000
1312.693, 1301.000
1313.760, 1243.000
1314.826, 1257.000
1315.893, 1257.000
1316.959, 1247.000
1318.025, 1266.000
1319.091, 1260.989
1320.157, 1281.000
1321.222, 1278.000
1322.288, 1281.000
1323.353, 1313.000
1324.418, 1271.000
1325.483, 1266.000
1326.548, 1256.000
1327.612, 1314.000
1328.677, 1288.000
1329.741, 1313.000
1330.806, 1269.000
1331.870, 1231.000
1332.934, 1302.000
1333.997, 1266.000
1335.061, 1281.000
1336.124, 1281.000
1337.188, 1268.000
1338.251, 1253.000
1339.314, 1276.000
1340.377, 1276.000
1341.439, 1274.000
1342.502, 1318.000
1343.564, 1288.000
1344.627, 1326.000
1345.689, 1301.000
1346.751, 1278.000
1347.813, 1312.000
1348.874, 1314.000
1349.936, 1314.000
1350.997, 1321.000
1352.058, 1335.000
1353.119, 1300.000
1354.180, 1296.000
1355.241, 1308.000
1356.301, 1270.000
1357.362, 1240.000
1358.422, 1269.000
1359.482, 1298.000
1360.542, 1301.000
1361.602, 1310.000
1362.662, 1321.000
1363.721, 1299.000
1364.781, 1307.000
1365.840, 1263.000
1366.899, 1274.000
1367.958, 1292.000
1369.017, 1315.000
1370.075, 1306.000
1371.134, 1329.000
1372.192, 1337.000
1373.250, 1267.000
1374.308, 1275.000
1375.366, 1327.000
1376.424, 1285.000
1377.481, 1312.000
1378.539, 1302.000
1379.596, 1354.000
1380.653, 1325.000
1381.710, 1315.000
1382.767, 1292.000
1383.824, 1296.864
1384.880, 1278.000
1385.937, 1320.000
1386.993, 1320.000
1388.049, 1345.000
1389.105, 1300.000
1390.161, 1317.000
1391.216, 1272.000
1392.272, 1308.000
1393.327, 1291.000
1394.382, 1332.000
1395.437, 1340.000
1396.492, 1344.000
1397.547, 1335.000
1398.601, 1321.000
1399.656, 1306.000
1400.710, 1298.000
1401.764, 1343.000
1402.818, 1326.000
1403.872, 1312.000
1404.925, 1286.000
1405.979, 1347.000
1407.032, 1326.000
1408.085, 1315.000
1409.139, 1346.000
1410.191, 1320.000
1411.244, 1277.000
1412.297, 1309.000
1413.349, 1327.000
1414.402, 1282.000
1415.454, 1354.000
1416.506, 1303.000
1417.558, 1319.000
1418.609, 1322.000
1419.661, 1276.000
1420.712, 1319.000
1421.764, 1302.000
1422.815, 1331.000
1423.866, 1331.000
1424.916, 1348.000
1425.967, 1340.000
1427.018, 1314.000
1428.068, 1306.000
1429.118, 1313.000
1430.168, 1326.000
1431.218, 1345.000
1432.268, 1349.000
1433.318, 1356.137
1434.367, 1345.000
1435.416, 1357.000
1436.465, 1355.000
1437.514, 1348.000
1438.563, 1349.000
1439.612, 1334.000
1440.661, 1337.000
1441.709, 1372.000
1442.757, 1363.000
1443.805, 1357.000
1444.853, 1325.000
1445.901, 1372.000
1446.949, 1326.000
1447.996, 1361.000
1449.044, 1340.000
1450.091, 1408.000
1451.138, 1361.000
1452.185, 1406.000
1453.232, 1366.000
1454.278, 1385.000
1455.325, 1380.000
1456.371, 1361.000
1457.417, 1420.000
1458.463, 1370.000
1459.509, 1399.000
1460.555, 1359.000
1461.601, 1409.000
1462.646, 1399.000
1463.691, 1351.000
1464.737, 1407.000
1465.782, 1399.000
1466.826, 1370.000
1467.871, 1330.000
1468.916, 1361.000
1469.960, 1380.000
1471.004, 1378.000
1472.048, 1352.000
1473.092, 1378.000
1474.136, 1372.000
1475.180, 1372.000
1476.223, 1380.000
1477.267, 1369.689
1478.310, 1331.000
1479.353, 1356.000
1480.396, 1369.000
1481.439, 1363.000
1482.481, 1408.000
1483.524, 1347.000
1484.566, 1396.000
1485.608, 1420.000
1486.650, 1377.000
1487.692, 1378.000
1488.734, 1416.000
1489.775, 1367.000
1490.817, 1370.000
1491.858, 1401.000
1492.899, 1442.000
1493.940, 1417.000
1494.981, 1389.000
1496.022, 1386.000
1497.062, 1430.000
1498.103, 1398.000
1499.143, 1358.000
1500.183, 1402.000
1501.223, 1381.000
1502.263, 1385.000
1503.302, 1402.000
1504.342, 1423.000
1505.381, 1392.000
1506.420, 1398.000
1507.459, 1404.000
1508.498, 1465.000
1509.537, 1428.000
1510.576, 1412.000
1511.614, 1426.000
1512.652, 1378.000
1513.691, 1362.000
1514.729, 1393.000
1515.767, 1388.000
1516.804, 1365.000
1517.842, 1417.000
1518.879, 1373.000
1519.917, 1420.000
1520.954, 1389.000
1521.991, 1414.000
1523.028, 1363.000
1524.064, 1369.000
1525.101, 1411.000
1526.137, 1408.000
1527.173, 1357.000
1528.210, 1427.000
1529.245, 1398.000
1530.281, 1397.000
1531.317, 1410.000
1532.352, 1365.000
1533.388, 1407.000
1534.423, 1364.000
1535.458, 1420.000
1536.493, 1417.000
1537.528, 1407.000
1538.562, 1405.000
1539.597, 1395.651
1540.631, 1388.450
1541.665, 1379.000
1542.700, 1382.000
1543.733, 1376.000
1544.767, 1393.000
1545.801, 1387.000
1546.834, 1418.000
1547.868, 1389.000
1548.901, 1442.000
1549.934, 1413.000
1550.967, 1453.000
1551.999, 1409.000
1553.032, 1439.000
1554.064, 1415.000
1555.097, 1454.000
1556.129, 1409.000
1557.161, 1440.000
1558.193, 1427.000
1559.224, 1416.000
1560.256, 1444.000
1561.287, 1447.000
1562.318, 1400.000
1563.350, 1493.000
##END=



