##NAMES=Gahnite
##RRUFFID=R040027
##IDEAL CHEMISTRY=Zn^2+^Al_2_O_4_
##LOCALITY=Rowe, Franklin County, Massachusetts, USA
##OWNER=RRUFF
##SOURCE=University of Arizona Mineral Museum
##DESCRIPTION=Dark blue octahedral single crystals embedded in quartz matrix
##STATUS=The identification of this mineral has been confirmed by X-ray diffraction and chemical analysis
##URL=rruff.info/R040027
##MEASURED CHEMISTRY=(Zn_0.83_Fe_0.11_Mg_0.06_)_Σ=1_(Al_0.96_Fe_0.04_)_Σ=2_O_4_
##PIN_ID=L00146
##ORIENTATION=Laser parallel to -c* (0 0 -1). Fiducial mark perpendicular to laser is parallel to -a [-1 0 0]
270.945, 4873.000
272.313, 4855.000
273.681, 4884.000
275.049, 4984.000
276.417, 4908.000
277.784, 5025.000
279.151, 5000.000
280.518, 5104.000
281.885, 5092.000
283.251, 5044.000
284.617, 4993.000
285.983, 4998.000
287.349, 5018.000
288.715, 5054.000
290.080, 5052.000
291.445, 5049.000
292.810, 4984.000
294.174, 5003.000
295.539, 4953.000
296.903, 4980.000
298.267, 4973.000
299.631, 5009.000
300.994, 5034.000
302.357, 4999.000
303.720, 5018.000
305.083, 5054.000
306.446, 5023.000
307.808, 4976.000
309.170, 5013.000
310.532, 5015.000
311.894, 4974.000
313.256, 5038.000
314.617, 5001.000
315.978, 5045.000
317.339, 5001.000
318.699, 5019.000
320.060, 4968.000
321.420, 5007.000
322.780, 5030.000
324.139, 5052.000
325.499, 4980.000
326.858, 5033.000
328.217, 4988.000
329.576, 5020.000
330.934, 4977.000
332.293, 5002.000
333.651, 5034.000
335.009, 4988.000
336.367, 5030.000
337.724, 4898.000
339.081, 5027.000
340.438, 4969.000
341.795, 5083.000
343.152, 5064.000
344.508, 5031.000
345.864, 5090.000
347.220, 5050.000
348.576, 5069.000
349.931, 5158.000
351.286, 5120.000
352.641, 5092.000
353.996, 5125.000
355.351, 5202.000
356.705, 5155.000
358.059, 5095.000
359.413, 5165.000
360.767, 5135.000
362.120, 5139.000
363.473, 5141.000
364.826, 5149.000
366.179, 5202.000
367.532, 5169.000
368.884, 5180.000
370.236, 5138.000
371.588, 5127.000
372.940, 5143.000
374.291, 5120.000
375.643, 5115.000
376.994, 5071.000
378.344, 5088.000
379.695, 5079.000
381.045, 5141.000
382.395, 5162.000
383.745, 5122.000
385.095, 5244.000
386.444, 5253.000
387.794, 5268.000
389.143, 5347.000
390.491, 5374.000
391.840, 5541.000
393.188, 5540.000
394.537, 5735.000
395.884, 5867.000
397.232, 5967.000
398.580, 6062.000
399.927, 6176.000
401.274, 6411.000
402.621, 6538.000
403.967, 6810.000
405.314, 7023.000
406.660, 7702.000
408.006, 8640.000
409.352, 10030.000
410.697, 12470.000
412.042, 15610.000
413.387, 19470.000
414.732, 22520.000
416.077, 22550.000
417.421, 19940.000
418.765, 14900.000
420.109, 10980.000
421.453, 8690.000
422.797, 7648.000
424.140, 6669.000
425.483, 6254.000
426.826, 5966.000
428.168, 5760.000
429.511, 5559.000
430.853, 5585.000
432.195, 5417.000
433.537, 5445.000
434.878, 5275.000
436.220, 5226.000
437.561, 5285.000
438.902, 5207.000
440.242, 5140.000
441.583, 5175.000
442.923, 5201.000
444.263, 5139.000
445.603, 5093.000
446.942, 5114.000
448.282, 4978.000
449.621, 5019.000
450.960, 4937.000
452.298, 4844.000
453.637, 4801.000
454.975, 4862.000
456.313, 4851.000
457.651, 4830.000
458.989, 4838.000
460.326, 4848.000
461.663, 4793.000
463.000, 4865.000
464.337, 4894.000
465.673, 4876.000
467.010, 4856.000
468.346, 4881.000
469.682, 4965.000
471.017, 4981.000
472.353, 5036.686
473.688, 5120.000
475.023, 5089.000
476.358, 5022.000
477.692, 4951.000
479.026, 4986.000
480.361, 4963.000
481.694, 4841.000
483.028, 4874.000
484.362, 4842.000
485.695, 4856.000
487.028, 4819.000
488.361, 4824.839
489.693, 4832.000
491.026, 4830.000
492.358, 4888.000
493.690, 4901.000
495.021, 4817.000
496.353, 4805.000
497.684, 4692.000
499.015, 4659.000
500.346, 4614.000
501.677, 4647.000
503.007, 4642.000
504.337, 4614.000
505.667, 4677.000
506.997, 4706.000
508.327, 4764.000
509.656, 4700.000
510.985, 4777.000
512.314, 4762.000
513.643, 4800.000
514.971, 4785.000
516.300, 4813.504
517.628, 4821.000
518.956, 4856.000
520.283, 4838.000
521.611, 4838.000
522.938, 4844.000
524.265, 4879.000
525.591, 4846.000
526.918, 4844.000
528.244, 4868.000
529.570, 4842.000
530.896, 4815.000
532.222, 4802.000
533.547, 4698.000
534.873, 4743.000
536.198, 4660.000
537.523, 4595.000
538.847, 4610.000
540.171, 4542.000
541.496, 4597.000
542.820, 4510.000
544.143, 4593.000
545.467, 4580.000
546.790, 4500.000
548.113, 4590.000
549.436, 4565.000
550.759, 4594.000
552.081, 4631.000
553.404, 4662.000
554.726, 4674.000
556.047, 4730.000
557.369, 4799.000
558.690, 4771.000
560.011, 4823.000
561.332, 4880.000
562.653, 4873.000
563.974, 4994.000
565.294, 4909.000
566.614, 5021.000
567.934, 5049.000
569.254, 5011.000
570.573, 5034.000
571.892, 5025.000
573.211, 4938.000
574.530, 4935.000
575.849, 4898.000
577.167, 4925.000
578.485, 4898.000
579.803, 4875.309
581.121, 4917.794
582.438, 4833.000
583.756, 4988.000
585.073, 5010.000
586.390, 5045.000
587.706, 5041.000
589.023, 5086.000
590.339, 5149.000
591.655, 5112.000
592.971, 5242.000
594.287, 5181.000
595.602, 5199.000
596.917, 5247.000
598.232, 5250.000
599.547, 5340.000
600.861, 5341.000
602.176, 5364.000
603.490, 5336.000
604.804, 5401.000
606.118, 5467.037
607.431, 5584.000
608.744, 5696.000
610.057, 5843.926
611.370, 5944.000
612.683, 6208.000
613.995, 6345.000
615.307, 6589.000
616.619, 6924.000
617.931, 7147.000
619.243, 7372.841
620.554, 7566.073
621.865, 7728.000
623.176, 7850.000
624.487, 7921.000
625.797, 8008.000
627.108, 7861.964
628.418, 7834.000
629.728, 7473.000
631.037, 7109.000
632.347, 6857.000
633.656, 6558.000
634.965, 6313.000
636.274, 6130.000
637.582, 5988.000
638.891, 5890.000
640.199, 5717.000
641.507, 5769.000
642.815, 5839.000
644.122, 5869.000
645.430, 5766.000
646.737, 5760.000
648.044, 5821.000
649.350, 5900.000
650.657, 5890.000
651.963, 6028.000
653.269, 6067.000
654.575, 6171.000
655.881, 6242.000
657.186, 6220.000
658.491, 6141.000
659.796, 5950.000
661.101, 5623.000
662.406, 5401.000
663.710, 5066.000
665.014, 4924.000
666.318, 4680.000
667.622, 4572.000
668.926, 4452.000
670.229, 4380.000
671.532, 4392.000
672.835, 4326.796
674.138, 4313.642
675.440, 4340.000
676.743, 4254.000
678.045, 4357.000
679.347, 4282.000
680.648, 4308.000
681.950, 4386.000
683.251, 4366.000
684.552, 4425.000
685.853, 4406.000
687.153, 4500.000
688.454, 4536.000
689.754, 4589.000
691.054, 4697.000
692.354, 4750.000
693.653, 4866.000
694.953, 4998.000
696.252, 5121.000
697.551, 5360.000
698.849, 5425.000
700.148, 5502.000
701.446, 5675.000
702.744, 5712.000
704.042, 5837.000
705.340, 5741.000
706.637, 5790.000
707.935, 5792.000
709.232, 5609.000
710.529, 5619.000
711.825, 5323.000
713.122, 5280.000
714.418, 5196.000
715.714, 5028.000
717.010, 4977.000
718.305, 4894.000
719.601, 4822.000
720.896, 4836.000
722.191, 4780.000
723.486, 4806.000
724.780, 4719.000
726.075, 4809.000
727.369, 4784.000
728.663, 4734.000
729.956, 4800.000
731.250, 4764.000
732.543, 4772.000
733.836, 4802.000
735.129, 4851.000
736.422, 4864.000
737.714, 4979.000
739.007, 4986.000
740.299, 5034.000
741.591, 5098.000
742.882, 5261.000
744.174, 5295.000
745.465, 5351.000
746.756, 5580.000
748.047, 5610.000
749.337, 5898.000
750.628, 5897.000
751.918, 6132.000
753.208, 6278.000
754.498, 6351.000
755.787, 6492.000
757.077, 6408.000
758.366, 6426.000
759.655, 6247.000
760.944, 6106.000
762.232, 6033.000
763.520, 5936.000
764.809, 5798.000
766.096, 5671.000
767.384, 5518.000
768.672, 5506.000
769.959, 5381.000
771.246, 5353.000
772.533, 5277.000
773.820, 5238.000
775.106, 5176.000
776.392, 5117.000
777.679, 5003.000
778.964, 5041.000
780.250, 5071.000
781.536, 4965.036
782.821, 4884.000
784.106, 4806.000
785.391, 4795.000
786.675, 4708.000
787.960, 4672.000
789.244, 4715.000
790.528, 4593.000
791.812, 4577.000
793.095, 4593.000
794.379, 4578.000
795.662, 4529.000
796.945, 4536.000
798.228, 4514.000
799.510, 4447.000
800.793, 4482.000
802.075, 4456.000
803.357, 4455.000
804.639, 4462.000
805.920, 4386.000
807.201, 4367.000
808.483, 4369.000
809.764, 4377.000
811.044, 4279.000
812.325, 4278.000
813.605, 4257.000
814.885, 4277.000
816.165, 4224.000
817.445, 4217.000
818.724, 4186.000
820.004, 4198.000
821.283, 4251.000
822.562, 4172.000
823.840, 4189.000
825.119, 4196.000
826.397, 4151.000
827.675, 4110.000
828.953, 4087.000
830.231, 4088.636
831.508, 4113.000
832.785, 4121.000
834.062, 4117.189
835.339, 4104.000
836.616, 4100.000
837.892, 4086.000
839.169, 4065.000
840.445, 4067.000
841.720, 4016.000
842.996, 4021.083
844.272, 4008.271
845.547, 4019.000
846.822, 3998.000
848.097, 4019.000
849.371, 4015.000
850.646, 4028.000
851.920, 3988.000
853.194, 4006.000
854.468, 4015.000
855.741, 3969.000
857.015, 4032.000
858.288, 3985.000
859.561, 4032.000
860.834, 3990.000
862.106, 3956.000
863.378, 3996.000
864.651, 3998.000
865.923, 3980.000
867.194, 3994.000
868.466, 3920.000
869.737, 3989.000
871.008, 3911.000
872.279, 3920.000
873.550, 3959.000
874.821, 3962.000
876.091, 3932.000
877.361, 3993.000
878.631, 3912.000
879.901, 3992.000
881.170, 3904.000
882.440, 3919.000
883.709, 3997.000
884.978, 3916.000
886.247, 3883.000
887.515, 3887.000
888.783, 3894.000
890.052, 3964.000
891.320, 3910.000
892.587, 3963.000
893.855, 3922.000
895.122, 3918.000
896.389, 3871.000
897.656, 3886.000
898.923, 3897.000
900.189, 3931.000
901.456, 3916.000
902.722, 3933.000
903.988, 3884.000
905.253, 3918.000
906.519, 3937.000
907.784, 3853.000
909.049, 3962.000
910.314, 3909.000
911.579, 3965.000
912.843, 3915.000
914.108, 3907.000
915.372, 3951.000
916.636, 3911.000
917.899, 3907.000
919.163, 3893.000
920.426, 3910.000
921.689, 3894.000
922.952, 3875.000
924.215, 3915.000
925.477, 3933.000
926.740, 3908.000
928.002, 3883.000
929.264, 3940.000
930.525, 3884.000
931.787, 3946.000
933.048, 3891.000
934.309, 3929.000
935.570, 3916.000
936.831, 3932.000
938.091, 3924.000
939.352, 3889.000
940.612, 3922.000
941.872, 3890.000
943.131, 3881.000
944.391, 3907.000
945.650, 3896.000
946.909, 3946.000
948.168, 3875.000
949.427, 3854.000
950.685, 3953.000
951.944, 3895.000
953.202, 3914.000
954.460, 3968.000
955.717, 3939.000
956.975, 3946.000
958.232, 3897.000
959.489, 3951.000
960.746, 3947.000
962.003, 3878.000
963.259, 3969.000
964.516, 3910.000
965.772, 3964.000
967.028, 3958.000
968.283, 3934.000
969.539, 3868.000
970.794, 3910.000
972.049, 3913.000
973.304, 3933.000
974.559, 3937.000
975.813, 3948.000
977.068, 3978.000
978.322, 3898.000
979.576, 3944.000
980.830, 3949.000
982.083, 3913.000
983.336, 3957.000
984.589, 3920.000
985.842, 3943.000
987.095, 3915.000
988.348, 3938.000
989.600, 3953.000
990.852, 3904.000
992.104, 3934.000
993.356, 3935.000
994.607, 3953.000
995.859, 3927.000
997.110, 3964.000
998.361, 3871.000
999.612, 3921.000
1000.862, 3930.000
1002.112, 3920.000
1003.363, 3966.000
1004.613, 3879.000
1005.862, 3918.000
1007.112, 3911.000
1008.361, 3902.000
1009.610, 3962.000
1010.859, 3832.000
1012.108, 3921.000
1013.357, 3946.000
1014.605, 3905.000
1015.853, 3956.000
1017.101, 3939.000
1018.349, 3922.000
1019.597, 3943.000
1020.844, 3914.000
1022.091, 3863.000
1023.338, 3941.000
1024.585, 3908.000
1025.832, 3919.000
1027.078, 3940.000
1028.324, 3987.000
1029.570, 3968.000
1030.816, 3922.000
1032.062, 3895.000
1033.307, 3944.000
1034.552, 3914.000
1035.797, 3926.000
1037.042, 3930.000
1038.287, 3930.000
1039.531, 3952.000
1040.776, 3905.000
1042.020, 3919.000
1043.264, 3951.000
1044.507, 3895.000
1045.751, 3954.000
1046.994, 3932.000
1048.237, 3927.000
1049.480, 3860.000
1050.723, 3927.000
1051.965, 3944.000
1053.207, 3892.000
1054.449, 3908.000
1055.691, 3931.000
1056.933, 3880.000
1058.174, 3948.000
1059.416, 3901.000
1060.657, 3908.000
1061.898, 3934.000
1063.139, 3914.000
1064.379, 3922.000
1065.619, 3957.000
1066.860, 3904.000
1068.100, 3906.000
1069.339, 3930.000
1070.579, 3965.000
1071.818, 3890.000
1073.057, 3866.000
1074.296, 3862.000
1075.535, 3934.000
1076.774, 3848.000
1078.012, 3959.000
1079.250, 3922.750
1080.488, 3908.791
1081.726, 3913.000
1082.964, 3881.000
1084.201, 3895.000
1085.438, 3904.000
1086.675, 3881.000
1087.912, 3885.000
1089.149, 3838.000
1090.385, 3850.839
1091.621, 3924.000
1092.857, 3859.000
1094.093, 3886.000
1095.329, 3892.000
1096.564, 3875.000
1097.800, 3910.000
1099.035, 3904.000
1100.270, 3891.000
1101.504, 3851.000
1102.739, 3932.000
1103.973, 3894.000
1105.207, 3908.000
1106.441, 3952.000
1107.675, 3911.000
1108.908, 3888.000
1110.142, 3892.000
1111.375, 3895.000
1112.608, 3865.000
1113.841, 3866.000
1115.073, 3876.000
1116.305, 3885.000
1117.538, 3873.000
1118.770, 3932.000
1120.001, 3875.000
1121.233, 3849.000
1122.464, 3885.000
1123.696, 3865.351
1124.927, 3894.000
1126.157, 3887.000
1127.388, 3885.000
1128.618, 3879.000
1129.849, 3886.748
1131.079, 3874.000
1132.309, 3902.000
1133.538, 3899.000
1134.768, 3899.000
1135.997, 3906.000
1137.226, 3930.000
1138.455, 3857.000
1139.684, 3875.000
1140.912, 3819.000
1142.140, 3843.000
1143.369, 3893.000
1144.596, 3898.000
1145.824, 3910.000
1147.052, 3895.000
1148.279, 3945.000
1149.506, 3819.000
1150.733, 3887.000
1151.960, 3844.000
1153.187, 3897.000
1154.413, 3865.000
1155.639, 3870.000
1156.865, 3834.000
1158.091, 3875.000
1159.317, 3845.000
1160.542, 3860.201
1161.767, 3905.000
1162.992, 3863.000
1164.217, 3935.000
1165.442, 3899.000
1166.666, 3891.000
1167.891, 3861.000
1169.115, 3878.000
1170.338, 3871.000
1171.562, 3895.000
1172.786, 3902.000
1174.009, 3891.000
1175.232, 3918.000
1176.455, 3891.000
1177.678, 3937.000
1178.900, 3923.198
1180.123, 3935.860
1181.345, 3921.000
1182.567, 3935.000
1183.789, 3944.000
1185.010, 3896.000
1186.232, 3962.000
1187.453, 3921.000
1188.674, 4003.000
1189.895, 3983.000
1191.115, 3934.000
1192.336, 3984.000
1193.556, 3902.000
1194.776, 3910.000
1195.996, 3887.000
1197.216, 3913.000
1198.435, 3913.000
1199.655, 3870.000
1200.874, 3951.000
1202.093, 3913.000
1203.311, 3907.000
1204.530, 3895.000
1205.748, 3881.000
1206.966, 3870.000
1208.184, 3881.860
1209.402, 3895.000
1210.620, 3910.000
1211.837, 3930.000
1213.054, 3938.000
1214.271, 3873.000
1215.488, 3938.000
1216.705, 3897.000
1217.921, 3934.000
1219.138, 3933.000
1220.354, 3946.000
1221.570, 3992.000
1222.785, 3894.000
1224.001, 3954.000
1225.216, 3917.000
1226.431, 3918.000
1227.646, 4004.000
1228.861, 3905.000
1230.075, 3951.000
1231.290, 3924.000
1232.504, 3904.000
1233.718, 3926.000
1234.932, 3944.000
1236.145, 3952.000
1237.359, 3950.000
1238.572, 3957.104
1239.785, 3963.000
1240.998, 3961.000
1242.211, 3979.000
1243.423, 3991.000
1244.635, 3970.000
1245.848, 3965.000
1247.059, 3990.000
1248.271, 3983.000
1249.483, 4023.000
1250.694, 4010.000
1251.905, 4071.000
1253.116, 4037.000
1254.327, 4088.000
1255.538, 4020.000
1256.748, 4022.000
1257.958, 4078.000
1259.168, 4048.000
1260.378, 4052.000
1261.588, 3993.000
1262.797, 4027.000
1264.006, 4046.000
1265.215, 4063.000
1266.424, 4013.000
1267.633, 3991.000
1268.842, 4012.000
1270.050, 4055.000
1271.258, 4050.000
1272.466, 4050.000
1273.674, 4051.000
1274.881, 4054.473
1276.089, 3998.000
1277.296, 4041.000
1278.503, 4024.000
1279.710, 3961.000
1280.916, 4014.000
1282.123, 3974.000
1283.329, 3987.000
1284.535, 3962.000
1285.741, 3971.000
1286.947, 4009.000
1288.152, 3962.000
1289.358, 3990.000
1290.563, 3988.000
1291.768, 3988.000
1292.973, 3984.000
1294.177, 3955.000
1295.382, 3990.000
1296.586, 3980.000
1297.790, 3882.000
1298.994, 3954.000
1300.197, 3914.000
1301.401, 3968.000
1302.604, 3901.000
1303.807, 3920.000
1305.010, 3932.000
1306.213, 3909.000
1307.415, 3963.000
1308.618, 3941.559
1309.820, 3932.780
1311.022, 3955.000
1312.223, 3910.000
1313.425, 3961.000
1314.626, 3988.000
1315.828, 4026.000
1317.029, 4025.000
1318.230, 3972.000
1319.430, 4001.000
1320.631, 3964.000
1321.831, 4018.000
1323.031, 3995.000
1324.231, 3949.000
1325.431, 4014.000
1326.630, 4021.000
1327.830, 3956.000
1329.029, 4002.000
1330.228, 3971.000
1331.427, 4028.000
1332.625, 4001.000
1333.824, 3981.000
1335.022, 4070.000
1336.220, 3994.000
1337.418, 3988.000
1338.616, 4008.000
1339.813, 4007.000
1341.010, 4005.000
1342.208, 4004.000
1343.404, 4013.000
1344.601, 4035.000
1345.798, 4012.000
1346.994, 4013.000
1348.190, 3962.000
1349.386, 3994.000
1350.582, 4040.000
1351.778, 3989.000
1352.973, 4026.000
1354.169, 4039.000
1355.364, 4032.000
1356.559, 4026.000
1357.753, 4058.000
1358.948, 4032.000
1360.142, 4093.000
1361.336, 4068.000
1362.530, 4076.000
1363.724, 4133.000
1364.918, 4045.000
1366.111, 4071.000
1367.305, 4089.000
1368.498, 4166.000
1369.690, 4060.000
1370.883, 4082.000
1372.076, 4100.000
1373.268, 4179.000
1374.460, 4142.000
1375.652, 4129.000
1376.844, 4126.000
1378.035, 4127.000
1379.227, 4112.000
1380.418, 4128.000
1381.609, 4137.000
1382.800, 4158.000
1383.991, 4155.000
1385.181, 4163.000
1386.371, 4189.000
1387.562, 4139.000
1388.751, 4158.000
1389.941, 4185.000
1391.131, 4161.000
1392.320, 4216.000
1393.509, 4164.000
1394.698, 4167.000
1395.887, 4194.000
1397.076, 4175.000
1398.264, 4174.000
1399.453, 4193.000
1400.641, 4199.000
1401.829, 4186.000
1403.016, 4224.000
1404.204, 4168.000
1405.391, 4234.000
1406.578, 4228.000
1407.765, 4220.000
1408.952, 4241.000
1410.139, 4214.000
1411.325, 4235.000
1412.512, 4217.000
1413.698, 4229.000
1414.884, 4182.000
1416.069, 4194.000
1417.255, 4222.000
1418.440, 4237.000
1419.625, 4187.000
1420.810, 4224.000
1421.995, 4177.000
1423.180, 4186.000
1424.364, 4199.000
1425.548, 4177.000
1426.732, 4170.000
1427.916, 4183.000
1429.100, 4156.000
1430.284, 4172.000
1431.467, 4156.000
1432.650, 4149.000
1433.833, 4183.000
1435.016, 4140.000
1436.199, 4117.000
1437.381, 4125.000
1438.563, 4148.000
1439.745, 4141.000
1440.927, 4195.000
1442.109, 4154.000
1443.290, 4121.000
1444.472, 4170.000
1445.653, 4182.000
1446.834, 4160.000
1448.015, 4164.000
1449.195, 4193.000
1450.376, 4184.678
1451.556, 4202.000
1452.736, 4209.000
1453.916, 4219.000
1455.096, 4249.000
1456.275, 4212.000
1457.454, 4171.000
1458.634, 4199.000
1459.813, 4171.000
1460.991, 4241.000
1462.170, 4264.000
1463.348, 4200.000
1464.527, 4173.000
1465.705, 4183.000
1466.883, 4178.000
1468.060, 4252.000
1469.238, 4217.000
1470.415, 4213.000
1471.592, 4239.000
1472.769, 4162.000
1473.946, 4230.000
1475.123, 4165.000
1476.299, 4275.000
1477.476, 4193.000
1478.652, 4176.000
1479.828, 4265.000
1481.003, 4208.000
1482.179, 4225.000
1483.354, 4215.000
1484.529, 4266.000
1485.704, 4206.000
1486.879, 4233.000
1488.054, 4217.000
1489.228, 4252.000
1490.403, 4265.000
1491.577, 4193.000
1492.751, 4202.000
1493.924, 4299.000
1495.098, 4214.000
1496.271, 4203.000
1497.444, 4266.000
1498.618, 4249.000
1499.790, 4209.000
1500.963, 4258.000
1502.135, 4220.000
1503.308, 4274.000
1504.480, 4300.000
1505.652, 4252.000
1506.824, 4314.000
1507.995, 4288.000
1509.167, 4310.000
1510.338, 4288.000
1511.509, 4307.000
1512.680, 4303.312
1513.850, 4303.865
1515.021, 4311.000
1516.191, 4310.000
1517.361, 4334.000
1518.531, 4337.000
1519.701, 4372.000
1520.871, 4356.000
1522.040, 4330.000
1523.209, 4374.000
1524.378, 4360.000
1525.547, 4356.000
##END=



