##NAMES=Gaylussite
##RRUFFID=R040146
##IDEAL CHEMISTRY=Na_2_Ca(CO_3_)_2_&#183;5H_2_O
##LOCALITY=Searles Lake, Trona, San Bernardino County, California, USA
##OWNER=RRUFF
##SOURCE=University of Arizona Mineral Museum
##DESCRIPTION=Colorless crystal fragments
##STATUS=The identification of this mineral has been confirmed by X-ray diffraction and chemical analysis
##URL=rruff.info/R040146
##MEASURED CHEMISTRY=Na_2.00_Ca_1.00_(C_1.00_O_3_)_2_Â·5H_2_O
##PIN_ID=L00121
##ORIENTATION=Laser parallel to c* (0 0 1). Fiducial mark perpendicular to laser is parallel to a [1 0 0]
63.96800, 493.0000
65.21800, 569.0000
66.46800, 544.0000
67.71800, 616.0000
68.96700, 679.0000
70.21700, 647.0000
71.46600, 708.5222
72.71500, 703.0000
73.96300, 763.0000
75.21200, 767.0000
76.46000, 810.0000
77.70800, 1019.000
78.95600, 1085.000
80.20300, 1213.000
81.45100, 1203.000
82.69800, 1455.000
83.94500, 1724.000
85.19100, 2120.000
86.43800, 2548.000
87.68400, 3270.000
88.93100, 4029.000
90.17600, 4976.000
91.42200, 6172.000
92.66800, 7536.474
93.91300, 9132.000
95.15800, 10925.00
96.40300, 12896.00
97.64800, 15147.00
98.89200, 17646.00
100.1370, 19972.00
101.3810, 22281.00
102.6250, 24749.00
103.8680, 27072.00
105.1120, 28953.00
106.3550, 30239.00
107.5980, 31370.00
108.8410, 32864.00
110.0840, 34725.00
111.3260, 36964.00
112.5680, 39080.00
113.8100, 40449.00
115.0520, 41119.00
116.2940, 40968.00
117.5350, 39432.00
118.7770, 37907.00
120.0180, 36226.00
121.2590, 34806.00
122.4990, 33886.00
123.7400, 33017.00
124.9800, 32505.00
126.2200, 32088.00
127.4600, 31646.00
128.6990, 31240.01
129.9390, 30884.00
131.1780, 30440.00
132.4170, 30169.00
133.6560, 29702.00
134.8940, 29935.00
136.1330, 29642.00
137.3710, 29521.00
138.6090, 29699.00
139.8470, 29533.00
141.0840, 29547.00
142.3220, 29136.00
143.5590, 29372.00
144.7960, 29244.00
146.0320, 29279.00
147.2690, 29587.00
148.5050, 29538.00
149.7420, 29734.00
150.9780, 29996.00
152.2130, 30200.01
153.4490, 30465.00
154.6840, 30889.00
155.9190, 31326.00
157.1540, 31824.00
158.3890, 31980.00
159.6240, 32376.00
160.8580, 32883.00
162.0920, 33077.00
163.3260, 33266.00
164.5600, 33735.00
165.7930, 33648.00
167.0270, 34061.00
168.2600, 34007.00
169.4930, 34126.00
170.7260, 34339.00
171.9580, 34442.00
173.1900, 34376.00
174.4230, 34538.00
175.6550, 33891.00
176.8860, 33827.00
178.1180, 33229.00
179.3490, 32316.00
180.5800, 31691.00
181.8110, 31726.00
183.0420, 31275.00
184.2730, 31107.00
185.5030, 30621.00
186.7330, 30610.00
187.9630, 30469.00
189.1930, 30088.00
190.4220, 30232.00
191.6520, 30327.00
192.8810, 30316.00
194.1100, 30481.00
195.3390, 30441.00
196.5670, 30384.00
197.7960, 30609.00
199.0240, 30911.00
200.2520, 30686.00
201.4790, 30893.00
202.7070, 30962.00
203.9340, 31361.00
205.1620, 31303.00
206.3890, 31491.00
207.6150, 31657.00
208.8420, 31573.00
210.0680, 31737.00
211.2940, 31947.00
212.5200, 31994.00
213.7460, 32041.00
214.9720, 32277.00
216.1970, 32322.00
217.4220, 32488.00
218.6470, 32635.00
219.8720, 32909.00
221.0970, 33169.00
222.3210, 33481.00
223.5450, 33671.00
224.7690, 34251.00
225.9930, 34229.00
227.2170, 34878.00
228.4400, 35106.00
229.6630, 35921.00
230.8860, 36196.00
232.1090, 36839.00
233.3320, 36884.00
234.5540, 37769.00
235.7770, 38173.00
236.9990, 39059.00
238.2210, 39514.00
239.4420, 40360.00
240.6640, 41510.00
241.8850, 42700.00
243.1060, 44337.00
244.3270, 46335.00
245.5480, 48781.51
246.7680, 51733.00
247.9880, 54784.00
249.2080, 58494.00
250.4280, 62296.00
251.6480, 66968.00
252.8670, 71638.00
254.0870, 76230.00
255.3060, 80548.00
256.5250, 83995.00
257.7440, 87053.00
258.9620, 88821.00
260.1800, 89778.00
261.3990, 90418.00
262.6160, 89632.00
263.8340, 88084.00
265.0520, 85608.00
266.2690, 82037.00
267.4860, 76984.00
268.7030, 71643.00
269.9200, 65311.00
271.1370, 60087.00
272.3530, 55335.00
273.5690, 51407.00
274.7850, 48199.00
276.0010, 45205.00
277.2170, 43421.00
278.4320, 41576.00
279.6470, 40305.00
280.8620, 39017.00
282.0770, 38452.00
283.2920, 37918.00
284.5060, 37053.00
285.7210, 36680.00
286.9350, 36284.00
288.1490, 36014.00
289.3620, 35538.00
290.5760, 35446.00
291.7890, 35188.00
293.0020, 34873.00
294.2150, 34593.00
295.4280, 34825.00
296.6400, 34829.00
297.8530, 34622.00
299.0650, 34685.00
300.2770, 34460.00
301.4890, 34080.00
302.7000, 34483.00
303.9120, 34165.00
305.1230, 34134.00
306.3340, 34318.00
307.5450, 34289.00
308.7550, 34154.00
309.9660, 34073.00
311.1760, 34421.00
312.3860, 34126.00
313.5960, 34205.00
314.8050, 34305.00
316.0150, 34178.00
317.2240, 34047.00
318.4330, 34228.00
319.6420, 34369.00
320.8510, 34121.00
322.0590, 34480.00
323.2680, 34332.00
324.4760, 34269.00
325.6840, 34338.00
326.8910, 34294.00
328.0990, 34445.00
329.3060, 34307.00
330.5140, 34336.00
331.7210, 34316.00
332.9270, 34422.61
334.1340, 34562.00
335.3400, 34719.00
336.5470, 34750.00
337.7530, 34863.00
338.9590, 34723.00
340.1640, 34565.00
341.3700, 34800.00
342.5750, 34999.00
343.7800, 34929.00
344.9850, 35096.00
346.1900, 34996.00
347.3940, 34861.00
348.5990, 34769.00
349.8030, 34815.00
351.0070, 34842.34
352.2100, 34877.00
353.4140, 35055.00
354.6170, 35142.00
355.8210, 35240.00
357.0240, 34989.00
358.2260, 35466.00
359.4290, 35132.00
360.6320, 35437.00
361.8340, 35377.00
363.0360, 35373.00
364.2380, 35492.00
365.4400, 35445.00
366.6410, 35553.00
367.8420, 35578.00
369.0440, 35537.00
370.2440, 35437.00
371.4450, 35705.00
372.6460, 35682.00
373.8460, 35588.00
375.0460, 35904.00
376.2460, 35815.00
377.4460, 35820.00
378.6460, 36048.00
379.8450, 35993.00
381.0450, 36240.00
382.2440, 35827.00
383.4430, 36192.00
384.6410, 36289.00
385.8400, 36332.00
387.0380, 36542.00
388.2360, 36157.00
389.4340, 36599.00
390.6320, 36416.00
391.8300, 36349.00
393.0270, 36564.00
394.2240, 36615.00
395.4210, 36620.00
396.6180, 36478.00
397.8150, 36785.00
399.0110, 36698.00
400.2080, 36814.00
401.4040, 36618.00
402.6000, 36967.00
403.7950, 37120.00
404.9910, 36814.00
406.1860, 37154.00
407.3810, 37045.00
408.5760, 37276.00
409.7710, 37422.00
410.9660, 37246.00
412.1600, 37143.00
413.3540, 37057.00
414.5490, 37051.00
415.7420, 37356.00
416.9360, 37325.00
418.1300, 37647.00
419.3230, 37144.00
420.5160, 37749.00
421.7090, 37484.00
422.9020, 37464.00
424.0940, 37602.00
425.2870, 37600.00
426.4790, 37654.85
427.6710, 37522.00
428.8630, 37783.00
430.0550, 37924.00
431.2460, 38077.00
432.4370, 37968.00
433.6290, 38010.00
434.8190, 38162.00
436.0100, 38092.00
437.2010, 38356.00
438.3910, 38113.00
439.5810, 38430.00
440.7710, 38131.00
441.9610, 38088.00
443.1510, 38614.00
444.3400, 38568.00
445.5300, 38421.00
446.7190, 38759.00
447.9080, 38588.00
449.0960, 38561.00
450.2850, 38947.00
451.4730, 38608.00
452.6620, 38833.00
453.8500, 38782.00
455.0370, 39066.00
456.2250, 39060.29
457.4120, 38979.00
458.6000, 39096.00
459.7870, 39113.00
460.9740, 39069.00
462.1610, 39231.00
463.3470, 39350.00
464.5330, 39329.99
465.7200, 39366.00
466.9060, 39375.00
468.0910, 39370.00
469.2770, 39446.00
470.4630, 39547.00
471.6480, 39563.02
472.8330, 39670.00
474.0180, 39726.00
475.2030, 39723.00
476.3870, 39958.00
477.5720, 39671.00
478.7560, 39852.00
479.9400, 39936.00
481.1240, 40153.00
482.3070, 40077.00
483.4910, 40099.00
484.6740, 39908.00
485.8570, 40158.00
487.0400, 40255.00
488.2230, 40131.00
489.4050, 40326.00
490.5880, 40708.00
491.7700, 40408.00
492.9520, 40450.00
494.1340, 40619.00
495.3160, 40456.00
496.4970, 40651.00
497.6780, 40699.00
498.8600, 40779.00
500.0400, 40897.12
501.2210, 41117.00
502.4020, 41033.00
503.5820, 41193.00
504.7630, 41173.00
505.9430, 41315.00
507.1220, 41526.00
508.3020, 41515.00
509.4820, 41524.00
510.6610, 41650.00
511.8400, 41694.38
513.0190, 41730.00
514.1980, 41789.00
515.3770, 41868.00
516.5550, 41954.77
517.7330, 42109.00
518.9110, 42184.00
520.0890, 42304.05
521.2670, 42380.03
522.4450, 42473.00
523.6220, 42479.00
524.7990, 42450.00
525.9760, 42419.00
527.1530, 42274.00
528.3300, 42386.00
529.5060, 42213.00
530.6830, 42629.00
531.8590, 42614.46
533.0350, 42620.60
534.2100, 42822.00
535.3860, 42608.00
536.5610, 42577.00
537.7370, 42579.00
538.9120, 42525.00
540.0870, 42611.00
541.2610, 42712.00
542.4360, 42546.00
543.6100, 42522.00
544.7850, 42737.00
545.9590, 42726.00
547.1320, 43156.00
548.3060, 42871.00
549.4800, 42957.00
550.6530, 42975.00
551.8260, 42794.00
552.9990, 43128.00
554.1720, 43406.00
555.3440, 43389.00
556.5170, 43483.00
557.6890, 43384.00
558.8610, 43369.00
560.0330, 43648.00
561.2050, 43760.00
562.3760, 43550.00
563.5480, 43461.00
564.7190, 43959.00
565.8900, 43891.00
567.0610, 43988.00
568.2310, 44076.00
569.4020, 44332.00
570.5720, 44399.00
571.7420, 44460.18
572.9120, 44115.00
574.0820, 44368.00
575.2520, 44548.00
576.4210, 44221.00
577.5900, 44618.00
578.7590, 44471.00
579.9280, 44545.00
581.0970, 44700.00
582.2660, 44430.00
583.4340, 44828.00
584.6020, 44560.00
585.7700, 44836.00
586.9380, 44662.00
588.1060, 45048.00
589.2730, 44846.00
590.4410, 44980.00
591.6080, 44923.00
592.7750, 45265.00
593.9420, 45001.00
595.1080, 45109.00
596.2750, 45521.00
597.4410, 45204.00
598.6070, 45301.00
599.7730, 45229.00
600.9390, 45400.00
602.1050, 45338.00
603.2700, 45499.00
604.4350, 45745.00
605.6010, 45326.00
606.7660, 45721.00
607.9300, 45707.00
609.0950, 45360.00
610.2590, 45880.00
611.4230, 46073.00
612.5880, 45981.00
613.7510, 45809.00
614.9150, 45764.00
616.0790, 45810.36
617.2420, 45958.00
618.4050, 46088.00
619.5680, 46297.00
620.7310, 46636.00
621.8940, 46223.00
623.0560, 46541.00
624.2190, 46389.00
625.3810, 46590.00
626.5430, 46615.00
627.7050, 46792.00
628.8660, 47108.00
630.0280, 46891.00
631.1890, 46692.00
632.3500, 46942.00
633.5110, 47103.00
634.6720, 47310.00
635.8330, 47310.00
636.9930, 47291.00
638.1530, 47464.00
639.3130, 47380.00
640.4730, 47593.00
641.6330, 47574.00
642.7930, 47940.00
643.9520, 48237.00
645.1110, 48127.00
646.2710, 47976.00
647.4290, 48266.00
648.5880, 48465.00
649.7470, 48485.00
650.9050, 48286.00
652.0630, 48673.00
653.2210, 48684.00
654.3790, 49055.00
655.5370, 49097.00
656.6950, 49151.00
657.8520, 49251.00
659.0090, 49380.64
660.1660, 49272.00
661.3230, 49668.00
662.4800, 49844.00
663.6360, 49918.00
664.7930, 49859.00
665.9490, 49820.00
667.1050, 50003.00
668.2610, 49903.00
669.4160, 49972.00
670.5720, 50164.00
671.7270, 50044.00
672.8830, 50097.00
674.0380, 50006.00
675.1920, 50367.00
676.3470, 50368.00
677.5020, 50413.00
678.6560, 50475.00
679.8100, 50352.00
680.9640, 50612.00
682.1180, 50728.00
683.2720, 51030.00
684.4250, 50929.00
685.5780, 51075.00
686.7320, 50929.00
687.8850, 51049.00
689.0370, 50927.22
690.1900, 50628.00
691.3420, 50639.00
692.4950, 50648.00
693.6470, 50401.00
694.7990, 50180.00
695.9510, 50174.00
697.1020, 50031.00
698.2540, 50058.00
699.4050, 49881.00
700.5560, 49897.00
701.7070, 49770.00
702.8580, 49680.00
704.0090, 50215.00
705.1590, 50408.00
706.3100, 50467.00
707.4600, 50262.00
708.6100, 50983.00
709.7590, 51154.00
710.9090, 51295.00
712.0590, 51916.00
713.2080, 51986.00
714.3570, 53293.00
715.5060, 53694.00
716.6550, 54242.00
717.8030, 55422.00
718.9520, 56168.00
720.1000, 56913.00
721.2480, 56740.00
722.3960, 56302.00
723.5440, 55618.00
724.6920, 54353.00
725.8390, 53506.00
726.9870, 52471.00
728.1340, 52197.00
729.2810, 51840.00
730.4280, 51646.00
731.5740, 51448.51
732.7210, 51310.97
733.8670, 51234.00
735.0130, 51151.00
736.1590, 51209.00
737.3050, 51129.00
738.4510, 51078.00
739.5960, 50938.00
740.7410, 51045.00
741.8870, 51219.00
743.0320, 51422.00
744.1760, 51261.00
745.3210, 51316.00
746.4660, 51253.00
747.6100, 51373.00
748.7540, 51359.45
749.8980, 51764.00
751.0420, 51470.00
752.1860, 51639.00
753.3290, 51853.00
754.4720, 51634.00
755.6160, 51427.00
756.7590, 51763.00
757.9020, 51652.00
759.0440, 52086.00
760.1870, 51749.00
761.3290, 52039.00
762.4710, 52056.00
763.6130, 52150.00
764.7550, 52132.00
765.8970, 52310.00
767.0390, 52337.00
768.1800, 52480.00
769.3210, 52368.00
770.4620, 52512.00
771.6030, 52368.00
772.7440, 52473.00
773.8840, 52322.00
775.0250, 52801.00
776.1650, 52724.00
777.3050, 52800.00
778.4450, 52857.00
779.5850, 52906.54
780.7240, 52628.00
781.8640, 52963.00
783.0030, 53197.00
784.1420, 52972.00
785.2810, 53189.00
786.4200, 52815.00
787.5590, 52945.00
788.6970, 53143.00
789.8350, 53139.00
790.9730, 53294.00
792.1110, 53440.00
793.2490, 53324.00
794.3870, 53413.00
795.5240, 53392.00
796.6620, 53331.00
797.7990, 53656.00
798.9360, 53631.00
800.0730, 53694.00
801.2090, 54003.00
802.3460, 53686.00
803.4820, 53861.00
804.6180, 54283.00
805.7540, 54160.00
806.8900, 54209.00
808.0260, 53882.00
809.1620, 54281.00
810.2970, 54423.00
811.4320, 54746.00
812.5670, 54259.00
813.7020, 54561.00
814.8370, 54268.00
815.9710, 54755.00
817.1060, 54832.00
818.2400, 54729.00
819.3740, 54970.00
820.5080, 54963.00
821.6420, 55004.00
822.7760, 54688.00
823.9090, 54988.00
825.0420, 54888.33
826.1760, 55399.00
827.3090, 55152.00
828.4410, 55315.00
829.5740, 55865.00
830.7060, 55576.00
831.8390, 55582.00
832.9710, 55730.00
834.1030, 55492.00
835.2350, 55755.00
836.3670, 55528.00
837.4980, 56034.00
838.6300, 55876.00
839.7610, 55810.00
840.8920, 55986.00
842.0230, 55995.00
843.1530, 56219.00
844.2840, 56302.00
845.4140, 56337.00
846.5450, 56304.00
847.6750, 56643.00
848.8050, 56404.00
849.9350, 56466.00
851.0640, 56790.00
852.1940, 56752.00
853.3230, 56706.00
854.4520, 56892.00
855.5810, 56879.00
856.7100, 56893.00
857.8390, 57108.00
858.9670, 57783.00
860.0960, 57472.00
861.2240, 57714.00
862.3520, 57633.00
863.4800, 57703.00
864.6080, 57643.00
865.7350, 57642.00
866.8630, 58016.00
867.9900, 58200.00
869.1170, 58337.00
870.2440, 58169.00
871.3710, 58696.00
872.4970, 58632.00
873.6240, 58291.00
874.7500, 58707.00
875.8760, 59162.00
877.0020, 58992.00
878.1280, 59044.00
879.2540, 59387.00
880.3790, 59378.00
881.5050, 59442.00
882.6300, 59993.00
883.7550, 59448.00
884.8800, 60033.00
886.0050, 60032.00
887.1290, 60161.00
888.2540, 60392.00
889.3780, 60732.00
890.5020, 60929.00
891.6260, 61121.03
892.7500, 61491.00
893.8730, 61479.00
894.9970, 61479.00
896.1200, 61740.00
897.2440, 61408.00
898.3670, 62009.00
899.4890, 61718.00
900.6120, 61976.00
901.7350, 61578.00
902.8570, 61963.00
903.9790, 61632.00
905.1010, 61547.00
906.2230, 61866.00
907.3450, 61274.00
908.4670, 61712.00
909.5880, 61284.00
910.7100, 61277.00
911.8310, 61182.00
912.9520, 61416.00
914.0730, 61209.55
915.1930, 61132.00
916.3140, 61007.00
917.4340, 60918.00
918.5550, 60935.00
919.6750, 60685.00
920.7950, 60629.00
921.9140, 60683.00
923.0340, 60773.00
924.1530, 61171.00
925.2730, 60850.00
926.3920, 61010.00
927.5110, 60641.00
928.6300, 60875.00
929.7480, 60997.00
930.8670, 60843.00
931.9850, 60752.00
933.1040, 60871.00
934.2220, 60737.00
935.3400, 60704.00
936.4570, 60568.00
937.5750, 60606.80
938.6920, 60556.66
939.8100, 60773.00
940.9270, 60700.00
942.0440, 60943.00
943.1610, 61381.00
944.2770, 61213.00
945.3940, 61356.00
946.5100, 61311.80
947.6270, 61211.00
948.7430, 61152.00
949.8590, 61342.00
950.9740, 61440.00
952.0900, 61269.00
953.2050, 61430.00
954.3210, 61417.77
955.4360, 61476.00
956.5510, 61407.00
957.6660, 61488.00
958.7800, 61287.00
959.8950, 61449.65
961.0090, 61464.00
962.1240, 61584.00
963.2380, 61742.00
964.3520, 61592.00
965.4650, 62069.00
966.5790, 61641.00
967.6930, 61893.00
968.8060, 62048.00
969.9190, 61922.00
971.0320, 62162.00
972.1450, 61824.00
973.2580, 61921.00
974.3700, 62151.00
975.4830, 62351.00
976.5950, 62371.31
977.7070, 61843.00
978.8190, 62397.00
979.9310, 62198.00
981.0430, 62131.00
982.1540, 62580.00
983.2650, 62309.00
984.3770, 62456.00
985.4880, 62286.00
986.5990, 62348.95
987.7090, 63188.00
988.8200, 62489.00
989.9300, 62985.00
991.0410, 63072.00
992.1510, 62984.00
993.2610, 63019.00
994.3710, 63297.00
995.4810, 63014.00
996.5900, 63251.00
997.6990, 63639.00
998.8090, 63703.00
999.9180, 64398.00
1001.027, 63911.00
1002.136, 64122.00
1003.244, 64463.00
1004.353, 64249.00
1005.461, 64371.00
1006.569, 64386.00
1007.677, 64394.00
1008.785, 64510.00
1009.893, 64672.00
1011.001, 64515.00
1012.108, 64591.00
1013.215, 64742.00
1014.323, 64497.00
1015.430, 64402.00
1016.536, 64538.00
1017.643, 65127.00
1018.750, 64799.00
1019.856, 64919.00
1020.962, 65011.00
1022.068, 64609.00
1023.174, 65008.00
1024.280, 65239.00
1025.386, 65241.00
1026.491, 64983.00
1027.597, 65186.00
1028.702, 65415.00
1029.807, 65186.00
1030.912, 65413.00
1032.017, 65267.00
1033.121, 65738.00
1034.226, 65903.00
1035.330, 65645.00
1036.434, 65740.00
1037.538, 65948.00
1038.642, 66237.00
1039.746, 66162.00
1040.850, 66541.00
1041.953, 67153.00
1043.056, 66672.00
1044.159, 67564.00
1045.262, 67815.00
1046.365, 68387.00
1047.468, 69040.00
1048.571, 69762.00
1049.673, 71178.00
1050.775, 71353.00
1051.877, 71770.00
1052.979, 72547.00
1054.081, 71744.00
1055.183, 72289.00
1056.284, 73209.00
1057.386, 74870.00
1058.487, 76170.00
1059.588, 78767.00
1060.689, 82429.00
1061.790, 88102.00
1062.890, 97730.00
1063.991, 113926.0
1065.091, 142755.0
1066.191, 187360.0
1067.291, 251397.0
1068.391, 337697.0
1069.491, 435675.0
1070.591, 523325.0
1071.690, 536331.0
1072.790, 453216.0
1073.889, 322682.0
1074.988, 213164.0
1076.087, 151828.0
1077.185, 118607.0
1078.284, 100017.0
1079.382, 89343.00
1080.481, 82594.00
1081.579, 78477.00
1082.677, 75436.00
1083.775, 74320.00
1084.872, 72704.00
1085.970, 72106.00
1087.067, 71447.00
1088.165, 70814.00
1089.262, 70279.00
1090.359, 69858.00
1091.456, 69943.00
1092.552, 69677.00
1093.649, 69448.00
1094.745, 69349.00
1095.842, 69121.27
1096.938, 69113.02
1098.034, 68874.00
1099.130, 68890.00
1100.225, 68968.00
1101.321, 68390.00
1102.416, 68780.00
1103.511, 68616.00
1104.607, 68986.00
1105.702, 68620.00
1106.796, 69226.00
1107.891, 68444.00
1108.986, 68531.00
1110.080, 68911.00
1111.174, 68758.00
1112.268, 68728.00
1113.362, 68922.00
1114.456, 69143.00
1115.550, 68685.00
1116.643, 68730.00
1117.737, 69224.00
1118.830, 69062.00
1119.923, 69432.00
1121.016, 69420.00
1122.109, 69238.00
1123.201, 69679.00
1124.294, 69428.00
1125.386, 69581.00
1126.478, 69715.00
1127.571, 69251.00
1128.663, 69939.00
1129.754, 69606.00
1130.846, 70065.00
1131.937, 70006.00
1133.029, 70126.00
1134.120, 70244.00
1135.211, 69788.00
1136.302, 70123.00
1137.393, 70124.00
1138.484, 70542.00
1139.574, 70896.00
1140.664, 71148.00
1141.755, 70831.00
1142.845, 70814.00
1143.935, 71277.00
1145.025, 70838.00
1146.114, 71250.00
1147.204, 71332.00
1148.293, 71494.00
1149.382, 71971.00
1150.471, 72068.00
1151.560, 72586.00
1152.649, 72858.00
1153.738, 73311.00
1154.826, 73851.00
1155.915, 73379.00
1157.003, 73687.00
1158.091, 72930.00
1159.179, 73429.00
1160.267, 73384.00
1161.355, 72647.00
1162.442, 72487.00
1163.529, 72517.00
1164.617, 72409.00
1165.704, 72446.00
1166.791, 71979.00
1167.878, 71832.00
1168.964, 71826.00
1170.051, 72396.00
1171.137, 71806.00
1172.224, 72136.00
1173.310, 71658.00
1174.396, 72046.00
1175.481, 72168.00
1176.567, 71903.00
1177.653, 71987.00
1178.738, 72352.00
1179.823, 72243.00
1180.909, 72574.00
1181.994, 72598.45
1183.078, 72810.00
1184.163, 72726.00
1185.248, 72368.00
1186.332, 72473.00
1187.416, 72594.00
1188.501, 72828.00
1189.585, 72784.00
1190.669, 72787.00
1191.752, 72644.00
1192.836, 73156.00
1193.919, 72954.00
1195.003, 73002.00
1196.086, 73045.00
1197.169, 72644.00
1198.252, 73018.00
1199.334, 73477.00
1200.417, 72766.00
1201.500, 73187.00
1202.582, 73161.00
1203.664, 72831.00
1204.746, 73488.00
1205.828, 73392.00
1206.910, 73105.00
1207.992, 73638.00
1209.073, 73730.00
1210.154, 73726.00
1211.236, 73493.00
1212.317, 74144.00
1213.398, 73809.00
1214.479, 73843.00
1215.559, 73716.00
1216.640, 73622.00
1217.720, 73792.00
1218.800, 73821.00
1219.881, 74064.00
1220.961, 73785.00
1222.040, 74048.00
1223.120, 74011.00
1224.200, 74135.00
1225.279, 74279.00
1226.358, 73887.00
1227.438, 74176.00
1228.517, 74474.00
1229.595, 74080.00
1230.674, 74664.00
1231.753, 73948.00
1232.831, 73894.00
1233.910, 74411.00
1234.988, 74450.00
1236.066, 74515.00
1237.144, 74584.00
1238.222, 74752.00
1239.299, 74978.00
1240.377, 74674.00
1241.454, 75371.00
1242.531, 74866.00
1243.608, 75153.00
1244.685, 74868.00
1245.762, 75247.00
1246.839, 75353.00
1247.915, 75401.00
1248.992, 75704.00
1250.068, 75810.00
1251.144, 75418.00
1252.220, 75552.00
1253.296, 75579.00
1254.372, 76107.00
1255.447, 75319.00
1256.523, 75931.00
1257.598, 75695.00
1258.673, 75881.00
1259.748, 76111.00
1260.823, 75892.00
1261.898, 76293.00
1262.973, 76114.00
1264.047, 76188.00
1265.122, 76888.00
1266.196, 76430.27
1267.270, 76209.00
1268.344, 76164.00
1269.418, 76621.00
1270.491, 76869.00
1271.565, 76508.00
1272.638, 76726.00
1273.712, 76641.00
1274.785, 77216.00
1275.858, 77227.00
1276.931, 77159.00
1278.003, 76904.00
1279.076, 76923.00
1280.148, 77441.00
1281.221, 76932.00
1282.293, 77152.00
1283.365, 77457.00
1284.437, 77087.00
1285.509, 77520.81
1286.580, 77678.00
1287.652, 77841.00
1288.723, 77782.00
1289.794, 77624.00
1290.866, 78011.00
1291.937, 77887.00
1293.007, 77908.00
1294.078, 78342.00
1295.149, 78193.00
1296.219, 78211.00
1297.289, 78018.00
1298.360, 78230.00
1299.430, 78158.00
1300.500, 78178.00
1301.569, 78260.00
1302.639, 78065.00
1303.709, 78324.00
1304.778, 78787.00
1305.847, 78547.00
1306.916, 78749.00
1307.985, 78945.00
1309.054, 78987.00
1310.123, 78898.00
1311.191, 79290.00
1312.260, 79197.00
1313.328, 79159.00
1314.396, 79527.00
1315.464, 79189.00
1316.532, 79080.00
1317.600, 79531.00
1318.668, 79348.00
1319.735, 79523.00
1320.802, 79322.00
1321.870, 79287.00
1322.937, 79657.00
1324.004, 79617.00
1325.071, 79958.00
1326.137, 79645.00
1327.204, 80009.00
1328.270, 80236.00
1329.337, 79422.00
1330.403, 80264.00
1331.469, 79758.00
1332.535, 80277.00
1333.601, 80339.00
1334.666, 80276.00
1335.732, 80376.00
1336.797, 80609.00
1337.862, 80886.00
1338.927, 80314.00
1339.992, 80650.00
1341.057, 80628.00
1342.122, 80295.00
1343.187, 80986.00
1344.251, 80646.00
1345.315, 81036.00
1346.380, 80954.00
1347.444, 81058.00
1348.508, 81090.00
1349.571, 81311.00
1350.635, 81143.00
1351.699, 81473.00
1352.762, 81307.00
1353.825, 81630.00
1354.888, 81944.00
1355.951, 81697.00
1357.014, 81781.00
1358.077, 81608.00
1359.140, 81932.00
1360.202, 81862.00
1361.264, 82303.00
1362.327, 82307.00
1363.389, 82392.00
1364.451, 82777.00
1365.513, 82163.00
1366.574, 82407.00
1367.636, 82488.00
1368.697, 82887.00
1369.759, 82571.00
1370.820, 82686.00
1371.881, 82696.00
1372.942, 83043.00
1374.002, 82909.00
1375.063, 83320.00
1376.124, 83313.00
1377.184, 83364.00
1378.244, 83714.00
1379.304, 83788.00
1380.364, 84313.00
1381.424, 84448.00
1382.484, 84765.00
1383.544, 85003.00
1384.603, 85241.00
1385.663, 85603.00
1386.722, 85685.00
1387.781, 85893.00
1388.840, 86808.00
1389.899, 87439.00
1390.957, 88626.00
1392.016, 88843.00
1393.074, 89799.00
1394.133, 90170.00
1395.191, 90923.00
1396.249, 91598.00
1397.307, 91518.00
1398.365, 92093.00
1399.422, 91539.00
1400.480, 91073.00
1401.537, 90915.00
1402.595, 90211.00
1403.652, 89989.00
1404.709, 89211.00
1405.766, 89016.00
1406.823, 88872.00
1407.879, 88081.00
1408.936, 88249.00
1409.992, 88144.00
1411.048, 88057.00
1412.104, 88563.00
1413.160, 88502.00
1414.216, 89041.00
1415.272, 88965.00
1416.328, 89202.00
1417.383, 89941.00
1418.439, 89857.00
1419.494, 90567.00
1420.549, 90634.00
1421.604, 91342.00
1422.659, 91904.00
1423.713, 92495.00
1424.768, 93695.00
1425.822, 93707.00
1426.877, 94428.00
1427.931, 95314.00
1428.985, 95434.00
1430.039, 95723.00
1431.093, 95904.00
1432.147, 96710.00
1433.200, 95958.00
1434.254, 96186.00
1435.307, 96443.00
1436.360, 95490.00
1437.413, 95521.00
1438.466, 94692.00
1439.519, 94361.00
1440.572, 93631.00
1441.624, 93415.00
1442.677, 92858.00
1443.729, 92379.00
1444.781, 91660.00
1445.833, 91350.82
1446.885, 90743.00
1447.937, 90812.00
1448.988, 90252.00
1450.040, 90312.00
1451.091, 90585.00
1452.143, 89685.00
1453.194, 89597.00
1454.245, 89534.00
1455.296, 89243.00
1456.347, 89498.00
1457.397, 89054.00
1458.448, 89343.00
1459.498, 89015.00
1460.549, 88509.00
1461.599, 89195.00
1462.649, 88656.00
1463.699, 89131.00
1464.748, 88934.00
1465.798, 88577.00
1466.848, 88919.00
1467.897, 88653.00
1468.946, 88446.00
1469.995, 88832.00
1471.044, 88655.00
1472.093, 88679.00
1473.142, 88734.00
1474.191, 88595.00
1475.239, 88818.00
1476.288, 88460.00
1477.336, 88667.00
1478.384, 88948.00
1479.432, 88809.00
1480.480, 89405.00
1481.528, 88729.00
1482.575, 89149.00
1483.623, 88879.00
1484.670, 88921.00
1485.718, 89356.00
1486.765, 88564.00
1487.812, 89309.00
1488.859, 88892.00
1489.905, 89181.00
1490.952, 89779.00
1491.999, 89176.00
1493.045, 89575.00
1494.091, 89508.00
1495.137, 89380.00
1496.183, 89943.00
1497.229, 89531.00
1498.275, 90010.00
1499.321, 90233.00
1500.366, 90475.00
1501.412, 90484.00
1502.457, 90644.00
1503.502, 90672.00
1504.547, 91215.00
1505.592, 90507.00
1506.637, 91299.00
1507.682, 91350.00
1508.726, 92045.00
1509.771, 92223.00
1510.815, 92200.00
1511.859, 93101.00
1512.903, 92697.00
1513.947, 93346.00
1514.991, 93495.00
1516.034, 93271.00
1517.078, 94250.00
1518.121, 93486.00
1519.165, 93776.00
1520.208, 93757.00
1521.251, 93423.00
1522.294, 93560.00
1523.337, 93297.00
1524.379, 93493.00
1525.422, 93596.00
1526.464, 93420.00
1527.507, 93273.00
1528.549, 93045.00
1529.591, 92644.00
1530.633, 92793.00
1531.675, 92392.00
1532.717, 92433.00
1533.758, 92412.00
1534.800, 92845.00
1535.841, 92642.00
1536.882, 92511.00
1537.923, 93244.00
1538.964, 92545.00
1540.005, 92960.00
1541.046, 92794.00
1542.087, 92288.00
1543.127, 93096.00
1544.167, 92455.00
1545.208, 92655.00
1546.248, 93094.00
1547.288, 92410.00
1548.328, 92826.00
1549.367, 93085.00
1550.407, 92922.00
1551.447, 93451.00
1552.486, 92896.00
1553.525, 92987.00
1554.564, 93200.00
1555.603, 93098.00
1556.642, 93444.00
1557.681, 92689.00
1558.720, 93505.00
1559.758, 93193.00
1560.797, 93129.00
1561.835, 93715.00
1562.873, 93187.00
1563.911, 93047.00
1564.949, 93813.00
1565.987, 93715.00
1567.025, 93565.00
1568.062, 93521.00
1569.100, 93447.30
1570.137, 93574.38
1571.174, 93464.00
1572.212, 93819.00
1573.248, 94077.00
1574.285, 93989.00
1575.322, 94218.00
1576.359, 93990.00
1577.395, 94479.00
1578.432, 94283.00
1579.468, 94491.00
1580.504, 94931.00
1581.540, 94243.00
##END=



