##NAMES=Gehlenite
##RRUFFID=R061091
##IDEAL CHEMISTRY=Ca_2_Al(SiAl)O_7_
##LOCALITY=Carneal Plug, Glenoe Larne District, County Antrim, Northern Ireland
##OWNER=RRUFF
##SOURCE=Michael Scott
##DESCRIPTION=Yellowish-brown anhedral blebs associated with black magnetite and white wollastonite
##STATUS=The identification of this mineral is confirmed by single-crystal X-ray diffraction and chemical analysis.
##URL=rruff.info/R061091
##MEASURED CHEMISTRY=(Ca_1.64_Na_0.36_)_Σ=2_(Al_0.38_Fe_0.36_Mg_0.26_)_Σ=1_(Si_1.98_Al_0.02_)_Σ=2_O_7_
##PIN_ID=M01135
##ORIENTATION=Laser parallel to c* (0 0 1). Fiducial mark perpendicular to laser is parallel to a [1 0 0]
115.4170, 20893.00
116.6530, 20937.30
117.8880, 21267.00
119.1230, 21046.00
120.3580, 20769.00
121.5920, 20942.00
122.8270, 21184.00
124.0610, 21210.00
125.2950, 20990.00
126.5290, 20827.00
127.7630, 20895.00
128.9970, 20889.00
130.2300, 20798.00
131.4640, 20771.00
132.6970, 20656.00
133.9300, 20452.00
135.1630, 20445.00
136.3950, 20316.00
137.6280, 20591.00
138.8600, 20548.00
140.0920, 20634.00
141.3240, 20445.00
142.5560, 20036.00
143.7880, 20026.00
145.0190, 19873.00
146.2510, 20080.00
147.4820, 20143.00
148.7130, 20130.00
149.9440, 19970.00
151.1750, 19894.00
152.4050, 19864.00
153.6360, 19889.00
154.8660, 19754.00
156.0960, 19748.00
157.3260, 19422.00
158.5560, 19518.00
159.7850, 19360.00
161.0150, 19575.00
162.2440, 19460.00
163.4730, 19460.00
164.7020, 19577.00
165.9310, 19287.00
167.1590, 19429.00
168.3880, 19489.00
169.6160, 19490.00
170.8440, 19707.00
172.0720, 19654.00
173.3000, 19741.00
174.5280, 19871.00
175.7550, 19659.00
176.9820, 19720.00
178.2100, 19893.00
179.4370, 19705.00
180.6630, 20142.00
181.8900, 20039.00
183.1170, 20150.00
184.3430, 20302.00
185.5690, 20282.00
186.7950, 20224.00
188.0210, 20588.00
189.2470, 20493.00
190.4720, 20334.00
191.6970, 20694.00
192.9230, 20615.00
194.1480, 20793.00
195.3730, 20745.00
196.5970, 20765.00
197.8220, 20947.00
199.0460, 20778.00
200.2700, 21023.00
201.4940, 21213.00
202.7180, 21221.00
203.9420, 21556.00
205.1660, 21589.00
206.3890, 21568.00
207.6120, 21964.00
208.8350, 22221.00
210.0580, 22664.00
211.2810, 23191.00
212.5040, 23501.00
213.7260, 24153.00
214.9480, 24664.00
216.1700, 24943.00
217.3920, 25405.00
218.6140, 25882.00
219.8360, 26132.00
221.0570, 26512.00
222.2790, 26431.00
223.5000, 26753.00
224.7210, 26610.38
225.9410, 26765.39
227.1620, 26780.80
228.3820, 26661.64
229.6030, 26151.56
230.8230, 26033.61
232.0430, 25689.74
233.2630, 25289.49
234.4820, 25086.57
235.7020, 24689.00
236.9210, 24347.00
238.1400, 23860.00
239.3590, 23325.00
240.5780, 23171.00
241.7970, 22811.00
243.0150, 22529.00
244.2340, 22274.00
245.4520, 22104.00
246.6700, 21627.00
247.8880, 21533.00
249.1060, 21130.00
250.3230, 20930.00
251.5400, 20728.00
252.7580, 20484.00
253.9750, 20360.00
255.1920, 20286.00
256.4080, 20073.00
257.6250, 20126.00
258.8410, 20191.00
260.0580, 19932.00
261.2740, 19569.00
262.4900, 19237.00
263.7050, 19312.00
264.9210, 19052.00
266.1360, 18899.00
267.3520, 18747.00
268.5670, 18761.00
269.7820, 18790.00
270.9960, 18408.00
272.2110, 18185.00
273.4250, 18363.00
274.6400, 18161.00
275.8540, 18194.00
277.0680, 17875.00
278.2810, 17876.00
279.4950, 17832.00
280.7090, 17797.00
281.9220, 17664.00
283.1350, 17679.00
284.3480, 17554.00
285.5610, 17582.00
286.7730, 17455.00
287.9860, 17501.00
289.1980, 17329.00
290.4100, 17434.00
291.6220, 17458.00
292.8340, 17578.00
294.0460, 17534.00
295.2570, 17391.00
296.4690, 17609.00
297.6800, 17484.00
298.8910, 17547.00
300.1020, 17479.00
301.3120, 17408.67
302.5230, 17330.00
303.7330, 17258.00
304.9440, 17153.00
306.1540, 17065.00
307.3630, 16849.00
308.5730, 16790.00
309.7830, 16713.00
310.9920, 16587.00
312.2010, 16532.00
313.4100, 16330.00
314.6190, 16121.00
315.8280, 16128.00
317.0370, 15873.17
318.2450, 15796.00
319.4530, 15514.00
320.6610, 15412.00
321.8690, 15254.00
323.0770, 15059.00
324.2850, 15214.00
325.4920, 15043.00
326.6990, 14844.00
327.9060, 14570.00
329.1130, 14532.00
330.3200, 14362.31
331.5270, 14295.00
332.7330, 14197.00
333.9390, 14108.00
335.1450, 14075.00
336.3510, 13888.00
337.5570, 13972.00
338.7630, 13760.00
339.9680, 13782.00
341.1740, 13618.00
342.3790, 13565.00
343.5840, 13449.00
344.7890, 13391.00
345.9930, 13294.00
347.1980, 13193.80
348.4020, 13137.00
349.6060, 12999.00
350.8100, 12929.00
352.0140, 12848.00
353.2180, 12813.00
354.4210, 12600.00
355.6250, 12577.00
356.8280, 12655.00
358.0310, 12594.00
359.2340, 12328.00
360.4360, 12223.00
361.6390, 12122.14
362.8410, 11970.80
364.0430, 11944.00
365.2450, 11815.00
366.4470, 11721.00
367.6490, 11747.00
368.8510, 11785.38
370.0520, 11697.43
371.2530, 12022.00
372.4540, 11497.00
373.6550, 11592.00
374.8560, 11323.00
376.0560, 11512.00
377.2570, 11374.00
378.4570, 11274.00
379.6570, 11185.00
380.8570, 11218.00
382.0570, 11207.00
383.2560, 11207.00
384.4560, 11269.00
385.6550, 11316.00
386.8540, 11426.00
388.0530, 11468.00
389.2520, 11201.00
390.4510, 11213.00
391.6490, 10993.00
392.8470, 10988.00
394.0450, 11034.00
395.2430, 11042.00
396.4410, 11104.00
397.6390, 11091.89
398.8360, 11118.00
400.0340, 11073.00
401.2310, 11086.00
402.4280, 11069.22
403.6250, 11003.00
404.8210, 11138.00
406.0180, 11184.00
407.2140, 11268.00
408.4100, 11262.00
409.6060, 11285.00
410.8020, 11291.00
411.9980, 11279.00
413.1930, 11301.00
414.3890, 11397.00
415.5840, 11489.00
416.7790, 11561.18
417.9740, 11659.65
419.1680, 11723.00
420.3630, 11864.00
421.5570, 11900.00
422.7510, 12047.00
423.9450, 12286.00
425.1390, 12540.00
426.3330, 12605.00
427.5270, 13020.00
428.7200, 13095.00
429.9130, 13607.00
431.1060, 13859.75
432.2990, 14222.00
433.4920, 14611.00
434.6840, 14990.00
435.8770, 15440.53
437.0690, 15956.00
438.2610, 16391.00
439.4530, 16957.00
440.6450, 17491.00
441.8360, 18120.00
443.0280, 18791.00
444.2190, 19521.00
445.4100, 20197.00
446.6010, 21116.00
447.7920, 21406.00
448.9820, 22090.00
450.1730, 22774.00
451.3630, 22966.00
452.5530, 23101.00
453.7430, 23513.00
454.9330, 23424.00
456.1230, 23254.00
457.3120, 23237.00
458.5010, 22785.00
459.6910, 22617.00
460.8800, 22358.00
462.0680, 21921.00
463.2570, 21548.00
464.4460, 21415.00
465.6340, 21309.00
466.8220, 21157.00
468.0100, 21268.00
469.1980, 21395.00
470.3860, 21510.00
471.5730, 21543.00
472.7600, 21881.00
473.9480, 21954.00
475.1350, 22197.00
476.3210, 22512.00
477.5080, 22640.00
478.6950, 23038.00
479.8810, 23217.00
481.0670, 23236.00
482.2530, 23185.00
483.4390, 23194.00
484.6250, 23093.00
485.8100, 22868.00
486.9960, 22738.00
488.1810, 22391.00
489.3660, 21825.00
490.5510, 21488.00
491.7360, 21019.00
492.9200, 20769.00
494.1050, 20433.00
495.2890, 19974.00
496.4730, 19799.00
497.6570, 19480.00
498.8400, 19124.00
500.0240, 19082.00
501.2070, 18660.00
502.3910, 18527.00
503.5740, 18378.00
504.7570, 18355.00
505.9400, 18424.00
507.1220, 18258.00
508.3050, 18315.00
509.4870, 18264.00
510.6690, 18376.00
511.8510, 18159.00
513.0330, 18144.00
514.2140, 18187.00
515.3960, 18009.00
516.5770, 18314.00
517.7580, 18155.00
518.9390, 18125.00
520.1200, 18057.00
521.3010, 18127.00
522.4810, 18032.47
523.6610, 17949.00
524.8420, 17919.00
526.0220, 17800.00
527.2010, 17750.00
528.3810, 17619.00
529.5610, 17534.00
530.7400, 17707.00
531.9190, 17428.00
533.0980, 17435.00
534.2770, 17428.00
535.4560, 17240.00
536.6340, 17357.00
537.8120, 17275.00
538.9910, 16951.00
540.1690, 17155.00
541.3460, 17078.00
542.5240, 16979.00
543.7020, 16856.00
544.8790, 16885.00
546.0560, 16663.00
547.2330, 16634.00
548.4100, 16549.00
549.5870, 16601.00
550.7630, 16387.00
551.9400, 16460.00
553.1160, 16249.00
554.2920, 16228.00
555.4680, 16177.00
556.6440, 16155.00
557.8190, 16097.00
558.9950, 16062.00
560.1700, 15963.00
561.3450, 15886.00
562.5200, 15890.00
563.6950, 16029.00
564.8690, 15958.00
566.0440, 15776.00
567.2180, 15878.00
568.3920, 15771.00
569.5660, 15873.00
570.7400, 15606.00
571.9130, 15591.00
573.0870, 15725.00
574.2600, 15677.00
575.4330, 15910.00
576.6060, 15740.00
577.7790, 15647.00
578.9520, 15881.00
580.1240, 15888.00
581.2960, 15876.00
582.4690, 16024.00
583.6410, 16153.00
584.8120, 16387.00
585.9840, 16539.00
587.1560, 16941.00
588.3270, 16977.00
589.4980, 17319.00
590.6690, 17624.00
591.8400, 18266.00
593.0110, 18192.00
594.1810, 18738.00
595.3510, 19270.00
596.5220, 19456.00
597.6920, 20236.00
598.8610, 20583.00
600.0310, 21277.00
601.2010, 22031.00
602.3700, 22643.00
603.5390, 23474.00
604.7080, 24155.00
605.8770, 25215.00
607.0460, 26351.00
608.2140, 27558.00
609.3830, 28904.00
610.5510, 30534.00
611.7190, 31897.00
612.8870, 34079.00
614.0550, 36313.00
615.2220, 38896.00
616.3900, 42113.00
617.5570, 45231.00
618.7240, 48863.00
619.8910, 53082.00
621.0580, 57530.00
622.2240, 62039.00
623.3910, 66458.00
624.5570, 70450.00
625.7230, 74772.00
626.8890, 77608.00
628.0550, 79998.00
629.2200, 80920.00
630.3860, 80796.00
631.5510, 79709.00
632.7160, 76803.00
633.8810, 73906.00
635.0460, 69838.00
636.2100, 66304.00
637.3750, 62196.00
638.5390, 58542.00
639.7030, 55513.00
640.8670, 53346.00
642.0310, 51396.00
643.1950, 50425.00
644.3580, 50812.00
645.5210, 51416.00
646.6850, 53148.00
647.8480, 56167.00
649.0100, 59663.00
650.1730, 64374.00
651.3350, 69755.00
652.4980, 75185.00
653.6600, 81604.00
654.8220, 87408.00
655.9840, 93684.00
657.1450, 99451.00
658.3070, 104152.0
659.4680, 109186.0
660.6300, 112076.0
661.7910, 114258.0
662.9510, 115286.0
664.1120, 114900.0
665.2730, 113696.0
666.4330, 111237.0
667.5930, 106743.0
668.7530, 102713.0
669.9130, 97455.00
671.0730, 91874.00
672.2320, 85390.00
673.3920, 80023.00
674.5510, 74164.00
675.7100, 68687.00
676.8690, 63798.00
678.0280, 59096.00
679.1860, 54859.00
680.3450, 50978.00
681.5030, 47728.00
682.6610, 44666.00
683.8190, 41528.00
684.9770, 39206.00
686.1340, 36935.00
687.2920, 34862.00
688.4490, 33189.00
689.6060, 31594.00
690.7630, 30135.00
691.9200, 28906.95
693.0760, 27787.91
694.2330, 26844.00
695.3890, 26005.00
696.5450, 25312.00
697.7010, 24672.00
698.8570, 23964.00
700.0130, 23324.00
701.1680, 22776.69
702.3230, 22253.17
703.4780, 21791.00
704.6330, 21378.00
705.7880, 20939.20
706.9430, 20662.00
708.0970, 20196.00
709.2520, 19905.00
710.4060, 19652.00
711.5600, 19186.00
712.7140, 18837.00
713.8670, 18634.00
715.0210, 18202.00
716.1740, 17969.00
717.3270, 17693.00
718.4800, 17484.00
719.6330, 17098.00
720.7860, 16847.00
721.9380, 16654.00
723.0910, 16437.00
724.2430, 15980.00
725.3950, 15784.00
726.5470, 15455.00
727.6980, 15477.00
728.8500, 15119.00
730.0010, 15252.00
731.1530, 14882.00
732.3040, 14653.00
733.4550, 14676.00
734.6050, 14458.00
735.7560, 14228.00
736.9060, 14125.00
738.0560, 14043.00
739.2060, 13739.00
740.3560, 13502.00
741.5060, 13581.00
742.6560, 13370.00
743.8050, 13234.00
744.9540, 13150.00
746.1030, 12986.00
747.2520, 12706.00
748.4010, 12703.00
749.5500, 12714.00
750.6980, 12354.00
751.8460, 12256.00
752.9950, 12166.00
754.1420, 12038.00
755.2900, 11919.00
756.4380, 11841.00
757.5850, 11564.00
758.7330, 11505.00
759.8800, 11536.00
761.0270, 11473.00
762.1730, 11088.00
763.3200, 11229.00
764.4670, 11030.00
765.6130, 10787.00
766.7590, 10914.00
767.9050, 10851.00
769.0510, 10668.00
770.1960, 10747.00
771.3420, 10721.00
772.4870, 10676.00
773.6320, 10571.00
774.7770, 10578.00
775.9220, 10555.00
777.0670, 10566.00
778.2110, 10641.00
779.3560, 10694.00
780.5000, 10499.00
781.6440, 10618.00
782.7880, 10603.00
783.9320, 10635.00
785.0750, 10748.00
786.2180, 10673.00
787.3620, 10711.00
788.5050, 10687.00
789.6480, 10616.00
790.7900, 10591.00
791.9330, 10634.00
793.0750, 10592.19
794.2170, 10694.00
795.3590, 10583.00
796.5010, 10634.00
797.6430, 10629.00
798.7850, 10697.00
799.9260, 10635.00
801.0670, 10698.00
802.2080, 10710.00
803.3490, 10708.00
804.4900, 10618.00
805.6310, 10725.00
806.7710, 10732.00
807.9110, 10864.00
809.0510, 11003.00
810.1910, 10882.00
811.3310, 11202.00
812.4710, 10978.00
813.6100, 11221.00
814.7490, 11229.00
815.8880, 11384.00
817.0270, 11323.00
818.1660, 11313.00
819.3050, 11478.00
820.4430, 11493.00
821.5820, 11641.13
822.7200, 11826.00
823.8580, 11955.00
824.9950, 12179.00
826.1330, 12377.00
827.2710, 12473.00
828.4080, 12710.00
829.5450, 12856.00
830.6820, 12970.00
831.8190, 13338.00
832.9560, 13347.00
834.0920, 13797.00
835.2280, 13966.00
836.3650, 14266.00
837.5010, 14754.00
838.6360, 14885.00
839.7720, 15231.00
840.9080, 15728.00
842.0430, 16117.00
843.1780, 16656.00
844.3130, 17133.26
845.4480, 17634.07
846.5830, 18208.00
847.7170, 18617.00
848.8520, 19272.00
849.9860, 19639.00
851.1200, 20085.00
852.2540, 20950.00
853.3870, 21356.00
854.5210, 21910.00
855.6540, 22588.00
856.7880, 22990.00
857.9210, 23215.00
859.0540, 23581.00
860.1860, 23709.00
861.3190, 23745.00
862.4510, 23527.00
863.5840, 23257.00
864.7160, 22834.00
865.8480, 22410.00
866.9790, 21680.00
868.1110, 21187.00
869.2420, 20587.00
870.3740, 20302.00
871.5050, 19877.00
872.6360, 19879.00
873.7660, 19682.00
874.8970, 19753.00
876.0280, 19925.00
877.1580, 20218.00
878.2880, 20463.00
879.4180, 20870.00
880.5480, 21425.67
881.6770, 22220.00
882.8070, 22798.00
883.9360, 23741.00
885.0650, 24655.00
886.1940, 25433.00
887.3230, 26462.00
888.4520, 27431.46
889.5800, 28672.00
890.7090, 29640.86
891.8370, 30914.00
892.9650, 32310.00
894.0930, 33350.00
895.2200, 35150.00
896.3480, 37070.00
897.4750, 39068.00
898.6020, 41397.00
899.7290, 44049.00
900.8560, 46423.00
901.9830, 50145.00
903.1090, 53648.00
904.2360, 57003.00
905.3620, 61355.00
906.4880, 65852.00
907.6140, 70307.00
908.7400, 75089.00
909.8650, 80557.00
910.9900, 85775.00
912.1160, 91332.00
913.2410, 96790.00
914.3660, 102626.0
915.4900, 107140.0
916.6150, 112014.0
917.7390, 115809.0
918.8640, 119512.0
919.9880, 119523.0
921.1120, 119769.0
922.2350, 118406.0
923.3590, 115648.0
924.4820, 111125.0
925.6060, 105482.0
926.7290, 100313.0
927.8520, 93984.00
928.9740, 88588.00
930.0970, 82178.00
931.2190, 76609.00
932.3420, 70790.00
933.4640, 66753.00
934.5860, 62147.00
935.7080, 58161.00
936.8290, 55625.00
937.9510, 51987.61
939.0720, 49070.00
940.1930, 46655.00
941.3140, 44203.00
942.4350, 42357.00
943.5560, 40990.00
944.6760, 39194.00
945.7960, 37835.00
946.9170, 36952.00
948.0370, 35877.00
949.1560, 35038.00
950.2760, 34222.00
951.3960, 33747.00
952.5150, 32755.00
953.6340, 32400.00
954.7530, 31905.00
955.8720, 31261.00
956.9910, 30843.00
958.1090, 30098.00
959.2280, 29876.00
960.3460, 29361.00
961.4640, 28965.00
962.5820, 27952.00
963.6990, 27487.00
964.8170, 26876.00
965.9340, 26127.00
967.0510, 25531.00
968.1690, 24945.00
969.2850, 24537.00
970.4020, 23837.00
971.5190, 23417.00
972.6350, 22837.00
973.7510, 22535.00
974.8670, 22046.00
975.9830, 21467.00
977.0990, 21091.00
978.2150, 20884.00
979.3300, 20711.00
980.4450, 20422.00
981.5600, 20173.00
982.6750, 20059.69
983.7900, 19921.11
984.9050, 19908.00
986.0190, 19787.00
987.1340, 19878.00
988.2480, 19798.00
989.3620, 19673.00
990.4750, 19356.00
991.5890, 19458.00
992.7020, 19075.00
993.8160, 18958.00
994.9290, 18831.00
996.0420, 18809.00
997.1550, 18538.00
998.2670, 18318.00
999.3800, 18227.00
1000.492, 18132.00
1001.604, 17839.00
1002.716, 17849.00
1003.828, 17706.00
1004.940, 17371.00
1006.051, 17369.00
1007.163, 17034.00
1008.274, 16776.00
1009.385, 16852.00
1010.496, 16640.00
1011.606, 16577.00
1012.717, 16459.00
1013.827, 16378.00
1014.937, 16320.00
1016.047, 16214.38
1017.157, 15899.00
1018.267, 16028.00
1019.377, 15809.00
1020.486, 15682.00
1021.595, 15742.00
1022.704, 15638.00
1023.813, 15634.00
1024.922, 15574.68
1026.030, 15375.00
1027.139, 15386.00
1028.247, 15231.00
1029.355, 15031.00
1030.463, 15126.00
1031.571, 15086.00
1032.678, 14961.00
1033.786, 14951.00
1034.893, 14657.00
1036.000, 14780.00
1037.107, 14562.00
1038.214, 14650.00
1039.321, 14514.00
1040.427, 14230.00
1041.533, 14164.00
1042.639, 14127.00
1043.745, 13924.00
1044.851, 13869.00
1045.957, 13710.00
1047.062, 13763.00
1048.168, 13604.00
1049.273, 13403.00
1050.378, 13346.00
1051.482, 13122.00
1052.587, 13069.00
1053.692, 12943.00
1054.796, 12767.00
1055.900, 12719.00
1057.004, 12600.00
1058.108, 12499.00
1059.212, 12367.00
1060.315, 12390.00
1061.418, 12338.00
1062.522, 12234.27
1063.625, 11992.00
1064.728, 12011.00
1065.830, 11847.00
1066.933, 11662.00
1068.035, 11757.00
1069.137, 11584.00
1070.239, 11539.00
1071.341, 11473.00
1072.443, 11536.00
1073.545, 11469.00
1074.646, 11415.51
1075.747, 11420.00
1076.848, 11291.00
1077.949, 11298.00
1079.050, 11290.00
1080.150, 11223.11
1081.251, 11229.00
1082.351, 11143.00
1083.451, 11112.00
1084.551, 10940.17
1085.651, 11047.03
1086.750, 11090.13
1087.850, 11072.84
1088.949, 10814.45
1090.048, 10867.43
1091.147, 11008.00
1092.246, 10902.00
1093.345, 10927.00
1094.443, 10969.00
1095.541, 11033.00
1096.639, 10919.00
1097.737, 10920.00
1098.835, 10953.00
1099.933, 10840.00
1101.030, 10498.00
1102.128, 10299.00
1103.225, 10280.00
1104.322, 10051.00
1105.419, 10035.00
1106.515, 9776.000
1107.612, 9662.000
1108.708, 9613.000
1109.804, 9570.000
1110.900, 9396.000
1111.996, 9470.000
1113.092, 9332.000
1114.187, 9477.000
1115.283, 9243.000
1116.378, 9267.000
1117.473, 9278.000
1118.568, 9129.000
1119.662, 9196.000
1120.757, 9194.000
1121.851, 9205.000
1122.946, 9128.000
1124.040, 9057.000
1125.134, 9071.000
1126.227, 9114.000
1127.321, 9079.000
1128.414, 9120.000
1129.508, 8919.000
1130.601, 9044.000
1131.693, 9073.000
1132.786, 8883.000
1133.879, 8894.000
1134.971, 8831.000
1136.064, 9012.000
1137.156, 8973.000
1138.248, 8950.000
1139.339, 8864.000
1140.431, 8847.000
1141.522, 8901.000
1142.614, 8831.000
1143.705, 8811.000
1144.796, 8830.000
1145.887, 8817.000
1146.977, 8787.000
1148.068, 8829.000
1149.158, 8818.000
1150.248, 8788.000
1151.338, 8816.000
1152.428, 8742.000
1153.518, 8897.000
1154.607, 8822.000
1155.696, 8833.000
1156.785, 8711.000
1157.874, 8877.000
1158.963, 8719.000
1160.052, 8676.000
1161.141, 8533.000
1162.229, 8631.000
1163.317, 8629.000
1164.405, 8713.000
1165.493, 8688.000
1166.581, 8678.000
1167.668, 8740.000
1168.756, 8640.000
1169.843, 8688.000
1170.930, 8650.000
1172.017, 8676.000
1173.103, 8725.000
1174.190, 8664.000
1175.276, 8745.000
1176.363, 8678.000
1177.449, 8754.000
1178.535, 8609.000
1179.620, 8652.000
1180.706, 8630.000
1181.791, 8775.000
1182.877, 8635.000
1183.962, 8663.000
1185.047, 8714.000
1186.131, 8687.000
1187.216, 8636.000
1188.300, 8674.000
1189.385, 8709.000
1190.469, 8589.000
1191.553, 8776.000
1192.637, 8662.000
1193.720, 8703.000
1194.804, 8667.000
1195.887, 8706.000
1196.970, 8535.000
1198.053, 8646.000
1199.136, 8534.000
1200.219, 8815.000
1201.301, 8582.000
1202.383, 8626.000
1203.465, 8599.000
1204.547, 8630.000
1205.629, 8669.000
1206.711, 8821.000
1207.792, 8607.000
1208.874, 8729.000
1209.955, 8641.000
1211.036, 8612.000
1212.117, 8595.750
1213.198, 8739.685
1214.278, 8819.836
1215.359, 8839.628
1216.439, 8618.288
1217.519, 8708.322
1218.599, 8673.572
1219.678, 8633.707
1220.758, 8767.566
1221.837, 8581.300
1222.917, 8712.404
1223.996, 8716.821
1225.075, 8779.221
1226.153, 8716.065
1227.232, 8691.689
1228.310, 8792.910
1229.389, 8824.587
1230.467, 8746.979
1231.545, 8813.064
1232.622, 8622.416
1233.700, 8657.056
1234.777, 8788.899
1235.855, 8717.604
1236.932, 8785.988
1238.009, 8633.000
1239.086, 8673.000
1240.162, 8563.000
1241.239, 8544.000
1242.315, 8624.000
1243.391, 8677.000
1244.467, 8596.000
1245.543, 8634.000
1246.619, 8616.000
1247.694, 8631.000
1248.769, 8550.000
1249.844, 8589.000
1250.919, 8522.000
1251.994, 8515.000
1253.069, 8507.000
1254.144, 8465.000
1255.218, 8538.000
1256.292, 8436.000
1257.366, 8465.000
1258.440, 8416.000
1259.514, 8557.000
1260.587, 8435.000
1261.661, 8388.000
1262.734, 8611.000
1263.807, 8551.000
1264.880, 8536.000
1265.952, 8355.000
1267.025, 8451.000
1268.097, 8306.000
1269.170, 8461.000
1270.242, 8376.000
1271.314, 8387.000
1272.385, 8328.000
1273.457, 8315.582
1274.528, 8374.000
1275.600, 8308.000
1276.671, 8302.000
1277.742, 8322.000
1278.812, 8351.000
1279.883, 8449.000
1280.954, 8321.000
1282.024, 8361.000
1283.094, 8278.000
1284.164, 8259.000
1285.234, 8390.000
1286.303, 8413.000
1287.373, 8386.292
1288.442, 8185.000
1289.511, 8317.000
1290.580, 8294.000
1291.649, 8269.000
1292.718, 8320.000
1293.786, 8408.000
1294.855, 8329.944
1295.923, 8351.547
1296.991, 8267.000
1298.059, 8261.000
1299.126, 8336.000
1300.194, 8260.000
1301.261, 8354.000
1302.328, 8247.000
1303.395, 8251.000
1304.462, 8258.000
1305.529, 8188.000
1306.596, 8217.000
1307.662, 8300.000
1308.728, 8330.000
1309.794, 8312.000
1310.860, 8470.000
1311.926, 8335.000
1312.991, 8392.000
1314.057, 8363.000
1315.122, 8463.000
1316.187, 8316.000
1317.252, 8303.000
1318.317, 8465.000
1319.381, 8530.000
1320.446, 8423.000
1321.510, 8453.000
1322.574, 8447.000
1323.638, 8397.000
1324.702, 8437.000
1325.766, 8405.000
1326.829, 8403.000
1327.892, 8455.000
1328.956, 8448.000
1330.019, 8477.000
1331.081, 8473.000
1332.144, 8516.000
1333.206, 8410.000
1334.269, 8531.000
1335.331, 8417.000
1336.393, 8478.000
1337.455, 8453.000
1338.516, 8504.000
1339.578, 8524.000
1340.639, 8523.000
1341.701, 8405.000
1342.762, 8492.000
1343.822, 8471.000
1344.883, 8391.000
1345.944, 8495.817
1347.004, 8482.348
1348.064, 8599.000
1349.124, 8554.000
1350.184, 8548.000
1351.244, 8546.000
1352.304, 8582.000
1353.363, 8577.208
1354.422, 8655.000
1355.481, 8616.000
1356.540, 8596.000
1357.599, 8652.000
1358.657, 8593.000
1359.716, 8609.000
1360.774, 8614.000
1361.832, 8599.000
1362.890, 8641.000
1363.948, 8671.303
1365.006, 8602.000
1366.063, 8733.000
1367.120, 8667.000
1368.178, 8604.000
1369.234, 8625.000
1370.291, 8548.000
1371.348, 8570.883
1372.404, 8479.000
1373.461, 8601.000
1374.517, 8617.000
1375.573, 8633.000
1376.629, 8608.000
1377.684, 8612.186
1378.740, 8587.000
1379.795, 8545.000
1380.850, 8592.000
1381.905, 8473.000
1382.960, 8540.000
1384.015, 8505.000
1385.070, 8606.000
1386.124, 8565.000
1387.178, 8634.000
1388.232, 8508.000
1389.286, 8613.000
1390.340, 8508.000
1391.393, 8594.000
1392.447, 8603.000
1393.500, 8354.000
1394.553, 8357.000
1395.606, 8516.000
1396.659, 8463.000
1397.711, 8515.000
1398.764, 8425.000
1399.816, 8509.000
1400.868, 8482.000
1401.920, 8381.000
1402.972, 8423.000
1404.023, 8440.000
1405.075, 8503.000
1406.126, 8462.000
1407.177, 8473.000
1408.228, 8404.000
1409.279, 8442.000
1410.330, 8497.000
1411.380, 8425.000
1412.431, 8312.000
1413.481, 8427.000
1414.531, 8363.000
1415.580, 8443.000
1416.630, 8493.000
1417.680, 8297.000
1418.729, 8322.000
1419.778, 8366.000
1420.827, 8385.000
1421.876, 8486.000
1422.925, 8515.000
1423.973, 8571.000
1425.022, 8543.877
1426.070, 8559.000
1427.118, 8448.000
1428.166, 8479.000
1429.214, 8439.000
1430.261, 8407.000
1431.309, 8506.000
1432.356, 8389.000
1433.403, 8514.000
1434.450, 8356.000
1435.497, 8435.000
1436.543, 8368.000
1437.590, 8451.000
1438.636, 8538.000
1439.682, 8373.000
1440.728, 8595.000
1441.774, 8487.000
1442.819, 8513.000
1443.865, 8345.000
1444.910, 8481.000
1445.955, 8346.000
1447.000, 8524.000
1448.045, 8443.000
1449.090, 8464.000
1450.134, 8381.000
1451.178, 8349.000
1452.223, 8621.000
1453.267, 8554.330
1454.310, 8548.736
1455.354, 8635.000
1456.398, 8447.000
1457.441, 8389.000
1458.484, 8398.000
1459.527, 8367.000
1460.570, 8441.000
1461.613, 8410.000
1462.655, 8305.000
1463.698, 8403.000
1464.740, 8367.000
1465.782, 8276.000
1466.824, 8520.000
1467.866, 8335.000
1468.907, 8304.000
1469.948, 8321.000
1470.990, 8259.394
1472.031, 8395.000
1473.072, 8265.000
1474.112, 8419.000
1475.153, 8431.000
1476.194, 8391.000
1477.234, 8347.000
1478.274, 8269.000
1479.314, 8312.000
1480.354, 8274.000
1481.393, 8268.000
1482.433, 8247.000
1483.472, 8237.000
1484.511, 8309.000
1485.550, 8336.000
1486.589, 8303.000
1487.628, 8216.000
1488.666, 8251.000
1489.704, 8229.095
1490.743, 8267.000
1491.781, 8235.000
1492.819, 8276.000
1493.856, 8236.173
1494.894, 8341.000
1495.931, 8288.000
1496.968, 8254.516
1498.005, 8307.005
1499.042, 8158.000
1500.079, 8274.000
1501.115, 8296.000
1502.152, 8121.330
1503.188, 8156.000
1504.224, 8212.000
1505.260, 8208.000
1506.296, 8307.000
1507.331, 8323.000
1508.367, 8307.072
1509.402, 8292.000
1510.437, 8227.000
1511.472, 8218.000
1512.507, 8123.000
1513.541, 8195.000
1514.576, 8219.000
1515.610, 8233.000
1516.644, 8064.000
1517.678, 8235.000
1518.712, 8190.000
1519.746, 8157.000
1520.779, 8228.000
1521.813, 8151.000
1522.846, 8127.000
1523.879, 8058.000
1524.912, 8112.000
1525.944, 8069.530
1526.977, 8059.336
1528.009, 8089.000
1529.041, 8054.000
1530.073, 8140.000
1531.105, 8190.000
1532.137, 8109.000
1533.168, 8068.000
1534.200, 8209.000
1535.231, 8250.000
1536.262, 8136.000
1537.293, 8127.000
1538.324, 8174.000
1539.354, 8041.000
1540.385, 8187.000
1541.415, 8145.000
1542.445, 8207.000
1543.475, 8166.000
1544.505, 8173.000
1545.534, 8144.000
1546.564, 8184.000
1547.593, 8208.000
1548.622, 8098.000
1549.651, 8150.000
1550.680, 8198.000
1551.708, 8202.000
1552.737, 8319.000
1553.765, 8381.000
1554.793, 8522.000
1555.821, 8322.000
1556.849, 8114.000
1557.877, 8108.000
1558.904, 8057.000
1559.932, 8088.000
1560.959, 8084.098
1561.986, 8096.000
1563.013, 8108.000
1564.039, 8154.000
1565.066, 8145.000
1566.092, 8028.000
1567.119, 8118.000
1568.145, 8098.000
1569.170, 8232.000
1570.196, 8055.000
1571.222, 7994.000
1572.247, 8183.000
1573.272, 8025.000
1574.297, 8042.000
1575.322, 8124.000
1576.347, 8142.000
1577.372, 8112.000
##END=



