##NAMES=Gehlenite
##RRUFFID=R060841
##IDEAL CHEMISTRY=Ca_2_Al(SiAl)O_7_
##LOCALITY=Monzoni, Tyrol, Italy
##OWNER=RRUFF
##SOURCE=Michael Scott
##DESCRIPTION=Brown rectangular prism
##STATUS=The identification of this mineral has been confirmed by X-ray diffraction and chemical analysis
##URL=rruff.info/R060841
##MEASURED CHEMISTRY=(Ca_1.92_Na_0.07_K_0.01_)_Σ=2_(Al_0.62_Mg_0.25_Fe^2+^_0.13_)_Σ=1_(Si_1.46_Al_0.54_)O_7_ ; = lighter phase, and the darker phase is calcite
##PIN_ID=L00662
##ORIENTATION=Laser parallel to a* (1 0 0). Fiducial mark perpendicular to laser is parallel to c [0 0 1]
198.6340, 6297.000
199.8590, 6305.000
201.0840, 6380.000
202.3090, 6341.000
203.5340, 6409.000
204.7580, 6240.000
205.9820, 6359.000
207.2060, 6278.000
208.4300, 6364.000
209.6540, 6358.000
210.8780, 6484.000
212.1010, 6487.000
213.3240, 6591.000
214.5470, 6702.000
215.7700, 6813.000
216.9930, 6933.000
218.2150, 7148.000
219.4380, 7383.000
220.6600, 7549.000
221.8820, 7833.000
223.1040, 8170.000
224.3260, 8362.000
225.5470, 8699.000
226.7680, 8883.000
227.9900, 9118.471
229.2110, 9417.000
230.4310, 9522.000
231.6520, 9690.000
232.8720, 9834.000
234.0930, 9964.000
235.3130, 10002.00
236.5330, 10001.00
237.7530, 9900.000
238.9720, 9768.000
240.1920, 9577.000
241.4110, 9604.000
242.6300, 9381.000
243.8490, 9265.000
245.0680, 9125.000
246.2860, 8933.000
247.5040, 8819.000
248.7230, 8645.095
249.9410, 8493.000
251.1590, 8327.000
252.3760, 8198.000
253.5940, 8046.000
254.8110, 7895.000
256.0280, 7750.000
257.2450, 7595.000
258.4620, 7610.000
259.6790, 7589.000
260.8950, 7571.000
262.1120, 7324.000
263.3280, 7127.000
264.5440, 6927.000
265.7600, 6791.000
266.9750, 6728.000
268.1910, 6558.000
269.4060, 6429.000
270.6210, 6406.000
271.8360, 6291.000
273.0510, 6142.000
274.2650, 6036.000
275.4800, 5996.000
276.6940, 5963.000
277.9080, 5977.000
279.1220, 5960.000
280.3360, 5998.000
281.5490, 5887.000
282.7630, 6022.000
283.9760, 5900.000
285.1890, 5910.000
286.4020, 5961.000
287.6150, 6082.000
288.8270, 6145.000
290.0400, 6153.000
291.2520, 6345.000
292.4640, 6381.000
293.6760, 6481.000
294.8870, 6625.000
296.0990, 6608.000
297.3100, 6754.074
298.5210, 6924.000
299.7320, 6957.000
300.9430, 7146.000
302.1540, 7255.000
303.3640, 7205.000
304.5750, 7178.000
305.7850, 7121.000
306.9950, 7213.000
308.2050, 7151.000
309.4140, 6982.000
310.6240, 6859.000
311.8330, 6691.000
313.0420, 6510.000
314.2510, 6341.164
315.4600, 6161.116
316.6680, 5947.000
317.8770, 5791.000
319.0850, 5561.000
320.2930, 5349.000
321.5010, 5320.000
322.7090, 5124.000
323.9160, 5138.000
325.1240, 4967.000
326.3310, 4833.000
327.5380, 4791.000
328.7450, 4724.000
329.9520, 4529.000
331.1580, 4488.000
332.3650, 4424.000
333.5710, 4403.000
334.7770, 4255.000
335.9830, 4215.000
337.1880, 4198.000
338.3940, 4118.371
339.5990, 4098.000
340.8040, 4031.000
342.0090, 3966.000
343.2140, 3905.000
344.4190, 3905.000
345.6230, 3793.000
346.8280, 3785.000
348.0320, 3758.000
349.2360, 3650.000
350.4400, 3657.000
351.6430, 3690.000
352.8470, 3625.000
354.0500, 3605.000
355.2530, 3575.094
356.4560, 3507.000
357.6590, 3507.000
358.8620, 3431.134
360.0640, 3426.000
361.2660, 3325.000
362.4680, 3371.000
363.6700, 3288.000
364.8720, 3245.000
366.0740, 3214.000
367.2750, 3224.000
368.4760, 3202.000
369.6770, 3137.000
370.8780, 3089.000
372.0790, 3088.000
373.2800, 3019.000
374.4800, 3075.000
375.6800, 3017.000
376.8800, 2986.000
378.0800, 2984.000
379.2800, 2913.000
380.4790, 2882.000
381.6790, 2863.030
382.8780, 2841.056
384.0770, 2826.000
385.2760, 2837.000
386.4750, 2830.000
387.6730, 2832.000
388.8720, 2821.000
390.0700, 2862.000
391.2680, 2857.000
392.4660, 2807.000
393.6630, 2842.000
394.8610, 2808.000
396.0580, 2814.000
397.2550, 2846.000
398.4520, 2855.000
399.6490, 2848.000
400.8460, 2841.000
402.0420, 2786.000
403.2390, 2866.000
404.4350, 2852.000
405.6310, 2767.000
406.8270, 2840.000
408.0220, 2815.000
409.2180, 2794.000
410.4130, 2780.000
411.6080, 2826.000
412.8030, 2914.000
413.9980, 2892.000
415.1920, 2835.000
416.3870, 2786.000
417.5810, 2881.000
418.7750, 2835.000
419.9690, 2908.000
421.1630, 2889.000
422.3570, 2930.000
423.5500, 2873.000
424.7430, 2932.000
425.9360, 2939.000
427.1290, 2978.000
428.3220, 2991.000
429.5150, 3009.347
430.7070, 3072.000
431.8990, 3058.000
433.0910, 3079.000
434.2830, 3136.000
435.4750, 3168.000
436.6670, 3140.000
437.8580, 3226.000
439.0490, 3150.000
440.2400, 3227.000
441.4310, 3241.000
442.6220, 3220.000
443.8130, 3307.000
445.0030, 3349.000
446.1930, 3339.000
447.3830, 3388.000
448.5730, 3452.000
449.7630, 3524.000
450.9520, 3528.000
452.1420, 3579.000
453.3310, 3571.000
454.5200, 3662.000
455.7090, 3762.000
456.8980, 3752.000
458.0860, 3862.000
459.2740, 3850.000
460.4630, 3879.000
461.6510, 3975.000
462.8380, 4098.000
464.0260, 4124.000
465.2140, 4218.000
466.4010, 4191.000
467.5880, 4401.000
468.7750, 4479.000
469.9620, 4475.000
471.1490, 4602.000
472.3350, 4590.000
473.5220, 4704.000
474.7080, 4716.000
475.8940, 4649.000
477.0800, 4699.000
478.2650, 4785.000
479.4510, 4815.000
480.6360, 4712.000
481.8210, 4655.000
483.0060, 4624.387
484.1910, 4608.000
485.3760, 4545.000
486.5600, 4542.000
487.7440, 4482.411
488.9290, 4429.000
490.1130, 4373.000
491.2960, 4295.317
492.4800, 4229.001
493.6630, 4157.000
494.8470, 4098.000
496.0300, 4122.000
497.2130, 4021.000
498.3960, 3982.000
499.5780, 4029.000
500.7610, 3868.000
501.9430, 3822.000
503.1250, 3902.000
504.3070, 3964.000
505.4890, 3886.000
506.6710, 3910.000
507.8520, 3990.000
509.0330, 4011.000
510.2140, 4021.000
511.3950, 4140.000
512.5760, 4156.000
513.7570, 4241.000
514.9370, 4250.000
516.1170, 4354.000
517.2980, 4374.000
518.4780, 4468.000
519.6570, 4519.634
520.8370, 4550.000
522.0160, 4594.000
523.1960, 4628.000
524.3750, 4587.000
525.5540, 4685.000
526.7320, 4609.000
527.9110, 4563.000
529.0890, 4672.000
530.2680, 4625.000
531.4460, 4583.000
532.6240, 4649.000
533.8010, 4673.000
534.9790, 4683.000
536.1560, 4747.000
537.3340, 4692.000
538.5110, 4741.000
539.6880, 4746.000
540.8650, 4933.000
542.0410, 4913.000
543.2180, 5087.000
544.3940, 5042.000
545.5700, 5278.000
546.7460, 5353.000
547.9220, 5526.000
549.0970, 5636.000
550.2730, 5751.000
551.4480, 6076.000
552.6230, 6239.000
553.7980, 6462.000
554.9730, 6855.000
556.1470, 6923.000
557.3210, 7364.000
558.4960, 7611.000
559.6700, 7965.000
560.8440, 8142.000
562.0170, 8476.000
563.1910, 8692.000
564.3640, 8784.000
565.5380, 9190.000
566.7110, 9129.000
567.8840, 9250.000
569.0560, 9246.000
570.2290, 9251.000
571.4010, 9366.000
572.5740, 9301.000
573.7460, 9426.000
574.9180, 9340.000
576.0890, 9532.000
577.2610, 9659.000
578.4320, 9726.000
579.6040, 9955.000
580.7750, 10186.98
581.9450, 10608.00
583.1160, 10865.00
584.2870, 11171.00
585.4570, 11709.00
586.6270, 12071.00
587.7980, 12612.00
588.9670, 13173.00
590.1370, 13667.00
591.3070, 14584.00
592.4760, 15476.00
593.6450, 16232.00
594.8140, 17440.00
595.9830, 18546.00
597.1520, 19913.00
598.3210, 21314.00
599.4890, 23030.00
600.6570, 24835.00
601.8250, 26915.00
602.9930, 29032.00
604.1610, 31579.00
605.3290, 33964.00
606.4960, 36990.00
607.6630, 39798.00
608.8300, 42646.00
609.9970, 45236.00
611.1640, 47470.00
612.3300, 49602.00
613.4970, 51321.00
614.6630, 51853.00
615.8290, 52328.00
616.9950, 52457.00
618.1610, 51337.00
619.3260, 50211.00
620.4920, 48587.00
621.6570, 46265.00
622.8220, 44649.00
623.9870, 42597.00
625.1520, 40820.00
626.3160, 38974.00
627.4810, 37743.00
628.6450, 36131.00
629.8090, 35478.00
630.9730, 33933.00
632.1370, 32887.00
633.3000, 32037.00
634.4640, 30824.00
635.6270, 29749.00
636.7900, 28720.00
637.9530, 27395.00
639.1160, 26632.00
640.2780, 25571.00
641.4410, 24596.00
642.6030, 24234.00
643.7650, 23870.00
644.9270, 23947.00
646.0890, 24747.00
647.2500, 25660.00
648.4120, 27282.00
649.5730, 29145.00
650.7340, 31401.00
651.8950, 33505.00
653.0560, 35832.00
654.2160, 38019.00
655.3770, 39561.00
656.5370, 41074.00
657.6970, 41313.00
658.8570, 41595.00
660.0170, 40822.00
661.1760, 39990.00
662.3360, 38475.00
663.4950, 36593.00
664.6540, 34649.00
665.8130, 32542.00
666.9720, 30291.00
668.1310, 28194.00
669.2890, 26370.00
670.4470, 24347.00
671.6050, 22497.00
672.7630, 21154.00
673.9210, 19612.00
675.0790, 18204.00
676.2360, 16956.00
677.3930, 15749.00
678.5510, 15098.00
679.7080, 14113.00
680.8640, 13323.00
682.0210, 12631.00
683.1770, 12023.00
684.3340, 11501.00
685.4900, 10863.00
686.6460, 10599.00
687.8020, 10233.00
688.9570, 10070.00
690.1130, 9699.000
691.2680, 9504.000
692.4230, 9287.000
693.5780, 9084.000
694.7330, 8908.000
695.8880, 9018.000
697.0420, 8834.000
698.1960, 8702.000
699.3510, 8874.000
700.5040, 8678.000
701.6580, 8752.000
702.8120, 8849.000
703.9650, 8695.000
705.1190, 8750.000
706.2720, 8805.000
707.4250, 8749.000
708.5780, 8853.000
709.7300, 8771.000
710.8830, 8967.000
712.0350, 9042.000
713.1870, 9051.000
714.3390, 9305.000
715.4910, 9645.000
716.6430, 9966.000
717.7940, 10615.00
718.9460, 11269.00
720.0970, 11840.00
721.2480, 12596.00
722.3990, 13506.00
723.5500, 14430.00
724.7000, 15319.00
725.8500, 16175.00
727.0010, 17216.00
728.1510, 17506.00
729.3010, 17972.00
730.4500, 18246.00
731.6000, 18198.00
732.7490, 18022.00
733.8980, 17655.00
735.0470, 17200.00
736.1960, 16326.00
737.3450, 15620.00
738.4940, 14736.00
739.6420, 13836.00
740.7900, 13168.00
741.9380, 12166.00
743.0860, 11396.00
744.2340, 10854.00
745.3810, 10178.00
746.5290, 9618.000
747.6760, 9150.000
748.8230, 8921.000
749.9700, 8251.000
751.1170, 8048.000
752.2630, 7803.000
753.4100, 7459.000
754.5560, 7215.122
755.7020, 6912.300
756.8480, 6645.000
757.9940, 6353.000
759.1390, 6108.000
760.2850, 5892.000
761.4300, 5713.499
762.5750, 5533.577
763.7200, 5406.892
764.8650, 5310.000
766.0100, 5222.000
767.1540, 5181.478
768.2980, 5162.000
769.4420, 5178.000
770.5860, 5182.000
771.7300, 5291.000
772.8740, 5450.000
774.0170, 5517.000
775.1610, 5608.000
776.3040, 5777.000
777.4470, 6104.000
778.5900, 6280.000
779.7320, 6625.000
780.8750, 6862.000
782.0170, 7080.000
783.1590, 7454.000
784.3010, 7795.000
785.4430, 8102.000
786.5850, 8398.000
787.7260, 8982.000
788.8680, 9306.000
790.0090, 9961.000
791.1500, 10482.00
792.2910, 10908.00
793.4310, 11546.00
794.5720, 12069.00
795.7120, 12385.00
796.8520, 12830.00
797.9920, 12992.00
799.1320, 13162.00
800.2720, 12995.00
801.4120, 12821.00
802.5510, 12523.00
803.6900, 12080.00
804.8290, 11731.00
805.9680, 11340.00
807.1070, 10819.00
808.2450, 10478.00
809.3840, 10007.00
810.5220, 9577.000
811.6600, 9197.000
812.7980, 9001.000
813.9360, 8769.000
815.0730, 8576.000
816.2110, 8344.000
817.3480, 8283.000
818.4850, 8190.000
819.6220, 8248.000
820.7590, 8134.000
821.8960, 8183.000
823.0320, 8210.000
824.1680, 8284.000
825.3040, 8482.000
826.4400, 8488.000
827.5760, 8862.000
828.7120, 9085.000
829.8470, 9377.000
830.9830, 9516.000
832.1180, 9852.000
833.2530, 10180.00
834.3880, 10619.00
835.5220, 11013.00
836.6570, 11266.00
837.7910, 11567.00
838.9250, 11800.00
840.0590, 12046.00
841.1930, 12138.00
842.3270, 12295.34
843.4600, 12461.00
844.5940, 12390.00
845.7270, 12487.00
846.8600, 12337.00
847.9930, 12192.00
849.1250, 12006.00
850.2580, 11791.00
851.3900, 11680.00
852.5230, 11244.00
853.6550, 11088.00
854.7870, 10722.00
855.9180, 10552.00
857.0500, 10404.00
858.1810, 10282.00
859.3130, 10066.83
860.4440, 9772.000
861.5750, 9695.000
862.7050, 9569.000
863.8360, 9479.000
864.9660, 9431.000
866.0970, 9352.000
867.2270, 9280.000
868.3570, 9133.000
869.4870, 9092.000
870.6160, 8991.000
871.7460, 9035.000
872.8750, 9048.000
874.0040, 9250.000
875.1330, 9481.000
876.2620, 9803.000
877.3910, 10107.00
878.5190, 10642.00
879.6470, 11093.00
880.7760, 11939.00
881.9040, 12691.00
883.0310, 13564.00
884.1590, 14507.00
885.2870, 15401.00
886.4140, 16729.00
887.5410, 17784.00
888.6680, 18835.00
889.7950, 19798.00
890.9220, 20641.00
892.0480, 21691.00
893.1750, 22713.00
894.3010, 23739.00
895.4270, 24993.00
896.5530, 26239.00
897.6790, 27804.00
898.8040, 28826.00
899.9300, 30613.00
901.0550, 31825.00
902.1800, 32989.00
903.3050, 34146.00
904.4300, 35012.00
905.5540, 35054.00
906.6790, 34997.00
907.8030, 35002.00
908.9270, 34007.00
910.0510, 33568.00
911.1750, 32902.00
912.2990, 31729.00
913.4220, 31037.00
914.5450, 30254.00
915.6690, 29275.00
916.7920, 28577.00
917.9140, 27875.00
919.0370, 27554.00
920.1600, 27276.00
921.2820, 27027.00
922.4040, 27078.00
923.5260, 27078.00
924.6480, 27289.00
925.7700, 26734.00
926.8910, 27107.00
928.0130, 26913.00
929.1340, 26501.00
930.2550, 25927.00
931.3760, 25447.00
932.4970, 24629.00
933.6170, 23849.00
934.7380, 22854.00
935.8580, 21884.00
936.9780, 21008.00
938.0980, 20081.00
939.2180, 19483.00
940.3370, 18923.00
941.4570, 18191.00
942.5760, 17842.00
943.6950, 17452.00
944.8140, 17245.00
945.9330, 16920.00
947.0520, 17210.00
948.1700, 17330.00
949.2890, 17158.00
950.4070, 17546.00
951.5250, 17404.00
952.6430, 17677.00
953.7600, 17776.00
954.8780, 17789.00
955.9950, 17585.00
957.1120, 17648.00
958.2290, 17267.00
959.3460, 16999.00
960.4630, 16679.00
961.5800, 16178.00
962.6960, 15886.00
963.8120, 15329.00
964.9280, 14978.00
966.0440, 14604.00
967.1600, 14238.00
968.2760, 13999.00
969.3910, 13757.00
970.5060, 13558.00
971.6210, 13335.00
972.7360, 13250.65
973.8510, 13195.00
974.9660, 13100.00
976.0800, 12955.00
977.1950, 12826.00
978.3090, 12685.00
979.4230, 12611.00
980.5370, 12705.00
981.6500, 12604.00
982.7640, 12706.00
983.8770, 12901.00
984.9900, 12904.00
986.1030, 12970.00
987.2160, 13409.00
988.3290, 13493.00
989.4420, 13757.00
990.5540, 14021.00
991.6660, 14288.00
992.7780, 14395.35
993.8900, 14545.40
995.0020, 14547.00
996.1140, 14636.00
997.2250, 14657.00
998.3360, 14561.00
999.4470, 14340.00
1000.558, 14173.00
1001.669, 13852.00
1002.780, 13360.00
1003.890, 13081.00
1005.001, 12824.00
1006.111, 12242.00
1007.221, 11937.00
1008.331, 11637.00
1009.440, 11238.00
1010.550, 10902.14
1011.659, 10487.00
1012.768, 10161.00
1013.877, 9822.000
1014.986, 9475.000
1016.095, 9192.111
1017.204, 8987.000
1018.312, 8663.000
1019.420, 8442.000
1020.528, 8262.000
1021.636, 7941.000
1022.744, 7801.000
1023.852, 7705.000
1024.959, 7524.000
1026.066, 7354.000
1027.173, 7180.000
1028.280, 6916.000
1029.387, 6861.000
1030.494, 6599.000
1031.600, 6552.000
1032.707, 6423.000
1033.813, 6360.000
1034.919, 6336.000
1036.025, 6192.000
1037.130, 6023.000
1038.236, 5873.000
1039.341, 5796.000
1040.446, 5707.000
1041.552, 5520.000
1042.656, 5497.000
1043.761, 5241.000
1044.866, 5277.000
1045.970, 5152.000
1047.074, 5060.000
1048.179, 4976.000
1049.282, 4892.000
1050.386, 4854.000
1051.490, 4687.000
1052.593, 4651.000
1053.697, 4525.000
1054.800, 4522.000
1055.903, 4401.000
1057.006, 4332.000
1058.108, 4394.000
1059.211, 4368.000
1060.313, 4185.000
1061.415, 4141.000
1062.517, 4083.000
1063.619, 4056.000
1064.721, 3977.000
1065.823, 3903.000
1066.924, 3843.000
1068.025, 3769.000
1069.126, 3804.000
1070.227, 3717.000
1071.328, 3687.267
1072.429, 3704.000
1073.529, 3598.000
1074.629, 3535.000
1075.729, 3498.000
1076.829, 3480.000
1077.929, 3406.000
1079.029, 3348.069
1080.128, 3264.548
1081.228, 3181.000
1082.327, 3079.000
1083.426, 2967.000
1084.525, 2893.000
1085.623, 2795.000
1086.722, 2654.000
1087.820, 2598.000
1088.919, 2544.000
1090.017, 2500.000
1091.115, 2453.026
1092.212, 2410.335
1093.310, 2367.000
1094.407, 2332.000
1095.505, 2284.000
1096.602, 2249.000
1097.699, 2225.000
1098.795, 2183.000
1099.892, 2190.000
1100.989, 2156.000
1102.085, 2199.000
1103.181, 2178.000
1104.277, 2123.000
1105.373, 2168.000
1106.469, 2074.000
1107.564, 2066.000
1108.660, 2154.000
1109.755, 2188.000
1110.850, 2121.000
1111.945, 2081.000
1113.040, 2094.000
1114.134, 2117.000
1115.229, 2105.000
1116.323, 2138.000
1117.417, 2233.000
1118.511, 2269.000
1119.605, 2285.000
1120.698, 2320.000
1121.792, 2354.000
1122.885, 2326.000
1123.978, 2324.000
1125.071, 2259.000
1126.164, 2185.000
1127.257, 2211.000
1128.349, 2142.000
1129.442, 2071.000
1130.534, 2015.000
1131.626, 2035.000
1132.718, 2043.000
1133.810, 2023.000
1134.901, 1997.000
1135.993, 2019.000
1137.084, 1975.000
1138.175, 1980.000
1139.266, 2031.000
1140.357, 1985.000
1141.448, 2013.000
1142.538, 2009.000
1143.628, 1994.000
1144.719, 1975.000
1145.809, 2011.000
1146.898, 1958.000
1147.988, 1947.000
1149.078, 2058.000
1150.167, 2001.000
1151.256, 1966.000
1152.345, 2016.000
1153.434, 1991.000
1154.523, 1980.000
1155.612, 1957.000
1156.700, 2009.000
1157.788, 1956.000
1158.877, 2025.000
1159.964, 2051.000
1161.052, 1993.000
1162.140, 1985.000
1163.227, 2001.000
1164.315, 2008.000
1165.402, 1956.000
1166.489, 2025.000
1167.576, 2004.000
1168.663, 2020.000
1169.749, 1977.000
1170.836, 2001.000
1171.922, 1990.000
1173.008, 2020.000
1174.094, 2048.000
1175.180, 1981.000
1176.265, 2039.000
1177.351, 1976.000
1178.436, 1957.000
1179.521, 1988.000
1180.606, 1934.000
1181.691, 1994.000
1182.776, 2008.000
1183.860, 2001.000
1184.944, 1930.000
1186.029, 2005.000
1187.113, 2004.000
1188.197, 1981.000
1189.280, 2028.000
1190.364, 2014.000
1191.447, 2015.000
1192.531, 1955.000
1193.614, 1948.000
1194.697, 1979.000
1195.779, 1998.000
1196.862, 2000.000
1197.945, 2006.000
1199.027, 1941.000
1200.109, 1968.000
1201.191, 1931.000
1202.273, 1956.000
1203.355, 1994.000
1204.436, 1992.000
1205.518, 2010.000
1206.599, 1939.000
1207.680, 2008.000
1208.761, 1946.000
1209.842, 2015.000
1210.922, 2004.000
1212.003, 1958.000
1213.083, 1955.000
1214.163, 1983.000
1215.243, 1920.000
1216.323, 2000.000
1217.402, 1964.000
1218.482, 1964.000
1219.561, 1963.000
1220.641, 1982.000
1221.720, 1960.000
1222.798, 1971.000
1223.877, 1985.000
1224.956, 1962.000
1226.034, 1974.265
1227.112, 1957.000
1228.191, 1975.000
1229.269, 1966.000
1230.346, 1970.000
1231.424, 1958.000
1232.501, 1940.000
1233.579, 1993.000
1234.656, 1970.000
1235.733, 1951.000
1236.810, 1921.000
1237.886, 1951.000
1238.963, 1956.000
1240.039, 1924.000
1241.116, 1974.000
1242.192, 1929.000
1243.268, 1932.000
1244.343, 1963.000
1245.419, 1924.000
1246.494, 1969.000
1247.570, 1979.000
1248.645, 1933.000
1249.720, 1971.000
1250.795, 1930.000
1251.869, 1985.000
1252.944, 2001.000
1254.018, 1921.000
1255.093, 1977.000
1256.167, 1939.000
1257.240, 1966.000
1258.314, 1955.000
1259.388, 1941.000
1260.461, 1919.000
1261.535, 1927.000
1262.608, 1926.000
1263.681, 1925.008
1264.753, 1951.000
1265.826, 1935.000
1266.899, 1952.000
1267.971, 1960.000
1269.043, 1935.000
1270.115, 1920.000
1271.187, 1938.000
1272.259, 1955.000
1273.330, 1974.000
1274.402, 1977.102
1275.473, 1953.000
1276.544, 1975.000
1277.615, 1951.205
1278.686, 1936.000
1279.756, 1940.000
1280.827, 1943.000
1281.897, 1949.000
1282.967, 1922.000
1284.037, 1885.000
1285.107, 1900.000
1286.177, 1892.000
1287.247, 1888.000
1288.316, 1948.000
1289.385, 1936.068
1290.454, 1889.000
1291.523, 1939.000
1292.592, 1951.000
1293.661, 1907.000
1294.729, 1980.000
1295.797, 1910.000
1296.866, 1906.000
1297.934, 1951.000
1299.001, 1942.000
1300.069, 1949.000
1301.137, 1944.000
1302.204, 1943.263
1303.271, 1941.656
1304.338, 1936.000
1305.405, 1943.000
1306.472, 1928.000
1307.539, 1946.000
1308.605, 1950.000
1309.671, 1914.000
1310.737, 1923.000
1311.803, 1870.000
1312.869, 1920.000
1313.935, 1952.000
1315.000, 1936.000
1316.066, 1970.000
1317.131, 1961.000
1318.196, 1972.000
1319.261, 1921.000
1320.326, 1943.000
1321.390, 1938.723
1322.455, 1943.000
1323.519, 1957.000
1324.583, 1964.000
1325.647, 1963.365
1326.711, 1970.000
1327.775, 1958.000
1328.838, 1948.000
1329.902, 1941.000
1330.965, 1925.000
1332.028, 1983.000
1333.091, 1934.000
1334.153, 1881.000
1335.216, 1917.000
1336.279, 1956.000
1337.341, 1937.000
1338.403, 1982.000
1339.465, 1946.000
1340.527, 1959.000
1341.588, 1977.000
1342.650, 1918.000
1343.711, 1884.000
1344.772, 1925.000
1345.834, 1931.000
1346.894, 1948.000
1347.955, 1956.160
1349.016, 1876.000
1350.076, 1952.000
1351.136, 1936.000
1352.197, 1920.000
1353.257, 1961.000
1354.316, 1967.000
1355.376, 1954.000
1356.436, 1930.000
1357.495, 1969.000
1358.554, 1953.000
1359.613, 1922.000
1360.672, 1901.000
1361.731, 1943.000
1362.789, 1958.000
1363.848, 1928.000
1364.906, 1953.000
1365.964, 1942.000
1367.022, 1917.000
1368.080, 1915.000
1369.138, 1932.000
1370.195, 1939.000
1371.253, 1917.000
1372.310, 1916.000
1373.367, 1913.000
1374.424, 1935.000
1375.480, 1929.000
1376.537, 1927.895
1377.593, 1938.000
1378.650, 1908.000
1379.706, 1921.000
1380.762, 1896.000
1381.818, 1937.000
1382.873, 1975.000
1383.929, 1942.000
1384.984, 1936.000
1386.039, 1902.000
1387.094, 1931.000
1388.149, 1950.000
1389.204, 1912.000
1390.259, 1901.000
1391.313, 1936.000
1392.367, 1887.000
1393.422, 1897.000
1394.476, 1892.000
1395.529, 1941.000
1396.583, 1957.000
1397.637, 1913.000
1398.690, 1944.000
1399.743, 1935.000
1400.796, 1907.000
1401.849, 1925.000
1402.902, 1928.000
1403.954, 1892.000
1405.007, 1907.000
1406.059, 1914.000
1407.111, 1880.000
1408.163, 1962.000
1409.215, 1961.000
1410.267, 1926.000
1411.318, 1941.000
1412.370, 1902.000
1413.421, 1924.000
1414.472, 1945.000
1415.523, 1946.000
1416.574, 1930.000
1417.624, 1914.000
1418.675, 1928.000
1419.725, 1940.000
1420.775, 1922.000
1421.825, 1893.000
1422.875, 1947.000
1423.925, 1885.000
1424.974, 1893.000
1426.024, 1911.000
1427.073, 1923.000
1428.122, 1910.000
1429.171, 1943.000
1430.220, 1972.000
1431.268, 1944.000
1432.317, 1926.000
1433.365, 1904.000
1434.413, 1944.000
1435.461, 1958.000
1436.509, 1937.000
1437.557, 1896.000
1438.605, 1904.000
1439.652, 1967.000
1440.699, 1909.000
1441.746, 1942.000
1442.793, 1891.000
1443.840, 1958.000
1444.887, 1980.000
1445.933, 1964.000
1446.980, 1948.000
1448.026, 1899.000
1449.072, 1890.000
1450.118, 1959.000
1451.163, 1888.000
1452.209, 1884.000
1453.254, 1964.000
1454.300, 1946.000
1455.345, 1956.000
1456.390, 1979.000
1457.435, 1876.000
1458.479, 1917.000
1459.524, 1938.000
1460.568, 1880.000
1461.612, 1958.000
1462.656, 1888.000
1463.700, 1943.000
1464.744, 1916.000
1465.788, 1922.000
1466.831, 1949.000
1467.874, 1971.000
1468.918, 1875.000
1469.961, 1959.000
1471.003, 1932.000
1472.046, 1927.000
1473.089, 1996.000
1474.131, 1920.000
1475.173, 1958.000
1476.215, 1936.000
1477.257, 1948.000
1478.299, 1939.000
1479.341, 1929.000
1480.382, 1936.000
1481.424, 1958.000
1482.465, 1938.000
1483.506, 1993.000
1484.547, 1956.000
1485.587, 1903.000
1486.628, 1934.000
1487.668, 1951.000
1488.709, 1937.000
1489.749, 1954.000
1490.789, 1944.000
1491.828, 1952.000
1492.868, 1949.000
1493.908, 1930.000
1494.947, 1913.000
1495.986, 1950.000
1497.025, 1988.000
1498.064, 1940.000
1499.103, 1937.000
1500.141, 1921.000
1501.180, 1918.376
1502.218, 1922.000
1503.256, 1945.000
1504.294, 1956.000
1505.332, 1963.896
1506.370, 1956.000
1507.407, 1974.000
1508.445, 1962.000
1509.482, 1952.728
1510.519, 1975.000
1511.556, 1943.000
1512.593, 1945.000
1513.629, 1942.000
1514.666, 1938.000
1515.702, 1942.000
1516.738, 1965.000
1517.774, 1954.000
1518.810, 1974.000
1519.846, 1932.000
1520.882, 1954.000
1521.917, 1960.000
1522.952, 1982.000
1523.987, 1967.000
1525.022, 1949.000
1526.057, 1968.000
1527.092, 1980.000
1528.126, 1982.000
1529.161, 1952.000
1530.195, 1997.000
1531.229, 1924.000
1532.263, 1941.000
1533.297, 1935.000
1534.330, 1978.000
1535.364, 1927.000
1536.397, 1946.000
1537.430, 1955.000
1538.463, 1948.000
1539.496, 1936.000
1540.529, 1957.000
1541.561, 1985.000
1542.594, 2051.000
1543.626, 1927.000
1544.658, 1975.000
1545.690, 1950.000
1546.722, 2014.000
1547.753, 1999.000
1548.785, 1990.000
1549.816, 1982.000
1550.847, 2023.000
1551.878, 2016.000
1552.909, 2057.000
1553.940, 2011.000
1554.971, 2104.000
1556.001, 1990.000
1557.031, 1992.000
1558.062, 2038.000
1559.092, 1965.000
1560.121, 1953.000
1561.151, 1973.000
1562.181, 1935.000
1563.210, 1978.000
1564.239, 2076.000
##END=



