##NAMES=Gehlenite
##RRUFFID=R061091
##IDEAL CHEMISTRY=Ca_2_Al(SiAl)O_7_
##LOCALITY=Carneal Plug, Glenoe Larne District, County Antrim, Northern Ireland
##OWNER=RRUFF
##SOURCE=Michael Scott
##DESCRIPTION=Yellowish-brown anhedral blebs associated with black magnetite and white wollastonite
##STATUS=The identification of this mineral is confirmed by single-crystal X-ray diffraction and chemical analysis.
##URL=rruff.info/R061091
##MEASURED CHEMISTRY=(Ca_1.64_Na_0.36_)_Σ=2_(Al_0.38_Fe_0.36_Mg_0.26_)_Σ=1_(Si_1.98_Al_0.02_)_Σ=2_O_7_
##PIN_ID=M01302
##ORIENTATION=Laser parallel to a* (1 0 0). Fiducial mark perpendicular to laser is parallel to -c [0 0 -1]
96.13500, 26565.00
97.36600, 25810.00
98.59700, 25869.00
99.82800, 25827.00
101.0590, 25558.00
102.2900, 25337.00
103.5200, 25358.00
104.7500, 25705.00
105.9810, 26183.00
107.2110, 26557.00
108.4410, 26227.00
109.6700, 26162.00
110.9000, 25529.00
112.1300, 25524.00
113.3590, 25811.00
114.5880, 26049.00
115.8170, 27616.00
117.0460, 28121.00
118.2750, 28676.00
119.5040, 28835.00
120.7320, 32610.00
121.9610, 39530.00
123.1890, 43680.00
124.4170, 45347.00
125.6450, 38152.00
126.8730, 29683.00
128.1010, 25795.00
129.3280, 24615.00
130.5560, 24322.00
131.7830, 23841.00
133.0100, 23553.95
134.2380, 23666.57
135.4640, 23715.90
136.6910, 23705.26
137.9180, 23455.16
139.1440, 23514.30
140.3710, 23449.50
141.5970, 23379.64
142.8230, 23482.30
144.0490, 23267.05
145.2750, 23366.98
146.5000, 23196.87
147.7260, 23370.00
148.9510, 23181.00
150.1770, 23274.00
151.4020, 23344.00
152.6270, 23209.00
153.8520, 23286.00
155.0760, 23242.36
156.3010, 23163.00
157.5250, 23223.00
158.7500, 23297.00
159.9740, 23348.00
161.1980, 23414.00
162.4220, 23348.00
163.6450, 23625.73
164.8690, 23640.92
166.0920, 23925.00
167.3160, 23818.00
168.5390, 23461.00
169.7620, 23424.00
170.9850, 23188.00
172.2080, 23075.28
173.4300, 22979.00
174.6530, 22974.00
175.8750, 23018.00
177.0970, 23144.00
178.3190, 23117.00
179.5410, 23072.59
180.7630, 23118.00
181.9850, 22951.00
183.2060, 22953.00
184.4270, 22960.93
185.6490, 23085.12
186.8700, 23162.84
188.0910, 23196.61
189.3110, 23054.75
190.5320, 23139.66
191.7530, 23133.70
192.9730, 23124.00
194.1930, 23240.82
195.4130, 23324.00
196.6330, 23403.00
197.8530, 23511.00
199.0730, 23459.00
200.2920, 23638.00
201.5120, 23742.00
202.7310, 24004.00
203.9500, 24119.38
205.1690, 24135.00
206.3880, 24428.00
207.6070, 24513.00
208.8250, 24679.00
210.0440, 25290.00
211.2620, 25766.00
212.4800, 25974.07
213.6980, 26002.00
214.9160, 26480.00
216.1340, 26732.00
217.3510, 26852.87
218.5690, 27315.20
219.7860, 27660.46
221.0030, 27892.31
222.2200, 27831.24
223.4370, 28025.94
224.6540, 28043.25
225.8700, 28002.06
227.0870, 28079.95
228.3030, 28108.00
229.5190, 27876.00
230.7350, 27976.00
231.9510, 27779.00
233.1670, 27423.00
234.3820, 27331.00
235.5980, 27051.00
236.8130, 26730.00
238.0280, 26568.00
239.2430, 26287.50
240.4580, 26116.00
241.6730, 25898.00
242.8880, 25750.00
244.1020, 25527.83
245.3160, 25318.00
246.5300, 25143.00
247.7450, 24840.00
248.9580, 24725.00
250.1720, 24642.00
251.3860, 24337.00
252.5990, 24348.00
253.8130, 24241.00
255.0260, 24134.00
256.2390, 24130.00
257.4520, 23880.00
258.6640, 23879.00
259.8770, 23809.00
261.0890, 23849.00
262.3020, 23844.67
263.5140, 23554.00
264.7260, 23876.00
265.9380, 23651.00
267.1500, 23500.20
268.3610, 23773.05
269.5730, 23982.66
270.7840, 24132.23
271.9950, 24042.33
273.2060, 24261.66
274.4170, 24357.06
275.6280, 24447.38
276.8390, 24710.22
278.0490, 24880.00
279.2590, 24904.00
280.4690, 25148.00
281.6800, 25541.00
282.8890, 25822.00
284.0990, 26257.00
285.3090, 26660.00
286.5180, 26989.00
287.7280, 27550.00
288.9370, 28228.00
290.1460, 28670.00
291.3550, 29366.00
292.5630, 30167.00
293.7720, 30484.00
294.9800, 31229.00
296.1890, 31794.00
297.3970, 32433.00
298.6050, 33039.00
299.8130, 33793.00
301.0200, 33799.00
302.2280, 34385.00
303.4360, 34300.16
304.6430, 34428.57
305.8500, 34581.34
307.0570, 34545.04
308.2640, 34323.06
309.4710, 33735.89
310.6770, 33332.67
311.8840, 32582.00
313.0900, 31651.00
314.2960, 30066.00
315.5020, 29403.00
316.7080, 28532.00
317.9140, 27836.00
319.1190, 26810.00
320.3250, 26414.00
321.5300, 25775.00
322.7350, 24943.00
323.9400, 24504.00
325.1450, 23902.00
326.3500, 23520.00
327.5540, 22996.03
328.7580, 22610.00
329.9630, 22044.00
331.1670, 21687.00
332.3710, 21269.00
333.5750, 21055.00
334.7780, 20555.00
335.9820, 20321.00
337.1850, 20133.00
338.3880, 19798.00
339.5920, 19504.00
340.7950, 19519.00
341.9970, 19125.00
343.2000, 18810.00
344.4030, 18756.00
345.6050, 18311.00
346.8070, 18341.00
348.0090, 18075.00
349.2110, 18054.00
350.4130, 17847.00
351.6150, 17770.00
352.8160, 17475.00
354.0170, 17470.00
355.2190, 17149.00
356.4200, 17070.95
357.6210, 17118.79
358.8210, 17103.38
360.0220, 17027.94
361.2220, 16713.11
362.4230, 16707.42
363.6230, 16577.90
364.8230, 16443.29
366.0230, 16481.21
367.2230, 16201.22
368.4220, 16236.48
369.6220, 16145.85
370.8210, 16112.88
372.0200, 15955.23
373.2190, 15836.08
374.4180, 15841.67
375.6170, 15778.19
376.8150, 15555.00
378.0140, 15636.00
379.2120, 15460.00
380.4100, 15299.00
381.6080, 15351.00
382.8060, 15285.00
384.0040, 15440.00
385.2010, 15260.00
386.3980, 15066.00
387.5960, 15241.00
388.7930, 15191.00
389.9900, 15204.00
391.1870, 15177.00
392.3830, 15186.50
393.5800, 15182.98
394.7760, 15204.00
395.9720, 15191.00
397.1680, 15169.45
398.3640, 15190.43
399.5600, 15240.00
400.7560, 15102.00
401.9510, 15278.00
403.1460, 15143.00
404.3420, 15251.49
405.5370, 15482.00
406.7320, 15461.00
407.9260, 15326.00
409.1210, 15477.00
410.3150, 15385.00
411.5100, 15345.00
412.7040, 15329.00
413.8980, 15439.00
415.0920, 15424.00
416.2850, 15556.00
417.4790, 15538.00
418.6720, 15464.00
419.8650, 15480.00
421.0590, 15532.00
422.2510, 15646.00
423.4440, 15731.01
424.6370, 15747.00
425.8290, 15968.00
427.0220, 15956.49
428.2140, 16039.34
429.4060, 15972.00
430.5980, 16226.00
431.7900, 16299.00
432.9810, 16245.00
434.1730, 16490.00
435.3640, 16695.00
436.5550, 16782.00
437.7460, 16972.00
438.9370, 17338.00
440.1280, 17452.00
441.3190, 17878.00
442.5090, 17959.00
443.6990, 18282.00
444.8890, 18562.00
446.0790, 18900.00
447.2690, 19164.00
448.4590, 19585.00
449.6480, 19692.00
450.8380, 20062.00
452.0270, 20143.00
453.2160, 20237.00
454.4050, 20478.00
455.5940, 20556.00
456.7820, 20701.00
457.9710, 20546.00
459.1590, 20653.00
460.3470, 20871.00
461.5350, 20748.42
462.7230, 20960.00
463.9110, 20795.00
465.0990, 20719.00
466.2860, 20937.00
467.4730, 20893.00
468.6600, 21175.00
469.8470, 21471.00
471.0340, 21384.00
472.2210, 21731.00
473.4070, 21756.00
474.5940, 21856.95
475.7800, 22085.24
476.9660, 22250.18
478.1520, 22355.19
479.3380, 22220.74
480.5230, 22395.43
481.7090, 22446.28
482.8940, 22491.97
484.0790, 22710.19
485.2650, 22588.00
486.4490, 22494.00
487.6340, 22347.00
488.8190, 22113.58
490.0030, 22239.00
491.1870, 21701.00
492.3720, 21395.00
493.5550, 21559.00
494.7390, 21272.00
495.9230, 21030.00
497.1060, 20961.34
498.2900, 20886.00
499.4730, 20660.00
500.6560, 20708.00
501.8390, 20679.00
503.0220, 20659.00
504.2040, 20510.00
505.3870, 20533.72
506.5690, 20531.29
507.7510, 20570.00
508.9330, 20565.00
510.1150, 20728.00
511.2970, 20669.00
512.4780, 20700.00
513.6600, 20762.00
514.8410, 20666.00
516.0220, 20724.00
517.2030, 20876.00
518.3840, 20779.00
519.5650, 20796.00
520.7450, 21157.00
521.9250, 20946.22
523.1060, 21027.15
524.2860, 20726.00
525.4660, 20989.00
526.6450, 20754.00
527.8250, 20858.00
529.0040, 20666.00
530.1840, 20707.00
531.3630, 20448.00
532.5420, 20477.00
533.7200, 20402.00
534.8990, 20317.03
536.0780, 20133.00
537.2560, 20084.14
538.4340, 20212.49
539.6120, 20277.50
540.7900, 20282.57
541.9680, 20048.18
543.1460, 20123.00
544.3230, 20073.92
545.5000, 20019.76
546.6770, 20138.12
547.8540, 19938.57
549.0310, 20054.20
550.2080, 20044.01
551.3840, 20091.42
552.5610, 20014.13
553.7370, 19975.36
554.9130, 20061.32
556.0890, 19856.00
557.2650, 19777.00
558.4400, 19928.00
559.6160, 20074.00
560.7910, 19795.00
561.9660, 19976.00
563.1410, 19967.00
564.3160, 19834.00
565.4910, 20021.00
566.6650, 19752.00
567.8400, 19845.00
569.0140, 19717.00
570.1880, 19995.00
571.3620, 19844.00
572.5360, 19954.00
573.7090, 19794.00
574.8830, 19755.00
576.0560, 19636.00
577.2290, 19874.00
578.4020, 19902.00
579.5750, 19995.00
580.7480, 19759.72
581.9200, 20130.72
583.0930, 20446.19
584.2650, 20708.69
585.4370, 20760.46
586.6090, 21084.35
587.7810, 21299.19
588.9520, 21509.35
590.1240, 21871.53
591.2950, 21953.74
592.4660, 22313.31
593.6370, 22562.17
594.8080, 22861.69
595.9790, 23251.00
597.1500, 23538.00
598.3200, 24198.00
599.4900, 24550.00
600.6600, 25194.00
601.8300, 25808.00
603.0000, 26418.00
604.1700, 27037.00
605.3390, 27921.00
606.5080, 28966.00
607.6770, 29747.00
608.8460, 31082.00
610.0150, 32281.00
611.1840, 33659.00
612.3520, 35325.00
613.5210, 37446.00
614.6890, 39587.77
615.8570, 42387.00
617.0250, 45210.00
618.1930, 48144.00
619.3600, 52471.00
620.5280, 56634.00
621.6950, 61825.00
622.8620, 66320.00
624.0290, 70933.00
625.1960, 76246.00
626.3630, 80981.00
627.5290, 85022.00
628.6960, 87516.00
629.8620, 89201.00
631.0280, 89433.00
632.1940, 87461.00
633.3600, 84800.00
634.5250, 80680.00
635.6910, 76811.00
636.8560, 71307.00
638.0210, 66546.00
639.1860, 62053.00
640.3510, 58790.00
641.5150, 55773.00
642.6800, 53846.00
643.8440, 53128.00
645.0080, 53265.00
646.1720, 54223.00
647.3360, 56128.00
648.5000, 59003.00
649.6640, 62762.00
650.8270, 67164.00
651.9900, 71574.00
653.1530, 78286.00
654.3160, 84770.00
655.4790, 86909.00
656.6420, 91682.00
657.8040, 96069.00
658.9660, 99211.00
660.1290, 102355.0
661.2910, 104082.0
662.4520, 105088.0
663.6140, 104882.0
664.7760, 104064.0
665.9370, 101392.0
667.0980, 98563.00
668.2590, 94604.00
669.4200, 90643.00
670.5810, 85426.00
671.7420, 81654.00
672.9020, 76014.00
674.0620, 70793.00
675.2220, 66215.00
676.3820, 61273.00
677.5420, 57269.00
678.7020, 53420.00
679.8610, 49978.00
681.0210, 46936.00
682.1800, 43965.00
683.3390, 41561.00
684.4980, 39344.00
685.6560, 37140.00
686.8150, 35383.00
687.9730, 33716.00
689.1320, 32372.00
690.2900, 30975.00
691.4480, 29996.00
692.6050, 28960.00
693.7630, 27786.00
694.9200, 26947.00
696.0780, 26129.85
697.2350, 25580.00
698.3920, 24880.00
699.5490, 24483.00
700.7050, 24179.00
701.8620, 23565.00
703.0180, 23355.00
704.1740, 22811.00
705.3300, 22647.00
706.4860, 22222.00
707.6420, 21937.00
708.7970, 21670.00
709.9530, 21523.00
711.1080, 21526.00
712.2630, 21273.00
713.4180, 20987.00
714.5730, 20981.00
715.7280, 20610.00
716.8820, 20503.00
718.0360, 20395.00
719.1900, 20266.00
720.3440, 20144.00
721.4980, 19988.20
722.6520, 19823.00
723.8050, 19734.00
724.9590, 19687.00
726.1120, 19726.00
727.2650, 19633.00
728.4180, 19680.00
729.5700, 19575.00
730.7230, 19586.00
731.8750, 19713.00
733.0280, 19431.00
734.1800, 19614.00
735.3320, 19550.00
736.4830, 19405.00
737.6350, 19489.00
738.7860, 19330.00
739.9380, 19389.00
741.0890, 19340.00
742.2400, 19210.00
743.3910, 19304.00
744.5410, 19315.00
745.6920, 19306.76
746.8420, 19336.62
747.9920, 19329.91
749.1420, 19289.33
750.2920, 19073.82
751.4420, 19114.48
752.5910, 19071.01
753.7410, 19036.74
754.8900, 18697.00
756.0390, 18541.00
757.1880, 18345.00
758.3370, 18062.00
759.4850, 18007.00
760.6340, 17595.00
761.7820, 17470.00
762.9300, 17363.00
764.0780, 17196.00
765.2260, 17008.36
766.3730, 16876.96
767.5210, 16719.00
768.6680, 16568.34
769.8150, 16383.00
770.9620, 16227.00
772.1090, 16064.00
773.2560, 15988.00
774.4020, 15967.00
775.5490, 15810.00
776.6950, 15708.00
777.8410, 15926.00
778.9870, 15798.18
780.1330, 15796.00
781.2780, 15751.00
782.4230, 15957.00
783.5690, 15825.00
784.7140, 15969.02
785.8590, 16082.74
787.0030, 16140.74
788.1480, 16145.97
789.2920, 15940.48
790.4370, 16007.10
791.5810, 15964.67
792.7250, 15917.78
793.8690, 16175.00
795.0120, 16247.79
796.1560, 16243.43
797.2990, 16024.25
798.4420, 16235.66
799.5850, 16330.94
800.7280, 16316.33
801.8710, 15862.71
803.0130, 15890.00
804.1550, 15834.00
805.2980, 15868.00
806.4400, 15820.99
807.5810, 15972.00
808.7230, 15909.00
809.8650, 16050.00
811.0060, 16259.00
812.1470, 16136.00
813.2880, 16281.00
814.4290, 16301.00
815.5700, 16315.00
816.7110, 16425.00
817.8510, 16451.00
818.9910, 16665.00
820.1310, 16561.00
821.2710, 16578.00
822.4110, 16882.00
823.5510, 16978.00
824.6900, 17017.00
825.8290, 17152.00
826.9680, 17114.00
828.1070, 17342.00
829.2460, 17437.00
830.3850, 17656.00
831.5230, 17722.00
832.6620, 17900.00
833.8000, 18065.00
834.9380, 18391.00
836.0760, 18635.00
837.2130, 18917.00
838.3510, 19054.00
839.4880, 19214.00
840.6250, 19706.00
841.7620, 20075.00
842.8990, 20334.00
844.0360, 20876.00
845.1720, 21164.00
846.3090, 21805.00
847.4450, 22187.00
848.5810, 22692.03
849.7170, 23440.00
850.8530, 23644.00
851.9880, 24322.00
853.1240, 24668.00
854.2590, 24827.00
855.3940, 25327.00
856.5290, 26066.00
857.6640, 26045.00
858.7980, 26182.00
859.9330, 26266.50
861.0670, 26061.69
862.2010, 25979.00
863.3350, 25562.00
864.4690, 25191.00
865.6030, 24778.00
866.7360, 24548.00
867.8690, 23833.74
869.0020, 23811.70
870.1350, 23726.31
871.2680, 23580.99
872.4010, 23196.19
873.5330, 23120.76
874.6660, 22921.25
875.7980, 23353.00
876.9300, 22937.07
878.0620, 23563.48
879.1930, 24126.11
880.3250, 24629.23
881.4560, 24892.44
882.5870, 25173.00
883.7180, 25846.00
884.8490, 26321.00
885.9800, 26914.00
887.1100, 27426.00
888.2410, 28312.00
889.3710, 29136.00
890.5010, 30107.00
891.6310, 30927.00
892.7610, 31804.00
893.8900, 33188.00
895.0200, 34463.00
896.1490, 35972.00
897.2780, 37302.00
898.4070, 39294.00
899.5360, 41373.00
900.6640, 43118.00
901.7920, 45811.00
902.9210, 48515.00
904.0490, 51374.00
905.1770, 55262.00
906.3040, 59817.00
907.4320, 63252.00
908.5600, 67566.00
909.6870, 72664.00
910.8140, 77074.00
911.9410, 82403.00
913.0680, 88215.00
914.1940, 94557.00
915.3210, 99954.00
916.4470, 105157.0
917.5730, 111031.0
918.6990, 115211.0
919.8250, 118643.0
920.9500, 119820.0
922.0760, 120007.0
923.2010, 118073.0
924.3260, 115383.0
925.4510, 111710.0
926.5760, 106175.0
927.7010, 101075.0
928.8250, 95301.00
929.9500, 89601.00
931.0740, 83864.00
932.1980, 78836.00
933.3220, 74136.00
934.4450, 69981.00
935.5690, 65992.00
936.6920, 62853.00
937.8150, 59946.00
938.9380, 56402.00
940.0610, 53934.00
941.1840, 51413.00
942.3060, 49270.00
943.4290, 48148.00
944.5510, 45992.00
945.6730, 45641.00
946.7950, 44032.54
947.9160, 42983.71
949.0380, 41948.00
950.1590, 41121.00
951.2800, 40855.00
952.4010, 40283.00
953.5220, 39734.00
954.6430, 39878.00
955.7630, 38912.00
956.8840, 39128.00
958.0040, 38749.00
959.1240, 38799.00
960.2440, 38325.00
961.3640, 38112.00
962.4830, 37808.00
963.6030, 37493.00
964.7220, 37574.00
965.8410, 36602.00
966.9600, 36405.00
968.0780, 35932.57
969.1970, 36041.00
970.3150, 35103.00
971.4340, 34674.00
972.5520, 34514.00
973.6700, 33632.00
974.7870, 33571.00
975.9050, 33567.00
977.0220, 33482.00
978.1390, 33324.00
979.2560, 33110.00
980.3730, 33239.07
981.4900, 33503.00
982.6070, 33526.00
983.7230, 33784.00
984.8390, 34038.00
985.9550, 34491.00
987.0710, 34846.00
988.1870, 35554.00
989.3030, 36245.00
990.4180, 36925.00
991.5330, 37199.00
992.6480, 37622.00
993.7630, 38455.00
994.8780, 39004.00
995.9930, 40690.00
997.1070, 41102.00
998.2210, 41327.00
999.3350, 41760.00
1000.449, 41988.00
1001.563, 42938.00
1002.677, 42905.00
1003.790, 43541.00
1004.903, 43659.00
1006.016, 43799.00
1007.129, 43601.00
1008.242, 43279.84
1009.355, 42688.92
1010.467, 42229.00
1011.579, 41540.60
1012.691, 40508.00
1013.803, 40003.00
1014.915, 39236.00
1016.027, 38351.00
1017.138, 37868.00
1018.249, 36859.00
1019.360, 36089.00
1020.471, 35252.00
1021.582, 34125.00
1022.693, 33342.00
1023.803, 32775.00
1024.913, 31831.00
1026.023, 31517.00
1027.133, 30342.00
1028.243, 30065.00
1029.353, 29311.00
1030.462, 28710.00
1031.571, 28171.00
1032.680, 27765.00
1033.789, 27042.00
1034.898, 26620.77
1036.007, 26202.00
1037.115, 25738.00
1038.223, 25384.00
1039.331, 25189.00
1040.439, 25048.00
1041.547, 24321.00
1042.655, 23917.00
1043.762, 23399.00
1044.869, 23023.85
1045.976, 22884.53
1047.083, 22695.41
1048.190, 22459.23
1049.297, 22034.86
1050.403, 21853.71
1051.509, 21575.15
1052.615, 21292.64
1053.721, 21145.68
1054.827, 20748.91
1055.933, 20639.00
1057.038, 20555.00
1058.143, 20314.00
1059.248, 20191.00
1060.353, 19784.00
1061.458, 19737.00
1062.563, 19638.00
1063.667, 19304.00
1064.771, 19271.00
1065.875, 19239.00
1066.979, 19008.00
1068.083, 18955.05
1069.186, 18983.64
1070.290, 18962.38
1071.393, 18894.11
1072.496, 18637.68
1073.599, 18624.21
1074.702, 18513.37
1075.804, 18398.63
1076.907, 18419.35
1078.009, 18190.36
1079.111, 18209.02
1080.213, 18128.82
1081.315, 18093.87
1082.416, 17961.02
1083.517, 17858.43
1084.619, 17853.76
1085.720, 17794.91
1086.821, 17650.78
1087.921, 17618.86
1089.022, 17386.53
1090.122, 17316.00
1091.222, 17345.00
1092.322, 17050.00
1093.422, 16897.00
1094.522, 17004.00
1095.622, 16818.00
1096.721, 16693.00
1097.820, 16450.00
1098.919, 16282.32
1100.018, 16106.05
1101.117, 15903.00
1102.215, 15799.00
1103.314, 15646.00
1104.412, 15605.00
1105.510, 15441.00
1106.608, 15258.00
1107.705, 15044.00
1108.803, 15233.00
1109.900, 15130.00
1110.997, 15144.00
1112.094, 15046.00
1113.191, 15037.00
1114.288, 14884.00
1115.384, 14931.00
1116.481, 14865.43
1117.577, 14889.51
1118.673, 14822.00
1119.769, 14897.00
1120.864, 14913.00
1121.960, 14900.79
1123.055, 14804.86
1124.150, 14887.00
1125.245, 14816.00
1126.340, 14763.00
1127.434, 14844.00
1128.529, 14865.00
1129.623, 14706.00
1130.717, 14608.00
1131.811, 14640.68
1132.905, 14748.45
1133.999, 14806.44
1135.092, 14817.35
1136.185, 14640.11
1137.279, 14705.82
1138.371, 14674.17
1139.464, 14638.53
1140.557, 14738.44
1141.649, 14588.56
1142.742, 14686.33
1143.834, 14685.24
1144.926, 14729.40
1146.017, 14675.59
1147.109, 14652.04
1148.200, 14726.49
1149.292, 14746.67
1150.383, 14681.59
1151.474, 14728.62
1152.564, 14575.34
1153.655, 14597.84
1154.745, 14696.19
1155.835, 14636.04
1156.925, 14684.87
1158.015, 14692.20
1159.105, 14510.88
1160.195, 14657.63
1161.284, 14662.51
1162.373, 14522.81
1163.462, 14515.00
1164.551, 14449.00
1165.640, 14383.00
1166.728, 14503.00
1167.817, 14625.00
1168.905, 14614.00
1169.993, 14500.00
1171.081, 14416.00
1172.168, 14611.00
1173.256, 14564.00
1174.343, 14595.00
1175.430, 14628.90
1176.517, 14538.72
1177.604, 14624.00
1178.691, 14452.00
1179.777, 14458.00
1180.864, 14572.00
1181.950, 14396.00
1183.036, 14454.00
1184.121, 14400.00
1185.207, 14502.00
1186.293, 14532.00
1187.378, 14646.00
1188.463, 14449.00
1189.548, 14376.00
1190.633, 14498.00
1191.717, 14510.00
1192.802, 14580.00
1193.886, 14609.00
1194.970, 14416.00
1196.054, 14567.00
1197.138, 14467.00
1198.221, 14564.00
1199.305, 14499.00
1200.388, 14489.00
1201.471, 14477.00
1202.554, 14567.00
1203.637, 14654.00
1204.719, 14639.00
1205.801, 14717.00
1206.884, 14656.00
1207.966, 14540.00
1209.048, 14555.00
1210.129, 14545.00
1211.211, 14582.00
1212.292, 14475.00
1213.373, 14583.00
1214.454, 14608.00
1215.535, 14340.00
1216.616, 14440.00
1217.696, 14538.00
1218.777, 14421.00
1219.857, 14433.00
1220.937, 14472.24
1222.017, 14458.19
1223.096, 14547.00
1224.176, 14485.00
1225.255, 14524.00
1226.334, 14442.00
1227.413, 14540.00
1228.492, 14447.00
1229.570, 14326.00
1230.649, 14341.00
1231.727, 14491.00
1232.805, 14591.00
1233.883, 14529.00
1234.961, 14483.56
1236.038, 14597.30
1237.116, 14661.28
1238.193, 14678.16
1239.270, 14506.89
1240.347, 14578.58
1241.424, 14552.90
1242.500, 14523.23
1243.577, 14629.11
1244.653, 14485.20
1245.729, 14588.94
1246.805, 14593.82
1247.880, 14643.94
1248.956, 14596.10
1250.031, 14578.51
1251.106, 14658.92
1252.181, 14685.07
1253.256, 14625.95
1254.331, 14678.95
1255.405, 14531.62
1256.480, 14560.08
1257.554, 14664.39
1258.628, 14610.19
1259.701, 14664.98
1260.775, 14678.26
1261.849, 14502.91
1262.922, 14655.61
1263.995, 14666.44
1265.068, 14531.59
1266.141, 14673.05
1267.213, 14558.29
1268.286, 14534.98
1269.358, 14552.00
1270.430, 14554.12
1271.502, 14482.00
1272.573, 14492.00
1273.645, 14440.00
1274.716, 14357.00
1275.788, 14407.00
1276.859, 14462.00
1277.929, 14423.00
1279.000, 14464.00
1280.071, 14603.00
1281.141, 14442.00
1282.211, 14472.00
1283.281, 14357.00
1284.351, 14558.00
1285.421, 14417.00
1286.490, 14462.00
1287.559, 14480.94
1288.628, 14594.74
1289.697, 14658.78
1290.766, 14675.71
1291.835, 14504.50
1292.903, 14576.24
1293.972, 14550.62
1295.040, 14521.00
1296.108, 14626.94
1297.175, 14483.09
1298.243, 14586.88
1299.310, 14591.82
1300.377, 14642.00
1301.444, 14594.21
1302.511, 14576.68
1303.578, 14657.15
1304.645, 14683.36
1305.711, 14624.29
1306.777, 14512.00
1307.843, 14650.00
1308.909, 14658.71
1309.975, 14492.00
1311.040, 14660.00
1312.105, 14625.00
1313.171, 14487.00
1314.235, 14580.26
1315.300, 14727.63
1316.365, 14811.65
1317.429, 14835.74
1318.494, 14620.36
1319.558, 14714.19
1320.622, 14684.11
1321.685, 14648.94
1322.749, 14786.30
1323.812, 14605.75
1324.876, 14740.37
1325.939, 14749.18
1327.001, 14815.57
1328.064, 14757.27
1329.127, 14737.49
1330.189, 14842.43
1331.251, 14878.31
1332.313, 14805.65
1333.375, 14875.70
1334.437, 14690.79
1335.498, 14729.60
1336.560, 14864.95
1337.621, 14798.57
1338.682, 14870.89
1339.742, 14890.39
1340.803, 14669.80
1341.863, 14866.74
1342.924, 14883.11
1343.984, 14814.00
1345.044, 14750.00
1346.104, 14795.00
1347.163, 14756.00
1348.222, 14666.00
1349.282, 14622.00
1350.341, 14611.00
1351.400, 14649.00
1352.458, 14879.00
1353.517, 14633.00
1354.575, 14602.00
1355.633, 14841.00
1356.691, 14668.57
1357.749, 14804.00
1358.807, 14621.00
1359.864, 14737.00
1360.922, 14703.00
1361.979, 14788.00
1363.036, 14709.00
1364.092, 14642.00
1365.149, 14926.00
1366.205, 14707.00
1367.262, 14831.00
1368.318, 14613.00
1369.374, 14624.00
1370.429, 14727.00
1371.485, 14732.00
1372.540, 14778.31
1373.596, 14782.02
1374.651, 14854.00
1375.705, 14730.00
1376.760, 14773.00
1377.815, 14699.56
1378.869, 14669.53
1379.923, 14723.00
1380.977, 14650.00
1382.031, 14781.00
1383.085, 14857.00
1384.138, 14877.00
1385.191, 14735.00
1386.244, 14580.00
1387.297, 14761.00
1388.350, 14680.00
1389.403, 14642.00
1390.455, 14904.00
1391.507, 14605.00
1392.559, 14816.00
1393.611, 14689.00
1394.663, 14816.00
1395.714, 14766.77
1396.766, 14701.19
1397.817, 14719.00
1398.868, 14573.00
1399.919, 14688.00
1400.969, 14667.00
1402.020, 14757.00
1403.070, 14696.00
1404.120, 14924.00
1405.170, 14699.00
1406.220, 14697.00
1407.270, 14596.00
1408.319, 14803.00
1409.368, 14646.00
1410.417, 14779.00
1411.466, 14799.00
1412.515, 14751.00
1413.563, 14855.00
1414.612, 14908.00
1415.660, 14830.00
1416.708, 14871.51
1417.756, 14821.00
1418.803, 14814.00
1419.851, 14849.00
1420.898, 14811.00
1421.945, 14690.00
1422.992, 14805.00
1424.039, 14735.00
1425.086, 14651.00
1426.132, 14903.00
1427.178, 14688.00
1428.225, 14736.00
1429.270, 14890.00
1430.316, 14820.00
1431.362, 14712.00
1432.407, 14736.00
1433.452, 14740.00
1434.497, 14735.35
1435.542, 14872.00
1436.587, 14748.00
1437.631, 14811.00
1438.676, 14726.00
1439.720, 14778.00
1440.764, 14722.00
1441.807, 14755.00
1442.851, 14778.73
1443.895, 14750.55
1444.938, 14814.00
1445.981, 14781.00
1447.024, 14737.00
1448.066, 14856.00
1449.109, 14884.00
1450.151, 14738.00
1451.194, 14756.00
1452.236, 14874.00
1453.277, 14854.00
1454.319, 14802.00
1455.361, 14752.00
1456.402, 14723.00
1457.443, 14710.62
1458.484, 14817.00
1459.525, 14740.00
1460.565, 14728.00
1461.606, 14801.00
1462.646, 14968.00
1463.686, 14860.00
1464.726, 14821.00
1465.766, 14805.00
1466.805, 14752.00
1467.845, 14785.10
1468.884, 14782.00
1469.923, 14839.00
1470.962, 14887.00
1472.000, 14888.00
1473.039, 14895.00
1474.077, 14856.00
1475.115, 14877.05
1476.153, 14867.52
1477.191, 14850.00
1478.229, 14904.00
1479.266, 14803.00
1480.303, 14886.00
1481.340, 14803.00
1482.377, 14801.51
1483.414, 14888.00
1484.451, 14787.00
1485.487, 14867.00
1486.523, 14889.00
1487.559, 14843.00
1488.595, 14876.00
1489.631, 14849.26
1490.666, 14728.00
1491.701, 14821.00
1492.736, 14859.00
1493.771, 14865.00
1494.806, 14696.00
1495.841, 14764.00
1496.875, 14719.07
1497.909, 14868.86
1498.943, 14955.31
1499.977, 14981.82
1501.011, 14768.86
1502.045, 14865.12
1503.078, 14837.45
1504.111, 14804.70
1505.144, 14944.48
1506.177, 14766.35
1507.209, 14903.38
1508.242, 14914.61
1509.274, 14983.42
1510.306, 14927.54
1511.338, 14910.17
1512.370, 15017.52
1513.402, 15055.82
1514.433, 14985.58
1515.464, 15058.04
1516.495, 14875.54
1517.526, 14916.77
1518.557, 14863.00
1519.587, 14999.00
1520.617, 14807.00
1521.648, 14897.00
1522.678, 14863.00
1523.707, 14996.00
1524.737, 14950.00
1525.766, 15024.46
1526.796, 15002.00
1527.825, 14961.00
1528.854, 15130.00
1529.882, 14730.00
1530.911, 14887.00
1531.939, 14914.00
1532.967, 14897.86
1533.995, 15042.41
1535.023, 15123.63
1536.051, 15144.90
1537.078, 14926.71
1538.106, 15017.74
1539.133, 14984.84
1540.160, 14946.87
1541.186, 15081.42
1542.213, 14898.05
1543.239, 15029.87
1544.266, 15035.87
1545.292, 15099.45
1546.318, 15038.35
1547.343, 15015.75
1548.369, 15117.89
1549.394, 15150.96
1550.419, 15075.50
1551.444, 15142.75
1552.469, 14955.03
1553.494, 14991.04
1554.518, 15123.59
1555.542, 15054.40
1556.566, 15123.92
1557.590, 15140.61
1558.614, 14917.22
1559.638, 15111.36
1560.661, 15124.93
1561.684, 14953.10
1562.707, 15132.94
1563.730, 14986.66
1564.753, 14857.00
1565.775, 14900.00
1566.797, 14916.06
1567.819, 14948.00
1568.841, 14923.00
1569.863, 14933.00
1570.885, 14841.00
1571.906, 15012.00
1572.927, 14917.00
1573.948, 15028.00
1574.969, 14976.00
1575.990, 14854.00
1577.010, 14855.00
##END=



