##NAMES=Gehlenite
##RRUFFID=R061091
##IDEAL CHEMISTRY=Ca_2_Al(SiAl)O_7_
##LOCALITY=Carneal Plug, Glenoe Larne District, County Antrim, Northern Ireland
##OWNER=RRUFF
##SOURCE=Michael Scott
##DESCRIPTION=Yellowish-brown anhedral blebs associated with black magnetite and white wollastonite
##STATUS=The identification of this mineral is confirmed by single-crystal X-ray diffraction and chemical analysis.
##URL=rruff.info/R061091
##MEASURED CHEMISTRY=(Ca_1.64_Na_0.36_)_Σ=2_(Al_0.38_Fe_0.36_Mg_0.26_)_Σ=1_(Si_1.98_Al_0.02_)_Σ=2_O_7_
##PIN_ID=M01135
##ORIENTATION=Laser parallel to c* (0 0 1). Fiducial mark perpendicular to laser is parallel to a [1 0 0]
99.34400, 15573.00
100.5810, 16354.84
101.8190, 16828.00
103.0560, 18249.00
104.2930, 17725.00
105.5290, 18524.00
106.7660, 19707.00
108.0020, 19949.00
109.2390, 19736.00
110.4750, 19095.00
111.7110, 20026.00
112.9460, 19929.00
114.1820, 20102.00
115.4170, 20790.00
116.6530, 20827.00
117.8880, 20808.00
119.1230, 20862.00
120.3580, 20907.00
121.5920, 21113.00
122.8270, 21069.00
124.0610, 21411.00
125.2950, 21178.00
126.5290, 21412.29
127.7630, 21561.00
128.9970, 21720.00
130.2300, 21822.00
131.4640, 22047.00
132.6970, 22110.00
133.9300, 21956.00
135.1630, 22091.00
136.3950, 22050.00
137.6280, 22396.00
138.8600, 22375.00
140.0920, 22427.00
141.3240, 22416.00
142.5560, 22449.26
143.7880, 22383.00
145.0190, 22565.00
146.2510, 22609.00
147.4820, 22779.00
148.7130, 22464.00
149.9440, 22789.00
151.1750, 22961.00
152.4050, 22502.00
153.6360, 22644.00
154.8660, 22802.00
156.0960, 22638.00
157.3260, 22764.00
158.5560, 22574.24
159.7850, 22612.05
161.0150, 22630.89
162.2440, 22631.80
163.4730, 22561.05
164.7020, 22582.83
165.9310, 22567.53
167.1590, 22550.72
168.3880, 22585.53
169.6160, 22525.20
170.8440, 22559.20
172.0720, 22555.54
173.3000, 22569.12
174.5280, 22545.38
175.7550, 22533.18
176.9820, 22558.30
178.2100, 22562.75
179.4370, 22470.00
180.6630, 22329.00
181.8900, 22507.00
183.1170, 22253.00
184.3430, 22430.00
185.5690, 22600.00
186.7950, 22456.00
188.0210, 22576.00
189.2470, 22417.00
190.4720, 22190.00
191.6970, 22565.00
192.9230, 22633.00
194.1480, 22578.00
195.3730, 22481.00
196.5970, 22447.00
197.8220, 22745.00
199.0460, 22669.00
200.2700, 22737.00
201.4940, 22703.00
202.7180, 22843.95
203.9420, 22990.00
205.1660, 23213.00
206.3890, 23464.00
207.6120, 23759.29
208.8350, 24018.00
210.0580, 24405.00
211.2810, 24615.00
212.5040, 25093.00
213.7260, 25681.00
214.9480, 25998.00
216.1700, 26310.00
217.3920, 26640.00
218.6140, 27139.00
219.8360, 27263.00
221.0570, 27505.00
222.2790, 27488.00
223.5000, 27681.00
224.7210, 27910.00
225.9410, 27780.00
227.1620, 27800.00
228.3820, 27484.00
229.6030, 27435.00
230.8230, 27082.00
232.0430, 26731.00
233.2630, 26590.00
234.4820, 26247.00
235.7020, 25700.00
236.9210, 25658.00
238.1400, 25236.00
239.3590, 25138.00
240.5780, 24822.00
241.7970, 24430.00
243.0150, 24189.00
244.2340, 23991.00
245.4520, 23744.00
246.6700, 23534.00
247.8880, 23090.00
249.1060, 22936.00
250.3230, 22760.00
251.5400, 22641.00
252.7580, 22570.03
253.9750, 22467.48
255.1920, 22345.97
256.4080, 22206.64
257.6250, 21995.53
258.8410, 21877.07
260.0580, 21721.41
261.2740, 21564.36
262.4900, 21458.93
263.7050, 21258.48
264.9210, 21152.23
266.1360, 21008.45
267.3520, 20694.00
268.5670, 20491.00
269.7820, 20556.00
270.9960, 20551.00
272.2110, 20289.00
273.4250, 20014.00
274.6400, 20140.00
275.8540, 20069.00
277.0680, 20008.00
278.2810, 19799.00
279.4950, 19771.00
280.7090, 19662.00
281.9220, 19614.00
283.1350, 19388.00
284.3480, 19450.00
285.5610, 19345.00
286.7730, 19159.00
287.9860, 19342.00
289.1980, 19159.00
290.4100, 18899.00
291.6220, 19149.00
292.8340, 19014.00
294.0460, 19039.00
295.2570, 18921.00
296.4690, 18948.49
297.6800, 18988.04
298.8910, 18984.00
300.1020, 19061.00
301.3120, 19038.00
302.5230, 18942.00
303.7330, 18911.30
304.9440, 18801.00
306.1540, 18685.00
307.3630, 18625.00
308.5730, 18424.00
309.7830, 18344.00
310.9920, 18317.00
312.2010, 18039.00
313.4100, 17964.00
314.6190, 17907.00
315.8280, 17600.00
317.0370, 17556.00
318.2450, 17263.00
319.4530, 17180.00
320.6610, 17023.00
321.8690, 16986.00
323.0770, 16832.00
324.2850, 16669.00
325.4920, 16608.00
326.6990, 16489.89
327.9060, 16283.00
329.1130, 16355.00
330.3200, 16202.00
331.5270, 16172.00
332.7330, 16150.00
333.9390, 15982.00
335.1450, 16032.00
336.3510, 15981.00
337.5570, 15765.00
338.7630, 15786.00
339.9680, 15727.00
341.1740, 15646.00
342.3790, 15535.00
343.5840, 15616.00
344.7890, 15349.00
345.9930, 15211.00
347.1980, 15227.00
348.4020, 15427.00
349.6060, 15022.00
350.8100, 15111.00
352.0140, 14880.00
353.2180, 14796.00
354.4210, 14812.00
355.6250, 14632.00
356.8280, 14532.00
358.0310, 14368.00
359.2340, 14260.00
360.4360, 14067.00
361.6390, 14072.00
362.8410, 13858.00
364.0430, 13966.00
365.2450, 13792.00
366.4470, 13767.00
367.6490, 13737.00
368.8510, 13592.00
370.0520, 13626.00
371.2530, 13485.00
372.4540, 13412.00
373.6550, 13532.00
374.8560, 13418.00
376.0560, 13424.00
377.2570, 13425.00
378.4570, 13494.00
379.6570, 13361.00
380.8570, 13238.00
382.0570, 13408.00
383.2560, 13365.00
384.4560, 13558.00
385.6550, 13392.00
386.8540, 13386.00
388.0530, 13290.00
389.2520, 13403.00
390.4510, 13317.64
391.6490, 13468.00
392.8470, 13256.00
394.0450, 13193.00
395.2430, 13185.00
396.4410, 13245.00
397.6390, 13144.00
398.8360, 13092.00
400.0340, 12950.00
401.2310, 13053.00
402.4280, 13206.00
403.6250, 12900.00
404.8210, 13008.00
406.0180, 12848.00
407.2140, 13067.00
408.4100, 13062.54
409.6060, 13112.57
410.8020, 13143.64
411.9980, 13156.78
413.1930, 13098.25
414.3890, 13132.26
415.5840, 13129.18
416.7790, 13124.58
417.9740, 13129.00
419.1680, 13195.00
420.3630, 13172.00
421.5570, 13194.00
422.7510, 13239.00
423.9450, 13245.00
425.1390, 13276.00
426.3330, 13278.00
427.5270, 13431.00
428.7200, 13453.00
429.9130, 13482.00
431.1060, 13711.00
432.2990, 13712.00
433.4920, 13838.00
434.6840, 13939.00
435.8770, 14018.00
437.0690, 14133.00
438.2610, 14309.00
439.4530, 14518.00
440.6450, 14838.00
441.8360, 14988.00
443.0280, 15199.24
444.2190, 15339.00
445.4100, 15532.00
446.6010, 15583.00
447.7920, 15717.00
448.9820, 15888.00
450.1730, 16183.00
451.3630, 16363.00
452.5530, 16374.00
453.7430, 16847.00
454.9330, 16875.00
456.1230, 17051.00
457.3120, 17305.00
458.5010, 17438.00
459.6910, 17626.00
460.8800, 17670.00
462.0680, 17953.00
463.2570, 18053.00
464.4460, 18432.00
465.6340, 18688.46
466.8220, 18854.00
468.0100, 19324.00
469.1980, 19707.00
470.3860, 20027.00
471.5730, 20347.00
472.7600, 20738.00
473.9480, 21169.00
475.1350, 21526.00
476.3210, 21936.00
477.5080, 22478.00
478.6950, 22840.00
479.8810, 23025.00
481.0670, 23176.00
482.2530, 23315.23
483.4390, 23292.00
484.6250, 23343.00
485.8100, 23199.00
486.9960, 22990.00
488.1810, 22731.00
489.3660, 22396.00
490.5510, 22029.00
491.7360, 22109.00
492.9200, 21753.00
494.1050, 21377.00
495.2890, 20964.00
496.4730, 20984.00
497.6570, 20631.00
498.8400, 20588.00
500.0240, 20647.00
501.2070, 20224.00
502.3910, 20189.00
503.5740, 19985.00
504.7570, 20259.00
505.9400, 19937.00
507.1220, 20048.00
508.3050, 19941.00
509.4870, 20085.00
510.6690, 19902.00
511.8510, 19961.00
513.0330, 20099.00
514.2140, 19957.00
515.3960, 19832.00
516.5770, 19958.00
517.7580, 20053.00
518.9390, 20125.00
520.1200, 20223.00
521.3010, 20126.00
522.4810, 20062.00
523.6610, 19905.00
524.8420, 19941.00
526.0220, 19864.00
527.2010, 19819.00
528.3810, 19908.00
529.5610, 19676.00
530.7400, 19714.00
531.9190, 19569.00
533.0980, 19690.00
534.2770, 19487.00
535.4560, 19603.00
536.6340, 19310.00
537.8120, 19437.00
538.9910, 19103.00
540.1690, 19262.00
541.3460, 19249.00
542.5240, 19221.00
543.7020, 18919.00
544.8790, 19110.00
546.0560, 18946.00
547.2330, 19082.00
548.4100, 18946.00
549.5870, 18854.00
550.7630, 19037.00
551.9400, 18757.00
553.1160, 18629.00
554.2920, 18546.00
555.4680, 18442.00
556.6440, 18315.00
557.8190, 18345.00
558.9950, 18418.00
560.1700, 18297.00
561.3450, 18198.00
562.5200, 18070.00
563.6950, 18113.00
564.8690, 18023.00
566.0440, 18010.00
567.2180, 18120.00
568.3920, 18074.00
569.5660, 17926.00
570.7400, 17906.00
571.9130, 17961.00
573.0870, 17931.00
574.2600, 17787.00
575.4330, 17805.00
576.6060, 17685.00
577.7790, 17856.00
578.9520, 17899.00
580.1240, 18122.00
581.2960, 17917.00
582.4690, 18113.00
583.6410, 18085.00
584.8120, 18345.00
585.9840, 18480.00
587.1560, 18711.00
588.3270, 19040.00
589.4980, 19179.00
590.6690, 19317.00
591.8400, 19732.00
593.0110, 19876.00
594.1810, 20390.00
595.3510, 20897.00
596.5220, 21407.00
597.6920, 21693.00
598.8610, 22281.00
600.0310, 22765.00
601.2010, 23261.00
602.3700, 24051.00
603.5390, 24934.00
604.7080, 25575.00
605.8770, 26514.00
607.0460, 27817.00
608.2140, 28673.00
609.3830, 29952.00
610.5510, 31403.00
611.7190, 33218.00
612.8870, 34556.00
614.0550, 36849.00
615.2220, 39610.00
616.3900, 42168.00
617.5570, 45748.00
618.7240, 48953.00
619.8910, 52708.00
621.0580, 56662.00
622.2240, 61111.00
623.3910, 64628.00
624.5570, 68648.00
625.7230, 72316.00
626.8890, 75010.00
628.0550, 76907.00
629.2200, 77262.00
630.3860, 77258.00
631.5510, 75479.00
632.7160, 72840.00
633.8810, 70389.00
635.0460, 66425.00
636.2100, 63069.00
637.3750, 59058.00
638.5390, 56159.00
639.7030, 53401.00
640.8670, 51675.00
642.0310, 49696.00
643.1950, 49234.00
644.3580, 49312.00
645.5210, 50545.00
646.6850, 52214.00
647.8480, 55162.00
649.0100, 58407.00
650.1730, 62936.00
651.3350, 67635.00
652.4980, 72953.00
653.6600, 78783.00
654.8220, 84375.00
655.9840, 89770.00
657.1450, 95544.00
658.3070, 99603.00
659.4680, 103390.0
660.6300, 106695.0
661.7910, 107992.0
662.9510, 109005.0
664.1120, 108531.0
665.2730, 106882.0
666.4330, 104316.0
667.5930, 100223.0
668.7530, 95976.00
669.9130, 91473.00
671.0730, 87878.00
672.2320, 80313.00
673.3920, 75032.00
674.5510, 69880.00
675.7100, 65201.00
676.8690, 60708.33
678.0280, 56415.00
679.1860, 52632.00
680.3450, 49175.00
681.5030, 45854.00
682.6610, 43015.00
683.8190, 40707.00
684.9770, 38600.00
686.1340, 36639.00
687.2920, 34953.00
688.4490, 33200.00
689.6060, 31737.00
690.7630, 30566.00
691.9200, 29373.00
693.0760, 28535.00
694.2330, 27588.00
695.3890, 26796.00
696.5450, 26046.00
697.7010, 25387.00
698.8570, 24724.00
700.0130, 24339.00
701.1680, 23814.00
702.3230, 23488.00
703.4780, 22892.00
704.6330, 22636.00
705.7880, 21986.00
706.9430, 21874.00
708.0970, 21460.00
709.2520, 21224.00
710.4060, 20887.00
711.5600, 20584.00
712.7140, 20308.00
713.8670, 20041.62
715.0210, 19816.97
716.1740, 19517.00
717.3270, 19361.00
718.4800, 19012.00
719.6330, 18676.00
720.7860, 18573.00
721.9380, 18452.00
723.0910, 18144.00
724.2430, 17923.00
725.3950, 17798.00
726.5470, 17570.00
727.6980, 17304.00
728.8500, 17255.00
730.0010, 16954.00
731.1530, 16825.00
732.3040, 16552.00
733.4550, 16449.00
734.6050, 16296.00
735.7560, 16173.00
736.9060, 15934.00
738.0560, 15911.00
739.2060, 15712.00
740.3560, 15450.00
741.5060, 15410.00
742.6560, 15416.00
743.8050, 15143.00
744.9540, 14995.00
746.1030, 14846.00
747.2520, 14596.00
748.4010, 14526.00
749.5500, 14450.00
750.6980, 14342.00
751.8460, 14224.00
752.9950, 14084.00
754.1420, 13879.00
755.2900, 13611.00
756.4380, 13606.00
757.5850, 13268.00
758.7330, 13338.00
759.8800, 13228.00
761.0270, 13062.00
762.1730, 13008.00
763.3200, 12914.68
764.4670, 12725.00
765.6130, 12780.00
766.7590, 12648.00
767.9050, 12549.00
769.0510, 12578.00
770.1960, 12362.00
771.3420, 12465.00
772.4870, 12412.00
773.6320, 12358.00
774.7770, 12449.00
775.9220, 12390.00
777.0670, 12444.67
778.2110, 12503.73
779.3560, 12543.85
780.5000, 12566.01
781.6440, 12516.51
782.7880, 12559.55
783.9320, 12565.50
785.0750, 12569.92
786.2180, 12625.97
787.3620, 12586.90
788.5050, 12642.13
789.6480, 12659.71
790.7900, 12694.51
791.9330, 12598.00
793.0750, 12433.00
794.2170, 12552.00
795.3590, 12390.00
796.5010, 12691.00
797.6430, 12375.00
798.7850, 12536.00
799.9260, 12429.00
801.0670, 12324.00
802.2080, 12451.00
803.3490, 12387.00
804.4900, 12439.00
805.6310, 12420.00
806.7710, 12432.00
807.9110, 12458.00
809.0510, 12456.71
810.1910, 12470.00
811.3310, 12501.00
812.4710, 12508.00
813.6100, 12570.77
814.7490, 12614.00
815.8880, 12812.00
817.0270, 12873.00
818.1660, 13079.00
819.3050, 12912.00
820.4430, 13053.00
821.5820, 13230.00
822.7200, 13354.00
823.8580, 13473.90
824.9950, 13730.00
826.1330, 13708.00
827.2710, 13761.00
828.4080, 13925.00
829.5450, 14144.00
830.6820, 14337.00
831.8190, 14494.00
832.9560, 14690.00
834.0920, 15016.00
835.2280, 15243.00
836.3650, 15439.00
837.5010, 15592.00
838.6360, 16044.00
839.7720, 16356.00
840.9080, 16760.00
842.0430, 17046.00
843.1780, 17498.00
844.3130, 18018.00
845.4480, 18475.00
846.5830, 18985.00
847.7170, 19614.00
848.8520, 20213.00
849.9860, 20654.00
851.1200, 21217.26
852.2540, 21729.12
853.3870, 22224.00
854.5210, 22721.00
855.6540, 23281.00
856.7880, 23706.00
857.9210, 23951.00
859.0540, 24182.00
860.1860, 24357.00
861.3190, 24225.00
862.4510, 24108.00
863.5840, 23784.00
864.7160, 23138.00
865.8480, 22917.00
866.9790, 22241.00
868.1110, 21845.00
869.2420, 21337.00
870.3740, 20836.00
871.5050, 20492.00
872.6360, 20492.00
873.7660, 20435.00
874.8970, 20597.00
876.0280, 20390.00
877.1580, 20899.00
878.2880, 21063.00
879.4180, 21424.00
880.5480, 22117.00
881.6770, 22686.00
882.8070, 23263.00
883.9360, 23963.87
885.0650, 24710.00
886.1940, 25343.00
887.3230, 26070.00
888.4520, 26808.00
889.5800, 27943.00
890.7090, 28645.00
891.8370, 29924.00
892.9650, 31101.00
894.0930, 32309.00
895.2200, 33767.00
896.3480, 35499.00
897.4750, 37267.00
898.6020, 39324.00
899.7290, 41840.41
900.8560, 44510.84
901.9830, 47637.00
903.1090, 50763.00
904.2360, 54415.00
905.3620, 58073.00
906.4880, 62140.00
907.6140, 66538.00
908.7400, 71003.00
909.8650, 76030.00
910.9900, 81070.00
912.1160, 86697.00
913.2410, 91096.00
914.3660, 96741.00
915.4900, 101105.0
916.6150, 105507.0
917.7390, 108973.0
918.8640, 111358.0
919.9880, 112408.0
921.1120, 112288.0
922.2350, 110922.0
923.3590, 107368.0
924.4820, 103749.0
925.6060, 99227.00
926.7290, 93244.00
927.8520, 87713.00
928.9740, 82228.00
930.0970, 76899.00
931.2190, 71789.00
932.3420, 67224.00
933.4640, 63239.00
934.5860, 59212.00
935.7080, 55863.00
936.8290, 52728.00
937.9510, 50295.00
939.0720, 47288.00
940.1930, 45207.00
941.3140, 43612.00
942.4350, 41844.00
943.5560, 40185.00
944.6760, 38675.00
945.7960, 37439.00
946.9170, 36355.66
948.0370, 35664.00
949.1560, 34690.00
950.2760, 34099.00
951.3960, 33485.00
952.5150, 32856.00
953.6340, 32334.00
954.7530, 31760.00
955.8720, 31674.00
956.9910, 30928.00
958.1090, 30393.00
959.2280, 29883.00
960.3460, 29034.00
961.4640, 28684.00
962.5820, 28298.00
963.6990, 27801.00
964.8170, 27043.00
965.9340, 26470.00
967.0510, 25887.00
968.1690, 25322.00
969.2850, 24656.00
970.4020, 24138.00
971.5190, 23548.00
972.6350, 23085.00
973.7510, 22706.00
974.8670, 22320.17
975.9830, 22010.58
977.0990, 21741.00
978.2150, 21541.00
979.3300, 21316.00
980.4450, 21259.00
981.5600, 21315.00
982.6750, 21140.00
983.7900, 20958.00
984.9050, 20699.00
986.0190, 20534.00
987.1340, 20669.00
988.2480, 20568.00
989.3620, 20421.00
990.4750, 20189.00
991.5890, 20168.00
992.7020, 20123.00
993.8160, 19559.00
994.9290, 19868.00
996.0420, 19787.00
997.1550, 19378.00
998.2670, 19344.00
999.3800, 19237.00
1000.492, 18952.00
1001.604, 18860.00
1002.716, 18875.00
1003.828, 18527.00
1004.940, 18434.00
1006.051, 18405.00
1007.163, 18186.00
1008.274, 18019.00
1009.385, 18140.00
1010.496, 17897.00
1011.606, 17819.00
1012.717, 17658.00
1013.827, 17479.00
1014.937, 17492.00
1016.047, 17308.00
1017.157, 17215.00
1018.267, 17303.00
1019.377, 17042.00
1020.486, 17010.00
1021.595, 17065.18
1022.704, 17020.13
1023.813, 16956.12
1024.922, 16874.18
1026.030, 16720.66
1027.139, 16659.59
1028.247, 16561.53
1029.355, 16461.93
1030.463, 16413.97
1031.571, 16270.87
1032.678, 16222.17
1033.786, 16135.74
1034.893, 16066.63
1036.000, 15960.19
1037.107, 15865.28
1038.214, 15807.71
1039.321, 15729.45
1040.427, 15618.81
1041.533, 15550.87
1042.639, 15406.62
1043.745, 15468.00
1044.851, 15287.00
1045.957, 15027.00
1047.062, 14999.00
1048.168, 14974.00
1049.273, 14941.00
1050.378, 14684.00
1051.482, 14701.00
1052.587, 14570.00
1053.692, 14436.00
1054.796, 14345.00
1055.900, 14294.00
1057.004, 14183.57
1058.108, 14306.00
1059.212, 14007.00
1060.315, 14062.00
1061.418, 13966.00
1062.522, 13811.00
1063.625, 13692.00
1064.728, 13752.00
1065.830, 13606.00
1066.933, 13590.00
1068.035, 13601.00
1069.137, 13430.00
1070.239, 13517.00
1071.341, 13406.00
1072.443, 13514.00
1073.545, 13435.00
1074.646, 13352.00
1075.747, 13280.00
1076.848, 13279.00
1077.949, 13292.00
1079.050, 13305.00
1080.150, 13235.00
1081.251, 13273.00
1082.351, 13368.00
1083.451, 13215.00
1084.551, 13470.00
1085.651, 13463.00
1086.750, 13278.00
1087.850, 13410.00
1088.949, 13435.00
1090.048, 13708.00
1091.147, 13752.00
1092.246, 14053.00
1093.345, 14333.00
1094.443, 14317.00
1095.541, 14368.00
1096.639, 14631.00
1097.737, 14515.00
1098.835, 14490.00
1099.933, 14234.00
1101.030, 13953.00
1102.128, 13352.00
1103.225, 12920.00
1104.322, 12592.00
1105.419, 12346.00
1106.515, 12122.00
1107.612, 11824.00
1108.708, 11506.00
1109.804, 11519.00
1110.900, 11448.00
1111.996, 11439.00
1113.092, 11241.00
1114.187, 11297.00
1115.283, 11112.00
1116.378, 11219.00
1117.473, 11084.00
1118.568, 11139.00
1119.662, 11008.00
1120.757, 11088.00
1121.851, 11009.00
1122.946, 10989.00
1124.040, 11023.00
1125.134, 10964.00
1126.227, 10953.00
1127.321, 10802.00
1128.414, 10953.00
1129.508, 10719.00
1130.601, 10790.00
1131.693, 10612.00
1132.786, 10625.00
1133.879, 10787.00
1134.971, 10556.00
1136.064, 10731.00
1137.156, 10565.00
1138.248, 10653.00
1139.339, 10657.00
1140.431, 10730.00
1141.522, 10498.00
1142.614, 10548.00
1143.705, 10452.00
1144.796, 10519.00
1145.887, 10486.00
1146.977, 10472.66
1148.068, 10459.00
1149.158, 10471.00
1150.248, 10535.00
1151.338, 10563.00
1152.428, 10528.00
1153.518, 10507.00
1154.607, 10507.00
1155.696, 10448.00
1156.785, 10432.00
1157.874, 10449.00
1158.963, 10397.00
1160.052, 10381.00
1161.141, 10389.00
1162.229, 10384.00
1163.317, 10265.00
1164.405, 10326.00
1165.493, 10298.29
1166.581, 10408.00
1167.668, 10355.00
1168.756, 10327.00
1169.843, 10388.49
1170.930, 10426.96
1172.017, 10446.49
1173.103, 10448.07
1174.190, 10377.99
1175.276, 10400.45
1176.363, 10385.82
1177.449, 10369.68
1178.535, 10405.17
1179.620, 10345.52
1180.706, 10380.18
1181.791, 10377.21
1182.877, 10391.45
1183.962, 10368.39
1185.047, 10356.86
1186.131, 10382.65
1187.216, 10387.77
1188.300, 10360.42
1189.385, 10375.77
1190.469, 10314.82
1191.553, 10320.83
1192.637, 10355.72
1193.720, 10330.25
1194.804, 10385.00
1195.887, 10300.00
1196.970, 10293.00
1198.053, 10252.00
1199.136, 10417.00
1200.219, 10253.00
1201.301, 10396.00
1202.383, 10341.00
1203.465, 10391.00
1204.547, 10401.00
1205.629, 10476.00
1206.711, 10234.00
1207.792, 10282.00
1208.874, 10433.00
1209.955, 10270.00
1211.036, 10342.00
1212.117, 10450.00
1213.198, 10372.00
1214.278, 10373.00
1215.359, 10283.00
1216.439, 10432.00
1217.519, 10307.00
1218.599, 10259.00
1219.678, 10368.00
1220.758, 10232.00
1221.837, 10360.00
1222.917, 10305.00
1223.996, 10250.00
1225.075, 10327.00
1226.153, 10261.00
1227.232, 10370.00
1228.310, 10232.00
1229.389, 10322.00
1230.467, 10243.00
1231.545, 10246.00
1232.622, 10446.00
1233.700, 10311.60
1234.777, 10305.00
1235.855, 10282.00
1236.932, 10188.00
1238.009, 10327.00
1239.086, 10327.00
1240.162, 10324.00
1241.239, 10220.00
1242.315, 10234.00
1243.391, 10270.00
1244.467, 10254.00
1245.543, 10337.00
1246.619, 10341.00
1247.694, 10386.00
1248.769, 10288.00
1249.844, 10394.00
1250.919, 10224.00
1251.994, 10194.00
1253.069, 10223.00
1254.144, 10165.00
1255.218, 10220.00
1256.292, 10323.00
1257.366, 10087.00
1258.440, 10265.00
1259.514, 10007.00
1260.587, 10221.00
1261.661, 10084.00
1262.734, 10204.00
1263.807, 10186.00
1264.880, 10159.00
1265.952, 10187.00
1267.025, 10101.00
1268.097, 10085.77
1269.170, 10127.92
1270.242, 10072.92
1271.314, 10068.45
1272.385, 10043.00
1273.457, 10050.00
1274.528, 10038.00
1275.600, 10107.00
1276.671, 9984.000
1277.742, 10044.00
1278.812, 9923.000
1279.883, 10087.00
1280.954, 10019.49
1282.024, 9989.000
1283.094, 10008.00
1284.164, 9868.000
1285.234, 9894.000
1286.303, 9972.000
1287.373, 9969.000
1288.442, 9814.000
1289.511, 9823.000
1290.580, 9829.566
1291.649, 9784.282
1292.718, 9906.000
1293.786, 9786.000
1294.855, 9816.000
1295.923, 9816.000
1296.991, 9903.000
1298.059, 9850.000
1299.126, 9801.000
1300.194, 9994.000
1301.261, 9808.000
1302.328, 9855.000
1303.395, 9951.000
1304.462, 10063.00
1305.529, 9868.000
1306.596, 10018.00
1307.662, 9751.000
1308.728, 10108.00
1309.794, 9840.000
1310.860, 10079.00
1311.926, 9888.000
1312.991, 10038.00
1314.057, 9957.000
1315.122, 9949.000
1316.187, 10039.00
1317.252, 10064.00
1318.317, 9959.000
1319.381, 10006.00
1320.446, 10081.00
1321.510, 9998.000
1322.574, 9996.000
1323.638, 9977.000
1324.702, 10015.00
1325.766, 10093.00
1326.829, 10114.00
1327.892, 10050.00
1328.956, 10227.00
1330.019, 10140.00
1331.081, 10033.00
1332.144, 10049.00
1333.206, 9955.000
1334.269, 9985.972
1335.331, 10110.00
1336.393, 10074.00
1337.455, 10149.00
1338.516, 10243.00
1339.578, 10075.00
1340.639, 9976.000
1341.701, 10118.00
1342.762, 10141.00
1343.822, 10096.00
1344.883, 10157.00
1345.944, 10063.00
1347.004, 10146.00
1348.064, 10237.00
1349.124, 10214.00
1350.184, 10153.00
1351.244, 10233.00
1352.304, 10169.00
1353.363, 10163.00
1354.422, 10214.00
1355.481, 10215.00
1356.540, 10125.00
1357.599, 10316.00
1358.657, 10236.00
1359.716, 10192.00
1360.774, 10100.00
1361.832, 10253.00
1362.890, 10219.00
1363.948, 10186.00
1365.006, 10199.74
1366.063, 10216.00
1367.120, 10130.00
1368.178, 10083.00
1369.234, 10079.00
1370.291, 10209.00
1371.348, 10175.00
1372.404, 10057.00
1373.461, 10148.00
1374.517, 10057.00
1375.573, 10189.00
1376.629, 10076.00
1377.684, 10095.00
1378.740, 10146.00
1379.795, 10194.00
1380.850, 10219.00
1381.905, 10165.00
1382.960, 10137.00
1384.015, 10215.00
1385.070, 10258.00
1386.124, 10182.00
1387.178, 10262.00
1388.232, 10120.00
1389.286, 10214.00
1390.340, 10153.00
1391.393, 10134.00
1392.447, 10069.00
1393.500, 10072.00
1394.553, 10100.00
1395.606, 9985.000
1396.659, 10116.00
1397.711, 10170.00
1398.764, 10014.00
1399.816, 10094.00
1400.868, 10063.00
1401.920, 9971.000
1402.972, 10010.00
1404.023, 9981.000
1405.075, 10124.00
1406.126, 10090.00
1407.177, 10066.00
1408.228, 10044.00
1409.279, 9995.000
1410.330, 10082.00
1411.380, 9901.000
1412.431, 10022.00
1413.481, 10070.00
1414.531, 10016.00
1415.580, 9951.000
1416.630, 10083.00
1417.680, 10024.00
1418.729, 10060.00
1419.778, 10036.00
1420.827, 9990.000
1421.876, 10011.00
1422.925, 9968.000
1423.973, 10000.37
1425.022, 10013.00
1426.070, 10055.00
1427.118, 10049.00
1428.166, 10051.00
1429.214, 10151.00
1430.261, 9995.000
1431.309, 9929.000
1432.356, 9999.000
1433.403, 9939.000
1434.450, 9905.000
1435.497, 10094.00
1436.543, 9990.000
1437.590, 9869.000
1438.636, 10025.00
1439.682, 9986.000
1440.728, 9973.000
1441.774, 10118.00
1442.819, 10089.00
1443.865, 9990.000
1444.910, 10009.00
1445.955, 9984.000
1447.000, 10044.00
1448.045, 10005.00
1449.090, 9997.078
1450.134, 10076.00
1451.178, 9993.000
1452.223, 9974.000
1453.267, 10070.00
1454.310, 10150.00
1455.354, 9984.000
1456.398, 10028.00
1457.441, 9929.000
1458.484, 10017.00
1459.527, 9930.000
1460.570, 10003.00
1461.613, 10053.00
1462.655, 10054.00
1463.698, 9867.000
1464.740, 10004.00
1465.782, 9965.000
1466.824, 9849.000
1467.866, 10048.00
1468.907, 9980.000
1469.948, 9887.000
1470.990, 10050.00
1472.031, 9907.000
1473.072, 9977.000
1474.112, 9905.000
1475.153, 9967.000
1476.194, 9858.000
1477.234, 9887.000
1478.274, 9878.352
1479.314, 9917.466
1480.354, 9937.622
1481.393, 9939.845
1482.433, 9870.399
1483.472, 9893.497
1484.511, 9879.510
1485.550, 9864.002
1486.589, 9900.125
1487.628, 9841.106
1488.666, 9876.414
1489.704, 9874.071
1490.743, 9888.955
1491.781, 9866.529
1492.819, 9855.629
1493.856, 9882.059
1494.894, 9887.816
1495.931, 9861.099
1496.968, 9877.087
1498.005, 9816.774
1499.042, 9823.416
1500.079, 9858.947
1501.115, 9834.109
1502.152, 9850.780
1503.188, 9851.645
1504.224, 9780.659
1505.260, 9834.628
1506.296, 9834.559
1507.331, 9779.007
1508.367, 9828.694
1509.402, 9780.793
1510.437, 9767.726
1511.472, 9780.873
1512.507, 9766.693
1513.541, 9795.604
1514.576, 9654.000
1515.610, 9756.000
1516.644, 9755.000
1517.678, 9728.000
1518.712, 9803.000
1519.746, 9761.000
1520.779, 9713.000
1521.813, 9730.000
1522.846, 9788.000
1523.879, 9691.000
1524.912, 9781.000
1525.944, 9661.000
1526.977, 9518.000
1528.009, 9681.000
1529.041, 9587.295
1530.073, 9603.461
1531.105, 9673.000
1532.137, 9622.000
1533.168, 9765.000
1534.200, 9806.000
1535.231, 9707.000
1536.262, 9658.000
1537.293, 9721.000
1538.324, 9752.000
1539.354, 9731.404
1540.385, 9771.559
1541.415, 9792.759
1542.445, 9796.022
1543.475, 9727.621
1544.505, 9751.759
1545.534, 9738.814
1546.564, 9724.347
1547.593, 9761.513
1548.622, 9703.538
1549.651, 9739.885
1550.680, 9738.580
1551.708, 9754.511
1552.737, 9733.123
1553.765, 9723.265
1554.793, 9750.732
1555.821, 9757.532
1556.849, 9731.854
1557.877, 9748.879
1558.904, 9689.606
1559.932, 9697.287
1560.959, 9733.858
1561.986, 9710.059
1563.013, 9727.770
1564.039, 9729.674
1565.066, 9677.000
1566.092, 9588.000
1567.119, 9779.745
1568.145, 9651.000
1569.170, 9686.734
1570.196, 9621.000
1571.222, 9626.000
1572.247, 9615.075
1573.272, 9685.000
1574.297, 9637.000
1575.322, 9605.000
1576.347, 9711.000
1577.372, 9611.000
##END=



