##NAMES=Gehlenite
##RRUFFID=R061091
##IDEAL CHEMISTRY=Ca_2_Al(SiAl)O_7_
##LOCALITY=Carneal Plug, Glenoe Larne District, County Antrim, Northern Ireland
##OWNER=RRUFF
##SOURCE=Michael Scott
##DESCRIPTION=Yellowish-brown anhedral blebs associated with black magnetite and white wollastonite
##STATUS=The identification of this mineral is confirmed by single-crystal X-ray diffraction and chemical analysis.
##URL=rruff.info/R061091
##MEASURED CHEMISTRY=(Ca_1.64_Na_0.36_)_Σ=2_(Al_0.38_Fe_0.36_Mg_0.26_)_Σ=1_(Si_1.98_Al_0.02_)_Σ=2_O_7_
##PIN_ID=M01302
##ORIENTATION=Laser parallel to a* (1 0 0). Fiducial mark perpendicular to laser is parallel to -c [0 0 -1]
92.44100, 28205.00
93.67200, 28634.00
94.90400, 28308.00
96.13500, 28266.00
97.36600, 28355.00
98.59700, 28167.00
99.82800, 28042.00
101.0590, 27870.00
102.2900, 27763.98
103.5200, 27176.00
104.7500, 27678.00
105.9810, 27932.00
107.2110, 28163.00
108.4410, 27732.00
109.6700, 27396.00
110.9000, 26911.00
112.1300, 26992.00
113.3590, 27277.00
114.5880, 27893.00
115.8170, 28967.00
117.0460, 30389.00
118.2750, 30314.00
119.5040, 30500.00
120.7320, 35116.00
121.9610, 41687.00
123.1890, 45066.00
124.4170, 46111.00
125.6450, 38178.00
126.8730, 30309.00
128.1010, 26695.00
129.3280, 26074.00
130.5560, 25240.00
131.7830, 24843.00
133.0100, 24534.00
134.2380, 24426.00
135.4640, 24245.00
136.6910, 24525.00
137.9180, 24339.00
139.1440, 24829.00
140.3710, 24467.00
141.5970, 24564.00
142.8230, 24238.00
144.0490, 24590.00
145.2750, 24297.00
146.5000, 24360.00
147.7260, 24204.00
148.9510, 24051.00
150.1770, 24177.00
151.4020, 24215.00
152.6270, 24258.00
153.8520, 24159.00
155.0760, 23931.00
156.3010, 24188.00
157.5250, 24110.00
158.7500, 24409.21
159.9740, 24420.65
161.1980, 24495.43
162.4220, 24525.00
163.6450, 24676.00
164.8690, 24743.00
166.0920, 24939.00
167.3160, 25034.00
168.5390, 24660.00
169.7620, 24549.00
170.9850, 24068.00
172.2080, 24041.00
173.4300, 24268.00
174.6530, 24357.00
175.8750, 24290.00
177.0970, 24299.00
178.3190, 24576.00
179.5410, 24643.00
180.7630, 24501.00
181.9850, 24331.00
183.2060, 24416.00
184.4270, 24538.00
185.6490, 24394.00
186.8700, 24583.00
188.0910, 24726.00
189.3110, 24779.00
190.5320, 24886.00
191.7530, 24901.00
192.9730, 25111.00
194.1930, 25203.00
195.4130, 25385.00
196.6330, 25600.00
197.8530, 25607.00
199.0730, 25974.00
200.2920, 26173.00
201.5120, 26158.00
202.7310, 26474.00
203.9500, 26649.00
205.1690, 26875.00
206.3880, 26904.00
207.6070, 27300.00
208.8250, 27533.00
210.0440, 27986.00
211.2620, 28114.00
212.4800, 28494.00
213.6980, 28959.00
214.9160, 29322.00
216.1340, 29714.83
217.3510, 30225.00
218.5690, 30522.00
219.7860, 30647.00
221.0030, 31155.00
222.2200, 31217.00
223.4370, 31581.00
224.6540, 31675.00
225.8700, 31706.00
227.0870, 31630.00
228.3030, 31815.00
229.5190, 31381.00
230.7350, 31304.00
231.9510, 31229.37
233.1670, 31176.00
234.3820, 31033.00
235.5980, 30705.00
236.8130, 30610.00
238.0280, 30042.00
239.2430, 29980.00
240.4580, 29786.00
241.6730, 29352.00
242.8880, 29395.00
244.1020, 28854.00
245.3160, 28738.00
246.5300, 28593.00
247.7450, 28414.00
248.9580, 28157.00
250.1720, 28355.00
251.3860, 27849.00
252.5990, 27978.00
253.8130, 27782.00
255.0260, 27412.00
256.2390, 27569.00
257.4520, 27703.00
258.6640, 27564.00
259.8770, 27557.00
261.0890, 27477.00
262.3020, 27541.11
263.5140, 27615.00
264.7260, 27748.98
265.9380, 27886.73
267.1500, 28053.92
268.3610, 28251.33
269.5730, 28428.80
270.7840, 28740.17
271.9950, 29063.87
273.2060, 29433.30
274.4170, 29898.38
275.6280, 30321.27
276.8390, 30816.00
278.0490, 31219.00
279.2590, 31797.00
280.4690, 32304.00
281.6800, 32997.00
282.8890, 33941.00
284.0990, 34610.00
285.3090, 35587.00
286.5180, 36287.00
287.7280, 37193.00
288.9370, 38111.00
290.1460, 39613.00
291.3550, 41161.00
292.5630, 42413.00
293.7720, 43766.00
294.9800, 44966.00
296.1890, 46411.00
297.3970, 47761.00
298.6050, 48776.00
299.8130, 50052.00
301.0200, 50681.00
302.2280, 51299.00
303.4360, 51425.00
304.6430, 51508.00
305.8500, 51001.00
307.0570, 50480.81
308.2640, 49880.00
309.4710, 48554.00
310.6770, 47337.00
311.8840, 45766.00
313.0900, 44254.00
314.2960, 42863.00
315.5020, 41314.00
316.7080, 39609.00
317.9140, 38265.00
319.1190, 36771.57
320.3250, 35167.00
321.5300, 34064.00
322.7350, 32725.00
323.9400, 31509.00
325.1450, 30592.00
326.3500, 29412.00
327.5540, 28329.00
328.7580, 27528.00
329.9630, 26766.00
331.1670, 26075.00
332.3710, 25509.00
333.5750, 24790.00
334.7780, 24134.00
335.9820, 23621.00
337.1850, 22925.00
338.3880, 22707.00
339.5920, 22200.00
340.7950, 21705.00
341.9970, 21184.00
343.2000, 20851.00
344.4030, 20658.00
345.6050, 20165.00
346.8070, 20032.00
348.0090, 19714.00
349.2110, 19317.00
350.4130, 19141.00
351.6150, 18913.00
352.8160, 18676.00
354.0170, 18590.00
355.2190, 18267.00
356.4200, 18094.10
357.6210, 17672.00
358.8210, 17681.00
360.0220, 17478.00
361.2220, 17336.00
362.4230, 17387.00
363.6230, 17150.18
364.8230, 17173.00
366.0230, 16782.00
367.2230, 16777.00
368.4220, 16490.00
369.6220, 16399.00
370.8210, 16302.00
372.0200, 16152.00
373.2190, 16010.00
374.4180, 15936.00
375.6170, 15804.00
376.8150, 15800.00
378.0140, 15681.87
379.2120, 15702.00
380.4100, 15496.00
381.6080, 15534.00
382.8060, 15432.00
384.0040, 15395.00
385.2010, 15356.00
386.3980, 15277.08
387.5960, 15205.00
388.7930, 15162.00
389.9900, 15213.00
391.1870, 15189.71
392.3830, 15052.00
393.5800, 15152.00
394.7760, 15074.00
395.9720, 15060.34
397.1680, 15121.63
398.3640, 15165.12
399.5600, 15191.77
400.7560, 15151.10
401.9510, 15197.33
403.1460, 15208.73
404.3420, 15218.72
405.5370, 15277.18
406.7320, 15246.28
407.9260, 15303.96
409.1210, 15326.29
410.3150, 15364.79
411.5100, 15368.26
412.7040, 15464.00
413.8980, 15524.00
415.0920, 15526.22
416.2850, 15367.00
417.4790, 15518.00
418.6720, 15629.00
419.8650, 15473.00
421.0590, 15573.00
422.2510, 15719.00
423.4440, 15538.00
424.6370, 15654.00
425.8290, 15702.00
427.0220, 15864.00
428.2140, 15819.00
429.4060, 15862.00
430.5980, 16105.23
431.7900, 16209.14
432.9810, 16328.63
434.1730, 16464.81
435.3640, 16567.01
436.5550, 16789.54
437.7460, 17010.67
438.9370, 17338.00
440.1280, 17524.00
441.3190, 17948.00
442.5090, 18256.00
443.6990, 18379.98
444.8890, 18710.10
446.0790, 19022.41
447.2690, 19317.88
448.4590, 19546.04
449.6480, 19860.87
450.8380, 20141.12
452.0270, 20419.69
453.2160, 20592.37
454.4050, 20769.47
455.5940, 20889.00
456.7820, 20974.00
457.9710, 21123.00
459.1590, 21132.00
460.3470, 20917.00
461.5350, 21056.00
462.7230, 20964.00
463.9110, 20964.00
465.0990, 21001.00
466.2860, 21071.00
467.4730, 21096.05
468.6600, 21147.29
469.8470, 21205.00
471.0340, 21272.00
472.2210, 21355.44
473.4070, 21503.00
474.5940, 21665.00
475.7800, 21904.00
476.9660, 21989.00
478.1520, 22039.00
479.3380, 22276.00
480.5230, 22352.00
481.7090, 22496.00
482.8940, 22404.00
484.0790, 22158.00
485.2650, 22319.00
486.4490, 22039.00
487.6340, 22030.00
488.8190, 21978.00
490.0030, 21714.00
491.1870, 21727.00
492.3720, 21613.00
493.5550, 21444.00
494.7390, 21327.00
495.9230, 21151.00
497.1060, 20969.64
498.2900, 21018.41
499.4730, 21049.37
500.6560, 21063.47
501.8390, 21010.27
503.0220, 21043.99
504.2040, 21042.87
505.3870, 21040.32
506.5690, 21037.61
507.7510, 21063.00
508.9330, 21102.00
510.1150, 21064.00
511.2970, 21085.44
512.4780, 21179.50
513.6600, 21255.79
514.8410, 21315.20
516.0220, 21376.74
517.2030, 21362.51
518.3840, 21421.51
519.5650, 21432.01
520.7450, 21343.59
521.9250, 21310.50
523.1060, 21275.73
524.2860, 21171.48
525.4660, 21049.42
526.6450, 20910.64
527.8250, 20704.43
529.0040, 20585.25
530.1840, 20431.13
531.3630, 20275.70
532.5420, 20125.34
533.7200, 20045.58
534.8990, 19947.90
536.0780, 19833.38
537.2560, 19651.65
538.4340, 19556.83
539.6120, 19427.18
540.7900, 19296.11
541.9680, 19213.53
543.1460, 19041.59
544.3230, 18958.34
545.5000, 19040.00
546.6770, 18962.00
547.8540, 19034.00
549.0310, 18964.31
550.2080, 18960.10
551.3840, 18938.12
552.5610, 18899.26
553.7370, 18793.12
554.9130, 18773.90
556.0890, 18719.85
557.2650, 18664.37
558.4400, 18657.42
559.6160, 18561.07
560.7910, 18553.35
561.9660, 18510.27
563.1410, 18483.38
564.3160, 18325.00
565.4910, 18398.00
566.6650, 18313.00
567.8400, 18099.00
569.0140, 18114.00
570.1880, 18181.00
571.3620, 18275.00
572.5360, 18092.00
573.7090, 17985.00
574.8830, 17994.00
576.0560, 17938.32
577.2290, 18032.00
578.4020, 17971.00
579.5750, 17994.00
580.7480, 17998.95
581.9200, 18065.94
583.0930, 18126.00
584.2650, 18186.99
585.4370, 18274.52
586.6090, 18354.90
587.7810, 18449.31
588.9520, 18558.59
590.1240, 18632.45
591.2950, 18824.89
592.4660, 19014.27
593.6370, 19233.99
594.8080, 19533.96
595.9790, 19776.34
597.1500, 20139.09
598.3200, 20497.91
599.4900, 20904.63
600.6600, 21308.01
601.8300, 21753.95
603.0000, 22266.64
604.1700, 22791.63
605.3390, 23301.00
606.5080, 24127.00
607.6770, 24803.76
608.8460, 25812.00
610.0150, 26597.00
611.1840, 28068.00
612.3520, 29246.00
613.5210, 30703.00
614.6890, 32422.00
615.8570, 34268.00
617.0250, 36635.00
618.1930, 38888.00
619.3600, 42061.00
620.5280, 45133.00
621.6950, 48461.00
622.8620, 52422.00
624.0290, 55882.00
625.1960, 60055.00
626.3630, 63077.00
627.5290, 66353.00
628.6960, 67617.00
629.8620, 68750.00
631.0280, 68620.00
632.1940, 67050.00
633.3600, 65019.00
634.5250, 61920.00
635.6910, 59470.00
636.8560, 57442.00
638.0210, 51989.00
639.1860, 48451.00
640.3510, 45995.00
641.5150, 44175.00
642.6800, 43131.00
643.8440, 42700.00
645.0080, 42781.00
646.1720, 43984.00
647.3360, 45440.00
648.5000, 47687.00
649.6640, 50959.00
650.8270, 54725.00
651.9900, 57767.00
653.1530, 61310.00
654.3160, 65276.00
655.4790, 68953.00
656.6420, 72667.00
657.8040, 76085.00
658.9660, 78596.00
660.1290, 80531.00
661.2910, 82102.00
662.4520, 82892.00
663.6140, 82673.00
664.7760, 82010.00
665.9370, 80789.00
667.0980, 77343.00
668.2590, 74885.00
669.4200, 71586.00
670.5810, 67421.00
671.7420, 64363.00
672.9020, 60751.00
674.0620, 56898.79
675.2220, 53031.00
676.3820, 49724.00
677.5420, 46352.00
678.7020, 43662.00
679.8610, 40845.00
681.0210, 38487.00
682.1800, 36348.00
683.3390, 34432.00
684.4980, 32725.96
685.6560, 31619.00
686.8150, 29865.00
687.9730, 28786.00
689.1320, 27670.00
690.2900, 26623.00
691.4480, 25843.00
692.6050, 25125.00
693.7630, 24383.00
694.9200, 23934.00
696.0780, 23422.00
697.2350, 22893.19
698.3920, 22461.17
699.5490, 21975.00
700.7050, 21590.00
701.8620, 21161.00
703.0180, 20785.00
704.1740, 20657.65
705.3300, 20264.31
706.4860, 19907.41
707.6420, 19587.91
708.7970, 19255.56
709.9530, 19064.11
711.1080, 18892.19
712.2630, 18772.99
713.4180, 18756.43
714.5730, 18704.67
715.7280, 18631.96
716.8820, 18542.36
718.0360, 18435.92
719.1900, 18262.16
720.3440, 18175.32
721.4980, 18053.65
722.6520, 17930.55
723.8050, 17856.04
724.9590, 17692.07
726.1120, 17616.79
727.2650, 17506.15
728.4180, 17372.38
729.5700, 17336.60
730.7230, 17288.96
731.8750, 17230.55
733.0280, 17110.80
734.1800, 17084.03
735.3320, 17028.44
736.4830, 16977.47
737.6350, 16980.96
738.7860, 16901.13
739.9380, 16821.00
741.0890, 16934.00
742.2400, 16715.00
743.3910, 16816.00
744.5410, 16734.72
745.6920, 16797.00
746.8420, 16751.00
747.9920, 16526.00
749.1420, 16795.00
750.2920, 16529.00
751.4420, 16535.00
752.5910, 16283.00
753.7410, 16401.00
754.8900, 16349.00
756.0390, 16227.00
757.1880, 15954.00
758.3370, 15886.00
759.4850, 15728.00
760.6340, 15628.00
761.7820, 15427.00
762.9300, 15396.00
764.0780, 15306.00
765.2260, 15265.00
766.3730, 14969.00
767.5210, 15090.00
768.6680, 14916.01
769.8150, 14933.00
770.9620, 14657.00
772.1090, 14828.00
773.2560, 14548.00
774.4020, 14587.00
775.5490, 14759.00
776.6950, 14781.00
777.8410, 14572.00
778.9870, 14659.00
780.1330, 14492.00
781.2780, 14652.00
782.4230, 14613.00
783.5690, 14605.16
784.7140, 14672.02
785.8590, 14721.08
787.0030, 14753.26
788.1480, 14718.15
789.2920, 14769.94
790.4370, 14786.93
791.5810, 14802.46
792.7250, 14866.48
793.8690, 14841.14
795.0120, 14904.38
796.1560, 14934.00
797.2990, 14897.00
798.4420, 14924.82
799.5850, 14886.00
800.7280, 14939.00
801.8710, 14979.00
803.0130, 14973.00
804.1550, 15011.00
805.2980, 14969.00
806.4400, 14953.00
807.5810, 14964.00
808.7230, 15047.00
809.8650, 15069.00
811.0060, 15125.00
812.1470, 15248.00
813.2880, 15299.81
814.4290, 15322.00
815.5700, 15439.00
816.7110, 15482.74
817.8510, 15580.00
818.9910, 15644.00
820.1310, 15788.00
821.2710, 15913.00
822.4110, 16016.88
823.5510, 16114.00
824.6900, 16256.00
825.8290, 16394.00
826.9680, 16520.00
828.1070, 16659.56
829.2460, 16665.00
830.3850, 16911.00
831.5230, 17018.00
832.6620, 17106.00
833.8000, 17386.00
834.9380, 17724.00
836.0760, 17802.00
837.2130, 18104.00
838.3510, 18478.00
839.4880, 18568.00
840.6250, 19054.00
841.7620, 19118.00
842.8990, 19661.00
844.0360, 19879.00
845.1720, 20317.00
846.3090, 20663.00
847.4450, 21057.00
848.5810, 21587.00
849.7170, 21873.00
850.8530, 22499.00
851.9880, 22773.00
853.1240, 23182.00
854.2590, 23568.00
855.3940, 23760.00
856.5290, 23976.99
857.6640, 24167.00
858.7980, 24135.00
859.9330, 24098.00
861.0670, 24005.00
862.2010, 23742.00
863.3350, 23414.00
864.4690, 23291.00
865.6030, 22952.00
866.7360, 22777.00
867.8690, 22315.00
869.0020, 21956.00
870.1350, 21611.00
871.2680, 21423.00
872.4010, 21417.00
873.5330, 21234.00
874.6660, 21463.00
875.7980, 21433.00
876.9300, 21517.00
878.0620, 21928.00
879.1930, 22230.00
880.3250, 22488.00
881.4560, 22939.00
882.5870, 23236.00
883.7180, 23728.00
884.8490, 24075.00
885.9800, 24760.00
887.1100, 25192.00
888.2410, 25941.00
889.3710, 26543.00
890.5010, 27380.00
891.6310, 28198.00
892.7610, 29047.00
893.8900, 29959.00
895.0200, 30959.00
896.1490, 32139.19
897.2780, 33491.00
898.4070, 34849.19
899.5360, 36439.00
900.6640, 38195.00
901.7920, 40303.00
902.9210, 42271.00
904.0490, 45223.00
905.1770, 47444.00
906.3040, 50966.00
907.4320, 53344.00
908.5600, 56960.00
909.6870, 61241.00
910.8140, 65266.00
911.9410, 69660.00
913.0680, 74258.00
914.1940, 79159.00
915.3210, 83135.00
916.4470, 88351.00
917.5730, 91350.00
918.6990, 94755.00
919.8250, 97169.00
920.9500, 97966.00
922.0760, 98153.00
923.2010, 96052.00
924.3260, 93533.00
925.4510, 90109.00
926.5760, 85841.00
927.7010, 81565.00
928.8250, 77122.00
929.9500, 72532.00
931.0740, 68383.00
932.1980, 64325.00
933.3220, 60672.00
934.4450, 57037.00
935.5690, 54326.00
936.6920, 51269.00
937.8150, 49135.00
938.9380, 46900.81
940.0610, 44591.00
941.1840, 43318.00
942.3060, 41557.00
943.4290, 40259.00
944.5510, 39291.00
945.6730, 38230.50
946.7950, 37478.00
947.9160, 36648.00
949.0380, 36096.97
950.1590, 35674.00
951.2800, 35393.00
952.4010, 35080.00
953.5220, 34716.02
954.6430, 34527.88
955.7630, 34121.00
956.8840, 34053.00
958.0040, 33956.00
959.1240, 33441.72
960.2440, 33428.34
961.3640, 33306.46
962.4830, 33077.29
963.6030, 32689.93
964.7220, 32299.23
965.8410, 31783.14
966.9600, 31421.68
968.0780, 30831.00
969.1970, 30551.00
970.3150, 30219.00
971.4340, 29661.00
972.5520, 29377.00
973.6700, 28875.00
974.7870, 28968.00
975.9050, 28679.00
977.0220, 28500.00
978.1390, 28372.00
979.2560, 28122.00
980.3730, 28204.00
981.4900, 28018.00
982.6070, 28120.25
983.7230, 28359.00
984.8390, 28370.00
985.9550, 28883.00
987.0710, 29078.00
988.1870, 29267.00
989.3030, 29650.00
990.4180, 30092.00
991.5330, 30416.00
992.6480, 30754.76
993.7630, 31281.00
994.8780, 31368.00
995.9930, 31828.00
997.1070, 32169.00
998.2210, 32777.00
999.3350, 32949.00
1000.449, 33251.00
1001.563, 33389.84
1002.677, 33647.65
1003.790, 33793.07
1004.903, 33832.14
1006.016, 33773.41
1007.129, 33649.00
1008.242, 33383.89
1009.355, 33074.92
1010.467, 32724.76
1011.579, 32208.77
1012.691, 31906.89
1013.803, 31189.00
1014.915, 30907.00
1016.027, 30253.00
1017.138, 29930.95
1018.249, 29389.00
1019.360, 29029.00
1020.471, 28578.00
1021.582, 28108.88
1022.693, 27429.00
1023.803, 27104.00
1024.913, 26560.00
1026.023, 25851.00
1027.133, 25556.00
1028.243, 25199.00
1029.353, 24817.00
1030.462, 24579.00
1031.571, 23978.00
1032.680, 23743.00
1033.789, 23522.00
1034.898, 23091.00
1036.007, 22862.92
1037.115, 22457.00
1038.223, 22242.00
1039.331, 21829.00
1040.439, 21473.00
1041.547, 21612.00
1042.655, 21138.00
1043.762, 21022.00
1044.869, 20947.00
1045.976, 20680.96
1047.083, 20313.00
1048.190, 20277.00
1049.297, 20143.00
1050.403, 19722.00
1051.509, 19786.00
1052.615, 19511.00
1053.721, 19331.00
1054.827, 19133.00
1055.933, 18985.00
1057.038, 18872.00
1058.143, 18755.33
1059.248, 18602.98
1060.353, 18466.00
1061.458, 18376.00
1062.563, 17967.00
1063.667, 17975.00
1064.771, 17626.00
1065.875, 17905.00
1066.979, 17896.00
1068.083, 17765.00
1069.186, 17562.00
1070.290, 17370.00
1071.393, 17408.00
1072.496, 17223.59
1073.599, 17392.00
1074.702, 17107.00
1075.804, 17130.43
1076.907, 17237.82
1078.009, 17267.09
1079.111, 17222.38
1080.213, 16882.08
1081.315, 16923.47
1082.416, 16811.95
1083.517, 16694.17
1084.619, 16789.27
1085.720, 16492.03
1086.821, 16583.81
1087.921, 16507.00
1089.022, 16466.00
1090.122, 16314.00
1091.222, 16147.00
1092.322, 16154.00
1093.422, 16143.00
1094.522, 16016.00
1095.622, 15968.00
1096.721, 15863.00
1097.820, 15575.00
1098.919, 15697.00
1100.018, 15456.00
1101.117, 15208.00
1102.215, 15275.00
1103.314, 15205.00
1104.412, 15171.00
1105.510, 15004.00
1106.608, 14960.00
1107.705, 14849.00
1108.803, 14817.00
1109.900, 14687.00
1110.997, 14680.00
1112.094, 14769.00
1113.191, 14647.00
1114.288, 14694.00
1115.384, 14544.00
1116.481, 14761.00
1117.577, 14693.00
1118.673, 14445.00
1119.769, 14586.00
1120.864, 14591.00
1121.960, 14553.99
1123.055, 14456.00
1124.150, 14528.00
1125.245, 14462.86
1126.340, 14349.43
1127.434, 14524.17
1128.529, 14620.71
1129.623, 14643.28
1130.717, 14370.27
1131.811, 14478.94
1132.905, 14434.65
1133.999, 14384.08
1135.092, 14546.48
1136.185, 14316.46
1137.279, 14475.47
1138.371, 14479.19
1139.464, 14553.99
1140.557, 14474.88
1141.649, 14443.31
1142.742, 14565.69
1143.834, 14602.82
1144.926, 14506.00
1146.017, 14585.32
1147.109, 14349.93
1148.200, 14390.70
1149.292, 14364.00
1150.383, 14441.00
1151.474, 14479.03
1152.564, 14309.00
1153.655, 14460.00
1154.745, 14533.00
1155.835, 14326.00
1156.925, 14371.00
1158.015, 14250.00
1159.105, 14349.00
1160.195, 14307.00
1161.284, 14298.80
1162.373, 14382.19
1163.462, 14264.00
1164.551, 14504.00
1165.640, 14435.00
1166.728, 14468.00
1167.817, 14376.00
1168.905, 14512.00
1169.993, 14375.00
1171.081, 14380.00
1172.168, 14453.00
1173.256, 14322.00
1174.343, 14382.29
1175.430, 14431.00
1176.517, 14360.00
1177.604, 14378.00
1178.691, 14295.00
1179.777, 14295.00
1180.864, 14105.00
1181.950, 14206.53
1183.036, 14539.00
1184.121, 14284.00
1185.207, 14411.00
1186.293, 14313.00
1187.378, 14429.00
1188.463, 14393.00
1189.548, 14388.00
1190.633, 14408.00
1191.717, 14375.00
1192.802, 14421.00
1193.886, 14424.64
1194.970, 14390.00
1196.054, 14473.00
1197.138, 14444.00
1198.221, 14482.61
1199.305, 14427.00
1200.388, 14475.00
1201.471, 14362.00
1202.554, 14362.00
1203.637, 14452.00
1204.719, 14233.00
1205.801, 14451.00
1206.884, 14413.00
1207.966, 14484.00
1209.048, 14261.00
1210.129, 14355.00
1211.211, 14450.00
1212.292, 14406.00
1213.373, 14483.00
1214.454, 14492.84
1215.535, 14699.00
1216.616, 14481.00
1217.696, 14448.00
1218.777, 14348.00
1219.857, 14488.00
1220.937, 14383.00
1222.017, 14444.00
1223.096, 14258.00
1224.176, 14420.00
1225.255, 14471.00
1226.334, 14311.00
1227.413, 14479.00
1228.492, 14365.00
1229.570, 14512.00
1230.649, 14317.00
1231.727, 14334.00
1232.805, 14515.00
1233.883, 14502.00
1234.961, 14497.14
1236.038, 14586.00
1237.116, 14471.00
1238.193, 14487.00
1239.270, 14618.00
1240.347, 14588.00
1241.424, 14611.00
1242.500, 14596.00
1243.577, 14542.00
1244.653, 14449.00
1245.729, 14420.51
1246.805, 14399.47
1247.880, 14393.00
1248.956, 14364.00
1250.031, 14519.00
1251.106, 14443.00
1252.181, 14490.00
1253.256, 14433.00
1254.331, 14418.65
1255.405, 14439.74
1256.480, 14406.00
1257.554, 14487.00
1258.628, 14546.00
1259.701, 14623.00
1260.775, 14456.00
1261.849, 14505.00
1262.922, 14361.00
1263.995, 14378.00
1265.068, 14501.00
1266.141, 14378.18
1267.213, 14521.00
1268.286, 14345.00
1269.358, 14365.00
1270.430, 14487.00
1271.502, 14457.00
1272.573, 14468.00
1273.645, 14432.00
1274.716, 14570.00
1275.788, 14562.00
1276.859, 14424.00
1277.929, 14350.00
1279.000, 14495.00
1280.071, 14462.00
1281.141, 14408.00
1282.211, 14378.00
1283.281, 14396.00
1284.351, 14403.00
1285.421, 14418.00
1286.490, 14446.33
1287.559, 14556.00
1288.628, 14470.97
1289.697, 14535.00
1290.766, 14473.00
1291.835, 14486.00
1292.903, 14493.00
1293.972, 14474.17
1295.040, 14505.00
1296.108, 14477.00
1297.175, 14497.02
1298.243, 14304.78
1299.310, 14530.91
1300.377, 14662.41
1301.444, 14704.34
1302.511, 14388.46
1303.578, 14534.62
1304.645, 14495.62
1305.711, 14449.01
1306.777, 14660.19
1307.843, 14396.35
1308.909, 14603.44
1309.975, 14622.54
1311.040, 14566.16
1312.105, 14743.00
1313.171, 14517.00
1314.235, 14672.00
1315.300, 14689.00
1316.365, 14647.00
1317.429, 14601.00
1318.494, 14604.00
1319.558, 14653.00
1320.622, 14638.69
1321.685, 14599.17
1322.749, 14779.51
1323.812, 14881.67
1324.876, 14909.85
1325.939, 14642.45
1327.001, 14756.72
1328.064, 14718.03
1329.127, 14673.08
1330.189, 14841.07
1331.251, 14616.66
1332.313, 14781.27
1333.375, 14790.59
1334.437, 14870.99
1335.498, 14797.48
1336.560, 14771.51
1337.621, 14899.49
1338.682, 14942.22
1339.742, 14850.99
1340.803, 14935.90
1341.863, 14706.11
1342.924, 14752.47
1343.984, 14917.99
1345.044, 14834.50
1346.104, 14922.22
1347.163, 14944.74
1348.222, 14670.91
1349.282, 14912.45
1350.341, 14931.11
1351.400, 14720.92
1352.458, 14944.80
1353.517, 14766.17
1354.575, 14731.20
1355.633, 14804.36
1356.691, 14621.14
1357.749, 14803.29
1358.807, 14907.26
1359.864, 14937.23
1360.922, 14671.64
1361.979, 14787.71
1363.036, 14750.83
1364.092, 14707.68
1365.149, 14877.47
1366.205, 14654.86
1367.262, 14821.28
1368.318, 14832.40
1369.374, 14914.60
1370.429, 14842.89
1371.485, 14818.72
1372.540, 14948.50
1373.596, 14993.04
1374.651, 14903.61
1375.705, 14990.32
1376.760, 14762.33
1377.815, 14810.49
1378.869, 14977.80
1379.923, 14896.11
1380.977, 14985.63
1382.031, 15009.95
1383.085, 14737.92
1384.138, 14981.26
1385.191, 15001.71
1386.244, 14793.32
1387.297, 15019.00
1388.350, 14842.16
1389.403, 14808.99
1390.455, 14883.95
1391.507, 14846.19
1392.559, 14946.00
1393.611, 14961.00
1394.663, 14806.00
1395.714, 14789.00
1396.766, 14843.00
1397.817, 14900.00
1398.868, 14786.00
1399.919, 14917.00
1400.969, 14956.00
1402.020, 14843.00
1403.070, 14990.00
1404.120, 14904.00
1405.170, 15032.00
1406.220, 14713.00
1407.270, 14813.00
1408.319, 14874.00
1409.368, 14927.00
1410.417, 15055.00
1411.466, 14774.00
1412.515, 15045.00
1413.563, 14881.00
1414.612, 14991.00
1415.660, 14929.00
1416.708, 14957.00
1417.756, 14966.00
1418.803, 14890.48
1419.851, 15066.00
1420.898, 15163.56
1421.945, 15187.36
1422.992, 14915.79
1424.039, 15026.11
1425.086, 14983.70
1426.132, 14935.23
1427.178, 15099.93
1428.225, 14872.44
1429.270, 15034.20
1430.316, 15040.88
1431.362, 15118.85
1432.407, 15043.13
1433.452, 15015.17
1434.497, 15141.38
1435.542, 15182.55
1436.587, 15089.99
1437.631, 15173.77
1438.676, 14943.08
1439.720, 14988.75
1440.764, 15153.79
1441.807, 15070.04
1442.851, 15157.72
1443.895, 15180.41
1444.938, 14906.97
1445.981, 15149.12
1447.024, 15168.60
1448.066, 14959.45
1449.109, 15184.58
1450.151, 15007.41
1451.194, 14974.13
1452.236, 15049.19
1453.277, 15011.74
1454.319, 15152.22
1455.361, 15121.71
1456.402, 15076.12
1457.443, 15097.50
1458.484, 15057.53
1459.525, 15113.51
1460.565, 15057.59
1461.606, 15121.04
1462.646, 15211.70
1463.686, 15095.78
1464.726, 15199.01
1465.766, 14962.94
1466.805, 15011.16
1467.845, 15029.01
1468.884, 15228.65
1469.923, 14995.08
1470.962, 15036.27
1472.000, 15194.55
1473.039, 15189.50
1474.077, 15253.04
1475.115, 15114.33
1476.153, 15166.03
1477.191, 15225.25
1478.229, 15129.35
1479.266, 15209.60
1480.303, 14975.14
1481.340, 15016.84
1482.377, 15177.69
1483.414, 15089.54
1484.451, 15172.60
1485.487, 15072.00
1486.523, 15167.00
1487.559, 15018.00
1488.595, 15148.00
1489.631, 15077.00
1490.666, 14917.00
1491.701, 15232.00
1492.736, 15098.00
1493.771, 15245.00
1494.806, 15162.00
1495.841, 15164.00
1496.875, 15173.00
1497.909, 15021.00
1498.943, 15132.00
1499.977, 15124.00
1501.011, 15037.00
1502.045, 15118.00
1503.078, 15075.00
1504.111, 15057.86
1505.144, 15068.02
1506.177, 14993.00
1507.209, 15045.00
1508.242, 14963.00
1509.274, 14960.20
1510.306, 15067.64
1511.338, 15080.00
1512.370, 15198.00
1513.402, 15370.00
1514.433, 15222.00
1515.464, 15061.00
1516.495, 15123.00
1517.526, 15336.00
1518.557, 15236.39
1519.587, 15260.18
1520.617, 15253.00
1521.648, 15199.00
1522.678, 15194.00
1523.707, 15318.00
1524.737, 15242.00
1525.766, 15355.00
1526.796, 15293.51
1527.825, 15220.00
1528.854, 15172.00
1529.882, 15157.00
1530.911, 15081.00
1531.939, 15134.00
1532.967, 15097.96
1533.995, 15094.09
1535.023, 15114.00
1536.051, 15162.00
1537.078, 15074.89
1538.106, 15257.80
1539.133, 15362.51
1540.160, 15393.24
1541.186, 15128.39
1542.213, 15245.21
1543.239, 15209.08
1544.266, 15166.67
1545.292, 15337.22
1546.318, 15115.35
1547.343, 15282.52
1548.369, 15294.39
1549.394, 15377.33
1550.419, 15306.37
1551.444, 15282.94
1552.469, 15413.47
1553.494, 15458.75
1554.518, 15370.07
1555.542, 15457.53
1556.566, 15230.28
1557.590, 15279.19
1558.614, 15447.25
1559.638, 15366.31
1560.661, 15456.57
1561.684, 15481.63
1562.707, 15210.35
1563.730, 15454.43
1564.753, 15179.00
1565.775, 15245.00
1566.797, 15586.00
1567.819, 15224.00
1568.841, 15291.00
1569.863, 15253.00
1570.885, 15215.00
1571.906, 15323.00
1572.927, 15591.00
1573.948, 15347.00
1574.969, 15278.00
1575.990, 15356.00
1577.010, 15189.00
##END=



