##NAMES=Gehlenite
##RRUFFID=R061091
##IDEAL CHEMISTRY=Ca_2_Al(SiAl)O_7_
##LOCALITY=Carneal Plug, Glenoe Larne District, County Antrim, Northern Ireland
##OWNER=RRUFF
##SOURCE=Michael Scott
##DESCRIPTION=Yellowish-brown anhedral blebs associated with black magnetite and white wollastonite
##STATUS=The identification of this mineral is confirmed by single-crystal X-ray diffraction and chemical analysis.
##URL=rruff.info/R061091
##MEASURED CHEMISTRY=(Ca_1.64_Na_0.36_)_Σ=2_(Al_0.38_Fe_0.36_Mg_0.26_)_Σ=1_(Si_1.98_Al_0.02_)_Σ=2_O_7_
##PIN_ID=M01135
##ORIENTATION=Laser parallel to c* (0 0 1). Fiducial mark perpendicular to laser is parallel to a [1 0 0]
96.86900, 30944.70
98.10600, 30263.24
99.34400, 30423.48
100.5810, 30432.23
101.8190, 30297.31
103.0560, 29589.24
104.2930, 29621.48
105.5290, 29357.19
106.7660, 29080.58
108.0020, 29217.17
109.2390, 28592.48
110.4750, 28722.52
111.7110, 28551.35
112.9460, 28518.18
114.1820, 28186.35
115.4170, 27946.87
116.6530, 28005.85
117.8880, 27899.63
119.1230, 27533.59
120.3580, 27509.19
121.5920, 27199.00
122.8270, 27524.00
124.0610, 27157.00
125.2950, 26716.00
126.5290, 25757.00
127.7630, 25576.00
128.9970, 25418.00
130.2300, 25362.00
131.4640, 25410.00
132.6970, 25091.00
133.9300, 25120.00
135.1630, 25138.00
136.3950, 24866.00
137.6280, 24536.00
138.8600, 24619.00
140.0920, 24457.00
141.3240, 24303.00
142.5560, 23956.00
143.7880, 23956.00
145.0190, 23912.00
146.2510, 23654.00
147.4820, 23585.43
148.7130, 23457.22
149.9440, 23242.00
151.1750, 23269.00
152.4050, 23087.00
153.6360, 23068.00
154.8660, 22946.00
156.0960, 22962.00
157.3260, 22580.00
158.5560, 22645.00
159.7850, 22373.00
161.0150, 22387.00
162.2440, 22342.00
163.4730, 22289.00
164.7020, 22295.95
165.9310, 22274.90
167.1590, 22254.00
168.3880, 22279.00
169.6160, 22210.00
170.8440, 22204.00
172.0720, 22285.00
173.3000, 22006.00
174.5280, 22103.00
175.7550, 22100.00
176.9820, 22218.00
178.2100, 22330.00
179.4370, 22314.00
180.6630, 22084.00
181.8900, 21963.00
183.1170, 22334.00
184.3430, 22078.00
185.5690, 22409.00
186.7950, 22385.00
188.0210, 22378.00
189.2470, 22528.00
190.4720, 22433.00
191.6970, 22586.00
192.9230, 22258.00
194.1480, 22339.00
195.3730, 22390.00
196.5970, 22622.00
197.8220, 22593.00
199.0460, 22761.00
200.2700, 22753.00
201.4940, 22678.00
202.7180, 23026.00
203.9420, 22822.00
205.1660, 23074.00
206.3890, 23292.18
207.6120, 23406.00
208.8350, 23873.00
210.0580, 24186.00
211.2810, 24627.00
212.5040, 25195.00
213.7260, 25562.00
214.9480, 26273.00
216.1700, 26537.72
217.3920, 26463.00
218.6140, 27095.00
219.8360, 27153.00
221.0570, 27267.00
222.2790, 27679.00
223.5000, 27972.00
224.7210, 27965.00
225.9410, 28003.00
227.1620, 27771.00
228.3820, 27654.00
229.6030, 27344.00
230.8230, 27029.00
232.0430, 26766.00
233.2630, 26591.00
234.4820, 26199.68
235.7020, 25944.49
236.9210, 25707.00
238.1400, 25132.00
239.3590, 24908.04
240.5780, 24596.00
241.7970, 24263.00
243.0150, 23938.00
244.2340, 23697.00
245.4520, 23395.60
246.6700, 23111.00
247.8880, 22896.00
249.1060, 22681.00
250.3230, 22219.95
251.5400, 22413.71
252.7580, 22455.70
253.9750, 22354.31
255.1920, 21679.60
256.4080, 21745.34
257.6250, 21514.26
258.8410, 21271.14
260.0580, 21440.95
261.2740, 20849.76
262.4900, 21013.14
263.7050, 20875.43
264.9210, 20875.46
266.1360, 20577.09
267.3520, 20370.80
268.5670, 20463.25
269.7820, 20390.35
270.9960, 19938.00
272.2110, 19681.00
273.4250, 19599.00
274.6400, 19624.00
275.8540, 19663.00
277.0680, 19575.00
278.2810, 19404.00
279.4950, 19061.00
280.7090, 19104.00
281.9220, 19114.00
283.1350, 18908.00
284.3480, 18914.00
285.5610, 18815.00
286.7730, 18806.00
287.9860, 18825.00
289.1980, 18831.00
290.4100, 18760.00
291.6220, 18799.00
292.8340, 18736.85
294.0460, 18668.00
295.2570, 18630.00
296.4690, 18635.00
297.6800, 18554.00
298.8910, 18451.00
300.1020, 18547.00
301.3120, 18287.00
302.5230, 18500.00
303.7330, 18155.00
304.9440, 17984.00
306.1540, 18295.00
307.3630, 18112.00
308.5730, 17911.00
309.7830, 17830.00
310.9920, 17676.00
312.2010, 17629.00
313.4100, 17387.00
314.6190, 17281.00
315.8280, 17180.00
317.0370, 17113.00
318.2450, 16753.00
319.4530, 16778.00
320.6610, 16583.00
321.8690, 16448.00
323.0770, 16422.00
324.2850, 16367.00
325.4920, 16220.00
326.6990, 16227.00
327.9060, 15912.00
329.1130, 15905.00
330.3200, 15821.00
331.5270, 15801.00
332.7330, 15550.00
333.9390, 15693.00
335.1450, 15695.00
336.3510, 15375.00
337.5570, 15411.00
338.7630, 15296.00
339.9680, 15293.00
341.1740, 15053.00
342.3790, 15048.00
343.5840, 14961.00
344.7890, 14856.87
345.9930, 14794.00
347.1980, 14682.00
348.4020, 14618.65
349.6060, 14539.70
350.8100, 14500.00
352.0140, 14395.00
353.2180, 14369.00
354.4210, 14304.00
355.6250, 14145.00
356.8280, 14140.00
358.0310, 14136.00
359.2340, 13856.00
360.4360, 13839.00
361.6390, 13713.00
362.8410, 13563.00
364.0430, 13553.00
365.2450, 13586.00
366.4470, 13432.65
367.6490, 13363.00
368.8510, 13223.00
370.0520, 13176.78
371.2530, 13237.00
372.4540, 13115.00
373.6550, 13156.00
374.8560, 13177.00
376.0560, 13131.00
377.2570, 13079.00
378.4570, 12971.00
379.6570, 13016.00
380.8570, 13109.00
382.0570, 13051.00
383.2560, 12855.00
384.4560, 13013.00
385.6550, 12897.00
386.8540, 12892.00
388.0530, 12927.00
389.2520, 12944.00
390.4510, 12879.00
391.6490, 12875.00
392.8470, 12836.00
394.0450, 12872.00
395.2430, 13010.00
396.4410, 12798.00
397.6390, 12854.81
398.8360, 12641.00
400.0340, 12782.00
401.2310, 12657.00
402.4280, 12668.00
403.6250, 12737.00
404.8210, 12779.00
406.0180, 12722.00
407.2140, 12741.00
408.4100, 12806.00
409.6060, 12704.00
410.8020, 12792.00
411.9980, 12772.00
413.1930, 12969.00
414.3890, 12899.00
415.5840, 12990.00
416.7790, 12968.00
417.9740, 12952.00
419.1680, 13080.00
420.3630, 13099.00
421.5570, 13210.00
422.7510, 13308.00
423.9450, 13411.00
425.1390, 13492.00
426.3330, 13629.00
427.5270, 13708.00
428.7200, 13956.00
429.9130, 14023.00
431.1060, 14436.00
432.2990, 14502.00
433.4920, 14965.00
434.6840, 15223.00
435.8770, 15348.00
437.0690, 15755.00
438.2610, 16107.00
439.4530, 16448.00
440.6450, 16706.00
441.8360, 17083.57
443.0280, 17464.94
444.2190, 17840.00
445.4100, 18278.00
446.6010, 18794.00
447.7920, 19179.00
448.9820, 19446.00
450.1730, 19624.00
451.3630, 20175.00
452.5530, 20176.00
453.7430, 20447.00
454.9330, 20666.00
456.1230, 20534.00
457.3120, 20705.00
458.5010, 20541.00
459.6910, 20492.00
460.8800, 20275.00
462.0680, 20546.00
463.2570, 20277.00
464.4460, 20437.00
465.6340, 20370.00
466.8220, 20659.00
468.0100, 20747.00
469.1980, 20959.00
470.3860, 21204.00
471.5730, 21621.00
472.7600, 21886.00
473.9480, 22658.00
475.1350, 22752.30
476.3210, 23225.00
477.5080, 23086.00
478.6950, 23384.00
479.8810, 23375.00
481.0670, 23797.00
482.2530, 23754.00
483.4390, 23813.00
484.6250, 23737.00
485.8100, 23553.96
486.9960, 23336.00
488.1810, 23106.00
489.3660, 22768.00
490.5510, 22559.00
491.7360, 22236.00
492.9200, 21774.00
494.1050, 21414.00
495.2890, 21239.00
496.4730, 21128.00
497.6570, 20732.00
498.8400, 20576.00
500.0240, 20244.00
501.2070, 20272.00
502.3910, 20055.00
503.5740, 19744.00
504.7570, 19910.00
505.9400, 19852.00
507.1220, 20004.00
508.3050, 19893.00
509.4870, 19669.00
510.6690, 19921.00
511.8510, 19771.00
513.0330, 19822.00
514.2140, 19694.00
515.3960, 19702.00
516.5770, 19653.00
517.7580, 19672.00
518.9390, 19636.00
520.1200, 19648.00
521.3010, 19470.00
522.4810, 19530.00
523.6610, 19598.00
524.8420, 19406.00
526.0220, 19179.00
527.2010, 19470.00
528.3810, 19336.00
529.5610, 19388.00
530.7400, 19139.00
531.9190, 19165.00
533.0980, 18815.00
534.2770, 18899.00
535.4560, 18712.00
536.6340, 18852.00
537.8120, 18549.00
538.9910, 18491.00
540.1690, 18670.00
541.3460, 18533.00
542.5240, 18312.00
543.7020, 18112.00
544.8790, 18242.00
546.0560, 18158.00
547.2330, 18173.00
548.4100, 18004.00
549.5870, 17902.00
550.7630, 17824.00
551.9400, 17626.00
553.1160, 17588.77
554.2920, 17661.00
555.4680, 17484.00
556.6440, 17516.00
557.8190, 17541.00
558.9950, 17283.00
560.1700, 17303.00
561.3450, 17429.00
562.5200, 17269.00
563.6950, 17141.00
564.8690, 17294.00
566.0440, 17098.00
567.2180, 17139.00
568.3920, 17220.00
569.5660, 17211.00
570.7400, 17214.00
571.9130, 17056.00
573.0870, 17189.00
574.2600, 17069.00
575.4330, 17160.00
576.6060, 17162.00
577.7790, 17155.00
578.9520, 17120.00
580.1240, 17166.00
581.2960, 17103.00
582.4690, 17223.25
583.6410, 17444.00
584.8120, 17487.00
585.9840, 17716.00
587.1560, 17924.00
588.3270, 18092.00
589.4980, 18382.00
590.6690, 18571.00
591.8400, 18950.00
593.0110, 19243.00
594.1810, 19802.00
595.3510, 20125.00
596.5220, 20426.00
597.6920, 20981.00
598.8610, 21391.00
600.0310, 22177.00
601.2010, 22688.00
602.3700, 23383.00
603.5390, 24185.00
604.7080, 24855.00
605.8770, 25738.00
607.0460, 26882.00
608.2140, 27969.19
609.3830, 29343.00
610.5510, 30895.00
611.7190, 32383.00
612.8870, 34644.00
614.0550, 36521.00
615.2220, 39164.00
616.3900, 42092.00
617.5570, 45114.00
618.7240, 48387.00
619.8910, 52088.00
621.0580, 56471.00
622.2240, 59909.00
623.3910, 63788.83
624.5570, 67411.00
625.7230, 70729.00
626.8890, 73381.00
628.0550, 75805.00
629.2200, 76023.00
630.3860, 76190.00
631.5510, 75607.00
632.7160, 73290.00
633.8810, 70525.00
635.0460, 67121.00
636.2100, 63679.00
637.3750, 59956.00
638.5390, 56809.00
639.7030, 53957.00
640.8670, 51822.00
642.0310, 50199.00
643.1950, 49846.00
644.3580, 49984.00
645.5210, 50366.00
646.6850, 52238.00
647.8480, 55062.00
649.0100, 58107.00
650.1730, 62297.00
651.3350, 67046.00
652.4980, 72375.00
653.6600, 78296.00
654.8220, 83438.00
655.9840, 88756.00
657.1450, 93726.00
658.3070, 98640.00
659.4680, 102678.0
660.6300, 105268.0
661.7910, 106888.0
662.9510, 107668.0
664.1120, 108249.0
665.2730, 107947.0
666.4330, 105065.0
667.5930, 100729.0
668.7530, 96429.00
669.9130, 91579.00
671.0730, 86335.00
672.2320, 81147.00
673.3920, 76029.00
674.5510, 70408.00
675.7100, 65585.00
676.8690, 61052.00
678.0280, 56979.00
679.1860, 52758.00
680.3450, 49349.00
681.5030, 46524.00
682.6610, 43290.00
683.8190, 40719.00
684.9770, 38336.00
686.1340, 36401.00
687.2920, 34604.00
688.4490, 32773.00
689.6060, 31544.00
690.7630, 30396.00
691.9200, 29158.15
693.0760, 28162.00
694.2330, 27221.00
695.3890, 26395.00
696.5450, 25612.00
697.7010, 24922.41
698.8570, 24417.00
700.0130, 23717.00
701.1680, 23311.00
702.3230, 22792.02
703.4780, 22517.00
704.6330, 22061.00
705.7880, 21807.00
706.9430, 21559.00
708.0970, 21126.00
709.2520, 20791.00
710.4060, 20517.00
711.5600, 20306.00
712.7140, 19900.00
713.8670, 19688.00
715.0210, 19444.00
716.1740, 18917.12
717.3270, 19042.40
718.4800, 19016.04
719.6330, 18846.17
720.7860, 18102.98
721.9380, 18100.31
723.0910, 17800.76
724.2430, 17489.23
725.3950, 17590.75
726.5470, 17032.00
727.6980, 16904.00
728.8500, 16668.00
730.0010, 16541.00
731.1530, 16293.00
732.3040, 16250.00
733.4550, 16033.00
734.6050, 15971.00
735.7560, 15814.00
736.9060, 15698.00
738.0560, 15701.00
739.2060, 15380.00
740.3560, 15146.00
741.5060, 15095.00
742.6560, 15068.00
743.8050, 14847.00
744.9540, 14662.00
746.1030, 14715.00
747.2520, 14654.00
748.4010, 14478.00
749.5500, 14164.00
750.6980, 14150.00
751.8460, 14009.00
752.9950, 13964.00
754.1420, 13799.00
755.2900, 13608.00
756.4380, 13466.00
757.5850, 13354.00
758.7330, 13280.00
759.8800, 13231.00
761.0270, 13120.00
762.1730, 12941.00
763.3200, 13005.00
764.4670, 12842.00
765.6130, 12815.00
766.7590, 12675.00
767.9050, 12804.00
769.0510, 12743.00
770.1960, 12493.00
771.3420, 12683.00
772.4870, 12561.00
773.6320, 12523.00
774.7770, 12622.00
775.9220, 12531.00
777.0670, 12484.00
778.2110, 12520.00
779.3560, 12453.00
780.5000, 12550.00
781.6440, 12574.00
782.7880, 12467.00
783.9320, 12644.00
785.0750, 12428.00
786.2180, 12579.00
787.3620, 12738.00
788.5050, 12629.18
789.6480, 12585.00
790.7900, 12582.00
791.9330, 12665.00
793.0750, 12619.00
794.2170, 12606.00
795.3590, 12549.00
796.5010, 12629.00
797.6430, 12603.00
798.7850, 12544.00
799.9260, 12727.00
801.0670, 12575.00
802.2080, 12683.00
803.3490, 12693.00
804.4900, 12645.00
805.6310, 12688.00
806.7710, 12614.00
807.9110, 12748.00
809.0510, 12590.00
810.1910, 12815.00
811.3310, 12819.00
812.4710, 12873.00
813.6100, 12998.00
814.7490, 12922.00
815.8880, 13145.00
817.0270, 13233.00
818.1660, 13220.00
819.3050, 13281.00
820.4430, 13530.00
821.5820, 13415.00
822.7200, 13643.00
823.8580, 13697.00
824.9950, 13856.00
826.1330, 14022.00
827.2710, 14277.00
828.4080, 14133.00
829.5450, 14469.00
830.6820, 14647.00
831.8190, 14731.00
832.9560, 15212.00
834.0920, 15401.00
835.2280, 15683.00
836.3650, 15892.00
837.5010, 16167.00
838.6360, 16518.00
839.7720, 16721.00
840.9080, 17309.00
842.0430, 17575.00
843.1780, 17943.00
844.3130, 18521.00
845.4480, 18996.00
846.5830, 19347.00
847.7170, 19787.00
848.8520, 20458.00
849.9860, 21034.00
851.1200, 21457.00
852.2540, 22115.00
853.3870, 22603.00
854.5210, 23164.00
855.6540, 23507.00
856.7880, 23833.00
857.9210, 24250.00
859.0540, 24650.00
860.1860, 24804.00
861.3190, 24624.00
862.4510, 24414.00
863.5840, 24170.00
864.7160, 23823.00
865.8480, 23382.00
866.9790, 22832.00
868.1110, 22363.00
869.2420, 22027.00
870.3740, 21700.00
871.5050, 21395.00
872.6360, 20999.00
873.7660, 21025.00
874.8970, 20981.00
876.0280, 21024.00
877.1580, 21372.00
878.2880, 21762.00
879.4180, 22167.00
880.5480, 22603.00
881.6770, 23338.00
882.8070, 23720.00
883.9360, 24532.00
885.0650, 25280.00
886.1940, 26290.00
887.3230, 26807.00
888.4520, 27618.00
889.5800, 28730.00
890.7090, 29736.00
891.8370, 30928.00
892.9650, 32011.00
894.0930, 33653.00
895.2200, 35225.00
896.3480, 36985.00
897.4750, 38878.00
898.6020, 41058.00
899.7290, 43546.00
900.8560, 46324.00
901.9830, 49394.00
903.1090, 52723.00
904.2360, 56302.11
905.3620, 60234.00
906.4880, 64314.00
907.6140, 68675.19
908.7400, 73450.00
909.8650, 78071.00
910.9900, 83294.00
912.1160, 88647.00
913.2410, 93461.00
914.3660, 98368.00
915.4900, 102518.0
916.6150, 107003.0
917.7390, 110194.0
918.8640, 112830.0
919.9880, 114109.0
921.1120, 113688.0
922.2350, 112277.0
923.3590, 109547.0
924.4820, 105796.0
925.6060, 100937.0
926.7290, 95316.00
927.8520, 90278.00
928.9740, 84418.00
930.0970, 78824.00
931.2190, 73844.00
932.3420, 68808.00
933.4640, 65120.00
934.5860, 60735.00
935.7080, 57172.00
936.8290, 54236.00
937.9510, 51152.00
939.0720, 48816.00
940.1930, 46325.00
941.3140, 44176.00
942.4350, 42437.00
943.5560, 41012.00
944.6760, 39227.00
945.7960, 38123.00
946.9170, 37347.00
948.0370, 35830.00
949.1560, 35534.00
950.2760, 34627.00
951.3960, 33910.00
952.5150, 33488.00
953.6340, 32909.00
954.7530, 32351.00
955.8720, 31878.00
956.9910, 31326.52
958.1090, 31000.00
959.2280, 30336.00
960.3460, 29821.00
961.4640, 29398.00
962.5820, 28780.00
963.6990, 28011.00
964.8170, 27564.00
965.9340, 27165.00
967.0510, 26398.00
968.1690, 25934.00
969.2850, 25450.00
970.4020, 24982.00
971.5190, 24332.00
972.6350, 24040.00
973.7510, 23585.00
974.8670, 23074.00
975.9830, 22775.00
977.0990, 22494.00
978.2150, 22153.00
979.3300, 21877.00
980.4450, 21884.00
981.5600, 21593.00
982.6750, 21749.00
983.7900, 21453.00
984.9050, 21349.00
986.0190, 21265.00
987.1340, 21326.00
988.2480, 21172.00
989.3620, 21023.00
990.4750, 20872.00
991.5890, 20683.00
992.7020, 20640.00
993.8160, 20362.00
994.9290, 20437.00
996.0420, 20129.00
997.1550, 20019.00
998.2670, 20076.00
999.3800, 19914.00
1000.492, 19652.00
1001.604, 19504.00
1002.716, 19456.00
1003.828, 19310.00
1004.940, 19125.00
1006.051, 18832.00
1007.163, 18816.00
1008.274, 18605.48
1009.385, 18478.00
1010.496, 18391.00
1011.606, 18257.37
1012.717, 18201.63
1013.827, 18096.00
1014.937, 18043.00
1016.047, 18013.00
1017.157, 17834.00
1018.267, 17658.00
1019.377, 17764.00
1020.486, 17696.00
1021.595, 17459.00
1022.704, 17373.00
1023.813, 17451.00
1024.922, 17362.00
1026.030, 17207.00
1027.139, 17216.00
1028.247, 17218.00
1029.355, 17184.00
1030.463, 17019.00
1031.571, 16948.00
1032.678, 16744.00
1033.786, 16730.00
1034.893, 16694.00
1036.000, 16806.00
1037.107, 16659.00
1038.214, 16552.00
1039.321, 16358.00
1040.427, 16298.00
1041.533, 16145.00
1042.639, 16063.00
1043.745, 16084.00
1044.851, 15931.29
1045.957, 15897.00
1047.062, 15759.00
1048.168, 15569.00
1049.273, 15534.00
1050.378, 15484.00
1051.482, 15349.00
1052.587, 15207.00
1053.692, 15085.00
1054.796, 15070.00
1055.900, 14730.00
1057.004, 14900.00
1058.108, 14639.00
1059.212, 14676.00
1060.315, 14582.00
1061.418, 14379.00
1062.522, 14303.00
1063.625, 14139.00
1064.728, 14171.00
1065.830, 14202.00
1066.933, 14129.00
1068.035, 14178.00
1069.137, 14037.00
1070.239, 13987.00
1071.341, 13800.00
1072.443, 13809.00
1073.545, 13862.00
1074.646, 13628.00
1075.747, 13812.00
1076.848, 13587.00
1077.949, 13675.00
1079.050, 13660.00
1080.150, 13694.00
1081.251, 13643.00
1082.351, 13615.00
1083.451, 13614.66
1084.551, 13618.00
1085.651, 13573.00
1086.750, 13585.00
1087.850, 13536.00
1088.949, 13571.00
1090.048, 13606.93
1091.147, 13725.00
1092.246, 13751.00
1093.345, 13743.00
1094.443, 13872.00
1095.541, 14036.00
1096.639, 14106.00
1097.737, 14041.00
1098.835, 13978.00
1099.933, 13889.00
1101.030, 13564.00
1102.128, 13447.00
1103.225, 12968.00
1104.322, 12803.00
1105.419, 12496.00
1106.515, 12239.00
1107.612, 12119.00
1108.708, 11869.00
1109.804, 11928.00
1110.900, 11661.00
1111.996, 11693.00
1113.092, 11693.00
1114.187, 11692.00
1115.283, 11696.00
1116.378, 11568.00
1117.473, 11578.00
1118.568, 11719.00
1119.662, 11620.00
1120.757, 11687.00
1121.851, 11657.00
1122.946, 11639.00
1124.040, 11597.00
1125.134, 11483.00
1126.227, 11470.00
1127.321, 11374.00
1128.414, 11326.33
1129.508, 11218.00
1130.601, 11244.00
1131.693, 11185.00
1132.786, 11177.00
1133.879, 11212.00
1134.971, 11125.00
1136.064, 11162.00
1137.156, 11019.00
1138.248, 11167.00
1139.339, 10935.00
1140.431, 11155.00
1141.522, 11075.00
1142.614, 11084.00
1143.705, 11054.00
1144.796, 11081.00
1145.887, 11088.00
1146.977, 11183.00
1148.068, 11083.00
1149.158, 10963.00
1150.248, 11005.00
1151.338, 11067.00
1152.428, 11014.00
1153.518, 11052.15
1154.607, 10935.00
1155.696, 11043.00
1156.785, 10982.00
1157.874, 10956.00
1158.963, 10837.00
1160.052, 10930.00
1161.141, 10942.00
1162.229, 10976.00
1163.317, 10918.00
1164.405, 10994.00
1165.493, 10916.00
1166.581, 10981.00
1167.668, 10914.77
1168.756, 10863.00
1169.843, 10857.00
1170.930, 10855.00
1172.017, 10978.00
1173.103, 10658.00
1174.190, 10812.00
1175.276, 10972.00
1176.363, 10803.00
1177.449, 10904.00
1178.535, 10834.00
1179.620, 10812.00
1180.706, 10864.00
1181.791, 10856.00
1182.877, 10884.00
1183.962, 11003.00
1185.047, 10967.00
1186.131, 10835.00
1187.216, 10921.00
1188.300, 10873.00
1189.385, 10916.00
1190.469, 10802.00
1191.553, 10868.00
1192.637, 10941.00
1193.720, 10887.00
1194.804, 10911.00
1195.887, 10923.00
1196.970, 11023.00
1198.053, 10660.00
1199.136, 10800.00
1200.219, 10697.00
1201.301, 10906.00
1202.383, 10860.00
1203.465, 10852.00
1204.547, 10883.00
1205.629, 10931.00
1206.711, 10880.00
1207.792, 10911.00
1208.874, 10835.00
1209.955, 10815.00
1211.036, 10706.00
1212.117, 10869.00
1213.198, 10872.00
1214.278, 10797.00
1215.359, 10791.00
1216.439, 10836.00
1217.519, 10834.00
1218.599, 10835.00
1219.678, 10905.00
1220.758, 10985.00
1221.837, 10888.00
1222.917, 10772.00
1223.996, 10936.00
1225.075, 10865.00
1226.153, 10847.00
1227.232, 10844.00
1228.310, 10880.00
1229.389, 10833.00
1230.467, 10927.00
1231.545, 10842.00
1232.622, 10923.00
1233.700, 10871.18
1234.777, 10746.00
1235.855, 10843.00
1236.932, 10620.00
1238.009, 10727.00
1239.086, 10885.00
1240.162, 10654.00
1241.239, 10756.00
1242.315, 10727.00
1243.391, 10795.00
1244.467, 10789.00
1245.543, 10788.00
1246.619, 10713.00
1247.694, 10744.00
1248.769, 10834.00
1249.844, 10793.00
1250.919, 10592.00
1251.994, 10715.00
1253.069, 10661.00
1254.144, 10720.00
1255.218, 10673.00
1256.292, 10578.00
1257.366, 10698.00
1258.440, 10605.00
1259.514, 10537.00
1260.587, 10752.00
1261.661, 10762.00
1262.734, 10706.00
1263.807, 10678.00
1264.880, 10661.00
1265.952, 10620.00
1267.025, 10589.00
1268.097, 10600.00
1269.170, 10592.00
1270.242, 10558.00
1271.314, 10520.00
1272.385, 10576.00
1273.457, 10574.00
1274.528, 10581.00
1275.600, 10489.00
1276.671, 10569.00
1277.742, 10425.00
1278.812, 10619.00
1279.883, 10505.00
1280.954, 10552.00
1282.024, 10528.00
1283.094, 10452.00
1284.164, 10451.00
1285.234, 10443.18
1286.303, 10363.00
1287.373, 10474.00
1288.442, 10411.00
1289.511, 10438.00
1290.580, 10460.00
1291.649, 10470.00
1292.718, 10382.00
1293.786, 10523.00
1294.855, 10411.00
1295.923, 10480.00
1296.991, 10439.00
1298.059, 10460.00
1299.126, 10503.00
1300.194, 10542.00
1301.261, 10582.00
1302.328, 10502.00
1303.395, 10498.00
1304.462, 10494.00
1305.529, 10476.00
1306.596, 10498.90
1307.662, 10493.00
1308.728, 10542.00
1309.794, 10577.00
1310.860, 10601.53
1311.926, 10724.00
1312.991, 10617.37
1314.057, 10519.00
1315.122, 10483.00
1316.187, 10640.00
1317.252, 10436.00
1318.317, 10604.00
1319.381, 10430.00
1320.446, 10710.00
1321.510, 10656.00
1322.574, 10620.00
1323.638, 10595.00
1324.702, 10715.00
1325.766, 10572.00
1326.829, 10657.00
1327.892, 10763.00
1328.956, 10677.00
1330.019, 10670.00
1331.081, 10674.00
1332.144, 10604.00
1333.206, 10620.00
1334.269, 10680.00
1335.331, 10749.00
1336.393, 10545.00
1337.455, 10748.00
1338.516, 10603.00
1339.578, 10613.00
1340.639, 10593.00
1341.701, 10618.00
1342.762, 10664.00
1343.822, 10607.00
1344.883, 10663.17
1345.944, 10689.00
1347.004, 10696.00
1348.064, 10688.00
1349.124, 10659.00
1350.184, 10736.00
1351.244, 10701.92
1352.304, 10784.00
1353.363, 10721.00
1354.422, 10635.00
1355.481, 10689.00
1356.540, 10746.00
1357.599, 10549.00
1358.657, 10733.00
1359.716, 10831.08
1360.774, 10735.14
1361.832, 10776.64
1362.890, 10655.00
1363.948, 10700.00
1365.006, 10650.00
1366.063, 10732.00
1367.120, 10705.00
1368.178, 10751.00
1369.234, 10639.00
1370.291, 10754.00
1371.348, 10719.00
1372.404, 10790.00
1373.461, 10775.00
1374.517, 10638.00
1375.573, 10596.00
1376.629, 10609.00
1377.684, 10675.00
1378.740, 10524.00
1379.795, 10619.00
1380.850, 10568.00
1381.905, 10718.00
1382.960, 10632.00
1384.015, 10615.00
1385.070, 10667.00
1386.124, 10637.22
1387.178, 10695.00
1388.232, 10657.00
1389.286, 10617.00
1390.340, 10591.00
1391.393, 10593.00
1392.447, 10624.78
1393.500, 10603.93
1394.553, 10696.00
1395.606, 10616.00
1396.659, 10561.00
1397.711, 10603.00
1398.764, 10673.00
1399.816, 10613.00
1400.868, 10689.00
1401.920, 10691.00
1402.972, 10559.00
1404.023, 10605.00
1405.075, 10596.00
1406.126, 10683.00
1407.177, 10600.00
1408.228, 10641.00
1409.279, 10663.00
1410.330, 10519.00
1411.380, 10700.00
1412.431, 10569.00
1413.481, 10596.00
1414.531, 10500.00
1415.580, 10632.00
1416.630, 10652.00
1417.680, 10579.00
1418.729, 10626.00
1419.778, 10669.00
1420.827, 10760.00
1421.876, 10623.00
1422.925, 10516.00
1423.973, 10609.00
1425.022, 10609.00
1426.070, 10762.00
1427.118, 10582.00
1428.166, 10528.00
1429.214, 10730.00
1430.261, 10675.00
1431.309, 10676.00
1432.356, 10577.00
1433.403, 10658.00
1434.450, 10659.00
1435.497, 10541.00
1436.543, 10676.00
1437.590, 10538.00
1438.636, 10577.00
1439.682, 10711.00
1440.728, 10592.00
1441.774, 10655.00
1442.819, 10595.00
1443.865, 10658.00
1444.910, 10461.00
1445.955, 10541.00
1447.000, 10686.00
1448.045, 10584.00
1449.090, 10673.00
1450.134, 10669.00
1451.178, 10640.00
1452.223, 10710.00
1453.267, 10601.00
1454.310, 10651.00
1455.354, 10622.00
1456.398, 10575.00
1457.441, 10524.00
1458.484, 10564.00
1459.527, 10651.00
1460.570, 10566.05
1461.613, 10681.81
1462.655, 10744.50
1463.698, 10756.96
1464.740, 10568.77
1465.782, 10639.69
1466.824, 10606.76
1467.866, 10569.58
1468.907, 10676.97
1469.948, 10517.97
1470.990, 10623.06
1472.031, 10622.73
1473.072, 10670.65
1474.112, 10614.10
1475.153, 10589.81
1476.194, 10670.04
1477.234, 10692.40
1478.274, 10623.82
1479.314, 10674.82
1480.354, 10512.17
1481.393, 10537.00
1482.433, 10642.72
1483.472, 10579.40
1484.511, 10632.31
1485.550, 10640.95
1486.589, 10448.42
1487.628, 10605.75
1488.666, 10611.78
1489.704, 10462.46
1490.743, 10607.80
1491.781, 10479.89
1492.819, 10377.00
1493.856, 10449.00
1494.894, 10548.00
1495.931, 10392.00
1496.968, 10418.00
1498.005, 10396.00
1499.042, 10268.00
1500.079, 10431.00
1501.115, 10375.00
1502.152, 10444.00
1503.188, 10486.00
1504.224, 10357.00
1505.260, 10511.00
1506.296, 10464.00
1507.331, 10308.00
1508.367, 10514.00
1509.402, 10454.00
1510.437, 10437.00
1511.472, 10277.00
1512.507, 10310.00
1513.541, 10318.00
1514.576, 10397.00
1515.610, 10487.00
1516.644, 10443.00
1517.678, 10389.00
1518.712, 10263.00
1519.746, 10450.00
1520.779, 10341.00
1521.813, 10554.00
1522.846, 10435.00
1523.879, 10372.00
1524.912, 10351.00
1525.944, 10428.00
1526.977, 10370.00
1528.009, 10497.00
1529.041, 10509.00
1530.073, 10415.00
1531.105, 10380.00
1532.137, 10422.00
1533.168, 10405.00
1534.200, 10365.00
1535.231, 10392.00
1536.262, 10387.00
1537.293, 10415.86
1538.324, 10532.99
1539.354, 10597.03
1540.385, 10610.85
1541.415, 10424.02
1542.445, 10496.29
1543.475, 10464.72
1544.505, 10428.90
1545.534, 10537.64
1546.564, 10379.99
1547.593, 10486.45
1548.622, 10487.48
1549.651, 10536.75
1550.680, 10481.55
1551.708, 10458.63
1552.737, 10540.21
1553.765, 10563.93
1554.793, 10496.70
1555.821, 10549.05
1556.849, 10387.76
1557.877, 10413.94
1558.904, 10521.01
1559.932, 10459.04
1560.959, 10513.30
1561.986, 10523.30
1563.013, 10332.12
1564.039, 10490.81
1565.066, 10311.00
1566.092, 10314.00
1567.119, 10396.00
1568.145, 10295.00
1569.170, 10356.00
1570.196, 10373.00
1571.222, 10411.00
1572.247, 10460.00
##END=



