##NAMES=Gehlenite
##RRUFFID=R061091
##IDEAL CHEMISTRY=Ca_2_Al(SiAl)O_7_
##LOCALITY=Carneal Plug, Glenoe Larne District, County Antrim, Northern Ireland
##OWNER=RRUFF
##SOURCE=Michael Scott
##DESCRIPTION=Yellowish-brown anhedral blebs associated with black magnetite and white wollastonite
##STATUS=The identification of this mineral is confirmed by single-crystal X-ray diffraction and chemical analysis.
##URL=rruff.info/R061091
##MEASURED CHEMISTRY=(Ca_1.64_Na_0.36_)_Σ=2_(Al_0.38_Fe_0.36_Mg_0.26_)_Σ=1_(Si_1.98_Al_0.02_)_Σ=2_O_7_
##PIN_ID=M01135
##ORIENTATION=Laser parallel to c* (0 0 1). Fiducial mark perpendicular to laser is parallel to a [1 0 0]
112.9460, 25410.00
114.1820, 25638.00
115.4170, 25947.00
116.6530, 25888.00
117.8880, 25683.00
119.1230, 25423.00
120.3580, 25048.00
121.5920, 24792.00
122.8270, 24601.41
124.0610, 24370.33
125.2950, 24334.00
126.5290, 24096.00
127.7630, 24075.00
128.9970, 24065.00
130.2300, 23968.00
131.4640, 23782.00
132.6970, 23546.00
133.9300, 23393.00
135.1630, 23317.14
136.3950, 23279.00
137.6280, 23285.00
138.8600, 23362.00
140.0920, 23465.00
141.3240, 23293.00
142.5560, 22798.00
143.7880, 22714.00
145.0190, 22523.00
146.2510, 22539.00
147.4820, 22461.00
148.7130, 22304.00
149.9440, 22303.00
151.1750, 22117.00
152.4050, 22046.00
153.6360, 21907.00
154.8660, 21669.00
156.0960, 21959.00
157.3260, 21616.00
158.5560, 21785.00
159.7850, 21362.00
161.0150, 21650.00
162.2440, 21383.00
163.4730, 21590.00
164.7020, 21516.00
165.9310, 21526.00
167.1590, 21399.00
168.3880, 21587.00
169.6160, 21583.00
170.8440, 21606.00
172.0720, 21634.00
173.3000, 21681.00
174.5280, 21712.00
175.7550, 21940.00
176.9820, 21730.00
178.2100, 22055.00
179.4370, 22002.00
180.6630, 22151.00
181.8900, 22333.00
183.1170, 22380.00
184.3430, 22401.00
185.5690, 22437.00
186.7950, 22486.59
188.0210, 22715.00
189.2470, 22602.00
190.4720, 22744.00
191.6970, 22842.00
192.9230, 22831.00
194.1480, 23186.00
195.3730, 22985.68
196.5970, 23008.00
197.8220, 22764.00
199.0460, 23024.00
200.2700, 23007.00
201.4940, 23115.00
202.7180, 23212.00
203.9420, 23213.00
205.1660, 23554.00
206.3890, 23736.00
207.6120, 23867.00
208.8350, 24190.00
210.0580, 24497.00
211.2810, 24913.00
212.5040, 25468.00
213.7260, 25847.92
214.9480, 26386.00
216.1700, 26752.00
217.3920, 26948.00
218.6140, 27330.00
219.8360, 27605.00
221.0570, 27798.00
222.2790, 27982.00
223.5000, 28142.00
224.7210, 28261.00
225.9410, 28226.00
227.1620, 27991.00
228.3820, 27976.00
229.6030, 27577.00
230.8230, 27289.00
232.0430, 27062.00
233.2630, 26557.00
234.4820, 26423.17
235.7020, 26193.00
236.9210, 25851.00
238.1400, 25625.00
239.3590, 25277.84
240.5780, 24951.06
241.7970, 24527.00
243.0150, 24326.00
244.2340, 23820.00
245.4520, 23636.00
246.6700, 23100.00
247.8880, 22923.00
249.1060, 22790.00
250.3230, 22457.38
251.5400, 22487.00
252.7580, 22028.00
253.9750, 21913.53
255.1920, 21834.81
256.4080, 21737.24
257.6250, 21621.62
258.8410, 21434.45
260.0580, 21339.71
261.2740, 21207.99
262.4900, 21074.74
263.7050, 20993.23
264.9210, 20816.48
266.1360, 20734.15
267.3520, 20614.06
268.5670, 20511.31
269.7820, 20371.25
270.9960, 20242.81
272.2110, 20151.60
273.4250, 20039.82
274.6400, 19895.46
275.8540, 19793.90
277.0680, 19616.05
278.2810, 19505.25
279.4950, 19646.00
280.7090, 19514.00
281.9220, 19485.00
283.1350, 19427.00
284.3480, 19369.00
285.5610, 19341.00
286.7730, 19271.00
287.9860, 19411.00
289.1980, 19460.00
290.4100, 19526.00
291.6220, 19286.00
292.8340, 19452.00
294.0460, 19412.00
295.2570, 19472.00
296.4690, 19622.00
297.6800, 19534.00
298.8910, 19666.00
300.1020, 19641.00
301.3120, 19574.00
302.5230, 19489.00
303.7330, 19408.00
304.9440, 19226.00
306.1540, 19130.62
307.3630, 19064.74
308.5730, 18894.00
309.7830, 18908.00
310.9920, 18866.00
312.2010, 18679.00
313.4100, 18584.00
314.6190, 18355.00
315.8280, 18256.00
317.0370, 18128.00
318.2450, 17881.00
319.4530, 17720.00
320.6610, 17710.00
321.8690, 17562.00
323.0770, 17591.00
324.2850, 17324.00
325.4920, 17221.00
326.6990, 17001.00
327.9060, 16787.00
329.1130, 16773.00
330.3200, 16734.00
331.5270, 16576.00
332.7330, 16650.00
333.9390, 16438.00
335.1450, 16183.00
336.3510, 16125.00
337.5570, 16280.00
338.7630, 16069.00
339.9680, 15964.00
341.1740, 15930.00
342.3790, 15788.00
343.5840, 15425.00
344.7890, 15555.00
345.9930, 15623.00
347.1980, 15226.00
348.4020, 15267.00
349.6060, 15282.00
350.8100, 15188.00
352.0140, 15067.00
353.2180, 14989.00
354.4210, 14898.42
355.6250, 14786.83
356.8280, 14735.20
358.0310, 14664.62
359.2340, 14576.10
360.4360, 14416.00
361.6390, 14348.36
362.8410, 14243.71
364.0430, 14137.54
365.2450, 14083.00
366.4470, 13933.32
367.6490, 13877.96
368.8510, 13784.95
370.0520, 13709.25
371.2530, 13596.24
372.4540, 13494.75
373.6550, 13430.59
374.8560, 13345.76
376.0560, 13228.53
377.2570, 13172.00
378.4570, 12991.00
379.6570, 12998.00
380.8570, 13036.00
382.0570, 12840.00
383.2560, 12917.00
384.4560, 12967.00
385.6550, 12949.00
386.8540, 12785.00
388.0530, 12823.00
389.2520, 12729.00
390.4510, 12718.08
391.6490, 12755.91
392.8470, 12774.78
394.0450, 12775.71
395.2430, 12704.98
396.4410, 12726.79
397.6390, 12711.51
398.8360, 12694.72
400.0340, 12729.55
401.2310, 12733.88
402.4280, 12705.83
403.6250, 12762.51
404.8210, 12801.22
406.0180, 12768.30
407.2140, 12827.89
408.4100, 12850.39
409.6060, 12860.00
410.8020, 12855.00
411.9980, 12905.00
413.1930, 12923.00
414.3890, 13081.00
415.5840, 13103.00
416.7790, 13283.00
417.9740, 13296.00
419.1680, 13333.00
420.3630, 13518.00
421.5570, 13644.00
422.7510, 13712.00
423.9450, 13817.00
425.1390, 14275.00
426.3330, 14309.00
427.5270, 14844.00
428.7200, 14968.00
429.9130, 15163.00
431.1060, 15528.00
432.2990, 15972.00
433.4920, 16379.00
434.6840, 16727.00
435.8770, 17150.00
437.0690, 17576.00
438.2610, 18232.00
439.4530, 18640.00
440.6450, 19291.00
441.8360, 20060.00
443.0280, 20594.00
444.2190, 21054.00
445.4100, 21880.00
446.6010, 22576.00
447.7920, 22927.00
448.9820, 23624.00
450.1730, 24256.00
451.3630, 24719.00
452.5530, 24803.00
453.7430, 24857.00
454.9330, 24856.00
456.1230, 25009.00
457.3120, 24638.00
458.5010, 24592.00
459.6910, 24266.00
460.8800, 23827.00
462.0680, 23611.00
463.2570, 23487.00
464.4460, 23041.00
465.6340, 23086.00
466.8220, 22886.00
468.0100, 22937.00
469.1980, 22988.00
470.3860, 23084.00
471.5730, 23307.62
472.7600, 23392.00
473.9480, 23879.00
475.1350, 24087.00
476.3210, 24469.00
477.5080, 24588.00
478.6950, 24644.00
479.8810, 25003.00
481.0670, 25179.00
482.2530, 25124.15
483.4390, 25060.00
484.6250, 25004.00
485.8100, 24725.00
486.9960, 24707.00
488.1810, 24233.00
489.3660, 24048.00
490.5510, 23728.00
491.7360, 23342.00
492.9200, 23076.00
494.1050, 22700.00
495.2890, 22411.46
496.4730, 22092.00
497.6570, 21836.00
498.8400, 21651.00
500.0240, 21391.00
501.2070, 21198.00
502.3910, 21083.00
503.5740, 20889.00
504.7570, 20907.00
505.9400, 20805.00
507.1220, 20699.00
508.3050, 20650.00
509.4870, 20393.00
510.6690, 20715.00
511.8510, 20393.00
513.0330, 20433.00
514.2140, 20668.00
515.3960, 20399.00
516.5770, 20417.00
517.7580, 20299.00
518.9390, 20372.00
520.1200, 19956.00
521.3010, 20165.00
522.4810, 19950.00
523.6610, 20058.00
524.8420, 19771.00
526.0220, 19689.00
527.2010, 19592.00
528.3810, 19660.00
529.5610, 19443.00
530.7400, 19609.00
531.9190, 19269.00
533.0980, 19288.00
534.2770, 19242.00
535.4560, 19007.00
536.6340, 18982.00
537.8120, 18948.00
538.9910, 18708.00
540.1690, 18682.00
541.3460, 18724.00
542.5240, 18621.00
543.7020, 18476.00
544.8790, 18450.00
546.0560, 18232.00
547.2330, 18305.00
548.4100, 18229.00
549.5870, 18171.00
550.7630, 17997.00
551.9400, 17902.00
553.1160, 17544.00
554.2920, 17553.00
555.4680, 17591.00
556.6440, 17735.00
557.8190, 17510.00
558.9950, 17238.00
560.1700, 17519.00
561.3450, 17250.00
562.5200, 17215.00
563.6950, 17179.00
564.8690, 17288.00
566.0440, 17177.00
567.2180, 17103.00
568.3920, 17218.00
569.5660, 17021.00
570.7400, 17031.00
571.9130, 17017.00
573.0870, 17189.00
574.2600, 17040.00
575.4330, 17074.00
576.6060, 17045.00
577.7790, 17087.00
578.9520, 17003.00
580.1240, 17111.00
581.2960, 17107.00
582.4690, 17193.89
583.6410, 17279.00
584.8120, 17436.00
585.9840, 17695.00
587.1560, 17890.00
588.3270, 17938.00
589.4980, 18328.00
590.6690, 18452.00
591.8400, 18845.00
593.0110, 19235.00
594.1810, 19585.00
595.3510, 19901.00
596.5220, 20662.00
597.6920, 21089.00
598.8610, 21561.00
600.0310, 21900.00
601.2010, 22693.00
602.3700, 23352.00
603.5390, 24009.00
604.7080, 25085.00
605.8770, 25943.00
607.0460, 27109.00
608.2140, 28231.00
609.3830, 29332.00
610.5510, 31029.00
611.7190, 32580.00
612.8870, 34467.00
614.0550, 36839.00
615.2220, 39213.00
616.3900, 42102.00
617.5570, 45604.00
618.7240, 48989.00
619.8910, 52668.00
621.0580, 58512.00
622.2240, 61023.00
623.3910, 65197.00
624.5570, 69409.00
625.7230, 72357.00
626.8890, 75628.00
628.0550, 77848.00
629.2200, 78762.00
630.3860, 78446.00
631.5510, 77060.00
632.7160, 74863.00
633.8810, 71919.00
635.0460, 68901.00
636.2100, 64552.00
637.3750, 61349.00
638.5390, 57891.00
639.7030, 54766.00
640.8670, 52571.00
642.0310, 50847.00
643.1950, 50114.00
644.3580, 50014.00
645.5210, 51141.00
646.6850, 52456.00
647.8480, 55101.00
649.0100, 58704.00
650.1730, 63284.00
651.3350, 68113.00
652.4980, 73002.00
653.6600, 78953.00
654.8220, 84849.00
655.9840, 90681.00
657.1450, 96278.00
658.3070, 100863.0
659.4680, 105135.0
660.6300, 107844.0
661.7910, 110139.0
662.9510, 111253.0
664.1120, 110908.0
665.2730, 109995.0
666.4330, 107516.0
667.5930, 103899.0
668.7530, 99444.00
669.9130, 94283.00
671.0730, 90315.00
672.2320, 83101.00
673.3920, 77789.00
674.5510, 72691.00
675.7100, 67356.00
676.8690, 62602.00
678.0280, 58135.00
679.1860, 54255.00
680.3450, 50288.00
681.5030, 47077.00
682.6610, 44111.00
683.8190, 41298.00
684.9770, 39097.00
686.1340, 37065.00
687.2920, 34893.00
688.4490, 33232.00
689.6060, 31722.00
690.7630, 30440.00
691.9200, 29338.00
693.0760, 28131.00
694.2330, 27345.00
695.3890, 26558.00
696.5450, 25761.00
697.7010, 25063.00
698.8570, 24175.00
700.0130, 23919.00
701.1680, 23455.00
702.3230, 22795.00
703.4780, 22314.00
704.6330, 22033.00
705.7880, 21516.00
706.9430, 21274.00
708.0970, 20890.00
709.2520, 20621.00
710.4060, 20268.00
711.5600, 19818.00
712.7140, 19702.00
713.8670, 19287.00
715.0210, 19018.00
716.1740, 18773.00
717.3270, 18457.00
718.4800, 18121.00
719.6330, 18033.00
720.7860, 17769.00
721.9380, 17320.00
723.0910, 17387.00
724.2430, 17022.00
725.3950, 16860.00
726.5470, 16465.00
727.6980, 16448.00
728.8500, 16116.00
730.0010, 15908.00
731.1530, 15764.00
732.3040, 15706.00
733.4550, 15605.00
734.6050, 15453.84
735.7560, 15274.00
736.9060, 15173.00
738.0560, 14852.00
739.2060, 14739.00
740.3560, 14732.00
741.5060, 14489.00
742.6560, 14407.00
743.8050, 14315.00
744.9540, 14143.00
746.1030, 14051.92
747.2520, 13886.64
748.4010, 13829.00
749.5500, 13542.00
750.6980, 13470.00
751.8460, 13257.31
752.9950, 13281.00
754.1420, 13021.00
755.2900, 13025.00
756.4380, 12972.00
757.5850, 12757.00
758.7330, 12708.00
759.8800, 12489.00
761.0270, 12478.00
762.1730, 12401.00
763.3200, 12303.00
764.4670, 12268.91
765.6130, 12190.67
766.7590, 12122.00
767.9050, 12038.00
769.0510, 11898.00
770.1960, 11741.00
771.3420, 11828.00
772.4870, 11798.00
773.6320, 11901.00
774.7770, 11749.00
775.9220, 11745.00
777.0670, 11889.00
778.2110, 11942.00
779.3560, 11772.00
780.5000, 11966.00
781.6440, 11757.00
782.7880, 11783.00
783.9320, 11952.00
785.0750, 11888.00
786.2180, 12000.00
787.3620, 11877.00
788.5050, 12013.00
789.6480, 11990.00
790.7900, 12048.00
791.9330, 12056.00
793.0750, 12024.00
794.2170, 11948.00
795.3590, 11994.00
796.5010, 12067.00
797.6430, 12107.00
798.7850, 12213.00
799.9260, 12056.00
801.0670, 12122.00
802.2080, 12177.00
803.3490, 12204.00
804.4900, 12303.00
805.6310, 12405.00
806.7710, 12350.00
807.9110, 12406.00
809.0510, 12457.00
810.1910, 12348.00
811.3310, 12591.00
812.4710, 12692.00
813.6100, 12831.00
814.7490, 12821.00
815.8880, 12918.00
817.0270, 13393.00
818.1660, 13090.00
819.3050, 13408.00
820.4430, 13317.00
821.5820, 13348.00
822.7200, 13520.00
823.8580, 13609.00
824.9950, 13693.00
826.1330, 13966.00
827.2710, 14170.00
828.4080, 14280.00
829.5450, 14472.00
830.6820, 14662.00
831.8190, 14802.00
832.9560, 15100.00
834.0920, 15373.00
835.2280, 15509.00
836.3650, 15988.00
837.5010, 16251.00
838.6360, 16484.00
839.7720, 16964.00
840.9080, 17365.00
842.0430, 17512.00
843.1780, 18095.00
844.3130, 18726.00
845.4480, 18985.00
846.5830, 19475.00
847.7170, 20128.00
848.8520, 20600.00
849.9860, 21115.00
851.1200, 21542.00
852.2540, 22109.00
853.3870, 22689.00
854.5210, 23363.00
855.6540, 23794.00
856.7880, 24213.00
857.9210, 24498.00
859.0540, 24710.00
860.1860, 24949.00
861.3190, 24878.00
862.4510, 24820.00
863.5840, 24584.00
864.7160, 24308.00
865.8480, 23482.00
866.9790, 23002.00
868.1110, 22530.00
869.2420, 22175.00
870.3740, 21864.00
871.5050, 21367.00
872.6360, 21116.00
873.7660, 21033.00
874.8970, 21192.00
876.0280, 21333.00
877.1580, 21513.00
878.2880, 21966.00
879.4180, 22375.79
880.5480, 22871.00
881.6770, 23583.00
882.8070, 24163.00
883.9360, 24986.00
885.0650, 25547.00
886.1940, 26489.00
887.3230, 27353.00
888.4520, 28399.00
889.5800, 29410.00
890.7090, 30391.00
891.8370, 31710.00
892.9650, 32821.00
894.0930, 34441.00
895.2200, 36066.00
896.3480, 37733.00
897.4750, 39724.00
898.6020, 41988.00
899.7290, 44595.00
900.8560, 47317.00
901.9830, 50273.00
903.1090, 53687.00
904.2360, 57441.00
905.3620, 61385.00
906.4880, 65660.00
907.6140, 70013.00
908.7400, 74909.00
909.8650, 79803.00
910.9900, 84763.00
912.1160, 90139.00
913.2410, 95451.00
914.3660, 100486.0
915.4900, 105224.0
916.6150, 109160.0
917.7390, 112932.0
918.8640, 115278.0
919.9880, 116788.0
921.1120, 116999.0
922.2350, 114981.0
923.3590, 112407.0
924.4820, 107997.0
925.6060, 103115.0
926.7290, 97698.00
927.8520, 91980.00
928.9740, 85759.00
930.0970, 80277.00
931.2190, 75288.00
932.3420, 70955.00
933.4640, 65775.00
934.5860, 61455.00
935.7080, 57640.00
936.8290, 54983.00
937.9510, 51619.00
939.0720, 48629.00
940.1930, 46613.00
941.3140, 44396.00
942.4350, 42490.00
943.5560, 40983.00
944.6760, 39409.00
945.7960, 38152.00
946.9170, 37211.00
948.0370, 36217.00
949.1560, 35345.00
950.2760, 34456.00
951.3960, 34063.00
952.5150, 33532.00
953.6340, 33004.00
954.7530, 32545.00
955.8720, 31871.00
956.9910, 31409.00
958.1090, 30926.00
959.2280, 30352.00
960.3460, 29970.00
961.4640, 29252.00
962.5820, 28735.00
963.6990, 28475.00
964.8170, 27502.00
965.9340, 27259.00
967.0510, 26550.00
968.1690, 26082.00
969.2850, 25526.00
970.4020, 24868.00
971.5190, 24350.00
972.6350, 24081.00
973.7510, 23475.00
974.8670, 22961.00
975.9830, 22835.00
977.0990, 22482.00
978.2150, 22183.00
979.3300, 22079.00
980.4450, 21962.00
981.5600, 21604.00
982.6750, 21676.00
983.7900, 21511.00
984.9050, 21472.00
986.0190, 21301.00
987.1340, 21038.00
988.2480, 21032.00
989.3620, 21129.00
990.4750, 20813.00
991.5890, 20636.00
992.7020, 20498.00
993.8160, 20277.00
994.9290, 20192.00
996.0420, 20108.00
997.1550, 19791.00
998.2670, 19579.00
999.3800, 19542.00
1000.492, 19451.00
1001.604, 19415.00
1002.716, 19423.00
1003.828, 19026.00
1004.940, 18830.00
1006.051, 18499.00
1007.163, 18343.00
1008.274, 18359.00
1009.385, 18128.00
1010.496, 17906.00
1011.606, 17657.00
1012.717, 17622.00
1013.827, 17609.00
1014.937, 17522.00
1016.047, 17418.00
1017.157, 17317.00
1018.267, 17068.00
1019.377, 16912.00
1020.486, 16948.00
1021.595, 16744.00
1022.704, 16798.00
1023.813, 16596.00
1024.922, 16734.00
1026.030, 16471.00
1027.139, 16428.00
1028.247, 16362.00
1029.355, 16367.00
1030.463, 16365.00
1031.571, 16327.00
1032.678, 16264.15
1033.786, 15942.00
1034.893, 16040.00
1036.000, 15917.00
1037.107, 15691.00
1038.214, 15665.00
1039.321, 15519.00
1040.427, 15556.00
1041.533, 15234.00
1042.639, 15230.00
1043.745, 15352.00
1044.851, 15023.00
1045.957, 14981.00
1047.062, 14690.00
1048.168, 14573.00
1049.273, 14466.00
1050.378, 14367.00
1051.482, 14331.00
1052.587, 14027.00
1053.692, 14213.00
1054.796, 14106.00
1055.900, 13875.00
1057.004, 13852.00
1058.108, 13778.00
1059.212, 13622.00
1060.315, 13590.00
1061.418, 13557.00
1062.522, 13287.00
1063.625, 13209.00
1064.728, 13231.00
1065.830, 13052.00
1066.933, 13117.00
1068.035, 12886.00
1069.137, 12808.00
1070.239, 12777.00
1071.341, 12681.00
1072.443, 12657.00
1073.545, 12685.00
1074.646, 12571.00
1075.747, 12609.00
1076.848, 12416.00
1077.949, 12471.00
1079.050, 12367.00
1080.150, 12224.00
1081.251, 12155.00
1082.351, 12316.00
1083.451, 12284.00
1084.551, 12268.00
1085.651, 12151.00
1086.750, 12154.00
1087.850, 12064.00
1088.949, 12118.00
1090.048, 12218.00
1091.147, 12171.00
1092.246, 12249.00
1093.345, 12061.00
1094.443, 12103.00
1095.541, 12144.00
1096.639, 11996.00
1097.737, 12078.00
1098.835, 12092.00
1099.933, 11785.00
1101.030, 11693.00
1102.128, 11582.41
1103.225, 11499.00
1104.322, 11272.00
1105.419, 11114.00
1106.515, 10775.00
1107.612, 10804.00
1108.708, 10693.00
1109.804, 10759.00
1110.900, 10617.00
1111.996, 10499.00
1113.092, 10405.00
1114.187, 10514.00
1115.283, 10485.16
1116.378, 10475.64
1117.473, 10600.00
1118.568, 10419.00
1119.662, 10434.00
1120.757, 10320.00
1121.851, 10328.00
1122.946, 10260.00
1124.040, 10202.00
1125.134, 10224.00
1126.227, 10189.00
1127.321, 10138.00
1128.414, 10167.00
1129.508, 10131.00
1130.601, 10136.00
1131.693, 10240.00
1132.786, 10141.00
1133.879, 9950.000
1134.971, 10156.00
1136.064, 10061.00
1137.156, 10019.00
1138.248, 10053.00
1139.339, 10073.00
1140.431, 10051.00
1141.522, 10076.00
1142.614, 10017.00
1143.705, 10051.00
1144.796, 9969.000
1145.887, 9905.000
1146.977, 9969.000
1148.068, 9914.000
1149.158, 9960.000
1150.248, 9837.000
1151.338, 9937.000
1152.428, 9880.000
1153.518, 9851.000
1154.607, 9950.000
1155.696, 9961.000
1156.785, 9783.000
1157.874, 9881.000
1158.963, 9840.000
1160.052, 9940.000
1161.141, 9842.000
1162.229, 9861.000
1163.317, 9840.000
1164.405, 9877.000
1165.493, 9805.000
1166.581, 9819.983
1167.668, 9799.239
1168.756, 9850.000
1169.843, 9723.000
1170.930, 9830.000
1172.017, 9718.000
1173.103, 9801.000
1174.190, 9813.000
1175.276, 9735.000
1176.363, 9806.000
1177.449, 9798.000
1178.535, 9781.000
1179.620, 9799.000
1180.706, 9858.000
1181.791, 9854.000
1182.877, 9811.000
1183.962, 9773.000
1185.047, 9758.000
1186.131, 9838.000
1187.216, 9797.000
1188.300, 9804.000
1189.385, 9821.000
1190.469, 9796.594
1191.553, 9764.000
1192.637, 9785.000
1193.720, 9770.000
1194.804, 9776.000
1195.887, 9741.000
1196.970, 9703.000
1198.053, 9718.240
1199.136, 9704.120
1200.219, 9736.000
1201.301, 9723.000
1202.383, 9739.000
1203.465, 9757.000
1204.547, 9860.000
1205.629, 9690.000
1206.711, 9685.000
1207.792, 9889.000
1208.874, 9868.000
1209.955, 9666.000
1211.036, 9754.000
1212.117, 9746.000
1213.198, 9770.000
1214.278, 9764.000
1215.359, 9783.000
1216.439, 9777.000
1217.519, 9767.000
1218.599, 9866.000
1219.678, 9752.000
1220.758, 9785.000
1221.837, 9607.000
1222.917, 9644.000
1223.996, 9619.061
1225.075, 9628.566
1226.153, 9647.000
1227.232, 9685.000
1228.310, 9746.000
1229.389, 9661.000
1230.467, 9755.000
1231.545, 9723.000
1232.622, 9719.000
1233.700, 9762.000
1234.777, 9633.000
1235.855, 9650.000
1236.932, 9732.000
1238.009, 9606.000
1239.086, 9715.000
1240.162, 9776.000
1241.239, 9628.000
1242.315, 9604.000
1243.391, 9727.000
1244.467, 9624.000
1245.543, 9596.000
1246.619, 9679.000
1247.694, 9751.000
1248.769, 9772.000
1249.844, 9647.000
1250.919, 9641.000
1251.994, 9480.000
1253.069, 9598.000
1254.144, 9639.000
1255.218, 9607.000
1256.292, 9695.000
1257.366, 9432.000
1258.440, 9654.000
1259.514, 9530.000
1260.587, 9613.000
1261.661, 9630.000
1262.734, 9626.000
1263.807, 9476.000
1264.880, 9459.000
1265.952, 9561.000
1267.025, 9461.000
1268.097, 9483.000
1269.170, 9528.000
1270.242, 9362.000
1271.314, 9489.000
1272.385, 9490.000
1273.457, 9437.000
1274.528, 9513.000
1275.600, 9366.000
1276.671, 9419.000
1277.742, 9440.000
1278.812, 9399.000
1279.883, 9422.000
1280.954, 9370.000
1282.024, 9421.000
1283.094, 9455.000
1284.164, 9420.000
1285.234, 9474.000
1286.303, 9297.000
1287.373, 9384.000
1288.442, 9266.000
1289.511, 9296.000
1290.580, 9428.000
1291.649, 9258.000
1292.718, 9395.000
1293.786, 9385.000
1294.855, 9392.000
1295.923, 9267.000
1296.991, 9327.000
1298.059, 9361.000
1299.126, 9272.000
1300.194, 9329.000
1301.261, 9443.000
1302.328, 9481.000
1303.395, 9337.000
1304.462, 9464.000
1305.529, 9396.000
1306.596, 9402.381
1307.662, 9480.000
1308.728, 9400.000
1309.794, 9434.000
1310.860, 9390.000
1311.926, 9375.547
1312.991, 9395.958
1314.057, 9388.000
1315.122, 9425.000
1316.187, 9511.000
1317.252, 9536.000
1318.317, 9595.000
1319.381, 9519.000
1320.446, 9494.000
1321.510, 9495.000
1322.574, 9357.000
1323.638, 9403.606
1324.702, 9411.087
1325.766, 9377.000
1326.829, 9546.000
1327.892, 9448.000
1328.956, 9587.000
1330.019, 9477.000
1331.081, 9519.000
1332.144, 9597.000
1333.206, 9537.000
1334.269, 9496.000
1335.331, 9423.000
1336.393, 9439.659
1337.455, 9500.000
1338.516, 9481.000
1339.578, 9533.000
1340.639, 9566.000
1341.701, 9707.000
1342.762, 9429.000
1343.822, 9491.000
1344.883, 9574.000
1345.944, 9650.000
1347.004, 9484.000
1348.064, 9655.000
1349.124, 9501.000
1350.184, 9486.000
1351.244, 9541.000
1352.304, 9647.000
1353.363, 9578.000
1354.422, 9472.000
1355.481, 9638.000
1356.540, 9523.000
1357.599, 9615.000
1358.657, 9544.000
1359.716, 9646.000
1360.774, 9676.000
1361.832, 9653.000
1362.890, 9654.000
1363.948, 9648.000
1365.006, 9686.000
1366.063, 9625.638
1367.120, 9644.967
1368.178, 9546.000
1369.234, 9672.000
1370.291, 9705.000
1371.348, 9800.000
1372.404, 9633.000
1373.461, 9544.000
1374.517, 9601.000
1375.573, 9583.000
1376.629, 9652.000
1377.684, 9603.000
1378.740, 9471.000
1379.795, 9699.000
1380.850, 9580.000
1381.905, 9558.000
1382.960, 9691.000
1384.015, 9589.000
1385.070, 9729.000
1386.124, 9489.000
1387.178, 9599.000
1388.232, 9430.000
1389.286, 9583.000
1390.340, 9634.000
1391.393, 9509.000
1392.447, 9612.000
1393.500, 9627.000
1394.553, 9425.000
1395.606, 9600.000
1396.659, 9450.000
1397.711, 9595.000
1398.764, 9360.000
1399.816, 9501.000
1400.868, 9563.000
1401.920, 9434.000
1402.972, 9541.000
1404.023, 9517.000
1405.075, 9420.000
1406.126, 9369.000
1407.177, 9417.000
1408.228, 9550.000
1409.279, 9582.000
1410.330, 9588.043
1411.380, 9586.618
1412.431, 9536.000
1413.481, 9503.000
1414.531, 9446.000
1415.580, 9434.000
1416.630, 9434.000
1417.680, 9422.701
1418.729, 9313.000
1419.778, 9472.000
1420.827, 9469.000
1421.876, 9563.000
1422.925, 9368.000
1423.973, 9570.000
1425.022, 9483.000
1426.070, 9404.000
1427.118, 9407.000
1428.166, 9458.000
1429.214, 9362.000
1430.261, 9434.000
1431.309, 9477.000
1432.356, 9468.000
1433.403, 9434.000
1434.450, 9507.000
1435.497, 9382.000
1436.543, 9495.000
1437.590, 9338.000
1438.636, 9386.000
1439.682, 9516.000
1440.728, 9468.000
1441.774, 9438.000
1442.819, 9361.000
1443.865, 9452.000
1444.910, 9435.000
1445.955, 9535.000
1447.000, 9531.038
1448.045, 9503.079
1449.090, 9520.000
1450.134, 9460.000
1451.178, 9404.000
1452.223, 9476.000
1453.267, 9507.000
1454.310, 9451.000
1455.354, 9385.000
1456.398, 9345.000
1457.441, 9375.295
1458.484, 9392.096
1459.527, 9462.000
1460.570, 9450.000
1461.613, 9465.000
1462.655, 9363.000
1463.698, 9454.000
1464.740, 9368.000
1465.782, 9292.000
1466.824, 9466.000
1467.866, 9387.655
1468.907, 9578.000
1469.948, 9334.000
1470.990, 9451.000
1472.031, 9244.000
1473.072, 9462.000
1474.112, 9267.000
1475.153, 9250.000
1476.194, 9379.000
1477.234, 9409.000
1478.274, 9238.000
1479.314, 9264.000
1480.354, 9324.000
1481.393, 9313.000
1482.433, 9258.000
1483.472, 9267.000
1484.511, 9219.000
1485.550, 9231.276
1486.589, 9243.007
1487.628, 9253.000
1488.666, 9278.000
1489.704, 9281.000
1490.743, 9275.000
1491.781, 9162.000
1492.819, 9202.000
1493.856, 9170.591
1494.894, 9342.000
1495.931, 9171.000
1496.968, 9282.000
1498.005, 9293.000
1499.042, 9277.000
1500.079, 9281.000
1501.115, 9285.000
1502.152, 9253.000
1503.188, 9151.000
1504.224, 9147.000
1505.260, 9227.000
1506.296, 9156.000
1507.331, 9257.000
1508.367, 9229.000
1509.402, 9268.000
1510.437, 9282.000
1511.472, 9230.000
1512.507, 9260.472
1513.541, 9223.214
1514.576, 9242.000
1515.610, 9182.000
1516.644, 9129.000
1517.678, 9133.000
1518.712, 9205.000
1519.746, 9302.000
1520.779, 9224.000
1521.813, 9232.000
1522.846, 9102.000
1523.879, 9176.000
1524.912, 9127.000
1525.944, 9050.000
1526.977, 9253.000
1528.009, 9231.201
1529.041, 9271.978
1530.073, 9293.798
1531.105, 9297.679
1532.137, 9229.896
1533.168, 9254.656
1534.200, 9242.328
1535.231, 9228.480
1536.262, 9266.265
1537.293, 9208.908
1538.324, 9245.873
1539.354, 9245.189
1540.385, 9261.735
1541.415, 9240.969
1542.445, 9231.728
1543.475, 9259.813
1544.505, 9267.230
1545.534, 9242.171
1546.564, 9259.815
1547.593, 9201.160
1548.622, 9209.460
1549.651, 9246.648
1550.680, 9223.465
1551.708, 9241.796
1552.737, 9244.314
1553.765, 9174.985
1554.793, 9230.610
1555.821, 9232.197
1556.849, 9178.298
1557.877, 9229.642
1558.904, 9183.395
1559.932, 9171.979
1560.959, 9186.782
1561.986, 9174.257
1563.013, 9204.818
1564.039, 9193.873
1565.066, 9179.217
1566.092, 9180.747
1567.119, 9068.000
1568.145, 9113.000
1569.170, 9115.000
1570.196, 9191.000
1571.222, 9207.000
1572.247, 9192.000
1573.272, 9100.000
1574.297, 9071.000
1575.322, 8971.000
1576.347, 9081.000
1577.372, 8941.000
##END=



