##NAMES=Gmelinite-Na
##RRUFFID=R050371
##IDEAL CHEMISTRY=Na_4_(Si_8_Al_4_)O_24_&#183;11H_2_O
##LOCALITY=Cairns Bay, Flinders Range, Australia
##OWNER=RRUFF
##SOURCE=Eugene Schlepp
##DESCRIPTION=Colorless to pink crystals lining a basalt vug
##STATUS=The identification of this mineral has been confirmed by X-ray diffraction and chemical analysis
##URL=rruff.info/R050371
##MEASURED CHEMISTRY=Na_3.81_(Si_8.13_Al_3.88_)O_24_Â·4.27H_2_O
##PIN_ID=L01149
##ORIENTATION=Laser parallel to a* (1 0 0). Fiducial mark perpendicular to laser is parallel to c [0 0 1]
264.8880, 12169.08
266.1030, 12192.00
267.3170, 12261.00
268.5320, 12167.00
269.7460, 12178.00
270.9600, 12133.00
272.1740, 12071.00
273.3880, 12110.00
274.6010, 12068.34
275.8150, 12095.00
277.0280, 12064.00
278.2410, 12055.00
279.4540, 12075.00
280.6670, 12123.00
281.8790, 12210.00
283.0920, 12210.00
284.3040, 12192.00
285.5160, 12162.00
286.7280, 12271.00
287.9400, 12297.00
289.1510, 12437.00
290.3630, 12549.00
291.5740, 12579.37
292.7850, 12655.00
293.9960, 12705.00
295.2070, 12763.00
296.4170, 12907.00
297.6280, 12961.00
298.8380, 12932.00
300.0480, 13161.00
301.2580, 13271.00
302.4680, 13243.00
303.6770, 13462.00
304.8870, 13688.00
306.0960, 13882.00
307.3050, 14332.00
308.5140, 14480.00
309.7230, 14811.00
310.9310, 15019.00
312.1400, 15617.00
313.3480, 15873.00
314.5560, 16201.00
315.7640, 16708.00
316.9720, 16963.00
318.1790, 17139.00
319.3870, 17400.00
320.5940, 17302.00
321.8010, 17426.00
323.0080, 17379.00
324.2150, 17155.00
325.4210, 16875.00
326.6280, 16712.00
327.8340, 16301.00
329.0400, 15828.00
330.2460, 15474.00
331.4510, 15071.42
332.6570, 14749.00
333.8620, 14343.00
335.0680, 14058.00
336.2730, 13727.00
337.4780, 13454.00
338.6820, 13238.84
339.8870, 13269.00
341.0910, 12875.00
342.2950, 12890.00
343.5000, 12779.00
344.7030, 12508.00
345.9070, 12637.00
347.1110, 12453.00
348.3140, 12571.00
349.5170, 12501.00
350.7200, 12434.00
351.9230, 12295.00
353.1260, 12322.00
354.3290, 12529.00
355.5310, 12244.00
356.7330, 12492.00
357.9350, 12228.00
359.1370, 12355.00
360.3390, 12367.00
361.5400, 12290.00
362.7420, 12637.00
363.9430, 12604.00
365.1440, 12557.00
366.3450, 12558.00
367.5460, 12663.00
368.7460, 12729.00
369.9470, 12689.00
371.1470, 12904.00
372.3470, 12873.00
373.5470, 13130.00
374.7460, 13117.00
375.9460, 13149.00
377.1450, 13408.00
378.3450, 13365.00
379.5440, 13670.00
380.7430, 13787.00
381.9410, 13901.00
383.1400, 14263.00
384.3380, 14293.00
385.5370, 14828.00
386.7350, 14918.80
387.9320, 15141.00
389.1300, 15373.00
390.3280, 15637.00
391.5250, 16096.00
392.7220, 16526.00
393.9190, 16972.00
395.1160, 17811.00
396.3130, 18317.00
397.5100, 19017.00
398.7060, 19827.00
399.9020, 20836.00
401.0980, 21731.00
402.2940, 22816.00
403.4900, 23456.00
404.6860, 24371.00
405.8810, 25513.00
407.0760, 25828.00
408.2710, 26569.00
409.4660, 26433.00
410.6610, 26394.00
411.8550, 26018.00
413.0500, 25424.00
414.2440, 24472.00
415.4380, 23548.00
416.6320, 22345.00
417.8260, 21311.00
419.0190, 20547.00
420.2130, 19681.00
421.4060, 19053.00
422.5990, 18004.00
423.7920, 17552.00
424.9850, 17123.00
426.1770, 16554.00
427.3700, 16424.00
428.5620, 15938.00
429.7540, 15870.00
430.9460, 15744.00
432.1380, 15569.00
433.3290, 15437.00
434.5210, 15552.00
435.7120, 15497.00
436.9030, 15606.00
438.0940, 15815.00
439.2850, 15753.00
440.4750, 15960.00
441.6660, 15953.00
442.8560, 16178.00
444.0460, 16406.00
445.2360, 16587.00
446.4260, 17056.00
447.6160, 17160.00
448.8050, 17678.00
449.9940, 18326.00
451.1830, 18512.00
452.3720, 19153.00
453.5610, 19774.00
454.7500, 20135.00
455.9380, 20933.00
457.1260, 21752.00
458.3150, 22401.00
459.5020, 23265.00
460.6900, 24033.00
461.8780, 24838.45
463.0650, 25689.00
464.2530, 26505.00
465.4400, 27288.00
466.6270, 28113.00
467.8130, 28628.00
469.0000, 29745.00
470.1870, 30494.00
471.3730, 31446.00
472.5590, 32463.00
473.7450, 33699.28
474.9310, 35078.00
476.1160, 36418.00
477.3020, 38072.00
478.4870, 39436.00
479.6720, 41813.00
480.8570, 43514.00
482.0420, 45875.00
483.2270, 47850.00
484.4110, 50015.00
485.5960, 52537.00
486.7800, 54370.00
487.9640, 56342.00
489.1480, 57832.00
490.3310, 59507.00
491.5150, 60436.00
492.6980, 61740.00
493.8810, 61587.00
495.0640, 62256.00
496.2470, 61597.00
497.4300, 60592.00
498.6120, 59422.00
499.7950, 57549.00
500.9770, 56056.00
502.1590, 54275.00
503.3410, 50897.00
504.5220, 47888.00
505.7040, 45119.00
506.8850, 42492.00
508.0660, 39432.00
509.2470, 36790.00
510.4280, 34260.00
511.6090, 31433.00
512.7890, 29382.00
513.9700, 27143.00
515.1500, 25627.00
516.3300, 23965.00
517.5100, 22483.00
518.6900, 21166.00
519.8690, 20015.00
521.0490, 18966.10
522.2280, 18201.00
523.4070, 17340.00
524.5860, 16773.00
525.7640, 16354.00
526.9430, 15756.00
528.1210, 15266.00
529.3000, 14817.00
530.4780, 14477.00
531.6560, 14238.00
532.8330, 13756.00
534.0110, 13586.00
535.1880, 13462.00
536.3650, 13118.00
537.5430, 12851.00
538.7190, 12791.00
539.8960, 12359.00
541.0730, 12222.00
542.2490, 12224.00
543.4250, 11977.00
544.6020, 12073.00
545.7780, 11901.00
546.9530, 11718.00
548.1290, 11713.00
549.3040, 11576.00
550.4800, 11623.00
551.6550, 11344.00
552.8300, 11268.00
554.0040, 11237.00
555.1790, 11188.00
556.3540, 11073.00
557.5280, 11168.00
558.7020, 11136.00
559.8760, 10951.00
561.0500, 10942.00
562.2230, 11034.00
563.3970, 10814.00
564.5700, 10748.00
565.7430, 10713.00
566.9160, 10587.00
568.0890, 10668.00
569.2620, 10608.00
570.4340, 10541.00
571.6070, 10563.00
572.7790, 10508.00
573.9510, 10520.00
575.1230, 10327.00
576.2940, 10492.00
577.4660, 10510.00
578.6370, 10349.00
579.8080, 10397.00
580.9790, 10294.00
582.1500, 10286.65
583.3210, 10365.00
584.4910, 10354.00
585.6620, 10409.00
586.8320, 10439.21
588.0020, 10403.00
589.1720, 10460.00
590.3410, 10417.00
591.5110, 10337.00
592.6800, 10408.00
593.8500, 10444.00
595.0190, 10382.00
596.1880, 10305.00
597.3560, 10422.00
598.5250, 10384.00
599.6930, 10416.00
600.8620, 10427.83
602.0300, 10404.00
603.1970, 10404.00
604.3650, 10353.00
605.5330, 10319.00
606.7000, 10363.00
607.8680, 10477.00
609.0350, 10349.00
610.2020, 10353.00
611.3680, 10430.00
612.5350, 10213.00
613.7010, 10392.00
614.8680, 10230.00
616.0340, 10235.00
617.2000, 10401.00
618.3660, 10208.00
619.5310, 10128.00
620.6970, 10127.00
621.8620, 10142.00
623.0270, 10222.00
624.1920, 10018.00
625.3570, 10143.00
626.5220, 10175.42
627.6860, 10129.00
628.8500, 10161.00
630.0140, 10144.97
631.1780, 10155.12
632.3420, 10163.14
633.5060, 10173.00
634.6700, 10263.00
635.8330, 10249.00
636.9960, 10444.00
638.1590, 10353.00
639.3220, 10421.00
640.4850, 10349.00
641.6470, 10395.75
642.8100, 10570.00
643.9720, 10527.00
645.1340, 10562.00
646.2960, 10714.00
647.4570, 10736.00
648.6190, 10761.00
649.7800, 10774.00
650.9420, 10764.16
652.1030, 10782.00
653.2640, 10797.00
654.4240, 10655.00
655.5850, 10807.00
656.7450, 10566.00
657.9060, 10509.00
659.0660, 10473.00
660.2260, 10388.00
661.3850, 10375.00
662.5450, 10201.00
663.7040, 10103.00
664.8640, 10033.00
666.0230, 10050.00
667.1820, 10087.00
668.3410, 9975.000
669.4990, 9858.000
670.6580, 9884.000
671.8160, 9792.000
672.9740, 9662.000
674.1320, 9727.000
675.2900, 9636.000
676.4480, 9570.000
677.6050, 9576.000
678.7630, 9569.000
679.9200, 9561.000
681.0770, 9578.000
682.2340, 9537.804
683.3900, 9495.000
684.5470, 9487.000
685.7030, 9473.000
686.8590, 9492.000
688.0150, 9433.000
689.1710, 9393.000
690.3270, 9430.000
691.4830, 9461.000
692.6380, 9501.000
693.7930, 9481.000
694.9480, 9377.000
696.1030, 9453.000
697.2580, 9438.000
698.4130, 9442.755
699.5670, 9539.000
700.7210, 9481.000
701.8750, 9497.000
703.0290, 9503.000
704.1830, 9480.000
705.3370, 9472.000
706.4900, 9481.000
707.6430, 9470.000
708.7970, 9535.000
709.9490, 9514.000
711.1020, 9454.000
712.2550, 9541.000
713.4070, 9592.000
714.5600, 9549.000
715.7120, 9547.000
716.8640, 9494.000
718.0160, 9497.897
719.1670, 9478.850
720.3190, 9499.000
721.4700, 9483.000
722.6210, 9487.000
723.7720, 9545.000
724.9230, 9445.000
726.0740, 9426.000
727.2250, 9552.000
728.3750, 9642.000
729.5250, 9543.000
730.6750, 9570.000
731.8250, 9488.000
732.9750, 9613.000
734.1240, 9548.000
735.2740, 9601.000
736.4230, 9615.000
737.5720, 9610.000
738.7210, 9534.000
739.8700, 9587.000
741.0190, 9572.000
742.1670, 9541.000
743.3150, 9630.000
744.4630, 9570.000
745.6110, 9485.000
746.7590, 9667.000
747.9070, 9861.000
749.0540, 9698.000
750.2020, 9887.000
751.3490, 9855.000
752.4960, 9911.000
753.6430, 10009.00
754.7890, 10193.00
755.9360, 10090.00
757.0820, 10082.00
758.2280, 10352.00
759.3740, 10167.00
760.5200, 10225.00
761.6660, 10221.00
762.8120, 10338.00
763.9570, 10334.00
765.1020, 10296.00
766.2470, 10227.00
767.3920, 10138.00
768.5370, 10277.00
769.6810, 10143.00
770.8260, 10597.00
771.9700, 10338.76
773.1140, 10304.99
774.2580, 10132.00
775.4020, 10008.00
776.5460, 10095.00
777.6890, 10030.00
778.8320, 9941.000
779.9750, 10055.00
781.1180, 10069.00
782.2610, 10208.00
783.4040, 10379.00
784.5460, 10302.00
785.6890, 10335.00
786.8310, 10472.00
787.9730, 10613.00
789.1150, 10673.00
790.2560, 10845.00
791.3980, 10972.00
792.5390, 11037.00
793.6810, 11078.20
794.8220, 11106.00
795.9630, 11036.00
797.1030, 11004.00
798.2440, 10923.00
799.3840, 10938.00
800.5240, 10810.00
801.6650, 10795.00
802.8040, 10550.00
803.9440, 10393.00
805.0840, 10357.00
806.2230, 10140.00
807.3630, 9989.000
808.5020, 9850.000
809.6410, 9744.805
810.7790, 9681.000
811.9180, 9595.000
813.0570, 9525.000
814.1950, 9442.000
815.3330, 9451.000
816.4710, 9364.000
817.6090, 9348.000
818.7470, 9265.000
819.8840, 9235.996
821.0220, 9201.992
822.1590, 9185.000
823.2960, 9137.000
824.4330, 9137.000
825.5690, 9097.000
826.7060, 9111.170
827.8420, 9200.000
828.9790, 9139.000
830.1150, 9097.000
831.2510, 9092.000
832.3860, 9215.000
833.5220, 9092.000
834.6570, 9124.000
835.7930, 8917.000
836.9280, 9010.000
838.0630, 9077.000
839.1980, 8999.000
840.3320, 8983.000
841.4670, 9038.000
842.6010, 9117.000
843.7350, 9011.000
844.8690, 9027.000
846.0030, 9047.000
847.1370, 8994.000
848.2700, 8992.000
849.4040, 8989.000
850.5370, 8964.000
851.6700, 8993.000
852.8030, 8899.000
853.9360, 9000.000
855.0680, 9025.000
856.2000, 9157.000
857.3330, 8937.000
858.4650, 8930.000
859.5970, 8987.000
860.7290, 8993.000
861.8600, 8900.000
862.9920, 8827.000
864.1230, 9061.000
865.2540, 8848.000
866.3850, 9003.000
867.5160, 9068.000
868.6460, 8911.000
869.7770, 8873.000
870.9070, 9017.000
872.0370, 8894.000
873.1670, 9039.000
874.2970, 8858.000
875.4270, 8974.000
876.5570, 8956.000
877.6860, 8928.000
878.8150, 8893.000
879.9440, 8884.682
881.0730, 8935.000
882.2020, 8914.000
883.3300, 8846.000
884.4590, 8969.000
885.5870, 9025.000
886.7150, 8975.000
887.8430, 8892.000
888.9710, 9084.000
890.0990, 9012.000
891.2260, 8965.000
892.3530, 8851.000
893.4810, 8916.631
894.6080, 9271.000
895.7340, 9000.000
896.8610, 9128.000
897.9880, 9082.000
899.1140, 8951.000
900.2400, 9127.000
901.3660, 9099.000
902.4920, 9132.000
903.6180, 9006.000
904.7430, 9073.000
905.8690, 9143.000
906.9940, 9050.055
908.1190, 8973.000
909.2440, 9037.000
910.3690, 9025.000
911.4930, 9031.980
912.6180, 9138.000
913.7420, 9071.000
914.8660, 9088.000
915.9900, 9111.000
917.1140, 9223.000
918.2380, 9116.000
919.3610, 9132.000
920.4850, 9212.000
921.6080, 9076.000
922.7310, 9150.000
923.8540, 9208.000
924.9760, 9127.000
926.0990, 9325.000
927.2210, 9191.000
928.3440, 9333.000
929.4660, 9210.000
930.5880, 9228.000
931.7090, 9278.000
932.8310, 9282.000
933.9520, 9253.000
935.0740, 9287.000
936.1950, 9317.000
937.3160, 9238.000
938.4360, 9217.000
939.5570, 9258.000
940.6780, 9418.000
941.7980, 9471.000
942.9180, 9324.000
944.0380, 9524.000
945.1580, 9426.000
946.2780, 9305.000
947.3970, 9415.000
948.5170, 9378.000
949.6360, 9506.000
950.7550, 9563.000
951.8740, 9446.000
952.9930, 9566.000
954.1110, 9475.000
955.2300, 9544.000
956.3480, 9585.000
957.4660, 9657.000
958.5840, 9713.595
959.7020, 9754.379
960.8190, 9786.000
961.9370, 9832.000
963.0540, 9762.000
964.1710, 9780.000
965.2880, 9896.000
966.4050, 9911.000
967.5220, 10062.00
968.6380, 10062.00
969.7550, 10199.00
970.8710, 10232.00
971.9870, 10349.00
973.1030, 10373.00
974.2190, 10412.00
975.3340, 10479.00
976.4500, 10623.00
977.5650, 10495.00
978.6800, 10548.00
979.7950, 10707.00
980.9100, 10898.00
982.0250, 10777.00
983.1390, 10891.00
984.2530, 10986.00
985.3680, 10983.00
986.4820, 11073.34
987.5950, 11077.00
988.7090, 11125.00
989.8230, 11143.00
990.9360, 11182.98
992.0490, 11239.82
993.1620, 11283.00
994.2750, 11343.00
995.3880, 11426.00
996.5010, 11444.00
997.6130, 11511.30
998.7250, 11512.00
999.8370, 11621.00
1000.949, 11537.00
1002.061, 11606.00
1003.173, 11711.00
1004.284, 11718.00
1005.396, 11678.00
1006.507, 11762.00
1007.618, 11789.00
1008.729, 11876.00
1009.839, 11928.00
1010.950, 11838.00
1012.060, 12129.00
1013.171, 12121.00
1014.281, 12178.00
1015.391, 12045.00
1016.500, 12059.00
1017.610, 12133.00
1018.719, 12202.00
1019.829, 12052.00
1020.938, 11957.00
1022.047, 12184.00
1023.156, 12098.00
1024.264, 12173.00
1025.373, 12223.00
1026.481, 12188.00
1027.589, 12135.00
1028.697, 12086.00
1029.805, 12063.03
1030.913, 12063.00
1032.020, 12028.00
1033.128, 12017.00
1034.235, 12027.00
1035.342, 12004.00
1036.449, 12007.93
1037.556, 12014.00
1038.663, 12037.00
1039.769, 12011.40
1040.875, 12095.00
1041.981, 11942.00
1043.087, 11985.00
1044.193, 11994.00
1045.299, 11876.00
1046.404, 11999.00
1047.510, 12002.00
1048.615, 11898.00
1049.720, 11895.00
1050.825, 11842.00
1051.930, 11931.00
1053.034, 12063.00
1054.139, 11889.00
1055.243, 12160.00
1056.347, 12453.00
1057.451, 12063.00
1058.555, 12125.00
1059.658, 12220.00
1060.762, 12294.00
1061.865, 12339.00
1062.968, 12511.00
1064.071, 12520.00
1065.174, 12649.38
1066.277, 12713.00
1067.380, 12862.00
1068.482, 12996.50
1069.584, 13209.00
1070.686, 13296.00
1071.788, 13459.00
1072.890, 13595.00
1073.992, 13733.78
1075.093, 13935.00
1076.194, 14025.00
1077.295, 14197.00
1078.396, 14321.00
1079.497, 14821.00
1080.598, 14580.00
1081.698, 14766.00
1082.799, 15082.00
1083.899, 14989.00
1084.999, 15085.00
1086.099, 15270.00
1087.199, 15370.00
1088.298, 15468.00
1089.398, 15606.00
1090.497, 15738.00
1091.596, 15845.64
1092.695, 15905.00
1093.794, 16091.00
1094.892, 16159.00
1095.991, 16311.00
1097.089, 16438.00
1098.187, 16361.00
1099.285, 16508.00
1100.383, 16584.00
1101.481, 16571.00
1102.579, 16727.00
1103.676, 16601.00
1104.773, 16689.00
1105.870, 16545.00
1106.967, 16697.00
1108.064, 16645.00
1109.161, 16547.00
1110.257, 16604.00
1111.353, 16700.00
1112.449, 16441.00
1113.545, 16434.00
1114.641, 16529.00
1115.737, 16384.00
1116.832, 16408.00
1117.928, 16478.00
1119.023, 16398.00
1120.118, 16375.00
1121.213, 16316.92
1122.308, 16359.00
1123.402, 16079.00
1124.497, 15969.00
1125.591, 15699.00
1126.685, 15713.00
1127.779, 15496.00
1128.873, 15375.92
1129.967, 15412.00
1131.060, 15223.00
1132.153, 15004.00
1133.247, 15140.00
1134.340, 14942.00
1135.433, 14705.00
1136.525, 14646.00
1137.618, 14710.00
1138.710, 14699.00
1139.802, 14352.00
1140.895, 14427.00
1141.987, 14120.00
1143.078, 14167.00
1144.170, 13955.00
1145.261, 13907.00
1146.353, 13790.00
1147.444, 13767.00
1148.535, 13568.00
1149.626, 13438.00
1150.716, 13506.00
1151.807, 13388.00
1152.897, 13143.00
1153.988, 13063.00
1155.078, 13093.00
1156.168, 12948.00
1157.257, 12738.00
1158.347, 12599.00
1159.436, 12632.00
1160.526, 12423.00
1161.615, 12407.00
1162.704, 12277.00
1163.793, 12123.00
1164.881, 12157.00
1165.970, 12156.00
1167.058, 12058.00
1168.147, 11814.00
1169.235, 11797.00
1170.323, 11780.00
1171.410, 11698.00
1172.498, 11696.00
1173.585, 11535.00
1174.673, 11516.00
1175.760, 11409.00
1176.847, 11349.00
1177.934, 11331.00
1179.020, 11337.00
1180.107, 11356.00
1181.193, 11210.00
1182.279, 11238.00
1183.365, 11125.00
1184.451, 11130.00
1185.537, 11102.00
1186.623, 10925.00
1187.708, 11068.00
1188.793, 10975.00
1189.878, 10992.00
1190.963, 10852.00
1192.048, 10799.00
1193.133, 10827.00
1194.217, 10795.67
1195.302, 10839.00
1196.386, 10853.00
1197.470, 10916.00
1198.554, 10940.00
1199.638, 10845.00
1200.721, 10796.00
1201.805, 10810.00
1202.888, 10696.00
1203.971, 10829.00
1205.054, 10629.00
1206.137, 10870.00
1207.219, 10725.00
1208.302, 10810.00
1209.384, 10857.00
1210.466, 10741.00
1211.548, 10784.00
1212.630, 10722.57
1213.712, 10806.59
1214.794, 10856.00
1215.875, 10872.64
1216.956, 10758.41
1218.037, 10813.18
1219.118, 10800.22
1220.199, 10784.48
1221.280, 10863.03
1222.360, 10767.83
1223.441, 10844.89
1224.521, 10853.18
1225.601, 10892.94
1226.681, 10864.56
1227.760, 10857.21
1228.840, 10918.04
1229.919, 10941.13
1230.999, 10904.90
1232.078, 10946.66
1233.157, 10849.07
1234.236, 10873.76
1235.314, 10951.20
1236.393, 10918.40
1237.471, 10961.40
1238.549, 10975.52
1239.627, 10858.44
1240.705, 10969.54
1241.783, 10981.96
1242.860, 10905.00
1243.938, 10915.00
1245.015, 11075.00
1246.092, 10899.00
1247.169, 10892.00
1248.246, 10830.00
1249.323, 10947.00
1250.399, 10898.00
1251.475, 10987.00
1252.552, 10942.00
1253.628, 11009.00
1254.703, 11046.00
1255.779, 10974.00
1256.855, 10978.00
1257.930, 11067.00
1259.005, 10929.00
1260.080, 11081.00
1261.155, 11029.00
1262.230, 11004.00
1263.305, 11093.00
1264.379, 11049.00
1265.454, 11079.00
1266.528, 11111.00
1267.602, 11113.70
1268.676, 11154.00
1269.750, 11168.00
1270.823, 11171.00
1271.897, 11207.00
1272.970, 11189.00
1274.043, 11225.00
1275.116, 11248.00
1276.189, 11225.58
1277.261, 11185.00
1278.334, 11187.00
1279.406, 11200.00
1280.478, 11171.82
1281.550, 11364.00
1282.622, 11212.00
1283.694, 11232.00
1284.766, 11274.00
1285.837, 11472.00
1286.908, 11287.00
1287.979, 11510.00
1289.050, 11301.00
1290.121, 11463.00
1291.192, 11483.00
1292.262, 11381.00
1293.333, 11420.00
1294.403, 11493.00
1295.473, 11679.00
1296.543, 11523.00
1297.613, 11517.00
1298.682, 11648.00
1299.752, 11604.00
1300.821, 11620.00
1301.890, 11591.00
1302.959, 11641.00
1304.028, 11736.00
1305.096, 11566.00
1306.165, 11862.00
1307.233, 11685.00
1308.301, 11739.00
1309.370, 11777.00
1310.437, 11742.68
1311.505, 11822.00
1312.573, 11816.00
1313.640, 11829.00
1314.708, 11912.00
1315.775, 11788.00
1316.842, 11849.00
1317.908, 11813.00
1318.975, 11839.00
1320.042, 11854.00
1321.108, 11891.00
1322.174, 11895.00
1323.240, 11861.00
1324.306, 11871.00
1325.372, 11870.00
1326.438, 11852.00
1327.503, 11767.00
1328.568, 11795.00
1329.634, 11734.00
1330.699, 11777.00
1331.763, 11777.00
1332.828, 11653.00
1333.893, 11641.00
1334.957, 11631.00
1336.021, 11749.00
1337.085, 11667.00
1338.149, 11627.00
1339.213, 11726.00
1340.277, 11594.00
1341.340, 11711.00
1342.404, 11708.00
1343.467, 11809.00
1344.530, 11718.00
1345.593, 11708.00
1346.655, 11695.25
1347.718, 11688.00
1348.780, 11650.00
1349.843, 11644.00
1350.905, 11685.00
1351.967, 11609.00
1353.028, 11570.00
1354.090, 11622.00
1355.152, 11594.00
1356.213, 11607.00
1357.274, 11512.00
1358.335, 11518.00
1359.396, 11530.00
1360.457, 11587.00
1361.517, 11508.00
1362.578, 11597.00
1363.638, 11535.00
1364.698, 11432.00
1365.758, 11410.00
1366.818, 11544.00
1367.878, 11367.00
1368.937, 11516.00
1369.997, 11516.00
1371.056, 11466.00
1372.115, 11521.25
1373.174, 11524.08
1374.232, 11492.00
1375.291, 11532.00
1376.350, 11484.00
1377.408, 11362.00
1378.466, 11533.00
1379.524, 11420.00
1380.582, 11487.00
1381.640, 11525.00
1382.697, 11379.00
1383.754, 11441.00
1384.812, 11507.00
1385.869, 11426.00
1386.926, 11449.00
1387.983, 11487.00
1389.039, 11494.00
1390.096, 11554.35
1391.152, 11568.01
1392.208, 11656.00
1393.264, 11587.00
1394.320, 11602.00
1395.376, 11549.00
1396.431, 11606.00
1397.487, 11625.00
1398.542, 11476.00
1399.597, 11588.00
1400.652, 11464.00
1401.707, 11460.00
1402.762, 11564.00
1403.816, 11552.00
1404.871, 11582.18
1405.925, 11555.00
1406.979, 11590.00
1408.033, 11556.00
1409.086, 11513.00
1410.140, 11525.00
1411.194, 11582.00
1412.247, 11533.00
1413.300, 11665.00
1414.353, 11531.00
1415.406, 11747.00
1416.458, 11564.00
1417.511, 11649.00
1418.563, 11607.00
1419.616, 11463.00
1420.668, 11639.00
1421.720, 11645.00
1422.772, 11649.00
1423.823, 11640.00
1424.875, 11696.00
1425.926, 11764.00
1426.977, 11608.00
1428.028, 11848.00
1429.079, 11650.00
1430.130, 11768.00
1431.180, 11706.00
1432.231, 11713.00
1433.281, 11784.00
1434.331, 11822.00
1435.381, 11706.00
1436.431, 11636.00
1437.481, 11730.00
1438.530, 11788.00
1439.580, 11763.00
1440.629, 11770.00
1441.678, 11799.00
1442.727, 11799.00
1443.776, 11766.00
1444.824, 11719.00
1445.873, 11733.00
1446.921, 11804.00
1447.969, 11879.00
1449.017, 11758.00
1450.065, 11736.00
1451.113, 11726.00
1452.160, 11785.00
1453.208, 11683.00
1454.255, 11879.00
1455.302, 11995.00
1456.349, 11915.76
1457.396, 11794.00
1458.443, 11841.00
1459.489, 11839.00
1460.535, 11835.00
1461.582, 11894.00
1462.628, 11822.00
1463.674, 11873.00
1464.719, 11863.00
1465.765, 12002.00
1466.810, 11896.00
1467.856, 11980.00
1468.901, 11960.35
1469.946, 11840.00
1470.991, 11896.00
1472.035, 11983.00
1473.080, 11908.00
1474.124, 11876.00
1475.169, 11894.00
1476.213, 11903.00
1477.257, 11885.70
1478.300, 11915.53
1479.344, 11892.00
1480.388, 11958.00
1481.431, 12017.00
1482.474, 12048.00
1483.517, 12031.00
1484.560, 12058.29
1485.603, 11947.00
1486.645, 11993.00
1487.688, 12067.00
1488.730, 11902.00
1489.772, 11972.00
1490.814, 12018.00
1491.856, 11909.00
1492.898, 12135.00
1493.939, 11993.00
1494.981, 12027.00
1496.022, 12114.00
1497.063, 12110.00
1498.104, 12159.58
1499.145, 12071.00
1500.186, 12170.00
1501.226, 12140.00
1502.266, 12039.00
1503.307, 12239.00
1504.347, 12158.00
1505.387, 12202.00
1506.426, 12179.00
1507.466, 12089.00
1508.505, 12086.00
1509.545, 12166.00
1510.584, 12066.00
1511.623, 12167.00
1512.662, 12140.00
1513.700, 12104.00
1514.739, 12267.00
1515.777, 12049.00
1516.815, 12217.00
1517.854, 12323.00
1518.892, 12238.00
1519.929, 12285.00
1520.967, 12248.00
1522.004, 12261.00
1523.042, 12170.00
1524.079, 12225.00
1525.116, 12221.24
1526.153, 12282.00
1527.190, 12268.00
1528.226, 12326.00
1529.263, 12338.00
1530.299, 12341.00
1531.335, 12375.00
1532.371, 12256.00
1533.407, 12278.00
1534.443, 12266.00
1535.478, 12465.00
1536.514, 12259.00
1537.549, 12444.00
1538.584, 12562.00
1539.619, 12515.00
1540.654, 12361.00
1541.689, 12401.00
1542.723, 12457.00
1543.757, 12509.00
1544.792, 12551.00
1545.826, 12428.00
1546.860, 12489.00
1547.893, 12528.00
1548.927, 12658.00
1549.960, 12632.00
1550.994, 12533.00
1552.027, 12724.00
1553.060, 12608.00
1554.093, 12717.00
1555.126, 12706.00
1556.158, 12638.00
1557.191, 12695.00
1558.223, 12690.00
1559.255, 12466.00
1560.287, 12672.00
1561.319, 12715.00
1562.350, 12714.00
##END=



