##NAMES=Gmelinite-Na
##RRUFFID=R060168
##IDEAL CHEMISTRY=Na_4_(Si_8_Al_4_)O_24_&#183;11H_2_O
##LOCALITY=Five Islands, Nova Scotia, Canada
##OWNER=RRUFF
##SOURCE=Guy Ouellet
##DESCRIPTION=Salmon-red interpenetrating prismatic rhombohedral crystals
##STATUS=The identification of this mineral has been confirmed by X-ray diffraction and chemical analysis
##URL=rruff.info/R060168
##MEASURED CHEMISTRY=(Na_3.90_Ca_0.10_)(Si_7.90_Al_4.10_)O_24_Â·8.98H_2_O
##PIN_ID=M01916
##ORIENTATION=Laser parallel to a* (1 0 0). Fiducial mark perpendicular to laser is parallel to c [0 0 1]
237.3450, 16598.00
238.5690, 16618.00
239.7930, 16420.00
241.0170, 16551.00
242.2410, 16640.00
243.4640, 16679.00
244.6870, 16535.00
245.9100, 16540.00
247.1330, 16371.00
248.3560, 16561.00
249.5780, 16651.00
250.8000, 16642.00
252.0230, 16503.00
253.2440, 16398.00
254.4660, 16538.00
255.6880, 16551.00
256.9090, 16549.00
258.1300, 16748.00
259.3510, 16723.37
260.5720, 16691.71
261.7920, 16794.00
263.0130, 16609.00
264.2330, 16597.00
265.4530, 16712.00
266.6730, 16565.00
267.8920, 16651.00
269.1120, 16442.00
270.3310, 16592.00
271.5500, 16622.00
272.7690, 16550.00
273.9880, 16501.00
275.2060, 16711.00
276.4240, 16524.00
277.6430, 16676.00
278.8600, 16621.00
280.0780, 16797.00
281.2960, 16560.00
282.5130, 16751.00
283.7300, 16788.00
284.9470, 16900.00
286.1640, 16995.00
287.3810, 17059.64
288.5970, 17081.00
289.8130, 17222.00
291.0290, 17095.58
292.2450, 17327.31
293.4610, 17498.95
294.6760, 17613.65
295.8910, 17501.18
297.1060, 17682.05
298.3210, 17745.36
299.5360, 17803.85
300.7510, 18026.01
301.9650, 18171.00
303.1790, 18402.00
304.3930, 18443.00
305.6070, 18446.00
306.8200, 18613.00
308.0340, 19136.00
309.2470, 19095.00
310.4600, 19474.00
311.6730, 19790.00
312.8850, 19989.00
314.0980, 20528.00
315.3100, 20612.00
316.5220, 20934.00
317.7340, 20960.00
318.9460, 21019.00
320.1570, 21348.00
321.3690, 21154.00
322.5800, 21065.00
323.7910, 21263.00
325.0010, 21057.00
326.2120, 20737.00
327.4220, 20663.00
328.6330, 20308.00
329.8430, 20044.00
331.0520, 19571.00
332.2620, 19312.83
333.4720, 19194.38
334.6810, 19016.04
335.8900, 18780.84
337.0990, 18318.47
338.3070, 18149.66
339.5160, 17901.00
340.7240, 17826.00
341.9320, 17767.00
343.1400, 17690.00
344.3480, 17578.00
345.5560, 17393.00
346.7630, 17433.00
347.9700, 17297.00
349.1770, 17317.00
350.3840, 17272.00
351.5910, 17338.00
352.7970, 17328.54
354.0040, 17357.99
355.2100, 17314.00
356.4160, 17380.00
357.6220, 17284.00
358.8270, 17186.00
360.0320, 17380.00
361.2380, 17332.00
362.4430, 17267.00
363.6470, 17289.00
364.8520, 17358.00
366.0560, 17523.00
367.2610, 17371.00
368.4650, 17527.00
369.6690, 17485.00
370.8720, 17719.00
372.0760, 17705.00
373.2790, 17890.00
374.4820, 17866.00
375.6850, 18033.00
376.8880, 18032.00
378.0910, 18113.00
379.2930, 18360.00
380.4950, 18525.41
381.6970, 18669.00
382.8990, 19026.00
384.1010, 19079.00
385.3020, 19249.00
386.5040, 19476.00
387.7050, 19549.00
388.9060, 19872.00
390.1060, 20039.00
391.3070, 20183.00
392.5070, 20612.00
393.7080, 20724.00
394.9080, 21115.00
396.1070, 21541.00
397.3070, 22046.00
398.5070, 22400.00
399.7060, 23102.00
400.9050, 23629.00
402.1040, 24418.00
403.3030, 25052.00
404.5010, 25718.00
405.7000, 26571.00
406.8980, 27264.00
408.0960, 27530.00
409.2940, 28099.00
410.4910, 28279.00
411.6890, 28470.00
412.8860, 28283.00
414.0830, 28133.00
415.2800, 27570.00
416.4770, 27081.00
417.6730, 26288.00
418.8690, 25616.00
420.0660, 24953.00
421.2620, 24138.00
422.4570, 23350.00
423.6530, 23233.00
424.8480, 22350.00
426.0440, 21771.00
427.2390, 21695.00
428.4340, 21341.00
429.6280, 21000.00
430.8230, 20856.00
432.0170, 20671.00
433.2110, 20303.00
434.4050, 20313.00
435.5990, 20208.58
436.7930, 20213.84
437.9860, 20342.00
439.1800, 20304.00
440.3730, 20619.00
441.5660, 20498.00
442.7580, 20985.00
443.9510, 20811.00
445.1430, 20946.00
446.3350, 21181.00
447.5270, 21406.00
448.7190, 21740.00
449.9110, 21946.00
451.1020, 22294.00
452.2930, 22780.00
453.4850, 23090.00
454.6750, 23551.00
455.8660, 24077.00
457.0570, 24650.00
458.2470, 25203.00
459.4370, 25712.00
460.6270, 26356.20
461.8170, 27081.00
463.0070, 27573.00
464.1960, 28101.00
465.3850, 28596.00
466.5750, 29063.00
467.7630, 29905.00
468.9520, 30136.00
470.1410, 30944.00
471.3290, 31548.00
472.5170, 32526.00
473.7050, 33364.00
474.8930, 34099.00
476.0810, 35007.00
477.2680, 36176.00
478.4560, 37771.00
479.6430, 38987.00
480.8300, 40530.00
482.0160, 42185.00
483.2030, 43644.00
484.3890, 45679.00
485.5760, 47325.00
486.7620, 49223.00
487.9480, 50624.00
489.1330, 52073.00
490.3190, 53950.00
491.5040, 54783.00
492.6890, 55646.00
493.8740, 56201.00
495.0590, 56515.00
496.2440, 56711.00
497.4280, 56065.00
498.6120, 54626.00
499.7960, 53634.00
500.9800, 52270.00
502.1640, 50093.00
503.3470, 48746.00
504.5310, 46223.00
505.7140, 44175.00
506.8970, 41881.00
508.0800, 39752.00
509.2620, 37477.00
510.4450, 35655.00
511.6270, 33746.00
512.8090, 31717.00
513.9910, 30419.00
515.1730, 29132.00
516.3550, 27595.00
517.5360, 26544.00
518.7170, 25578.00
519.8980, 24724.00
521.0790, 24011.00
522.2600, 23293.86
523.4400, 22728.00
524.6210, 22158.00
525.8010, 21743.00
526.9810, 21373.00
528.1610, 21007.00
529.3400, 20697.75
530.5200, 20432.00
531.6990, 20113.00
532.8780, 19916.00
534.0570, 19599.76
535.2360, 19605.00
536.4140, 19228.00
537.5930, 19176.00
538.7710, 19190.00
539.9490, 18838.00
541.1270, 18898.00
542.3040, 18577.00
543.4820, 18704.00
544.6590, 18597.00
545.8360, 18584.00
547.0130, 18708.00
548.1900, 18488.00
549.3670, 18439.00
550.5430, 18447.00
551.7190, 18297.00
552.8960, 18215.00
554.0710, 18216.00
555.2470, 18173.00
556.4230, 18141.00
557.5980, 18039.00
558.7730, 17989.00
559.9480, 18076.00
561.1230, 18036.00
562.2980, 17870.00
563.4720, 17789.00
564.6470, 17905.00
565.8210, 17775.00
566.9950, 17534.00
568.1690, 17578.00
569.3420, 17763.00
570.5160, 17596.00
571.6890, 17711.00
572.8620, 17584.00
574.0350, 17726.00
575.2080, 17449.00
576.3800, 17602.00
577.5530, 17479.00
578.7250, 17456.00
579.8970, 17514.00
581.0690, 17458.00
582.2410, 17494.00
583.4120, 17370.00
584.5830, 17479.00
585.7550, 17497.00
586.9260, 17384.00
588.0960, 17419.00
589.2670, 17464.00
590.4380, 17486.00
591.6080, 17623.00
592.7780, 17496.00
593.9480, 17592.00
595.1180, 17515.00
596.2870, 17652.00
597.4570, 17649.00
598.6260, 17853.00
599.7950, 17695.00
600.9640, 17753.00
602.1330, 17772.00
603.3010, 17735.00
604.4700, 17868.00
605.6380, 17773.00
606.8060, 17796.00
607.9740, 17851.00
609.1420, 17856.00
610.3090, 17807.00
611.4760, 17784.00
612.6440, 17832.00
613.8110, 17897.00
614.9770, 17817.00
616.1440, 17710.00
617.3110, 17724.60
618.4770, 17744.00
619.6430, 17650.00
620.8090, 17702.00
621.9750, 17648.00
623.1400, 17665.00
624.3060, 17638.00
625.4710, 17602.00
626.6360, 17726.00
627.8010, 17577.00
628.9660, 17514.00
630.1300, 17785.00
631.2950, 17811.00
632.4590, 17605.00
633.6230, 17789.00
634.7870, 17986.00
635.9510, 17859.00
637.1140, 17924.00
638.2780, 17953.00
639.4410, 17891.00
640.6040, 18203.00
641.7670, 17903.00
642.9290, 18149.00
644.0920, 18157.00
645.2540, 18120.00
646.4160, 18218.00
647.5780, 18210.00
648.7400, 18159.00
649.9020, 18325.00
651.0630, 18304.00
652.2250, 18192.00
653.3860, 18368.00
654.5470, 18179.00
655.7080, 18267.00
656.8680, 18238.00
658.0290, 18158.00
659.1890, 18249.00
660.3490, 18232.00
661.5090, 18052.00
662.6690, 18103.00
663.8280, 18157.00
664.9880, 18151.00
666.1470, 17948.00
667.3060, 18001.00
668.4650, 17916.00
669.6240, 17941.00
670.7820, 17875.00
671.9410, 17868.00
673.0990, 17855.00
674.2570, 17990.00
675.4150, 17678.00
676.5720, 17882.00
677.7300, 17741.00
678.8870, 17584.00
680.0450, 17663.00
681.2020, 17597.00
682.3590, 17785.00
683.5150, 17790.00
684.6720, 17633.00
685.8280, 17870.00
686.9840, 17758.00
688.1400, 17758.00
689.2960, 17706.00
690.4520, 17547.00
691.6070, 17783.00
692.7630, 17688.00
693.9180, 17426.00
695.0730, 17738.00
696.2280, 17777.00
697.3820, 17653.00
698.5370, 17613.00
699.6910, 17649.00
700.8450, 17523.00
701.9990, 17775.00
703.1530, 17625.00
704.3070, 17574.00
705.4600, 17857.00
706.6130, 17622.00
707.7660, 17836.00
708.9190, 17701.00
710.0720, 17700.00
711.2250, 17624.00
712.3770, 17831.00
713.5300, 17720.00
714.6820, 17612.00
715.8340, 17836.00
716.9850, 17844.00
718.1370, 17663.00
719.2880, 17824.00
720.4400, 18003.00
721.5910, 17826.00
722.7420, 17812.00
723.8930, 17811.00
725.0430, 17959.00
726.1940, 17883.00
727.3440, 17930.00
728.4940, 17900.00
729.6440, 17789.00
730.7940, 17754.00
731.9430, 17915.00
733.0930, 17874.00
734.2420, 17964.00
735.3910, 17934.00
736.5400, 17940.00
737.6890, 17955.00
738.8370, 17943.00
739.9860, 17872.00
741.1340, 17932.00
742.2820, 18056.00
743.4300, 18232.00
744.5780, 18080.00
745.7250, 17999.00
746.8730, 18078.00
748.0200, 18068.00
749.1670, 18211.00
750.3140, 18284.00
751.4610, 18313.00
752.6070, 18389.00
753.7540, 18407.00
754.9000, 18214.00
756.0460, 18288.00
757.1920, 18259.00
758.3380, 18352.00
759.4830, 18422.00
760.6280, 18333.00
761.7740, 18775.00
762.9190, 18540.00
764.0640, 18899.00
765.2080, 18843.00
766.3530, 18831.00
767.4970, 18571.00
768.6420, 18696.00
769.7860, 18659.00
770.9300, 18688.00
772.0730, 18753.00
773.2170, 18849.00
774.3600, 18864.83
775.5040, 18866.00
776.6470, 18834.00
777.7900, 18798.00
778.9320, 18838.77
780.0750, 18777.00
781.2170, 18847.00
782.3600, 18821.00
783.5020, 18890.05
784.6440, 18891.00
785.7850, 19005.00
786.9270, 19030.00
788.0680, 18998.00
789.2100, 19139.00
790.3510, 19273.00
791.4920, 19152.00
792.6320, 19402.00
793.7730, 19160.00
794.9130, 19502.00
796.0540, 19517.00
797.1940, 19449.00
798.3340, 19567.00
799.4730, 19579.00
800.6130, 19408.00
801.7520, 19472.00
802.8920, 19406.00
804.0310, 19407.00
805.1700, 19447.00
806.3090, 19062.00
807.4470, 19275.00
808.5860, 19026.00
809.7240, 18882.00
810.8620, 18956.00
812.0000, 18847.00
813.1380, 18711.00
814.2750, 18598.00
815.4130, 18545.00
816.5500, 18587.00
817.6870, 18568.00
818.8240, 18661.00
819.9610, 18590.00
821.0980, 18586.00
822.2340, 18585.00
823.3700, 18541.06
824.5070, 18525.00
825.6430, 18510.00
826.7780, 18421.00
827.9140, 18443.00
829.0500, 18572.00
830.1850, 18288.00
831.3200, 18463.00
832.4550, 18479.00
833.5900, 18343.00
834.7250, 18559.00
835.8590, 18605.00
836.9930, 18567.00
838.1280, 18508.00
839.2620, 18539.00
840.3950, 18628.00
841.5290, 18609.89
842.6630, 18595.00
843.7960, 18656.00
844.9290, 18606.00
846.0620, 18605.00
847.1950, 18591.28
848.3280, 18607.79
849.4600, 18548.00
850.5930, 18668.00
851.7250, 18686.00
852.8570, 18714.00
853.9890, 18845.00
855.1210, 18845.21
856.2520, 18864.20
857.3840, 18883.00
858.5150, 18833.00
859.6460, 18762.00
860.7770, 18714.00
861.9080, 18711.59
863.0380, 18705.96
864.1690, 18719.00
865.2990, 18748.00
866.4290, 18736.00
867.5590, 18740.00
868.6890, 18747.67
869.8190, 18664.00
870.9480, 18773.00
872.0770, 18710.00
873.2070, 18761.00
874.3360, 18822.00
875.4640, 18750.00
876.5930, 18765.00
877.7220, 18917.00
878.8500, 18889.00
879.9780, 18914.00
881.1060, 18873.00
882.2340, 18816.00
883.3620, 18941.00
884.4890, 18910.00
885.6170, 18969.00
886.7440, 19011.00
887.8710, 18846.00
888.9980, 18885.00
890.1240, 18928.00
891.2510, 18935.00
892.3770, 18945.00
893.5040, 18982.15
894.6300, 18989.00
895.7560, 18996.00
896.8810, 19041.00
898.0070, 19029.76
899.1330, 19044.50
900.2580, 19045.00
901.3830, 19083.00
902.5080, 19124.00
903.6330, 19217.00
904.7570, 19217.00
905.8820, 19323.00
907.0060, 19262.00
908.1300, 19328.00
909.2540, 18991.00
910.3780, 19087.00
911.5020, 19168.00
912.6250, 19335.00
913.7490, 19279.00
914.8720, 19317.00
915.9950, 19183.00
917.1180, 19244.53
918.2400, 19399.00
919.3630, 19288.00
920.4850, 19404.00
921.6080, 19388.00
922.7300, 19386.00
923.8520, 19479.00
924.9730, 19509.00
926.0950, 19335.00
927.2160, 19446.00
928.3380, 19354.00
929.4590, 19607.00
930.5800, 19557.00
931.7010, 19611.00
932.8210, 19597.00
933.9420, 19808.00
935.0620, 19639.00
936.1820, 19703.00
937.3020, 19597.00
938.4220, 19552.00
939.5420, 19674.00
940.6610, 19563.00
941.7810, 19611.25
942.9000, 19867.00
944.0190, 19625.00
945.1380, 19794.00
946.2570, 19808.00
947.3750, 19905.00
948.4940, 20015.00
949.6120, 19846.00
950.7300, 19844.00
951.8480, 19924.00
952.9660, 19829.36
954.0830, 20009.89
955.2010, 20130.38
956.3180, 20193.96
957.4350, 20030.37
958.5520, 20160.13
959.6690, 20172.32
960.7860, 20179.70
961.9020, 20350.70
963.0190, 20220.16
964.1350, 20388.57
965.2510, 20437.62
966.3670, 20541.30
967.4830, 20526.70
968.5980, 20302.00
969.7140, 20475.00
970.8290, 20527.00
971.9440, 20784.00
973.0590, 20791.00
974.1740, 20630.00
975.2880, 20797.00
976.4030, 20695.00
977.5170, 21002.00
978.6310, 20891.00
979.7450, 21007.00
980.8590, 21040.00
981.9730, 21215.00
983.0860, 21198.00
984.2000, 21382.00
985.3130, 21516.00
986.4260, 21810.00
987.5390, 21626.00
988.6520, 21998.00
989.7640, 21834.00
990.8770, 22141.00
991.9890, 21891.00
993.1010, 22102.00
994.2130, 22276.00
995.3250, 22203.00
996.4370, 21998.00
997.5480, 21852.00
998.6590, 21956.00
999.7710, 21910.00
1000.882, 22185.00
1001.993, 22290.00
1003.103, 22013.98
1004.214, 22176.10
1005.324, 22278.10
1006.434, 22323.25
1007.545, 22141.24
1008.655, 22252.55
1009.764, 22246.29
1010.874, 22235.22
1011.983, 22387.80
1013.093, 22238.81
1014.202, 22388.80
1015.311, 22419.43
1016.420, 22504.69
1017.528, 22521.00
1018.637, 22320.00
1019.745, 22454.00
1020.854, 22642.00
1021.962, 22578.00
1023.070, 22469.00
1024.177, 22450.00
1025.285, 22496.00
1026.392, 22407.00
1027.500, 22739.00
1028.607, 22727.00
1029.714, 22670.00
1030.821, 22909.00
1031.927, 22542.00
1033.034, 22750.00
1034.140, 22607.00
1035.246, 22731.00
1036.352, 22656.00
1037.458, 22461.00
1038.564, 22675.00
1039.670, 22766.00
1040.775, 22536.00
1041.880, 22678.00
1042.986, 22670.00
1044.090, 22659.00
1045.195, 22585.00
1046.300, 22626.00
1047.404, 22769.00
1048.509, 22683.00
1049.613, 22410.00
1050.717, 22534.00
1051.821, 22718.00
1052.925, 22564.00
1054.028, 22732.00
1055.132, 22790.00
1056.235, 22767.00
1057.338, 22559.00
1058.441, 22778.00
1059.544, 22820.00
1060.647, 22872.00
1061.749, 22997.00
1062.851, 23024.00
1063.954, 23101.00
1065.056, 23002.00
1066.158, 23165.00
1067.259, 23202.00
1068.361, 23220.00
1069.462, 23458.00
1070.564, 23698.00
1071.665, 23503.00
1072.766, 23639.00
1073.867, 23711.00
1074.967, 23763.00
1076.068, 23794.00
1077.168, 24144.00
1078.268, 24157.00
1079.368, 24291.00
1080.468, 24462.00
1081.568, 24514.00
1082.668, 24636.00
1083.767, 24774.00
1084.866, 24898.00
1085.966, 24933.00
1087.065, 25015.00
1088.163, 25273.00
1089.262, 25128.00
1090.361, 25431.00
1091.459, 25310.00
1092.557, 25389.00
1093.655, 25549.00
1094.753, 25786.00
1095.851, 25822.00
1096.949, 25980.00
1098.046, 25933.00
1099.143, 26121.00
1100.241, 26202.00
1101.338, 26085.00
1102.434, 26320.00
1103.531, 26247.00
1104.628, 26348.00
1105.724, 26467.00
1106.820, 26283.00
1107.916, 26660.00
1109.012, 26573.00
1110.108, 26486.00
1111.204, 26730.00
1112.299, 26873.00
1113.395, 26576.00
1114.490, 26776.00
1115.585, 26741.00
1116.680, 26856.00
1117.775, 26986.00
1118.869, 26787.00
1119.964, 27010.00
1121.058, 26833.00
1122.152, 26960.00
1123.246, 26929.00
1124.340, 26868.00
1125.434, 26968.00
1126.527, 26846.00
1127.620, 26813.00
1128.714, 26586.00
1129.807, 26573.00
1130.900, 26532.00
1131.992, 26581.00
1133.085, 26464.00
1134.178, 26233.00
1135.270, 26182.00
1136.362, 26192.00
1137.454, 26209.00
1138.546, 26206.00
1139.638, 26186.74
1140.729, 26023.00
1141.821, 26087.00
1142.912, 25971.00
1144.003, 25824.00
1145.094, 25867.00
1146.185, 25902.00
1147.276, 25759.00
1148.366, 25581.00
1149.456, 25478.00
1150.547, 25499.00
1151.637, 25525.00
1152.727, 25583.00
1153.816, 25521.59
1154.906, 25227.00
1155.995, 25338.00
1157.085, 25296.00
1158.174, 25065.00
1159.263, 25063.00
1160.352, 24918.00
1161.441, 25094.00
1162.529, 24684.00
1163.618, 24614.00
1164.706, 24871.00
1165.794, 24661.00
1166.882, 24690.00
1167.970, 24513.00
1169.058, 24429.00
1170.145, 24241.00
1171.232, 24505.00
1172.320, 24241.00
1173.407, 24376.00
1174.494, 24291.00
1175.580, 23959.00
1176.667, 23931.00
1177.754, 24058.00
1178.840, 24092.00
1179.926, 23788.00
1181.012, 23738.00
1182.098, 23876.00
1183.184, 23672.00
1184.269, 23622.00
1185.355, 23647.00
1186.440, 23738.00
1187.525, 23716.00
1188.610, 23765.00
1189.695, 23750.38
1190.780, 23728.95
1191.864, 23688.00
1192.949, 23691.00
1194.033, 23636.00
1195.117, 23663.00
1196.201, 23594.00
1197.285, 23603.00
1198.369, 23651.00
1199.452, 23732.00
1200.536, 23659.00
1201.619, 23542.00
1202.702, 23589.00
1203.785, 23610.00
1204.868, 23467.00
1205.950, 23665.00
1207.033, 23595.00
1208.115, 23529.00
1209.197, 23544.00
1210.279, 23614.00
1211.361, 23679.00
1212.443, 23719.00
1213.525, 23713.00
1214.606, 23669.00
1215.687, 23729.00
1216.769, 23831.00
1217.850, 23683.00
1218.930, 23872.00
1220.011, 23790.00
1221.092, 23715.00
1222.172, 23833.00
1223.252, 23722.00
1224.333, 23633.00
1225.413, 23813.00
1226.492, 24010.00
1227.572, 23698.00
1228.652, 23785.00
1229.731, 23932.00
1230.810, 23859.00
1231.889, 23931.00
1232.968, 24047.00
1234.047, 23864.00
1235.126, 23994.00
1236.204, 24019.00
1237.283, 24242.00
1238.361, 24448.00
1239.439, 24062.00
1240.517, 24108.00
1241.595, 24265.00
1242.673, 24078.00
1243.750, 24099.00
1244.827, 24341.00
1245.905, 24246.00
1246.982, 24038.00
1248.059, 24142.00
1249.135, 24268.00
1250.212, 24218.00
1251.288, 24187.00
1252.365, 24282.00
1253.441, 24309.00
1254.517, 24337.00
1255.593, 24339.00
1256.669, 24517.00
1257.744, 24526.00
1258.820, 24673.00
1259.895, 24571.00
1260.970, 24514.00
1262.045, 24564.00
1263.120, 24557.00
1264.195, 24576.00
1265.270, 24695.00
1266.344, 24631.00
1267.418, 24735.00
1268.492, 24937.00
1269.566, 24810.00
1270.640, 25052.00
1271.714, 24738.00
1272.788, 24750.00
1273.861, 24918.00
1274.934, 25000.00
1276.007, 25005.00
1277.080, 24991.00
1278.153, 25231.00
1279.226, 25264.00
1280.299, 25065.00
1281.371, 25375.00
1282.443, 25306.00
1283.515, 25316.00
1284.587, 25175.00
1285.659, 25340.00
1286.731, 25287.00
1287.802, 25667.00
1288.874, 25613.00
1289.945, 25643.00
1291.016, 25631.00
1292.087, 25632.00
1293.158, 25644.88
1294.229, 25742.00
1295.299, 25666.00
1296.370, 25774.00
1297.440, 25809.00
1298.510, 25822.00
1299.580, 26043.00
1300.650, 26073.00
1301.720, 26118.00
1302.789, 25996.00
1303.859, 25988.00
1304.928, 26120.00
1305.997, 25920.00
1307.066, 26109.00
1308.135, 26176.00
1309.203, 26103.00
1310.272, 26358.00
1311.340, 26270.00
1312.409, 26273.00
1313.477, 26163.00
1314.545, 26254.00
1315.612, 26351.00
1316.680, 26358.79
1317.748, 26493.00
1318.815, 26430.00
1319.882, 26504.00
1320.949, 26408.00
1322.016, 26336.00
1323.083, 26263.00
1324.150, 26227.75
1325.216, 26388.00
1326.283, 26192.00
1327.349, 26253.00
1328.415, 26264.00
1329.481, 25945.00
1330.547, 26334.00
1331.613, 26273.00
1332.678, 26152.00
1333.744, 26149.00
1334.809, 26172.00
1335.874, 25980.00
1336.939, 26157.00
1338.004, 26067.00
1339.068, 26141.00
1340.133, 26167.00
1341.197, 25889.00
1342.262, 26035.00
1343.326, 25958.00
1344.390, 26111.00
1345.453, 26082.00
1346.517, 25946.00
1347.581, 26058.00
1348.644, 25967.00
1349.707, 26199.00
1350.770, 25994.00
1351.833, 26118.00
1352.896, 26179.00
1353.959, 25933.00
1355.022, 25903.00
1356.084, 26145.00
1357.146, 26019.00
1358.208, 25858.00
1359.270, 26118.00
1360.332, 26126.00
1361.394, 25882.00
1362.455, 25982.00
1363.517, 26020.00
1364.578, 25842.00
1365.639, 25949.00
1366.700, 26130.00
1367.761, 25793.00
1368.822, 25815.00
1369.883, 26087.00
1370.943, 26051.00
1372.003, 25871.00
1373.063, 26050.00
1374.123, 25791.00
1375.183, 25889.00
1376.243, 25905.00
1377.303, 25941.00
1378.362, 25943.33
1379.421, 25920.00
1380.481, 25877.00
1381.540, 25816.00
1382.598, 25858.00
1383.657, 25954.00
1384.716, 25944.00
1385.774, 25927.00
1386.833, 25980.00
1387.891, 25936.00
1388.949, 26048.00
1390.007, 25940.00
1391.065, 26169.00
1392.122, 26084.00
1393.180, 26111.00
1394.237, 26104.00
1395.294, 26181.00
1396.351, 26027.00
1397.408, 26094.00
1398.465, 25970.00
1399.522, 26204.00
1400.578, 25875.00
1401.635, 26223.00
1402.691, 26135.00
1403.747, 25875.00
1404.803, 26131.00
1405.859, 26186.00
1406.914, 26170.00
1407.970, 26131.00
1409.025, 26235.00
1410.081, 26018.00
1411.136, 26027.00
1412.191, 26128.00
1413.245, 26121.00
1414.300, 26193.00
1415.355, 26274.00
1416.409, 26206.00
1417.463, 26141.00
1418.518, 26055.00
1419.572, 26317.00
1420.625, 26392.00
1421.679, 26425.00
1422.733, 26364.00
1423.786, 26425.00
1424.840, 26455.00
1425.893, 26350.00
1426.946, 26558.00
1427.999, 26363.00
1429.051, 26524.00
1430.104, 26557.00
1431.157, 26598.00
1432.209, 26379.00
1433.261, 26633.00
1434.313, 26521.00
1435.365, 26592.00
1436.417, 26615.00
1437.468, 26614.00
1438.520, 26757.00
1439.571, 26762.00
1440.623, 26788.00
1441.674, 26756.00
1442.725, 26829.00
1443.775, 26814.00
1444.826, 26801.98
1445.877, 26830.00
1446.927, 26826.00
1447.977, 26930.00
1449.028, 27091.00
1450.078, 27013.43
1451.127, 27015.00
1452.177, 26941.00
1453.227, 27007.00
1454.276, 27011.00
1455.325, 27012.56
1456.375, 27150.00
1457.424, 27089.00
1458.473, 27017.00
1459.521, 27138.00
1460.570, 26964.00
1461.618, 27203.00
1462.667, 27049.00
1463.715, 26990.00
1464.763, 26997.00
1465.811, 27021.00
1466.859, 26961.58
1467.906, 27001.03
1468.954, 26926.00
1470.001, 27002.00
1471.049, 27087.00
1472.096, 27026.00
1473.143, 26873.00
1474.190, 27151.00
1475.236, 27293.00
1476.283, 27177.00
1477.329, 27073.00
1478.376, 26980.00
1479.422, 27023.00
1480.468, 26830.00
1481.514, 27046.00
1482.559, 27089.00
1483.605, 27171.00
1484.650, 27038.00
1485.696, 27028.00
1486.741, 27035.00
1487.786, 27310.00
1488.831, 27126.00
1489.876, 27227.00
1490.920, 27128.00
1491.965, 27089.00
1493.009, 27139.00
1494.054, 27190.00
1495.098, 27148.00
1496.142, 27196.00
1497.185, 27214.08
1498.229, 27144.00
1499.273, 27271.00
1500.316, 27318.00
1501.359, 27350.00
1502.403, 27058.00
1503.446, 27117.00
1504.489, 27190.00
1505.531, 27307.00
1506.574, 27392.00
1507.616, 27460.00
1508.659, 27137.00
1509.701, 27242.00
1510.743, 27394.00
1511.785, 27245.00
1512.827, 27451.00
1513.868, 27611.00
1514.910, 27522.00
1515.951, 27616.00
1516.993, 27439.00
1518.034, 27606.00
1519.075, 27549.00
1520.116, 27636.00
1521.156, 27602.00
1522.197, 27722.00
1523.237, 27693.00
1524.278, 27654.00
1525.318, 27574.00
1526.358, 27441.00
1527.398, 27723.00
1528.438, 27745.00
1529.477, 27724.00
1530.517, 27917.00
1531.556, 27970.00
1532.596, 27991.31
1533.635, 28030.31
1534.674, 27961.00
1535.712, 27991.00
1536.751, 27830.00
1537.790, 27805.00
1538.828, 27694.00
1539.866, 28080.00
1540.905, 27884.00
1541.943, 27904.00
1542.981, 27985.00
1544.018, 27901.00
1545.056, 27995.00
1546.094, 28083.00
1547.131, 28124.00
1548.168, 28006.00
1549.205, 28285.00
1550.242, 28234.00
1551.279, 28085.00
1552.316, 28387.00
1553.352, 28417.00
1554.389, 28457.00
1555.425, 28409.00
1556.461, 28611.00
1557.497, 28271.00
1558.533, 28203.00
1559.569, 28293.00
1560.605, 28150.00
1561.640, 28167.00
1562.675, 28313.00
1563.711, 28232.00
##END=



