##NAMES=Gmelinite-Na
##RRUFFID=R060168
##IDEAL CHEMISTRY=Na_4_(Si_8_Al_4_)O_24_&#183;11H_2_O
##LOCALITY=Five Islands, Nova Scotia, Canada
##OWNER=RRUFF
##SOURCE=Guy Ouellet
##DESCRIPTION=Salmon-red interpenetrating prismatic rhombohedral crystals
##STATUS=The identification of this mineral has been confirmed by X-ray diffraction and chemical analysis
##URL=rruff.info/R060168
##MEASURED CHEMISTRY=(Na_3.90_Ca_0.10_)(Si_7.90_Al_4.10_)O_24_Â·8.98H_2_O
##PIN_ID=M00975
##ORIENTATION=Laser parallel to c* (0 0 1). Fiducial mark perpendicular to laser is parallel to a [1 0 0]
248.3560, 10194.00
249.5780, 10117.00
250.8000, 10041.00
252.0230, 10042.00
253.2440, 10068.00
254.4660, 9973.000
255.6880, 10106.00
256.9090, 10032.00
258.1300, 10184.00
259.3510, 10169.28
260.5720, 10122.85
261.7920, 10181.00
263.0130, 9997.000
264.2330, 9980.000
265.4530, 9899.000
266.6730, 9932.000
267.8920, 9846.000
269.1120, 10053.00
270.3310, 9902.310
271.5500, 9925.000
272.7690, 9736.000
273.9880, 9804.000
275.2060, 9764.000
276.4240, 9884.000
277.6430, 9969.000
278.8600, 9950.000
280.0780, 9862.000
281.2960, 10066.00
282.5130, 10101.00
283.7300, 10168.00
284.9470, 10260.00
286.1640, 10416.00
287.3810, 10462.00
288.5970, 10611.00
289.8130, 10701.00
291.0290, 10957.00
292.2450, 11056.00
293.4610, 11353.00
294.6760, 11633.00
295.8910, 11660.00
297.1060, 11863.00
298.3210, 12082.00
299.5360, 12353.00
300.7510, 12670.00
301.9650, 12791.00
303.1790, 13244.00
304.3930, 13365.00
305.6070, 13807.00
306.8200, 14223.00
308.0340, 14555.00
309.2470, 15133.00
310.4600, 15880.00
311.6730, 16144.00
312.8850, 16410.00
314.0980, 17610.00
315.3100, 17950.00
316.5220, 18086.00
317.7340, 18417.00
318.9460, 18553.00
320.1570, 18790.00
321.3690, 18795.00
322.5800, 18811.00
323.7910, 18800.00
325.0010, 18311.00
326.2120, 18085.00
327.4220, 17614.00
328.6330, 17167.00
329.8430, 16550.00
331.0520, 16136.00
332.2620, 15448.00
333.4720, 14864.00
334.6810, 14290.00
335.8900, 13746.18
337.0990, 13327.45
338.3070, 12799.00
339.5160, 12594.00
340.7240, 12260.00
341.9320, 11974.00
343.1400, 11642.00
344.3480, 11502.00
345.5560, 11269.00
346.7630, 10978.00
347.9700, 11015.00
349.1770, 10813.00
350.3840, 10703.00
351.5910, 10672.00
352.7970, 10580.00
354.0040, 10460.00
355.2100, 10328.00
356.4160, 10370.00
357.6220, 10369.00
358.8270, 10395.00
360.0320, 10192.00
361.2380, 10137.00
362.4430, 10320.00
363.6470, 10492.00
364.8520, 10309.00
366.0560, 10441.00
367.2610, 10481.00
368.4650, 10464.00
369.6690, 10742.00
370.8720, 10716.00
372.0760, 10805.00
373.2790, 11015.00
374.4820, 10965.00
375.6850, 11270.00
376.8880, 11439.00
378.0910, 11489.00
379.2930, 11674.00
380.4950, 11810.00
381.6970, 12023.00
382.8990, 12209.00
384.1010, 12433.00
385.3020, 12694.00
386.5040, 12891.00
387.7050, 13130.77
388.9060, 13402.00
390.1060, 13608.00
391.3070, 13908.00
392.5070, 14208.00
393.7080, 14592.58
394.9080, 14835.00
396.1070, 15493.00
397.3070, 16000.00
398.5070, 16558.00
399.7060, 17328.00
400.9050, 17828.00
402.1040, 18786.00
403.3030, 19695.00
404.5010, 20281.00
405.7000, 21213.00
406.8980, 21798.00
408.0960, 22442.86
409.2940, 23272.00
410.4910, 23460.00
411.6890, 23765.00
412.8860, 23877.00
414.0830, 23608.00
415.2800, 23145.00
416.4770, 22689.43
417.6730, 21944.53
418.8690, 21237.00
420.0660, 20237.00
421.2620, 19277.00
422.4570, 18365.00
423.6530, 17609.00
424.8480, 16887.00
426.0440, 16294.00
427.2390, 15747.00
428.4340, 15398.00
429.6280, 14908.35
430.8230, 14566.00
432.0170, 14228.00
433.2110, 13972.00
434.4050, 13778.02
435.5990, 13675.00
436.7930, 13574.00
437.9860, 13541.00
439.1800, 13628.00
440.3730, 13600.00
441.5660, 13423.00
442.7580, 13586.00
443.9510, 13643.69
445.1430, 14060.00
446.3350, 13927.00
447.5270, 14116.00
448.7190, 14166.00
449.9110, 14389.00
451.1020, 14797.00
452.2930, 14976.00
453.4850, 15099.00
454.6750, 15548.00
455.8660, 15958.00
457.0570, 16239.00
458.2470, 16915.00
459.4370, 17227.00
460.6270, 17830.00
461.8170, 18277.00
463.0070, 18832.00
464.1960, 19472.00
465.3850, 20158.00
466.5750, 20875.00
467.7630, 21721.00
468.9520, 22634.00
470.1410, 23500.00
471.3290, 24517.00
472.5170, 25828.00
473.7050, 26929.00
474.8930, 28275.00
476.0810, 29631.00
477.2680, 31135.73
478.4560, 32825.46
479.6430, 34511.00
480.8300, 36509.00
482.0160, 38561.00
483.2030, 40645.00
484.3890, 42864.00
485.5760, 44703.00
486.7620, 46251.00
487.9480, 48326.00
489.1330, 49924.00
490.3190, 52022.00
491.5040, 52918.00
492.6890, 53545.00
493.8740, 54620.00
495.0590, 54495.00
496.2440, 54617.00
497.4280, 53671.00
498.6120, 53104.00
499.7960, 51795.00
500.9800, 50060.00
502.1640, 48055.00
503.3470, 45512.00
504.5310, 42995.00
505.7140, 40965.00
506.8970, 38176.00
508.0800, 35489.00
509.2620, 32865.00
510.4450, 30648.00
511.6270, 28393.00
512.8090, 26324.00
513.9910, 24187.00
515.1730, 22526.00
516.3550, 21026.00
517.5360, 19627.00
518.7170, 18530.00
519.8980, 17364.00
521.0790, 16557.00
522.2600, 15653.00
523.4400, 14881.00
524.6210, 14245.90
525.8010, 13736.00
526.9810, 13176.00
528.1610, 12669.00
529.3400, 12353.00
530.5200, 11983.00
531.6990, 11654.00
532.8780, 11421.27
534.0570, 11073.00
535.2360, 10992.00
536.4140, 10791.00
537.5930, 10593.00
538.7710, 10490.00
539.9490, 10250.00
541.1270, 10124.00
542.3040, 10081.00
543.4820, 10024.00
544.6590, 9844.000
545.8360, 9789.000
547.0130, 9710.000
548.1900, 9545.000
549.3670, 9624.000
550.5430, 9415.000
551.7190, 9260.000
552.8960, 9295.000
554.0710, 9254.000
555.2470, 9203.000
556.4230, 9190.000
557.5980, 9100.000
558.7730, 9113.000
559.9480, 8997.000
561.1230, 8968.000
562.2980, 8914.000
563.4720, 8915.000
564.6470, 8877.000
565.8210, 8841.099
566.9950, 8806.000
568.1690, 8764.000
569.3420, 8782.000
570.5160, 8740.000
571.6890, 8596.000
572.8620, 8462.000
574.0350, 8541.000
575.2080, 8547.000
576.3800, 8586.000
577.5530, 8559.000
578.7250, 8430.000
579.8970, 8533.000
581.0690, 8491.000
582.2410, 8477.000
583.4120, 8572.000
584.5830, 8519.000
585.7550, 8537.000
586.9260, 8452.000
588.0960, 8500.000
589.2670, 8592.000
590.4380, 8562.000
591.6080, 8580.000
592.7780, 8537.000
593.9480, 8557.000
595.1180, 8532.000
596.2870, 8633.000
597.4570, 8513.000
598.6260, 8662.000
599.7950, 8540.000
600.9640, 8618.000
602.1330, 8686.000
603.3010, 8698.000
604.4700, 8709.000
605.6380, 8643.000
606.8060, 8653.000
607.9740, 8654.000
609.1420, 8763.000
610.3090, 8703.000
611.4760, 8587.000
612.6440, 8657.000
613.8110, 8569.000
614.9770, 8603.000
616.1440, 8491.000
617.3110, 8574.000
618.4770, 8377.000
619.6430, 8347.000
620.8090, 8483.000
621.9750, 8416.000
623.1400, 8387.000
624.3060, 8351.000
625.4710, 8422.000
626.6360, 8420.000
627.8010, 8389.000
628.9660, 8381.000
630.1300, 8281.000
631.2950, 8403.000
632.4590, 8407.000
633.6230, 8301.000
634.7870, 8480.000
635.9510, 8443.000
637.1140, 8457.000
638.2780, 8415.000
639.4410, 8375.000
640.6040, 8504.000
641.7670, 8466.000
642.9290, 8589.000
644.0920, 8642.000
645.2540, 8662.000
646.4160, 8746.000
647.5780, 8767.000
648.7400, 8788.000
649.9020, 8745.000
651.0630, 8668.000
652.2250, 8824.000
653.3860, 8683.000
654.5470, 8778.000
655.7080, 8665.000
656.8680, 8649.000
658.0290, 8592.000
659.1890, 8552.973
660.3490, 8575.000
661.5090, 8494.000
662.6690, 8477.000
663.8280, 8428.000
664.9880, 8401.000
666.1470, 8369.859
667.3060, 8325.000
668.4650, 8298.000
669.6240, 8223.000
670.7820, 8164.000
671.9410, 8193.000
673.0990, 8075.000
674.2570, 8056.000
675.4150, 7923.000
676.5720, 7946.000
677.7300, 7913.000
678.8870, 7883.000
680.0450, 7918.000
681.2020, 7928.000
682.3590, 7833.000
683.5150, 7918.000
684.6720, 7907.000
685.8280, 7783.000
686.9840, 7899.000
688.1400, 7835.000
689.2960, 7824.000
690.4520, 7845.000
691.6070, 7804.000
692.7630, 7822.000
693.9180, 7820.057
695.0730, 7813.000
696.2280, 7817.000
697.3820, 7773.000
698.5370, 7743.000
699.6910, 7721.000
700.8450, 7704.000
701.9990, 7852.000
703.1530, 7785.000
704.3070, 7812.000
705.4600, 7740.000
706.6130, 7738.000
707.7660, 7838.000
708.9190, 7854.000
710.0720, 7822.000
711.2250, 7787.000
712.3770, 7813.000
713.5300, 7891.000
714.6820, 7772.000
715.8340, 7907.000
716.9850, 7837.000
718.1370, 7878.000
719.2880, 7957.000
720.4400, 7765.000
721.5910, 7960.000
722.7420, 7823.000
723.8930, 7916.000
725.0430, 8061.000
726.1940, 7844.000
727.3440, 7825.000
728.4940, 7820.000
729.6440, 7777.000
730.7940, 7830.554
731.9430, 7824.944
733.0930, 7923.000
734.2420, 7888.000
735.3910, 7904.000
736.5400, 7975.000
737.6890, 7893.000
738.8370, 7963.000
739.9860, 8008.000
741.1340, 7969.000
742.2820, 7990.000
743.4300, 8103.000
744.5780, 8030.000
745.7250, 7981.000
746.8730, 7968.000
748.0200, 8076.000
749.1670, 8089.000
750.3140, 8099.000
751.4610, 8216.000
752.6070, 8175.000
753.7540, 8268.000
754.9000, 8385.000
756.0460, 8452.000
757.1920, 8531.000
758.3380, 8566.000
759.4830, 8530.000
760.6280, 8686.000
761.7740, 8816.000
762.9190, 8785.000
764.0640, 8884.000
765.2080, 8953.891
766.3530, 8910.193
767.4970, 9096.000
768.6420, 8887.000
769.7860, 8908.000
770.9300, 8976.000
772.0730, 8881.000
773.2170, 8856.000
774.3600, 8913.000
775.5040, 8708.000
776.6470, 8722.000
777.7900, 8695.000
778.9320, 8577.000
780.0750, 8636.000
781.2170, 8566.000
782.3600, 8512.000
783.5020, 8473.000
784.6440, 8362.000
785.7850, 8365.000
786.9270, 8373.000
788.0680, 8304.000
789.2100, 8345.000
790.3510, 8359.000
791.4920, 8073.000
792.6320, 8190.000
793.7730, 8051.000
794.9130, 8129.000
796.0540, 8031.000
797.1940, 7994.000
798.3340, 7936.000
799.4730, 7996.000
800.6130, 7965.000
801.7520, 7928.271
802.8920, 7964.000
804.0310, 7848.000
805.1700, 7823.000
806.3090, 7798.000
807.4470, 7722.000
808.5860, 7640.000
809.7240, 7601.000
810.8620, 7614.000
812.0000, 7621.000
813.1380, 7492.000
814.2750, 7631.000
815.4130, 7658.000
816.5500, 7537.000
817.6870, 7486.000
818.8240, 7606.000
819.9610, 7517.000
821.0980, 7495.000
822.2340, 7481.000
823.3700, 7413.000
824.5070, 7531.000
825.6430, 7432.000
826.7780, 7313.000
827.9140, 7383.000
829.0500, 7442.000
830.1850, 7425.000
831.3200, 7344.000
832.4550, 7423.000
833.5900, 7418.000
834.7250, 7279.000
835.8590, 7439.000
836.9930, 7462.000
838.1280, 7342.000
839.2620, 7440.000
840.3950, 7336.000
841.5290, 7460.000
842.6630, 7492.000
843.7960, 7428.000
844.9290, 7414.000
846.0620, 7398.000
847.1950, 7464.000
848.3280, 7471.000
849.4600, 7542.000
850.5930, 7443.000
851.7250, 7452.000
852.8570, 7407.000
853.9890, 7367.000
855.1210, 7410.000
856.2520, 7396.000
857.3840, 7497.000
858.5150, 7468.000
859.6460, 7373.000
860.7770, 7529.000
861.9080, 7461.000
863.0380, 7449.000
864.1690, 7266.000
865.2990, 7466.000
866.4290, 7404.000
867.5590, 7472.000
868.6890, 7305.000
869.8190, 7365.000
870.9480, 7468.000
872.0770, 7445.000
873.2070, 7398.000
874.3360, 7349.000
875.4640, 7469.000
876.5930, 7528.000
877.7220, 7373.000
878.8500, 7289.000
879.9780, 7383.000
881.1060, 7361.000
882.2340, 7389.000
883.3620, 7453.000
884.4890, 7429.000
885.6170, 7379.000
886.7440, 7431.000
887.8710, 7359.000
888.9980, 7375.000
890.1240, 7452.000
891.2510, 7424.000
892.3770, 7388.000
893.5040, 7457.000
894.6300, 7480.000
895.7560, 7429.000
896.8810, 7486.000
898.0070, 7512.000
899.1330, 7421.000
900.2580, 7368.000
901.3830, 7475.000
902.5080, 7475.000
903.6330, 7555.000
904.7570, 7482.000
905.8820, 7480.000
907.0060, 7453.000
908.1300, 7470.000
909.2540, 7501.000
910.3780, 7463.000
911.5020, 7565.000
912.6250, 7585.000
913.7490, 7507.000
914.8720, 7647.000
915.9950, 7562.000
917.1180, 7558.000
918.2400, 7524.000
919.3630, 7722.000
920.4850, 7676.000
921.6080, 7691.000
922.7300, 7685.000
923.8520, 7667.428
924.9730, 7677.848
926.0950, 7643.000
927.2160, 7710.000
928.3380, 7691.000
929.4590, 7769.000
930.5800, 7788.000
931.7010, 7693.000
932.8210, 7715.000
933.9420, 7760.000
935.0620, 7859.000
936.1820, 7675.000
937.3020, 7664.000
938.4220, 7759.000
939.5420, 7716.000
940.6610, 7826.000
941.7810, 7822.000
942.9000, 7791.000
944.0190, 7774.000
945.1380, 7756.000
946.2570, 7851.000
947.3750, 7765.000
948.4940, 7913.000
949.6120, 7915.000
950.7300, 7850.000
951.8480, 7849.000
952.9660, 7845.088
954.0830, 7847.668
955.2010, 7876.000
956.3180, 7899.000
957.4350, 7960.000
958.5520, 7999.000
959.6690, 7994.000
960.7860, 8093.000
961.9020, 8066.000
963.0190, 8070.000
964.1350, 8178.000
965.2510, 8114.000
966.3670, 8238.000
967.4830, 8290.000
968.5980, 8340.000
969.7140, 8396.000
970.8290, 8389.000
971.9440, 8521.000
973.0590, 8419.000
974.1740, 8635.000
975.2880, 8641.261
976.4030, 8826.402
977.5170, 8951.411
978.6310, 9019.554
979.7450, 8860.527
980.8590, 8994.847
981.9730, 9011.606
983.0860, 9023.501
984.2000, 9199.107
985.3130, 9073.078
986.4260, 9246.047
987.5390, 9299.659
988.6520, 9407.896
989.7640, 9397.807
990.8770, 9424.296
991.9890, 9569.064
993.1010, 9648.316
994.2130, 9624.609
995.3250, 9736.277
996.4370, 9541.000
997.5480, 9721.000
998.6590, 9710.000
999.7710, 9843.000
1000.882, 9875.402
1001.993, 9814.000
1003.103, 9911.000
1004.214, 9901.000
1005.324, 9874.000
1006.434, 9937.000
1007.545, 9819.000
1008.655, 9887.000
1009.764, 9967.000
1010.874, 10066.00
1011.983, 10038.00
1013.093, 9995.000
1014.202, 10037.00
1015.311, 9897.000
1016.420, 10041.00
1017.528, 9914.000
1018.637, 9972.000
1019.745, 9982.000
1020.854, 10070.00
1021.962, 10116.00
1023.070, 9953.000
1024.177, 10048.00
1025.285, 9943.000
1026.392, 9996.000
1027.500, 10027.00
1028.607, 9912.000
1029.714, 9809.000
1030.821, 9879.000
1031.927, 9905.000
1033.034, 9819.000
1034.140, 9822.000
1035.246, 9906.000
1036.352, 9792.000
1037.458, 9827.000
1038.564, 9683.000
1039.670, 9805.000
1040.775, 9678.000
1041.880, 9798.000
1042.986, 9765.000
1044.090, 9709.000
1045.195, 9732.000
1046.300, 9626.000
1047.404, 9662.000
1048.509, 9826.000
1049.613, 9563.000
1050.717, 9787.000
1051.821, 9655.000
1052.925, 9710.000
1054.028, 9774.000
1055.132, 9649.000
1056.235, 9733.000
1057.338, 9783.000
1058.441, 9872.000
1059.544, 9925.000
1060.647, 9969.000
1061.749, 10004.00
1062.851, 10022.00
1063.954, 10120.00
1065.056, 10161.24
1066.158, 10195.00
1067.259, 10327.00
1068.361, 10430.00
1069.462, 10579.00
1070.564, 10719.00
1071.665, 10643.00
1072.766, 10829.00
1073.867, 10782.00
1074.967, 10935.00
1076.068, 11184.00
1077.168, 11287.00
1078.268, 11441.00
1079.368, 11456.00
1080.468, 11630.00
1081.568, 11709.00
1082.668, 11813.00
1083.767, 11834.00
1084.866, 12032.00
1085.966, 12080.21
1087.065, 12334.00
1088.163, 12310.00
1089.262, 12451.00
1090.361, 12679.00
1091.459, 12603.00
1092.557, 12756.00
1093.655, 12844.00
1094.753, 13109.00
1095.851, 13173.00
1096.949, 13154.00
1098.046, 13282.00
1099.143, 13310.00
1100.241, 13401.00
1101.338, 13554.00
1102.434, 13752.00
1103.531, 13764.00
1104.628, 13848.00
1105.724, 13879.00
1106.820, 13838.00
1107.916, 13907.00
1109.012, 13965.09
1110.108, 13879.00
1111.204, 14083.00
1112.299, 14190.00
1113.395, 14129.00
1114.490, 14000.00
1115.585, 14161.00
1116.680, 14122.00
1117.775, 14414.00
1118.869, 14421.00
1119.964, 14443.00
1121.058, 14560.00
1122.152, 14468.00
1123.246, 14463.00
1124.340, 14192.00
1125.434, 14057.00
1126.527, 13858.00
1127.620, 13585.00
1128.714, 13576.00
1129.807, 13318.00
1130.900, 13361.00
1131.992, 13205.00
1133.085, 13066.00
1134.178, 12920.00
1135.270, 12929.00
1136.362, 12857.00
1137.454, 12797.00
1138.546, 12713.76
1139.638, 12588.00
1140.729, 12486.00
1141.821, 12360.00
1142.912, 12216.00
1144.003, 12079.00
1145.094, 12039.00
1146.185, 11891.00
1147.276, 11802.00
1148.366, 11795.00
1149.456, 11713.00
1150.547, 11629.00
1151.637, 11315.00
1152.727, 11437.00
1153.816, 11153.00
1154.906, 11151.00
1155.995, 11122.00
1157.085, 10900.00
1158.174, 10945.00
1159.263, 10867.00
1160.352, 10807.00
1161.441, 10637.00
1162.529, 10635.00
1163.618, 10497.00
1164.706, 10319.00
1165.794, 10386.00
1166.882, 10224.00
1167.970, 10259.00
1169.058, 10119.00
1170.145, 10072.00
1171.232, 10015.26
1172.320, 10061.00
1173.407, 9868.000
1174.494, 9865.000
1175.580, 9782.000
1176.667, 9685.000
1177.754, 9707.000
1178.840, 9644.000
1179.926, 9584.000
1181.012, 9507.000
1182.098, 9509.000
1183.184, 9383.000
1184.269, 9416.000
1185.355, 9332.000
1186.440, 9335.000
1187.525, 9327.000
1188.610, 9142.000
1189.695, 9205.000
1190.780, 9311.000
1191.864, 9164.441
1192.949, 9138.897
1194.033, 9049.000
1195.117, 8961.000
1196.201, 8974.000
1197.285, 9035.000
1198.369, 8961.000
1199.452, 9034.000
1200.536, 9155.000
1201.619, 8990.000
1202.702, 9484.000
1203.785, 9197.472
1204.868, 9320.000
1205.950, 8956.000
1207.033, 8956.000
1208.115, 8988.000
1209.197, 8868.000
1210.279, 8919.000
1211.361, 8911.000
1212.443, 8884.000
1213.525, 9013.000
1214.606, 8846.000
1215.687, 8965.000
1216.769, 9001.000
1217.850, 9040.000
1218.930, 8947.000
1220.011, 8921.000
1221.092, 8919.000
1222.172, 8944.000
1223.252, 8979.000
1224.333, 8954.000
1225.413, 8981.000
1226.492, 8972.147
1227.572, 8959.697
1228.652, 8956.000
1229.731, 8953.000
1230.810, 8943.122
1231.889, 8983.000
1232.968, 8934.000
1234.047, 9010.000
1235.126, 8951.000
1236.204, 9087.000
1237.283, 9016.000
1238.361, 9035.000
1239.439, 9025.000
1240.517, 9021.000
1241.595, 9054.000
1242.673, 9048.635
1243.750, 9060.000
1244.827, 9056.000
1245.905, 9043.000
1246.982, 9017.000
1248.059, 9067.000
1249.135, 9067.000
1250.212, 9136.000
1251.288, 9159.000
1252.365, 9157.215
1253.441, 9139.000
1254.517, 9131.000
1255.593, 9160.000
1256.669, 9114.000
1257.744, 9029.000
1258.820, 9093.000
1259.895, 9245.000
1260.970, 9100.000
1262.045, 9246.000
1263.120, 9203.000
1264.195, 9294.000
1265.270, 9243.000
1266.344, 9209.000
1267.418, 9212.000
1268.492, 9207.173
1269.566, 9251.073
1270.640, 9261.000
1271.714, 9349.000
1272.788, 9419.000
1273.861, 9428.000
1274.934, 9431.000
1276.007, 9438.867
1277.080, 9386.468
1278.153, 9468.000
1279.226, 9282.000
1280.299, 9408.000
1281.371, 9403.000
1282.443, 9484.000
1283.515, 9340.000
1284.587, 9494.000
1285.659, 9382.000
1286.731, 9640.000
1287.802, 9512.000
1288.874, 9544.000
1289.945, 9582.000
1291.016, 9623.000
1292.087, 9720.000
1293.158, 9650.000
1294.229, 9751.000
1295.299, 9703.000
1296.370, 9647.000
1297.440, 9765.000
1298.510, 9812.000
1299.580, 9820.000
1300.650, 9715.000
1301.720, 9817.000
1302.789, 9737.000
1303.859, 9787.000
1304.928, 9947.000
1305.997, 10004.00
1307.066, 9998.000
1308.135, 9809.000
1309.203, 10068.00
1310.272, 10369.00
1311.340, 10172.00
1312.409, 10109.00
1313.477, 10092.00
1314.545, 9961.000
1315.612, 10057.00
1316.680, 10008.00
1317.748, 10049.00
1318.815, 9926.000
1319.882, 9985.000
1320.949, 9938.000
1322.016, 9993.000
1323.083, 9998.000
1324.150, 9995.000
1325.216, 9943.000
1326.283, 9952.000
1327.349, 9925.000
1328.415, 9800.000
1329.481, 9782.000
1330.547, 9839.000
1331.613, 9804.000
1332.678, 9673.000
1333.744, 9748.000
1334.809, 9781.000
1335.874, 9678.000
1336.939, 9731.000
1338.004, 9685.000
1339.068, 9603.000
1340.133, 9764.000
1341.197, 9672.000
1342.262, 9598.000
1343.326, 9652.000
1344.390, 9569.000
1345.453, 9517.000
1346.517, 9591.000
1347.581, 9681.000
1348.644, 9493.000
1349.707, 9553.000
1350.770, 9399.000
1351.833, 9402.000
1352.896, 9386.000
1353.959, 9370.000
1355.022, 9368.000
1356.084, 9433.000
1357.146, 9427.000
1358.208, 9340.000
1359.270, 9450.000
1360.332, 9401.000
1361.394, 9381.000
1362.455, 9258.000
1363.517, 9286.000
1364.578, 9210.000
1365.639, 9239.000
1366.700, 9229.476
1367.761, 9373.000
1368.822, 9250.000
1369.883, 9324.000
1370.943, 9371.000
1372.003, 9297.000
1373.063, 9369.000
1374.123, 9353.000
1375.183, 9307.000
1376.243, 9268.000
1377.303, 9280.000
1378.362, 9289.000
1379.421, 9231.000
1380.481, 9248.146
1381.540, 9328.000
1382.598, 9251.000
1383.657, 9301.000
1384.716, 9346.000
1385.774, 9358.000
1386.833, 9268.000
1387.891, 9201.000
1388.949, 9244.000
1390.007, 9220.000
1391.065, 9222.000
1392.122, 9322.000
1393.180, 9304.000
1394.237, 9300.146
1395.294, 9214.000
1396.351, 9277.000
1397.408, 9252.000
1398.465, 9311.000
1399.522, 9237.000
1400.578, 9238.000
1401.635, 9232.000
1402.691, 9317.000
1403.747, 9377.000
1404.803, 9298.000
1405.859, 9212.000
1406.914, 9274.000
1407.970, 9247.000
1409.025, 9310.000
1410.081, 9319.000
1411.136, 9242.000
1412.191, 9168.000
1413.245, 9233.000
1414.300, 9220.000
1415.355, 9302.000
1416.409, 9321.000
1417.463, 9254.000
1418.518, 9298.000
1419.572, 9295.122
1420.625, 9275.000
1421.679, 9314.000
1422.733, 9364.000
1423.786, 9341.000
1424.840, 9323.000
1425.893, 9314.000
1426.946, 9280.000
1427.999, 9279.000
1429.051, 9287.188
1430.104, 9353.000
1431.157, 9322.000
1432.209, 9325.000
1433.261, 9341.176
1434.313, 9260.000
1435.365, 9372.000
1436.417, 9367.000
1437.468, 9356.000
1438.520, 9442.000
1439.571, 9496.000
1440.623, 9451.000
1441.674, 9443.000
1442.725, 9483.000
1443.775, 9406.000
1444.826, 9407.000
1445.877, 9433.000
1446.927, 9501.000
1447.977, 9501.000
1449.028, 9525.000
1450.078, 9569.000
1451.127, 9563.345
1452.177, 9568.242
1453.227, 9574.000
1454.276, 9539.000
1455.325, 9538.000
1456.375, 9512.000
1457.424, 9497.365
1458.473, 9516.000
1459.521, 9480.000
1460.570, 9510.000
1461.618, 9529.000
1462.667, 9656.000
1463.715, 9630.000
1464.763, 9459.000
1465.811, 9427.000
1466.859, 9581.000
1467.906, 9502.000
1468.954, 9534.000
1470.001, 9473.000
1471.049, 9577.000
1472.096, 9450.000
1473.143, 9533.000
1474.190, 9533.000
1475.236, 9492.000
1476.283, 9583.000
1477.329, 9513.000
1478.376, 9598.000
1479.422, 9599.000
1480.468, 9598.778
1481.514, 9642.000
1482.559, 9549.000
1483.605, 9612.000
1484.650, 9592.187
1485.696, 9524.000
1486.741, 9601.000
1487.786, 9559.000
1488.831, 9571.000
1489.876, 9607.000
1490.920, 9523.000
1491.965, 9626.000
1493.009, 9602.000
1494.054, 9626.000
1495.098, 9545.000
1496.142, 9642.000
1497.185, 9539.000
1498.229, 9663.000
1499.273, 9589.000
1500.316, 9615.000
1501.359, 9536.000
1502.403, 9575.000
1503.446, 9462.000
1504.489, 9652.000
1505.531, 9574.000
1506.574, 9553.000
1507.616, 9704.000
1508.659, 9599.000
1509.701, 9590.000
1510.743, 9658.000
1511.785, 9566.000
1512.827, 9631.000
1513.868, 9649.000
1514.910, 9786.000
1515.951, 9741.000
1516.993, 9748.000
1518.034, 9746.000
1519.075, 9628.000
1520.116, 9619.000
1521.156, 9672.000
1522.197, 9623.000
1523.237, 9686.000
1524.278, 9661.000
1525.318, 9796.000
1526.358, 9726.000
1527.398, 9750.000
1528.438, 9707.000
1529.477, 9705.000
1530.517, 9703.409
1531.556, 9633.000
1532.596, 9662.000
1533.635, 9722.000
1534.674, 9633.000
1535.712, 9707.739
1536.751, 9765.000
1537.790, 9793.000
1538.828, 9896.000
1539.866, 9991.000
1540.905, 9790.000
1541.943, 9925.000
1542.981, 9947.000
1544.018, 9744.000
1545.056, 9847.000
1546.094, 9814.000
1547.131, 9859.000
1548.168, 9872.000
1549.205, 9945.000
1550.242, 9863.000
1551.279, 10018.00
1552.316, 10267.00
1553.352, 10215.00
1554.389, 10420.00
1555.425, 10468.00
1556.461, 10155.00
1557.497, 10097.00
1558.533, 10005.00
1559.569, 10005.00
1560.605, 9984.000
1561.640, 9976.000
1562.675, 9973.000
1563.711, 9984.000
##END=



