##NAMES=Gmelinite-Na
##RRUFFID=R060168
##IDEAL CHEMISTRY=Na_4_(Si_8_Al_4_)O_24_&#183;11H_2_O
##LOCALITY=Five Islands, Nova Scotia, Canada
##OWNER=RRUFF
##SOURCE=Guy Ouellet
##DESCRIPTION=Salmon-red interpenetrating prismatic rhombohedral crystals
##STATUS=The identification of this mineral has been confirmed by X-ray diffraction and chemical analysis
##URL=rruff.info/R060168
##MEASURED CHEMISTRY=(Na_3.90_Ca_0.10_)(Si_7.90_Al_4.10_)O_24_Â·8.98H_2_O
##PIN_ID=M01916
##ORIENTATION=Laser parallel to a* (1 0 0). Fiducial mark perpendicular to laser is parallel to c [0 0 1]
249.5780, 15306.00
250.8000, 15179.00
252.0230, 15483.00
253.2440, 15369.19
254.4660, 15197.00
255.6880, 15405.00
256.9090, 15363.00
258.1300, 15518.00
259.3510, 15506.63
260.5720, 15505.26
261.7920, 15464.00
263.0130, 15480.00
264.2330, 15447.00
265.4530, 15452.00
266.6730, 15332.00
267.8920, 15356.55
269.1120, 15466.00
270.3310, 15326.00
271.5500, 15303.00
272.7690, 15249.00
273.9880, 15252.99
275.2060, 15326.00
276.4240, 15344.00
277.6430, 15390.32
278.8600, 15482.00
280.0780, 15425.00
281.2960, 15412.00
282.5130, 15394.00
283.7300, 15625.00
284.9470, 15632.00
286.1640, 15726.00
287.3810, 15698.00
288.5970, 15992.00
289.8130, 16029.00
291.0290, 16117.00
292.2450, 16260.00
293.4610, 16375.00
294.6760, 16269.00
295.8910, 16246.00
297.1060, 16252.00
298.3210, 16276.00
299.5360, 16228.00
300.7510, 16190.00
301.9650, 16064.00
303.1790, 16109.00
304.3930, 16265.00
305.6070, 16019.00
306.8200, 16138.00
308.0340, 16307.00
309.2470, 16205.00
310.4600, 16561.00
311.6730, 16465.00
312.8850, 16504.00
314.0980, 16603.00
315.3100, 16669.00
316.5220, 16664.00
317.7340, 16641.00
318.9460, 16616.58
320.1570, 16527.00
321.3690, 16459.00
322.5800, 16369.00
323.7910, 16195.00
325.0010, 16199.00
326.2120, 15890.00
327.4220, 15751.00
328.6330, 15767.00
329.8430, 15534.00
331.0520, 15632.00
332.2620, 15247.00
333.4720, 15237.00
334.6810, 15026.00
335.8900, 15094.00
337.0990, 14938.00
338.3070, 14970.00
339.5160, 14862.00
340.7240, 14918.00
341.9320, 14881.00
343.1400, 14803.00
344.3480, 14876.00
345.5560, 14829.00
346.7630, 14865.00
347.9700, 14793.00
349.1770, 14923.00
350.3840, 14636.00
351.5910, 14891.00
352.7970, 14770.00
354.0040, 14836.00
355.2100, 14796.00
356.4160, 14874.00
357.6220, 15013.00
358.8270, 15085.00
360.0320, 15071.00
361.2380, 15081.00
362.4430, 15089.00
363.6470, 15095.00
364.8520, 15407.00
366.0560, 15359.00
367.2610, 15565.00
368.4650, 15760.00
369.6690, 15720.00
370.8720, 15848.00
372.0760, 16102.00
373.2790, 16349.00
374.4820, 16335.00
375.6850, 16434.00
376.8880, 16700.00
378.0910, 16956.00
379.2930, 17248.00
380.4950, 17652.00
381.6970, 17611.00
382.8990, 17786.00
384.1010, 18191.00
385.3020, 18483.00
386.5040, 18900.00
387.7050, 19170.00
388.9060, 19410.00
390.1060, 19755.00
391.3070, 20057.00
392.5070, 20421.00
393.7080, 20955.00
394.9080, 21370.00
396.1070, 22182.00
397.3070, 22593.00
398.5070, 23528.00
399.7060, 24130.00
400.9050, 24940.00
402.1040, 25755.00
403.3030, 26432.00
404.5010, 27085.00
405.7000, 27621.14
406.8980, 28078.00
408.0960, 28381.00
409.2940, 28498.00
410.4910, 28491.00
411.6890, 28037.00
412.8860, 27772.00
414.0830, 26915.00
415.2800, 26305.00
416.4770, 25545.00
417.6730, 24657.00
418.8690, 23888.00
420.0660, 22942.00
421.2620, 22350.00
422.4570, 21698.00
423.6530, 21057.00
424.8480, 20735.00
426.0440, 20166.00
427.2390, 19816.00
428.4340, 19679.00
429.6280, 19108.00
430.8230, 19095.00
432.0170, 19007.00
433.2110, 18869.00
434.4050, 18950.00
435.5990, 19058.00
436.7930, 18899.00
437.9860, 19295.00
439.1800, 19248.00
440.3730, 19480.00
441.5660, 19621.00
442.7580, 19843.00
443.9510, 20387.00
445.1430, 20618.48
446.3350, 20945.00
447.5270, 21388.00
448.7190, 22062.00
449.9110, 22497.00
451.1020, 22913.00
452.2930, 23651.00
453.4850, 24744.00
454.6750, 25745.00
455.8660, 26445.00
457.0570, 27521.00
458.2470, 28506.00
459.4370, 29273.00
460.6270, 30537.00
461.8170, 31295.00
463.0070, 32121.00
464.1960, 32891.00
465.3850, 33668.00
466.5750, 34257.00
467.7630, 34563.00
468.9520, 35103.00
470.1410, 35888.00
471.3290, 36505.00
472.5170, 37588.00
473.7050, 38494.00
474.8930, 39490.00
476.0810, 40613.00
477.2680, 42074.00
478.4560, 43619.88
479.6430, 45398.22
480.8300, 47257.00
482.0160, 49272.00
483.2030, 51333.00
484.3890, 53168.00
485.5760, 55202.00
486.7620, 57310.00
487.9480, 58959.00
489.1330, 60252.00
490.3190, 61296.00
491.5040, 61870.00
492.6890, 62259.00
493.8740, 62259.59
495.0590, 61878.68
496.2440, 61263.00
497.4280, 60148.00
498.6120, 58719.00
499.7960, 57013.00
500.9800, 54651.00
502.1640, 52240.00
503.3470, 49945.00
504.5310, 47359.00
505.7140, 44711.00
506.8970, 42458.00
508.0800, 39805.00
509.2620, 37787.00
510.4450, 35755.00
511.6270, 33748.00
512.8090, 32040.83
513.9910, 30368.12
515.1730, 28920.00
516.3550, 27480.00
517.5360, 26371.00
518.7170, 25248.00
519.8980, 24326.00
521.0790, 23324.00
522.2600, 22636.41
523.4400, 22051.00
524.6210, 21454.00
525.8010, 21138.00
526.9810, 20698.00
528.1610, 20348.00
529.3400, 20022.06
530.5200, 19711.51
531.6990, 19419.00
532.8780, 19212.00
534.0570, 18997.00
535.2360, 18824.00
536.4140, 18626.51
537.5930, 18466.00
538.7710, 18271.00
539.9490, 18111.00
541.1270, 17955.00
542.3040, 18003.00
543.4820, 17954.00
544.6590, 17948.77
545.8360, 17976.76
547.0130, 17920.00
548.1900, 18026.00
549.3670, 17871.00
550.5430, 17893.62
551.7190, 17798.00
552.8960, 17614.00
554.0710, 17573.00
555.2470, 17366.00
556.4230, 17182.00
557.5980, 17187.00
558.7730, 16982.00
559.9480, 16813.00
561.1230, 16692.00
562.2980, 16581.00
563.4720, 16526.00
564.6470, 16628.00
565.8210, 16352.00
566.9950, 16489.00
568.1690, 16246.00
569.3420, 16411.00
570.5160, 16284.00
571.6890, 16176.00
572.8620, 16094.00
574.0350, 16071.00
575.2080, 16108.00
576.3800, 16023.55
577.5530, 16085.00
578.7250, 15917.00
579.8970, 15912.00
581.0690, 15850.00
582.2410, 15836.00
583.4120, 15907.84
584.5830, 16045.00
585.7550, 15973.00
586.9260, 16094.00
588.0960, 15894.00
589.2670, 15844.00
590.4380, 15883.00
591.6080, 15873.00
592.7780, 16047.00
593.9480, 16171.00
595.1180, 16217.00
596.2870, 16217.00
597.4570, 16259.00
598.6260, 16215.00
599.7950, 16312.00
600.9640, 16294.00
602.1330, 16386.00
603.3010, 16411.00
604.4700, 16529.00
605.6380, 16530.00
606.8060, 16354.00
607.9740, 16466.00
609.1420, 16382.00
610.3090, 16408.00
611.4760, 16211.00
612.6440, 16253.00
613.8110, 16278.00
614.9770, 16321.00
616.1440, 16295.00
617.3110, 16105.00
618.4770, 16278.00
619.6430, 16065.00
620.8090, 16014.00
621.9750, 16009.00
623.1400, 15902.00
624.3060, 16037.00
625.4710, 16010.00
626.6360, 16072.00
627.8010, 15836.00
628.9660, 16028.00
630.1300, 15928.00
631.2950, 15858.00
632.4590, 16068.00
633.6230, 15983.00
634.7870, 15987.00
635.9510, 16121.00
637.1140, 15950.00
638.2780, 16058.00
639.4410, 16059.00
640.6040, 16205.00
641.7670, 16199.00
642.9290, 16266.00
644.0920, 16342.00
645.2540, 16397.00
646.4160, 16438.00
647.5780, 16723.00
648.7400, 16530.00
649.9020, 16600.00
651.0630, 16382.00
652.2250, 16499.00
653.3860, 16618.00
654.5470, 16402.00
655.7080, 16478.00
656.8680, 16369.00
658.0290, 16309.00
659.1890, 16333.00
660.3490, 16392.00
661.5090, 16221.00
662.6690, 16268.00
663.8280, 16123.00
664.9880, 16007.00
666.1470, 16065.00
667.3060, 15942.00
668.4650, 16033.00
669.6240, 15887.00
670.7820, 15922.00
671.9410, 15819.00
673.0990, 15735.00
674.2570, 15677.00
675.4150, 15813.00
676.5720, 15737.00
677.7300, 15639.00
678.8870, 15724.00
680.0450, 15483.00
681.2020, 15434.00
682.3590, 15501.45
683.5150, 15404.85
684.6720, 15625.00
685.8280, 15429.00
686.9840, 15438.00
688.1400, 15483.00
689.2960, 15334.00
690.4520, 15361.00
691.6070, 15342.00
692.7630, 15444.00
693.9180, 15222.00
695.0730, 15126.00
696.2280, 15303.00
697.3820, 15309.00
698.5370, 15307.00
699.6910, 15332.00
700.8450, 15363.00
701.9990, 15278.00
703.1530, 15270.00
704.3070, 15385.00
705.4600, 15361.00
706.6130, 15188.00
707.7660, 15223.00
708.9190, 15390.00
710.0720, 15184.00
711.2250, 15258.00
712.3770, 15090.00
713.5300, 15185.00
714.6820, 15071.00
715.8340, 15203.00
716.9850, 15200.00
718.1370, 15266.00
719.2880, 15267.71
720.4400, 15353.00
721.5910, 15230.00
722.7420, 15120.00
723.8930, 15086.00
725.0430, 15110.00
726.1940, 15021.00
727.3440, 15032.80
728.4940, 15220.00
729.6440, 15018.00
730.7940, 15074.00
731.9430, 15093.00
733.0930, 14950.00
734.2420, 15159.00
735.3910, 15114.00
736.5400, 15103.00
737.6890, 14961.00
738.8370, 15074.00
739.9860, 15018.00
741.1340, 15174.00
742.2820, 15166.00
743.4300, 15102.00
744.5780, 15137.00
745.7250, 15082.00
746.8730, 15198.00
748.0200, 15195.00
749.1670, 15344.00
750.3140, 15257.00
751.4610, 15228.00
752.6070, 15103.00
753.7540, 15345.00
754.9000, 15318.00
756.0460, 15389.00
757.1920, 15221.00
758.3380, 15230.00
759.4830, 15238.00
760.6280, 15430.00
761.7740, 15330.00
762.9190, 15318.00
764.0640, 15519.00
765.2080, 15506.00
766.3530, 15359.00
767.4970, 15141.00
768.6420, 15485.00
769.7860, 15349.00
770.9300, 15287.00
772.0730, 15424.00
773.2170, 15366.00
774.3600, 15483.00
775.5040, 15368.00
776.6470, 15504.00
777.7900, 15523.00
778.9320, 15601.00
780.0750, 15616.00
781.2170, 15779.33
782.3600, 15816.00
783.5020, 16105.00
784.6440, 16168.00
785.7850, 16289.00
786.9270, 16548.65
788.0680, 16732.00
789.2100, 16981.00
790.3510, 17057.00
791.4920, 17198.00
792.6320, 17430.00
793.7730, 17652.00
794.9130, 17809.00
796.0540, 17873.00
797.1940, 17967.58
798.3340, 17918.00
799.4730, 17930.00
800.6130, 17941.00
801.7520, 17709.00
802.8920, 17639.00
804.0310, 17385.00
805.1700, 17309.00
806.3090, 16945.00
807.4470, 16767.00
808.5860, 16666.00
809.7240, 16383.00
810.8620, 16266.00
812.0000, 16309.00
813.1380, 16230.00
814.2750, 16050.00
815.4130, 16005.00
816.5500, 15998.00
817.6870, 15838.00
818.8240, 15831.00
819.9610, 15813.00
821.0980, 15681.00
822.2340, 15569.00
823.3700, 15550.00
824.5070, 15741.00
825.6430, 15949.00
826.7780, 15781.62
827.9140, 15536.00
829.0500, 15634.00
830.1850, 15445.00
831.3200, 15635.00
832.4550, 15477.00
833.5900, 15368.00
834.7250, 15360.00
835.8590, 15375.00
836.9930, 15388.00
838.1280, 15382.49
839.2620, 15419.00
840.3950, 15389.00
841.5290, 15456.00
842.6630, 15484.00
843.7960, 15419.00
844.9290, 15399.00
846.0620, 15390.00
847.1950, 15383.92
848.3280, 15460.00
849.4600, 15370.00
850.5930, 15503.00
851.7250, 15413.00
852.8570, 15444.00
853.9890, 15496.00
855.1210, 15431.29
856.2520, 15588.00
857.3840, 15392.00
858.5150, 15337.00
859.6460, 15354.00
860.7770, 15373.00
861.9080, 15387.00
863.0380, 15383.90
864.1690, 15409.00
865.2990, 15358.00
866.4290, 15459.00
867.5590, 15430.00
868.6890, 15563.00
869.8190, 15352.00
870.9480, 15572.00
872.0770, 15483.00
873.2070, 15541.00
874.3360, 15517.00
875.4640, 15435.00
876.5930, 15515.00
877.7220, 15512.00
878.8500, 15411.00
879.9780, 15613.00
881.1060, 15562.00
882.2340, 15566.00
883.3620, 15517.00
884.4890, 15584.00
885.6170, 15581.00
886.7440, 15684.00
887.8710, 15537.00
888.9980, 15622.00
890.1240, 15539.00
891.2510, 15681.00
892.3770, 15535.00
893.5040, 15698.00
894.6300, 15668.00
895.7560, 15592.00
896.8810, 15643.00
898.0070, 15685.00
899.1330, 15776.00
900.2580, 15847.00
901.3830, 15755.00
902.5080, 15568.00
903.6330, 15659.00
904.7570, 15563.00
905.8820, 15691.00
907.0060, 15593.00
908.1300, 15834.00
909.2540, 15723.00
910.3780, 15888.00
911.5020, 15777.00
912.6250, 15760.00
913.7490, 15915.00
914.8720, 15757.00
915.9950, 15817.00
917.1180, 15850.00
918.2400, 15833.00
919.3630, 15909.00
920.4850, 15999.00
921.6080, 15777.00
922.7300, 15973.00
923.8520, 15867.00
924.9730, 16087.00
926.0950, 16036.00
927.2160, 15932.00
928.3380, 16090.00
929.4590, 15918.00
930.5800, 15962.00
931.7010, 16178.00
932.8210, 15909.00
933.9420, 16199.00
935.0620, 16150.00
936.1820, 16223.00
937.3020, 16109.00
938.4220, 16134.00
939.5420, 16183.00
940.6610, 16177.00
941.7810, 16142.00
942.9000, 16186.00
944.0190, 16194.00
945.1380, 16265.00
946.2570, 16183.00
947.3750, 16369.00
948.4940, 16543.00
949.6120, 16440.00
950.7300, 16311.00
951.8480, 16316.00
952.9660, 16291.38
954.0830, 16328.00
955.2010, 16339.00
956.3180, 16459.00
957.4350, 16466.00
958.5520, 16503.00
959.6690, 16388.00
960.7860, 16573.00
961.9020, 16449.00
963.0190, 16649.00
964.1350, 16781.00
965.2510, 16769.00
966.3670, 16722.00
967.4830, 16720.00
968.5980, 16785.00
969.7140, 16811.00
970.8290, 16918.00
971.9440, 16955.00
973.0590, 17037.00
974.1740, 17128.00
975.2880, 17142.00
976.4030, 17230.00
977.5170, 17254.00
978.6310, 17461.00
979.7450, 17255.00
980.8590, 17208.00
981.9730, 17529.00
983.0860, 17477.00
984.2000, 17483.00
985.3130, 17535.00
986.4260, 17526.00
987.5390, 17710.00
988.6520, 17787.00
989.7640, 17652.00
990.8770, 17929.00
991.9890, 17933.00
993.1010, 17941.00
994.2130, 17898.00
995.3250, 17977.00
996.4370, 17982.00
997.5480, 18103.00
998.6590, 18185.00
999.7710, 18216.00
1000.882, 18214.00
1001.993, 18330.00
1003.103, 18298.00
1004.214, 18370.00
1005.324, 18454.00
1006.434, 18299.00
1007.545, 18353.00
1008.655, 18190.00
1009.764, 18324.00
1010.874, 18337.17
1011.983, 18395.41
1013.093, 18443.00
1014.202, 18579.00
1015.311, 18551.00
1016.420, 18584.00
1017.528, 18579.00
1018.637, 18698.00
1019.745, 18523.00
1020.854, 18711.00
1021.962, 18720.00
1023.070, 18672.00
1024.177, 18961.00
1025.285, 18913.11
1026.392, 18930.41
1027.500, 19090.00
1028.607, 18857.00
1029.714, 19052.00
1030.821, 19003.00
1031.927, 19074.00
1033.034, 18964.00
1034.140, 18832.00
1035.246, 19110.00
1036.352, 18991.00
1037.458, 19117.00
1038.564, 19017.00
1039.670, 19127.00
1040.775, 19067.00
1041.880, 18848.00
1042.986, 19107.00
1044.090, 19165.00
1045.195, 18979.00
1046.300, 19011.00
1047.404, 19009.00
1048.509, 18916.00
1049.613, 18929.00
1050.717, 18834.00
1051.821, 18917.00
1052.925, 19091.00
1054.028, 19157.00
1055.132, 19128.00
1056.235, 19078.00
1057.338, 18914.00
1058.441, 19144.00
1059.544, 19082.00
1060.647, 19030.00
1061.749, 19188.00
1062.851, 19092.00
1063.954, 19245.00
1065.056, 19382.00
1066.158, 19495.00
1067.259, 19489.00
1068.361, 19523.00
1069.462, 19599.00
1070.564, 19773.00
1071.665, 20040.00
1072.766, 19887.00
1073.867, 20047.00
1074.967, 20066.00
1076.068, 20029.00
1077.168, 20081.00
1078.268, 20278.00
1079.368, 20464.00
1080.468, 20530.00
1081.568, 20603.00
1082.668, 20906.00
1083.767, 20953.00
1084.866, 20846.00
1085.966, 21065.00
1087.065, 21102.00
1088.163, 21386.00
1089.262, 21344.00
1090.361, 21414.00
1091.459, 21601.00
1092.557, 21747.00
1093.655, 21664.00
1094.753, 21940.00
1095.851, 21950.00
1096.949, 22151.00
1098.046, 21963.00
1099.143, 22205.00
1100.241, 22144.00
1101.338, 22185.00
1102.434, 22484.00
1103.531, 22346.00
1104.628, 22283.00
1105.724, 22471.00
1106.820, 22234.00
1107.916, 22304.00
1109.012, 22386.00
1110.108, 22362.00
1111.204, 22306.00
1112.299, 22447.00
1113.395, 22383.00
1114.490, 22440.00
1115.585, 22432.00
1116.680, 22385.00
1117.775, 22592.00
1118.869, 22383.00
1119.964, 22551.00
1121.058, 22395.00
1122.152, 22614.00
1123.246, 22366.00
1124.340, 22394.00
1125.434, 22238.00
1126.527, 22347.00
1127.620, 22249.00
1128.714, 22179.42
1129.807, 22175.58
1130.900, 22008.00
1131.992, 22073.00
1133.085, 21977.00
1134.178, 21918.00
1135.270, 21877.80
1136.362, 21764.77
1137.454, 21726.00
1138.546, 21569.00
1139.638, 21474.00
1140.729, 21388.10
1141.821, 21394.00
1142.912, 21312.00
1144.003, 21236.00
1145.094, 21270.00
1146.185, 21210.00
1147.276, 21296.00
1148.366, 21084.00
1149.456, 21053.00
1150.547, 20882.00
1151.637, 20924.00
1152.727, 20781.00
1153.816, 20885.00
1154.906, 20812.11
1155.995, 20696.00
1157.085, 20704.00
1158.174, 20608.00
1159.263, 20572.63
1160.352, 20517.00
1161.441, 20490.00
1162.529, 20460.00
1163.618, 20405.00
1164.706, 20157.00
1165.794, 20037.00
1166.882, 19954.00
1167.970, 20179.00
1169.058, 19934.00
1170.145, 19852.00
1171.232, 19920.00
1172.320, 19651.00
1173.407, 19677.00
1174.494, 19617.00
1175.580, 19507.00
1176.667, 19790.00
1177.754, 19640.00
1178.840, 19603.00
1179.926, 19412.00
1181.012, 19476.00
1182.098, 19417.00
1183.184, 19413.00
1184.269, 19353.00
1185.355, 19305.00
1186.440, 19379.00
1187.525, 19272.00
1188.610, 19426.00
1189.695, 19201.00
1190.780, 19267.00
1191.864, 19156.00
1192.949, 19167.00
1194.033, 19105.00
1195.117, 19160.00
1196.201, 19246.00
1197.285, 19220.00
1198.369, 19215.00
1199.452, 19147.00
1200.536, 19303.00
1201.619, 19215.00
1202.702, 19272.00
1203.785, 19216.00
1204.868, 19352.00
1205.950, 19253.00
1207.033, 19343.00
1208.115, 19243.00
1209.197, 19403.00
1210.279, 19306.00
1211.361, 19282.00
1212.443, 19295.00
1213.525, 19382.00
1214.606, 19428.00
1215.687, 19235.00
1216.769, 19438.00
1217.850, 19303.00
1218.930, 19514.00
1220.011, 19333.00
1221.092, 19745.00
1222.172, 19322.00
1223.252, 19387.00
1224.333, 19334.00
1225.413, 19539.00
1226.492, 19685.00
1227.572, 19545.00
1228.652, 19426.00
1229.731, 19640.00
1230.810, 19607.00
1231.889, 19757.00
1232.968, 19817.00
1234.047, 19824.26
1235.126, 19791.00
1236.204, 19820.00
1237.283, 19832.00
1238.361, 19748.00
1239.439, 19736.00
1240.517, 19709.00
1241.595, 19873.00
1242.673, 19945.00
1243.750, 20001.00
1244.827, 20099.00
1245.905, 20080.00
1246.982, 19957.00
1248.059, 20100.00
1249.135, 19994.00
1250.212, 20178.00
1251.288, 20214.00
1252.365, 20254.00
1253.441, 20080.00
1254.517, 20445.00
1255.593, 20321.00
1256.669, 20549.00
1257.744, 20341.00
1258.820, 20638.00
1259.895, 20560.00
1260.970, 20526.00
1262.045, 20653.00
1263.120, 20691.00
1264.195, 20613.00
1265.270, 20627.00
1266.344, 20721.00
1267.418, 20733.00
1268.492, 20847.00
1269.566, 20881.00
1270.640, 21074.00
1271.714, 21070.00
1272.788, 20997.00
1273.861, 21243.00
1274.934, 20987.00
1276.007, 21235.00
1277.080, 21232.00
1278.153, 21423.00
1279.226, 21458.00
1280.299, 21359.00
1281.371, 21591.00
1282.443, 21657.00
1283.515, 21550.00
1284.587, 21616.00
1285.659, 21784.00
1286.731, 21921.00
1287.802, 21743.00
1288.874, 21901.00
1289.945, 21936.00
1291.016, 22209.00
1292.087, 22171.00
1293.158, 22200.00
1294.229, 22344.00
1295.299, 22341.00
1296.370, 22492.00
1297.440, 22545.00
1298.510, 22698.00
1299.580, 22754.00
1300.650, 22726.00
1301.720, 22580.00
1302.789, 22595.00
1303.859, 22532.00
1304.928, 22635.00
1305.997, 22822.00
1307.066, 22839.00
1308.135, 22829.00
1309.203, 22931.00
1310.272, 22827.00
1311.340, 22975.00
1312.409, 22861.00
1313.477, 23025.00
1314.545, 22994.00
1315.612, 22870.00
1316.680, 22870.00
1317.748, 22916.00
1318.815, 23110.00
1319.882, 22902.00
1320.949, 22534.00
1322.016, 22784.81
1323.083, 22633.21
1324.150, 22934.00
1325.216, 22699.00
1326.283, 22568.00
1327.349, 22506.00
1328.415, 22521.00
1329.481, 22489.00
1330.547, 22275.00
1331.613, 22339.00
1332.678, 22183.00
1333.744, 22302.00
1334.809, 22031.00
1335.874, 22033.00
1336.939, 22008.00
1338.004, 22068.00
1339.068, 21973.97
1340.133, 21853.00
1341.197, 21856.00
1342.262, 21760.00
1343.326, 21791.00
1344.390, 21725.84
1345.453, 21570.00
1346.517, 21621.00
1347.581, 21521.00
1348.644, 21442.00
1349.707, 21464.65
1350.770, 21466.00
1351.833, 21462.00
1352.896, 21425.00
1353.959, 21434.00
1355.022, 21343.00
1356.084, 21315.62
1357.146, 21231.00
1358.208, 21204.00
1359.270, 21163.00
1360.332, 21099.00
1361.394, 20957.00
1362.455, 21140.00
1363.517, 21046.00
1364.578, 20992.00
1365.639, 21140.00
1366.700, 20977.00
1367.761, 20903.00
1368.822, 20846.00
1369.883, 20971.00
1370.943, 20917.87
1372.003, 20778.00
1373.063, 20918.00
1374.123, 20843.00
1375.183, 20748.00
1376.243, 20730.00
1377.303, 20786.00
1378.362, 20821.00
1379.421, 20539.00
1380.481, 20594.00
1381.540, 20671.00
1382.598, 20451.00
1383.657, 20660.00
1384.716, 20542.00
1385.774, 20614.00
1386.833, 20621.00
1387.891, 20623.00
1388.949, 20633.00
1390.007, 20590.00
1391.065, 20581.00
1392.122, 20455.00
1393.180, 20584.00
1394.237, 20661.00
1395.294, 20726.00
1396.351, 20409.00
1397.408, 20651.00
1398.465, 20593.00
1399.522, 20489.00
1400.578, 20596.00
1401.635, 20670.00
1402.691, 20468.00
1403.747, 20617.00
1404.803, 20515.00
1405.859, 20508.00
1406.914, 20387.00
1407.970, 20517.00
1409.025, 20579.00
1410.081, 20528.00
1411.136, 20466.00
1412.191, 20586.00
1413.245, 20485.00
1414.300, 20471.00
1415.355, 20468.00
1416.409, 20592.00
1417.463, 20563.00
1418.518, 20564.00
1419.572, 20630.59
1420.625, 20489.00
1421.679, 20641.00
1422.733, 20617.00
1423.786, 20473.00
1424.840, 20562.00
1425.893, 20502.00
1426.946, 20616.00
1427.999, 20594.00
1429.051, 20624.00
1430.104, 20574.00
1431.157, 20606.38
1432.209, 20649.91
1433.261, 20656.49
1434.313, 20571.00
1435.365, 20607.00
1436.417, 20720.00
1437.468, 20853.00
1438.520, 20703.00
1439.571, 20787.82
1440.623, 20729.00
1441.674, 20700.00
1442.725, 20861.00
1443.775, 20727.00
1444.826, 20830.52
1445.877, 20747.00
1446.927, 20919.00
1447.977, 20913.00
1449.028, 20926.00
1450.078, 20894.00
1451.127, 20873.00
1452.177, 20934.00
1453.227, 20735.00
1454.276, 20845.00
1455.325, 20892.00
1456.375, 20666.00
1457.424, 20979.00
1458.473, 21019.00
1459.521, 20903.00
1460.570, 20744.00
1461.618, 21092.00
1462.667, 20790.00
1463.715, 21018.00
1464.763, 20857.00
1465.811, 20946.00
1466.859, 20787.00
1467.906, 20838.00
1468.954, 20937.00
1470.001, 20879.00
1471.049, 20872.00
1472.096, 21046.00
1473.143, 20890.00
1474.190, 20886.00
1475.236, 20932.00
1476.283, 20875.00
1477.329, 20942.00
1478.376, 20724.00
1479.422, 20822.00
1480.468, 21188.00
1481.514, 21003.00
1482.559, 21207.00
1483.605, 21018.00
1484.650, 20864.00
1485.696, 21077.00
1486.741, 21003.00
1487.786, 20888.00
1488.831, 20915.00
1489.876, 20743.00
1490.920, 20946.00
1491.965, 20878.00
1493.009, 20836.00
1494.054, 20858.00
1495.098, 21006.00
1496.142, 21044.00
1497.185, 21202.00
1498.229, 21223.15
1499.273, 21236.69
1500.316, 21186.00
1501.359, 21269.00
1502.403, 21061.00
1503.446, 21196.00
1504.489, 20924.00
1505.531, 21280.00
1506.574, 21174.00
1507.616, 21185.00
1508.659, 21077.00
1509.701, 21034.00
1510.743, 21114.00
1511.785, 21105.03
1512.827, 21182.00
1513.868, 21223.00
1514.910, 21205.00
1515.951, 21242.00
1516.993, 21181.00
1518.034, 21205.51
1519.075, 21194.00
1520.116, 21227.00
1521.156, 21264.00
1522.197, 21302.00
1523.237, 21311.92
1524.278, 21376.00
1525.318, 21318.00
1526.358, 21327.00
1527.398, 21307.96
1528.438, 21342.00
1529.477, 21328.00
1530.517, 21456.00
1531.556, 21473.00
1532.596, 21447.00
1533.635, 21338.00
1534.674, 21378.00
1535.712, 21353.00
1536.751, 21410.00
1537.790, 21377.00
1538.828, 21410.00
1539.866, 21489.00
1540.905, 21362.00
1541.943, 21412.00
1542.981, 21692.00
1544.018, 21626.00
1545.056, 21568.00
1546.094, 21477.00
1547.131, 21504.00
1548.168, 21519.10
1549.205, 21342.00
1550.242, 21601.00
1551.279, 21672.00
1552.316, 21627.00
1553.352, 21900.00
1554.389, 21870.00
1555.425, 22069.00
1556.461, 21772.00
1557.497, 21743.00
1558.533, 21661.00
1559.569, 21561.00
1560.605, 22346.00
1561.640, 21599.00
1562.675, 21637.00
1563.711, 21718.00
##END=



