##NAMES=Gmelinite-Na
##RRUFFID=R060168
##IDEAL CHEMISTRY=Na_4_(Si_8_Al_4_)O_24_&#183;11H_2_O
##LOCALITY=Five Islands, Nova Scotia, Canada
##OWNER=RRUFF
##SOURCE=Guy Ouellet
##DESCRIPTION=Salmon-red interpenetrating prismatic rhombohedral crystals
##STATUS=The identification of this mineral has been confirmed by X-ray diffraction and chemical analysis
##URL=rruff.info/R060168
##MEASURED CHEMISTRY=(Na_3.90_Ca_0.10_)(Si_7.90_Al_4.10_)O_24_Â·8.98H_2_O
##PIN_ID=M00975
##ORIENTATION=Laser parallel to c* (0 0 1). Fiducial mark perpendicular to laser is parallel to a [1 0 0]
242.2410, 10827.00
243.4640, 10701.00
244.6870, 10763.00
245.9100, 10773.00
247.1330, 10654.00
248.3560, 10669.00
249.5780, 10878.00
250.8000, 10776.00
252.0230, 10809.00
253.2440, 10570.00
254.4660, 10785.00
255.6880, 10574.00
256.9090, 10692.00
258.1300, 10845.00
259.3510, 10772.48
260.5720, 10788.92
261.7920, 10748.00
263.0130, 10714.00
264.2330, 10533.00
265.4530, 10637.00
266.6730, 10603.00
267.8920, 10444.00
269.1120, 10478.00
270.3310, 10549.00
271.5500, 10240.00
272.7690, 10356.00
273.9880, 10342.00
275.2060, 10423.00
276.4240, 10545.00
277.6430, 10460.00
278.8600, 10580.00
280.0780, 10515.00
281.2960, 10777.00
282.5130, 10790.00
283.7300, 10911.00
284.9470, 10987.00
286.1640, 11107.00
287.3810, 11212.00
288.5970, 11371.00
289.8130, 11548.19
291.0290, 11721.51
292.2450, 11959.00
293.4610, 12149.00
294.6760, 12371.00
295.8910, 12646.00
297.1060, 12781.00
298.3210, 13072.00
299.5360, 13154.00
300.7510, 13510.00
301.9650, 13774.00
303.1790, 14135.00
304.3930, 14724.00
305.6070, 15025.00
306.8200, 15417.00
308.0340, 15867.00
309.2470, 16557.00
310.4600, 17076.00
311.6730, 17757.00
312.8850, 18398.00
314.0980, 19214.00
315.3100, 19508.00
316.5220, 19841.00
317.7340, 20514.00
318.9460, 20543.00
320.1570, 20800.00
321.3690, 20831.00
322.5800, 20487.00
323.7910, 20432.00
325.0010, 19835.00
326.2120, 19383.00
327.4220, 18971.00
328.6330, 18299.00
329.8430, 17717.00
331.0520, 16845.00
332.2620, 16432.00
333.4720, 15750.00
334.6810, 15119.00
335.8900, 14550.00
337.0990, 14173.00
338.3070, 13619.00
339.5160, 13090.00
340.7240, 12871.00
341.9320, 12475.00
343.1400, 12282.00
344.3480, 12028.00
345.5560, 11695.00
346.7630, 11621.00
347.9700, 11380.00
349.1770, 11243.00
350.3840, 11106.00
351.5910, 11019.05
352.7970, 10966.00
354.0040, 10949.00
355.2100, 10835.00
356.4160, 10841.00
357.6220, 10841.00
358.8270, 10724.00
360.0320, 10848.00
361.2380, 10773.00
362.4430, 10650.00
363.6470, 10785.00
364.8520, 10816.00
366.0560, 10893.00
367.2610, 10999.00
368.4650, 11022.00
369.6690, 11071.00
370.8720, 11228.00
372.0760, 11388.00
373.2790, 11495.00
374.4820, 11608.00
375.6850, 11755.00
376.8880, 11759.00
378.0910, 12023.00
379.2930, 12252.00
380.4950, 12544.00
381.6970, 12648.00
382.8990, 12943.58
384.1010, 13019.00
385.3020, 13404.00
386.5040, 13565.00
387.7050, 13714.00
388.9060, 14053.00
390.1060, 14363.00
391.3070, 14569.00
392.5070, 14919.00
393.7080, 15360.00
394.9080, 15816.00
396.1070, 16505.00
397.3070, 17011.00
398.5070, 18058.00
399.7060, 18722.00
400.9050, 19676.00
402.1040, 20607.00
403.3030, 21673.00
404.5010, 22491.00
405.7000, 23824.00
406.8980, 24569.00
408.0960, 25328.00
409.2940, 25863.00
410.4910, 26164.00
411.6890, 26295.00
412.8860, 26176.00
414.0830, 25972.00
415.2800, 25208.00
416.4770, 24224.00
417.6730, 23323.00
418.8690, 22599.00
420.0660, 21326.00
421.2620, 20319.00
422.4570, 19575.00
423.6530, 18606.00
424.8480, 17925.00
426.0440, 17119.00
427.2390, 16465.00
428.4340, 16055.00
429.6280, 15588.00
430.8230, 15156.00
432.0170, 14892.00
433.2110, 14738.00
434.4050, 14466.00
435.5990, 14470.00
436.7930, 14364.00
437.9860, 14265.00
439.1800, 14265.74
440.3730, 14278.06
441.5660, 14307.00
442.7580, 14407.00
443.9510, 14611.00
445.1430, 14682.00
446.3350, 14833.00
447.5270, 14946.00
448.7190, 15098.00
449.9110, 15288.00
451.1020, 15526.15
452.2930, 15816.00
453.4850, 16153.00
454.6750, 16439.00
455.8660, 16913.00
457.0570, 17229.00
458.2470, 17878.00
459.4370, 18417.00
460.6270, 18904.00
461.8170, 19389.00
463.0070, 20114.00
464.1960, 20717.00
465.3850, 21578.00
466.5750, 22422.00
467.7630, 23323.00
468.9520, 24270.00
470.1410, 25402.38
471.3290, 26575.00
472.5170, 27927.00
473.7050, 29326.00
474.8930, 30882.00
476.0810, 32280.00
477.2680, 34114.00
478.4560, 36303.00
479.6430, 38052.00
480.8300, 40268.00
482.0160, 42232.00
483.2030, 44662.00
484.3890, 46850.00
485.5760, 49437.00
486.7620, 51560.00
487.9480, 53931.00
489.1330, 55746.00
490.3190, 57292.00
491.5040, 58736.00
492.6890, 59789.00
493.8740, 60227.00
495.0590, 60283.00
496.2440, 59856.00
497.4280, 58987.00
498.6120, 57887.00
499.7960, 56166.00
500.9800, 54473.00
502.1640, 51672.00
503.3470, 49274.00
504.5310, 46560.00
505.7140, 43687.00
506.8970, 40523.00
508.0800, 38001.00
509.2620, 34890.00
510.4450, 32166.00
511.6270, 29813.00
512.8090, 27761.00
513.9910, 25614.00
515.1730, 23843.00
516.3550, 22240.00
517.5360, 20650.00
518.7170, 19363.00
519.8980, 18283.00
521.0790, 17234.00
522.2600, 16414.00
523.4400, 15718.00
524.6210, 15000.00
525.8010, 14170.00
526.9810, 13786.00
528.1610, 13485.00
529.3400, 12926.00
530.5200, 12419.00
531.6990, 12062.00
532.8780, 11982.00
534.0570, 11567.00
535.2360, 11399.00
536.4140, 11197.00
537.5930, 10960.00
538.7710, 10736.00
539.9490, 10653.00
541.1270, 10580.00
542.3040, 10405.00
543.4820, 10322.00
544.6590, 10145.00
545.8360, 10145.00
547.0130, 9956.000
548.1900, 9929.000
549.3670, 9772.000
550.5430, 9806.000
551.7190, 9739.000
552.8960, 9612.000
554.0710, 9565.000
555.2470, 9512.000
556.4230, 9446.121
557.5980, 9393.964
558.7730, 9358.000
559.9480, 9268.000
561.1230, 9219.000
562.2980, 9139.000
563.4720, 9005.000
564.6470, 9061.000
565.8210, 8882.000
566.9950, 8973.000
568.1690, 8900.000
569.3420, 8837.000
570.5160, 8829.000
571.6890, 8781.000
572.8620, 8755.000
574.0350, 8787.000
575.2080, 8738.000
576.3800, 8867.000
577.5530, 8744.000
578.7250, 8667.000
579.8970, 8797.000
581.0690, 8792.000
582.2410, 8738.000
583.4120, 8775.000
584.5830, 8741.000
585.7550, 8811.000
586.9260, 8707.000
588.0960, 8821.000
589.2670, 8764.000
590.4380, 8783.000
591.6080, 8709.000
592.7780, 8839.000
593.9480, 8815.000
595.1180, 8836.000
596.2870, 8869.000
597.4570, 8833.000
598.6260, 8869.000
599.7950, 8946.000
600.9640, 9011.000
602.1330, 8985.000
603.3010, 9008.129
604.4700, 8919.000
605.6380, 8985.000
606.8060, 9014.000
607.9740, 9042.000
609.1420, 8839.000
610.3090, 8982.000
611.4760, 8916.000
612.6440, 9035.000
613.8110, 8942.000
614.9770, 8837.000
616.1440, 8839.000
617.3110, 8827.000
618.4770, 8636.000
619.6430, 8661.000
620.8090, 8658.000
621.9750, 8611.547
623.1400, 8618.075
624.3060, 8622.000
625.4710, 8601.000
626.6360, 8600.000
627.8010, 8632.000
628.9660, 8604.060
630.1300, 8665.000
631.2950, 8595.000
632.4590, 8577.000
633.6230, 8606.000
634.7870, 8560.000
635.9510, 8632.000
637.1140, 8582.000
638.2780, 8681.000
639.4410, 8716.000
640.6040, 8678.000
641.7670, 8859.000
642.9290, 8872.000
644.0920, 9028.000
645.2540, 8844.000
646.4160, 9033.000
647.5780, 8880.000
648.7400, 8987.000
649.9020, 9031.000
651.0630, 9034.000
652.2250, 9086.000
653.3860, 8978.000
654.5470, 9082.000
655.7080, 8972.000
656.8680, 8945.000
658.0290, 8923.000
659.1890, 8955.000
660.3490, 8899.000
661.5090, 8870.000
662.6690, 8940.000
663.8280, 8638.000
664.9880, 8725.000
666.1470, 8677.000
667.3060, 8523.000
668.4650, 8530.000
669.6240, 8487.000
670.7820, 8287.000
671.9410, 8323.000
673.0990, 8212.000
674.2570, 8217.000
675.4150, 8263.000
676.5720, 8177.000
677.7300, 8176.000
678.8870, 8106.000
680.0450, 8125.000
681.2020, 8145.000
682.3590, 8009.000
683.5150, 8039.000
684.6720, 7969.000
685.8280, 7944.000
686.9840, 8062.000
688.1400, 8017.000
689.2960, 8031.000
690.4520, 8060.512
691.6070, 7884.000
692.7630, 8051.000
693.9180, 7995.000
695.0730, 7937.000
696.2280, 8020.000
697.3820, 7931.000
698.5370, 7974.000
699.6910, 7985.000
700.8450, 7959.000
701.9990, 8022.000
703.1530, 7947.000
704.3070, 7908.000
705.4600, 7990.000
706.6130, 7970.000
707.7660, 8115.000
708.9190, 8225.000
710.0720, 7896.000
711.2250, 7985.000
712.3770, 8004.000
713.5300, 8111.000
714.6820, 8018.743
715.8340, 8052.831
716.9850, 7903.000
718.1370, 7970.000
719.2880, 8094.000
720.4400, 7971.000
721.5910, 8014.000
722.7420, 8121.000
723.8930, 8035.000
725.0430, 8168.000
726.1940, 7987.000
727.3440, 8028.000
728.4940, 7949.000
729.6440, 8018.000
730.7940, 8079.000
731.9430, 8039.000
733.0930, 8174.000
734.2420, 8114.000
735.3910, 8062.000
736.5400, 8072.000
737.6890, 8020.000
738.8370, 8055.000
739.9860, 8062.000
741.1340, 8233.000
742.2820, 8180.000
743.4300, 8232.000
744.5780, 8224.000
745.7250, 8214.000
746.8730, 8250.000
748.0200, 8350.000
749.1670, 8290.000
750.3140, 8281.000
751.4610, 8462.000
752.6070, 8446.000
753.7540, 8526.000
754.9000, 8617.000
756.0460, 8656.000
757.1920, 8749.425
758.3380, 8814.469
759.4830, 8907.000
760.6280, 8944.000
761.7740, 9022.000
762.9190, 9060.000
764.0640, 9137.000
765.2080, 9149.000
766.3530, 9192.000
767.4970, 9256.000
768.6420, 9337.000
769.7860, 9183.000
770.9300, 9141.000
772.0730, 9151.000
773.2170, 9041.000
774.3600, 9051.000
775.5040, 8951.000
776.6470, 8856.000
777.7900, 8955.000
778.9320, 8804.000
780.0750, 8884.000
781.2170, 8650.000
782.3600, 8739.000
783.5020, 8639.000
784.6440, 8497.000
785.7850, 8538.000
786.9270, 8430.000
788.0680, 8478.000
789.2100, 8528.000
790.3510, 8407.000
791.4920, 8360.000
792.6320, 8200.000
793.7730, 8274.000
794.9130, 8297.000
796.0540, 8331.000
797.1940, 8123.000
798.3340, 8121.000
799.4730, 8127.000
800.6130, 7905.000
801.7520, 7945.000
802.8920, 7972.000
804.0310, 7955.000
805.1700, 7811.000
806.3090, 7861.000
807.4470, 7789.000
808.5860, 7718.000
809.7240, 7706.000
810.8620, 7744.000
812.0000, 7702.000
813.1380, 7754.000
814.2750, 7719.000
815.4130, 7658.000
816.5500, 7646.000
817.6870, 7660.000
818.8240, 7591.000
819.9610, 7626.000
821.0980, 7580.000
822.2340, 7605.000
823.3700, 7535.000
824.5070, 7549.000
825.6430, 7667.000
826.7780, 7478.000
827.9140, 7572.000
829.0500, 7460.000
830.1850, 7491.000
831.3200, 7469.000
832.4550, 7517.000
833.5900, 7542.000
834.7250, 7565.000
835.8590, 7648.000
836.9930, 7508.000
838.1280, 7531.000
839.2620, 7422.000
840.3950, 7441.000
841.5290, 7464.000
842.6630, 7497.000
843.7960, 7493.000
844.9290, 7372.000
846.0620, 7415.000
847.1950, 7395.000
848.3280, 7419.000
849.4600, 7494.000
850.5930, 7398.000
851.7250, 7508.000
852.8570, 7499.000
853.9890, 7413.000
855.1210, 7493.000
856.2520, 7417.000
857.3840, 7429.000
858.5150, 7527.000
859.6460, 7489.000
860.7770, 7439.000
861.9080, 7490.000
863.0380, 7381.000
864.1690, 7381.000
865.2990, 7369.000
866.4290, 7494.000
867.5590, 7478.000
868.6890, 7450.000
869.8190, 7476.000
870.9480, 7435.000
872.0770, 7458.000
873.2070, 7382.000
874.3360, 7409.000
875.4640, 7479.000
876.5930, 7367.000
877.7220, 7492.000
878.8500, 7413.000
879.9780, 7375.000
881.1060, 7387.000
882.2340, 7354.271
883.3620, 7360.260
884.4890, 7394.000
885.6170, 7353.000
886.7440, 7454.000
887.8710, 7420.000
888.9980, 7353.000
890.1240, 7451.000
891.2510, 7384.000
892.3770, 7353.000
893.5040, 7527.000
894.6300, 7513.000
895.7560, 7446.000
896.8810, 7423.000
898.0070, 7400.000
899.1330, 7385.724
900.2580, 7396.000
901.3830, 7409.000
902.5080, 7469.000
903.6330, 7529.000
904.7570, 7510.000
905.8820, 7449.000
907.0060, 7424.000
908.1300, 7516.000
909.2540, 7561.000
910.3780, 7525.000
911.5020, 7477.000
912.6250, 7557.000
913.7490, 7557.000
914.8720, 7581.000
915.9950, 7584.000
917.1180, 7599.328
918.2400, 7637.000
919.3630, 7627.000
920.4850, 7616.000
921.6080, 7625.000
922.7300, 7680.000
923.8520, 7635.000
924.9730, 7567.000
926.0950, 7624.000
927.2160, 7721.000
928.3380, 7650.000
929.4590, 7714.000
930.5800, 7751.000
931.7010, 7894.000
932.8210, 7738.000
933.9420, 7756.000
935.0620, 7695.000
936.1820, 7806.000
937.3020, 7714.000
938.4220, 7837.000
939.5420, 7842.000
940.6610, 7760.000
941.7810, 7881.000
942.9000, 7826.000
944.0190, 7729.000
945.1380, 7705.000
946.2570, 7792.000
947.3750, 7869.000
948.4940, 7851.000
949.6120, 7911.000
950.7300, 7841.000
951.8480, 7907.000
952.9660, 8075.000
954.0830, 8026.000
955.2010, 8002.000
956.3180, 8022.000
957.4350, 7964.000
958.5520, 8034.000
959.6690, 8189.000
960.7860, 8085.000
961.9020, 8225.000
963.0190, 8217.000
964.1350, 8056.000
965.2510, 8344.000
966.3670, 8211.000
967.4830, 8366.000
968.5980, 8442.000
969.7140, 8448.000
970.8290, 8544.021
971.9440, 8565.427
973.0590, 8623.000
974.1740, 8643.000
975.2880, 8651.000
976.4030, 8711.000
977.5170, 8752.083
978.6310, 8963.000
979.7450, 8869.000
980.8590, 8993.000
981.9730, 9048.000
983.0860, 8935.000
984.2000, 9203.000
985.3130, 9329.000
986.4260, 9219.000
987.5390, 9404.000
988.6520, 9418.000
989.7640, 9450.000
990.8770, 9549.000
991.9890, 9591.000
993.1010, 9669.000
994.2130, 9696.967
995.3250, 9695.000
996.4370, 9768.000
997.5480, 9744.000
998.6590, 9840.000
999.7710, 9894.387
1000.882, 9906.906
1001.993, 9989.000
1003.103, 9997.000
1004.214, 10052.88
1005.324, 10029.00
1006.434, 10112.00
1007.545, 10159.00
1008.655, 10108.00
1009.764, 10066.00
1010.874, 10096.00
1011.983, 10237.00
1013.093, 10577.00
1014.202, 10371.54
1015.311, 10705.00
1016.420, 10160.00
1017.528, 10221.00
1018.637, 10273.00
1019.745, 10215.00
1020.854, 10118.00
1021.962, 10229.00
1023.070, 10129.00
1024.177, 10216.00
1025.285, 10069.00
1026.392, 10168.00
1027.500, 10033.00
1028.607, 10149.00
1029.714, 10094.00
1030.821, 10090.00
1031.927, 10061.00
1033.034, 10084.00
1034.140, 9965.000
1035.246, 10031.00
1036.352, 9905.000
1037.458, 9988.000
1038.564, 9903.000
1039.670, 9953.000
1040.775, 9773.000
1041.880, 9776.000
1042.986, 9858.000
1044.090, 9866.000
1045.195, 9904.000
1046.300, 9821.000
1047.404, 9910.000
1048.509, 9824.000
1049.613, 9781.000
1050.717, 9887.000
1051.821, 9882.000
1052.925, 9860.000
1054.028, 9851.000
1055.132, 9907.000
1056.235, 9878.000
1057.338, 9915.000
1058.441, 9929.000
1059.544, 10013.00
1060.647, 10070.32
1061.749, 10094.00
1062.851, 10200.00
1063.954, 10311.00
1065.056, 10309.00
1066.158, 10327.00
1067.259, 10460.00
1068.361, 10700.00
1069.462, 10597.00
1070.564, 10799.00
1071.665, 10913.00
1072.766, 10985.00
1073.867, 11219.00
1074.967, 11362.00
1076.068, 11447.00
1077.168, 11549.00
1078.268, 11634.00
1079.368, 11785.00
1080.468, 12056.00
1081.568, 12022.00
1082.668, 12324.00
1083.767, 12231.00
1084.866, 12444.00
1085.966, 12657.00
1087.065, 12933.00
1088.163, 12761.00
1089.262, 12972.00
1090.361, 13163.00
1091.459, 13164.00
1092.557, 13297.00
1093.655, 13279.00
1094.753, 13490.00
1095.851, 13621.00
1096.949, 13710.00
1098.046, 13863.00
1099.143, 13924.43
1100.241, 14040.00
1101.338, 14078.00
1102.434, 14181.00
1103.531, 14300.00
1104.628, 14357.00
1105.724, 14527.00
1106.820, 14392.00
1107.916, 14481.00
1109.012, 14381.00
1110.108, 14550.00
1111.204, 14576.00
1112.299, 14691.00
1113.395, 14462.00
1114.490, 14599.00
1115.585, 14591.00
1116.680, 14617.00
1117.775, 14713.00
1118.869, 14805.00
1119.964, 14776.00
1121.058, 14807.00
1122.152, 14778.00
1123.246, 14671.00
1124.340, 14516.00
1125.434, 14370.00
1126.527, 14266.00
1127.620, 14005.00
1128.714, 13936.00
1129.807, 13874.00
1130.900, 13698.00
1131.992, 13725.00
1133.085, 13437.00
1134.178, 13450.00
1135.270, 13321.00
1136.362, 13264.00
1137.454, 13232.00
1138.546, 13107.00
1139.638, 12942.00
1140.729, 12890.00
1141.821, 12763.00
1142.912, 12573.00
1144.003, 12625.00
1145.094, 12434.00
1146.185, 12359.00
1147.276, 12258.00
1148.366, 12073.00
1149.456, 11907.00
1150.547, 11963.00
1151.637, 11799.00
1152.727, 11727.00
1153.816, 11491.00
1154.906, 11508.00
1155.995, 11426.00
1157.085, 11371.00
1158.174, 11287.00
1159.263, 11151.00
1160.352, 11034.00
1161.441, 11010.00
1162.529, 10970.00
1163.618, 10794.00
1164.706, 10794.00
1165.794, 10611.00
1166.882, 10660.00
1167.970, 10612.00
1169.058, 10498.00
1170.145, 10328.00
1171.232, 10345.00
1172.320, 10196.00
1173.407, 10144.00
1174.494, 10034.00
1175.580, 9953.985
1176.667, 9885.000
1177.754, 9846.000
1178.840, 9737.000
1179.926, 9760.000
1181.012, 9755.000
1182.098, 9549.000
1183.184, 9552.000
1184.269, 9526.000
1185.355, 9491.000
1186.440, 9499.000
1187.525, 9558.000
1188.610, 9401.000
1189.695, 9357.000
1190.780, 9292.000
1191.864, 9328.000
1192.949, 9277.000
1194.033, 9233.000
1195.117, 9260.771
1196.201, 9223.055
1197.285, 9284.000
1198.369, 9191.000
1199.452, 9195.000
1200.536, 9145.726
1201.619, 9129.870
1202.702, 9153.000
1203.785, 9139.000
1204.868, 9184.000
1205.950, 9237.000
1207.033, 9169.000
1208.115, 9043.000
1209.197, 9146.000
1210.279, 9157.000
1211.361, 9094.000
1212.443, 9187.000
1213.525, 9124.000
1214.606, 9068.000
1215.687, 9065.000
1216.769, 9091.000
1217.850, 9112.000
1218.930, 9043.000
1220.011, 9238.000
1221.092, 9148.000
1222.172, 9171.000
1223.252, 9086.000
1224.333, 9152.000
1225.413, 9047.000
1226.492, 9090.000
1227.572, 9145.000
1228.652, 9301.000
1229.731, 9117.000
1230.810, 9043.000
1231.889, 9202.000
1232.968, 9097.000
1234.047, 9097.000
1235.126, 9168.000
1236.204, 9279.000
1237.283, 9150.000
1238.361, 9178.000
1239.439, 9185.000
1240.517, 9252.000
1241.595, 9126.000
1242.673, 9157.000
1243.750, 9324.000
1244.827, 9229.000
1245.905, 9267.000
1246.982, 9239.000
1248.059, 9266.000
1249.135, 9380.000
1250.212, 9323.000
1251.288, 9308.000
1252.365, 9423.000
1253.441, 9395.000
1254.517, 9447.000
1255.593, 9422.000
1256.669, 9439.000
1257.744, 9431.000
1258.820, 9445.000
1259.895, 9485.000
1260.970, 9459.000
1262.045, 9495.000
1263.120, 9436.000
1264.195, 9619.000
1265.270, 9508.000
1266.344, 9658.000
1267.418, 9690.000
1268.492, 9606.000
1269.566, 9587.000
1270.640, 9766.000
1271.714, 9646.000
1272.788, 9691.000
1273.861, 9744.000
1274.934, 9745.000
1276.007, 9808.000
1277.080, 9704.000
1278.153, 9765.000
1279.226, 9922.000
1280.299, 9692.000
1281.371, 9952.000
1282.443, 9957.000
1283.515, 9846.000
1284.587, 9853.000
1285.659, 9919.000
1286.731, 9903.000
1287.802, 10061.00
1288.874, 10096.00
1289.945, 10225.00
1291.016, 10203.00
1292.087, 10275.75
1293.158, 10192.00
1294.229, 10325.00
1295.299, 10282.00
1296.370, 10229.00
1297.440, 10392.00
1298.510, 10366.00
1299.580, 10402.00
1300.650, 10364.00
1301.720, 10471.00
1302.789, 10593.00
1303.859, 10451.00
1304.928, 10579.00
1305.997, 10712.00
1307.066, 10717.00
1308.135, 10701.00
1309.203, 10648.00
1310.272, 10764.00
1311.340, 10773.00
1312.409, 10613.00
1313.477, 10731.00
1314.545, 10729.00
1315.612, 10625.00
1316.680, 10639.00
1317.748, 10764.00
1318.815, 10877.00
1319.882, 10823.00
1320.949, 10775.00
1322.016, 10668.00
1323.083, 10697.00
1324.150, 10640.00
1325.216, 10561.00
1326.283, 10534.00
1327.349, 10463.00
1328.415, 10508.00
1329.481, 10564.00
1330.547, 10382.00
1331.613, 10244.00
1332.678, 10406.00
1333.744, 10442.00
1334.809, 10209.00
1335.874, 10150.00
1336.939, 10249.00
1338.004, 10161.12
1339.068, 10185.27
1340.133, 10187.00
1341.197, 10170.00
1342.262, 10128.00
1343.326, 10092.00
1344.390, 10161.00
1345.453, 10029.00
1346.517, 10033.00
1347.581, 10130.00
1348.644, 10051.00
1349.707, 10040.00
1350.770, 9876.000
1351.833, 9970.000
1352.896, 9933.000
1353.959, 9708.000
1355.022, 9810.000
1356.084, 9747.000
1357.146, 9774.000
1358.208, 9698.000
1359.270, 9736.000
1360.332, 9636.000
1361.394, 9712.000
1362.455, 9662.000
1363.517, 9826.000
1364.578, 9622.000
1365.639, 9646.000
1366.700, 9701.000
1367.761, 9600.000
1368.822, 9577.000
1369.883, 9563.000
1370.943, 9569.000
1372.003, 9555.000
1373.063, 9592.000
1374.123, 9563.000
1375.183, 9590.000
1376.243, 9576.000
1377.303, 9636.000
1378.362, 9605.671
1379.421, 9529.000
1380.481, 9575.000
1381.540, 9533.000
1382.598, 9530.000
1383.657, 9549.000
1384.716, 9592.000
1385.774, 9537.000
1386.833, 9529.000
1387.891, 9467.000
1388.949, 9485.103
1390.007, 9489.000
1391.065, 9502.000
1392.122, 9526.000
1393.180, 9498.000
1394.237, 9568.000
1395.294, 9528.000
1396.351, 9533.000
1397.408, 9506.000
1398.465, 9532.000
1399.522, 9443.000
1400.578, 9485.000
1401.635, 9579.000
1402.691, 9522.000
1403.747, 9484.000
1404.803, 9448.000
1405.859, 9453.164
1406.914, 9614.000
1407.970, 9484.000
1409.025, 9601.000
1410.081, 9615.000
1411.136, 9464.000
1412.191, 9497.000
1413.245, 9504.000
1414.300, 9467.000
1415.355, 9532.000
1416.409, 9570.000
1417.463, 9559.000
1418.518, 9535.000
1419.572, 9579.000
1420.625, 9514.000
1421.679, 9605.000
1422.733, 9639.000
1423.786, 9477.000
1424.840, 9648.000
1425.893, 9671.000
1426.946, 9606.000
1427.999, 9617.000
1429.051, 9579.000
1430.104, 9443.000
1431.157, 9637.000
1432.209, 9650.000
1433.261, 9543.000
1434.313, 9600.000
1435.365, 9587.000
1436.417, 9687.000
1437.468, 9707.000
1438.520, 9622.000
1439.571, 9649.000
1440.623, 9652.000
1441.674, 9690.000
1442.725, 9666.000
1443.775, 9687.000
1444.826, 9669.000
1445.877, 9598.000
1446.927, 9582.000
1447.977, 9789.000
1449.028, 9747.000
1450.078, 9771.000
1451.127, 9774.000
1452.177, 9774.000
1453.227, 9800.000
1454.276, 9767.000
1455.325, 9755.000
1456.375, 9649.000
1457.424, 9643.000
1458.473, 9664.799
1459.521, 9706.000
1460.570, 9756.000
1461.618, 9741.000
1462.667, 9790.000
1463.715, 9817.000
1464.763, 9792.000
1465.811, 9756.000
1466.859, 9794.000
1467.906, 9727.000
1468.954, 9621.000
1470.001, 9816.000
1471.049, 9804.000
1472.096, 9735.000
1473.143, 9947.000
1474.190, 9803.000
1475.236, 9697.000
1476.283, 9705.000
1477.329, 9678.000
1478.376, 9777.000
1479.422, 9739.000
1480.468, 9848.000
1481.514, 9853.000
1482.559, 9764.000
1483.605, 9914.000
1484.650, 9695.000
1485.696, 9847.000
1486.741, 9725.000
1487.786, 9712.000
1488.831, 9831.000
1489.876, 9714.000
1490.920, 9657.000
1491.965, 9820.000
1493.009, 9825.000
1494.054, 9815.000
1495.098, 9775.000
1496.142, 9866.000
1497.185, 9726.000
1498.229, 9809.000
1499.273, 10035.00
1500.316, 9789.000
1501.359, 9738.000
1502.403, 9960.000
1503.446, 9907.000
1504.489, 9822.000
1505.531, 9852.000
1506.574, 9941.000
1507.616, 9925.000
1508.659, 9945.903
1509.701, 9954.000
1510.743, 9920.000
1511.785, 9959.000
1512.827, 9924.000
1513.868, 9895.000
1514.910, 9893.000
1515.951, 10017.00
1516.993, 9978.000
1518.034, 9930.000
1519.075, 10035.00
1520.116, 9941.000
1521.156, 10006.00
1522.197, 10067.00
1523.237, 10030.00
1524.278, 9998.000
1525.318, 10147.00
1526.358, 9974.000
1527.398, 9977.000
1528.438, 10054.00
1529.477, 10075.00
1530.517, 10049.00
1531.556, 10036.00
1532.596, 10075.00
1533.635, 10103.00
1534.674, 10196.00
1535.712, 10076.00
1536.751, 10030.00
1537.790, 10199.00
1538.828, 10100.00
1539.866, 10012.00
1540.905, 10119.00
1541.943, 10164.00
1542.981, 10300.00
1544.018, 10067.00
1545.056, 10123.00
1546.094, 10076.00
1547.131, 10171.00
1548.168, 10095.00
1549.205, 10317.00
1550.242, 10384.96
1551.279, 10412.00
1552.316, 10488.00
1553.352, 10542.13
1554.389, 10471.00
1555.425, 10583.00
1556.461, 10500.00
1557.497, 10330.00
1558.533, 10230.00
1559.569, 10176.00
1560.605, 10216.00
1561.640, 10378.00
1562.675, 10276.00
1563.711, 10458.00
##END=



