##NAMES=Gmelinite-Na
##RRUFFID=R060168
##IDEAL CHEMISTRY=Na_4_(Si_8_Al_4_)O_24_&#183;11H_2_O
##LOCALITY=Five Islands, Nova Scotia, Canada
##OWNER=RRUFF
##SOURCE=Guy Ouellet
##DESCRIPTION=Salmon-red interpenetrating prismatic rhombohedral crystals
##STATUS=The identification of this mineral has been confirmed by X-ray diffraction and chemical analysis
##URL=rruff.info/R060168
##MEASURED CHEMISTRY=(Na_3.90_Ca_0.10_)(Si_7.90_Al_4.10_)O_24_Â·8.98H_2_O
##PIN_ID=M01916
##ORIENTATION=Laser parallel to a* (1 0 0). Fiducial mark perpendicular to laser is parallel to c [0 0 1]
234.8960, 12701.00
236.1210, 12679.00
237.3450, 12570.24
238.5690, 12586.58
239.7930, 12497.00
241.0170, 12496.00
242.2410, 12646.00
243.4640, 12499.00
244.6870, 12597.00
245.9100, 12415.00
247.1330, 12490.00
248.3560, 12543.00
249.5780, 12311.00
250.8000, 12475.00
252.0230, 12381.00
253.2440, 12552.00
254.4660, 12370.00
255.6880, 12487.00
256.9090, 12564.00
258.1300, 12401.00
259.3510, 12506.02
260.5720, 12451.34
261.7920, 12502.00
263.0130, 12427.00
264.2330, 12382.00
265.4530, 12409.00
266.6730, 12369.00
267.8920, 12334.29
269.1120, 12298.03
270.3310, 12212.00
271.5500, 12234.00
272.7690, 12222.12
273.9880, 12167.00
275.2060, 12257.00
276.4240, 12259.00
277.6430, 12260.00
278.8600, 12278.00
280.0780, 12222.00
281.2960, 12441.00
282.5130, 12541.00
283.7300, 12579.00
284.9470, 12839.00
286.1640, 12830.00
287.3810, 13062.00
288.5970, 13222.00
289.8130, 13220.00
291.0290, 13547.00
292.2450, 13512.00
293.4610, 13789.00
294.6760, 14192.00
295.8910, 14177.00
297.1060, 14485.00
298.3210, 14829.00
299.5360, 14941.00
300.7510, 15294.00
301.9650, 15486.00
303.1790, 15754.00
304.3930, 16244.00
305.6070, 16739.00
306.8200, 17017.00
308.0340, 17563.00
309.2470, 17918.00
310.4600, 18848.00
311.6730, 19488.00
312.8850, 20105.00
314.0980, 20853.00
315.3100, 21403.00
316.5220, 22067.00
317.7340, 22648.00
318.9460, 23036.00
320.1570, 23272.00
321.3690, 23597.00
322.5800, 23650.00
323.7910, 23484.00
325.0010, 22957.00
326.2120, 22563.00
327.4220, 21922.00
328.6330, 21435.00
329.8430, 20640.00
331.0520, 20100.00
332.2620, 19061.00
333.4720, 18526.00
334.6810, 17864.00
335.8900, 17131.00
337.0990, 16671.00
338.3070, 16168.00
339.5160, 15467.00
340.7240, 15176.00
341.9320, 14851.00
343.1400, 14541.00
344.3480, 14149.00
345.5560, 13952.00
346.7630, 13687.00
347.9700, 13289.00
349.1770, 13222.00
350.3840, 13271.00
351.5910, 12959.00
352.7970, 12918.00
354.0040, 12739.00
355.2100, 12746.00
356.4160, 12688.00
357.6220, 12743.00
358.8270, 12706.33
360.0320, 12569.00
361.2380, 12650.00
362.4430, 12679.00
363.6470, 12593.00
364.8520, 12735.00
366.0560, 12784.00
367.2610, 12775.00
368.4650, 12923.00
369.6690, 12967.00
370.8720, 13070.00
372.0760, 13327.00
373.2790, 13183.00
374.4820, 13285.00
375.6850, 13545.00
376.8880, 13754.00
378.0910, 14004.00
379.2930, 14153.00
380.4950, 14410.00
381.6970, 14505.00
382.8990, 14884.00
384.1010, 15088.00
385.3020, 15225.00
386.5040, 15631.00
387.7050, 15810.00
388.9060, 16150.00
390.1060, 16265.00
391.3070, 16493.00
392.5070, 16992.00
393.7080, 17203.00
394.9080, 17532.00
396.1070, 18242.00
397.3070, 18610.00
398.5070, 19387.00
399.7060, 20096.00
400.9050, 20983.00
402.1040, 22014.00
403.3030, 22889.00
404.5010, 23904.00
405.7000, 25126.00
406.8980, 26014.00
408.0960, 27094.00
409.2940, 27813.00
410.4910, 28477.00
411.6890, 28802.18
412.8860, 28907.00
414.0830, 28798.00
415.2800, 28290.00
416.4770, 27648.00
417.6730, 26789.00
418.8690, 25658.00
420.0660, 24573.00
421.2620, 23372.00
422.4570, 22526.00
423.6530, 21571.00
424.8480, 20204.00
426.0440, 19706.00
427.2390, 19002.00
428.4340, 18344.00
429.6280, 18146.00
430.8230, 17410.00
432.0170, 17474.00
433.2110, 16915.00
434.4050, 17379.00
435.5990, 16606.00
436.7930, 16677.00
437.9860, 16563.00
439.1800, 16502.00
440.3730, 16363.00
441.5660, 16317.00
442.7580, 16447.00
443.9510, 16630.00
445.1430, 16586.00
446.3350, 16721.00
447.5270, 16954.00
448.7190, 17074.00
449.9110, 17200.00
451.1020, 17499.00
452.2930, 17808.00
453.4850, 18071.00
454.6750, 18278.00
455.8660, 18687.00
457.0570, 18795.00
458.2470, 19645.00
459.4370, 19912.00
460.6270, 20614.00
461.8170, 21244.00
463.0070, 21743.00
464.1960, 22386.00
465.3850, 23259.00
466.5750, 23899.00
467.7630, 25078.00
468.9520, 25891.00
470.1410, 27140.00
471.3290, 28400.00
472.5170, 29566.00
473.7050, 30894.00
474.8930, 32374.00
476.0810, 34025.00
477.2680, 35728.00
478.4560, 37672.86
479.6430, 39704.00
480.8300, 41943.00
482.0160, 44276.00
483.2030, 46542.27
484.3890, 48994.00
485.5760, 51388.00
486.7620, 53857.00
487.9480, 56498.00
489.1330, 58240.00
490.3190, 60578.00
491.5040, 61975.00
492.6890, 63742.00
493.8740, 64369.00
495.0590, 64626.00
496.2440, 64927.00
497.4280, 64312.00
498.6120, 63263.00
499.7960, 61899.00
500.9800, 60059.00
502.1640, 57687.00
503.3470, 55034.00
504.5310, 52482.00
505.7140, 49079.00
506.8970, 45984.00
508.0800, 42727.00
509.2620, 39835.52
510.4450, 36878.00
511.6270, 34388.00
512.8090, 31717.00
513.9910, 29431.00
515.1730, 27610.00
516.3550, 25573.00
517.5360, 23899.00
518.7170, 22412.00
519.8980, 21091.00
521.0790, 20228.00
522.2600, 19195.00
523.4400, 18314.00
524.6210, 17429.00
525.8010, 16905.00
526.9810, 16120.00
528.1610, 15789.00
529.3400, 15175.00
530.5200, 14942.00
531.6990, 14427.00
532.8780, 14268.00
534.0570, 13817.00
535.2360, 13624.00
536.4140, 13201.00
537.5930, 13183.00
538.7710, 12860.00
539.9490, 12757.00
541.1270, 12627.00
542.3040, 12576.00
543.4820, 12367.00
544.6590, 12234.00
545.8360, 12164.00
547.0130, 12170.00
548.1900, 12013.00
549.3670, 11998.00
550.5430, 11882.32
551.7190, 11706.00
552.8960, 11663.00
554.0710, 11606.00
555.2470, 11512.00
556.4230, 11447.00
557.5980, 11296.00
558.7730, 11291.00
559.9480, 11121.00
561.1230, 11199.00
562.2980, 11194.00
563.4720, 10880.00
564.6470, 11105.00
565.8210, 10984.00
566.9950, 10929.00
568.1690, 10945.00
569.3420, 10821.00
570.5160, 10888.00
571.6890, 10838.00
572.8620, 10819.00
574.0350, 10745.00
575.2080, 10908.00
576.3800, 10655.00
577.5530, 10752.00
578.7250, 10757.00
579.8970, 10449.00
581.0690, 10726.00
582.2410, 10641.00
583.4120, 10626.00
584.5830, 10732.00
585.7550, 10696.00
586.9260, 10803.00
588.0960, 10577.00
589.2670, 10740.00
590.4380, 10694.00
591.6080, 10821.00
592.7780, 10748.00
593.9480, 10796.00
595.1180, 10798.00
596.2870, 10733.00
597.4570, 10846.00
598.6260, 10695.00
599.7950, 10830.00
600.9640, 10749.00
602.1330, 10814.00
603.3010, 10829.00
604.4700, 10747.00
605.6380, 10711.00
606.8060, 10784.00
607.9740, 10778.00
609.1420, 10736.00
610.3090, 10757.00
611.4760, 10673.00
612.6440, 10760.00
613.8110, 10708.00
614.9770, 10783.00
616.1440, 10713.98
617.3110, 10693.00
618.4770, 10594.00
619.6430, 10570.00
620.8090, 10559.00
621.9750, 10590.00
623.1400, 10522.00
624.3060, 10636.00
625.4710, 10513.00
626.6360, 10492.00
627.8010, 10548.00
628.9660, 10425.00
630.1300, 10501.00
631.2950, 10603.00
632.4590, 10486.00
633.6230, 10575.00
634.7870, 10421.00
635.9510, 10613.00
637.1140, 10561.00
638.2780, 10451.00
639.4410, 10642.00
640.6040, 10756.00
641.7670, 10788.00
642.9290, 10732.00
644.0920, 10893.00
645.2540, 10826.00
646.4160, 10888.00
647.5780, 11000.00
648.7400, 10790.00
649.9020, 11030.00
651.0630, 11016.00
652.2250, 10913.00
653.3860, 11026.00
654.5470, 10936.00
655.7080, 11066.00
656.8680, 10992.00
658.0290, 10958.00
659.1890, 10948.00
660.3490, 10839.00
661.5090, 10803.00
662.6690, 10737.00
663.8280, 10789.00
664.9880, 10611.00
666.1470, 10609.00
667.3060, 10680.00
668.4650, 10429.00
669.6240, 10260.00
670.7820, 10428.00
671.9410, 10300.00
673.0990, 10218.00
674.2570, 10029.00
675.4150, 10160.00
676.5720, 10271.00
677.7300, 10216.00
678.8870, 10264.00
680.0450, 10193.22
681.2020, 10143.75
682.3590, 10129.00
683.5150, 9935.000
684.6720, 10142.00
685.8280, 9920.000
686.9840, 9882.000
688.1400, 10011.00
689.2960, 9920.000
690.4520, 9975.000
691.6070, 9939.000
692.7630, 9982.000
693.9180, 9838.000
695.0730, 10002.00
696.2280, 9939.000
697.3820, 9910.000
698.5370, 9724.000
699.6910, 9929.000
700.8450, 9958.000
701.9990, 9886.000
703.1530, 9935.000
704.3070, 9748.000
705.4600, 9905.000
706.6130, 9869.000
707.7660, 10047.00
708.9190, 9952.000
710.0720, 10045.00
711.2250, 9814.000
712.3770, 10012.00
713.5300, 9906.000
714.6820, 10106.00
715.8340, 9978.000
716.9850, 9963.000
718.1370, 10022.00
719.2880, 10104.00
720.4400, 9860.000
721.5910, 10043.00
722.7420, 10011.00
723.8930, 10060.00
725.0430, 10126.00
726.1940, 10106.00
727.3440, 9998.000
728.4940, 10038.00
729.6440, 10022.25
730.7940, 10026.00
731.9430, 10048.00
733.0930, 10111.00
734.2420, 10091.00
735.3910, 10025.00
736.5400, 10067.00
737.6890, 10129.00
738.8370, 10066.00
739.9860, 10080.00
741.1340, 10212.00
742.2820, 10276.00
743.4300, 10127.00
744.5780, 10082.00
745.7250, 10251.00
746.8730, 10343.00
748.0200, 10254.00
749.1670, 10296.00
750.3140, 10410.00
751.4610, 10440.00
752.6070, 10487.00
753.7540, 10554.00
754.9000, 10535.00
756.0460, 10619.28
757.1920, 10661.00
758.3380, 10767.00
759.4830, 10833.00
760.6280, 10961.00
761.7740, 11088.00
762.9190, 11163.00
764.0640, 11258.00
765.2080, 11308.00
766.3530, 11402.00
767.4970, 11380.00
768.6420, 11405.00
769.7860, 11341.00
770.9300, 11384.00
772.0730, 11324.00
773.2170, 11236.00
774.3600, 11229.00
775.5040, 11110.00
776.6470, 11101.00
777.7900, 10899.00
778.9320, 10972.00
780.0750, 10897.00
781.2170, 10949.00
782.3600, 10894.41
783.5020, 10826.05
784.6440, 10733.00
785.7850, 10698.00
786.9270, 10506.00
788.0680, 10504.00
789.2100, 10532.00
790.3510, 10561.00
791.4920, 10377.00
792.6320, 10475.00
793.7730, 10200.00
794.9130, 10287.00
796.0540, 10299.00
797.1940, 10282.00
798.3340, 10206.00
799.4730, 10211.80
800.6130, 10082.00
801.7520, 10121.00
802.8920, 10147.00
804.0310, 10009.00
805.1700, 9930.000
806.3090, 9955.000
807.4470, 9851.000
808.5860, 9923.000
809.7240, 9811.000
810.8620, 9776.000
812.0000, 9850.000
813.1380, 9825.000
814.2750, 9593.000
815.4130, 9666.000
816.5500, 9761.000
817.6870, 9659.000
818.8240, 9767.000
819.9610, 9574.000
821.0980, 9625.000
822.2340, 9585.000
823.3700, 9631.000
824.5070, 9513.000
825.6430, 9622.000
826.7780, 9492.000
827.9140, 9478.000
829.0500, 9549.000
830.1850, 9493.000
831.3200, 9643.000
832.4550, 9608.000
833.5900, 9565.000
834.7250, 9518.000
835.8590, 9510.000
836.9930, 9502.000
838.1280, 9500.313
839.2620, 9541.000
840.3950, 9538.000
841.5290, 9578.000
842.6630, 9628.000
843.7960, 9411.000
844.9290, 9510.000
846.0620, 9525.000
847.1950, 9463.000
848.3280, 9597.000
849.4600, 9477.000
850.5930, 9506.000
851.7250, 9599.000
852.8570, 9535.000
853.9890, 9672.000
855.1210, 9542.000
856.2520, 9529.000
857.3840, 9499.000
858.5150, 9451.000
859.6460, 9586.000
860.7770, 9607.000
861.9080, 9541.000
863.0380, 9611.000
864.1690, 9457.000
865.2990, 9692.000
866.4290, 9603.000
867.5590, 9577.000
868.6890, 9475.000
869.8190, 9419.000
870.9480, 9413.640
872.0770, 9538.000
873.2070, 9465.000
874.3360, 9454.000
875.4640, 9595.000
876.5930, 9905.000
877.7220, 9484.000
878.8500, 9501.000
879.9780, 9649.000
881.1060, 9430.000
882.2340, 9541.000
883.3620, 9476.000
884.4890, 9584.000
885.6170, 9474.000
886.7440, 9474.000
887.8710, 9457.000
888.9980, 9480.000
890.1240, 9461.035
891.2510, 9427.000
892.3770, 9439.000
893.5040, 9477.000
894.6300, 9466.000
895.7560, 9488.000
896.8810, 9484.000
898.0070, 9455.000
899.1330, 9577.000
900.2580, 9572.000
901.3830, 9604.000
902.5080, 9554.000
903.6330, 9636.000
904.7570, 9619.091
905.8820, 9517.000
907.0060, 9618.000
908.1300, 9586.000
909.2540, 9542.000
910.3780, 9447.000
911.5020, 9634.000
912.6250, 9583.000
913.7490, 9645.000
914.8720, 9615.000
915.9950, 9568.000
917.1180, 9729.000
918.2400, 9734.000
919.3630, 9751.000
920.4850, 9803.114
921.6080, 9657.000
922.7300, 9794.000
923.8520, 9664.000
924.9730, 9583.000
926.0950, 9622.000
927.2160, 9801.000
928.3380, 9758.000
929.4590, 9708.000
930.5800, 9603.000
931.7010, 9781.000
932.8210, 9869.000
933.9420, 9817.000
935.0620, 9726.000
936.1820, 9677.000
937.3020, 9679.000
938.4220, 9714.000
939.5420, 9847.000
940.6610, 9716.000
941.7810, 9854.000
942.9000, 9824.000
944.0190, 9740.000
945.1380, 9849.000
946.2570, 9895.000
947.3750, 9817.000
948.4940, 9865.000
949.6120, 9853.130
950.7300, 9906.000
951.8480, 9841.000
952.9660, 9970.000
954.0830, 9941.000
955.2010, 9973.000
956.3180, 10028.00
957.4350, 10072.00
958.5520, 9965.000
959.6690, 10083.00
960.7860, 10043.00
961.9020, 10120.18
963.0190, 10162.72
964.1350, 10284.00
965.2510, 10237.00
966.3670, 10279.00
967.4830, 10288.00
968.5980, 10378.00
969.7140, 10429.04
970.8290, 10488.13
971.9440, 10560.00
973.0590, 10632.00
974.1740, 10655.00
975.2880, 10741.00
976.4030, 10857.00
977.5170, 10682.00
978.6310, 10938.00
979.7450, 10895.00
980.8590, 11056.00
981.9730, 11107.00
983.0860, 11217.00
984.2000, 11273.68
985.3130, 11395.00
986.4260, 11356.00
987.5390, 11362.00
988.6520, 11394.00
989.7640, 11319.00
990.8770, 11538.00
991.9890, 11643.00
993.1010, 11684.00
994.2130, 11550.00
995.3250, 11775.00
996.4370, 11708.00
997.5480, 11883.00
998.6590, 12057.00
999.7710, 11915.00
1000.882, 12113.00
1001.993, 11979.00
1003.103, 12012.00
1004.214, 12076.00
1005.324, 12220.00
1006.434, 12181.00
1007.545, 12071.00
1008.655, 12121.00
1009.764, 12112.00
1010.874, 12225.00
1011.983, 12264.00
1013.093, 12292.00
1014.202, 12420.00
1015.311, 12301.00
1016.420, 12105.00
1017.528, 12284.00
1018.637, 12222.00
1019.745, 12224.00
1020.854, 12234.00
1021.962, 12224.00
1023.070, 12212.00
1024.177, 12223.53
1025.285, 12281.00
1026.392, 12212.00
1027.500, 12157.00
1028.607, 12092.00
1029.714, 12184.00
1030.821, 12063.00
1031.927, 12133.00
1033.034, 12103.00
1034.140, 12108.00
1035.246, 12291.00
1036.352, 12068.09
1037.458, 11986.00
1038.564, 11790.00
1039.670, 11917.00
1040.775, 11954.00
1041.880, 11764.00
1042.986, 11846.00
1044.090, 11868.00
1045.195, 11908.00
1046.300, 11890.08
1047.404, 11879.00
1048.509, 11822.00
1049.613, 11778.00
1050.717, 11753.00
1051.821, 11739.00
1052.925, 11734.49
1054.028, 11893.00
1055.132, 11811.00
1056.235, 11799.00
1057.338, 11963.00
1058.441, 11883.00
1059.544, 11913.00
1060.647, 12150.00
1061.749, 12209.00
1062.851, 12127.00
1063.954, 12212.00
1065.056, 12327.00
1066.158, 12366.75
1067.259, 12525.00
1068.361, 12618.00
1069.462, 12731.00
1070.564, 12964.00
1071.665, 13008.00
1072.766, 13266.00
1073.867, 13360.00
1074.967, 13482.58
1076.068, 13606.68
1077.168, 13681.00
1078.268, 13774.00
1079.368, 13799.00
1080.468, 13877.00
1081.568, 14218.00
1082.668, 14342.00
1083.767, 14405.00
1084.866, 14524.00
1085.966, 14648.00
1087.065, 14906.00
1088.163, 14822.00
1089.262, 15035.00
1090.361, 15279.00
1091.459, 15263.00
1092.557, 15423.00
1093.655, 15509.00
1094.753, 15597.00
1095.851, 15730.64
1096.949, 15849.00
1098.046, 15956.00
1099.143, 16042.00
1100.241, 16139.00
1101.338, 16234.98
1102.434, 16390.00
1103.531, 16418.00
1104.628, 16507.00
1105.724, 16586.00
1106.820, 16564.00
1107.916, 16623.79
1109.012, 16650.17
1110.108, 16695.00
1111.204, 16715.00
1112.299, 16832.00
1113.395, 16886.00
1114.490, 16855.37
1115.585, 16894.96
1116.680, 16853.00
1117.775, 16833.00
1118.869, 17001.00
1119.964, 16915.00
1121.058, 16878.00
1122.152, 16889.00
1123.246, 16794.00
1124.340, 16827.00
1125.434, 16654.00
1126.527, 16477.00
1127.620, 16414.00
1128.714, 16377.00
1129.807, 16214.00
1130.900, 16053.00
1131.992, 16034.00
1133.085, 15890.00
1134.178, 15751.00
1135.270, 15793.00
1136.362, 15586.00
1137.454, 15529.00
1138.546, 15526.00
1139.638, 15356.00
1140.729, 15300.00
1141.821, 15170.00
1142.912, 15032.14
1144.003, 14949.00
1145.094, 14739.00
1146.185, 14779.00
1147.276, 14609.00
1148.366, 14577.00
1149.456, 14385.00
1150.547, 14307.00
1151.637, 14246.00
1152.727, 14097.00
1153.816, 14033.00
1154.906, 13754.00
1155.995, 13788.00
1157.085, 13718.00
1158.174, 13412.00
1159.263, 13414.00
1160.352, 13307.00
1161.441, 13353.00
1162.529, 13135.00
1163.618, 13041.00
1164.706, 12893.00
1165.794, 13003.00
1166.882, 12918.00
1167.970, 12714.00
1169.058, 12700.00
1170.145, 12569.00
1171.232, 12448.00
1172.320, 12427.00
1173.407, 12386.00
1174.494, 12277.00
1175.580, 12262.00
1176.667, 12187.00
1177.754, 12111.00
1178.840, 12083.38
1179.926, 11999.08
1181.012, 11974.00
1182.098, 11874.00
1183.184, 11760.00
1184.269, 11716.00
1185.355, 11706.00
1186.440, 11582.00
1187.525, 11657.00
1188.610, 11561.00
1189.695, 11483.00
1190.780, 11404.00
1191.864, 11367.00
1192.949, 11339.00
1194.033, 11325.00
1195.117, 11304.00
1196.201, 11319.00
1197.285, 11328.00
1198.369, 11340.00
1199.452, 11318.01
1200.536, 11334.00
1201.619, 11272.00
1202.702, 11231.00
1203.785, 11223.00
1204.868, 11348.00
1205.950, 11290.00
1207.033, 11307.00
1208.115, 11137.00
1209.197, 11180.00
1210.279, 11264.00
1211.361, 11231.00
1212.443, 11264.00
1213.525, 11275.00
1214.606, 11157.00
1215.687, 11266.00
1216.769, 11248.00
1217.850, 11320.00
1218.930, 11324.00
1220.011, 11253.00
1221.092, 11158.00
1222.172, 11231.00
1223.252, 11209.00
1224.333, 11154.00
1225.413, 11284.00
1226.492, 11277.00
1227.572, 11294.00
1228.652, 11121.00
1229.731, 11279.00
1230.810, 11269.00
1231.889, 11383.00
1232.968, 11217.00
1234.047, 11249.00
1235.126, 11243.00
1236.204, 11315.00
1237.283, 11173.00
1238.361, 11202.00
1239.439, 11261.00
1240.517, 11206.00
1241.595, 11260.00
1242.673, 11212.00
1243.750, 11366.00
1244.827, 11339.00
1245.905, 11407.00
1246.982, 11538.00
1248.059, 11309.00
1249.135, 11390.00
1250.212, 11383.00
1251.288, 11363.00
1252.365, 11361.00
1253.441, 11312.00
1254.517, 11401.00
1255.593, 11516.00
1256.669, 11365.00
1257.744, 11462.00
1258.820, 11582.00
1259.895, 11548.00
1260.970, 11535.00
1262.045, 11550.00
1263.120, 11606.00
1264.195, 11553.00
1265.270, 11469.00
1266.344, 11621.00
1267.418, 11491.00
1268.492, 11764.00
1269.566, 11721.00
1270.640, 11626.00
1271.714, 11624.00
1272.788, 11799.00
1273.861, 11691.00
1274.934, 11764.00
1276.007, 11746.00
1277.080, 11739.00
1278.153, 11766.00
1279.226, 11666.00
1280.299, 11772.00
1281.371, 11860.00
1282.443, 11864.00
1283.515, 11766.00
1284.587, 11860.00
1285.659, 11870.00
1286.731, 11983.00
1287.802, 11890.00
1288.874, 12012.00
1289.945, 11989.50
1291.016, 12022.00
1292.087, 12023.00
1293.158, 12033.00
1294.229, 12134.00
1295.299, 12181.00
1296.370, 12152.00
1297.440, 12076.00
1298.510, 12173.00
1299.580, 12136.36
1300.650, 12162.00
1301.720, 12228.00
1302.789, 12250.00
1303.859, 12304.29
1304.928, 12421.00
1305.997, 12416.00
1307.066, 12383.00
1308.135, 12457.00
1309.203, 12420.00
1310.272, 12462.00
1311.340, 12399.00
1312.409, 12564.00
1313.477, 12493.00
1314.545, 12602.00
1315.612, 12501.00
1316.680, 12480.00
1317.748, 12474.00
1318.815, 12597.00
1319.882, 12441.00
1320.949, 12587.00
1322.016, 12426.00
1323.083, 12435.00
1324.150, 12389.00
1325.216, 12382.00
1326.283, 12496.00
1327.349, 12461.00
1328.415, 12466.00
1329.481, 12379.00
1330.547, 12425.00
1331.613, 12263.00
1332.678, 12222.00
1333.744, 12284.00
1334.809, 12176.00
1335.874, 12229.00
1336.939, 12324.00
1338.004, 12260.00
1339.068, 12253.00
1340.133, 12279.00
1341.197, 12101.00
1342.262, 12053.00
1343.326, 12105.00
1344.390, 12259.00
1345.453, 12039.00
1346.517, 12074.00
1347.581, 11960.00
1348.644, 12000.00
1349.707, 12019.00
1350.770, 11992.00
1351.833, 11961.00
1352.896, 12014.00
1353.959, 11950.00
1355.022, 12009.00
1356.084, 12104.00
1357.146, 12037.00
1358.208, 11808.00
1359.270, 11905.00
1360.332, 11795.00
1361.394, 11923.00
1362.455, 11948.00
1363.517, 11823.00
1364.578, 11950.00
1365.639, 11863.00
1366.700, 11837.00
1367.761, 11913.00
1368.822, 11895.00
1369.883, 11782.00
1370.943, 11829.00
1372.003, 11887.00
1373.063, 11728.00
1374.123, 11840.00
1375.183, 11729.00
1376.243, 11777.00
1377.303, 11968.00
1378.362, 11874.00
1379.421, 11825.00
1380.481, 11753.00
1381.540, 11763.00
1382.598, 11803.00
1383.657, 11940.00
1384.716, 11772.00
1385.774, 11788.00
1386.833, 11617.00
1387.891, 11729.00
1388.949, 11854.00
1390.007, 11654.00
1391.065, 11743.00
1392.122, 11771.00
1393.180, 11650.00
1394.237, 11817.00
1395.294, 11774.00
1396.351, 11730.00
1397.408, 11772.00
1398.465, 11739.00
1399.522, 11766.99
1400.578, 11779.00
1401.635, 11842.00
1402.691, 11823.00
1403.747, 11901.03
1404.803, 11821.00
1405.859, 11914.00
1406.914, 11862.00
1407.970, 11866.00
1409.025, 11817.00
1410.081, 11789.00
1411.136, 11735.00
1412.191, 11696.29
1413.245, 11807.00
1414.300, 11671.00
1415.355, 11652.00
1416.409, 11770.00
1417.463, 11775.00
1418.518, 11852.00
1419.572, 11663.00
1420.625, 11783.00
1421.679, 11757.00
1422.733, 11846.00
1423.786, 11780.00
1424.840, 11793.00
1425.893, 11836.00
1426.946, 11778.00
1427.999, 11775.00
1429.051, 11764.00
1430.104, 11892.00
1431.157, 11763.00
1432.209, 11743.00
1433.261, 11833.00
1434.313, 12076.00
1435.365, 11856.00
1436.417, 11908.00
1437.468, 11897.00
1438.520, 12286.00
1439.571, 12024.00
1440.623, 11948.00
1441.674, 12116.00
1442.725, 11951.00
1443.775, 12001.00
1444.826, 11998.00
1445.877, 12093.00
1446.927, 11981.00
1447.977, 12086.00
1449.028, 12030.00
1450.078, 12167.00
1451.127, 12103.00
1452.177, 11973.00
1453.227, 12083.00
1454.276, 12022.00
1455.325, 12198.00
1456.375, 12064.00
1457.424, 12271.00
1458.473, 12187.00
1459.521, 12229.00
1460.570, 12252.00
1461.618, 12102.00
1462.667, 12169.00
1463.715, 12065.00
1464.763, 12041.00
1465.811, 12095.00
1466.859, 11959.00
1467.906, 12071.00
1468.954, 12058.00
1470.001, 12038.00
1471.049, 11999.00
1472.096, 11893.00
1473.143, 12116.00
1474.190, 12027.00
1475.236, 12051.00
1476.283, 11931.00
1477.329, 12234.00
1478.376, 12065.00
1479.422, 12102.00
1480.468, 11975.00
1481.514, 11982.00
1482.559, 12006.00
1483.605, 12058.00
1484.650, 11972.00
1485.696, 12020.00
1486.741, 11881.00
1487.786, 11992.00
1488.831, 12066.00
1489.876, 11972.00
1490.920, 11928.00
1491.965, 12013.00
1493.009, 11928.00
1494.054, 12087.00
1495.098, 11917.00
1496.142, 11990.00
1497.185, 12192.00
1498.229, 12015.00
1499.273, 12110.00
1500.316, 12106.00
1501.359, 12153.00
1502.403, 12134.00
1503.446, 12171.00
1504.489, 12111.00
1505.531, 12186.00
1506.574, 12180.25
1507.616, 12120.00
1508.659, 12202.00
1509.701, 12219.00
1510.743, 12196.00
1511.785, 11999.00
1512.827, 12139.00
1513.868, 12051.00
1514.910, 12098.00
1515.951, 12269.00
1516.993, 12171.00
1518.034, 12099.00
1519.075, 12327.00
1520.116, 12065.00
1521.156, 12262.00
1522.197, 12185.00
1523.237, 12293.00
1524.278, 12193.00
1525.318, 12270.00
1526.358, 12269.00
1527.398, 12261.00
1528.438, 12286.31
1529.477, 12189.00
1530.517, 12290.00
1531.556, 12237.00
1532.596, 12242.00
1533.635, 12272.00
1534.674, 12380.00
1535.712, 12302.00
1536.751, 12359.00
1537.790, 12325.00
1538.828, 12294.00
1539.866, 12272.00
1540.905, 12418.00
1541.943, 12440.00
1542.981, 12538.00
1544.018, 12508.96
1545.056, 12469.00
1546.094, 12416.00
1547.131, 12355.00
1548.168, 12317.00
1549.205, 12369.04
1550.242, 12609.00
1551.279, 12553.00
1552.316, 12558.00
1553.352, 12729.00
1554.389, 12715.00
1555.425, 12713.90
1556.461, 12643.00
1557.497, 12621.00
1558.533, 12611.00
1559.569, 12522.00
1560.605, 12570.00
1561.640, 12474.00
1562.675, 12532.00
1563.711, 12465.00
##END=



