##NAMES=Gmelinite-Na
##RRUFFID=R050371
##IDEAL CHEMISTRY=Na_4_(Si_8_Al_4_)O_24_&#183;11H_2_O
##LOCALITY=Cairns Bay, Flinders Range, Australia
##OWNER=RRUFF
##SOURCE=Eugene Schlepp
##DESCRIPTION=Colorless to pink crystals lining a basalt vug
##STATUS=The identification of this mineral has been confirmed by X-ray diffraction and chemical analysis
##URL=rruff.info/R050371
##MEASURED CHEMISTRY=Na_3.81_(Si_8.13_Al_3.88_)O_24_Â·4.27H_2_O
##PIN_ID=L01937
##ORIENTATION=Laser parallel to -c* (0 0 -1). Fiducial mark perpendicular to laser is parallel to a [1 0 0]
264.8880, 9430.000
266.1030, 9518.000
267.3170, 9465.000
268.5320, 9407.000
269.7460, 9428.000
270.9600, 9408.000
272.1740, 9375.000
273.3880, 9343.000
274.6010, 9356.000
275.8150, 9478.000
277.0280, 9399.000
278.2410, 9420.000
279.4540, 9515.000
280.6670, 9396.000
281.8790, 9492.000
283.0920, 9557.000
284.3040, 9714.000
285.5160, 9771.000
286.7280, 9808.000
287.9400, 9969.000
289.1510, 10042.00
290.3630, 10179.00
291.5740, 10262.00
292.7850, 10383.78
293.9960, 10513.00
295.2070, 10628.00
296.4170, 10761.00
297.6280, 10888.00
298.8380, 11288.00
300.0480, 11394.18
301.2580, 11669.00
302.4680, 11819.00
303.6770, 12098.00
304.8870, 12359.00
306.0960, 12708.00
307.3050, 13068.40
308.5140, 13516.72
309.7230, 13951.00
310.9310, 14515.00
312.1400, 15149.00
313.3480, 15680.00
314.5560, 16310.00
315.7640, 16929.00
316.9720, 17456.00
318.1790, 18123.00
319.3870, 18497.00
320.5940, 18948.00
321.8010, 19207.00
323.0080, 19154.00
324.2150, 19030.00
325.4210, 19016.00
326.6280, 18557.00
327.8340, 17975.00
329.0400, 17366.00
330.2460, 16875.00
331.4510, 16262.00
332.6570, 15725.00
333.8620, 15064.00
335.0680, 14502.00
336.2730, 14011.00
337.4780, 13400.00
338.6820, 13229.00
339.8870, 12555.00
341.0910, 12219.00
342.2950, 12063.00
343.5000, 11629.00
344.7030, 11386.00
345.9070, 11114.00
347.1110, 10948.00
348.3140, 10748.47
349.5170, 10606.00
350.7200, 10492.00
351.9230, 10317.00
353.1260, 10327.00
354.3290, 10222.00
355.5310, 10249.00
356.7330, 10142.00
357.9350, 10026.00
359.1370, 10047.00
360.3390, 10111.00
361.5400, 10022.00
362.7420, 9990.000
363.9430, 10137.00
365.1440, 10074.00
366.3450, 10190.00
367.5460, 10265.00
368.7460, 10288.00
369.9470, 10394.00
371.1470, 10439.00
372.3470, 10538.00
373.5470, 10583.00
374.7460, 10611.00
375.9460, 10899.00
377.1450, 10930.00
378.3450, 11195.00
379.5440, 11237.00
380.7430, 11478.00
381.9410, 11742.00
383.1400, 11878.00
384.3380, 12061.00
385.5370, 12273.00
386.7350, 12510.00
387.9320, 12668.00
389.1300, 12810.00
390.3280, 13136.00
391.5250, 13468.00
392.7220, 13827.39
393.9190, 14211.00
395.1160, 14734.00
396.3130, 15277.00
397.5100, 15852.00
398.7060, 16564.00
399.9020, 17520.00
401.0980, 18104.00
402.2940, 19010.00
403.4900, 20114.00
404.6860, 20894.00
405.8810, 21906.00
407.0760, 22672.00
408.2710, 23254.00
409.4660, 23667.00
410.6610, 24054.00
411.8550, 23830.00
413.0500, 23618.00
414.2440, 23012.00
415.4380, 22122.00
416.6320, 21219.00
417.8260, 20635.00
419.0190, 19323.00
420.2130, 18372.00
421.4060, 17407.00
422.5990, 16886.00
423.7920, 16218.00
424.9850, 15520.00
426.1770, 14947.00
427.3700, 14730.00
428.5620, 14475.00
429.7540, 13972.00
430.9460, 13848.00
432.1380, 13572.00
433.3290, 13525.00
434.5210, 13465.00
435.7120, 13587.00
436.9030, 13562.00
438.0940, 13548.00
439.2850, 13814.00
440.4750, 13685.00
441.6660, 13806.00
442.8560, 13953.00
444.0460, 14095.00
445.2360, 14095.00
446.4260, 14358.00
447.6160, 14598.00
448.8050, 14792.00
449.9940, 15126.61
451.1830, 15359.18
452.3720, 15783.00
453.5610, 15902.00
454.7500, 16240.00
455.9380, 16505.00
457.1260, 16903.00
458.3150, 17507.00
459.5020, 17722.00
460.6900, 18476.00
461.8780, 18934.00
463.0650, 19792.00
464.2530, 20505.00
465.4400, 21059.00
466.6270, 22200.00
467.8130, 23098.00
469.0000, 24130.00
470.1870, 25035.00
471.3730, 26630.00
472.5590, 27501.00
473.7450, 28887.00
474.9310, 30301.00
476.1160, 31589.00
477.3020, 33526.00
478.4870, 35069.00
479.6720, 36768.00
480.8570, 38831.00
482.0420, 40927.00
483.2270, 42552.00
484.4110, 44627.00
485.5960, 46698.00
486.7800, 48571.00
487.9640, 50649.00
489.1480, 52095.00
490.3310, 53839.00
491.5150, 55118.00
492.6980, 55901.00
493.8810, 56438.00
495.0640, 56956.00
496.2470, 56989.00
497.4300, 56515.00
498.6120, 55667.00
499.7950, 54123.00
500.9770, 52315.00
502.1590, 49920.00
503.3410, 47538.00
504.5220, 45304.00
505.7040, 42534.00
506.8850, 39448.00
508.0660, 36610.00
509.2470, 34113.00
510.4280, 31263.00
511.6090, 28912.00
512.7890, 26548.00
513.9700, 24507.00
515.1500, 22658.00
516.3300, 21035.00
517.5100, 19411.00
518.6900, 18189.00
519.8690, 17001.00
521.0490, 16088.00
522.2280, 15165.00
523.4070, 14330.00
524.5860, 13684.00
525.7640, 12965.00
526.9430, 12563.00
528.1210, 12061.00
529.3000, 11621.00
530.4780, 11206.00
531.6560, 10994.00
532.8330, 10777.00
534.0110, 10454.00
535.1880, 10244.00
536.3650, 9962.000
537.5430, 9808.000
538.7190, 9580.000
539.8960, 9395.000
541.0730, 9205.000
542.2490, 8998.000
543.4250, 9027.000
544.6020, 8905.000
545.7780, 8892.000
546.9530, 8589.000
548.1290, 8664.000
549.3040, 8551.000
550.4800, 8449.000
551.6550, 8403.000
552.8300, 8283.000
554.0040, 8235.000
555.1790, 8167.000
556.3540, 8148.000
557.5280, 8228.000
558.7020, 8075.000
559.8760, 7987.000
561.0500, 7870.000
562.2230, 7955.000
563.3970, 7838.000
564.5700, 7904.000
565.7430, 7820.000
566.9160, 7824.000
568.0890, 7755.000
569.2620, 7801.000
570.4340, 7758.414
571.6070, 7680.000
572.7790, 7711.000
573.9510, 7669.000
575.1230, 7632.000
576.2940, 7643.000
577.4660, 7549.000
578.6370, 7627.000
579.8080, 7686.000
580.9790, 7634.000
582.1500, 7587.000
583.3210, 7584.000
584.4910, 7650.000
585.6620, 7684.000
586.8320, 7732.000
588.0020, 7854.000
589.1720, 7615.000
590.3410, 7672.000
591.5110, 7652.000
592.6800, 7727.000
593.8500, 7711.000
595.0190, 7779.000
596.1880, 7734.894
597.3560, 7613.000
598.5250, 7666.000
599.6930, 7620.000
600.8620, 7639.000
602.0300, 7542.000
603.1970, 7492.000
604.3650, 7561.000
605.5330, 7498.000
606.7000, 7457.000
607.8680, 7514.000
609.0350, 7605.000
610.2020, 7381.000
611.3680, 7440.000
612.5350, 7508.000
613.7010, 7453.000
614.8680, 7470.000
616.0340, 7463.000
617.2000, 7371.000
618.3660, 7316.000
619.5310, 7471.000
620.6970, 7447.000
621.8620, 7385.000
623.0270, 7253.000
624.1920, 7290.000
625.3570, 7299.000
626.5220, 7362.000
627.6860, 7336.000
628.8500, 7276.000
630.0140, 7257.000
631.1780, 7287.000
632.3420, 7354.000
633.5060, 7283.000
634.6700, 7411.000
635.8330, 7394.000
636.9960, 7485.000
638.1590, 7453.000
639.3220, 7556.000
640.4850, 7544.000
641.6470, 7637.000
642.8100, 7597.000
643.9720, 7622.000
645.1340, 7668.000
646.2960, 7766.000
647.4570, 7682.000
648.6190, 7894.000
649.7800, 7754.000
650.9420, 7791.000
652.1030, 7856.000
653.2640, 7870.000
654.4240, 7812.000
655.5850, 7682.000
656.7450, 7738.000
657.9060, 7654.000
659.0660, 7612.000
660.2260, 7684.000
661.3850, 7650.000
662.5450, 7548.000
663.7040, 7514.000
664.8640, 7382.000
666.0230, 7424.000
667.1820, 7330.306
668.3410, 7239.000
669.4990, 7189.000
670.6580, 7222.000
671.8160, 7101.000
672.9740, 7088.000
674.1320, 7068.000
675.2900, 6920.000
676.4480, 6931.000
677.6050, 6946.000
678.7630, 6981.000
679.9200, 6897.000
681.0770, 6779.000
682.2340, 6986.000
683.3900, 6848.000
684.5470, 6760.000
685.7030, 6819.000
686.8590, 6848.000
688.0150, 6947.000
689.1710, 6868.000
690.3270, 6826.000
691.4830, 6777.000
692.6380, 6889.000
693.7930, 6743.000
694.9480, 6886.000
696.1030, 6823.000
697.2580, 6745.000
698.4130, 6809.000
699.5670, 6764.000
700.7210, 6835.000
701.8750, 6787.000
703.0290, 6970.000
704.1830, 6811.000
705.3370, 6785.000
706.4900, 6992.000
707.6430, 6889.000
708.7970, 6864.000
709.9490, 6989.000
711.1020, 6965.000
712.2550, 6961.000
713.4070, 6893.000
714.5600, 6967.000
715.7120, 7032.000
716.8640, 7089.000
718.0160, 6940.000
719.1670, 6844.000
720.3190, 7002.000
721.4700, 6991.000
722.6210, 6992.000
723.7720, 7039.000
724.9230, 7007.000
726.0740, 6998.000
727.2250, 6983.000
728.3750, 7115.000
729.5250, 7062.000
730.6750, 7107.000
731.8250, 7026.000
732.9750, 7091.000
734.1240, 7038.000
735.2740, 7083.000
736.4230, 7124.000
737.5720, 7180.000
738.7210, 7099.000
739.8700, 7083.000
741.0190, 7084.000
742.1670, 7071.000
743.3150, 7126.575
744.4630, 7231.000
745.6110, 7268.000
746.7590, 7297.000
747.9070, 7398.000
749.0540, 7436.000
750.2020, 7406.000
751.3490, 7509.000
752.4960, 7649.000
753.6430, 7678.000
754.7890, 7827.000
755.9360, 7901.000
757.0820, 7869.000
758.2280, 8114.000
759.3740, 8128.000
760.5200, 8157.000
761.6660, 8242.000
762.8120, 8262.000
763.9570, 8265.000
765.1020, 8272.000
766.2470, 8309.000
767.3920, 8272.919
768.5370, 8244.000
769.6810, 8197.000
770.8260, 8084.000
771.9700, 8001.000
773.1140, 8063.000
774.2580, 7907.000
775.4020, 7789.000
776.5460, 7822.000
777.6890, 7828.000
778.8320, 7724.000
779.9750, 7556.000
781.1180, 7577.000
782.2610, 7493.000
783.4040, 7560.000
784.5460, 7548.000
785.6890, 7467.000
786.8310, 7316.000
787.9730, 7340.000
789.1150, 7317.000
790.2560, 7114.567
791.3980, 7157.425
792.5390, 7165.698
793.6810, 7141.179
794.8220, 6985.821
795.9630, 6999.457
797.1030, 6945.399
798.2440, 6888.533
799.3840, 6925.988
800.5240, 6789.695
801.6650, 6825.622
802.8040, 6792.852
803.9440, 6791.521
805.0840, 6722.045
806.2230, 6708.000
807.3630, 6610.000
808.5020, 6670.000
809.6410, 6533.000
810.7790, 6596.000
811.9180, 6638.000
813.0570, 6504.000
814.1950, 6535.000
815.3330, 6357.000
816.4710, 6490.000
817.6090, 6458.000
818.7470, 6500.000
819.8840, 6417.000
821.0220, 6375.000
822.1590, 6433.000
823.2960, 6418.000
824.4330, 6402.000
825.5690, 6421.000
826.7060, 6334.000
827.8420, 6406.000
828.9790, 6445.000
830.1150, 6322.000
831.2510, 6352.000
832.3860, 6314.000
833.5220, 6401.000
834.6570, 6383.000
835.7930, 6354.000
836.9280, 6284.000
838.0630, 6313.000
839.1980, 6319.000
840.3320, 6280.000
841.4670, 6287.000
842.6010, 6311.000
843.7350, 6212.000
844.8690, 6305.000
846.0030, 6326.000
847.1370, 6232.000
848.2700, 6283.000
849.4040, 6281.000
850.5370, 6249.000
851.6700, 6331.000
852.8030, 6202.000
853.9360, 6234.000
855.0680, 6196.000
856.2000, 6297.000
857.3330, 6308.000
858.4650, 6328.000
859.5970, 6218.000
860.7290, 6329.000
861.8600, 6243.000
862.9920, 6270.000
864.1230, 6166.000
865.2540, 6233.000
866.3850, 6258.000
867.5160, 6247.000
868.6460, 6265.000
869.7770, 6269.728
870.9070, 6296.000
872.0370, 6265.000
873.1670, 6233.000
874.2970, 6194.000
875.4270, 6196.131
876.5570, 6188.262
877.6860, 6206.000
878.8150, 6222.000
879.9440, 6234.000
881.0730, 6224.263
882.2020, 6253.000
883.3300, 6190.000
884.4590, 6211.000
885.5870, 6188.000
886.7150, 6273.000
887.8430, 6176.000
888.9710, 6258.000
890.0990, 6370.000
891.2260, 6187.000
892.3530, 6211.000
893.4810, 6214.000
894.6080, 6178.000
895.7340, 6271.000
896.8610, 6233.000
897.9880, 6258.000
899.1140, 6159.000
900.2400, 6305.000
901.3660, 6254.000
902.4920, 6342.000
903.6180, 6333.512
904.7430, 6385.000
905.8690, 6285.000
906.9940, 6302.000
908.1190, 6251.000
909.2440, 6282.000
910.3690, 6296.000
911.4930, 6242.000
912.6180, 6388.000
913.7420, 6413.000
914.8660, 6285.000
915.9900, 6359.000
917.1140, 6316.000
918.2380, 6382.000
919.3610, 6393.000
920.4850, 6409.000
921.6080, 6369.000
922.7310, 6369.000
923.8540, 6288.000
924.9760, 6324.000
926.0990, 6421.000
927.2210, 6355.000
928.3440, 6411.000
929.4660, 6416.000
930.5880, 6361.000
931.7090, 6371.000
932.8310, 6485.000
933.9520, 6482.000
935.0740, 6432.000
936.1950, 6543.000
937.3160, 6500.000
938.4360, 6419.000
939.5570, 6489.000
940.6780, 6491.000
941.7980, 6469.000
942.9180, 6510.000
944.0380, 6498.000
945.1580, 6590.000
946.2780, 6526.000
947.3970, 6620.000
948.5170, 6574.000
949.6360, 6584.000
950.7550, 6512.000
951.8740, 6548.553
952.9930, 6668.000
954.1110, 6594.000
955.2300, 6704.000
956.3480, 6710.000
957.4660, 6778.000
958.5840, 6785.000
959.7020, 6763.000
960.8190, 6797.000
961.9370, 6883.000
963.0540, 6943.000
964.1710, 6974.000
965.2880, 6865.000
966.4050, 6954.000
967.5220, 7000.000
968.6380, 7160.000
969.7550, 7170.000
970.8710, 7095.000
971.9870, 7219.000
973.1030, 7293.000
974.2190, 7339.000
975.3340, 7518.000
976.4500, 7494.000
977.5650, 7591.000
978.6800, 7645.000
979.7950, 7759.000
980.9100, 7730.000
982.0250, 7828.000
983.1390, 7796.000
984.2530, 7913.000
985.3680, 8091.000
986.4820, 8048.000
987.5950, 7987.000
988.7090, 8068.000
989.8230, 8221.000
990.9360, 8152.000
992.0490, 8243.000
993.1620, 8221.000
994.2750, 8293.000
995.3880, 8395.000
996.5010, 8347.000
997.6130, 8555.000
998.7250, 8366.000
999.8370, 8516.000
1000.949, 8562.000
1002.061, 8585.000
1003.173, 8653.353
1004.284, 8684.000
1005.396, 8717.000
1006.507, 8743.000
1007.618, 8791.000
1008.729, 8876.000
1009.839, 8721.000
1010.950, 8960.000
1012.060, 8895.000
1013.171, 8858.000
1014.281, 8944.000
1015.391, 8957.000
1016.500, 9002.000
1017.610, 8819.000
1018.719, 8850.000
1019.829, 8909.000
1020.938, 9052.000
1022.047, 8927.000
1023.156, 8918.000
1024.264, 8933.000
1025.373, 8823.000
1026.481, 8798.000
1027.589, 8851.000
1028.697, 8687.000
1029.805, 8683.000
1030.913, 8670.000
1032.020, 8668.000
1033.128, 8743.000
1034.235, 8606.000
1035.342, 8667.000
1036.449, 8598.000
1037.556, 8582.000
1038.663, 8530.000
1039.769, 8451.000
1040.875, 8507.000
1041.981, 8401.000
1043.087, 8445.000
1044.193, 8413.000
1045.299, 8394.000
1046.404, 8404.000
1047.510, 8373.000
1048.615, 8377.000
1049.720, 8330.000
1050.825, 8358.018
1051.930, 8371.000
1053.034, 8444.000
1054.139, 8433.000
1055.243, 8555.000
1056.347, 8622.000
1057.451, 8528.000
1058.555, 8663.000
1059.658, 8642.000
1060.762, 8766.000
1061.865, 8904.000
1062.968, 9094.000
1064.071, 9167.646
1065.174, 9339.000
1066.277, 9377.000
1067.380, 9454.000
1068.482, 9623.000
1069.584, 9735.000
1070.686, 9931.000
1071.788, 10008.00
1072.890, 10093.00
1073.992, 10375.00
1075.093, 10551.00
1076.194, 10554.00
1077.295, 10694.00
1078.396, 10926.00
1079.497, 11051.00
1080.598, 11238.00
1081.698, 11368.00
1082.799, 11545.00
1083.899, 11772.00
1084.999, 11868.00
1086.099, 12040.00
1087.199, 12145.00
1088.298, 12220.00
1089.398, 12364.00
1090.497, 12276.00
1091.596, 12636.00
1092.695, 12658.00
1093.794, 13045.00
1094.892, 12898.00
1095.991, 12988.00
1097.089, 12942.00
1098.187, 13153.00
1099.285, 13090.00
1100.383, 13236.00
1101.481, 13264.00
1102.579, 13384.00
1103.676, 13463.00
1104.773, 13311.00
1105.870, 13228.00
1106.967, 13370.00
1108.064, 13454.00
1109.161, 13400.00
1110.257, 13220.00
1111.353, 13347.00
1112.449, 13229.00
1113.545, 13209.00
1114.641, 13171.00
1115.737, 13198.00
1116.832, 13065.00
1117.928, 13099.00
1119.023, 13056.00
1120.118, 12955.57
1121.213, 12863.00
1122.308, 12793.00
1123.402, 12606.00
1124.497, 12555.00
1125.591, 12483.00
1126.685, 12228.00
1127.779, 12296.00
1128.873, 12111.00
1129.967, 11999.00
1131.060, 11832.00
1132.153, 11725.42
1133.247, 11656.00
1134.340, 11532.00
1135.433, 11435.00
1136.525, 11361.00
1137.618, 11106.00
1138.710, 11080.00
1139.802, 10894.00
1140.895, 10844.00
1141.987, 10676.00
1143.078, 10663.00
1144.170, 10589.00
1145.261, 10399.00
1146.353, 10460.00
1147.444, 10243.00
1148.535, 10066.00
1149.626, 10020.00
1150.716, 9950.000
1151.807, 9747.000
1152.897, 9710.000
1153.988, 9515.000
1155.078, 9615.000
1156.168, 9485.000
1157.257, 9347.193
1158.347, 9172.000
1159.436, 9090.000
1160.526, 9017.000
1161.615, 9007.000
1162.704, 8809.000
1163.793, 8855.000
1164.881, 8796.000
1165.970, 8600.000
1167.058, 8619.000
1168.147, 8501.000
1169.235, 8397.000
1170.323, 8307.000
1171.410, 8276.000
1172.498, 8274.000
1173.585, 8039.000
1174.673, 8073.000
1175.760, 8078.000
1176.847, 7926.000
1177.934, 7936.000
1179.020, 7853.000
1180.107, 7857.000
1181.193, 7727.000
1182.279, 7710.000
1183.365, 7695.000
1184.451, 7627.000
1185.537, 7583.000
1186.623, 7639.000
1187.708, 7621.000
1188.793, 7517.000
1189.878, 7583.000
1190.963, 7524.000
1192.048, 7600.000
1193.133, 7498.000
1194.217, 7503.000
1195.302, 7368.000
1196.386, 7459.000
1197.470, 7482.000
1198.554, 7392.000
1199.638, 7368.000
1200.721, 7327.000
1201.805, 7332.000
1202.888, 7334.000
1203.971, 7412.000
1205.054, 7444.000
1206.137, 7341.000
1207.219, 7367.000
1208.302, 7296.000
1209.384, 7432.000
1210.466, 7241.000
1211.548, 7366.000
1212.630, 7317.000
1213.712, 7316.000
1214.794, 7274.000
1215.875, 7315.000
1216.956, 7368.000
1218.037, 7243.000
1219.118, 7239.000
1220.199, 7298.000
1221.280, 7232.000
1222.360, 7227.000
1223.441, 7315.000
1224.521, 7329.000
1225.601, 7155.000
1226.681, 7324.000
1227.760, 7247.000
1228.840, 7158.000
1229.919, 7285.000
1230.999, 7280.000
1232.078, 7292.000
1233.157, 7319.000
1234.236, 7276.189
1235.314, 7250.000
1236.393, 7226.000
1237.471, 7206.000
1238.549, 7240.000
1239.627, 7356.000
1240.705, 7228.000
1241.783, 7289.000
1242.860, 7326.000
1243.938, 7232.000
1245.015, 7272.000
1246.092, 7310.000
1247.169, 7277.000
1248.246, 7136.000
1249.323, 7322.000
1250.399, 7266.000
1251.475, 7199.000
1252.552, 7309.000
1253.628, 7273.000
1254.703, 7302.000
1255.779, 7347.000
1256.855, 7291.000
1257.930, 7247.000
1259.005, 7332.000
1260.080, 7370.000
1261.155, 7274.000
1262.230, 7257.000
1263.305, 7302.000
1264.379, 7301.000
1265.454, 7239.000
1266.528, 7331.000
1267.602, 7365.000
1268.676, 7400.000
1269.750, 7353.000
1270.823, 7393.000
1271.897, 7394.000
1272.970, 7444.000
1274.043, 7462.000
1275.116, 7477.000
1276.189, 7387.000
1277.261, 7444.000
1278.334, 7470.000
1279.406, 7378.000
1280.478, 7527.000
1281.550, 7509.000
1282.622, 7356.000
1283.694, 7421.000
1284.766, 7447.000
1285.837, 7479.000
1286.908, 7514.000
1287.979, 7432.000
1289.050, 7401.000
1290.121, 7470.000
1291.192, 7537.000
1292.262, 7540.000
1293.333, 7499.000
1294.403, 7550.000
1295.473, 7522.000
1296.543, 7477.000
1297.613, 7634.000
1298.682, 7539.000
1299.752, 7505.000
1300.821, 7569.000
1301.890, 7660.000
1302.959, 7680.000
1304.028, 7710.161
1305.096, 7724.000
1306.165, 7718.000
1307.233, 7682.000
1308.301, 7677.000
1309.370, 7580.000
1310.437, 7607.000
1311.505, 7599.000
1312.573, 7567.000
1313.640, 7745.000
1314.708, 7698.000
1315.775, 7660.000
1316.842, 7795.000
1317.908, 7628.000
1318.975, 7727.000
1320.042, 7647.000
1321.108, 7769.000
1322.174, 7758.000
1323.240, 7744.000
1324.306, 7813.000
1325.372, 7680.000
1326.438, 7722.000
1327.503, 7609.000
1328.568, 7712.000
1329.634, 7711.000
1330.699, 7523.000
1331.763, 7734.000
1332.828, 7704.000
1333.893, 7712.000
1334.957, 7642.000
1336.021, 7695.000
1337.085, 7711.000
1338.149, 7602.000
1339.213, 7707.000
1340.277, 7740.000
1341.340, 7827.000
1342.404, 7632.000
1343.467, 7626.000
1344.530, 7644.000
1345.593, 7699.000
1346.655, 7709.538
1347.718, 7708.215
1348.780, 7753.000
1349.843, 7680.000
1350.905, 7652.000
1351.967, 7630.000
1353.028, 7560.000
1354.090, 7666.000
1355.152, 7577.000
1356.213, 7621.000
1357.274, 7623.000
1358.335, 7576.000
1359.396, 7604.734
1360.457, 7595.277
1361.517, 7596.000
1362.578, 7620.000
1363.638, 7599.000
1364.698, 7632.000
1365.758, 7591.000
1366.818, 7551.000
1367.878, 7560.000
1368.937, 7494.000
1369.997, 7523.000
1371.056, 7581.000
1372.115, 7565.000
1373.174, 7647.000
1374.232, 7588.000
1375.291, 7612.000
1376.350, 7623.000
1377.408, 7672.000
1378.466, 7643.000
1379.524, 7509.000
1380.582, 7584.000
1381.640, 7687.000
1382.697, 7575.000
1383.754, 7631.000
1384.812, 7660.000
1385.869, 7663.000
1386.926, 7614.000
1387.983, 7626.000
1389.039, 7562.000
1390.096, 7692.000
1391.152, 7619.000
1392.208, 7658.000
1393.264, 7742.000
1394.320, 7566.000
1395.376, 7636.000
1396.431, 7636.000
1397.487, 7653.000
1398.542, 7628.000
1399.597, 7577.000
1400.652, 7617.000
1401.707, 7650.000
1402.762, 7732.000
1403.816, 7662.000
1404.871, 7677.000
1405.925, 7744.000
1406.979, 7663.000
1408.033, 7710.000
1409.086, 7565.000
1410.140, 7617.000
1411.194, 7698.000
1412.247, 7747.000
1413.300, 7722.000
1414.353, 7754.000
1415.406, 7724.000
1416.458, 7810.000
1417.511, 7728.000
1418.563, 7752.000
1419.616, 7707.000
1420.668, 7696.000
1421.720, 7812.000
1422.772, 7803.000
1423.823, 7748.000
1424.875, 7831.000
1425.926, 7703.000
1426.977, 7748.000
1428.028, 7768.000
1429.079, 7842.000
1430.130, 7743.000
1431.180, 7751.000
1432.231, 7741.000
1433.281, 7759.000
1434.331, 7744.000
1435.381, 7683.000
1436.431, 7847.000
1437.481, 7814.000
1438.530, 7722.000
1439.580, 7899.000
1440.629, 7851.000
1441.678, 7817.000
1442.727, 7634.000
1443.776, 7806.000
1444.824, 7794.000
1445.873, 7863.000
1446.921, 7787.000
1447.969, 7876.000
1449.017, 7954.000
1450.065, 7942.270
1451.113, 7911.000
1452.160, 7950.000
1453.208, 7892.000
1454.255, 7792.000
1455.302, 7855.000
1456.349, 7970.000
1457.396, 7871.000
1458.443, 7931.000
1459.489, 7843.000
1460.535, 7897.000
1461.582, 7914.000
1462.628, 7852.000
1463.674, 7949.000
1464.719, 7965.000
1465.765, 7893.000
1466.810, 8024.000
1467.856, 7946.000
1468.901, 7916.000
1469.946, 7850.000
1470.991, 7900.000
1472.035, 7859.758
1473.080, 7863.659
1474.124, 7851.000
1475.169, 7883.000
1476.213, 7889.000
1477.257, 7926.000
1478.300, 7961.000
1479.344, 7923.000
1480.388, 7977.000
1481.431, 7862.000
1482.474, 7991.000
1483.517, 7941.000
1484.560, 7925.000
1485.603, 7949.000
1486.645, 7954.000
1487.688, 7981.000
1488.730, 7972.000
1489.772, 7908.000
1490.814, 7990.000
1491.856, 7953.000
1492.898, 7907.000
1493.939, 8007.000
1494.981, 7913.000
1496.022, 7992.000
1497.063, 8018.000
1498.104, 7881.000
1499.145, 8016.000
1500.186, 7991.000
1501.226, 7951.000
1502.266, 7927.000
1503.307, 7981.000
1504.347, 8074.000
1505.387, 8066.000
1506.426, 8054.000
1507.466, 8025.000
1508.505, 8031.000
1509.545, 8041.000
1510.584, 8082.000
1511.623, 8020.000
1512.662, 8019.000
1513.700, 8138.000
1514.739, 8093.000
1515.777, 8076.000
1516.815, 7945.000
1517.854, 8013.000
1518.892, 8049.000
1519.929, 8174.000
1520.967, 8114.000
1522.004, 8104.000
1523.042, 8209.000
1524.079, 8193.000
1525.116, 8147.000
1526.153, 8228.000
1527.190, 8109.000
1528.226, 8146.156
1529.263, 8204.000
1530.299, 8195.000
1531.335, 8144.000
1532.371, 8269.000
1533.407, 8107.000
1534.443, 8233.000
1535.478, 8320.000
1536.514, 8172.000
1537.549, 8218.000
1538.584, 8224.000
1539.619, 8291.000
1540.654, 8186.000
1541.689, 8238.000
1542.723, 8124.000
1543.757, 8281.000
1544.792, 8138.000
1545.826, 8182.000
1546.860, 8346.000
1547.893, 8167.000
1548.927, 8355.000
1549.960, 8233.000
1550.994, 8296.000
1552.027, 8335.000
1553.060, 8412.000
1554.093, 8416.596
1555.126, 8462.000
1556.158, 8412.000
1557.191, 8349.000
1558.223, 8304.000
1559.255, 8410.000
1560.287, 8284.000
1561.319, 8400.000
1562.350, 8435.000
##END=



