##NAMES=Gmelinite-Na
##RRUFFID=R060168
##IDEAL CHEMISTRY=Na_4_(Si_8_Al_4_)O_24_&#183;11H_2_O
##LOCALITY=Five Islands, Nova Scotia, Canada
##OWNER=RRUFF
##SOURCE=Guy Ouellet
##DESCRIPTION=Salmon-red interpenetrating prismatic rhombohedral crystals
##STATUS=The identification of this mineral has been confirmed by X-ray diffraction and chemical analysis
##URL=rruff.info/R060168
##MEASURED CHEMISTRY=(Na_3.90_Ca_0.10_)(Si_7.90_Al_4.10_)O_24_Â·8.98H_2_O
##PIN_ID=M00975
##ORIENTATION=Laser parallel to c* (0 0 1). Fiducial mark perpendicular to laser is parallel to a [1 0 0]
248.3560, 10773.00
249.5780, 10743.00
250.8000, 10688.00
252.0230, 10679.00
253.2440, 10638.00
254.4660, 10607.00
255.6880, 10591.00
256.9090, 10781.00
258.1300, 10811.00
259.3510, 11146.00
260.5720, 11239.00
261.7920, 10771.00
263.0130, 10526.00
264.2330, 10625.00
265.4530, 10427.00
266.6730, 10463.00
267.8920, 10345.00
269.1120, 10276.00
270.3310, 10353.00
271.5500, 10286.00
272.7690, 10334.00
273.9880, 10277.00
275.2060, 10321.00
276.4240, 10263.00
277.6430, 10299.00
278.8600, 10465.00
280.0780, 10503.00
281.2960, 10686.00
282.5130, 10653.00
283.7300, 10711.00
284.9470, 10790.00
286.1640, 11042.00
287.3810, 11136.00
288.5970, 11212.00
289.8130, 11495.00
291.0290, 11625.00
292.2450, 11852.00
293.4610, 12171.00
294.6760, 12296.00
295.8910, 12542.00
297.1060, 12771.00
298.3210, 13020.00
299.5360, 13147.00
300.7510, 13662.00
301.9650, 13803.00
303.1790, 14103.00
304.3930, 14566.00
305.6070, 14905.00
306.8200, 15431.00
308.0340, 15821.00
309.2470, 16375.00
310.4600, 17076.00
311.6730, 17952.00
312.8850, 18490.00
314.0980, 18942.00
315.3100, 19531.00
316.5220, 20007.00
317.7340, 20628.00
318.9460, 20856.00
320.1570, 21058.00
321.3690, 21119.00
322.5800, 21025.00
323.7910, 20882.00
325.0010, 20490.00
326.2120, 20304.00
327.4220, 19732.00
328.6330, 18776.00
329.8430, 18253.00
331.0520, 17517.00
332.2620, 16797.00
333.4720, 16140.00
334.6810, 15476.00
335.8900, 14808.00
337.0990, 14385.00
338.3070, 13728.00
339.5160, 13455.00
340.7240, 12984.00
341.9320, 12707.00
343.1400, 12304.00
344.3480, 12103.00
345.5560, 11859.00
346.7630, 11581.00
347.9700, 11352.00
349.1770, 11175.00
350.3840, 11033.00
351.5910, 11089.00
352.7970, 10889.00
354.0040, 10903.00
355.2100, 10809.00
356.4160, 10866.00
357.6220, 10611.00
358.8270, 10705.00
360.0320, 10642.00
361.2380, 10566.00
362.4430, 10664.00
363.6470, 10678.00
364.8520, 10612.00
366.0560, 10767.00
367.2610, 10786.00
368.4650, 10992.00
369.6690, 11064.00
370.8720, 11163.00
372.0760, 11149.00
373.2790, 11369.00
374.4820, 11471.00
375.6850, 11618.00
376.8880, 11745.00
378.0910, 11984.00
379.2930, 12246.00
380.4950, 12348.00
381.6970, 12456.00
382.8990, 12808.00
384.1010, 13054.00
385.3020, 13219.00
386.5040, 13585.00
387.7050, 13710.00
388.9060, 13986.00
390.1060, 14297.00
391.3070, 14682.00
392.5070, 14980.00
393.7080, 15404.00
394.9080, 15824.00
396.1070, 16544.00
397.3070, 16995.00
398.5070, 17830.00
399.7060, 18583.00
400.9050, 19636.00
402.1040, 20639.00
403.3030, 21693.00
404.5010, 22646.93
405.7000, 23737.00
406.8980, 24506.00
408.0960, 25418.00
409.2940, 26257.00
410.4910, 26617.00
411.6890, 26936.00
412.8860, 26761.00
414.0830, 26903.00
415.2800, 26028.00
416.4770, 25219.00
417.6730, 24461.00
418.8690, 23498.00
420.0660, 22350.00
421.2620, 21168.00
422.4570, 20204.00
423.6530, 19092.00
424.8480, 18340.00
426.0440, 17450.00
427.2390, 16945.00
428.4340, 16350.00
429.6280, 15618.00
430.8230, 15275.00
432.0170, 15228.00
433.2110, 14853.00
434.4050, 14536.00
435.5990, 14528.00
436.7930, 14377.00
437.9860, 14383.00
439.1800, 14238.00
440.3730, 14307.00
441.5660, 14345.00
442.7580, 14573.00
443.9510, 14533.00
445.1430, 14563.00
446.3350, 14651.00
447.5270, 15138.00
448.7190, 15314.00
449.9110, 15456.00
451.1020, 15735.00
452.2930, 15957.00
453.4850, 16242.00
454.6750, 16653.00
455.8660, 16984.00
457.0570, 17541.00
458.2470, 17920.00
459.4370, 18374.00
460.6270, 18839.00
461.8170, 19498.00
463.0070, 20363.00
464.1960, 21024.00
465.3850, 21797.00
466.5750, 22594.00
467.7630, 23749.00
468.9520, 24542.00
470.1410, 25856.00
471.3290, 27211.00
472.5170, 28307.00
473.7050, 29862.00
474.8930, 31337.00
476.0810, 33058.00
477.2680, 34696.00
478.4560, 36653.00
479.6430, 38775.00
480.8300, 41063.00
482.0160, 43428.00
483.2030, 45811.00
484.3890, 48278.00
485.5760, 50736.00
486.7620, 53060.00
487.9480, 55373.00
489.1330, 57476.00
490.3190, 59242.00
491.5040, 60425.00
492.6890, 61626.00
493.8740, 62329.00
495.0590, 62307.00
496.2440, 62797.00
497.4280, 61940.00
498.6120, 60564.00
499.7960, 59422.00
500.9800, 57072.00
502.1640, 55153.00
503.3470, 52053.00
504.5310, 49069.00
505.7140, 46221.00
506.8970, 43423.00
508.0800, 39970.00
509.2620, 37134.00
510.4450, 34162.00
511.6270, 31963.00
512.8090, 29194.00
513.9910, 26953.00
515.1730, 25007.00
516.3550, 22990.00
517.5360, 21476.00
518.7170, 20118.00
519.8980, 18790.00
521.0790, 17620.00
522.2600, 16789.00
523.4400, 15981.00
524.6210, 15190.00
525.8010, 14505.00
526.9810, 13798.00
528.1610, 13358.00
529.3400, 12980.00
530.5200, 12543.00
531.6990, 12182.00
532.8780, 11785.00
534.0570, 11487.00
535.2360, 11181.00
536.4140, 10951.00
537.5930, 10815.00
538.7710, 10683.00
539.9490, 10498.38
541.1270, 10411.00
542.3040, 10172.00
543.4820, 9962.000
544.6590, 9772.000
545.8360, 9677.285
547.0130, 9742.000
548.1900, 9569.000
549.3670, 9494.000
550.5430, 9477.000
551.7190, 9397.000
552.8960, 9334.000
554.0710, 9273.498
555.2470, 9200.389
556.4230, 9082.000
557.5980, 9072.000
558.7730, 8883.000
559.9480, 8824.000
561.1230, 8826.000
562.2980, 8789.000
563.4720, 8584.000
564.6470, 8692.000
565.8210, 8518.000
566.9950, 8616.000
568.1690, 8567.000
569.3420, 8412.000
570.5160, 8460.000
571.6890, 8463.000
572.8620, 8354.000
574.0350, 8224.000
575.2080, 8365.000
576.3800, 8364.000
577.5530, 8272.000
578.7250, 8349.000
579.8970, 8345.000
581.0690, 8239.000
582.2410, 8223.000
583.4120, 8316.000
584.5830, 8412.000
585.7550, 8243.000
586.9260, 8440.000
588.0960, 8378.000
589.2670, 8318.000
590.4380, 8321.000
591.6080, 8394.000
592.7780, 8376.119
593.9480, 8420.110
595.1180, 8416.000
596.2870, 8462.000
597.4570, 8456.000
598.6260, 8435.000
599.7950, 8483.000
600.9640, 8511.400
602.1330, 8512.000
603.3010, 8613.000
604.4700, 8609.000
605.6380, 8636.000
606.8060, 8411.000
607.9740, 8439.000
609.1420, 8579.000
610.3090, 8403.000
611.4760, 8465.000
612.6440, 8435.000
613.8110, 8455.000
614.9770, 8491.000
616.1440, 8391.000
617.3110, 8367.000
618.4770, 8210.000
619.6430, 8224.000
620.8090, 8265.000
621.9750, 8210.000
623.1400, 8214.000
624.3060, 8140.000
625.4710, 8101.000
626.6360, 8072.834
627.8010, 8052.000
628.9660, 8015.000
630.1300, 8052.000
631.2950, 8057.000
632.4590, 8123.000
633.6230, 8144.164
634.7870, 8117.000
635.9510, 8195.000
637.1140, 8208.000
638.2780, 8190.000
639.4410, 8238.000
640.6040, 8398.000
641.7670, 8342.000
642.9290, 8383.000
644.0920, 8443.000
645.2540, 8300.000
646.4160, 8510.000
647.5780, 8668.000
648.7400, 8530.000
649.9020, 8582.000
651.0630, 8595.000
652.2250, 8510.000
653.3860, 8620.000
654.5470, 8528.000
655.7080, 8562.000
656.8680, 8457.000
658.0290, 8596.000
659.1890, 8462.000
660.3490, 8230.000
661.5090, 8329.000
662.6690, 8164.000
663.8280, 8186.000
664.9880, 8174.000
666.1470, 8029.000
667.3060, 8037.000
668.4650, 8017.000
669.6240, 7843.000
670.7820, 7916.000
671.9410, 7877.000
673.0990, 7812.000
674.2570, 7646.000
675.4150, 7584.000
676.5720, 7590.000
677.7300, 7616.000
678.8870, 7528.000
680.0450, 7511.000
681.2020, 7476.000
682.3590, 7458.406
683.5150, 7415.000
684.6720, 7435.000
685.8280, 7458.000
686.9840, 7401.000
688.1400, 7363.000
689.2960, 7440.000
690.4520, 7339.000
691.6070, 7283.000
692.7630, 7462.000
693.9180, 7293.000
695.0730, 7261.000
696.2280, 7373.000
697.3820, 7282.000
698.5370, 7324.000
699.6910, 7275.000
700.8450, 7341.000
701.9990, 7288.000
703.1530, 7339.000
704.3070, 7285.000
705.4600, 7338.000
706.6130, 7308.000
707.7660, 7183.000
708.9190, 7347.000
710.0720, 7428.000
711.2250, 7273.000
712.3770, 7341.000
713.5300, 7434.000
714.6820, 7398.000
715.8340, 7351.000
716.9850, 7301.000
718.1370, 7409.000
719.2880, 7415.000
720.4400, 7366.000
721.5910, 7498.000
722.7420, 7309.000
723.8930, 7474.000
725.0430, 7417.000
726.1940, 7469.000
727.3440, 7491.000
728.4940, 7488.000
729.6440, 7430.000
730.7940, 7411.000
731.9430, 7389.000
733.0930, 7378.000
734.2420, 7468.000
735.3910, 7431.000
736.5400, 7500.000
737.6890, 7506.000
738.8370, 7455.000
739.9860, 7443.000
741.1340, 7538.000
742.2820, 7563.000
743.4300, 7496.000
744.5780, 7569.000
745.7250, 7455.000
746.8730, 7677.000
748.0200, 7718.000
749.1670, 7666.000
750.3140, 7770.000
751.4610, 7765.000
752.6070, 7893.000
753.7540, 7866.000
754.9000, 7872.000
756.0460, 8012.000
757.1920, 8111.000
758.3380, 8139.000
759.4830, 8291.000
760.6280, 8368.000
761.7740, 8545.000
762.9190, 8498.000
764.0640, 8519.000
765.2080, 8499.000
766.3530, 8560.000
767.4970, 8584.000
768.6420, 8622.000
769.7860, 8616.058
770.9300, 8623.794
772.0730, 8551.000
773.2170, 8588.000
774.3600, 8493.000
775.5040, 8424.000
776.6470, 8271.000
777.7900, 8254.000
778.9320, 8242.000
780.0750, 8272.000
781.2170, 8034.000
782.3600, 7966.000
783.5020, 7878.000
784.6440, 7919.000
785.7850, 7830.000
786.9270, 7841.000
788.0680, 7759.000
789.2100, 7757.000
790.3510, 7656.000
791.4920, 7656.000
792.6320, 7671.000
793.7730, 7639.000
794.9130, 7594.000
796.0540, 7450.000
797.1940, 7452.000
798.3340, 7491.000
799.4730, 7340.000
800.6130, 7361.000
801.7520, 7277.000
802.8920, 7359.000
804.0310, 7246.000
805.1700, 7143.000
806.3090, 7143.000
807.4470, 7178.000
808.5860, 6987.000
809.7240, 7148.000
810.8620, 6963.000
812.0000, 7056.000
813.1380, 6906.000
814.2750, 6973.000
815.4130, 6890.000
816.5500, 6813.000
817.6870, 6799.000
818.8240, 6979.000
819.9610, 6811.000
821.0980, 6896.000
822.2340, 6763.000
823.3700, 6771.000
824.5070, 6844.000
825.6430, 6759.000
826.7780, 6778.988
827.9140, 6751.622
829.0500, 6764.000
830.1850, 6727.000
831.3200, 6787.000
832.4550, 6722.478
833.5900, 6773.000
834.7250, 6651.000
835.8590, 6600.000
836.9930, 6619.000
838.1280, 6694.000
839.2620, 6627.000
840.3950, 6658.000
841.5290, 6659.221
842.6630, 6640.000
843.7960, 6660.000
844.9290, 6656.000
846.0620, 6663.000
847.1950, 6649.000
848.3280, 6667.000
849.4600, 6609.000
850.5930, 6662.000
851.7250, 6663.000
852.8570, 6596.000
853.9890, 6643.000
855.1210, 6643.000
856.2520, 6698.000
857.3840, 6677.000
858.5150, 6617.000
859.6460, 6637.000
860.7770, 6680.000
861.9080, 6645.766
863.0380, 6670.000
864.1690, 6627.000
865.2990, 6683.000
866.4290, 6664.000
867.5590, 6672.000
868.6890, 6653.000
869.8190, 6620.000
870.9480, 6674.000
872.0770, 6547.000
873.2070, 6601.000
874.3360, 6597.000
875.4640, 6678.000
876.5930, 6595.000
877.7220, 6566.000
878.8500, 6589.000
879.9780, 6523.000
881.1060, 6636.000
882.2340, 6561.000
883.3620, 6475.000
884.4890, 6613.000
885.6170, 6521.000
886.7440, 6541.000
887.8710, 6571.000
888.9980, 6587.000
890.1240, 6599.000
891.2510, 6617.000
892.3770, 6541.000
893.5040, 6625.000
894.6300, 6535.000
895.7560, 6520.000
896.8810, 6605.000
898.0070, 6588.000
899.1330, 6652.000
900.2580, 6626.000
901.3830, 6702.000
902.5080, 6632.000
903.6330, 6668.000
904.7570, 6682.000
905.8820, 6633.000
907.0060, 6684.000
908.1300, 6662.773
909.2540, 6707.000
910.3780, 6656.000
911.5020, 6685.000
912.6250, 6677.000
913.7490, 6695.000
914.8720, 6685.000
915.9950, 6712.555
917.1180, 6716.000
918.2400, 6751.000
919.3630, 6781.000
920.4850, 6766.852
921.6080, 6793.000
922.7300, 6790.000
923.8520, 6834.000
924.9730, 6811.000
926.0950, 6796.000
927.2160, 6766.000
928.3380, 6865.000
929.4590, 6805.000
930.5800, 6930.000
931.7010, 6799.000
932.8210, 6814.000
933.9420, 6879.000
935.0620, 6914.000
936.1820, 6812.000
937.3020, 6788.000
938.4220, 6844.000
939.5420, 6895.000
940.6610, 6841.000
941.7810, 6935.000
942.9000, 6815.000
944.0190, 6890.000
945.1380, 6954.000
946.2570, 7001.000
947.3750, 7014.532
948.4940, 6984.000
949.6120, 7002.000
950.7300, 7000.000
951.8480, 6979.000
952.9660, 6996.000
954.0830, 7042.000
955.2010, 6964.000
956.3180, 7066.000
957.4350, 7026.000
958.5520, 7109.000
959.6690, 7088.000
960.7860, 7113.000
961.9020, 7127.000
963.0190, 7247.000
964.1350, 7272.000
965.2510, 7307.000
966.3670, 7390.924
967.4830, 7411.000
968.5980, 7492.000
969.7140, 7551.000
970.8290, 7546.000
971.9440, 7728.000
973.0590, 7667.000
974.1740, 7694.000
975.2880, 7948.000
976.4030, 7842.000
977.5170, 8038.000
978.6310, 7993.000
979.7450, 8140.000
980.8590, 8269.000
981.9730, 8361.000
983.0860, 8593.000
984.2000, 8709.000
985.3130, 8740.000
986.4260, 8735.000
987.5390, 8738.000
988.6520, 8838.000
989.7640, 8796.000
990.8770, 8806.000
991.9890, 8711.000
993.1010, 8819.000
994.2130, 8680.000
995.3250, 8713.000
996.4370, 8821.000
997.5480, 9033.000
998.6590, 8882.000
999.7710, 9113.000
1000.882, 9074.000
1001.993, 9117.000
1003.103, 9035.000
1004.214, 9040.000
1005.324, 9104.000
1006.434, 9202.000
1007.545, 9249.000
1008.655, 9215.000
1009.764, 9273.661
1010.874, 9254.000
1011.983, 9254.000
1013.093, 9271.000
1014.202, 9268.931
1015.311, 9277.000
1016.420, 9281.000
1017.528, 9329.000
1018.637, 9319.000
1019.745, 9343.000
1020.854, 9309.000
1021.962, 9366.000
1023.070, 9318.000
1024.177, 9231.000
1025.285, 9189.000
1026.392, 9251.000
1027.500, 9268.000
1028.607, 9261.000
1029.714, 9267.000
1030.821, 9216.970
1031.927, 9028.000
1033.034, 9111.000
1034.140, 9084.000
1035.246, 9058.000
1036.352, 9115.000
1037.458, 9069.000
1038.564, 8988.000
1039.670, 8962.000
1040.775, 8913.000
1041.880, 8839.000
1042.986, 8851.883
1044.090, 8824.000
1045.195, 8856.000
1046.300, 8912.000
1047.404, 8911.000
1048.509, 8873.000
1049.613, 8915.000
1050.717, 8810.000
1051.821, 8795.000
1052.925, 8854.000
1054.028, 8857.000
1055.132, 8869.000
1056.235, 8890.000
1057.338, 8945.000
1058.441, 8879.000
1059.544, 8956.000
1060.647, 9041.000
1061.749, 9073.000
1062.851, 9273.000
1063.954, 9325.000
1065.056, 9388.000
1066.158, 9507.000
1067.259, 9553.000
1068.361, 9631.000
1069.462, 9838.000
1070.564, 9905.000
1071.665, 10049.00
1072.766, 10240.00
1073.867, 10324.00
1074.967, 10452.97
1076.068, 10569.00
1077.168, 10660.00
1078.268, 10821.00
1079.368, 10957.00
1080.468, 10891.00
1081.568, 11169.00
1082.668, 11269.00
1083.767, 11514.00
1084.866, 11731.00
1085.966, 11667.00
1087.065, 11882.00
1088.163, 11954.00
1089.262, 11994.00
1090.361, 12246.00
1091.459, 12255.00
1092.557, 12319.00
1093.655, 12525.00
1094.753, 12503.00
1095.851, 12840.00
1096.949, 12948.00
1098.046, 12979.00
1099.143, 13148.00
1100.241, 13221.00
1101.338, 13389.00
1102.434, 13406.00
1103.531, 13507.00
1104.628, 13558.00
1105.724, 13600.00
1106.820, 13677.00
1107.916, 13701.71
1109.012, 13668.00
1110.108, 13752.00
1111.204, 13696.00
1112.299, 13682.28
1113.395, 13854.00
1114.490, 13716.00
1115.585, 13766.00
1116.680, 13885.00
1117.775, 13923.00
1118.869, 13977.42
1119.964, 13833.00
1121.058, 14035.00
1122.152, 13957.00
1123.246, 13931.00
1124.340, 13611.00
1125.434, 13618.00
1126.527, 13441.00
1127.620, 13334.00
1128.714, 13197.00
1129.807, 13138.00
1130.900, 12988.00
1131.992, 12866.00
1133.085, 12795.00
1134.178, 12585.00
1135.270, 12525.00
1136.362, 12432.00
1137.454, 12363.00
1138.546, 12353.00
1139.638, 12199.80
1140.729, 12084.22
1141.821, 11907.00
1142.912, 11778.00
1144.003, 11579.00
1145.094, 11462.00
1146.185, 11358.00
1147.276, 11231.00
1148.366, 11166.00
1149.456, 10958.00
1150.547, 11041.00
1151.637, 10852.00
1152.727, 10845.00
1153.816, 10587.00
1154.906, 10388.00
1155.995, 10403.00
1157.085, 10373.00
1158.174, 10252.00
1159.263, 10021.00
1160.352, 10003.00
1161.441, 9941.000
1162.529, 9765.000
1163.618, 9777.000
1164.706, 9774.000
1165.794, 9642.000
1166.882, 9532.000
1167.970, 9347.000
1169.058, 9359.000
1170.145, 9236.000
1171.232, 9089.000
1172.320, 8984.000
1173.407, 8935.147
1174.494, 8907.000
1175.580, 8867.000
1176.667, 8818.000
1177.754, 8760.000
1178.840, 8589.000
1179.926, 8685.000
1181.012, 8559.000
1182.098, 8497.000
1183.184, 8289.000
1184.269, 8360.000
1185.355, 8284.000
1186.440, 8230.000
1187.525, 8208.000
1188.610, 8211.000
1189.695, 8121.000
1190.780, 8052.000
1191.864, 8067.000
1192.949, 8075.000
1194.033, 8038.000
1195.117, 8023.000
1196.201, 8065.000
1197.285, 8013.269
1198.369, 8022.000
1199.452, 7966.000
1200.536, 7928.000
1201.619, 7922.000
1202.702, 7872.000
1203.785, 7915.000
1204.868, 7899.000
1205.950, 7866.000
1207.033, 7925.000
1208.115, 7952.000
1209.197, 7914.000
1210.279, 7849.000
1211.361, 7879.000
1212.443, 7900.000
1213.525, 7866.181
1214.606, 7875.216
1215.687, 7826.000
1216.769, 7837.000
1217.850, 7791.000
1218.930, 7755.000
1220.011, 7745.000
1221.092, 7756.042
1222.172, 7804.000
1223.252, 7835.000
1224.333, 7838.000
1225.413, 7916.000
1226.492, 7889.000
1227.572, 7845.000
1228.652, 8005.000
1229.731, 8006.000
1230.810, 7851.000
1231.889, 7908.000
1232.968, 7868.000
1234.047, 8054.000
1235.126, 7942.000
1236.204, 7911.000
1237.283, 7863.000
1238.361, 7920.000
1239.439, 8023.000
1240.517, 7959.000
1241.595, 8001.000
1242.673, 7923.000
1243.750, 7976.000
1244.827, 7938.000
1245.905, 8001.933
1246.982, 7982.897
1248.059, 8006.958
1249.135, 7951.000
1250.212, 8068.000
1251.288, 8034.000
1252.365, 8095.000
1253.441, 8214.000
1254.517, 8216.000
1255.593, 8027.000
1256.669, 8192.000
1257.744, 8171.000
1258.820, 8139.000
1259.895, 8296.000
1260.970, 8232.000
1262.045, 8178.000
1263.120, 8239.000
1264.195, 8335.000
1265.270, 8357.000
1266.344, 8390.028
1267.418, 8399.000
1268.492, 8424.000
1269.566, 8447.061
1270.640, 8384.000
1271.714, 8460.000
1272.788, 8510.000
1273.861, 8449.000
1274.934, 8373.000
1276.007, 8457.000
1277.080, 8468.000
1278.153, 8494.000
1279.226, 8496.000
1280.299, 8520.420
1281.371, 8489.000
1282.443, 8556.000
1283.515, 8578.000
1284.587, 8585.000
1285.659, 8653.000
1286.731, 8596.000
1287.802, 8739.000
1288.874, 8707.000
1289.945, 8771.000
1291.016, 8706.000
1292.087, 8856.000
1293.158, 8973.000
1294.229, 8948.000
1295.299, 8889.000
1296.370, 9009.000
1297.440, 9064.000
1298.510, 9015.000
1299.580, 9046.000
1300.650, 9141.000
1301.720, 9211.000
1302.789, 9222.000
1303.859, 9196.000
1304.928, 9241.000
1305.997, 9209.000
1307.066, 9333.000
1308.135, 9328.000
1309.203, 9363.000
1310.272, 9424.000
1311.340, 9414.000
1312.409, 9358.000
1313.477, 9538.000
1314.545, 9425.000
1315.612, 9286.000
1316.680, 9555.000
1317.748, 9434.000
1318.815, 9503.000
1319.882, 9366.000
1320.949, 9419.000
1322.016, 9386.000
1323.083, 9386.000
1324.150, 9225.000
1325.216, 9222.000
1326.283, 9215.000
1327.349, 9247.000
1328.415, 9236.000
1329.481, 9127.000
1330.547, 8971.000
1331.613, 9087.000
1332.678, 8963.000
1333.744, 8978.000
1334.809, 8944.000
1335.874, 8823.000
1336.939, 8949.000
1338.004, 8801.000
1339.068, 8769.000
1340.133, 8644.000
1341.197, 8710.000
1342.262, 8728.000
1343.326, 8789.000
1344.390, 8641.000
1345.453, 8544.000
1346.517, 8637.000
1347.581, 8583.000
1348.644, 8625.000
1349.707, 8471.000
1350.770, 8400.000
1351.833, 8492.000
1352.896, 8546.000
1353.959, 8399.000
1355.022, 8374.000
1356.084, 8434.000
1357.146, 8333.702
1358.208, 8344.432
1359.270, 8254.000
1360.332, 8288.000
1361.394, 8245.000
1362.455, 8092.876
1363.517, 8220.851
1364.578, 8288.743
1365.639, 8299.772
1366.700, 8083.631
1367.761, 8160.833
1368.822, 8120.477
1369.883, 8075.300
1370.943, 8193.799
1372.003, 8010.707
1373.063, 8126.611
1374.123, 8123.160
1375.183, 8174.336
1376.243, 8107.225
1377.303, 8076.650
1378.362, 8164.405
1379.421, 8186.646
1380.481, 8105.919
1381.540, 8160.574
1382.598, 7973.368
1383.657, 7998.398
1384.716, 8115.003
1385.774, 8040.240
1386.833, 8097.059
1387.891, 8103.770
1388.949, 7882.722
1390.007, 8057.770
1391.065, 8061.519
1392.122, 7889.390
1393.180, 8050.865
1394.237, 8018.000
1395.294, 8001.000
1396.351, 7980.000
1397.408, 8007.000
1398.465, 7919.000
1399.522, 7994.000
1400.578, 7955.000
1401.635, 8047.000
1402.691, 7948.000
1403.747, 7949.000
1404.803, 8001.000
1405.859, 8024.000
1406.914, 7937.000
1407.970, 8063.000
1409.025, 7955.000
1410.081, 7990.000
1411.136, 8126.000
1412.191, 7975.000
1413.245, 8090.000
1414.300, 7904.000
1415.355, 8089.000
1416.409, 7990.000
1417.463, 8046.000
1418.518, 8124.000
1419.572, 8023.000
1420.625, 7979.000
1421.679, 7957.000
1422.733, 7928.000
1423.786, 7910.000
1424.840, 7991.000
1425.893, 7972.000
1426.946, 7999.000
1427.999, 7979.000
1429.051, 8097.000
1430.104, 8019.000
1431.157, 7990.000
1432.209, 8188.000
1433.261, 8107.000
1434.313, 8115.000
1435.365, 8292.000
1436.417, 8155.694
1437.468, 7979.000
1438.520, 8116.000
1439.571, 8039.000
1440.623, 8200.000
1441.674, 8158.000
1442.725, 8202.000
1443.775, 8228.000
1444.826, 8166.000
1445.877, 8152.000
1446.927, 8194.000
1447.977, 8153.374
1449.028, 8175.781
1450.078, 8188.000
1451.127, 8150.000
1452.177, 8270.000
1453.227, 8177.000
1454.276, 8170.000
1455.325, 8221.000
1456.375, 8163.000
1457.424, 8247.000
1458.473, 8325.000
1459.521, 8348.000
1460.570, 8159.000
1461.618, 8282.000
1462.667, 8205.263
1463.715, 8188.000
1464.763, 8232.000
1465.811, 8160.000
1466.859, 8302.000
1467.906, 8134.000
1468.954, 8198.000
1470.001, 8117.000
1471.049, 8161.000
1472.096, 8167.000
1473.143, 8211.000
1474.190, 8087.000
1475.236, 8114.000
1476.283, 8190.000
1477.329, 8124.000
1478.376, 8220.000
1479.422, 8212.000
1480.468, 8159.000
1481.514, 8114.000
1482.559, 8187.000
1483.605, 8161.000
1484.650, 8117.000
1485.696, 8113.000
1486.741, 8065.000
1487.786, 8070.370
1488.831, 8158.000
1489.876, 8056.000
1490.920, 8112.000
1491.965, 8063.000
1493.009, 8081.000
1494.054, 8123.000
1495.098, 8168.000
1496.142, 8092.000
1497.185, 8170.000
1498.229, 8108.000
1499.273, 8210.000
1500.316, 8111.000
1501.359, 8102.000
1502.403, 8106.000
1503.446, 8208.000
1504.489, 8317.000
1505.531, 8182.000
1506.574, 8220.000
1507.616, 8140.000
1508.659, 8132.753
1509.701, 8214.000
1510.743, 8177.000
1511.785, 8220.000
1512.827, 8218.507
1513.868, 8238.000
1514.910, 8189.000
1515.951, 8226.000
1516.993, 8180.912
1518.034, 8299.000
1519.075, 8206.000
1520.116, 8269.000
1521.156, 8325.000
1522.197, 8255.000
1523.237, 8141.000
1524.278, 8370.000
1525.318, 8291.000
1526.358, 8260.000
1527.398, 8326.000
1528.438, 8322.000
1529.477, 8263.000
1530.517, 8359.000
1531.556, 8356.000
1532.596, 8366.000
1533.635, 8328.000
1534.674, 8369.000
1535.712, 8370.000
1536.751, 8496.000
1537.790, 8400.000
1538.828, 8474.000
1539.866, 8415.000
1540.905, 8410.000
1541.943, 8340.000
1542.981, 8458.000
1544.018, 8377.000
1545.056, 8475.000
1546.094, 8444.000
1547.131, 8385.000
1548.168, 8443.000
1549.205, 8443.464
1550.242, 8527.000
1551.279, 8543.000
1552.316, 8689.000
1553.352, 8781.000
1554.389, 8848.000
1555.425, 8822.000
1556.461, 8718.000
1557.497, 8559.000
1558.533, 8515.000
1559.569, 8647.000
1560.605, 8647.000
1561.640, 8503.000
1562.675, 8536.000
1563.711, 8631.000
##END=



