##NAMES=Gmelinite-Na
##RRUFFID=R050371
##IDEAL CHEMISTRY=Na_4_(Si_8_Al_4_)O_24_&#183;11H_2_O
##LOCALITY=Cairns Bay, Flinders Range, Australia
##OWNER=RRUFF
##SOURCE=Eugene Schlepp
##DESCRIPTION=Colorless to pink crystals lining a basalt vug
##STATUS=The identification of this mineral has been confirmed by X-ray diffraction and chemical analysis
##URL=rruff.info/R050371
##MEASURED CHEMISTRY=Na_3.81_(Si_8.13_Al_3.88_)O_24_Â·4.27H_2_O
##PIN_ID=L01149
##ORIENTATION=Laser parallel to a* (1 0 0). Fiducial mark perpendicular to laser is parallel to c [0 0 1]
244.2110, 7881.000
245.4290, 7803.000
246.6460, 7812.000
247.8630, 7843.000
249.0810, 7736.000
250.2980, 7702.000
251.5140, 7695.254
252.7310, 7683.639
253.9470, 7679.000
255.1640, 7750.000
256.3800, 7770.000
257.5960, 7835.000
258.8120, 7934.000
260.0270, 8100.000
261.2430, 7883.000
262.4580, 7801.000
263.6730, 7723.000
264.8880, 7874.000
266.1030, 7647.000
267.3170, 7677.000
268.5320, 7547.000
269.7460, 7598.000
270.9600, 7477.000
272.1740, 7576.000
273.3880, 7610.000
274.6010, 7559.000
275.8150, 7542.000
277.0280, 7639.000
278.2410, 7635.000
279.4540, 7680.665
280.6670, 7623.000
281.8790, 7742.000
283.0920, 7775.000
284.3040, 7766.000
285.5160, 7995.000
286.7280, 8025.000
287.9400, 8136.000
289.1510, 8302.000
290.3630, 8457.000
291.5740, 8630.000
292.7850, 8620.000
293.9960, 8874.000
295.2070, 9038.000
296.4170, 9094.000
297.6280, 9316.000
298.8380, 9535.000
300.0480, 9740.000
301.2580, 10024.00
302.4680, 10245.00
303.6770, 10675.00
304.8870, 11020.00
306.0960, 11289.00
307.3050, 12114.00
308.5140, 12348.00
309.7230, 13200.00
310.9310, 13685.00
312.1400, 14219.00
313.3480, 14977.00
314.5560, 15729.00
315.7640, 16319.00
316.9720, 16877.00
318.1790, 17546.00
319.3870, 17894.00
320.5940, 18025.00
321.8010, 18211.00
323.0080, 18088.00
324.2150, 17866.00
325.4210, 17554.00
326.6280, 17079.00
327.8340, 16329.00
329.0400, 15724.00
330.2460, 14973.00
331.4510, 14372.00
332.6570, 13603.00
333.8620, 12964.00
335.0680, 12284.00
336.2730, 11780.00
337.4780, 11287.00
338.6820, 10764.00
339.8870, 10357.00
341.0910, 10019.00
342.2950, 9751.000
343.5000, 9520.000
344.7030, 9129.000
345.9070, 8983.000
347.1110, 8758.000
348.3140, 8503.000
349.5170, 8433.000
350.7200, 8334.000
351.9230, 8196.850
353.1260, 8137.543
354.3290, 8030.000
355.5310, 8043.000
356.7330, 8017.000
357.9350, 7964.992
359.1370, 7959.000
360.3390, 7931.000
361.5400, 7957.000
362.7420, 8020.000
363.9430, 8070.000
365.1440, 8146.000
366.3450, 8255.000
367.5460, 8319.787
368.7460, 8293.000
369.9470, 8453.000
371.1470, 8513.000
372.3470, 8502.000
373.5470, 8745.000
374.7460, 8769.000
375.9460, 8989.000
377.1450, 9131.000
378.3450, 9357.000
379.5440, 9623.000
380.7430, 9676.000
381.9410, 9941.000
383.1400, 10046.00
384.3380, 10348.00
385.5370, 10684.00
386.7350, 10702.00
387.9320, 11148.00
389.1300, 11462.00
390.3280, 11700.00
391.5250, 12148.00
392.7220, 12687.00
393.9190, 13127.00
395.1160, 13841.00
396.3130, 14690.00
397.5100, 15515.00
398.7060, 16337.00
399.9020, 17150.00
401.0980, 18241.00
402.2940, 19240.00
403.4900, 20326.00
404.6860, 21333.00
405.8810, 22505.00
407.0760, 23191.00
408.2710, 23592.00
409.4660, 23887.00
410.6610, 23889.00
411.8550, 23380.00
413.0500, 22787.00
414.2440, 21756.00
415.4380, 20785.00
416.6320, 19657.00
417.8260, 18587.00
419.0190, 17591.00
420.2130, 16610.00
421.4060, 15645.00
422.5990, 14696.00
423.7920, 14053.00
424.9850, 13558.00
426.1770, 13157.00
427.3700, 12626.00
428.5620, 12344.00
429.7540, 11930.00
430.9460, 11648.00
432.1380, 11558.00
433.3290, 11419.00
434.5210, 11420.00
435.7120, 11406.00
436.9030, 11515.00
438.0940, 11429.00
439.2850, 11433.00
440.4750, 11555.00
441.6660, 11461.00
442.8560, 11586.00
444.0460, 11748.00
445.2360, 11818.00
446.4260, 11905.00
447.6160, 12263.00
448.8050, 12318.00
449.9940, 12545.00
451.1830, 12837.00
452.3720, 13098.00
453.5610, 13467.29
454.7500, 13845.00
455.9380, 14323.00
457.1260, 14802.25
458.3150, 15086.00
459.5020, 15815.00
460.6900, 16459.00
461.8780, 16865.00
463.0650, 17796.00
464.2530, 18882.00
465.4400, 19673.09
466.6270, 20808.00
467.8130, 21710.00
469.0000, 22907.00
470.1870, 23996.00
471.3730, 25382.00
472.5590, 26688.00
473.7450, 28303.00
474.9310, 29827.00
476.1160, 31917.00
477.3020, 33961.00
478.4870, 35939.00
479.6720, 38044.00
480.8570, 40304.65
482.0420, 42487.00
483.2270, 44904.00
484.4110, 47291.00
485.5960, 49503.00
486.7800, 51768.00
487.9640, 53883.00
489.1480, 56070.00
490.3310, 57313.00
491.5150, 58683.00
492.6980, 59758.00
493.8810, 59762.00
495.0640, 60222.00
496.2470, 59540.00
497.4300, 58685.00
498.6120, 57475.00
499.7950, 55795.00
500.9770, 53424.00
502.1590, 50687.00
503.3410, 48083.00
504.5220, 45186.00
505.7040, 41902.00
506.8850, 38538.00
508.0660, 35578.00
509.2470, 32576.00
510.4280, 29554.00
511.6090, 27219.00
512.7890, 24452.00
513.9700, 22624.00
515.1500, 20597.00
516.3300, 18904.00
517.5100, 17132.00
518.6900, 16054.00
519.8690, 14707.00
521.0490, 13618.00
522.2280, 12886.00
523.4070, 12062.00
524.5860, 11311.00
525.7640, 10763.00
526.9430, 10137.00
528.1210, 9655.000
529.3000, 9303.000
530.4780, 8859.000
531.6560, 8566.000
532.8330, 8337.000
534.0110, 7963.000
535.1880, 7864.000
536.3650, 7594.000
537.5430, 7277.000
538.7190, 7187.000
539.8960, 6945.000
541.0730, 6885.000
542.2490, 6669.000
543.4250, 6622.000
544.6020, 6347.000
545.7780, 6407.000
546.9530, 6295.000
548.1290, 6190.000
549.3040, 5934.000
550.4800, 5955.000
551.6550, 5884.000
552.8300, 5739.000
554.0040, 5697.000
555.1790, 5632.000
556.3540, 5567.649
557.5280, 5625.000
558.7020, 5514.000
559.8760, 5484.589
561.0500, 5521.000
562.2230, 5326.000
563.3970, 5353.000
564.5700, 5277.000
565.7430, 5327.000
566.9160, 5202.000
568.0890, 5172.000
569.2620, 5075.000
570.4340, 5089.000
571.6070, 5183.000
572.7790, 5079.000
573.9510, 5148.000
575.1230, 5075.000
576.2940, 5167.000
577.4660, 5134.000
578.6370, 5161.000
579.8080, 5135.000
580.9790, 5043.000
582.1500, 5034.000
583.3210, 5078.000
584.4910, 5018.000
585.6620, 5145.000
586.8320, 5052.000
588.0020, 5090.000
589.1720, 4973.000
590.3410, 4979.000
591.5110, 4883.000
592.6800, 4996.000
593.8500, 4927.000
595.0190, 4974.000
596.1880, 4934.000
597.3560, 4961.000
598.5250, 4937.000
599.6930, 4841.000
600.8620, 4878.000
602.0300, 4854.367
603.1970, 4834.000
604.3650, 4858.000
605.5330, 4837.110
606.7000, 4813.680
607.8680, 4829.000
609.0350, 4773.000
610.2020, 4761.907
611.3680, 4790.000
612.5350, 4755.000
613.7010, 4783.000
614.8680, 4815.000
616.0340, 4768.000
617.2000, 4725.000
618.3660, 4670.000
619.5310, 4702.000
620.6970, 4539.000
621.8620, 4633.000
623.0270, 4573.000
624.1920, 4558.000
625.3570, 4568.000
626.5220, 4621.000
627.6860, 4678.000
628.8500, 4588.000
630.0140, 4557.000
631.1780, 4572.000
632.3420, 4617.000
633.5060, 4655.000
634.6700, 4697.000
635.8330, 4713.000
636.9960, 4751.235
638.1590, 4669.000
639.3220, 4799.000
640.4850, 4841.000
641.6470, 4842.000
642.8100, 4976.000
643.9720, 4958.000
645.1340, 5032.000
646.2960, 5029.000
647.4570, 5111.000
648.6190, 5121.000
649.7800, 5108.000
650.9420, 5071.000
652.1030, 5181.000
653.2640, 5060.000
654.4240, 5105.000
655.5850, 5058.000
656.7450, 5033.000
657.9060, 4997.000
659.0660, 4875.000
660.2260, 4804.000
661.3850, 4754.469
662.5450, 4665.000
663.7040, 4641.000
664.8640, 4590.000
666.0230, 4505.000
667.1820, 4448.000
668.3410, 4411.000
669.4990, 4256.000
670.6580, 4231.000
671.8160, 4150.000
672.9740, 4256.000
674.1320, 4088.000
675.2900, 4122.000
676.4480, 4006.000
677.6050, 3993.000
678.7630, 4013.000
679.9200, 3942.000
681.0770, 3880.000
682.2340, 3935.000
683.3900, 3969.000
684.5470, 3871.000
685.7030, 3902.000
686.8590, 3829.000
688.0150, 3839.000
689.1710, 3823.000
690.3270, 3808.000
691.4830, 3869.000
692.6380, 3794.000
693.7930, 3852.000
694.9480, 3857.000
696.1030, 3837.000
697.2580, 3859.536
698.4130, 3862.862
699.5670, 3851.000
700.7210, 3876.000
701.8750, 3865.000
703.0290, 3839.000
704.1830, 3829.000
705.3370, 3914.000
706.4900, 3861.000
707.6430, 3982.000
708.7970, 3911.000
709.9490, 3905.000
711.1020, 3898.000
712.2550, 3855.000
713.4070, 3895.000
714.5600, 3993.000
715.7120, 3934.000
716.8640, 3941.000
718.0160, 3881.000
719.1670, 3885.282
720.3190, 3994.000
721.4700, 3909.000
722.6210, 3937.000
723.7720, 3997.000
724.9230, 3896.000
726.0740, 3966.000
727.2250, 4003.000
728.3750, 3978.000
729.5250, 4076.000
730.6750, 4058.055
731.8250, 3997.000
732.9750, 4063.000
734.1240, 3980.000
735.2740, 3952.000
736.4230, 3975.000
737.5720, 4004.000
738.7210, 3986.000
739.8700, 4007.000
741.0190, 4020.000
742.1670, 4026.000
743.3150, 4113.000
744.4630, 4072.000
745.6110, 4207.000
746.7590, 4148.000
747.9070, 4241.000
749.0540, 4346.000
750.2020, 4440.000
751.3490, 4462.000
752.4960, 4552.000
753.6430, 4667.000
754.7890, 4721.000
755.9360, 4869.000
757.0820, 4996.000
758.2280, 5069.000
759.3740, 5075.000
760.5200, 5186.000
761.6660, 5165.000
762.8120, 5185.000
763.9570, 5151.000
765.1020, 5158.000
766.2470, 5153.000
767.3920, 4989.000
768.5370, 5028.000
769.6810, 5045.000
770.8260, 4837.000
771.9700, 4771.000
773.1140, 4691.000
774.2580, 4731.000
775.4020, 4596.000
776.5460, 4525.000
777.6890, 4519.000
778.8320, 4388.000
779.9750, 4378.000
781.1180, 4311.000
782.2610, 4287.000
783.4040, 4260.000
784.5460, 4202.000
785.6890, 4230.000
786.8310, 4103.000
787.9730, 4069.000
789.1150, 3926.000
790.2560, 3939.000
791.3980, 3901.000
792.5390, 3865.000
793.6810, 3841.000
794.8220, 3794.458
795.9630, 3719.000
797.1030, 3710.000
798.2440, 3690.000
799.3840, 3652.000
800.5240, 3519.000
801.6650, 3485.000
802.8040, 3440.000
803.9440, 3418.000
805.0840, 3369.000
806.2230, 3299.000
807.3630, 3207.000
808.5020, 3251.000
809.6410, 3111.000
810.7790, 3169.000
811.9180, 3105.000
813.0570, 3107.000
814.1950, 3129.000
815.3330, 3068.000
816.4710, 3042.000
817.6090, 3090.000
818.7470, 3058.000
819.8840, 3050.000
821.0220, 3005.000
822.1590, 3022.000
823.2960, 2913.000
824.4330, 2979.000
825.5690, 2936.000
826.7060, 2972.000
827.8420, 2889.000
828.9790, 2956.000
830.1150, 2911.000
831.2510, 2848.000
832.3860, 2910.000
833.5220, 2922.000
834.6570, 2921.000
835.7930, 2919.000
836.9280, 2858.000
838.0630, 2871.000
839.1980, 2830.000
840.3320, 2847.000
841.4670, 2813.000
842.6010, 2844.000
843.7350, 2799.000
844.8690, 2821.000
846.0030, 2798.000
847.1370, 2845.000
848.2700, 2744.000
849.4040, 2788.000
850.5370, 2804.000
851.6700, 2798.000
852.8030, 2687.000
853.9360, 2724.000
855.0680, 2759.000
856.2000, 2713.427
857.3330, 2775.000
858.4650, 2712.000
859.5970, 2704.000
860.7290, 2732.000
861.8600, 2721.000
862.9920, 2714.733
864.1230, 2668.000
865.2540, 2688.000
866.3850, 2708.000
867.5160, 2696.000
868.6460, 2712.000
869.7770, 2689.000
870.9070, 2682.000
872.0370, 2668.000
873.1670, 2660.209
874.2970, 2657.000
875.4270, 2653.000
876.5570, 2636.000
877.6860, 2638.000
878.8150, 2627.000
879.9440, 2622.000
881.0730, 2619.000
882.2020, 2635.000
883.3300, 2618.000
884.4590, 2653.000
885.5870, 2642.000
886.7150, 2617.000
887.8430, 2578.000
888.9710, 2616.000
890.0990, 2588.000
891.2260, 2643.000
892.3530, 2621.000
893.4810, 2614.000
894.6080, 2534.000
895.7340, 2609.000
896.8610, 2664.000
897.9880, 2581.000
899.1140, 2667.000
900.2400, 2558.000
901.3660, 2659.000
902.4920, 2594.000
903.6180, 2592.000
904.7430, 2613.000
905.8690, 2616.000
906.9940, 2648.000
908.1190, 2620.000
909.2440, 2665.000
910.3690, 2605.000
911.4930, 2645.000
912.6180, 2630.000
913.7420, 2670.000
914.8660, 2593.000
915.9900, 2647.000
917.1140, 2640.000
918.2380, 2575.000
919.3610, 2644.000
920.4850, 2618.000
921.6080, 2645.000
922.7310, 2617.000
923.8540, 2590.000
924.9760, 2669.000
926.0990, 2673.000
927.2210, 2640.000
928.3440, 2657.000
929.4660, 2639.000
930.5880, 2643.000
931.7090, 2681.000
932.8310, 2711.000
933.9520, 2701.000
935.0740, 2700.000
936.1950, 2723.000
937.3160, 2710.000
938.4360, 2780.000
939.5570, 2686.000
940.6780, 2683.000
941.7980, 2776.000
942.9180, 2752.000
944.0380, 2723.000
945.1580, 2778.000
946.2780, 2764.000
947.3970, 2764.000
948.5170, 2804.000
949.6360, 2797.000
950.7550, 2775.000
951.8740, 2798.000
952.9930, 2798.750
954.1110, 2849.000
955.2300, 2844.000
956.3480, 2894.000
957.4660, 2951.000
958.5840, 2882.000
959.7020, 2923.000
960.8190, 3068.000
961.9370, 3051.000
963.0540, 3081.000
964.1710, 3060.000
965.2880, 3157.000
966.4050, 3252.000
967.5220, 3212.000
968.6380, 3260.000
969.7550, 3246.000
970.8710, 3331.384
971.9870, 3462.000
973.1030, 3529.000
974.2190, 3594.000
975.3340, 3700.000
976.4500, 3760.000
977.5650, 3834.792
978.6800, 3901.000
979.7950, 3949.000
980.9100, 4009.000
982.0250, 4021.000
983.1390, 4034.000
984.2530, 4029.000
985.3680, 4123.000
986.4820, 4086.000
987.5950, 4206.000
988.7090, 4201.000
989.8230, 4274.000
990.9360, 4238.000
992.0490, 4311.000
993.1620, 4327.000
994.2750, 4515.000
995.3880, 4419.000
996.5010, 4572.000
997.6130, 4580.000
998.7250, 4597.000
999.8370, 4721.000
1000.949, 4639.000
1002.061, 4753.000
1003.173, 4795.000
1004.284, 4770.000
1005.396, 4815.000
1006.507, 4895.000
1007.618, 4812.000
1008.729, 4881.000
1009.839, 4998.000
1010.950, 4957.000
1012.060, 4947.000
1013.171, 5040.000
1014.281, 5046.000
1015.391, 5036.000
1016.500, 5040.000
1017.610, 5042.000
1018.719, 5108.000
1019.829, 5010.000
1020.938, 4941.000
1022.047, 4988.000
1023.156, 4849.000
1024.264, 4872.000
1025.373, 4853.000
1026.481, 4839.000
1027.589, 4825.000
1028.697, 4809.303
1029.805, 4753.000
1030.913, 4767.000
1032.020, 4726.000
1033.128, 4673.000
1034.235, 4605.000
1035.342, 4604.000
1036.449, 4578.000
1037.556, 4502.000
1038.663, 4452.000
1039.769, 4490.000
1040.875, 4437.000
1041.981, 4378.000
1043.087, 4430.000
1044.193, 4386.000
1045.299, 4383.000
1046.404, 4454.000
1047.510, 4368.000
1048.615, 4429.000
1049.720, 4425.000
1050.825, 4425.000
1051.930, 4363.000
1053.034, 4418.633
1054.139, 4455.000
1055.243, 4485.000
1056.347, 4604.000
1057.451, 4610.000
1058.555, 4640.000
1059.658, 4787.000
1060.762, 4829.000
1061.865, 5000.000
1062.968, 5051.000
1064.071, 5168.000
1065.174, 5229.000
1066.277, 5362.000
1067.380, 5547.000
1068.482, 5759.000
1069.584, 5894.000
1070.686, 6005.000
1071.788, 6188.000
1072.890, 6269.000
1073.992, 6412.000
1075.093, 6636.000
1076.194, 6763.000
1077.295, 6851.000
1078.396, 6955.000
1079.497, 7232.000
1080.598, 7323.000
1081.698, 7437.000
1082.799, 7697.000
1083.899, 7856.000
1084.999, 7905.000
1086.099, 8023.000
1087.199, 8181.000
1088.298, 8300.000
1089.398, 8381.000
1090.497, 8523.477
1091.596, 8631.348
1092.695, 8789.000
1093.794, 8880.000
1094.892, 9072.000
1095.991, 9215.000
1097.089, 9221.000
1098.187, 9218.000
1099.285, 9162.000
1100.383, 9233.822
1101.481, 9435.000
1102.579, 9373.000
1103.676, 9369.000
1104.773, 9480.000
1105.870, 9464.000
1106.967, 9423.000
1108.064, 9370.000
1109.161, 9328.577
1110.257, 9299.969
1111.353, 9255.000
1112.449, 9201.000
1113.545, 9239.000
1114.641, 9091.000
1115.737, 9226.000
1116.832, 9015.000
1117.928, 9110.000
1119.023, 9021.000
1120.118, 8937.000
1121.213, 8826.000
1122.308, 8778.000
1123.402, 8662.000
1124.497, 8490.000
1125.591, 8256.000
1126.685, 8169.000
1127.779, 7842.000
1128.873, 7890.000
1129.967, 7784.000
1131.060, 7566.000
1132.153, 7453.000
1133.247, 7324.000
1134.340, 7190.000
1135.433, 7113.000
1136.525, 7048.000
1137.618, 6926.000
1138.710, 6744.000
1139.802, 6665.000
1140.895, 6419.000
1141.987, 6462.000
1143.078, 6227.000
1144.170, 6095.000
1145.261, 6053.000
1146.353, 5851.000
1147.444, 5810.000
1148.535, 5668.000
1149.626, 5531.000
1150.716, 5364.000
1151.807, 5355.000
1152.897, 5142.000
1153.988, 5159.000
1155.078, 4999.000
1156.168, 5014.000
1157.257, 4767.000
1158.347, 4710.000
1159.436, 4564.000
1160.526, 4493.000
1161.615, 4400.000
1162.704, 4372.000
1163.793, 4250.000
1164.881, 4260.000
1165.970, 4051.000
1167.058, 3981.000
1168.147, 3922.000
1169.235, 3822.000
1170.323, 3758.000
1171.410, 3690.000
1172.498, 3609.000
1173.585, 3600.000
1174.673, 3547.000
1175.760, 3508.003
1176.847, 3396.000
1177.934, 3416.000
1179.020, 3343.000
1180.107, 3247.000
1181.193, 3265.000
1182.279, 3134.000
1183.365, 3161.000
1184.451, 3059.000
1185.537, 3088.000
1186.623, 3053.000
1187.708, 2945.000
1188.793, 2979.000
1189.878, 2961.000
1190.963, 2884.000
1192.048, 2909.000
1193.133, 2866.000
1194.217, 2849.000
1195.302, 2842.000
1196.386, 2749.745
1197.470, 2820.880
1198.554, 2857.397
1199.638, 2861.155
1200.721, 2734.048
1201.805, 2775.927
1202.888, 2750.090
1203.971, 2721.475
1205.054, 2787.148
1206.137, 2679.076
1207.219, 2743.260
1208.302, 2738.679
1209.384, 2653.000
1210.466, 2579.000
1211.548, 2626.000
1212.630, 2683.000
1213.712, 2645.000
1214.794, 2658.000
1215.875, 2610.000
1216.956, 2642.000
1218.037, 2623.000
1219.118, 2618.000
1220.199, 2619.000
1221.280, 2592.231
1222.360, 2597.000
1223.441, 2569.000
1224.521, 2575.000
1225.601, 2613.000
1226.681, 2590.000
1227.760, 2610.568
1228.840, 2565.000
1229.919, 2618.000
1230.999, 2601.000
1232.078, 2591.000
1233.157, 2555.000
1234.236, 2565.000
1235.314, 2557.000
1236.393, 2577.000
1237.471, 2621.000
1238.549, 2563.000
1239.627, 2578.000
1240.705, 2469.000
1241.783, 2552.000
1242.860, 2523.000
1243.938, 2495.000
1245.015, 2563.000
1246.092, 2537.000
1247.169, 2470.000
1248.246, 2521.000
1249.323, 2547.000
1250.399, 2528.000
1251.475, 2499.000
1252.552, 2528.000
1253.628, 2531.000
1254.703, 2553.000
1255.779, 2549.637
1256.855, 2489.000
1257.930, 2541.000
1259.005, 2511.000
1260.080, 2511.000
1261.155, 2531.000
1262.230, 2522.000
1263.305, 2533.000
1264.379, 2539.000
1265.454, 2550.682
1266.528, 2528.000
1267.602, 2568.000
1268.676, 2588.000
1269.750, 2563.000
1270.823, 2535.000
1271.897, 2551.000
1272.970, 2535.062
1274.043, 2540.000
1275.116, 2541.000
1276.189, 2578.000
1277.261, 2593.000
1278.334, 2540.000
1279.406, 2640.000
1280.478, 2573.000
1281.550, 2611.000
1282.622, 2620.000
1283.694, 2568.000
1284.766, 2616.000
1285.837, 2620.000
1286.908, 2541.000
1287.979, 2640.000
1289.050, 2652.000
1290.121, 2605.000
1291.192, 2604.000
1292.262, 2649.000
1293.333, 2657.000
1294.403, 2616.000
1295.473, 2670.000
1296.543, 2647.000
1297.613, 2718.000
1298.682, 2740.000
1299.752, 2710.000
1300.821, 2702.000
1301.890, 2663.000
1302.959, 2665.605
1304.028, 2706.000
1305.096, 2672.000
1306.165, 2699.000
1307.233, 2719.000
1308.301, 2688.000
1309.370, 2755.000
1310.437, 2747.000
1311.505, 2700.000
1312.573, 2748.000
1313.640, 2790.000
1314.708, 2661.000
1315.775, 2742.000
1316.842, 2757.000
1317.908, 2798.000
1318.975, 2735.000
1320.042, 2755.000
1321.108, 2766.000
1322.174, 2692.000
1323.240, 2669.000
1324.306, 2673.000
1325.372, 2698.000
1326.438, 2655.000
1327.503, 2726.000
1328.568, 2712.000
1329.634, 2699.000
1330.699, 2676.000
1331.763, 2674.921
1332.828, 2669.000
1333.893, 2668.000
1334.957, 2626.000
1336.021, 2617.000
1337.085, 2610.000
1338.149, 2635.000
1339.213, 2635.000
1340.277, 2594.000
1341.340, 2607.000
1342.404, 2556.000
1343.467, 2574.000
1344.530, 2573.000
1345.593, 2504.000
1346.655, 2605.000
1347.718, 2526.000
1348.780, 2566.000
1349.843, 2515.000
1350.905, 2504.000
1351.967, 2569.000
1353.028, 2537.000
1354.090, 2563.000
1355.152, 2489.000
1356.213, 2528.000
1357.274, 2480.000
1358.335, 2439.000
1359.396, 2467.000
1360.457, 2505.000
1361.517, 2498.000
1362.578, 2447.000
1363.638, 2365.000
1364.698, 2460.000
1365.758, 2494.000
1366.818, 2427.000
1367.878, 2409.000
1368.937, 2446.000
1369.997, 2489.000
1371.056, 2442.000
1372.115, 2412.000
1373.174, 2432.000
1374.232, 2439.000
1375.291, 2403.000
1376.350, 2362.000
1377.408, 2365.000
1378.466, 2411.000
1379.524, 2457.000
1380.582, 2467.000
1381.640, 2485.404
1382.697, 2430.000
1383.754, 2482.000
1384.812, 2422.000
1385.869, 2401.000
1386.926, 2439.000
1387.983, 2401.000
1389.039, 2442.000
1390.096, 2425.000
1391.152, 2372.000
1392.208, 2435.000
1393.264, 2397.000
1394.320, 2366.000
1395.376, 2448.000
1396.431, 2357.000
1397.487, 2406.000
1398.542, 2450.000
1399.597, 2427.000
1400.652, 2431.000
1401.707, 2413.000
1402.762, 2407.663
1403.816, 2408.552
1404.871, 2396.000
1405.925, 2409.000
1406.979, 2404.000
1408.033, 2402.000
1409.086, 2400.295
1410.140, 2423.000
1411.194, 2396.000
1412.247, 2353.000
1413.300, 2365.000
1414.353, 2376.000
1415.406, 2437.000
1416.458, 2432.000
1417.511, 2443.000
1418.563, 2382.000
1419.616, 2405.000
1420.668, 2446.000
1421.720, 2437.000
1422.772, 2464.000
1423.823, 2449.239
1424.875, 2394.000
1425.926, 2412.000
1426.977, 2379.823
1428.028, 2361.000
1429.079, 2371.000
1430.130, 2397.000
1431.180, 2398.000
1432.231, 2432.000
1433.281, 2391.000
1434.331, 2434.000
1435.381, 2455.000
1436.431, 2386.000
1437.481, 2427.000
1438.530, 2381.000
1439.580, 2420.000
1440.629, 2421.000
1441.678, 2416.000
1442.727, 2434.000
1443.776, 2425.493
1444.824, 2400.000
1445.873, 2422.000
1446.921, 2417.000
1447.969, 2418.000
1449.017, 2491.000
1450.065, 2412.000
1451.113, 2469.000
1452.160, 2430.000
1453.208, 2412.000
1454.255, 2376.000
1455.302, 2371.000
1456.349, 2377.000
1457.396, 2404.000
1458.443, 2490.000
1459.489, 2491.000
1460.535, 2428.000
1461.582, 2416.000
1462.628, 2612.262
1463.674, 2486.601
1464.719, 2508.045
1465.765, 2400.000
1466.810, 2435.000
1467.856, 2410.000
1468.901, 2435.000
1469.946, 2407.000
1470.991, 2422.263
1472.035, 2405.000
1473.080, 2434.000
1474.124, 2427.000
1475.169, 2409.000
1476.213, 2396.000
1477.257, 2411.000
1478.300, 2392.497
1479.344, 2377.000
1480.388, 2388.000
1481.431, 2371.000
1482.474, 2389.000
1483.517, 2389.000
1484.560, 2447.000
1485.603, 2406.000
1486.645, 2400.000
1487.688, 2435.000
1488.730, 2353.000
1489.772, 2398.000
1490.814, 2398.000
1491.856, 2373.000
1492.898, 2418.000
1493.939, 2392.000
1494.981, 2457.000
1496.022, 2446.000
1497.063, 2419.000
1498.104, 2400.000
1499.145, 2417.000
1500.186, 2476.000
1501.226, 2369.000
1502.266, 2440.000
1503.307, 2417.000
1504.347, 2374.000
1505.387, 2357.000
1506.426, 2465.000
1507.466, 2398.000
1508.505, 2511.000
1509.545, 2423.000
1510.584, 2414.000
1511.623, 2429.000
1512.662, 2443.000
1513.700, 2421.000
1514.739, 2456.000
1515.777, 2478.000
1516.815, 2425.000
1517.854, 2497.000
1518.892, 2465.000
1519.929, 2470.000
1520.967, 2476.000
1522.004, 2447.000
1523.042, 2471.000
1524.079, 2661.000
1525.116, 2547.683
1526.153, 2684.000
1527.190, 2473.000
1528.226, 2472.000
1529.263, 2500.000
1530.299, 2450.000
1531.335, 2526.000
1532.371, 2522.000
1533.407, 2456.000
1534.443, 2471.000
1535.478, 2476.000
1536.514, 2492.000
1537.549, 2518.000
1538.584, 2491.000
1539.619, 2492.000
1540.654, 2545.000
1541.689, 2572.000
1542.723, 2522.000
1543.757, 2546.000
1544.792, 2514.000
1545.826, 2485.000
1546.860, 2618.000
1547.893, 2524.000
1548.927, 2577.000
1549.960, 2572.000
1550.994, 2561.000
1552.027, 2600.000
1553.060, 2667.000
1554.093, 2686.000
1555.126, 2591.000
1556.158, 2627.000
1557.191, 2590.000
1558.223, 2586.000
1559.255, 2593.000
1560.287, 2599.000
1561.319, 2575.000
1562.350, 2618.000
##END=



