##NAMES=Gmelinite-Na
##RRUFFID=R050371
##IDEAL CHEMISTRY=Na_4_(Si_8_Al_4_)O_24_&#183;11H_2_O
##LOCALITY=Cairns Bay, Flinders Range, Australia
##OWNER=RRUFF
##SOURCE=Eugene Schlepp
##DESCRIPTION=Colorless to pink crystals lining a basalt vug
##STATUS=The identification of this mineral has been confirmed by X-ray diffraction and chemical analysis
##URL=rruff.info/R050371
##MEASURED CHEMISTRY=Na_3.81_(Si_8.13_Al_3.88_)O_24_Â·4.27H_2_O
##PIN_ID=L01937
##ORIENTATION=Laser parallel to -c* (0 0 -1). Fiducial mark perpendicular to laser is parallel to a [1 0 0]
246.6460, 10780.00
247.8630, 10679.00
249.0810, 10808.00
250.2980, 10704.00
251.5140, 10718.00
252.7310, 10703.00
253.9470, 10727.02
255.1640, 10751.00
256.3800, 10857.00
257.5960, 10976.00
258.8120, 11094.00
260.0270, 11004.38
261.2430, 11057.00
262.4580, 10823.00
263.6730, 10784.00
264.8880, 10791.00
266.1030, 10769.00
267.3170, 10782.00
268.5320, 10681.00
269.7460, 10626.00
270.9600, 10536.00
272.1740, 10629.00
273.3880, 10677.00
274.6010, 10480.00
275.8150, 10598.00
277.0280, 10567.00
278.2410, 10852.00
279.4540, 10743.00
280.6670, 10820.00
281.8790, 10683.00
283.0920, 10814.00
284.3040, 11016.00
285.5160, 10867.00
286.7280, 10949.00
287.9400, 11215.00
289.1510, 11275.00
290.3630, 11393.00
291.5740, 11329.00
292.7850, 11457.00
293.9960, 11676.00
295.2070, 11786.00
296.4170, 12059.00
297.6280, 12146.00
298.8380, 12356.00
300.0480, 12463.00
301.2580, 12745.00
302.4680, 12781.00
303.6770, 13070.00
304.8870, 13368.00
306.0960, 13591.00
307.3050, 14017.00
308.5140, 14442.00
309.7230, 14768.00
310.9310, 15445.00
312.1400, 15967.00
313.3480, 16539.00
314.5560, 16957.00
315.7640, 17707.00
316.9720, 18258.00
318.1790, 18605.00
319.3870, 19100.00
320.5940, 19530.00
321.8010, 19866.00
323.0080, 19813.00
324.2150, 19622.00
325.4210, 19411.00
326.6280, 19047.00
327.8340, 18649.00
329.0400, 18287.00
330.2460, 17656.00
331.4510, 17139.00
332.6570, 16570.00
333.8620, 15931.00
335.0680, 15401.00
336.2730, 14908.05
337.4780, 14494.00
338.6820, 14055.00
339.8870, 13669.00
341.0910, 13381.00
342.2950, 13022.00
343.5000, 12873.00
344.7030, 12548.00
345.9070, 12419.00
347.1110, 12234.00
348.3140, 12038.00
349.5170, 12000.00
350.7200, 11869.00
351.9230, 11783.00
353.1260, 11758.00
354.3290, 11540.00
355.5310, 11573.00
356.7330, 11529.00
357.9350, 11448.00
359.1370, 11445.00
360.3390, 11454.00
361.5400, 11551.00
362.7420, 11506.00
363.9430, 11477.00
365.1440, 11633.00
366.3450, 11474.00
367.5460, 11619.00
368.7460, 11855.00
369.9470, 11657.00
371.1470, 12007.00
372.3470, 12034.00
373.5470, 12205.00
374.7460, 12317.61
375.9460, 12379.16
377.1450, 12454.00
378.3450, 12565.00
379.5440, 12633.00
380.7430, 12806.00
381.9410, 13114.00
383.1400, 13123.00
384.3380, 13238.00
385.5370, 13648.00
386.7350, 13670.00
387.9320, 13953.00
389.1300, 14165.00
390.3280, 14565.00
391.5250, 14700.00
392.7220, 15046.00
393.9190, 15467.00
395.1160, 15969.00
396.3130, 16470.00
397.5100, 16941.00
398.7060, 17656.00
399.9020, 18307.00
401.0980, 19281.00
402.2940, 19926.00
403.4900, 20980.00
404.6860, 21817.00
405.8810, 22650.00
407.0760, 23644.00
408.2710, 24282.00
409.4660, 24742.00
410.6610, 24869.36
411.8550, 24812.00
413.0500, 24361.00
414.2440, 23850.00
415.4380, 22996.00
416.6320, 22255.00
417.8260, 21452.00
419.0190, 20533.00
420.2130, 19285.00
421.4060, 18705.00
422.5990, 17966.00
423.7920, 17186.00
424.9850, 16577.00
426.1770, 16266.00
427.3700, 15936.00
428.5620, 15643.00
429.7540, 15305.00
430.9460, 14982.00
432.1380, 15174.00
433.3290, 14808.00
434.5210, 14893.00
435.7120, 14798.00
436.9030, 14819.00
438.0940, 14797.00
439.2850, 14849.14
440.4750, 15001.00
441.6660, 15108.00
442.8560, 15198.00
444.0460, 15545.00
445.2360, 15552.00
446.4260, 15833.00
447.6160, 15871.00
448.8050, 15937.00
449.9940, 16219.00
451.1830, 16708.00
452.3720, 16694.00
453.5610, 17183.00
454.7500, 17345.00
455.9380, 17608.00
457.1260, 18081.00
458.3150, 18289.00
459.5020, 18909.00
460.6900, 19506.00
461.8780, 19943.00
463.0650, 20503.00
464.2530, 21221.00
465.4400, 22059.00
466.6270, 22738.00
467.8130, 23692.00
469.0000, 24611.00
470.1870, 25354.00
471.3730, 26698.00
472.5590, 27676.00
473.7450, 29085.00
474.9310, 30317.00
476.1160, 31665.00
477.3020, 33190.92
478.4870, 34923.00
479.6720, 36482.00
480.8570, 38227.00
482.0420, 40027.05
483.2270, 41845.48
484.4110, 43783.00
485.5960, 45739.00
486.7800, 47782.00
487.9640, 49897.00
489.1480, 51542.00
490.3310, 52949.00
491.5150, 54241.00
492.6980, 55184.00
493.8810, 55807.00
495.0640, 56175.00
496.2470, 56144.00
497.4300, 55692.00
498.6120, 54569.00
499.7950, 53271.00
500.9770, 51847.00
502.1590, 49798.00
503.3410, 47595.00
504.5220, 45074.00
505.7040, 42531.00
506.8850, 39795.00
508.0660, 37193.00
509.2470, 34250.00
510.4280, 31792.00
511.6090, 29629.00
512.7890, 27330.00
513.9700, 25450.00
515.1500, 23559.00
516.3300, 22273.00
517.5100, 20704.00
518.6900, 19598.00
519.8690, 18344.00
521.0490, 17472.00
522.2280, 16793.00
523.4070, 15886.00
524.5860, 15232.00
525.7640, 14881.00
526.9430, 14412.00
528.1210, 13787.00
529.3000, 13471.00
530.4780, 13250.00
531.6560, 12821.00
532.8330, 12554.00
534.0110, 12331.00
535.1880, 12038.00
536.3650, 11846.00
537.5430, 11808.00
538.7190, 11505.00
539.8960, 11453.00
541.0730, 11342.00
542.2490, 11099.00
543.4250, 11078.00
544.6020, 11018.00
545.7780, 10889.00
546.9530, 10712.00
548.1290, 10731.00
549.3040, 10606.00
550.4800, 10518.00
551.6550, 10516.00
552.8300, 10507.00
554.0040, 10346.00
555.1790, 10349.00
556.3540, 10208.00
557.5280, 10345.00
558.7020, 10144.00
559.8760, 10198.00
561.0500, 10121.00
562.2230, 10012.00
563.3970, 9883.000
564.5700, 10086.00
565.7430, 9793.000
566.9160, 10035.00
568.0890, 9889.000
569.2620, 9974.000
570.4340, 9953.000
571.6070, 9917.000
572.7790, 9917.000
573.9510, 9893.000
575.1230, 9882.000
576.2940, 9930.000
577.4660, 10053.00
578.6370, 9758.000
579.8080, 9937.000
580.9790, 9812.000
582.1500, 9872.000
583.3210, 9910.000
584.4910, 9880.000
585.6620, 9925.000
586.8320, 9867.000
588.0020, 9973.000
589.1720, 9818.000
590.3410, 9909.000
591.5110, 9819.000
592.6800, 9903.000
593.8500, 9795.000
595.0190, 9917.000
596.1880, 9971.000
597.3560, 9906.000
598.5250, 9925.000
599.6930, 9823.000
600.8620, 9819.000
602.0300, 9830.101
603.1970, 9855.000
604.3650, 9878.000
605.5330, 9934.000
606.7000, 9972.000
607.8680, 9946.209
609.0350, 9847.000
610.2020, 9885.000
611.3680, 9859.000
612.5350, 9834.000
613.7010, 9888.000
614.8680, 9838.000
616.0340, 9862.000
617.2000, 9700.000
618.3660, 9806.000
619.5310, 9692.000
620.6970, 9661.000
621.8620, 9651.000
623.0270, 9661.000
624.1920, 9746.000
625.3570, 9739.000
626.5220, 9603.000
627.6860, 9660.000
628.8500, 9538.000
630.0140, 9698.000
631.1780, 9723.000
632.3420, 9776.000
633.5060, 9790.000
634.6700, 9859.000
635.8330, 9851.000
636.9960, 9892.168
638.1590, 9902.000
639.3220, 9954.000
640.4850, 9967.597
641.6470, 10012.00
642.8100, 10023.00
643.9720, 10127.00
645.1340, 10146.00
646.2960, 10205.00
647.4570, 10206.00
648.6190, 10328.00
649.7800, 10322.00
650.9420, 10333.00
652.1030, 10288.00
653.2640, 10250.00
654.4240, 10207.00
655.5850, 10154.95
656.7450, 10124.77
657.9060, 10065.00
659.0660, 10049.00
660.2260, 10043.00
661.3850, 9989.000
662.5450, 9995.000
663.7040, 9885.000
664.8640, 9890.000
666.0230, 9776.000
667.1820, 9739.073
668.3410, 9747.000
669.4990, 9638.000
670.6580, 9622.000
671.8160, 9563.000
672.9740, 9556.000
674.1320, 9540.175
675.2900, 9507.000
676.4480, 9558.000
677.6050, 9441.000
678.7630, 9502.000
679.9200, 9337.000
681.0770, 9468.000
682.2340, 9370.000
683.3900, 9289.000
684.5470, 9436.000
685.7030, 9347.000
686.8590, 9402.000
688.0150, 9420.000
689.1710, 9371.000
690.3270, 9436.000
691.4830, 9290.000
692.6380, 9405.000
693.7930, 9324.000
694.9480, 9407.000
696.1030, 9388.000
697.2580, 9362.000
698.4130, 9458.000
699.5670, 9517.000
700.7210, 9563.000
701.8750, 9640.000
703.0290, 9572.371
704.1830, 9446.000
705.3370, 9448.000
706.4900, 9419.000
707.6430, 9415.000
708.7970, 9450.448
709.9490, 9502.563
711.1020, 9545.000
712.2550, 9604.000
713.4070, 9673.000
714.5600, 9588.000
715.7120, 9596.000
716.8640, 9540.000
718.0160, 9579.000
719.1670, 9713.000
720.3190, 9745.000
721.4700, 9737.488
722.6210, 9720.000
723.7720, 9653.000
724.9230, 9684.000
726.0740, 9601.000
727.2250, 9704.000
728.3750, 9652.000
729.5250, 9764.000
730.6750, 9691.000
731.8250, 9650.000
732.9750, 9750.000
734.1240, 9752.000
735.2740, 9660.000
736.4230, 9801.000
737.5720, 9733.000
738.7210, 9867.000
739.8700, 9713.000
741.0190, 9835.000
742.1670, 9717.000
743.3150, 9787.000
744.4630, 9797.000
745.6110, 10006.00
746.7590, 10085.00
747.9070, 10006.00
749.0540, 10113.00
750.2020, 10033.00
751.3490, 10179.00
752.4960, 10382.00
753.6430, 10379.00
754.7890, 10509.00
755.9360, 10599.00
757.0820, 10708.00
758.2280, 10754.00
759.3740, 10842.91
760.5200, 10860.00
761.6660, 10955.00
762.8120, 10919.00
763.9570, 10909.00
765.1020, 10974.00
766.2470, 10969.00
767.3920, 10939.00
768.5370, 10885.00
769.6810, 10958.00
770.8260, 10834.00
771.9700, 10839.00
773.1140, 10728.00
774.2580, 10688.54
775.4020, 10626.98
776.5460, 10582.00
777.6890, 10533.00
778.8320, 10477.15
779.9750, 10414.61
781.1180, 10365.00
782.2610, 10294.00
783.4040, 10224.00
784.5460, 10197.00
785.6890, 10195.00
786.8310, 10233.00
787.9730, 10219.00
789.1150, 10218.00
790.2560, 10145.00
791.3980, 10089.00
792.5390, 10039.83
793.6810, 9997.000
794.8220, 9912.000
795.9630, 9850.000
797.1030, 9786.000
798.2440, 9978.000
799.3840, 9809.000
800.5240, 9799.000
801.6650, 9751.000
802.8040, 9668.000
803.9440, 9605.000
805.0840, 9664.000
806.2230, 9649.000
807.3630, 9414.000
808.5020, 9494.000
809.6410, 9616.000
810.7790, 9375.000
811.9180, 9526.000
813.0570, 9428.000
814.1950, 9299.000
815.3330, 9499.000
816.4710, 9373.000
817.6090, 9370.000
818.7470, 9496.000
819.8840, 9312.000
821.0220, 9350.000
822.1590, 9459.000
823.2960, 9383.000
824.4330, 9357.000
825.5690, 9341.000
826.7060, 9252.000
827.8420, 9287.240
828.9790, 9451.000
830.1150, 9330.000
831.2510, 9376.000
832.3860, 9414.000
833.5220, 9303.000
834.6570, 9452.000
835.7930, 9270.000
836.9280, 9340.000
838.0630, 9383.000
839.1980, 9365.000
840.3320, 9374.000
841.4670, 9451.000
842.6010, 9278.000
843.7350, 9349.000
844.8690, 9329.000
846.0030, 9427.000
847.1370, 9421.000
848.2700, 9439.000
849.4040, 9325.000
850.5370, 9314.000
851.6700, 9345.000
852.8030, 9429.000
853.9360, 9450.000
855.0680, 9476.569
856.2000, 9461.000
857.3330, 9486.000
858.4650, 9471.913
859.5970, 9436.000
860.7290, 9469.000
861.8600, 9378.000
862.9920, 9360.000
864.1230, 9482.000
865.2540, 9391.000
866.3850, 9368.000
867.5160, 9427.000
868.6460, 9419.000
869.7770, 9308.000
870.9070, 9359.000
872.0370, 9382.000
873.1670, 9335.000
874.2970, 9432.000
875.4270, 9424.000
876.5570, 9493.000
877.6860, 9383.000
878.8150, 9464.000
879.9440, 9395.000
881.0730, 9507.000
882.2020, 9378.000
883.3300, 9396.000
884.4590, 9408.000
885.5870, 9373.105
886.7150, 9355.000
887.8430, 9386.000
888.9710, 9429.000
890.0990, 9444.000
891.2260, 9476.668
892.3530, 9495.437
893.4810, 9467.000
894.6080, 9523.000
895.7340, 9393.000
896.8610, 9383.000
897.9880, 9538.000
899.1140, 9445.000
900.2400, 9522.000
901.3660, 9522.000
902.4920, 9614.000
903.6180, 9547.000
904.7430, 9547.000
905.8690, 9562.000
906.9940, 9594.000
908.1190, 9485.000
909.2440, 9613.000
910.3690, 9552.000
911.4930, 9527.000
912.6180, 9578.000
913.7420, 9545.754
914.8660, 9608.000
915.9900, 9582.000
917.1140, 9673.000
918.2380, 9746.000
919.3610, 9712.000
920.4850, 9697.000
921.6080, 9624.000
922.7310, 9683.000
923.8540, 9653.916
924.9760, 9673.000
926.0990, 9682.000
927.2210, 9753.000
928.3440, 9807.000
929.4660, 9677.000
930.5880, 9840.000
931.7090, 9700.000
932.8310, 9725.000
933.9520, 9762.000
935.0740, 9818.000
936.1950, 9833.000
937.3160, 9849.901
938.4360, 9865.505
939.5570, 9871.000
940.6780, 9846.000
941.7980, 9886.000
942.9180, 9826.000
944.0380, 9774.000
945.1580, 9923.000
946.2780, 9956.000
947.3970, 10101.00
948.5170, 9967.000
949.6360, 9969.000
950.7550, 9945.000
951.8740, 10060.00
952.9930, 10148.00
954.1110, 10067.00
955.2300, 10226.00
956.3480, 10129.00
957.4660, 10181.00
958.5840, 10192.00
959.7020, 10240.00
960.8190, 10233.00
961.9370, 10133.00
963.0540, 10266.00
964.1710, 10331.00
965.2880, 10273.00
966.4050, 10511.00
967.5220, 10578.00
968.6380, 10548.00
969.7550, 10581.00
970.8710, 10527.00
971.9870, 10785.00
973.1030, 10676.00
974.2190, 10829.00
975.3340, 10952.00
976.4500, 11006.00
977.5650, 10941.00
978.6800, 11105.00
979.7950, 11179.00
980.9100, 11177.00
982.0250, 11299.00
983.1390, 11232.00
984.2530, 11456.00
985.3680, 11452.00
986.4820, 11441.00
987.5950, 11503.00
988.7090, 11575.00
989.8230, 11581.83
990.9360, 11633.29
992.0490, 11641.00
993.1620, 11694.00
994.2750, 11733.00
995.3880, 11774.00
996.5010, 11782.00
997.6130, 11891.00
998.7250, 11803.00
999.8370, 11972.00
1000.949, 12024.00
1002.061, 12014.00
1003.173, 11946.00
1004.284, 12194.00
1005.396, 12073.00
1006.507, 12098.00
1007.618, 12251.00
1008.729, 12417.00
1009.839, 12242.00
1010.950, 12291.00
1012.060, 12360.00
1013.171, 12253.00
1014.281, 12359.00
1015.391, 12524.00
1016.500, 12408.00
1017.610, 12386.00
1018.719, 12436.00
1019.829, 12396.00
1020.938, 12382.00
1022.047, 12413.00
1023.156, 12560.00
1024.264, 12456.00
1025.373, 12400.00
1026.481, 12295.00
1027.589, 12205.00
1028.697, 12315.00
1029.805, 12294.00
1030.913, 12356.00
1032.020, 12328.00
1033.128, 12307.00
1034.235, 12116.00
1035.342, 12160.00
1036.449, 12164.00
1037.556, 12039.00
1038.663, 12100.00
1039.769, 12037.00
1040.875, 12022.00
1041.981, 12175.00
1043.087, 12067.00
1044.193, 11937.00
1045.299, 12115.00
1046.404, 11997.00
1047.510, 11895.00
1048.615, 11919.00
1049.720, 11945.00
1050.825, 12000.00
1051.930, 12038.00
1053.034, 12068.00
1054.139, 12145.00
1055.243, 12099.00
1056.347, 12241.00
1057.451, 12209.00
1058.555, 12359.00
1059.658, 12261.00
1060.762, 12430.00
1061.865, 12564.00
1062.968, 12534.00
1064.071, 12689.00
1065.174, 12888.00
1066.277, 12908.00
1067.380, 13077.00
1068.482, 13060.00
1069.584, 13934.04
1070.686, 13645.51
1071.788, 13835.13
1072.890, 13634.00
1073.992, 13817.00
1075.093, 14043.00
1076.194, 14146.00
1077.295, 14235.00
1078.396, 14466.00
1079.497, 14600.00
1080.598, 14726.00
1081.698, 15081.00
1082.799, 15144.03
1083.899, 15053.00
1084.999, 15385.00
1086.099, 15437.00
1087.199, 15479.00
1088.298, 15652.00
1089.398, 15899.00
1090.497, 15980.00
1091.596, 16008.00
1092.695, 16224.00
1093.794, 16210.00
1094.892, 16475.00
1095.991, 16531.00
1097.089, 16618.00
1098.187, 16671.00
1099.285, 16657.00
1100.383, 16765.00
1101.481, 16901.00
1102.579, 16944.00
1103.676, 16744.00
1104.773, 16894.00
1105.870, 16865.00
1106.967, 16851.99
1108.064, 16886.54
1109.161, 16893.00
1110.257, 16858.00
1111.353, 16890.00
1112.449, 16866.00
1113.545, 16657.00
1114.641, 16882.00
1115.737, 16845.00
1116.832, 16586.00
1117.928, 16714.00
1119.023, 16560.00
1120.118, 16560.00
1121.213, 16558.00
1122.308, 16438.00
1123.402, 16353.00
1124.497, 16232.00
1125.591, 16117.39
1126.685, 15965.00
1127.779, 15893.00
1128.873, 15746.00
1129.967, 15665.00
1131.060, 15601.00
1132.153, 15463.00
1133.247, 15218.00
1134.340, 15289.00
1135.433, 15099.00
1136.525, 14947.00
1137.618, 14980.00
1138.710, 14723.00
1139.802, 14781.00
1140.895, 14562.00
1141.987, 14620.00
1143.078, 14289.00
1144.170, 14375.00
1145.261, 14164.00
1146.353, 14138.00
1147.444, 14040.00
1148.535, 13910.00
1149.626, 13889.00
1150.716, 13810.00
1151.807, 13743.00
1152.897, 13537.00
1153.988, 13483.00
1155.078, 13344.00
1156.168, 13246.00
1157.257, 13169.00
1158.347, 13207.00
1159.436, 13169.00
1160.526, 13198.00
1161.615, 12912.00
1162.704, 12938.00
1163.793, 12878.00
1164.881, 12721.00
1165.970, 12675.00
1167.058, 12545.00
1168.147, 12519.00
1169.235, 12529.00
1170.323, 12346.00
1171.410, 12267.00
1172.498, 12302.00
1173.585, 12298.00
1174.673, 12190.00
1175.760, 12166.00
1176.847, 11994.00
1177.934, 11974.00
1179.020, 11982.00
1180.107, 11978.00
1181.193, 11952.00
1182.279, 11882.00
1183.365, 11895.00
1184.451, 11716.00
1185.537, 11825.00
1186.623, 11625.00
1187.708, 11888.00
1188.793, 11658.00
1189.878, 11778.00
1190.963, 11640.00
1192.048, 11548.00
1193.133, 11629.00
1194.217, 11653.00
1195.302, 11645.00
1196.386, 11602.00
1197.470, 11563.00
1198.554, 11648.00
1199.638, 11736.00
1200.721, 11603.00
1201.805, 11654.00
1202.888, 11614.00
1203.971, 11620.00
1205.054, 11600.00
1206.137, 11584.88
1207.219, 11531.00
1208.302, 11550.00
1209.384, 11531.00
1210.466, 11490.00
1211.548, 11669.00
1212.630, 11679.00
1213.712, 11566.00
1214.794, 11476.00
1215.875, 11583.00
1216.956, 11578.00
1218.037, 11619.00
1219.118, 11440.00
1220.199, 11560.00
1221.280, 11521.00
1222.360, 11598.00
1223.441, 11524.00
1224.521, 11587.00
1225.601, 11527.00
1226.681, 11599.00
1227.760, 11639.00
1228.840, 11617.00
1229.919, 11700.00
1230.999, 11604.00
1232.078, 11620.00
1233.157, 11786.00
1234.236, 11609.00
1235.314, 11549.00
1236.393, 11683.00
1237.471, 11556.00
1238.549, 11644.00
1239.627, 11742.00
1240.705, 11695.00
1241.783, 11703.00
1242.860, 11765.00
1243.938, 11685.00
1245.015, 11606.00
1246.092, 11661.00
1247.169, 11726.00
1248.246, 11665.00
1249.323, 11770.00
1250.399, 11665.00
1251.475, 11698.00
1252.552, 11637.00
1253.628, 11723.00
1254.703, 11813.00
1255.779, 11805.00
1256.855, 11822.59
1257.930, 11773.00
1259.005, 11766.00
1260.080, 11751.00
1261.155, 11716.00
1262.230, 11736.79
1263.305, 11713.13
1264.379, 11755.00
1265.454, 11738.00
1266.528, 11718.00
1267.602, 11818.00
1268.676, 11815.00
1269.750, 11826.00
1270.823, 11796.00
1271.897, 11807.00
1272.970, 11841.96
1274.043, 11890.00
1275.116, 11928.00
1276.189, 11963.00
1277.261, 11998.00
1278.334, 11943.00
1279.406, 11957.00
1280.478, 11815.00
1281.550, 11935.00
1282.622, 11994.00
1283.694, 11860.00
1284.766, 12012.00
1285.837, 12062.00
1286.908, 12071.00
1287.979, 11995.00
1289.050, 12017.00
1290.121, 12086.00
1291.192, 11996.00
1292.262, 12067.00
1293.333, 12065.00
1294.403, 12118.00
1295.473, 12154.00
1296.543, 12148.00
1297.613, 12267.00
1298.682, 12197.00
1299.752, 12165.00
1300.821, 12262.00
1301.890, 12328.00
1302.959, 12265.00
1304.028, 12397.00
1305.096, 12475.00
1306.165, 12222.00
1307.233, 12292.00
1308.301, 12530.00
1309.370, 12412.00
1310.437, 12499.85
1311.505, 12356.00
1312.573, 12521.00
1313.640, 12249.00
1314.708, 12312.00
1315.775, 12270.00
1316.842, 12376.00
1317.908, 12285.00
1318.975, 12324.00
1320.042, 12496.00
1321.108, 12345.00
1322.174, 12434.00
1323.240, 12478.00
1324.306, 12496.00
1325.372, 12536.53
1326.438, 12541.00
1327.503, 12502.00
1328.568, 12452.00
1329.634, 12289.00
1330.699, 12408.00
1331.763, 12306.00
1332.828, 12429.00
1333.893, 12472.00
1334.957, 12391.00
1336.021, 12351.00
1337.085, 12534.00
1338.149, 12314.00
1339.213, 12459.00
1340.277, 12250.00
1341.340, 12299.00
1342.404, 12332.00
1343.467, 12487.00
1344.530, 12428.00
1345.593, 12340.00
1346.655, 12387.00
1347.718, 12490.00
1348.780, 12530.00
1349.843, 12575.94
1350.905, 12497.00
1351.967, 12611.00
1353.028, 12448.00
1354.090, 12378.00
1355.152, 12405.00
1356.213, 12453.00
1357.274, 12484.00
1358.335, 12498.27
1359.396, 12492.00
1360.457, 12495.00
1361.517, 12488.57
1362.578, 12448.27
1363.638, 12466.00
1364.698, 12378.00
1365.758, 12354.00
1366.818, 12368.00
1367.878, 12388.00
1368.937, 12397.00
1369.997, 12538.00
1371.056, 12372.00
1372.115, 12474.00
1373.174, 12481.00
1374.232, 12398.00
1375.291, 12622.00
1376.350, 12421.00
1377.408, 12549.00
1378.466, 12519.00
1379.524, 12527.00
1380.582, 12506.00
1381.640, 12443.00
1382.697, 12446.00
1383.754, 12560.00
1384.812, 12347.00
1385.869, 12444.00
1386.926, 12573.00
1387.983, 12534.00
1389.039, 12573.00
1390.096, 12495.00
1391.152, 12417.00
1392.208, 12502.00
1393.264, 12467.00
1394.320, 12560.00
1395.376, 12565.00
1396.431, 12580.00
1397.487, 12490.00
1398.542, 12734.00
1399.597, 12540.00
1400.652, 12669.00
1401.707, 12633.00
1402.762, 12605.00
1403.816, 12681.00
1404.871, 12498.00
1405.925, 12596.00
1406.979, 12463.00
1408.033, 12788.00
1409.086, 12713.00
1410.140, 12705.00
1411.194, 12693.00
1412.247, 12712.00
1413.300, 12728.00
1414.353, 12761.00
1415.406, 12735.10
1416.458, 12719.11
1417.511, 12709.00
1418.563, 12636.00
1419.616, 12674.00
1420.668, 12625.00
1421.720, 12775.00
1422.772, 12694.00
1423.823, 12711.00
1424.875, 12720.00
1425.926, 12571.00
1426.977, 12776.00
1428.028, 12807.00
1429.079, 12695.00
1430.130, 12861.00
1431.180, 12954.00
1432.231, 12737.00
1433.281, 12890.00
1434.331, 12909.00
1435.381, 13003.00
1436.431, 12848.00
1437.481, 13132.00
1438.530, 12927.00
1439.580, 12793.00
1440.629, 12805.00
1441.678, 12919.00
1442.727, 12999.00
1443.776, 12839.00
1444.824, 12821.00
1445.873, 12893.00
1446.921, 12923.00
1447.969, 12934.44
1449.017, 12919.00
1450.065, 12952.00
1451.113, 13014.00
1452.160, 12986.00
1453.208, 13081.00
1454.255, 12824.00
1455.302, 13043.00
1456.349, 13000.00
1457.396, 12969.00
1458.443, 13057.00
1459.489, 13106.00
1460.535, 13131.00
1461.582, 13021.00
1462.628, 13181.00
1463.674, 12909.00
1464.719, 13139.00
1465.765, 13085.00
1466.810, 13162.00
1467.856, 13083.00
1468.901, 13140.00
1469.946, 13216.00
1470.991, 13090.00
1472.035, 13204.00
1473.080, 13192.00
1474.124, 13078.00
1475.169, 13117.00
1476.213, 13171.00
1477.257, 13162.00
1478.300, 13115.00
1479.344, 13086.00
1480.388, 13075.00
1481.431, 13093.05
1482.474, 13159.00
1483.517, 13172.00
1484.560, 13191.00
1485.603, 13241.00
1486.645, 13190.00
1487.688, 13079.00
1488.730, 13189.00
1489.772, 13228.00
1490.814, 13181.00
1491.856, 13277.00
1492.898, 13249.00
1493.939, 13304.00
1494.981, 13313.00
1496.022, 13354.00
1497.063, 13370.00
1498.104, 13272.00
1499.145, 13353.00
1500.186, 13213.00
1501.226, 13326.00
1502.266, 13247.00
1503.307, 13411.00
1504.347, 13422.00
1505.387, 13357.00
1506.426, 13499.00
1507.466, 13476.00
1508.505, 13432.24
1509.545, 13483.21
1510.584, 13422.34
1511.623, 13475.00
1512.662, 13374.00
1513.700, 13354.00
1514.739, 13377.00
1515.777, 13536.00
1516.815, 13402.00
1517.854, 13576.00
1518.892, 13568.00
1519.929, 13479.00
1520.967, 13446.00
1522.004, 13426.00
1523.042, 13511.00
1524.079, 13478.00
1525.116, 13695.00
1526.153, 13628.00
1527.190, 13681.00
1528.226, 13540.00
1529.263, 13541.00
1530.299, 13614.00
1531.335, 13573.00
1532.371, 13538.00
1533.407, 13605.00
1534.443, 13676.00
1535.478, 13572.00
1536.514, 13651.00
1537.549, 13624.00
1538.584, 13739.00
1539.619, 13554.00
1540.654, 13677.00
1541.689, 13645.00
1542.723, 13747.00
1543.757, 13749.00
1544.792, 13675.00
1545.826, 13792.00
1546.860, 13648.00
1547.893, 13777.00
1548.927, 13765.00
1549.960, 13815.00
1550.994, 13752.00
1552.027, 13676.00
1553.060, 13751.00
1554.093, 13851.00
1555.126, 13883.00
1556.158, 13742.00
1557.191, 13826.00
1558.223, 13774.00
1559.255, 13879.00
1560.287, 13794.00
1561.319, 13986.00
1562.350, 13953.00
##END=



