##NAMES=Gmelinite-Na
##RRUFFID=R060168
##IDEAL CHEMISTRY=Na_4_(Si_8_Al_4_)O_24_&#183;11H_2_O
##LOCALITY=Five Islands, Nova Scotia, Canada
##OWNER=RRUFF
##SOURCE=Guy Ouellet
##DESCRIPTION=Salmon-red interpenetrating prismatic rhombohedral crystals
##STATUS=The identification of this mineral has been confirmed by X-ray diffraction and chemical analysis
##URL=rruff.info/R060168
##MEASURED CHEMISTRY=(Na_3.90_Ca_0.10_)(Si_7.90_Al_4.10_)O_24_Â·8.98H_2_O
##PIN_ID=M00975
##ORIENTATION=Laser parallel to c* (0 0 1). Fiducial mark perpendicular to laser is parallel to a [1 0 0]
242.2410, 12964.00
243.4640, 12950.00
244.6870, 12981.00
245.9100, 12920.00
247.1330, 12960.44
248.3560, 12935.98
249.5780, 12970.00
250.8000, 12928.00
252.0230, 12851.00
253.2440, 12880.00
254.4660, 13006.00
255.6880, 12873.00
256.9090, 12977.00
258.1300, 12990.00
259.3510, 13031.98
260.5720, 13007.49
261.7920, 13080.00
263.0130, 12964.00
264.2330, 12936.07
265.4530, 12813.00
266.6730, 12798.00
267.8920, 12689.00
269.1120, 12656.00
270.3310, 12598.00
271.5500, 12647.00
272.7690, 12622.00
273.9880, 12623.00
275.2060, 12720.00
276.4240, 12677.00
277.6430, 12645.00
278.8600, 12788.00
280.0780, 12778.00
281.2960, 12715.00
282.5130, 13088.00
283.7300, 12986.00
284.9470, 13063.00
286.1640, 13180.00
287.3810, 13358.00
288.5970, 13507.00
289.8130, 13678.18
291.0290, 13886.00
292.2450, 14050.00
293.4610, 14283.00
294.6760, 14499.00
295.8910, 14664.00
297.1060, 14774.00
298.3210, 15128.00
299.5360, 15308.00
300.7510, 15740.00
301.9650, 16101.00
303.1790, 16338.00
304.3930, 16817.00
305.6070, 17281.00
306.8200, 17660.00
308.0340, 18337.00
309.2470, 18888.00
310.4600, 19696.00
311.6730, 20154.00
312.8850, 20875.00
314.0980, 21572.00
315.3100, 21841.00
316.5220, 22578.00
317.7340, 22915.00
318.9460, 23193.00
320.1570, 23522.00
321.3690, 23561.00
322.5800, 22988.00
323.7910, 22886.00
325.0010, 22587.00
326.2120, 22082.00
327.4220, 21612.00
328.6330, 21059.57
329.8430, 20309.00
331.0520, 19817.00
332.2620, 19012.00
333.4720, 18344.00
334.6810, 17630.00
335.8900, 17084.44
337.0990, 16676.00
338.3070, 16189.00
339.5160, 15697.00
340.7240, 15480.00
341.9320, 15164.00
343.1400, 14768.00
344.3480, 14575.00
345.5560, 14317.00
346.7630, 14176.00
347.9700, 14016.00
349.1770, 13774.00
350.3840, 13730.00
351.5910, 13506.00
352.7970, 13382.00
354.0040, 13436.00
355.2100, 13382.00
356.4160, 13289.00
357.6220, 13251.00
358.8270, 13327.00
360.0320, 13330.00
361.2380, 13308.00
362.4430, 13258.00
363.6470, 13323.00
364.8520, 13446.00
366.0560, 13294.00
367.2610, 13511.00
368.4650, 13486.00
369.6690, 13748.00
370.8720, 13730.30
372.0760, 13951.00
373.2790, 13816.00
374.4820, 14040.00
375.6850, 14247.00
376.8880, 14337.00
378.0910, 14588.00
379.2930, 14893.00
380.4950, 15072.00
381.6970, 15225.00
382.8990, 15419.00
384.1010, 15625.00
385.3020, 15864.82
386.5040, 16076.00
387.7050, 16354.00
388.9060, 16599.00
390.1060, 16760.00
391.3070, 17146.00
392.5070, 17560.00
393.7080, 17917.00
394.9080, 18496.00
396.1070, 19173.00
397.3070, 19773.00
398.5070, 20464.00
399.7060, 21497.00
400.9050, 22262.00
402.1040, 23232.34
403.3030, 24211.16
404.5010, 25240.00
405.7000, 26103.00
406.8980, 27211.00
408.0960, 27967.00
409.2940, 28704.00
410.4910, 29078.00
411.6890, 29046.00
412.8860, 28726.00
414.0830, 28576.00
415.2800, 27730.00
416.4770, 27094.00
417.6730, 26257.00
418.8690, 25321.00
420.0660, 24272.00
421.2620, 23193.00
422.4570, 22199.00
423.6530, 21313.00
424.8480, 20561.00
426.0440, 19864.00
427.2390, 19269.00
428.4340, 18744.00
429.6280, 18390.00
430.8230, 18112.00
432.0170, 17654.00
433.2110, 17489.00
434.4050, 17241.00
435.5990, 17169.00
436.7930, 17262.00
437.9860, 17139.00
439.1800, 17121.00
440.3730, 16981.00
441.5660, 17246.00
442.7580, 17119.00
443.9510, 17311.00
445.1430, 17530.00
446.3350, 17600.00
447.5270, 17979.00
448.7190, 18147.00
449.9110, 18403.00
451.1020, 18622.00
452.2930, 19028.00
453.4850, 19133.00
454.6750, 19637.00
455.8660, 19956.00
457.0570, 20624.00
458.2470, 20966.00
459.4370, 21666.00
460.6270, 22201.00
461.8170, 22867.00
463.0070, 23563.00
464.1960, 24385.00
465.3850, 25112.00
466.5750, 25928.00
467.7630, 27156.00
468.9520, 28106.00
470.1410, 29284.00
471.3290, 30488.00
472.5170, 32163.00
473.7050, 33513.00
474.8930, 34926.00
476.0810, 36947.00
477.2680, 38766.00
478.4560, 40726.00
479.6430, 42696.00
480.8300, 45038.00
482.0160, 47336.00
483.2030, 49857.00
484.3890, 52550.00
485.5760, 54641.00
486.7620, 56854.00
487.9480, 58978.00
489.1330, 60485.00
490.3190, 62709.00
491.5040, 63935.00
492.6890, 64674.00
493.8740, 65220.00
495.0590, 65235.00
496.2440, 64995.00
497.4280, 64382.00
498.6120, 63005.00
499.7960, 61507.00
500.9800, 59319.00
502.1640, 57076.00
503.3470, 54152.00
504.5310, 51317.00
505.7140, 48213.00
506.8970, 45460.00
508.0800, 42247.00
509.2620, 39328.00
510.4450, 36523.00
511.6270, 33675.00
512.8090, 31316.00
513.9910, 29257.00
515.1730, 27387.00
516.3550, 25678.00
517.5360, 24100.03
518.7170, 22701.17
519.8980, 21429.00
521.0790, 20395.00
522.2600, 19447.00
523.4400, 18565.40
524.6210, 17913.00
525.8010, 17195.00
526.9810, 16753.00
528.1610, 16376.00
529.3400, 15748.00
530.5200, 15441.00
531.6990, 15121.00
532.8780, 14636.00
534.0570, 14515.00
535.2360, 14141.00
536.4140, 13754.00
537.5930, 13833.00
538.7710, 13416.00
539.9490, 13334.00
541.1270, 13231.00
542.3040, 13068.00
543.4820, 12902.00
544.6590, 12798.00
545.8360, 12624.00
547.0130, 12597.00
548.1900, 12491.33
549.3670, 12482.00
550.5430, 12354.00
551.7190, 12280.00
552.8960, 12199.00
554.0710, 12131.00
555.2470, 11948.00
556.4230, 12067.00
557.5980, 11878.00
558.7730, 11952.00
559.9480, 11786.00
561.1230, 11631.00
562.2980, 11625.00
563.4720, 11718.00
564.6470, 11557.00
565.8210, 11567.00
566.9950, 11513.00
568.1690, 11544.00
569.3420, 11441.00
570.5160, 11448.92
571.6890, 11403.00
572.8620, 11422.00
574.0350, 11388.00
575.2080, 11385.00
576.3800, 11393.95
577.5530, 11393.00
578.7250, 11428.00
579.8970, 11367.00
581.0690, 11416.00
582.2410, 11392.00
583.4120, 11400.42
584.5830, 11438.39
585.7550, 11409.00
586.9260, 11478.00
588.0960, 11450.00
589.2670, 11406.00
590.4380, 11433.00
591.6080, 11455.00
592.7780, 11442.00
593.9480, 11495.00
595.1180, 11515.00
596.2870, 11442.00
597.4570, 11528.00
598.6260, 11504.00
599.7950, 11480.00
600.9640, 11489.00
602.1330, 11472.30
603.3010, 11480.00
604.4700, 11473.00
605.6380, 11484.60
606.8060, 11503.00
607.9740, 11473.00
609.1420, 11480.00
610.3090, 11423.00
611.4760, 11489.00
612.6440, 11660.00
613.8110, 11417.00
614.9770, 11428.00
616.1440, 11343.00
617.3110, 11625.00
618.4770, 11315.00
619.6430, 11400.00
620.8090, 11277.00
621.9750, 11206.00
623.1400, 11244.00
624.3060, 11254.00
625.4710, 11244.00
626.6360, 11340.00
627.8010, 11170.00
628.9660, 11338.00
630.1300, 11115.00
631.2950, 11320.00
632.4590, 11321.00
633.6230, 11311.00
634.7870, 11209.00
635.9510, 11289.00
637.1140, 11345.00
638.2780, 11268.00
639.4410, 11477.00
640.6040, 11423.00
641.7670, 11457.00
642.9290, 11520.00
644.0920, 11622.00
645.2540, 11648.25
646.4160, 11708.18
647.5780, 11714.00
648.7400, 11749.00
649.9020, 11726.00
651.0630, 11659.00
652.2250, 11726.00
653.3860, 11686.56
654.5470, 11601.00
655.7080, 11677.00
656.8680, 11686.00
658.0290, 11666.00
659.1890, 11543.00
660.3490, 11543.00
661.5090, 11310.00
662.6690, 11231.00
663.8280, 11169.00
664.9880, 11224.00
666.1470, 11106.00
667.3060, 11086.00
668.4650, 10955.00
669.6240, 10957.00
670.7820, 10918.00
671.9410, 10881.51
673.0990, 10937.00
674.2570, 10861.00
675.4150, 10896.00
676.5720, 10898.00
677.7300, 10883.00
678.8870, 10735.00
680.0450, 10823.00
681.2020, 10645.00
682.3590, 10750.00
683.5150, 10674.00
684.6720, 10687.00
685.8280, 10668.00
686.9840, 10694.00
688.1400, 10721.00
689.2960, 10595.00
690.4520, 10689.00
691.6070, 10612.00
692.7630, 10619.00
693.9180, 10730.00
695.0730, 10687.00
696.2280, 10689.00
697.3820, 10605.00
698.5370, 10656.00
699.6910, 10525.00
700.8450, 10760.00
701.9990, 10732.00
703.1530, 10846.00
704.3070, 10681.00
705.4600, 10632.00
706.6130, 10679.00
707.7660, 10763.00
708.9190, 10850.00
710.0720, 10850.00
711.2250, 10839.00
712.3770, 10822.00
713.5300, 10814.00
714.6820, 10935.00
715.8340, 10905.00
716.9850, 10977.00
718.1370, 10991.00
719.2880, 10846.00
720.4400, 10937.00
721.5910, 10936.00
722.7420, 10884.00
723.8930, 10951.00
725.0430, 10971.00
726.1940, 11011.00
727.3440, 10978.00
728.4940, 10943.00
729.6440, 11053.00
730.7940, 10963.00
731.9430, 10948.00
733.0930, 10854.00
734.2420, 10995.00
735.3910, 11072.00
736.5400, 11097.00
737.6890, 11178.00
738.8370, 11034.00
739.9860, 11121.00
741.1340, 11050.00
742.2820, 11136.00
743.4300, 11133.00
744.5780, 11159.00
745.7250, 11209.00
746.8730, 11255.65
748.0200, 11244.00
749.1670, 11390.00
750.3140, 11358.00
751.4610, 11414.00
752.6070, 11566.00
753.7540, 11581.00
754.9000, 11589.00
756.0460, 11778.00
757.1920, 11909.00
758.3380, 11943.00
759.4830, 11991.00
760.6280, 12164.00
761.7740, 12337.00
762.9190, 12176.00
764.0640, 12285.00
765.2080, 12487.00
766.3530, 12383.00
767.4970, 12540.00
768.6420, 12441.00
769.7860, 12465.00
770.9300, 12510.00
772.0730, 12266.00
773.2170, 12414.00
774.3600, 12222.00
775.5040, 12219.00
776.6470, 12178.00
777.7900, 12082.00
778.9320, 12080.00
780.0750, 11971.00
781.2170, 11871.00
782.3600, 11839.48
783.5020, 11930.00
784.6440, 11676.00
785.7850, 11792.00
786.9270, 11606.00
788.0680, 11568.00
789.2100, 11538.00
790.3510, 11641.00
791.4920, 11534.00
792.6320, 11543.00
793.7730, 11502.00
794.9130, 11403.00
796.0540, 11381.00
797.1940, 11432.00
798.3340, 11362.00
799.4730, 11344.00
800.6130, 11249.00
801.7520, 11141.00
802.8920, 11211.00
804.0310, 11088.00
805.1700, 10993.00
806.3090, 11007.00
807.4470, 10940.00
808.5860, 10976.00
809.7240, 10899.00
810.8620, 10876.00
812.0000, 10817.00
813.1380, 10720.00
814.2750, 10895.00
815.4130, 10844.00
816.5500, 10674.00
817.6870, 10840.00
818.8240, 10703.00
819.9610, 10663.00
821.0980, 10675.00
822.2340, 10739.00
823.3700, 10701.00
824.5070, 10660.00
825.6430, 10603.00
826.7780, 10658.00
827.9140, 10829.00
829.0500, 10701.00
830.1850, 10936.00
831.3200, 10749.00
832.4550, 10766.00
833.5900, 10632.00
834.7250, 10749.00
835.8590, 10666.00
836.9930, 10725.00
838.1280, 10814.00
839.2620, 10725.00
840.3950, 10814.00
841.5290, 10711.00
842.6630, 10675.00
843.7960, 10750.00
844.9290, 10779.00
846.0620, 10763.18
847.1950, 10758.00
848.3280, 10744.00
849.4600, 10823.00
850.5930, 10811.00
851.7250, 10897.00
852.8570, 10828.00
853.9890, 10791.00
855.1210, 10839.00
856.2520, 10754.00
857.3840, 10786.00
858.5150, 10855.00
859.6460, 10897.00
860.7770, 10802.00
861.9080, 11049.00
863.0380, 10916.00
864.1690, 10979.00
865.2990, 10897.00
866.4290, 10975.00
867.5590, 11049.00
868.6890, 10941.00
869.8190, 10863.00
870.9480, 10938.00
872.0770, 10864.00
873.2070, 10896.00
874.3360, 10870.00
875.4640, 10974.00
876.5930, 10771.00
877.7220, 10813.00
878.8500, 10777.00
879.9780, 10878.00
881.1060, 10839.51
882.2340, 10813.00
883.3620, 10770.00
884.4890, 10794.00
885.6170, 10784.58
886.7440, 10796.00
887.8710, 10786.00
888.9980, 10821.00
890.1240, 10811.32
891.2510, 10755.00
892.3770, 10806.00
893.5040, 10800.00
894.6300, 10786.00
895.7560, 10907.00
896.8810, 10780.00
898.0070, 10767.00
899.1330, 10905.00
900.2580, 10926.00
901.3830, 10897.00
902.5080, 10861.00
903.6330, 10964.00
904.7570, 10971.00
905.8820, 10915.00
907.0060, 11084.00
908.1300, 10915.00
909.2540, 10965.00
910.3780, 11003.00
911.5020, 10879.00
912.6250, 10957.00
913.7490, 11068.00
914.8720, 11113.00
915.9950, 11157.00
917.1180, 11124.00
918.2400, 11059.00
919.3630, 10964.00
920.4850, 11078.00
921.6080, 10964.41
922.7300, 11104.48
923.8520, 11184.46
924.9730, 11207.58
926.0950, 11003.52
927.2160, 11092.82
928.3380, 11064.55
929.4590, 11031.46
930.5800, 11162.04
931.7010, 10991.02
932.8210, 11119.00
933.9420, 11127.63
935.0620, 11190.88
936.1820, 11135.85
937.3020, 11117.35
938.4220, 11217.17
939.5420, 11126.00
940.6610, 11142.00
941.7810, 11240.00
942.9000, 11186.00
944.0190, 11210.00
945.1380, 11260.00
946.2570, 11158.00
947.3750, 11296.00
948.4940, 11192.00
949.6120, 11212.00
950.7300, 11147.00
951.8480, 11274.00
952.9660, 11297.00
954.0830, 11264.00
955.2010, 11250.00
956.3180, 11268.00
957.4350, 11464.00
958.5520, 11444.00
959.6690, 11599.00
960.7860, 11350.00
961.9020, 11474.00
963.0190, 11458.00
964.1350, 11536.00
965.2510, 11468.00
966.3670, 11767.00
967.4830, 11691.00
968.5980, 11838.00
969.7140, 11680.00
970.8290, 11906.00
971.9440, 12025.00
973.0590, 12156.00
974.1740, 12091.00
975.2880, 12156.00
976.4030, 12267.00
977.5170, 12159.00
978.6310, 12261.00
979.7450, 12292.89
980.8590, 12497.24
981.9730, 12641.49
983.0860, 12728.82
984.2000, 12589.03
985.3130, 12742.53
986.4260, 12778.48
987.5390, 12809.60
988.6520, 13004.39
989.7640, 12897.53
990.8770, 13089.72
991.9890, 13162.50
993.1010, 13289.91
994.2130, 13299.03
995.3250, 13344.68
996.4370, 13411.00
997.5480, 13488.00
998.6590, 13713.00
999.7710, 13678.00
1000.882, 13844.00
1001.993, 13750.00
1003.103, 13844.00
1004.214, 13749.00
1005.324, 13862.00
1006.434, 13853.91
1007.545, 13826.00
1008.655, 13859.00
1009.764, 13931.00
1010.874, 13876.79
1011.983, 13989.00
1013.093, 13778.00
1014.202, 13774.00
1015.311, 13985.00
1016.420, 13696.00
1017.528, 13883.00
1018.637, 13870.00
1019.745, 13771.00
1020.854, 13839.00
1021.962, 13960.00
1023.070, 13760.00
1024.177, 13948.00
1025.285, 13802.00
1026.392, 13748.00
1027.500, 13957.00
1028.607, 13850.00
1029.714, 13748.00
1030.821, 13623.00
1031.927, 13663.00
1033.034, 13714.00
1034.140, 13731.00
1035.246, 13740.26
1036.352, 13640.00
1037.458, 13682.00
1038.564, 13674.00
1039.670, 13541.00
1040.775, 13576.00
1041.880, 13529.00
1042.986, 13547.00
1044.090, 13565.00
1045.195, 13519.37
1046.300, 13418.00
1047.404, 13461.00
1048.509, 13538.00
1049.613, 13530.14
1050.717, 13414.00
1051.821, 13539.00
1052.925, 13390.00
1054.028, 13500.00
1055.132, 13419.00
1056.235, 13533.00
1057.338, 13597.00
1058.441, 13663.00
1059.544, 13679.00
1060.647, 13735.00
1061.749, 13811.00
1062.851, 13931.00
1063.954, 14053.00
1065.056, 14161.00
1066.158, 14289.66
1067.259, 14326.00
1068.361, 14458.00
1069.462, 14638.00
1070.564, 14552.00
1071.665, 14730.00
1072.766, 14964.00
1073.867, 15072.00
1074.967, 15027.00
1076.068, 15481.00
1077.168, 15550.00
1078.268, 15592.00
1079.368, 15911.00
1080.468, 15981.00
1081.568, 16068.00
1082.668, 16322.00
1083.767, 16432.00
1084.866, 16571.00
1085.966, 16842.00
1087.065, 16652.00
1088.163, 16841.00
1089.262, 17046.00
1090.361, 17271.00
1091.459, 17385.53
1092.557, 17480.00
1093.655, 17654.00
1094.753, 17674.00
1095.851, 17879.00
1096.949, 17875.00
1098.046, 17950.00
1099.143, 18193.00
1100.241, 18211.00
1101.338, 18303.00
1102.434, 18440.00
1103.531, 18502.00
1104.628, 18577.00
1105.724, 18679.16
1106.820, 18722.00
1107.916, 18813.00
1109.012, 18774.00
1110.108, 18744.00
1111.204, 18792.00
1112.299, 18860.00
1113.395, 18823.00
1114.490, 18831.00
1115.585, 18989.00
1116.680, 18797.00
1117.775, 19025.00
1118.869, 18995.00
1119.964, 18866.00
1121.058, 19091.00
1122.152, 18981.00
1123.246, 18857.00
1124.340, 18767.00
1125.434, 18689.00
1126.527, 18548.00
1127.620, 18368.00
1128.714, 18353.00
1129.807, 18266.00
1130.900, 18103.00
1131.992, 18074.00
1133.085, 17927.00
1134.178, 17802.00
1135.270, 17661.00
1136.362, 17583.00
1137.454, 17468.00
1138.546, 17437.00
1139.638, 17168.00
1140.729, 17055.00
1141.821, 17036.00
1142.912, 17002.00
1144.003, 16832.00
1145.094, 16684.00
1146.185, 16411.00
1147.276, 16321.75
1148.366, 16180.00
1149.456, 16120.00
1150.547, 15950.00
1151.637, 15930.00
1152.727, 15777.23
1153.816, 15742.00
1154.906, 15541.00
1155.995, 15466.00
1157.085, 15411.00
1158.174, 15273.00
1159.263, 15183.00
1160.352, 15077.57
1161.441, 14960.34
1162.529, 14861.00
1163.618, 14771.00
1164.706, 14677.00
1165.794, 14651.00
1166.882, 14579.00
1167.970, 14630.00
1169.058, 14542.00
1170.145, 14414.00
1171.232, 14224.00
1172.320, 14238.00
1173.407, 14133.00
1174.494, 13959.00
1175.580, 13921.00
1176.667, 13884.00
1177.754, 13810.00
1178.840, 13800.82
1179.926, 13719.00
1181.012, 13771.00
1182.098, 13626.00
1183.184, 13618.00
1184.269, 13495.00
1185.355, 13508.00
1186.440, 13343.00
1187.525, 13277.00
1188.610, 13215.00
1189.695, 13228.00
1190.780, 13344.00
1191.864, 13222.00
1192.949, 13084.00
1194.033, 13226.00
1195.117, 13106.00
1196.201, 13110.00
1197.285, 12986.00
1198.369, 13042.00
1199.452, 13031.00
1200.536, 12867.00
1201.619, 12954.00
1202.702, 12986.00
1203.785, 13059.00
1204.868, 12917.00
1205.950, 12961.02
1207.033, 12962.28
1208.115, 12942.00
1209.197, 12974.00
1210.279, 12982.27
1211.361, 13002.00
1212.443, 13039.00
1213.525, 13112.00
1214.606, 13163.00
1215.687, 13042.00
1216.769, 12952.00
1217.850, 12998.00
1218.930, 13182.00
1220.011, 13033.00
1221.092, 13124.00
1222.172, 12995.00
1223.252, 13186.00
1224.333, 13161.00
1225.413, 12938.00
1226.492, 13034.00
1227.572, 13074.00
1228.652, 12996.00
1229.731, 13181.00
1230.810, 13164.00
1231.889, 13089.00
1232.968, 12962.00
1234.047, 13051.00
1235.126, 12979.08
1236.204, 13112.00
1237.283, 13002.00
1238.361, 13040.00
1239.439, 13114.00
1240.517, 13192.00
1241.595, 13232.00
1242.673, 13093.00
1243.750, 13139.00
1244.827, 13095.00
1245.905, 13183.00
1246.982, 13305.00
1248.059, 13135.00
1249.135, 13256.00
1250.212, 13324.00
1251.288, 13177.00
1252.365, 13399.00
1253.441, 13291.00
1254.517, 13247.00
1255.593, 13396.00
1256.669, 13280.00
1257.744, 13315.00
1258.820, 13357.00
1259.895, 13418.00
1260.970, 13515.00
1262.045, 13529.00
1263.120, 13615.00
1264.195, 13547.00
1265.270, 13699.00
1266.344, 13599.00
1267.418, 13495.00
1268.492, 13497.00
1269.566, 13573.00
1270.640, 13753.00
1271.714, 13634.00
1272.788, 13693.00
1273.861, 13658.00
1274.934, 13790.00
1276.007, 13825.00
1277.080, 13757.00
1278.153, 13800.00
1279.226, 13748.00
1280.299, 13745.00
1281.371, 13773.00
1282.443, 13643.00
1283.515, 13721.00
1284.587, 13873.00
1285.659, 13712.00
1286.731, 13784.00
1287.802, 13970.00
1288.874, 13861.00
1289.945, 13891.00
1291.016, 13936.00
1292.087, 14054.00
1293.158, 13870.00
1294.229, 14076.00
1295.299, 14064.00
1296.370, 13881.00
1297.440, 14124.00
1298.510, 14086.00
1299.580, 14184.00
1300.650, 14130.00
1301.720, 14176.00
1302.789, 14246.00
1303.859, 14306.00
1304.928, 14499.00
1305.997, 14408.82
1307.066, 14499.00
1308.135, 14316.00
1309.203, 14408.00
1310.272, 14447.00
1311.340, 14419.00
1312.409, 14410.00
1313.477, 14439.00
1314.545, 14771.00
1315.612, 14633.00
1316.680, 14599.00
1317.748, 14435.00
1318.815, 14407.00
1319.882, 14406.40
1320.949, 14536.00
1322.016, 14422.00
1323.083, 14529.00
1324.150, 14461.00
1325.216, 14193.00
1326.283, 14411.00
1327.349, 14295.00
1328.415, 14462.00
1329.481, 14195.00
1330.547, 14212.00
1331.613, 14304.00
1332.678, 14165.00
1333.744, 14075.00
1334.809, 14121.00
1335.874, 14031.00
1336.939, 13940.00
1338.004, 14007.00
1339.068, 13943.00
1340.133, 14076.00
1341.197, 13961.00
1342.262, 13884.00
1343.326, 14079.00
1344.390, 13948.00
1345.453, 13986.00
1346.517, 13981.00
1347.581, 13899.00
1348.644, 13886.00
1349.707, 13862.00
1350.770, 13919.00
1351.833, 13872.29
1352.896, 13955.00
1353.959, 13823.00
1355.022, 13842.00
1356.084, 13815.00
1357.146, 13795.00
1358.208, 13873.00
1359.270, 13895.00
1360.332, 13854.00
1361.394, 13801.00
1362.455, 13864.00
1363.517, 13768.00
1364.578, 13643.00
1365.639, 13842.00
1366.700, 13725.00
1367.761, 13770.00
1368.822, 13730.00
1369.883, 13744.00
1370.943, 13864.00
1372.003, 14004.00
1373.063, 13824.00
1374.123, 13926.00
1375.183, 13895.00
1376.243, 13848.00
1377.303, 13790.00
1378.362, 13809.00
1379.421, 14018.00
1380.481, 13894.00
1381.540, 13970.00
1382.598, 13891.00
1383.657, 13967.00
1384.716, 13900.00
1385.774, 13942.00
1386.833, 13980.00
1387.891, 13838.00
1388.949, 13873.00
1390.007, 13881.00
1391.065, 13877.00
1392.122, 13900.00
1393.180, 13801.00
1394.237, 13823.00
1395.294, 13956.00
1396.351, 13998.00
1397.408, 13844.00
1398.465, 13985.00
1399.522, 13947.00
1400.578, 13863.00
1401.635, 13996.00
1402.691, 13952.54
1403.747, 13973.88
1404.803, 13978.00
1405.859, 14062.00
1406.914, 14020.00
1407.970, 14187.00
1409.025, 14050.00
1410.081, 14083.00
1411.136, 14028.00
1412.191, 13979.00
1413.245, 14084.00
1414.300, 13949.00
1415.355, 13935.00
1416.409, 14053.00
1417.463, 14025.00
1418.518, 14037.00
1419.572, 14155.00
1420.625, 14111.00
1421.679, 14107.00
1422.733, 14100.00
1423.786, 14065.00
1424.840, 13990.00
1425.893, 14178.00
1426.946, 13994.00
1427.999, 14189.00
1429.051, 14015.00
1430.104, 14146.00
1431.157, 14170.00
1432.209, 14078.00
1433.261, 14016.00
1434.313, 14201.00
1435.365, 14318.00
1436.417, 14244.00
1437.468, 14306.00
1438.520, 14428.00
1439.571, 14552.00
1440.623, 14544.60
1441.674, 14490.00
1442.725, 14548.00
1443.775, 14557.00
1444.826, 14580.00
1445.877, 14557.00
1446.927, 14667.00
1447.977, 14760.00
1449.028, 14862.00
1450.078, 14851.17
1451.127, 14990.00
1452.177, 14783.00
1453.227, 14762.00
1454.276, 14695.00
1455.325, 14696.00
1456.375, 14830.00
1457.424, 14666.00
1458.473, 14866.00
1459.521, 14888.00
1460.570, 14724.00
1461.618, 14773.00
1462.667, 14773.00
1463.715, 14774.00
1464.763, 14732.00
1465.811, 14694.21
1466.859, 14529.00
1467.906, 14598.00
1468.954, 14487.00
1470.001, 14478.00
1471.049, 14469.00
1472.096, 14548.00
1473.143, 14555.00
1474.190, 14464.00
1475.236, 14698.00
1476.283, 14394.00
1477.329, 14587.00
1478.376, 14507.00
1479.422, 14541.00
1480.468, 14586.00
1481.514, 14513.00
1482.559, 14482.00
1483.605, 14540.00
1484.650, 14530.00
1485.696, 14495.00
1486.741, 14408.00
1487.786, 14428.70
1488.831, 14392.00
1489.876, 14415.00
1490.920, 14438.00
1491.965, 14403.00
1493.009, 14493.00
1494.054, 14605.00
1495.098, 14329.00
1496.142, 14447.00
1497.185, 14372.00
1498.229, 14428.00
1499.273, 14282.00
1500.316, 14425.00
1501.359, 14550.00
1502.403, 14537.00
1503.446, 14441.00
1504.489, 14306.00
1505.531, 14342.00
1506.574, 14631.00
1507.616, 14699.00
1508.659, 14479.00
1509.701, 14610.00
1510.743, 14445.00
1511.785, 14541.00
1512.827, 14583.00
1513.868, 14693.00
1514.910, 14762.00
1515.951, 14631.00
1516.993, 14709.00
1518.034, 14585.00
1519.075, 14700.00
1520.116, 14785.00
1521.156, 14739.00
1522.197, 14606.00
1523.237, 14521.00
1524.278, 14751.00
1525.318, 14813.00
1526.358, 14882.00
1527.398, 14813.00
1528.438, 14616.00
1529.477, 14971.00
1530.517, 14947.00
1531.556, 14763.00
1532.596, 14934.00
1533.635, 14887.00
1534.674, 14884.00
1535.712, 14855.00
1536.751, 14897.01
1537.790, 14929.00
1538.828, 14993.00
1539.866, 14944.00
1540.905, 14963.00
1541.943, 14895.00
1542.981, 14885.00
1544.018, 14862.55
1545.056, 15016.61
1546.094, 15110.57
1547.131, 15147.66
1548.168, 14957.58
1549.205, 15060.84
1550.242, 15046.54
1551.279, 15027.42
1552.316, 15171.97
1553.352, 15014.91
1554.389, 15156.86
1555.425, 15179.44
1556.461, 15256.65
1557.497, 15215.57
1558.533, 15211.03
1559.569, 15324.81
1560.605, 15373.07
1561.640, 15318.36
1562.675, 15399.02
1563.711, 15183.00
##END=



