##NAMES=Goethite
##RRUFFID=R050142
##IDEAL CHEMISTRY=Fe^3+^O(OH)
##LOCALITY=Park County, Colorado, USA
##OWNER=RRUFF
##SOURCE=Dave Bunk Minerals
##DESCRIPTION=Radiating spray of black to brown platy crystals
##STATUS=The identification of this mineral has been confirmed by X-ray diffraction and chemical analysis
##URL=rruff.info/R050142
##MEASURED CHEMISTRY=FeO(OH)
##PIN_ID=M00281
##ORIENTATION=Laser parallel to a* (1 0 0). Fiducial mark perpendicular to laser is parallel to b [0 1 0]
110.6170, 5599.000
111.8550, 5794.000
113.0940, 6139.000
114.3320, 6580.602
115.5700, 7054.407
116.8080, 7474.301
118.0460, 7928.000
119.2830, 7277.000
120.5210, 7650.000
121.7580, 7337.000
122.9950, 6798.000
124.2320, 6360.000
125.4690, 5984.000
126.7050, 5862.425
127.9410, 5900.000
129.1780, 5910.000
130.4140, 5852.794
131.6490, 5807.739
132.8850, 5824.000
134.1200, 5705.000
135.3560, 5734.000
136.5910, 5841.000
137.8260, 6045.000
139.0610, 5964.000
140.2950, 5941.369
141.5290, 5857.000
142.7640, 5722.000
143.9980, 5698.000
145.2320, 5660.000
146.4650, 5734.000
147.6990, 5768.000
148.9320, 5613.000
150.1650, 5704.000
151.3980, 5638.000
152.6310, 5670.955
153.8640, 5776.000
155.0960, 5777.000
156.3280, 5577.000
157.5600, 5624.000
158.7920, 5546.000
160.0240, 5544.000
161.2560, 5622.000
162.4870, 5679.000
163.7180, 5665.000
164.9490, 5619.000
166.1800, 5515.000
167.4110, 5468.000
168.6410, 5463.000
169.8720, 5471.000
171.1020, 5488.000
172.3320, 5414.000
173.5620, 5463.000
174.7910, 5419.000
176.0210, 5319.061
177.2500, 5441.723
178.4790, 5510.470
179.7080, 5528.200
180.9370, 5342.109
182.1650, 5419.210
183.3940, 5390.836
184.6220, 5358.137
185.8500, 5472.282
187.0780, 5315.837
188.3050, 5427.653
189.5330, 5432.384
190.7600, 5486.126
191.9870, 5433.741
193.2140, 5414.135
194.4410, 5500.689
195.6680, 5528.462
196.8940, 5463.860
198.1200, 5520.718
199.3470, 5360.566
200.5720, 5390.843
201.7980, 5503.281
203.0240, 5444.015
204.2490, 5502.813
205.4740, 5516.646
206.6990, 5326.132
207.9240, 5490.999
209.1490, 5502.174
210.3740, 5355.543
211.5980, 5508.233
212.8220, 5383.358
214.0460, 5357.557
215.2700, 5406.314
216.4930, 5377.348
217.7170, 5522.881
218.9400, 5372.915
220.1630, 5563.000
221.3860, 5467.000
222.6090, 5665.000
223.8320, 5600.000
225.0540, 5625.000
226.2760, 5604.000
227.4980, 5628.000
228.7200, 5796.000
229.9420, 5752.000
231.1630, 5898.000
232.3850, 6124.000
233.6060, 6202.000
234.8270, 6559.000
236.0480, 6873.000
237.2690, 7348.000
238.4890, 7994.000
239.7090, 8383.752
240.9290, 8898.996
242.1490, 9280.859
243.3690, 9532.238
244.5890, 9500.331
245.8080, 9652.122
247.0270, 9634.000
248.2470, 9364.000
249.4650, 8479.000
250.6840, 8043.000
251.9030, 7710.000
253.1210, 7293.000
254.3390, 6897.000
255.5570, 6635.000
256.7750, 6533.000
257.9930, 6346.000
259.2100, 6018.194
260.4280, 6292.792
261.6450, 6513.349
262.8620, 6682.896
264.0790, 6609.000
265.2950, 6529.000
266.5120, 6300.000
267.7280, 5817.000
268.9440, 5766.000
270.1600, 5785.000
271.3760, 5712.000
272.5920, 5826.000
273.8070, 5749.000
275.0220, 5724.000
276.2370, 5736.000
277.4520, 5644.000
278.6670, 5803.362
279.8820, 5998.957
281.0960, 6037.545
282.3100, 5820.000
283.5240, 5757.000
284.7380, 5817.000
285.9520, 5828.000
287.1650, 5870.000
288.3780, 6058.000
289.5920, 6092.000
290.8050, 6344.955
292.0170, 6524.000
293.2300, 6872.000
294.4430, 7087.000
295.6550, 7393.000
296.8670, 7678.000
298.0790, 7771.000
299.2910, 7780.000
300.5020, 7869.000
301.7140, 7726.000
302.9250, 7713.000
304.1360, 7481.000
305.3470, 7351.915
306.5580, 7362.000
307.7680, 6998.000
308.9780, 7013.000
310.1890, 6872.000
311.3990, 6709.000
312.6090, 6781.000
313.8180, 6768.000
315.0280, 6775.000
316.2370, 6792.400
317.4460, 6613.000
318.6550, 6764.000
319.8640, 6710.000
321.0730, 6629.034
322.2810, 6648.630
323.4890, 6777.321
324.6980, 6852.102
325.9060, 6875.860
327.1130, 6695.793
328.3210, 6778.924
329.5280, 6756.574
330.7360, 6729.903
331.9430, 6850.071
333.1500, 6699.650
334.3560, 6817.485
335.5630, 6828.240
336.7690, 6831.000
337.9760, 6901.000
339.1820, 6775.000
340.3870, 6844.000
341.5930, 6814.000
342.7990, 6848.000
344.0040, 6902.000
345.2090, 6950.000
346.4140, 6998.450
347.6190, 7039.406
348.8240, 7096.000
350.0280, 7115.630
351.2330, 7147.000
352.4370, 7184.000
353.6410, 7196.000
354.8440, 7138.000
356.0480, 7409.000
357.2520, 7358.000
358.4550, 7561.000
359.6580, 7561.000
360.8610, 8289.000
362.0640, 8528.000
363.2660, 8562.000
364.4690, 8189.000
365.6710, 8378.000
366.8730, 8617.645
368.0750, 9138.000
369.2770, 9461.000
370.4780, 10105.00
371.6800, 10686.00
372.8810, 11214.00
374.0820, 12091.00
375.2830, 13143.00
376.4830, 14207.00
377.6840, 15576.00
378.8840, 16789.00
380.0840, 18063.00
381.2840, 19470.00
382.4840, 19989.00
383.6840, 20748.00
384.8830, 20639.00
386.0830, 20469.00
387.2820, 20261.00
388.4810, 19833.00
389.6800, 19330.00
390.8780, 19241.00
392.0770, 19166.74
393.2750, 20744.30
394.4730, 21138.02
395.6710, 21158.00
396.8690, 21688.00
398.0660, 21932.00
399.2640, 21244.00
400.4610, 20433.00
401.6580, 19449.00
402.8550, 18215.00
404.0520, 16517.00
405.2490, 15187.00
406.4450, 13718.00
407.6410, 12797.00
408.8370, 12451.00
410.0330, 11653.00
411.2290, 11326.00
412.4240, 10458.00
413.6200, 10035.00
414.8150, 10111.00
416.0100, 9866.000
417.2050, 9856.000
418.4000, 9667.000
419.5940, 9437.000
420.7880, 9219.000
421.9830, 8948.000
423.1770, 8751.000
424.3700, 8722.000
425.5640, 8371.021
426.7580, 8073.000
427.9510, 7902.373
429.1440, 7993.860
430.3370, 8031.433
431.5300, 8017.988
432.7220, 7800.749
433.9150, 7846.674
435.1070, 7787.151
436.2990, 7723.302
437.4910, 7806.298
438.6830, 7855.000
439.8750, 7865.000
441.0660, 7810.004
442.2570, 7928.000
443.4480, 7817.549
444.6390, 8010.306
445.8300, 8137.167
447.0210, 8201.674
448.2110, 8017.030
449.4010, 8154.066
450.5910, 8162.188
451.7810, 8165.023
452.9710, 8347.335
454.1610, 8198.925
455.3500, 8448.000
456.5390, 8547.000
457.7280, 8438.000
458.9170, 8633.000
460.1060, 8762.000
461.2940, 8777.000
462.4830, 9035.000
463.6710, 9116.000
464.8590, 9300.000
466.0470, 9412.000
467.2350, 9646.000
468.4220, 9910.000
469.6090, 10191.00
470.7970, 10617.00
471.9840, 11068.00
473.1700, 11409.00
474.3570, 11845.00
475.5440, 12124.00
476.7300, 12622.00
477.9160, 12954.00
479.1020, 13026.00
480.2880, 13152.00
481.4740, 13241.00
482.6590, 13120.00
483.8440, 13071.00
485.0300, 13135.00
486.2140, 12673.88
487.3990, 12096.00
488.5840, 11871.00
489.7680, 11511.00
490.9530, 11314.00
492.1370, 11115.00
493.3210, 10828.00
494.5040, 10691.84
495.6880, 10544.79
496.8720, 10387.00
498.0550, 10401.00
499.2380, 10302.00
500.4210, 10363.00
501.6040, 10453.00
502.7860, 10385.00
503.9690, 10452.00
505.1510, 10661.00
506.3330, 10668.42
507.5150, 11000.50
508.6970, 11266.68
509.8780, 11470.36
511.0600, 11425.07
512.2410, 11701.31
513.4220, 11848.63
514.6030, 12176.00
515.7840, 12460.00
516.9640, 12752.00
518.1440, 13025.00
519.3250, 13394.00
520.5050, 13902.00
521.6850, 14334.00
522.8640, 14949.00
524.0440, 15434.00
525.2230, 16135.00
526.4020, 16799.00
527.5820, 17580.00
528.7600, 18765.00
529.9390, 19857.68
531.1180, 21181.00
532.2960, 22756.00
533.4740, 24781.00
534.6520, 26840.00
535.8300, 29748.00
537.0080, 32538.00
538.1850, 36385.00
539.3630, 41036.00
540.5400, 45690.00
541.7170, 51194.00
542.8940, 56911.00
544.0700, 62291.00
545.2470, 67300.00
546.4230, 71213.00
547.5990, 74177.00
548.7750, 75322.00
549.9510, 74899.00
551.1270, 73179.00
552.3020, 69755.00
553.4780, 65758.00
554.6530, 60314.00
555.8280, 55254.00
557.0030, 50148.00
558.1770, 44928.00
559.3520, 40442.00
560.5260, 36218.00
561.7000, 32779.00
562.8740, 29588.00
564.0480, 26883.00
565.2220, 24663.00
566.3950, 22814.00
567.5680, 21059.00
568.7420, 19700.00
569.9150, 18172.00
571.0870, 17155.00
572.2600, 16170.00
573.4320, 15343.00
574.6050, 15127.00
575.7770, 14535.00
576.9490, 13524.00
578.1210, 13929.00
579.2920, 12687.00
580.4640, 12261.00
581.6350, 11751.00
582.8060, 11575.00
583.9770, 11362.00
585.1480, 11256.00
586.3190, 10801.00
587.4890, 10587.04
588.6590, 10666.96
589.8290, 10692.96
590.9990, 10667.95
592.1690, 10439.11
593.3390, 10473.47
594.5080, 10402.39
595.6770, 10326.98
596.8470, 10398.38
598.0160, 10199.23
599.1840, 10268.37
600.3530, 10230.40
601.5210, 10241.47
602.6900, 10146.37
603.8580, 10084.10
605.0260, 10127.98
606.1930, 9963.000
607.3610, 9962.771
608.5280, 9922.289
609.6960, 9872.000
610.8630, 9834.000
612.0300, 9886.000
613.1970, 9817.806
614.3630, 9787.758
615.5300, 9802.000
616.6960, 9751.000
617.8620, 9660.000
619.0280, 9795.000
620.1940, 9564.000
621.3590, 9529.000
622.5250, 9608.000
623.6900, 9687.000
624.8550, 9501.000
626.0200, 9432.000
627.1850, 9420.044
628.3490, 9378.644
629.5140, 9379.000
630.6780, 9364.000
631.8420, 9407.000
633.0060, 9394.967
634.1700, 9336.000
635.3330, 9400.000
636.4970, 9356.804
637.6600, 9345.966
638.8230, 9376.000
639.9860, 9256.000
641.1490, 9257.000
642.3110, 9277.000
643.4740, 9373.000
644.6360, 9376.000
645.7980, 9402.000
646.9600, 9459.000
648.1220, 9280.000
649.2840, 9353.000
650.4450, 9406.000
651.6060, 9537.000
652.7670, 9617.000
653.9280, 9555.000
655.0890, 9480.000
656.2500, 9556.000
657.4100, 9491.000
658.5700, 9465.000
659.7300, 9757.000
660.8900, 9665.000
662.0500, 9712.000
663.2100, 9729.000
664.3690, 9773.000
665.5280, 9848.000
666.6880, 9878.772
667.8460, 9862.000
669.0050, 9983.000
670.1640, 10009.00
671.3220, 10070.00
672.4810, 10044.00
673.6390, 10093.05
674.7970, 10149.12
675.9540, 10146.00
677.1120, 10254.00
678.2690, 10285.00
679.4270, 10279.70
680.5840, 10327.00
681.7410, 10309.00
682.8980, 10268.00
684.0540, 10194.00
685.2110, 10075.00
686.3670, 10138.00
687.5230, 10192.00
688.6790, 9988.854
689.8350, 9856.000
690.9900, 9682.000
692.1460, 9595.000
693.3010, 9561.000
694.4560, 9378.000
695.6110, 9246.000
696.7660, 9238.000
697.9210, 9073.000
699.0750, 8867.000
700.2290, 8722.000
701.3840, 8799.000
702.5370, 8688.000
703.6910, 8633.000
704.8450, 8559.000
705.9980, 8500.000
707.1520, 8457.000
708.3050, 8428.000
709.4580, 8358.000
710.6110, 8386.000
711.7630, 8337.000
712.9160, 8280.000
714.0680, 8289.000
715.2200, 8184.000
716.3720, 8154.000
717.5240, 8259.000
718.6760, 8341.000
719.8270, 8225.000
720.9780, 8243.000
722.1300, 8214.000
723.2810, 8282.000
724.4310, 8220.000
725.5820, 8233.000
726.7330, 8191.000
727.8830, 8211.000
729.0330, 8144.000
730.1830, 8185.000
731.3330, 8232.000
732.4830, 8377.000
733.6320, 8152.000
734.7810, 8132.000
735.9310, 8220.000
737.0800, 8079.000
738.2290, 8129.000
739.3770, 8224.000
740.5260, 8211.000
741.6740, 8182.000
742.8220, 8230.000
743.9700, 8291.000
745.1180, 8196.000
746.2660, 8303.272
747.4130, 8294.000
748.5610, 8423.000
749.7080, 8241.000
750.8550, 8281.000
752.0020, 8334.000
753.1490, 8329.000
754.2950, 8378.000
755.4420, 8314.000
756.5880, 8375.000
757.7340, 8473.000
758.8800, 8434.000
760.0250, 8430.000
761.1710, 8370.000
762.3160, 8490.000
763.4620, 8512.000
764.6070, 8582.000
765.7520, 8547.000
766.8960, 8539.000
768.0410, 8587.000
769.1850, 8676.000
770.3300, 8677.000
771.4740, 8701.564
772.6180, 8700.000
773.7610, 8693.000
774.9050, 8714.000
776.0480, 8704.000
777.1920, 8779.000
778.3350, 8776.000
779.4780, 8774.000
780.6200, 8757.000
781.7630, 8759.000
782.9060, 8777.000
784.0480, 8717.000
785.1900, 8847.000
786.3320, 8725.000
787.4740, 8800.000
788.6150, 8694.000
789.7570, 8844.000
790.8980, 8808.000
792.0390, 8739.000
793.1800, 8802.000
794.3210, 8837.000
795.4620, 8740.000
796.6020, 8668.000
797.7420, 8706.033
798.8830, 8826.709
800.0230, 8893.472
801.1620, 8909.221
802.3020, 8721.146
803.4420, 8796.263
804.5810, 8765.906
805.7200, 8731.226
806.8590, 8843.388
807.9980, 8684.961
809.1370, 8794.795
810.2750, 8797.546
811.4140, 8849.305
812.5520, 8794.939
813.6900, 8773.353
814.8280, 8857.927
815.9650, 8883.722
817.1030, 8817.139
818.2400, 8872.018
819.3780, 8797.000
820.5150, 8721.000
821.6520, 8890.000
822.7880, 8733.775
823.9250, 8786.000
825.0610, 8834.000
826.1980, 8785.000
827.3340, 8842.000
828.4700, 8962.000
829.6050, 8821.000
830.7410, 8845.000
831.8760, 8750.000
833.0120, 8789.000
834.1470, 8913.000
835.2820, 8806.000
836.4160, 8784.000
837.5510, 8872.000
838.6860, 8962.000
839.8200, 8900.000
840.9540, 8994.916
842.0880, 8913.000
843.2220, 9062.000
844.3550, 8971.000
845.4890, 8966.000
846.6220, 9042.000
847.7550, 9104.000
848.8880, 9122.732
850.0210, 9166.000
851.1540, 9220.000
852.2860, 9179.000
853.4190, 9287.000
854.5510, 9214.000
855.6830, 9297.000
856.8150, 9384.000
857.9460, 9498.000
859.0780, 9447.000
860.2090, 9451.000
861.3410, 9414.000
862.4720, 9525.000
863.6020, 9450.000
864.7330, 9493.384
865.8640, 9531.000
866.9940, 9509.000
868.1240, 9556.000
869.2540, 9534.263
870.3840, 9532.171
871.5140, 9615.000
872.6440, 9586.000
873.7730, 9585.000
874.9020, 9774.000
876.0320, 9611.000
877.1600, 9712.000
878.2890, 9654.000
879.4180, 9684.000
880.5460, 9684.000
881.6750, 9738.000
882.8030, 9808.000
883.9310, 9599.450
885.0590, 9752.442
886.1860, 9851.492
887.3140, 9899.555
888.4410, 9743.766
889.5680, 9851.172
890.6950, 9853.103
891.8220, 9850.707
892.9490, 9995.155
894.0750, 9868.988
895.2020, 10011.11
896.3280, 10046.12
897.4540, 10130.13
898.5800, 10108.03
899.7050, 10118.67
900.8310, 10235.50
901.9560, 10249.00
903.0820, 10267.03
904.2070, 10281.71
905.3320, 10271.00
906.4560, 10294.00
907.5810, 10270.00
908.7050, 10330.00
909.8300, 10263.00
910.9540, 10414.00
912.0780, 10434.00
913.2010, 10499.00
914.3250, 10495.00
915.4480, 10477.00
916.5720, 10549.47
917.6950, 10618.00
918.8180, 10639.00
919.9410, 10777.52
921.0630, 10790.00
922.1860, 10954.00
923.3080, 11014.00
924.4300, 11102.00
925.5520, 11076.00
926.6740, 11200.00
927.7960, 11245.00
928.9170, 11164.00
930.0390, 11364.00
931.1600, 11429.00
932.2810, 11435.00
933.4020, 11463.00
934.5230, 11451.76
935.6430, 11448.93
936.7640, 11435.00
937.8840, 11439.00
939.0040, 11504.00
940.1240, 11544.00
941.2440, 11531.00
942.3630, 11546.00
943.4830, 11456.00
944.6020, 11518.00
945.7210, 11577.00
946.8400, 11392.00
947.9590, 11447.00
949.0770, 11404.00
950.1960, 11510.00
951.3140, 11488.00
952.4320, 11446.00
953.5500, 11507.00
954.6680, 11516.00
955.7860, 11370.00
956.9030, 11337.00
958.0210, 11274.19
959.1380, 11400.30
960.2550, 11472.50
961.3720, 11493.68
962.4890, 11311.04
963.6050, 11391.59
964.7220, 11366.67
965.8380, 11337.42
966.9540, 11455.01
968.0700, 11302.02
969.1860, 11417.28
970.3010, 11425.46
971.4170, 11379.00
972.5320, 11391.00
973.6470, 11444.00
974.7620, 11448.02
975.8770, 11424.38
976.9910, 11526.00
978.1060, 11379.00
979.2200, 11448.00
980.3340, 11499.00
981.4480, 11693.00
982.5620, 11740.00
983.6760, 11880.00
984.7890, 11845.00
985.9030, 12103.00
987.0160, 12159.00
988.1290, 12269.00
989.2420, 12447.00
990.3550, 12610.50
991.4670, 12794.91
992.5800, 13089.00
993.6920, 13127.00
994.8040, 13462.00
995.9160, 13483.00
997.0280, 13858.00
998.1390, 13899.00
999.2510, 14053.00
1000.362, 14145.00
1001.473, 14037.00
1002.584, 14000.00
1003.695, 13936.00
1004.805, 13823.00
1005.916, 13712.00
1007.026, 13491.00
1008.136, 13365.00
1009.246, 13141.00
1010.356, 12964.00
1011.466, 12864.00
1012.576, 12536.00
1013.685, 12565.00
1014.794, 12345.00
1015.903, 12187.00
1017.012, 12334.00
1018.121, 12122.00
1019.229, 12066.00
1020.338, 12105.00
1021.446, 12052.00
1022.554, 12018.25
1023.662, 12081.00
1024.770, 11946.00
1025.878, 11885.00
1026.985, 11887.00
1028.092, 11799.00
1029.200, 11946.00
1030.307, 11930.00
1031.413, 11861.00
1032.520, 11833.78
1033.627, 11980.00
1034.733, 11748.00
1035.839, 11779.00
1036.945, 12003.00
1038.051, 11947.00
1039.157, 11973.00
1040.262, 11881.00
1041.368, 12007.00
1042.473, 11943.00
1043.578, 11943.00
1044.683, 12113.00
1045.788, 12136.00
1046.893, 12159.27
1047.997, 12045.00
1049.101, 12217.00
1050.205, 12181.00
1051.309, 12300.00
1052.413, 12140.65
1053.517, 12311.54
1054.621, 12428.52
1055.724, 12494.44
1056.827, 12356.54
1057.930, 12481.83
1059.033, 12501.63
1060.136, 12517.12
1061.238, 12679.42
1062.341, 12571.15
1063.443, 12731.11
1064.545, 12783.99
1065.647, 12885.87
1066.749, 12881.63
1067.850, 12910.12
1068.952, 13044.82
1070.053, 13120.69
1071.154, 13192.00
1072.255, 13319.00
1073.356, 13337.00
1074.457, 13330.00
1075.557, 13427.00
1076.658, 13523.00
1077.758, 13633.00
1078.858, 13710.00
1079.958, 13848.00
1081.057, 13827.00
1082.157, 13917.00
1083.256, 14118.00
1084.356, 14073.00
1085.455, 14293.00
1086.554, 14561.00
1087.653, 14518.00
1088.751, 14572.00
1089.850, 14715.00
1090.948, 14938.00
1092.046, 15180.00
1093.144, 15246.00
1094.242, 15470.00
1095.340, 15492.00
1096.437, 15634.00
1097.534, 16024.00
1098.632, 15999.00
1099.729, 16204.00
1100.826, 16258.00
1101.922, 16202.31
1103.019, 16412.69
1104.115, 16565.58
1105.212, 16662.91
1106.308, 16616.01
1107.404, 16695.38
1108.499, 16687.57
1109.595, 17084.97
1110.691, 17156.59
1111.786, 17196.99
1112.881, 17207.85
1113.976, 17100.71
1115.071, 17145.95
1116.166, 17130.12
1117.260, 17088.00
1118.355, 17025.00
1119.449, 16967.00
1120.543, 16937.00
1121.637, 16595.00
1122.731, 16572.00
1123.824, 16487.00
1124.918, 16349.00
1126.011, 16278.00
1127.104, 16141.00
1128.197, 15862.23
1129.290, 15718.71
1130.382, 15681.00
1131.475, 15235.00
1132.567, 15136.53
1133.659, 14806.11
1134.751, 14684.00
1135.843, 14330.58
1136.935, 14322.86
1138.027, 14283.93
1139.118, 14215.53
1140.209, 14029.13
1141.300, 13995.10
1142.391, 13900.02
1143.482, 13802.42
1144.573, 13789.85
1145.663, 13620.69
1146.754, 13606.76
1147.844, 13530.91
1148.934, 13483.44
1150.024, 13374.52
1151.113, 13284.65
1152.203, 13265.00
1153.292, 13356.00
1154.381, 13227.00
1155.470, 13219.00
1156.559, 13113.00
1157.648, 13116.95
1158.737, 13125.00
1159.825, 13131.00
1160.913, 13197.00
1162.001, 13198.00
1163.089, 13249.00
1164.177, 13340.00
1165.265, 13186.00
1166.352, 13183.00
1167.440, 13283.00
1168.527, 13383.00
1169.614, 13374.00
1170.701, 13504.00
1171.788, 13467.00
1172.874, 13588.00
1173.961, 13691.00
1175.047, 13613.00
1176.133, 13841.00
1177.219, 13594.00
1178.305, 13960.00
1179.390, 13913.00
1180.476, 13795.00
1181.561, 14138.00
1182.646, 14058.00
1183.731, 14242.00
1184.816, 14238.00
1185.901, 14352.00
1186.985, 14487.59
1188.070, 14486.00
1189.154, 14613.02
1190.238, 14622.00
1191.322, 14810.00
1192.406, 14922.00
1193.489, 15092.00
1194.573, 15164.00
1195.656, 15136.00
1196.739, 15377.00
1197.822, 15430.68
1198.905, 15609.00
1199.988, 15731.00
1201.070, 15737.00
1202.153, 15962.00
1203.235, 16087.00
1204.317, 16334.00
1205.399, 16456.01
1206.481, 16603.70
1207.562, 16684.00
1208.644, 16869.00
1209.725, 16904.00
1210.806, 16996.10
1211.887, 17168.22
1212.968, 17309.15
1214.049, 17420.52
1215.129, 17413.82
1216.209, 17559.48
1217.290, 17644.18
1218.370, 17726.27
1219.450, 17893.37
1220.529, 17903.74
1221.609, 18069.50
1222.688, 18173.17
1223.768, 18305.30
1224.847, 18375.92
1225.926, 18465.50
1227.005, 18616.54
1228.083, 18810.00
1229.162, 18812.00
1230.240, 18906.00
1231.318, 18850.00
1232.396, 18980.00
1233.474, 19181.00
1234.552, 19121.00
1235.629, 19297.00
1236.707, 19357.56
1237.784, 19535.97
1238.861, 19683.15
1239.938, 19800.80
1241.015, 19800.46
1242.092, 19952.49
1243.168, 20043.35
1244.244, 20131.71
1245.321, 20305.19
1246.397, 20321.89
1247.473, 20509.00
1248.548, 20746.00
1249.624, 20728.00
1250.699, 20983.00
1251.775, 20897.00
1252.850, 21141.00
1253.925, 21287.00
1254.999, 21133.00
1256.074, 21388.00
1257.148, 21683.00
1258.223, 21786.00
1259.297, 21980.00
1260.371, 22116.03
1261.445, 22066.00
1262.519, 22327.00
1263.592, 22359.00
1264.666, 22293.89
1265.739, 22519.53
1266.812, 22713.95
1267.885, 22878.83
1268.958, 22925.72
1270.030, 23124.83
1271.103, 23263.03
1272.175, 23398.57
1273.247, 23619.12
1274.319, 23683.02
1275.391, 23962.00
1276.463, 24048.00
1277.535, 24169.00
1278.606, 24328.00
1279.677, 24417.84
1280.748, 24596.98
1281.819, 24744.89
1282.890, 24863.28
1283.961, 24863.66
1285.031, 25016.31
1286.102, 25108.01
1287.172, 25197.09
1288.242, 25371.19
1289.312, 25388.64
1290.381, 25561.29
1291.451, 25672.05
1292.520, 25811.08
1293.590, 25988.00
1294.659, 26008.00
1295.728, 26054.00
1296.797, 26217.00
1297.865, 26274.00
1298.934, 26183.00
1300.002, 26450.00
1301.070, 26495.00
1302.138, 26206.00
1303.206, 26491.00
1304.274, 26478.00
1305.341, 26591.00
1306.409, 26317.00
1307.476, 26297.00
1308.543, 26621.12
1309.610, 26581.51
1310.677, 26515.35
1311.744, 26425.54
1312.810, 26159.35
1313.877, 26183.64
1314.943, 26129.83
1316.009, 26099.01
1317.075, 25862.00
1318.140, 25616.00
1319.206, 25479.00
1320.272, 25277.00
1321.337, 25008.00
1322.402, 24843.00
1323.467, 24809.00
1324.532, 24772.00
1325.596, 24562.00
1326.661, 24451.00
1327.725, 24355.00
1328.790, 23841.00
1329.854, 23695.00
1330.918, 23489.00
1331.981, 23416.00
1333.045, 23127.00
1334.108, 23052.00
1335.172, 22830.00
1336.235, 22827.00
1337.298, 22571.61
1338.361, 22320.72
1339.423, 22059.00
1340.486, 21931.00
1341.548, 21560.00
1342.611, 21400.80
1343.673, 21293.00
1344.735, 20949.00
1345.796, 20758.00
1346.858, 20459.00
1347.919, 20297.00
1348.981, 20138.00
1350.042, 19793.00
1351.103, 19474.00
1352.164, 19380.00
1353.225, 19439.00
1354.285, 19073.97
1355.346, 18939.76
1356.406, 18519.00
1357.466, 18445.00
1358.526, 18142.00
1359.586, 17965.00
1360.645, 17793.13
1361.705, 17459.00
1362.764, 17367.00
1363.823, 17092.00
1364.882, 16751.00
1365.941, 16675.00
1367.000, 16581.00
1368.059, 16403.00
1369.117, 16150.00
1370.175, 16052.00
1371.233, 15792.00
1372.291, 15775.00
1373.349, 15499.00
1374.407, 15443.00
1375.464, 15189.00
1376.522, 15036.00
1377.579, 14932.00
1378.636, 14750.81
1379.693, 14722.00
1380.750, 14512.00
1381.806, 14301.00
1382.863, 14233.00
1383.919, 14253.00
1384.975, 14082.00
1386.031, 14070.00
1387.087, 13992.00
1388.143, 13995.00
1389.199, 13850.63
1390.254, 13736.00
1391.309, 13562.47
1392.364, 13489.00
1393.419, 13354.00
1394.474, 13373.00
1395.529, 13318.00
1396.583, 13325.00
1397.638, 13301.00
1398.692, 13111.00
1399.746, 13000.00
1400.800, 13058.00
1401.853, 13030.00
1402.907, 12980.00
1403.960, 12941.00
1405.014, 12984.00
1406.067, 12910.00
1407.120, 13109.00
1408.173, 12783.00
1409.225, 12648.00
1410.278, 12818.00
1411.330, 12622.00
1412.383, 12773.00
1413.435, 12634.00
1414.487, 12670.00
1415.538, 12547.00
1416.590, 12667.00
1417.641, 12562.00
1418.693, 12430.00
1419.744, 12608.00
1420.795, 12531.00
1421.846, 12561.05
1422.897, 12798.00
1423.947, 12559.00
1424.998, 12690.00
1426.048, 12607.00
1427.098, 12480.00
1428.148, 12626.00
1429.198, 12556.86
1430.247, 12533.69
1431.297, 12679.00
1432.346, 12437.00
1433.396, 12632.00
1434.445, 12538.00
1435.494, 12632.00
1436.542, 12714.00
1437.591, 12696.00
1438.639, 12685.00
1439.688, 12636.00
1440.736, 12689.00
1441.784, 12739.00
1442.832, 12721.00
1443.880, 12700.00
1444.927, 12767.14
1445.975, 12980.00
1447.022, 12854.00
1448.069, 12997.00
1449.116, 13002.00
1450.163, 12974.13
1451.209, 12919.65
1452.256, 13021.00
1453.302, 12981.00
1454.348, 13149.00
1455.394, 13104.72
1456.440, 13078.58
1457.486, 13143.00
1458.532, 12972.00
1459.577, 13124.00
1460.623, 13117.00
1461.668, 13064.22
1462.713, 13143.00
1463.758, 13044.00
1464.802, 13097.47
1465.847, 13179.00
1466.891, 13050.00
1467.936, 12975.00
1468.980, 12954.00
1470.024, 12928.00
1471.067, 13025.00
1472.111, 12897.51
1473.155, 13000.19
1474.198, 13048.98
1475.241, 13046.75
1476.284, 12840.69
1477.327, 12897.83
1478.370, 12849.50
1479.413, 12796.84
1480.455, 12891.04
1481.497, 12714.66
1482.540, 12806.51
1483.582, 12791.30
1484.624, 12825.10
1485.665, 12752.79
1486.707, 12713.24
1487.748, 12779.88
1488.790, 12787.71
1489.831, 12703.18
1490.872, 12740.12
1491.912, 12560.07
1492.953, 12570.42
1493.994, 12662.94
1495.034, 12583.77
1496.074, 12622.66
1497.114, 12616.59
1498.154, 12406.18
1499.194, 12551.14
1500.234, 12542.41
1501.273, 12375.90
1502.313, 12508.69
1503.352, 12363.93
1504.391, 12368.00
1505.430, 12323.00
1506.468, 12382.00
1507.507, 12300.00
1508.545, 12373.00
1509.584, 12381.00
1510.622, 12287.00
1511.660, 12420.00
1512.698, 12341.00
1513.735, 12363.00
1514.773, 12497.00
1515.810, 12233.00
1516.848, 12400.00
1517.885, 12398.38
1518.922, 12332.14
1519.958, 12564.00
1520.995, 12311.00
1522.032, 12472.00
1523.068, 12493.00
1524.104, 12644.00
1525.140, 12603.25
1526.176, 12527.00
1527.212, 12598.00
1528.248, 12421.00
1529.283, 12598.00
1530.318, 12480.00
1531.353, 12598.00
1532.389, 12606.00
1533.423, 12658.00
1534.458, 12584.00
1535.493, 12638.00
1536.527, 12522.09
1537.561, 12654.13
1538.596, 12732.26
1539.630, 12759.37
1540.663, 12582.65
1541.697, 12669.12
1542.731, 12650.12
1543.764, 12626.79
1544.797, 12750.31
1545.830, 12603.23
1546.863, 12724.41
1547.896, 12738.51
1548.929, 12801.62
1549.961, 12758.59
1550.994, 12748.35
1552.026, 12844.27
1553.058, 12881.40
1554.090, 12826.15
1555.121, 12892.36
1556.153, 12741.57
1557.185, 12781.20
1558.216, 12902.99
1559.247, 12853.07
1560.278, 12921.22
1561.309, 12944.40
1562.340, 12763.24
1563.370, 12937.44
1564.401, 12957.97
1565.431, 12820.68
1566.461, 12982.71
1567.491, 12867.17
1568.521, 12873.00
1569.551, 12876.00
1570.580, 12939.00
1571.610, 12885.00
1572.639, 12683.00
1573.668, 12968.00
1574.697, 12832.00
1575.726, 12911.00
1576.754, 12993.00
1577.783, 12879.00
1578.811, 12988.00
1579.839, 12901.00
##END=



