##NAMES=Goethite
##RRUFFID=R050142
##IDEAL CHEMISTRY=Fe^3+^O(OH)
##LOCALITY=Park County, Colorado, USA
##OWNER=RRUFF
##SOURCE=Dave Bunk Minerals
##DESCRIPTION=Radiating spray of black to brown platy crystals
##STATUS=The identification of this mineral has been confirmed by X-ray diffraction and chemical analysis
##URL=rruff.info/R050142
##MEASURED CHEMISTRY=FeO(OH)
##PIN_ID=M00281
##ORIENTATION=Laser parallel to a* (1 0 0). Fiducial mark perpendicular to laser is parallel to b [0 1 0]
98.76000, 2628.788
100.0000, 2695.000
101.2400, 3004.000
102.4800, 3352.000
103.7200, 3791.000
104.9600, 4448.000
106.1990, 4929.000
107.4390, 5188.000
108.6780, 5339.000
109.9170, 5559.000
111.1560, 5804.000
112.3940, 6027.000
113.6330, 6158.071
114.8710, 6467.471
116.1090, 6621.777
117.3470, 6623.884
118.5840, 6321.127
119.8220, 6180.328
121.0590, 6190.231
122.2960, 6100.007
123.5330, 5753.270
124.7700, 5617.031
126.0060, 5322.861
127.2420, 4971.758
128.4790, 4714.567
129.7150, 4748.000
130.9500, 4643.000
132.1860, 4564.000
133.4210, 4514.000
134.6570, 4509.000
135.8920, 4655.000
137.1260, 4747.000
138.3610, 4878.000
139.5960, 4862.000
140.8300, 4668.000
142.0640, 4612.000
143.2980, 4542.000
144.5320, 4596.000
145.7650, 4630.000
146.9990, 4672.000
148.2320, 4523.000
149.4650, 4505.000
150.6980, 4561.056
151.9300, 4523.000
153.1630, 4631.000
154.3950, 4537.000
155.6270, 4422.000
156.8590, 4487.000
158.0900, 4397.000
159.3220, 4415.000
160.5530, 4508.000
161.7840, 4502.000
163.0150, 4543.000
164.2460, 4517.666
165.4770, 4408.000
166.7070, 4432.000
167.9370, 4323.000
169.1670, 4277.000
170.3970, 4472.000
171.6270, 4474.000
172.8560, 4382.000
174.0860, 4434.000
175.3150, 4359.000
176.5440, 4316.000
177.7720, 4289.000
179.0010, 4272.000
180.2290, 4170.842
181.4580, 4212.216
182.6860, 4333.874
183.9130, 4401.617
185.1410, 4418.342
186.3690, 4231.246
187.5960, 4307.343
188.8230, 4277.965
190.0500, 4244.262
191.2770, 4357.403
192.5030, 4199.955
193.7290, 4310.768
194.9560, 4215.761
196.1820, 4350.817
197.4070, 4431.949
198.6330, 4462.073
199.8580, 4288.367
201.0840, 4377.862
202.3090, 4361.873
203.5340, 4341.558
204.7580, 4468.078
205.9830, 4324.017
207.2070, 4448.208
208.4310, 4465.313
209.6550, 4531.429
210.8790, 4491.418
212.1030, 4484.186
213.3260, 4583.105
214.5490, 4566.000
215.7720, 4668.000
216.9950, 4700.000
218.2180, 4688.000
219.4410, 4776.000
220.6630, 4688.000
221.8850, 4879.000
223.1070, 4906.000
224.3290, 4882.000
225.5500, 5075.000
226.7720, 5064.000
227.9930, 5326.000
229.2140, 5289.000
230.4350, 5490.000
231.6560, 5696.000
232.8760, 6119.000
234.0970, 6484.000
235.3170, 7183.000
236.5370, 7929.000
237.7560, 8755.000
238.9760, 9816.000
240.1950, 10850.00
241.4150, 11812.00
242.6340, 12187.00
243.8530, 12497.00
245.0710, 12282.00
246.2900, 11427.00
247.5080, 10311.00
248.7260, 9313.000
249.9440, 8316.000
251.1620, 7571.000
252.3800, 6880.463
253.5970, 6308.546
254.8140, 5891.000
256.0310, 5488.000
257.2480, 5278.000
258.4650, 5040.000
259.6820, 4905.000
260.8980, 4821.000
262.1140, 4744.000
263.3300, 4715.000
264.5460, 4780.000
265.7610, 4711.000
266.9770, 4704.469
268.1920, 4727.419
269.4070, 4665.000
270.6220, 4730.000
271.8370, 4779.000
273.0510, 4733.000
274.2660, 4769.000
275.4800, 4686.000
276.6940, 4707.000
277.9080, 4782.000
279.1210, 4850.000
280.3350, 4793.000
281.5480, 4833.000
282.7610, 4848.000
283.9740, 4920.000
285.1870, 5083.000
286.3990, 5287.000
287.6120, 5359.000
288.8240, 5811.000
290.0360, 6232.000
291.2480, 6860.000
292.4590, 7442.000
293.6710, 8327.000
294.8820, 9191.000
296.0930, 9804.000
297.3040, 10275.00
298.5150, 10782.00
299.7260, 10170.00
300.9360, 9608.000
302.1460, 9430.832
303.3560, 8605.052
304.5660, 8356.025
305.7760, 8053.090
306.9850, 7699.443
308.1950, 7141.651
309.4040, 6679.000
310.6130, 6367.000
311.8220, 6199.000
313.0300, 6111.000
314.2390, 6046.000
315.4470, 5948.000
316.6550, 5957.000
317.8630, 5921.202
319.0710, 5972.000
320.2780, 5950.000
321.4850, 5984.000
322.6930, 6060.000
323.9000, 6056.000
325.1060, 6013.000
326.3130, 6043.000
327.5200, 6098.000
328.7260, 6250.000
329.9320, 6206.000
331.1380, 6400.000
332.3440, 6381.707
333.5490, 6354.000
334.7550, 6413.000
335.9600, 6472.000
337.1650, 6526.000
338.3700, 6610.704
339.5740, 6724.000
340.7790, 6787.000
341.9830, 6892.492
343.1880, 6991.000
344.3910, 7057.000
345.5950, 7164.000
346.7990, 7220.000
348.0020, 7359.000
349.2060, 7555.000
350.4090, 7824.500
351.6120, 8028.323
352.8140, 8243.998
354.0170, 8530.000
355.2190, 8709.000
356.4220, 8953.000
357.6240, 9288.838
358.8250, 9617.000
360.0270, 10200.00
361.2290, 10705.00
362.4300, 11362.00
363.6310, 12146.00
364.8320, 13059.00
366.0330, 14212.00
367.2330, 15604.00
368.4340, 17035.00
369.6340, 18926.00
370.8340, 21084.00
372.0340, 24146.00
373.2340, 27499.00
374.4340, 31438.00
375.6330, 36171.00
376.8320, 41513.00
378.0310, 47388.00
379.2300, 53340.00
380.4290, 59506.00
381.6270, 65048.00
382.8250, 68798.00
384.0240, 71035.00
385.2220, 70779.00
386.4190, 68195.00
387.6170, 64419.00
388.8140, 58816.00
390.0120, 53437.00
391.2090, 48514.00
392.4060, 44196.79
393.6030, 40352.96
394.7990, 36784.00
395.9960, 34083.00
397.1920, 31479.00
398.3880, 29245.00
399.5840, 27123.00
400.7790, 24685.00
401.9750, 22621.99
403.1700, 20615.00
404.3650, 18562.00
405.5600, 16234.00
406.7550, 14638.00
407.9500, 13417.00
409.1440, 12186.00
410.3390, 11619.00
411.5330, 10859.00
412.7270, 10403.00
413.9200, 10141.00
415.1140, 9942.000
416.3070, 9523.000
417.5010, 9176.000
418.6940, 9008.000
419.8870, 8658.000
421.0790, 8390.000
422.2720, 8141.000
423.4640, 7875.042
424.6560, 7740.000
425.8480, 7526.000
427.0400, 7321.000
428.2320, 7392.000
429.4240, 7214.572
430.6150, 7130.435
431.8060, 7093.000
432.9970, 6923.000
434.1880, 6888.000
435.3780, 6790.000
436.5690, 6834.000
437.7590, 6775.336
438.9490, 6611.327
440.1390, 6754.987
441.3290, 6844.732
442.5190, 6883.459
443.7080, 6718.349
444.8970, 6816.431
446.0860, 6809.037
447.2750, 6797.318
448.4640, 6932.443
449.6520, 6796.961
450.8410, 6929.757
452.0290, 6794.657
453.2170, 6976.841
454.4050, 7105.110
455.5930, 7182.361
456.7800, 7055.744
457.9670, 7192.319
459.1550, 7375.000
460.3420, 7568.000
461.5280, 7690.000
462.7150, 7691.332
463.9010, 8119.977
465.0880, 8494.968
466.2740, 8818.674
467.4600, 8938.567
468.6460, 9321.653
469.8310, 9599.005
471.0170, 10170.00
472.2020, 10642.36
473.3870, 11272.00
474.5720, 11794.00
475.7570, 12251.00
476.9410, 12729.00
478.1260, 13049.00
479.3100, 13314.00
480.4940, 13565.00
481.6780, 13313.00
482.8620, 13114.71
484.0450, 12813.00
485.2280, 12206.00
486.4120, 11610.00
487.5950, 11107.00
488.7780, 10447.00
489.9600, 9934.000
491.1430, 9493.000
492.3250, 9037.000
493.5070, 8696.664
494.6890, 8369.000
495.8710, 8152.000
497.0530, 7934.000
498.2340, 7827.000
499.4150, 7541.000
500.5970, 7516.000
501.7780, 7385.000
502.9580, 7329.000
504.1390, 7292.000
505.3190, 7265.268
506.5000, 7318.000
507.6800, 7278.000
508.8600, 7310.000
510.0390, 7307.000
511.2190, 7368.027
512.3980, 7394.811
513.5780, 7527.000
514.7570, 7515.000
515.9360, 7603.070
517.1140, 7742.000
518.2930, 7824.000
519.4710, 7984.561
520.6500, 8245.742
521.8280, 8452.887
523.0060, 8609.014
524.1830, 8561.207
525.3610, 8776.713
526.5380, 9040.000
527.7150, 9494.000
528.8920, 9626.000
530.0690, 10073.00
531.2460, 10575.00
532.4230, 11030.00
533.5990, 11640.00
534.7750, 12589.00
535.9510, 13429.00
537.1270, 14699.00
538.3030, 16033.00
539.4780, 17541.00
540.6530, 19053.00
541.8290, 20928.00
543.0040, 22816.00
544.1780, 24381.00
545.3530, 25877.00
546.5280, 27143.00
547.7020, 27734.00
548.8760, 27749.00
550.0500, 27301.00
551.2240, 26373.00
552.3970, 25099.00
553.5710, 23319.00
554.7440, 21822.00
555.9170, 19865.00
557.0900, 18275.00
558.2630, 16949.00
559.4360, 15397.00
560.6080, 14247.00
561.7800, 13298.00
562.9530, 12484.00
564.1250, 11780.00
565.2960, 11031.00
566.4680, 10434.00
567.6390, 9939.000
568.8110, 9665.000
569.9820, 9341.000
571.1530, 8999.000
572.3230, 8716.000
573.4940, 8436.000
574.6640, 8202.000
575.8350, 8061.000
577.0050, 7964.000
578.1750, 7808.000
579.3440, 7673.000
580.5140, 7607.000
581.6830, 7523.000
582.8530, 7391.000
584.0220, 7403.000
585.1910, 7341.000
586.3590, 7278.000
587.5280, 7266.000
588.6960, 7237.000
589.8650, 7213.000
591.0330, 7217.000
592.2010, 7191.839
593.3680, 7205.000
594.5360, 7169.000
595.7030, 7185.000
596.8710, 7184.000
598.0380, 7219.427
599.2040, 7248.321
600.3710, 7287.000
601.5380, 7325.000
602.7040, 7293.000
603.8700, 7316.000
605.0360, 7270.000
606.2020, 7430.000
607.3680, 7429.000
608.5340, 7277.000
609.6990, 7455.000
610.8640, 7327.000
612.0290, 7380.000
613.1940, 7377.000
614.3590, 7266.000
615.5230, 7371.000
616.6880, 7433.000
617.8520, 7277.000
619.0160, 7429.000
620.1800, 7336.000
621.3440, 7394.000
622.5070, 7354.000
623.6710, 7366.000
624.8340, 7336.157
625.9970, 7375.000
627.1600, 7235.000
628.3220, 7269.000
629.4850, 7188.000
630.6470, 7224.000
631.8100, 7207.000
632.9720, 7126.000
634.1340, 7291.000
635.2950, 7258.000
636.4570, 7243.000
637.6180, 7141.000
638.7790, 7202.000
639.9410, 7101.670
641.1010, 7229.619
642.2620, 7303.656
643.4230, 7326.677
644.5830, 7145.872
645.7430, 7228.260
646.9030, 7205.172
648.0630, 7177.760
649.2230, 7297.191
650.3830, 7146.033
651.5420, 7263.131
652.7010, 7273.145
653.8600, 7332.169
655.0190, 7245.000
656.1780, 7222.000
657.3360, 7235.000
658.4950, 7317.000
659.6530, 7353.000
660.8110, 7367.209
661.9690, 7343.000
663.1270, 7382.000
664.2840, 7354.000
665.4420, 7340.000
666.5990, 7506.000
667.7560, 7473.000
668.9130, 7424.000
670.0700, 7610.000
671.2260, 7582.000
672.3830, 7481.000
673.5390, 7701.000
674.6950, 7562.000
675.8510, 7565.000
677.0070, 7805.000
678.1620, 7683.000
679.3180, 7664.000
680.4730, 7586.000
681.6280, 7659.000
682.7830, 7649.000
683.9380, 7566.000
685.0920, 7427.000
686.2470, 7438.000
687.4010, 7297.000
688.5550, 7318.000
689.7090, 7274.000
690.8630, 7179.000
692.0170, 7111.000
693.1700, 6954.000
694.3230, 6897.000
695.4770, 6912.000
696.6300, 6787.000
697.7820, 6588.000
698.9350, 6620.000
700.0870, 6624.000
701.2400, 6382.000
702.3920, 6548.000
703.5440, 6450.000
704.6960, 6379.000
705.8470, 6402.000
706.9990, 6337.000
708.1500, 6344.000
709.3010, 6445.000
710.4520, 6337.931
711.6030, 6331.888
712.7540, 6222.000
713.9040, 6202.000
715.0550, 6168.000
716.2050, 6107.000
717.3550, 6193.000
718.5050, 6195.000
719.6540, 6162.000
720.8040, 6215.000
721.9530, 6145.946
723.1030, 6078.288
724.2520, 6103.000
725.4000, 6008.000
726.5490, 6120.000
727.6980, 6098.724
728.8460, 6149.000
729.9940, 6110.000
731.1420, 6090.000
732.2900, 6010.000
733.4380, 6169.000
734.5860, 6088.000
735.7330, 6042.000
736.8800, 6114.000
738.0270, 5990.000
739.1740, 5994.000
740.3210, 6075.000
741.4680, 6009.000
742.6140, 5992.000
743.7600, 5983.000
744.9070, 6035.000
746.0520, 5893.000
747.1980, 6051.000
748.3440, 6077.000
749.4890, 5969.000
750.6350, 6022.000
751.7800, 6009.000
752.9250, 6096.000
754.0700, 6066.000
755.2140, 6046.000
756.3590, 6100.000
757.5030, 6053.000
758.6470, 6041.000
759.7910, 6121.000
760.9350, 6075.062
762.0790, 6201.612
763.2220, 6274.245
764.3660, 6295.863
765.5090, 6113.657
766.6520, 6194.644
767.7950, 6170.155
768.9380, 6141.341
770.0800, 6259.368
771.2220, 6106.805
772.3650, 6222.506
773.5070, 6231.119
774.6490, 6288.742
775.7900, 6240.235
776.9320, 6224.511
778.0730, 6314.944
779.2150, 6346.599
780.3560, 6285.875
781.4970, 6346.611
782.6380, 6190.337
783.7780, 6224.489
784.9190, 6340.806
786.0590, 6285.415
787.1990, 6348.088
788.3390, 6365.795
789.4790, 6179.156
790.6190, 6347.897
791.7580, 6362.945
792.8970, 6294.000
794.0370, 6248.958
795.1760, 6199.000
796.3140, 6194.000
797.4530, 6176.000
798.5920, 6121.000
799.7300, 6189.000
800.8680, 6100.000
802.0060, 6133.000
803.1440, 6141.000
804.2820, 6151.000
805.4200, 6117.000
806.5570, 6303.000
807.6940, 6265.175
808.8310, 6162.316
809.9680, 6292.024
811.1050, 6367.818
812.2420, 6392.593
813.3780, 6213.542
814.5140, 6297.684
815.6510, 6276.355
816.7870, 6250.696
817.9220, 6371.875
819.0580, 6222.469
820.1940, 6341.325
821.3290, 6353.090
822.4640, 6413.865
823.5990, 6368.513
824.7340, 6355.940
825.8690, 6449.528
827.0030, 6484.329
828.1380, 6426.759
829.2720, 6490.644
830.4060, 6406.000
831.5400, 6327.909
832.6730, 6462.336
833.8070, 6542.859
834.9410, 6572.364
836.0740, 6398.039
837.2070, 6486.905
838.3400, 6470.297
839.4730, 6449.363
840.6050, 6575.263
841.7380, 6430.582
842.8700, 6554.154
844.0020, 6570.640
845.1340, 6636.136
846.2660, 6595.505
847.3980, 6587.654
848.5290, 6685.954
849.6610, 6725.481
850.7920, 6672.624
851.9230, 6741.226
853.0540, 6592.818
854.1850, 6634.839
855.3150, 6759.012
856.4460, 6711.490
857.5760, 6782.022
858.7060, 6807.590
859.8360, 6628.809
860.9660, 6805.410
862.0950, 6828.309
863.2250, 6693.412
864.3540, 6857.826
865.4830, 6744.674
866.6120, 6730.597
867.7410, 6791.079
868.8700, 6773.835
869.9980, 6879.125
871.1270, 6866.370
872.2550, 6843.057
873.3830, 6865.774
874.5110, 6758.056
875.6380, 6892.312
876.7660, 6861.283
877.8930, 6912.408
879.0210, 6982.167
880.1480, 6940.000
881.2750, 6956.846
882.4020, 6885.000
883.5280, 6941.000
884.6550, 6850.000
885.7810, 6810.000
886.9070, 6838.000
888.0330, 6864.000
889.1590, 6897.000
890.2850, 6995.000
891.4100, 7005.587
892.5360, 6946.000
893.6610, 7073.000
894.7860, 7026.000
895.9110, 7051.000
897.0360, 7067.000
898.1600, 7023.000
899.2850, 7142.000
900.4090, 7108.000
901.5330, 7149.000
902.6570, 7162.000
903.7810, 7142.050
904.9040, 7234.000
906.0280, 7122.000
907.1510, 7206.000
908.2740, 7217.000
909.3980, 7355.000
910.5200, 7338.000
911.6430, 7281.000
912.7660, 7469.000
913.8880, 7370.000
915.0100, 7481.000
916.1320, 7513.000
917.2540, 7551.000
918.3760, 7512.000
919.4980, 7556.000
920.6190, 7611.000
921.7410, 7583.000
922.8620, 7740.000
923.9830, 7830.000
925.1040, 7743.000
926.2240, 7825.000
927.3450, 7857.000
928.4650, 7876.000
929.5850, 7823.000
930.7050, 7888.000
931.8250, 7968.000
932.9450, 7817.000
934.0650, 7973.000
935.1840, 7957.120
936.3030, 8153.000
937.4230, 8053.000
938.5420, 8088.000
939.6600, 8179.000
940.7790, 8122.000
941.8980, 7987.000
943.0160, 8141.000
944.1340, 8106.000
945.2520, 7909.000
946.3700, 8034.000
947.4880, 7923.000
948.6050, 8003.000
949.7230, 8029.000
950.8400, 8046.000
951.9570, 8117.000
953.0740, 8134.000
954.1910, 8076.000
955.3080, 8117.000
956.4240, 8076.000
957.5410, 7982.096
958.6570, 8124.074
959.7730, 8212.139
960.8890, 8249.185
962.0040, 8082.395
963.1200, 8178.813
964.2350, 8169.739
965.3510, 8156.357
966.4660, 8289.803
967.5810, 8152.658
968.6960, 8283.774
969.8100, 8212.000
970.9250, 8254.812
972.0390, 8372.000
973.1530, 8282.000
974.2670, 8224.000
975.3810, 8388.000
976.4950, 8476.000
977.6080, 8549.000
978.7220, 8601.000
979.8350, 8750.000
980.9480, 8782.000
982.0610, 8781.000
983.1740, 9061.000
984.2870, 9140.000
985.3990, 9401.000
986.5120, 9471.000
987.6240, 9647.000
988.7360, 9847.000
989.8480, 10089.00
990.9590, 10223.00
992.0710, 10569.00
993.1820, 10756.00
994.2940, 11052.00
995.4050, 11219.00
996.5160, 11328.00
997.6270, 11516.00
998.7370, 11660.00
999.8480, 11516.00
1000.958, 11329.00
1002.068, 11363.00
1003.178, 11197.00
1004.288, 11008.00
1005.398, 10834.00
1006.508, 10609.00
1007.617, 10416.00
1008.726, 10040.00
1009.835, 9763.000
1010.944, 9688.000
1012.053, 9416.000
1013.162, 9309.000
1014.270, 9149.000
1015.379, 9156.000
1016.487, 8988.000
1017.595, 8931.000
1018.703, 8849.000
1019.811, 8734.000
1020.918, 8720.000
1022.026, 8779.000
1023.133, 8603.000
1024.240, 8645.000
1025.347, 8686.000
1026.454, 8633.024
1027.561, 8650.000
1028.667, 8650.000
1029.774, 8627.000
1030.880, 8638.000
1031.986, 8520.000
1033.092, 8561.000
1034.198, 8570.000
1035.303, 8732.000
1036.409, 8626.000
1037.514, 8726.000
1038.619, 8718.902
1039.724, 8659.473
1040.829, 8713.000
1041.934, 8607.000
1043.039, 8616.000
1044.143, 8699.000
1045.247, 8748.000
1046.351, 8667.000
1047.455, 8679.000
1048.559, 8627.000
1049.663, 8742.000
1050.766, 8708.000
1051.870, 8820.000
1052.973, 8995.000
1054.076, 8817.000
1055.179, 8975.000
1056.282, 8879.000
1057.384, 8986.000
1058.487, 8997.000
1059.589, 9015.000
1060.691, 9099.000
1061.793, 9112.000
1062.895, 9077.000
1063.997, 9203.000
1065.098, 9148.000
1066.200, 9295.000
1067.301, 9263.000
1068.402, 9298.000
1069.503, 9291.000
1070.604, 9378.000
1071.704, 9378.000
1072.805, 9412.000
1073.905, 9432.000
1075.005, 9596.000
1076.105, 9642.000
1077.205, 9632.000
1078.305, 9627.469
1079.405, 9848.744
1080.504, 10016.02
1081.603, 10132.27
1082.702, 10044.71
1083.801, 10220.34
1084.900, 10290.49
1085.999, 10356.32
1087.098, 10568.99
1088.196, 10510.99
1089.294, 10721.24
1090.392, 10824.41
1091.490, 10976.59
1092.588, 11022.65
1093.686, 11101.49
1094.783, 11215.84
1095.880, 11340.94
1096.978, 11401.00
1098.075, 11532.00
1099.172, 11586.00
1100.268, 11728.00
1101.365, 11733.07
1102.461, 11915.87
1103.558, 12044.81
1104.654, 12122.69
1105.750, 11996.73
1106.846, 12133.97
1107.941, 12165.69
1109.037, 12159.73
1110.132, 12309.87
1111.228, 12397.46
1112.323, 12425.35
1113.418, 12240.77
1114.512, 12310.74
1115.607, 12266.58
1116.702, 12209.44
1117.796, 12290.53
1118.890, 12092.39
1119.984, 12153.88
1121.078, 12099.64
1122.172, 11983.00
1123.266, 11733.00
1124.359, 11613.00
1125.452, 11510.00
1126.545, 11315.00
1127.638, 11361.00
1128.731, 11207.00
1129.824, 11098.00
1130.917, 11112.00
1132.009, 10909.00
1133.101, 10821.00
1134.193, 10738.00
1135.285, 10646.77
1136.377, 10556.24
1137.469, 10521.00
1138.561, 10397.00
1139.652, 10279.00
1140.743, 10254.00
1141.834, 10234.00
1142.925, 10200.00
1144.016, 10217.00
1145.107, 10202.00
1146.197, 10090.00
1147.287, 10103.00
1148.378, 10210.00
1149.468, 10047.00
1150.558, 10138.00
1151.647, 10159.00
1152.737, 10132.00
1153.826, 10117.00
1154.916, 10111.00
1156.005, 10040.00
1157.094, 10068.43
1158.183, 10163.00
1159.272, 10159.00
1160.360, 10100.00
1161.449, 10283.00
1162.537, 10091.00
1163.625, 10278.00
1164.713, 10442.00
1165.801, 10343.00
1166.889, 10439.00
1167.976, 10504.00
1169.064, 10522.00
1170.151, 10607.00
1171.238, 10702.00
1172.325, 10755.00
1173.412, 10621.00
1174.498, 10752.00
1175.585, 10811.00
1176.671, 10688.66
1177.757, 10876.16
1178.844, 11009.81
1179.929, 11092.31
1181.015, 10971.06
1182.101, 11113.00
1183.186, 11149.41
1184.272, 11181.54
1185.357, 11360.47
1186.442, 11268.80
1187.527, 11445.39
1188.612, 11514.91
1189.696, 11633.37
1190.781, 11645.76
1191.865, 11690.87
1192.949, 11842.14
1194.033, 11934.63
1195.117, 11934.75
1196.201, 12056.33
1197.284, 11960.83
1198.368, 12055.83
1199.451, 12232.92
1200.534, 12238.32
1201.617, 12361.77
1202.700, 12440.26
1203.783, 12314.40
1204.866, 12543.93
1205.948, 12619.70
1207.030, 12537.67
1208.112, 12754.96
1209.194, 12694.68
1210.276, 12733.48
1211.358, 12846.83
1212.439, 12882.40
1213.521, 13040.58
1214.602, 13080.64
1215.683, 13129.11
1216.764, 13307.87
1217.845, 13314.91
1218.926, 13440.03
1220.006, 13520.11
1221.087, 13447.00
1222.167, 13497.00
1223.247, 13537.00
1224.327, 13565.92
1225.407, 13475.00
1226.486, 13500.00
1227.566, 13548.00
1228.645, 13409.00
1229.724, 13603.00
1230.804, 13580.00
1231.882, 13561.00
1232.961, 13659.00
1234.040, 13699.00
1235.118, 13751.00
1236.197, 13940.00
1237.275, 13681.00
1238.353, 13618.00
1239.431, 13884.00
1240.509, 13847.00
1241.586, 13950.00
1242.664, 13948.00
1243.741, 13871.00
1244.818, 14139.00
1245.895, 14005.00
1246.972, 14227.00
1248.049, 14217.00
1249.126, 14237.00
1250.202, 14161.00
1251.279, 14159.00
1252.355, 14235.00
1253.431, 14288.00
1254.507, 14448.00
1255.582, 14422.00
1256.658, 14515.52
1257.733, 14605.00
1258.809, 14591.00
1259.884, 14680.00
1260.959, 14660.00
1262.034, 14860.00
1263.109, 14842.00
1264.183, 14959.00
1265.258, 14833.00
1266.332, 15098.00
1267.406, 14972.00
1268.480, 15071.00
1269.554, 15191.00
1270.628, 15460.00
1271.701, 15391.68
1272.775, 15461.38
1273.848, 15369.00
1274.921, 15403.00
1275.994, 15477.00
1277.067, 15463.00
1278.140, 15608.00
1279.213, 15489.00
1280.285, 15664.00
1281.357, 15612.00
1282.430, 15903.00
1283.502, 15812.00
1284.573, 15806.00
1285.645, 15919.00
1286.717, 15891.00
1287.788, 16024.00
1288.859, 15983.27
1289.931, 16164.60
1291.002, 16284.75
1292.073, 16346.68
1293.143, 16197.54
1294.214, 16304.44
1295.284, 16298.63
1296.355, 16281.32
1297.425, 16403.64
1298.495, 16248.18
1299.565, 16353.78
1300.634, 16345.13
1301.704, 16378.28
1302.773, 16298.15
1303.843, 16243.57
1304.912, 16288.01
1305.981, 16266.49
1307.050, 16282.00
1308.119, 16207.00
1309.187, 16153.00
1310.256, 16081.00
1311.324, 16138.00
1312.392, 15995.00
1313.460, 16067.00
1314.528, 15841.00
1315.596, 15792.00
1316.663, 15853.00
1317.731, 15637.00
1318.798, 15655.00
1319.865, 15454.00
1320.932, 15306.00
1321.999, 15259.85
1323.066, 15274.27
1324.132, 15234.88
1325.199, 15144.36
1326.265, 14850.12
1327.331, 14819.07
1328.397, 14682.56
1329.463, 14541.71
1330.529, 14547.70
1331.595, 14283.11
1332.660, 14286.87
1333.726, 14183.46
1334.791, 14031.00
1335.856, 13729.00
1336.921, 13760.00
1337.985, 13635.00
1339.050, 13365.00
1340.115, 13455.00
1341.179, 13285.98
1342.243, 13293.00
1343.307, 12995.40
1344.371, 12999.27
1345.435, 12949.21
1346.498, 12848.26
1347.562, 12543.38
1348.625, 12501.79
1349.689, 12354.62
1350.752, 12203.23
1351.815, 12198.69
1352.877, 11923.66
1353.940, 11916.79
1355.002, 11788.13
1356.065, 11750.86
1357.127, 11553.00
1358.189, 11578.00
1359.251, 11381.00
1360.313, 11258.63
1361.375, 11178.55
1362.436, 11144.00
1363.497, 10958.00
1364.559, 10926.22
1365.620, 10801.42
1366.681, 10766.00
1367.742, 10606.00
1368.802, 10485.00
1369.863, 10441.00
1370.923, 10189.00
1371.983, 10151.00
1373.044, 10205.00
1374.104, 10036.00
1375.163, 10040.00
1376.223, 9878.000
1377.283, 9796.000
1378.342, 9834.000
1379.401, 9606.000
1380.460, 9623.000
1381.519, 9644.000
1382.578, 9473.000
1383.637, 9455.000
1384.696, 9425.186
1385.754, 9337.726
1386.812, 9356.000
1387.871, 9301.000
1388.929, 9198.000
1389.986, 9309.000
1391.044, 9130.000
1392.102, 9030.000
1393.159, 9031.000
1394.217, 9068.000
1395.274, 9109.000
1396.331, 9023.000
1397.388, 9014.000
1398.444, 8905.000
1399.501, 8971.000
1400.558, 8735.000
1401.614, 8779.000
1402.670, 8728.000
1403.726, 8795.000
1404.782, 8770.000
1405.838, 8805.000
1406.894, 8805.000
1407.949, 8856.257
1409.004, 8891.000
1410.060, 8899.000
1411.115, 8698.000
1412.170, 8530.318
1413.224, 8692.000
1414.279, 8869.000
1415.334, 8719.000
1416.388, 8765.000
1417.442, 8670.000
1418.496, 8753.000
1419.550, 8854.000
1420.604, 8832.000
1421.658, 8821.000
1422.712, 8836.000
1423.765, 8691.000
1424.818, 8839.000
1425.871, 8821.000
1426.924, 8835.394
1427.977, 9034.000
1429.030, 8908.000
1430.083, 8831.000
1431.135, 8869.000
1432.187, 8943.000
1433.240, 8949.000
1434.292, 9012.000
1435.344, 9069.000
1436.395, 9075.000
1437.447, 9106.000
1438.499, 9049.000
1439.550, 9106.857
1440.601, 9184.000
1441.652, 9153.000
1442.703, 9234.000
1443.754, 9201.000
1444.805, 9260.000
1445.855, 9210.000
1446.906, 9384.000
1447.956, 9332.000
1449.006, 9354.000
1450.056, 9403.244
1451.106, 9387.000
1452.155, 9452.000
1453.205, 9391.000
1454.254, 9453.000
1455.304, 9382.000
1456.353, 9533.000
1457.402, 9369.000
1458.451, 9453.000
1459.499, 9333.000
1460.548, 9304.000
1461.597, 9281.000
1462.645, 9292.000
1463.693, 9171.948
1464.741, 9282.479
1465.789, 9339.094
1466.837, 9344.689
1467.884, 9146.479
1468.932, 9211.447
1469.979, 9170.952
1471.027, 9126.121
1472.074, 9228.146
1473.121, 9059.579
1474.167, 9159.286
1475.214, 9151.896
1476.261, 9193.517
1477.307, 9129.021
1478.353, 9097.306
1479.400, 9171.739
1480.446, 9090.000
1481.491, 9065.000
1482.537, 9069.000
1483.583, 9029.702
1484.628, 9038.000
1485.673, 8956.375
1486.719, 8904.407
1487.764, 8887.000
1488.809, 8796.000
1489.853, 8818.000
1490.898, 8821.000
1491.943, 8715.000
1492.987, 8716.274
1494.031, 8698.000
1495.075, 8676.000
1496.119, 8631.000
1497.163, 8638.923
1498.207, 8649.563
1499.250, 8668.000
1500.294, 8677.000
1501.337, 8746.000
1502.380, 8695.000
1503.423, 8790.000
1504.466, 8725.908
1505.509, 8561.000
1506.551, 8623.000
1507.594, 8587.000
1508.636, 8538.000
1509.678, 8630.000
1510.720, 8629.000
1511.762, 8674.000
1512.804, 8701.000
1513.846, 8667.000
1514.887, 8621.000
1515.929, 8806.000
1516.970, 8697.292
1518.011, 8591.000
1519.052, 8715.000
1520.093, 8569.000
1521.133, 8757.000
1522.174, 8628.000
1523.214, 8547.000
1524.255, 8630.000
1525.295, 8611.000
1526.335, 8574.000
1527.375, 8598.000
1528.414, 8661.000
1529.454, 8573.000
1530.494, 8633.771
1531.533, 8739.000
1532.572, 8656.000
1533.611, 8706.000
1534.650, 8692.000
1535.689, 8696.000
1536.728, 8764.000
1537.766, 8813.000
1538.805, 8744.000
1539.843, 8764.000
1540.881, 8693.000
1541.919, 8727.000
1542.957, 8763.000
1543.995, 8708.000
1545.032, 8675.000
1546.070, 8823.000
1547.107, 8859.000
1548.144, 8881.134
1549.181, 9000.000
1550.218, 8944.979
1551.255, 9017.820
1552.292, 9083.000
1553.328, 9183.000
1554.364, 9225.000
1555.401, 9174.575
1556.437, 9207.000
1557.473, 9032.000
1558.509, 8916.000
1559.544, 8876.000
1560.580, 8878.000
1561.615, 8786.000
1562.651, 8930.000
1563.686, 8932.000
1564.721, 8828.000
1565.756, 8922.000
1566.791, 8788.000
1567.825, 8770.000
1568.860, 8780.389
1569.894, 8723.410
1570.928, 8834.000
1571.963, 8741.000
1572.997, 8894.000
1574.030, 9009.000
1575.064, 8911.000
1576.098, 8874.000
1577.131, 8973.000
1578.164, 8918.000
1579.198, 8913.000
##END=



