##NAMES=Goethite
##RRUFFID=R050142
##IDEAL CHEMISTRY=Fe^3+^O(OH)
##LOCALITY=Park County, Colorado, USA
##OWNER=RRUFF
##SOURCE=Dave Bunk Minerals
##DESCRIPTION=Radiating spray of black to brown platy crystals
##STATUS=The identification of this mineral has been confirmed by X-ray diffraction and chemical analysis
##URL=rruff.info/R050142
##MEASURED CHEMISTRY=FeO(OH)
##PIN_ID=M00281
##ORIENTATION=Laser parallel to a* (1 0 0). Fiducial mark perpendicular to laser is parallel to b [0 1 0]
94.49800, 3131.000
95.73900, 2859.000
96.98000, 2720.000
98.22000, 2858.000
99.46100, 2877.000
100.7010, 3043.317
101.9410, 3275.000
103.1810, 3684.000
104.4210, 4284.000
105.6600, 5074.000
106.9000, 5734.000
108.1390, 5975.000
109.3780, 6205.000
110.6170, 6320.000
111.8550, 6515.000
113.0940, 6697.000
114.3320, 6868.000
115.5700, 7313.000
116.8080, 7391.000
118.0460, 7237.172
119.2830, 6985.492
120.5210, 6724.975
121.7580, 6456.528
122.9950, 6155.514
124.2320, 5896.553
125.4690, 5620.740
126.7050, 5344.454
127.9410, 5091.632
129.1780, 4795.356
130.4140, 4753.000
131.6490, 4677.000
132.8850, 4694.000
134.1200, 4565.000
135.3560, 4536.000
136.5910, 4674.000
137.8260, 4853.000
139.0610, 4818.000
140.2950, 4698.000
141.5290, 4654.000
142.7640, 4554.000
143.9980, 4572.000
145.2320, 4587.000
146.4650, 4594.000
147.6990, 4576.513
148.9320, 4574.470
150.1650, 4549.000
151.3980, 4526.000
152.6310, 4563.000
153.8640, 4503.213
155.0960, 4529.411
156.3280, 4490.000
157.5600, 4544.000
158.7920, 4554.000
160.0240, 4554.000
161.2560, 4592.000
162.4870, 4769.000
163.7180, 4715.000
164.9490, 4719.000
166.1800, 4681.000
167.4110, 4629.651
168.6410, 4570.000
169.8720, 4530.000
171.1020, 4503.182
172.3320, 4530.000
173.5620, 4483.000
174.7910, 4507.000
176.0210, 4535.000
177.2500, 4508.000
178.4790, 4367.000
179.7080, 4412.000
180.9370, 4453.000
182.1650, 4560.000
183.3940, 4480.000
184.6220, 4569.000
185.8500, 4534.000
187.0780, 4478.000
188.3050, 4474.000
189.5330, 4478.309
190.7600, 4538.000
191.9870, 4536.000
193.2140, 4527.000
194.4410, 4573.000
195.6680, 4511.279
196.8940, 4568.320
198.1200, 4606.445
199.3470, 4626.683
200.5720, 4575.392
201.7980, 4616.448
203.0240, 4620.500
204.2490, 4623.024
205.4740, 4677.065
206.6990, 4636.174
207.9240, 4689.398
209.1490, 4705.053
210.3740, 4737.902
211.5980, 4733.000
212.8220, 4771.000
214.0460, 4785.062
215.2700, 4829.575
216.4930, 4837.000
217.7170, 4897.000
218.9400, 4944.000
220.1630, 4942.000
221.3860, 4950.000
222.6090, 5036.000
223.8320, 5020.000
225.0540, 5007.000
226.2760, 5103.000
227.4980, 5273.000
228.7200, 5333.226
229.9420, 5318.000
231.1630, 5588.000
232.3850, 5725.000
233.6060, 5888.000
234.8270, 6231.000
236.0480, 6562.000
237.2690, 7130.000
238.4890, 7736.000
239.7090, 8805.000
240.9290, 8870.000
242.1490, 9208.000
243.3690, 9417.000
244.5890, 9295.000
245.8080, 9115.000
247.0270, 8617.000
248.2470, 8166.000
249.4650, 7607.000
250.6840, 7053.000
251.9030, 6567.000
253.1210, 6373.000
254.3390, 5947.987
255.5570, 5708.989
256.7750, 5454.000
257.9930, 5280.000
259.2100, 5212.000
260.4280, 5090.000
261.6450, 5039.000
262.8620, 5050.000
264.0790, 5022.840
265.2950, 5038.069
266.5120, 5044.680
267.7280, 5043.143
268.9440, 5009.039
270.1600, 5016.988
271.3760, 5008.083
272.5920, 4998.488
273.8070, 5015.636
275.0220, 5028.312
276.2370, 5061.000
277.4520, 5072.000
278.6670, 5131.000
279.8820, 5244.000
281.0960, 5330.000
282.3100, 5346.000
283.5240, 5382.000
284.7380, 5486.000
285.9520, 5626.000
287.1650, 5786.000
288.3780, 6178.000
289.5920, 6620.000
290.8050, 7179.483
292.0170, 7950.000
293.2300, 8596.000
294.4430, 9377.000
295.6550, 10230.00
296.8670, 11050.00
298.0790, 11355.00
299.2910, 11478.07
300.5020, 11474.93
301.7140, 11173.00
302.9250, 10862.00
304.1360, 10758.00
305.3470, 10358.00
306.5580, 9528.000
307.7680, 8715.000
308.9780, 8539.000
310.1890, 8091.000
311.3990, 7839.000
312.6090, 7525.000
313.8180, 7398.000
315.0280, 7297.000
316.2370, 7112.000
317.4460, 7158.000
318.6550, 7167.000
319.8640, 7175.000
321.0730, 7203.000
322.2810, 7239.000
323.4890, 7306.000
324.6980, 7317.000
325.9060, 7400.157
327.1130, 7559.000
328.3210, 7584.000
329.5280, 7633.000
330.7360, 7796.000
331.9430, 7848.370
333.1500, 7969.178
334.3560, 8073.000
335.5630, 8232.000
336.7690, 8389.000
337.9760, 8605.000
339.1820, 8870.000
340.3870, 9050.649
341.5930, 9134.000
342.7990, 9461.000
344.0040, 9539.000
345.2090, 9695.000
346.4140, 10105.00
347.6190, 10338.00
348.8240, 10653.00
350.0280, 11066.00
351.2330, 11404.00
352.4370, 11866.94
353.6410, 12510.00
354.8440, 12846.00
356.0480, 13637.00
357.2520, 14219.00
358.4550, 15083.00
359.6580, 16111.00
360.8610, 17156.00
362.0640, 18280.00
363.2660, 20011.00
364.4690, 22015.00
365.6710, 24914.00
366.8730, 26398.00
368.0750, 29642.00
369.2770, 33370.00
370.4780, 37744.00
371.6800, 43222.00
372.8810, 49356.00
374.0820, 57445.00
375.2830, 66109.00
376.4830, 76974.00
377.6840, 89868.00
378.8840, 103873.0
380.0840, 116419.0
381.2840, 128234.0
382.4840, 138719.0
383.6840, 145917.0
384.8830, 149227.0
386.0830, 148613.0
387.2820, 143350.0
388.4810, 134555.0
389.6800, 123482.0
390.8780, 111266.0
392.0770, 98918.00
393.2750, 87225.00
394.4730, 76301.00
395.6710, 67231.00
396.8690, 59596.00
398.0660, 52926.00
399.2640, 47865.00
400.4610, 42571.00
401.6580, 38168.00
402.8550, 33802.00
404.0520, 30261.00
405.2490, 26747.00
406.4450, 23849.00
407.6410, 21239.00
408.8370, 19231.00
410.0330, 17429.13
411.2290, 16529.00
412.4240, 14927.00
413.6200, 13978.00
414.8150, 13319.00
416.0100, 12610.00
417.2050, 11941.00
418.4000, 11590.00
419.5940, 11028.00
420.7880, 10757.00
421.9830, 10360.00
423.1770, 9803.000
424.3700, 9440.000
425.5640, 9067.270
426.7580, 8898.000
427.9510, 8480.000
429.1440, 8396.000
430.3370, 8283.000
431.5300, 7887.000
432.7220, 7791.000
433.9150, 7807.000
435.1070, 7595.000
436.2990, 7394.218
437.4910, 7382.685
438.6830, 7352.234
439.8750, 7303.887
441.0660, 7184.078
442.2570, 7156.606
443.4480, 7092.128
444.6390, 7026.134
445.8300, 7011.657
447.0210, 6902.249
448.2110, 6887.000
449.4010, 6977.000
450.5910, 6857.000
451.7810, 6880.000
452.9710, 6801.000
454.1610, 6924.000
455.3500, 6919.000
456.5390, 6876.000
457.7280, 6890.000
458.9170, 6968.166
460.1060, 6999.000
461.2940, 7157.000
462.4830, 7268.000
463.6710, 7331.000
464.8590, 7578.000
466.0470, 7644.000
467.2350, 7702.000
468.4220, 8115.000
469.6090, 8318.000
470.7970, 8667.000
471.9840, 9019.920
473.1700, 9333.132
474.3570, 9766.000
475.5440, 10035.00
476.7300, 10474.00
477.9160, 10798.00
479.1020, 10851.00
480.2880, 11086.00
481.4740, 11092.00
482.6590, 10947.00
483.8440, 10769.00
485.0300, 10480.00
486.2140, 10035.00
487.3990, 9722.000
488.5840, 9277.000
489.7680, 8875.000
490.9530, 8655.000
492.1370, 8256.000
493.3210, 8014.000
494.5040, 7756.966
495.6880, 7607.163
496.8720, 7222.000
498.0550, 7390.000
499.2380, 7042.000
500.4210, 6838.000
501.6040, 6825.000
502.7860, 6659.000
503.9690, 6537.000
505.1510, 6600.000
506.3330, 6547.000
507.5150, 6494.000
508.6970, 6521.000
509.8780, 6467.000
511.0600, 6506.000
512.2410, 6536.000
513.4220, 6473.000
514.6030, 6495.000
515.7840, 6521.700
516.9640, 6545.854
518.1440, 6620.000
519.3250, 6650.000
520.5050, 6744.000
521.6850, 6789.000
522.8640, 6939.000
524.0440, 7028.000
525.2230, 7094.000
526.4020, 7109.000
527.5820, 7413.000
528.7600, 7533.000
529.9390, 7752.000
531.1180, 7960.000
532.2960, 8153.000
533.4740, 8560.000
534.6520, 8874.000
535.8300, 9492.000
537.0080, 10063.00
538.1850, 10661.00
539.3630, 11523.00
540.5400, 12473.00
541.7170, 13515.00
542.8940, 14677.00
544.0700, 15660.00
545.2470, 16893.00
546.4230, 17773.00
547.5990, 18551.00
548.7750, 18749.00
549.9510, 18920.00
551.1270, 18713.00
552.3020, 18248.00
553.4780, 17676.00
554.6530, 16787.00
555.8280, 15886.00
557.0030, 14944.00
558.1770, 14063.00
559.3520, 13330.00
560.5260, 12506.00
561.7000, 11709.00
562.8740, 11162.00
564.0480, 10711.00
565.2220, 10273.00
566.3950, 9986.000
567.5680, 9633.000
568.7420, 9353.890
569.9150, 9052.000
571.0870, 8892.000
572.2600, 8710.000
573.4320, 8576.000
574.6050, 8397.519
575.7770, 8277.000
576.9490, 8082.192
578.1210, 7975.000
579.2920, 7865.000
580.4640, 7864.000
581.6350, 7859.000
582.8060, 7812.528
583.9770, 7767.328
585.1480, 7783.257
586.3190, 7790.571
587.4890, 7789.737
588.6590, 7756.335
589.8290, 7764.987
590.9990, 7756.786
592.1690, 7747.894
593.3390, 7762.465
594.5080, 7716.000
595.6770, 7689.000
596.8470, 7753.000
598.0160, 7656.636
599.1840, 7721.717
600.3530, 7770.026
601.5210, 7809.000
602.6900, 7899.000
603.8580, 7979.000
605.0260, 8008.000
606.1930, 7946.000
607.3610, 8019.000
608.5280, 8001.318
609.6960, 8004.000
610.8630, 8007.000
612.0300, 8014.000
613.1970, 8019.840
614.3630, 8008.646
615.5300, 8036.000
616.6960, 8028.000
617.8620, 8036.000
619.0280, 8066.000
620.1940, 8124.000
621.3590, 7999.000
622.5250, 8044.293
623.6900, 8155.475
624.8550, 8258.043
626.0200, 8352.464
627.1850, 8414.313
628.3490, 8518.140
629.5140, 8440.000
630.6780, 9068.000
631.8420, 8820.000
633.0060, 9095.000
634.1700, 9021.000
635.3330, 8557.000
636.4970, 8760.000
637.6600, 8245.000
638.8230, 8296.000
639.9860, 8255.000
641.1490, 8340.591
642.3110, 8144.232
643.4740, 7939.072
644.6360, 7725.958
645.7980, 7856.000
646.9600, 7748.000
648.1220, 7808.499
649.2840, 7851.071
650.4450, 7874.729
651.6060, 7880.488
652.7670, 7814.741
653.9280, 7841.329
655.0890, 7830.914
656.2500, 7818.981
657.4100, 7858.566
658.5700, 7803.219
659.7300, 7841.987
660.8900, 7859.609
662.0500, 7851.714
663.2100, 7841.000
664.3690, 7871.000
665.5280, 7779.000
666.6880, 7925.000
667.8460, 7845.000
669.0050, 7792.000
670.1640, 7837.826
671.3220, 7869.303
672.4810, 7881.855
673.6390, 7876.520
674.7970, 7799.677
675.9540, 7815.181
677.1120, 7793.670
678.2690, 7770.652
679.4270, 7799.141
680.5840, 7732.709
681.7410, 7760.392
682.8980, 7750.506
684.0540, 7757.824
685.2110, 7727.900
686.3670, 7709.485
687.5230, 7554.000
688.6790, 7477.000
689.8350, 7430.000
690.9900, 7415.000
692.1460, 7365.000
693.3010, 7239.000
694.4560, 7184.679
695.6110, 7162.802
696.7660, 7122.013
697.9210, 7063.322
699.0750, 6933.184
700.2290, 6895.381
701.3840, 6820.519
702.5370, 6744.249
703.6910, 6719.442
704.8450, 6599.704
705.9980, 6660.000
707.1520, 6593.000
708.3050, 6572.000
709.4580, 6621.000
710.6110, 6530.000
711.7630, 6486.000
712.9160, 6427.000
714.0680, 6406.000
715.2200, 6394.000
716.3720, 6357.812
717.5240, 6347.107
718.6760, 6311.000
719.8270, 6312.000
720.9780, 6285.000
722.1300, 6262.000
723.2810, 6311.000
724.4310, 6233.000
725.5820, 6228.000
726.7330, 6349.000
727.8830, 6291.000
729.0330, 6382.000
730.1830, 6217.000
731.3330, 6302.000
732.4830, 6249.000
733.6320, 6269.000
734.7810, 6267.987
735.9310, 6165.000
737.0800, 6260.000
738.2290, 6209.603
739.3770, 6242.847
740.5260, 6226.000
741.6740, 6240.000
742.8220, 6203.000
743.9700, 6226.000
745.1180, 6205.823
746.2660, 6206.517
747.4130, 6167.000
748.5610, 6208.000
749.7080, 6165.000
750.8550, 6157.000
752.0020, 6142.000
753.1490, 6118.000
754.2950, 6095.000
755.4420, 6219.000
756.5880, 6083.000
757.7340, 6171.000
758.8800, 6226.000
760.0250, 6151.000
761.1710, 6124.000
762.3160, 6241.000
763.4620, 6193.000
764.6070, 6171.000
765.7520, 6058.000
766.8960, 6186.000
768.0410, 6240.000
769.1850, 6301.000
770.3300, 6247.556
771.4740, 6317.000
772.6180, 6125.000
773.7610, 6238.000
774.9050, 6313.000
776.0480, 6208.000
777.1920, 6296.000
778.3350, 6217.112
779.4780, 6256.791
780.6200, 6277.557
781.7630, 6280.422
782.9060, 6211.780
784.0480, 6235.477
785.1900, 6222.170
786.3320, 6207.346
787.4740, 6244.039
788.6150, 6185.803
789.7570, 6221.679
790.8980, 6219.989
792.0390, 6235.493
793.1800, 6213.765
794.3210, 6203.536
795.4620, 6230.552
796.6020, 6236.949
797.7420, 6230.000
798.8830, 6298.000
800.0230, 6293.000
801.1620, 6344.000
802.3020, 6179.000
803.4420, 6280.000
804.5810, 6201.000
805.7200, 6266.000
806.8590, 6189.000
807.9980, 6182.000
809.1370, 6279.000
810.2750, 6224.000
811.4140, 6210.000
812.5520, 6269.357
813.6900, 6321.381
814.8280, 6354.489
815.9650, 6369.692
817.1030, 6313.395
818.2400, 6349.426
819.3780, 6348.461
820.5150, 6345.972
821.6520, 6394.999
822.7880, 6349.088
823.9250, 6397.298
825.0610, 6407.932
826.1980, 6435.768
827.3340, 6426.363
828.4700, 6428.459
829.6050, 6467.792
830.7410, 6486.509
831.8760, 6472.811
833.0120, 6501.732
834.1470, 6454.512
835.2820, 6474.100
836.4160, 6522.505
837.5510, 6510.679
838.6860, 6365.000
839.8200, 6440.000
840.9540, 6416.000
842.0880, 6452.000
843.2220, 6552.000
844.3550, 6456.000
845.4890, 6533.000
846.6220, 6456.000
847.7550, 6492.000
848.8880, 6401.345
850.0210, 6579.811
851.1540, 6685.769
852.2860, 6723.105
853.4190, 6486.344
854.5510, 6603.526
855.6830, 6578.859
856.8150, 6548.376
857.9460, 6715.364
859.0780, 6518.460
860.2090, 6682.316
861.3410, 6702.170
862.4720, 6787.925
863.6020, 6730.943
864.7330, 6718.055
865.8640, 6847.939
866.9940, 6898.757
868.1240, 6825.346
869.2540, 6915.278
870.3840, 6713.365
871.5140, 6767.551
872.6440, 6932.231
873.7730, 6865.984
874.9020, 6958.515
876.0320, 6990.586
877.1600, 6747.816
878.2890, 6982.994
879.4180, 7011.479
880.5460, 6827.727
881.6750, 7046.528
882.8030, 6892.033
883.9310, 6870.779
885.0590, 6949.795
886.1860, 6924.270
887.3140, 6954.219
888.4410, 7044.072
889.5680, 6995.000
890.6950, 6995.000
891.8220, 7022.000
892.9490, 7024.307
894.0750, 7027.974
895.2020, 7042.000
896.3280, 7046.000
897.4540, 7057.000
898.5800, 7064.281
899.7050, 7116.000
900.8310, 7085.000
901.9560, 7116.000
903.0820, 7142.992
904.2070, 7105.000
905.3320, 7236.000
906.4560, 7123.741
907.5810, 7321.873
908.7050, 7447.469
909.8300, 7504.482
910.9540, 7287.357
912.0780, 7424.188
913.2010, 7419.141
914.3250, 7408.306
915.4480, 7594.925
916.5720, 7417.671
917.6950, 7637.000
918.8180, 7566.000
919.9410, 7728.000
921.0630, 7549.000
922.1860, 7641.000
923.3080, 7864.000
924.4300, 7799.000
925.5520, 7757.000
926.6740, 7906.000
927.7960, 7774.000
928.9170, 7886.000
930.0390, 7902.000
931.1600, 7879.000
932.2810, 8091.000
933.4020, 7989.269
934.5230, 8045.907
935.6430, 7950.000
936.7640, 8056.000
937.8840, 8126.000
939.0040, 8162.000
940.1240, 8209.678
941.2440, 8221.000
942.3630, 8233.000
943.4830, 8235.182
944.6020, 8255.946
945.7210, 8215.000
946.8400, 8179.000
947.9590, 8170.000
949.0770, 8149.000
950.1960, 8135.000
951.3140, 8199.000
952.4320, 8071.000
953.5500, 8189.000
954.6680, 8169.000
955.7860, 8304.000
956.9030, 8293.000
958.0210, 8278.000
959.1380, 8435.000
960.2550, 8315.000
961.3720, 8295.000
962.4890, 8358.000
963.6050, 8429.000
964.7220, 8260.000
965.8380, 8279.000
966.9540, 8433.000
968.0700, 8361.000
969.1860, 8427.000
970.3010, 8442.000
971.4170, 8445.000
972.5320, 8462.000
973.6470, 8588.000
974.7620, 8616.000
975.8770, 8592.000
976.9910, 8567.000
978.1060, 8723.000
979.2200, 8842.000
980.3340, 8939.000
981.4480, 8847.361
982.5620, 9093.000
983.6760, 9047.000
984.7890, 9363.000
985.9030, 9468.839
987.0160, 9741.672
988.1290, 9995.602
989.2420, 10231.62
990.3550, 10455.53
991.4670, 10652.78
992.5800, 10872.64
993.6920, 11072.00
994.8040, 11285.78
995.9160, 11779.00
997.0280, 11863.00
998.1390, 12073.00
999.2510, 12177.00
1000.362, 12182.00
1001.473, 12141.15
1002.584, 12025.93
1003.695, 11804.00
1004.805, 11624.00
1005.916, 11291.00
1007.026, 10989.08
1008.136, 10772.04
1009.246, 10484.00
1010.356, 10248.00
1011.466, 10070.00
1012.576, 9727.000
1013.685, 9662.000
1014.794, 9356.000
1015.903, 9295.000
1017.012, 9192.000
1018.121, 9132.000
1019.229, 9074.000
1020.338, 8935.000
1021.446, 8824.321
1022.554, 8809.976
1023.662, 8782.604
1024.770, 8743.219
1025.878, 8638.212
1026.985, 8631.460
1028.092, 8593.576
1029.200, 8560.035
1030.307, 8583.908
1031.413, 8518.734
1032.520, 8553.537
1033.627, 8557.000
1034.733, 8519.000
1035.839, 8568.000
1036.945, 8587.000
1038.051, 8646.000
1039.157, 8604.551
1040.262, 8711.000
1041.368, 8630.000
1042.473, 8563.000
1043.578, 8818.000
1044.683, 8736.000
1045.788, 8824.000
1046.893, 8760.000
1047.997, 8962.000
1049.101, 8983.000
1050.205, 8919.000
1051.309, 8908.000
1052.413, 9010.000
1053.517, 8975.000
1054.621, 9030.775
1055.724, 9057.175
1056.827, 9129.963
1057.930, 9183.835
1059.033, 9219.805
1060.136, 9184.272
1061.238, 9241.049
1062.341, 9260.845
1063.443, 9279.100
1064.545, 9348.873
1065.647, 9323.711
1066.749, 9392.667
1067.850, 9424.024
1068.952, 9463.457
1070.053, 9520.180
1071.154, 9561.000
1072.255, 9638.000
1073.356, 9661.000
1074.457, 9690.207
1075.557, 9771.188
1076.658, 9790.000
1077.758, 9902.000
1078.858, 9969.000
1079.958, 10003.00
1081.057, 10095.00
1082.157, 10171.82
1083.256, 10118.00
1084.356, 10354.00
1085.455, 10405.00
1086.554, 10485.67
1087.653, 10671.74
1088.751, 10838.76
1089.850, 10988.01
1090.948, 11065.63
1092.046, 11235.58
1093.144, 11368.53
1094.242, 11499.94
1095.340, 11682.89
1096.437, 11770.78
1097.534, 11952.78
1098.632, 12078.93
1099.729, 12279.17
1100.826, 12336.68
1101.922, 12380.00
1103.019, 12397.00
1104.115, 12542.00
1105.212, 12621.00
1106.308, 12721.00
1107.404, 12899.00
1108.499, 12866.00
1109.595, 12996.00
1110.691, 13079.00
1111.786, 13070.00
1112.881, 13129.90
1113.976, 13173.14
1115.071, 13197.46
1116.166, 13203.88
1117.260, 13160.18
1118.355, 13058.84
1119.449, 12997.96
1120.543, 12919.18
1121.637, 12768.89
1122.731, 12710.94
1123.824, 12644.00
1124.918, 12664.00
1126.011, 12516.00
1127.104, 12409.00
1128.197, 12217.00
1129.290, 12150.00
1130.382, 11956.00
1131.475, 11820.16
1132.567, 11798.00
1133.659, 11535.60
1134.751, 11412.48
1135.843, 11305.00
1136.935, 11112.00
1138.027, 11110.00
1139.118, 11029.00
1140.209, 10921.28
1141.300, 10893.57
1142.391, 10781.00
1143.482, 10800.08
1144.573, 10711.92
1145.663, 10643.69
1146.754, 10596.25
1147.844, 10516.08
1148.934, 10566.97
1150.024, 10619.57
1151.113, 10601.07
1152.203, 10578.33
1153.292, 10559.50
1154.381, 10545.53
1155.470, 10543.18
1156.559, 10535.19
1157.648, 10573.32
1158.737, 10559.00
1159.825, 10625.00
1160.913, 10578.00
1162.001, 10547.00
1163.089, 10718.00
1164.177, 10903.00
1165.265, 10947.00
1166.352, 11011.00
1167.440, 11028.00
1168.527, 10990.00
1169.614, 11089.00
1170.701, 11084.00
1171.788, 11193.00
1172.874, 11241.00
1173.961, 11119.00
1175.047, 11409.00
1176.133, 11472.00
1177.219, 11318.00
1178.305, 11464.00
1179.390, 11697.00
1180.476, 11583.00
1181.561, 11613.00
1182.646, 11792.00
1183.731, 11826.00
1184.816, 12003.00
1185.901, 11866.00
1186.985, 12020.00
1188.070, 12206.00
1189.154, 12068.00
1190.238, 12153.00
1191.322, 12174.52
1192.406, 12293.64
1193.489, 12393.77
1194.573, 12476.08
1195.656, 12486.80
1196.739, 12589.87
1197.822, 12655.93
1198.905, 12720.47
1199.988, 12836.54
1201.070, 12857.59
1202.153, 12972.83
1203.235, 13050.44
1204.317, 13145.24
1205.399, 13202.81
1206.481, 13271.87
1207.562, 13378.12
1208.644, 13463.81
1209.725, 13517.01
1210.806, 13612.84
1211.887, 13632.52
1212.968, 13719.02
1214.049, 13834.34
1215.129, 13889.36
1216.209, 13985.79
1217.290, 14145.00
1218.370, 14258.00
1219.450, 14114.00
1220.529, 14356.00
1221.609, 14263.00
1222.688, 14346.00
1223.768, 14338.00
1224.847, 14440.00
1225.926, 14437.59
1227.005, 14457.00
1228.083, 14453.00
1229.162, 14487.06
1230.240, 14548.00
1231.318, 14569.00
1232.396, 14597.00
1233.474, 14665.00
1234.552, 14698.82
1235.629, 14864.00
1236.707, 14778.00
1237.784, 14859.00
1238.861, 14849.22
1239.938, 14831.97
1241.015, 14783.00
1242.092, 14758.00
1243.168, 14843.00
1244.244, 14688.00
1245.321, 14904.00
1246.397, 15011.00
1247.473, 15097.00
1248.548, 14949.00
1249.624, 15111.00
1250.699, 15071.00
1251.775, 15056.00
1252.850, 15251.00
1253.925, 15157.00
1254.999, 15123.04
1256.074, 15333.12
1257.148, 15470.65
1258.223, 15539.62
1259.297, 15334.43
1260.371, 15483.20
1261.445, 15490.12
1262.519, 15491.23
1263.592, 15689.77
1264.666, 15524.45
1265.739, 15719.87
1266.812, 15771.27
1267.885, 15888.58
1268.958, 15863.16
1270.030, 15881.79
1271.103, 16043.23
1272.175, 16125.58
1273.247, 16083.69
1274.319, 16023.00
1275.391, 16039.00
1276.463, 16113.00
1277.535, 16081.63
1278.606, 16225.00
1279.677, 16099.00
1280.748, 16305.00
1281.819, 16326.00
1282.890, 16268.00
1283.961, 16479.00
1285.031, 16372.00
1286.102, 16672.00
1287.172, 16613.00
1288.242, 16624.63
1289.312, 16520.00
1290.381, 16639.00
1291.451, 16625.00
1292.520, 16758.00
1293.590, 16680.00
1294.659, 16593.00
1295.728, 16807.00
1296.797, 16667.82
1297.865, 16810.96
1298.934, 16881.58
1300.002, 16883.61
1301.070, 16611.53
1302.138, 16693.41
1303.206, 16633.43
1304.274, 16567.64
1305.341, 16699.35
1306.409, 16467.14
1307.476, 16457.23
1308.543, 16571.29
1309.610, 16609.53
1310.677, 16575.85
1311.744, 16264.77
1312.810, 16304.39
1313.877, 16198.82
1314.943, 16084.18
1316.009, 16163.73
1317.075, 15876.09
1318.140, 15945.99
1319.206, 15868.51
1320.272, 15853.65
1321.337, 15692.84
1322.402, 15572.84
1323.467, 15592.30
1324.532, 15529.44
1325.596, 15339.15
1326.661, 15308.80
1327.725, 15223.00
1328.790, 15149.00
1329.854, 14996.49
1330.918, 15023.72
1331.981, 14978.56
1333.045, 14864.66
1334.108, 14476.79
1335.172, 14442.75
1336.235, 14266.99
1337.298, 14088.00
1338.361, 13975.00
1339.423, 13912.00
1340.486, 13675.00
1341.548, 13684.00
1342.611, 13447.00
1343.673, 13465.00
1344.735, 13100.00
1345.796, 13263.00
1346.858, 13075.00
1347.919, 12771.00
1348.981, 12723.00
1350.042, 12607.00
1351.103, 12611.00
1352.164, 12419.00
1353.225, 12210.00
1354.285, 12097.00
1355.346, 12026.00
1356.406, 11940.00
1357.466, 11916.00
1358.526, 11687.00
1359.586, 12005.00
1360.645, 11603.03
1361.705, 11646.00
1362.764, 11138.00
1363.823, 11041.00
1364.882, 11070.00
1365.941, 10906.00
1367.000, 10924.00
1368.059, 10592.00
1369.117, 10630.00
1370.175, 10416.00
1371.233, 10432.00
1372.291, 10382.68
1373.349, 10292.84
1374.407, 10229.00
1375.464, 10234.00
1376.522, 9948.000
1377.579, 9990.000
1378.636, 9832.630
1379.693, 9835.000
1380.750, 9655.000
1381.806, 9661.000
1382.863, 9702.000
1383.919, 9597.000
1384.975, 9501.000
1386.031, 9420.000
1387.087, 9321.000
1388.143, 9445.000
1389.199, 9232.000
1390.254, 9319.000
1391.309, 9307.000
1392.364, 9170.604
1393.419, 9109.846
1394.474, 9071.000
1395.529, 9029.073
1396.583, 9028.000
1397.638, 9035.000
1398.692, 8978.000
1399.746, 9016.000
1400.800, 8917.000
1401.853, 8835.000
1402.907, 8804.000
1403.960, 8812.000
1405.014, 8834.000
1406.067, 8813.000
1407.120, 8802.000
1408.173, 8840.000
1409.225, 8766.000
1410.278, 8741.000
1411.330, 8769.147
1412.383, 8680.000
1413.435, 8791.000
1414.487, 8789.000
1415.538, 8751.000
1416.590, 8710.000
1417.641, 8741.000
1418.693, 8729.244
1419.744, 8728.000
1420.795, 8776.000
1421.846, 8785.000
1422.897, 8832.429
1423.947, 8804.000
1424.998, 8900.000
1426.048, 8827.000
1427.098, 8889.000
1428.148, 8887.000
1429.198, 8981.000
1430.247, 8880.789
1431.297, 9068.797
1432.346, 9184.273
1433.396, 9231.163
1434.445, 9003.920
1435.494, 9130.635
1436.542, 9115.477
1437.591, 9094.523
1438.639, 9271.035
1439.688, 9083.661
1440.736, 9257.038
1441.784, 9286.404
1442.832, 9381.680
1443.880, 9334.230
1444.927, 9330.843
1445.975, 9470.248
1447.022, 9530.578
1448.069, 9466.678
1449.116, 9566.123
1450.163, 9373.723
1451.209, 9437.399
1452.256, 9437.000
1453.302, 9550.000
1454.348, 9574.000
1455.394, 9596.000
1456.440, 9540.000
1457.486, 9534.000
1458.532, 9538.000
1459.577, 9619.000
1460.623, 9494.000
1461.668, 9490.000
1462.713, 9403.000
1463.758, 9494.000
1464.802, 9535.000
1465.847, 9425.000
1466.891, 9549.000
1467.936, 9494.000
1468.980, 9431.000
1470.024, 9403.000
1471.067, 9185.646
1472.111, 9325.956
1473.155, 9393.756
1474.198, 9392.972
1475.241, 9118.079
1476.284, 9197.138
1477.327, 9134.350
1478.370, 9065.746
1479.413, 9194.625
1480.455, 8959.624
1481.497, 9085.396
1482.540, 9067.126
1483.582, 9114.795
1484.624, 9019.738
1485.665, 8968.789
1486.707, 9060.587
1487.748, 9073.355
1488.790, 8961.869
1489.831, 9013.751
1490.872, 8863.000
1491.912, 8842.824
1492.953, 8841.318
1493.994, 8825.000
1495.034, 8801.000
1496.074, 8792.000
1497.114, 8689.000
1498.154, 8756.000
1499.194, 8678.602
1500.234, 8809.000
1501.273, 8647.000
1502.313, 8594.000
1503.352, 8692.000
1504.391, 8605.000
1505.430, 8601.000
1506.468, 8678.000
1507.507, 8740.000
1508.545, 8553.505
1509.584, 8715.564
1510.622, 8805.120
1511.660, 8826.064
1512.698, 8572.900
1513.735, 8673.694
1514.773, 8632.637
1515.810, 8585.765
1516.848, 8736.373
1517.885, 8523.081
1518.922, 8670.561
1519.958, 8674.030
1520.995, 8743.407
1522.032, 8670.061
1523.068, 8640.800
1524.104, 8754.310
1525.140, 8788.767
1526.176, 8564.000
1527.212, 8700.000
1528.248, 8578.000
1529.283, 8606.000
1530.318, 8707.000
1531.353, 8629.000
1532.389, 8721.000
1533.423, 8541.000
1534.458, 8721.000
1535.493, 8635.000
1536.527, 8714.000
1537.561, 8670.000
1538.596, 8646.000
1539.630, 8815.000
1540.663, 8981.000
1541.697, 8756.000
1542.731, 8598.000
1543.764, 8579.000
1544.797, 8595.000
1545.830, 8697.000
1546.863, 8800.000
1547.896, 8776.000
1548.929, 8768.000
1549.961, 8728.000
1550.994, 8862.000
1552.026, 8908.000
1553.058, 9046.000
1554.090, 9080.000
1555.121, 9075.637
1556.153, 9057.174
1557.185, 9002.000
1558.216, 8891.000
1559.247, 8819.000
1560.278, 8791.711
1561.309, 8842.000
1562.340, 8766.000
1563.370, 8799.000
1564.401, 8825.000
1565.431, 8721.000
1566.461, 8771.000
1567.491, 8706.000
1568.521, 8749.000
1569.551, 8743.000
1570.580, 8893.000
1571.610, 8942.000
1572.639, 8837.000
1573.668, 8748.000
1574.697, 8824.000
1575.726, 8819.000
1576.754, 8977.000
1577.783, 8841.000
1578.811, 8986.000
1579.839, 8840.000
##END=



