##NAMES=Goethite
##RRUFFID=R050142
##IDEAL CHEMISTRY=Fe^3+^O(OH)
##LOCALITY=Park County, Colorado, USA
##OWNER=RRUFF
##SOURCE=Dave Bunk Minerals
##DESCRIPTION=Radiating spray of black to brown platy crystals
##STATUS=The identification of this mineral has been confirmed by X-ray diffraction and chemical analysis
##URL=rruff.info/R050142
##MEASURED CHEMISTRY=FeO(OH)
##PIN_ID=M00281
##ORIENTATION=Laser parallel to a* (1 0 0). Fiducial mark perpendicular to laser is parallel to b [0 1 0]
126.0060, 6002.413
127.2420, 6140.000
128.4790, 6322.000
129.7150, 6435.000
130.9500, 6466.000
132.1860, 6603.000
133.4210, 6742.000
134.6570, 6933.000
135.8920, 7284.000
137.1260, 7463.000
138.3610, 7665.000
139.5960, 7496.000
140.8300, 7107.000
142.0640, 6757.000
143.2980, 6642.000
144.5320, 6466.000
145.7650, 6344.000
146.9990, 6411.000
148.2320, 6106.000
149.4650, 6193.000
150.6980, 6102.664
151.9300, 5977.000
153.1630, 5960.000
154.3950, 5995.000
155.6270, 5805.000
156.8590, 5764.000
158.0900, 5736.000
159.3220, 5939.000
160.5530, 5832.786
161.7840, 6141.000
163.0150, 5874.000
164.2460, 6079.000
165.4770, 6320.000
166.7070, 6367.000
167.9370, 6431.000
169.1670, 6235.000
170.3970, 6295.000
171.6270, 5868.000
172.8560, 5625.000
174.0860, 5732.000
175.3150, 5684.000
176.5440, 5617.000
177.7720, 5686.000
179.0010, 5668.000
180.2290, 5686.000
181.4580, 5657.000
182.6860, 5658.000
183.9130, 5659.000
185.1410, 5715.000
186.3690, 5776.000
187.5960, 5750.000
188.8230, 5823.000
190.0500, 5785.000
191.2770, 5795.000
192.5030, 5806.000
193.7290, 5910.000
194.9560, 5915.000
196.1820, 5958.000
197.4070, 5999.354
198.6330, 5960.000
199.8580, 6014.000
201.0840, 6077.000
202.3090, 6003.000
203.5340, 6030.000
204.7580, 6112.000
205.9830, 6100.938
207.2070, 6160.000
208.4310, 6124.000
209.6550, 6274.000
210.8790, 6181.000
212.1030, 6376.000
213.3260, 6353.000
214.5490, 6450.000
215.7720, 6528.000
216.9950, 6559.000
218.2180, 6713.000
219.4410, 6852.000
220.6630, 6869.000
221.8850, 7096.000
223.1070, 7117.000
224.3290, 7357.000
225.5500, 7416.000
226.7720, 7727.000
227.9930, 7987.000
229.2140, 8382.000
230.4350, 8933.000
231.6560, 9565.000
232.8760, 10682.00
234.0970, 12217.60
235.3170, 13874.00
236.5370, 16240.00
237.7560, 18749.00
238.9760, 21478.00
240.1950, 24402.00
241.4150, 26845.00
242.6340, 28086.00
243.8530, 27887.00
245.0710, 27051.00
246.2900, 24842.00
247.5080, 22197.00
248.7260, 19619.00
249.9440, 17069.00
251.1620, 14683.67
252.3800, 12578.42
253.5970, 10468.00
254.8140, 9063.000
256.0310, 7977.000
257.2480, 7241.000
258.4650, 6737.000
259.6820, 6304.000
260.8980, 6144.000
262.1140, 5904.000
263.3300, 5892.000
264.5460, 5901.000
265.7610, 5894.000
266.9770, 5738.000
268.1920, 5806.000
269.4070, 5758.000
270.6220, 5867.000
271.8370, 5844.225
273.0510, 5692.000
274.2660, 5843.000
275.4800, 5767.000
276.6940, 5758.000
277.9080, 5763.000
279.1210, 5826.422
280.3350, 5875.762
281.5480, 6102.000
282.7610, 6046.000
283.9740, 6332.000
285.1870, 6451.000
286.3990, 6801.000
287.6120, 7283.000
288.8240, 7859.000
290.0360, 8861.000
291.2480, 10360.00
292.4590, 13342.00
293.6710, 14693.00
294.8820, 14378.00
296.0930, 15661.00
297.3040, 15649.66
298.5150, 16203.00
299.7260, 15402.00
300.9360, 14332.00
302.1460, 13312.00
303.3560, 12188.00
304.5660, 11082.00
305.7760, 10003.00
306.9850, 9118.000
308.1950, 8393.000
309.4040, 7861.000
310.6130, 7481.000
311.8220, 7383.000
313.0300, 7048.018
314.2390, 6820.000
315.4470, 6806.000
316.6550, 6594.632
317.8630, 6650.098
319.0710, 6679.680
320.2780, 6684.774
321.4850, 6592.022
322.6930, 6625.615
323.9000, 6608.576
325.1060, 6589.463
326.3130, 6640.842
327.5200, 6562.321
328.7260, 6612.584
329.9320, 6611.441
331.1380, 6616.000
332.3440, 6682.000
333.5490, 6669.000
334.7550, 6685.896
335.9600, 6689.186
337.1650, 6715.000
338.3700, 6659.000
339.5740, 6735.000
340.7790, 6705.000
341.9830, 6733.000
343.1880, 6805.000
344.3910, 6751.000
345.5950, 6831.000
346.7990, 6806.000
348.0020, 6966.000
349.2060, 6887.000
350.4090, 6934.000
351.6120, 6898.000
352.8140, 6998.000
354.0170, 7078.000
355.2190, 7236.000
356.4220, 7313.312
357.6240, 7378.000
358.8250, 7516.000
360.0270, 7572.000
361.2290, 7679.000
362.4300, 7797.000
363.6310, 8022.000
364.8320, 8177.000
366.0330, 8461.000
367.2330, 8773.310
368.4340, 9291.000
369.6340, 9597.000
370.8340, 10009.00
372.0340, 10662.00
373.2340, 11425.00
374.4340, 12239.00
375.6330, 13230.00
376.8320, 14342.00
378.0310, 15554.00
379.2300, 16991.00
380.4290, 17975.00
381.6270, 18548.00
382.8250, 19097.00
384.0240, 19258.00
385.2220, 19255.00
386.4190, 19152.00
387.6170, 18334.00
388.8140, 17684.00
390.0120, 17760.00
391.2090, 17750.00
392.4060, 18066.00
393.6030, 18957.00
394.7990, 20996.00
395.9960, 21740.00
397.1920, 20907.00
398.3880, 20908.00
399.5840, 20357.00
400.7790, 19398.00
401.9750, 18211.00
403.1700, 16948.00
404.3650, 15667.00
405.5600, 14249.00
406.7550, 13163.00
407.9500, 12371.00
409.1440, 11367.00
410.3390, 10896.00
411.5330, 10242.00
412.7270, 9844.000
413.9200, 9707.000
415.1140, 9330.000
416.3070, 9038.528
417.5010, 9053.121
418.6940, 9041.868
419.8870, 9006.124
421.0790, 8991.367
422.2720, 8907.000
423.4640, 8930.000
424.6560, 8877.000
425.8480, 8854.000
427.0400, 8868.297
428.2320, 8867.000
429.4240, 8869.000
430.6150, 8924.000
431.8060, 8893.000
432.9970, 8935.000
434.1880, 8920.000
435.3780, 8888.000
436.5690, 9047.000
437.7590, 8974.000
438.9490, 8974.000
440.1390, 9064.000
441.3290, 9289.000
442.5190, 9272.000
443.7080, 9301.000
444.8970, 9439.000
446.0860, 9410.000
447.2750, 9568.000
448.4640, 9724.000
449.6520, 9797.000
450.8410, 9914.000
452.0290, 10071.00
453.2170, 10183.00
454.4050, 10493.00
455.5930, 10742.00
456.7800, 10972.00
457.9670, 11125.00
459.1550, 11533.00
460.3420, 11836.00
461.5280, 12404.00
462.7150, 12841.35
463.9010, 13327.00
465.0880, 14014.00
466.2740, 14633.00
467.4600, 15523.00
468.6460, 16684.00
469.8310, 17689.00
471.0170, 18809.00
472.2020, 20253.00
473.3870, 21827.00
474.5720, 23264.00
475.7570, 24409.00
476.9410, 25718.00
478.1260, 26535.00
479.3100, 27261.00
480.4940, 27555.00
481.6780, 26887.00
482.8620, 26327.00
484.0450, 24785.00
485.2280, 23926.00
486.4120, 22128.00
487.5950, 20727.00
488.7780, 19189.00
489.9600, 17802.00
491.1430, 16208.00
492.3250, 15054.00
493.5070, 14060.00
494.6890, 13146.00
495.8710, 12490.00
497.0530, 12078.00
498.2340, 11483.67
499.4150, 11102.00
500.5970, 10694.00
501.7780, 10259.00
502.9580, 9928.000
504.1390, 9794.000
505.3190, 9657.000
506.5000, 9475.000
507.6800, 9416.000
508.8600, 9400.000
510.0390, 9433.000
511.2190, 9259.000
512.3980, 9220.000
513.5780, 9205.000
514.7570, 9195.000
515.9360, 9283.000
517.1140, 9239.000
518.2930, 9350.000
519.4710, 9295.000
520.6500, 9313.000
521.8280, 9309.000
523.0060, 9407.000
524.1830, 9430.000
525.3610, 9418.790
526.5380, 9353.000
527.7150, 9413.000
528.8920, 9357.000
530.0690, 9419.000
531.2460, 9400.000
532.4230, 9519.000
533.5990, 9483.000
534.7750, 9610.000
535.9510, 9695.000
537.1270, 9861.615
538.3030, 9996.304
539.4780, 10135.30
540.6530, 10289.00
541.8290, 10435.00
543.0040, 10534.00
544.1780, 10675.00
545.3530, 10599.03
546.5280, 10477.93
547.7020, 10313.00
548.8760, 9999.000
550.0500, 9646.000
551.2240, 9314.412
552.3970, 9018.324
553.5710, 8720.000
554.7440, 8445.000
555.9170, 8144.000
557.0900, 7888.000
558.2630, 7569.694
559.4360, 7548.303
560.6080, 7486.596
561.7800, 7386.645
562.9530, 7133.834
564.1250, 7078.394
565.2960, 7122.000
566.4680, 7048.000
567.6390, 7073.000
568.8110, 6996.000
569.9820, 6963.000
571.1530, 7036.000
572.3230, 7031.000
573.4940, 7022.000
574.6640, 7048.938
575.8350, 7031.522
577.0050, 7056.000
578.1750, 7040.000
579.3440, 7042.000
580.5140, 7093.000
581.6830, 7234.000
582.8530, 7127.000
584.0220, 7255.000
585.1910, 7251.000
586.3590, 7228.000
587.5280, 7268.000
588.6960, 7249.000
589.8650, 7281.827
591.0330, 7395.073
592.2010, 7467.906
593.3680, 7502.482
594.5360, 7384.305
595.7030, 7463.383
596.8710, 7463.419
598.0380, 7460.198
599.2040, 7567.022
600.3710, 7471.047
601.5380, 7576.145
602.7040, 7600.959
603.8700, 7662.510
605.0360, 7707.231
606.2020, 7741.539
607.3680, 7763.000
608.5340, 7781.000
609.6990, 7781.000
610.8640, 7724.173
612.0290, 7815.718
613.1940, 7866.851
614.3590, 7879.745
615.5230, 7739.867
616.6880, 7797.262
617.8520, 7775.600
619.0160, 7750.695
620.1800, 7835.856
621.3440, 7718.199
622.5070, 7805.000
623.6710, 7915.000
624.8340, 7911.000
625.9970, 7834.000
627.1600, 7873.000
628.3220, 7815.000
629.4850, 7923.000
630.6470, 7712.000
631.8100, 7765.000
632.9720, 7794.000
634.1340, 7918.000
635.2950, 7766.000
636.4570, 7748.000
637.6180, 7722.000
638.7790, 7686.000
639.9410, 7672.000
641.1010, 7653.129
642.2620, 7645.040
643.4230, 7628.045
644.5830, 7635.677
645.7430, 7622.000
646.9030, 7604.000
648.0630, 7670.000
649.2230, 7476.000
650.3830, 7498.000
651.5420, 7549.000
652.7010, 7453.446
653.8600, 7540.000
655.0190, 7440.000
656.1780, 7494.000
657.3360, 7584.000
658.4950, 7494.000
659.6530, 7570.000
660.8110, 7557.458
661.9690, 7561.000
663.1270, 7511.000
664.2840, 7491.129
665.4420, 7484.000
666.5990, 7418.000
667.7560, 7434.000
668.9130, 7405.000
670.0700, 7396.000
671.2260, 7349.000
672.3830, 7473.000
673.5390, 7426.000
674.6950, 7446.000
675.8510, 7431.000
677.0070, 7339.000
678.1620, 7429.000
679.3180, 7357.000
680.4730, 7264.000
681.6280, 7270.000
682.7830, 7224.000
683.9380, 7278.000
685.0920, 7187.000
686.2470, 7269.000
687.4010, 7253.000
688.5550, 7235.000
689.7090, 7176.000
690.8630, 7103.000
692.0170, 7169.000
693.1700, 7092.000
694.3230, 7074.006
695.4770, 7062.896
696.6300, 7004.000
697.7820, 6935.699
698.9350, 7021.219
700.0870, 7066.333
701.2400, 7073.202
702.3920, 6927.304
703.5440, 6978.680
704.6960, 6950.998
705.8470, 6920.080
706.9990, 6999.221
708.1500, 6875.549
709.3010, 6952.951
710.4520, 6950.088
711.6030, 6983.960
712.7540, 6938.286
713.9040, 6917.188
715.0550, 6975.655
716.2050, 6990.068
717.3550, 6935.243
718.5050, 6971.456
719.6540, 6885.000
720.8040, 6883.000
721.9530, 6902.918
723.1030, 6867.511
724.2520, 6858.000
725.4000, 6787.000
726.5490, 6759.000
727.6980, 6686.000
728.8460, 6697.454
729.9940, 6746.000
731.1420, 6705.000
732.2900, 6738.000
733.4380, 6699.000
734.5860, 6769.000
735.7330, 6693.138
736.8800, 6701.000
738.0270, 6607.000
739.1740, 6716.000
740.3210, 6778.000
741.4680, 6706.000
742.6140, 6633.000
743.7600, 6605.000
744.9070, 6573.000
746.0520, 6690.000
747.1980, 6807.000
748.3440, 6633.000
749.4890, 6551.000
750.6350, 6623.000
751.7800, 6516.000
752.9250, 6688.469
754.0700, 6781.657
755.2140, 6834.434
756.3590, 6848.972
757.5030, 6710.736
758.6470, 6769.774
759.7910, 6749.754
760.9350, 6726.493
762.0790, 6813.296
763.2220, 6697.280
764.3660, 6782.339
765.5090, 6787.131
766.6520, 6828.659
767.7950, 6790.641
768.9380, 6777.191
770.0800, 6843.313
771.2220, 6865.375
772.3650, 6818.200
773.5070, 6862.062
774.6490, 6782.000
775.7900, 6686.000
776.9320, 6662.000
778.0730, 6738.000
779.2150, 6786.000
780.3560, 6736.000
781.4970, 6779.000
782.6380, 6662.000
783.7780, 6727.000
784.9190, 6618.000
786.0590, 6828.000
787.1990, 6716.806
788.3390, 6755.000
789.4790, 6637.000
790.6190, 6616.000
791.7580, 6628.000
792.8970, 6640.000
794.0370, 6698.000
795.1760, 6752.000
796.3140, 6742.000
797.4530, 6709.000
798.5920, 6635.000
799.7300, 6702.000
800.8680, 6654.000
802.0060, 6683.000
803.1440, 6733.000
804.2820, 6693.000
805.4200, 6645.000
806.5570, 6759.000
807.6940, 6697.000
808.8310, 6804.000
809.9680, 6783.423
811.1050, 6719.000
812.2420, 6758.000
813.3780, 6783.000
814.5140, 6768.000
815.6510, 6761.622
816.7870, 6871.472
817.9220, 6940.895
819.0580, 6972.093
820.1940, 6850.520
821.3290, 6926.205
822.4640, 6922.831
823.5990, 6916.216
824.7340, 7019.667
825.8690, 6988.000
827.0030, 7001.000
828.1380, 7088.000
829.2720, 7065.000
830.4060, 7023.000
831.5400, 7067.278
832.6730, 7060.625
833.8070, 7110.000
834.9410, 7085.000
836.0740, 7156.000
837.2070, 7124.112
838.3400, 7138.124
839.4730, 7167.000
840.6050, 7161.000
841.7380, 7167.419
842.8700, 7138.000
844.0020, 7076.841
845.1340, 7174.372
846.2660, 7231.492
847.3980, 7250.372
848.5290, 7116.475
849.6610, 7179.857
850.7920, 7164.175
851.9230, 7145.252
853.0540, 7236.395
854.1850, 7124.718
855.3150, 7214.110
856.4460, 7223.242
857.5760, 7269.105
858.7060, 7235.421
859.8360, 7226.307
860.9660, 7296.765
862.0950, 7323.158
863.2250, 7280.317
864.3540, 7328.511
865.4830, 7214.047
866.6120, 7167.000
867.7410, 7329.000
868.8700, 7243.000
869.9980, 7208.000
871.1270, 7301.000
872.2550, 7330.000
873.3830, 7339.000
874.5110, 7330.000
875.6380, 7218.000
876.7660, 7342.000
877.8930, 7303.000
879.0210, 7216.000
880.1480, 7355.000
881.2750, 7325.000
882.4020, 7322.000
883.5280, 7503.000
884.6550, 7431.374
885.7810, 7431.539
886.9070, 7419.000
888.0330, 7379.000
889.1590, 7357.000
890.2850, 7372.821
891.4100, 7390.000
892.5360, 7415.000
893.6610, 7446.979
894.7860, 7472.000
895.9110, 7425.000
897.0360, 7659.000
898.1600, 7520.000
899.2850, 7424.000
900.4090, 7580.000
901.5330, 7658.000
902.6570, 7616.000
903.7810, 7699.000
904.9040, 7572.000
906.0280, 7502.000
907.1510, 7717.000
908.2740, 7587.000
909.3980, 7666.000
910.5200, 7678.000
911.6430, 7787.000
912.7660, 7761.000
913.8880, 7909.000
915.0100, 7884.000
916.1320, 7771.000
917.2540, 7845.000
918.3760, 7871.565
919.4980, 7881.922
920.6190, 8020.000
921.7410, 7975.000
922.8620, 7996.000
923.9830, 8038.000
925.1040, 8011.000
926.2240, 8096.000
927.3450, 8126.000
928.4650, 8092.000
929.5850, 8164.000
930.7050, 8132.000
931.8250, 8065.000
932.9450, 8058.000
934.0650, 8092.784
935.1840, 8199.771
936.3030, 8266.348
937.4230, 8294.697
938.5420, 8170.261
939.6600, 8243.086
940.7790, 8236.866
941.8980, 8227.404
943.0160, 8327.995
944.1340, 8225.767
945.2520, 8324.612
946.3700, 8343.192
947.4880, 8336.000
948.6050, 8322.425
949.7230, 8414.000
950.8400, 8377.000
951.9570, 8403.243
953.0740, 8464.000
954.1910, 8441.000
955.3080, 8390.000
956.4240, 8543.000
957.5410, 8466.000
958.6570, 8647.000
959.7730, 8515.000
960.8890, 8578.000
962.0040, 8714.000
963.1200, 8811.000
964.2350, 8819.680
965.3510, 8685.354
966.4660, 8788.378
967.5810, 8853.163
968.6960, 8765.176
969.8100, 8874.417
970.9250, 8904.645
972.0390, 8931.585
973.1530, 9068.591
974.2670, 9147.000
975.3810, 9247.000
976.4950, 9311.000
977.6080, 9370.000
978.7220, 9439.000
979.8350, 9554.000
980.9480, 9685.155
982.0610, 9874.000
983.1740, 10035.00
984.2870, 10248.00
985.3990, 10494.00
986.5120, 10628.00
987.6240, 10970.00
988.7360, 11223.46
989.8480, 11541.00
990.9590, 11886.00
992.0710, 12183.00
993.1820, 12612.00
994.2940, 12811.00
995.4050, 13193.00
996.5160, 13423.00
997.6270, 13566.00
998.7370, 13417.00
999.8480, 13467.00
1000.958, 13217.00
1002.068, 13128.00
1003.178, 13124.07
1004.288, 12789.39
1005.398, 12414.33
1006.508, 12001.04
1007.617, 11628.93
1008.726, 11074.83
1009.835, 10830.37
1010.944, 10571.85
1012.053, 10184.69
1013.162, 10018.96
1014.270, 9798.496
1015.379, 9739.000
1016.487, 9607.516
1017.595, 9576.000
1018.703, 9473.599
1019.811, 9508.172
1020.918, 9501.901
1022.026, 9457.327
1023.133, 9234.568
1024.240, 9261.401
1025.347, 9200.085
1026.454, 9143.290
1027.561, 9229.495
1028.667, 9076.299
1029.774, 9177.323
1030.880, 9125.000
1031.986, 9042.000
1033.092, 9175.000
1034.198, 9083.000
1035.303, 9301.000
1036.409, 9260.096
1037.514, 8967.000
1038.619, 9205.000
1039.724, 9212.000
1040.829, 9044.000
1041.934, 9167.000
1043.039, 9228.000
1044.143, 9184.000
1045.247, 9118.000
1046.351, 9072.000
1047.455, 9116.000
1048.559, 9174.000
1049.663, 9156.729
1050.766, 9257.162
1051.870, 9317.191
1052.973, 9338.973
1054.076, 9207.982
1055.179, 9274.265
1056.282, 9261.489
1057.384, 9245.465
1058.487, 9339.514
1059.589, 9230.736
1060.691, 9323.032
1061.793, 9242.409
1062.895, 9352.047
1063.997, 9421.271
1065.098, 9452.243
1066.200, 9330.456
1067.301, 9405.929
1068.402, 9402.342
1069.503, 9395.515
1070.604, 9498.751
1071.704, 9399.153
1072.805, 9629.000
1073.905, 9640.687
1075.005, 9569.000
1076.105, 9656.000
1077.205, 9564.293
1078.305, 9762.381
1079.405, 9904.896
1080.504, 9994.767
1081.603, 9874.576
1082.702, 10025.64
1083.801, 10067.99
1084.900, 10105.89
1085.999, 10295.13
1087.098, 10255.00
1088.196, 10410.65
1089.294, 10474.00
1090.392, 10682.00
1091.490, 10705.00
1092.588, 10808.00
1093.686, 10915.00
1094.783, 10913.00
1095.880, 11078.02
1096.978, 11262.00
1098.075, 11373.00
1099.172, 11459.00
1100.268, 11663.00
1101.365, 11826.00
1102.461, 11844.00
1103.558, 11902.00
1104.654, 12139.00
1105.750, 12201.00
1106.846, 12276.00
1107.941, 12248.00
1109.037, 12335.14
1110.132, 12346.00
1111.228, 12439.00
1112.323, 12456.00
1113.418, 12492.00
1114.512, 12389.00
1115.607, 12306.00
1116.702, 12227.00
1117.796, 12340.00
1118.890, 12258.00
1119.984, 12212.00
1121.078, 12212.00
1122.172, 12025.00
1123.266, 12086.00
1124.359, 12072.00
1125.452, 11833.00
1126.545, 11738.00
1127.638, 11758.00
1128.731, 11584.00
1129.824, 11614.00
1130.917, 11360.24
1132.009, 11450.83
1133.101, 11485.86
1134.193, 11468.31
1135.285, 11240.69
1136.377, 11284.33
1137.469, 11219.26
1138.561, 11149.73
1139.652, 11231.58
1140.743, 11034.55
1141.834, 11114.00
1142.925, 11083.08
1144.016, 11102.68
1145.107, 11012.89
1146.197, 10956.93
1147.287, 11129.00
1148.378, 11083.00
1149.468, 11146.00
1150.558, 11109.00
1151.647, 11097.00
1152.737, 11076.00
1153.826, 11179.00
1154.916, 11286.00
1156.005, 11312.05
1157.094, 11427.00
1158.183, 11415.00
1159.272, 11510.27
1160.360, 11532.00
1161.449, 11536.00
1162.537, 11567.00
1163.625, 11620.00
1164.713, 11583.00
1165.801, 11817.00
1166.889, 12000.00
1167.976, 11853.00
1169.064, 12039.00
1170.151, 12014.00
1171.238, 12046.00
1172.325, 12175.00
1173.412, 12126.00
1174.498, 12178.00
1175.585, 12174.00
1176.671, 12335.00
1177.757, 12346.00
1178.844, 12415.00
1179.929, 12484.00
1181.015, 12488.00
1182.101, 12600.00
1183.186, 12543.28
1184.272, 12503.00
1185.357, 12514.00
1186.442, 12609.00
1187.527, 12741.00
1188.612, 12721.00
1189.696, 12817.00
1190.781, 12906.00
1191.865, 12872.00
1192.949, 13040.00
1194.033, 13033.68
1195.117, 13118.09
1196.201, 13114.00
1197.284, 13185.00
1198.368, 13268.00
1199.451, 13117.00
1200.534, 13173.00
1201.617, 13250.00
1202.700, 13073.00
1203.783, 13372.00
1204.866, 13167.00
1205.948, 13244.00
1207.030, 13328.54
1208.112, 13316.00
1209.194, 13450.00
1210.276, 13373.00
1211.358, 13436.00
1212.439, 13501.00
1213.521, 13530.00
1214.602, 13410.00
1215.683, 13553.00
1216.764, 13391.00
1217.845, 13472.00
1218.926, 13557.00
1220.006, 13505.00
1221.087, 13473.00
1222.167, 13435.63
1223.247, 13416.57
1224.327, 13313.00
1225.407, 13381.00
1226.486, 13385.00
1227.566, 13347.00
1228.645, 13260.00
1229.724, 13219.59
1230.804, 13181.67
1231.882, 13179.00
1232.961, 13097.00
1234.040, 13091.03
1235.118, 13229.00
1236.197, 13106.00
1237.275, 13091.00
1238.353, 13234.00
1239.431, 13072.00
1240.509, 13172.00
1241.586, 13174.00
1242.664, 13062.25
1243.741, 13280.00
1244.818, 12906.00
1245.895, 13092.00
1246.972, 13077.00
1248.049, 13201.00
1249.126, 12990.00
1250.202, 13001.60
1251.279, 12997.00
1252.355, 12861.00
1253.431, 12844.20
1254.507, 12964.16
1255.582, 13028.55
1256.658, 13040.35
1257.733, 12842.10
1258.809, 12915.10
1259.884, 12879.39
1260.959, 12839.23
1262.034, 12950.41
1263.109, 12782.71
1264.183, 12891.50
1265.258, 12889.92
1266.332, 12938.85
1267.406, 12878.40
1268.480, 12851.74
1269.554, 12934.49
1270.628, 12956.66
1271.701, 12883.63
1272.775, 12857.00
1273.848, 12976.00
1274.921, 12859.00
1275.994, 12854.02
1277.067, 12974.03
1278.140, 13038.46
1279.213, 13050.32
1280.285, 12852.12
1281.357, 12925.18
1282.430, 12889.52
1283.502, 12849.41
1284.573, 12960.65
1285.645, 12793.01
1286.717, 12901.84
1287.788, 12900.31
1288.859, 12949.30
1289.931, 12793.57
1291.002, 12911.11
1292.073, 12973.09
1293.143, 12982.50
1294.214, 12781.84
1295.284, 12852.44
1296.355, 12814.32
1297.425, 12771.76
1298.495, 12880.53
1299.565, 12710.43
1300.634, 12816.82
1301.704, 12812.83
1302.773, 12763.90
1303.843, 12835.93
1304.912, 12852.46
1305.981, 12816.41
1307.050, 12570.29
1308.119, 12595.42
1309.187, 12511.91
1310.256, 12423.88
1311.324, 12487.24
1312.392, 12271.73
1313.460, 12332.70
1314.528, 12283.30
1315.596, 12284.41
1316.663, 12176.19
1317.731, 12101.71
1318.798, 12136.69
1319.865, 12111.09
1320.932, 11990.28
1321.999, 11994.66
1323.066, 11775.38
1324.132, 11752.41
1325.199, 11814.06
1326.265, 11698.81
1327.331, 11705.23
1328.397, 11665.32
1329.463, 11634.00
1330.529, 11629.00
1331.595, 11502.00
1332.660, 11393.00
1333.726, 11329.00
1334.791, 11446.00
1335.856, 11287.09
1336.921, 11179.00
1337.985, 11117.00
1339.050, 10973.00
1340.115, 10806.22
1341.179, 10873.68
1342.243, 10885.58
1343.307, 10844.90
1344.371, 10594.16
1345.435, 10614.66
1346.498, 10526.52
1347.562, 10433.87
1348.625, 10492.61
1349.689, 10272.42
1350.752, 10328.77
1351.815, 10274.75
1352.877, 10271.29
1353.940, 10158.41
1355.002, 10079.36
1356.065, 10109.67
1357.127, 10079.45
1358.189, 10024.00
1359.251, 9939.000
1360.313, 9868.000
1361.375, 9876.000
1362.436, 9759.000
1363.497, 9743.000
1364.559, 9738.000
1365.620, 9632.193
1366.681, 9758.000
1367.742, 9504.000
1368.802, 9477.000
1369.863, 9483.000
1370.923, 9610.000
1371.983, 9375.000
1373.044, 9447.000
1374.104, 9466.000
1375.163, 9292.000
1376.223, 9304.000
1377.283, 9377.000
1378.342, 9277.771
1379.401, 9308.098
1380.460, 9184.000
1381.519, 9234.000
1382.578, 9116.000
1383.637, 8991.000
1384.696, 9088.000
1385.754, 8952.000
1386.812, 9059.342
1387.871, 9122.065
1388.929, 9146.689
1389.986, 9136.152
1391.044, 9126.511
1392.102, 9018.333
1393.159, 9012.415
1394.217, 9019.452
1395.274, 8892.000
1396.331, 8956.000
1397.388, 8898.000
1398.444, 8820.000
1399.501, 8973.000
1400.558, 8752.000
1401.614, 8796.000
1402.670, 8780.000
1403.726, 8704.049
1404.782, 8686.000
1405.838, 8600.991
1406.894, 8744.305
1407.949, 8832.035
1409.004, 8867.188
1410.060, 8692.293
1411.115, 8788.632
1412.170, 8776.269
1413.224, 8759.430
1414.279, 8893.949
1415.334, 8749.590
1416.388, 8881.691
1417.442, 8903.431
1418.496, 8975.680
1419.550, 8938.553
1420.604, 8935.207
1421.658, 8984.000
1422.712, 8998.000
1423.765, 9020.000
1424.818, 9073.127
1425.871, 9101.616
1426.924, 9171.521
1427.977, 9173.882
1429.030, 9246.000
1430.083, 9253.000
1431.135, 9182.000
1432.187, 9472.000
1433.240, 9320.000
1434.292, 9403.000
1435.344, 9304.000
1436.395, 9439.000
1437.447, 9424.000
1438.499, 9636.000
1439.550, 9618.000
1440.601, 9518.000
1441.652, 9530.000
1442.703, 9633.000
1443.754, 9741.000
1444.805, 9641.000
1445.855, 9675.000
1446.906, 9811.000
1447.956, 9748.000
1449.006, 9759.000
1450.056, 9810.000
1451.106, 9736.000
1452.155, 9753.000
1453.205, 9865.000
1454.254, 9854.000
1455.304, 9810.191
1456.353, 9645.850
1457.402, 9757.456
1458.451, 9813.495
1459.499, 9816.971
1460.548, 9610.369
1461.597, 9675.017
1462.645, 9630.975
1463.693, 9582.476
1464.741, 9685.315
1465.789, 9509.279
1466.837, 9570.000
1467.884, 9521.000
1468.932, 9660.000
1469.979, 9437.000
1471.027, 9587.000
1472.074, 9545.000
1473.121, 9361.000
1474.167, 9398.000
1475.214, 9379.000
1476.261, 9337.000
1477.307, 9280.000
1478.353, 9350.000
1479.400, 9310.000
1480.446, 9232.000
1481.491, 9294.000
1482.537, 9168.000
1483.583, 9082.000
1484.628, 9165.000
1485.673, 9022.000
1486.719, 9036.000
1487.764, 9008.000
1488.809, 9046.000
1489.853, 9051.000
1490.898, 9053.000
1491.943, 8876.000
1492.987, 8900.000
1494.031, 8821.000
1495.075, 8841.000
1496.119, 8927.000
1497.163, 8890.000
1498.207, 8930.000
1499.250, 8741.000
1500.294, 8731.000
1501.337, 8812.000
1502.380, 8739.773
1503.423, 8775.000
1504.466, 8781.000
1505.509, 8721.000
1506.551, 8767.000
1507.594, 8804.000
1508.636, 8793.000
1509.678, 8796.000
1510.720, 8806.000
1511.762, 8763.000
1512.804, 8647.000
1513.846, 8621.000
1514.887, 8744.000
1515.929, 8836.000
1516.970, 8695.000
1518.011, 8620.000
1519.052, 8710.000
1520.093, 8687.150
1521.133, 8795.000
1522.174, 8770.000
1523.214, 8659.000
1524.255, 8576.688
1525.295, 8679.000
1526.335, 8660.000
1527.375, 8537.000
1528.414, 8629.000
1529.454, 8526.000
1530.494, 8593.000
1531.533, 8635.000
1532.572, 8769.000
1533.611, 8737.000
1534.650, 8678.000
1535.689, 8674.000
1536.728, 8632.000
1537.766, 8660.000
1538.805, 8614.000
1539.843, 8620.000
1540.881, 8642.809
1541.919, 8632.000
1542.957, 8668.000
1543.995, 8685.000
1545.032, 8639.000
1546.070, 8646.000
1547.107, 8683.000
1548.144, 8702.163
1549.181, 8811.207
1550.218, 8811.000
1551.255, 8972.000
1552.292, 9057.000
1553.328, 8958.000
1554.364, 9090.000
1555.401, 9013.994
1556.437, 8938.000
1557.473, 8901.000
1558.509, 8872.312
1559.544, 8785.177
1560.580, 8753.000
1561.615, 8809.000
1562.651, 8727.000
1563.686, 8744.000
1564.721, 8597.000
1565.756, 8712.000
1566.791, 8662.000
1567.825, 8523.000
1568.860, 8798.000
1569.894, 8644.000
1570.928, 8871.000
1571.963, 8927.980
1572.997, 8894.406
1574.030, 8990.000
1575.064, 8953.000
1576.098, 8757.000
1577.131, 8906.000
1578.164, 8867.000
1579.198, 8832.000
##END=



