##NAMES=Grossular
##RRUFFID=R060499
##IDEAL CHEMISTRY=Ca_3_Al_2_(SiO_4_)_3_
##LOCALITY=Lake Jaco, Chihuahua, Mexico
##OWNER=RRUFF
##SOURCE=Michael Scott
##DESCRIPTION=Tan colored single dodecahedral crystal
##STATUS=The identification of this mineral has been confirmed by X-ray diffraction and chemical analysis
##URL=rruff.info/R060499
##MEASURED CHEMISTRY=(Ca_2.90_Mg_0.10_)_Σ=3_(Al_1.78_Fe^3+^_0.19_Ti_0.03_)_Σ=2_(Si_1.00_O_4_)_3_
##PIN_ID=L01514
##ORIENTATION=Laser parallel to -a* (-1 0 0). Fiducial mark perpendicular to laser is parallel to -c [0 0 -1]
125.9590, 2365.000
127.1960, 2317.000
128.4330, 2387.000
129.6700, 2454.000
130.9060, 2402.000
132.1430, 2465.000
133.3790, 2480.000
134.6150, 2548.000
135.8500, 2533.000
137.0860, 2512.000
138.3210, 2639.000
139.5560, 2681.000
140.7910, 2741.000
142.0260, 2661.000
143.2610, 2690.000
144.4950, 2715.000
145.7290, 2749.000
146.9630, 2768.335
148.1970, 2800.921
149.4310, 2810.000
150.6640, 2869.000
151.8980, 2894.000
153.1310, 2945.000
154.3640, 2934.000
155.5970, 3030.000
156.8290, 3002.000
158.0620, 3010.000
159.2940, 3081.000
160.5260, 3104.000
161.7580, 3103.000
162.9890, 3185.000
164.2210, 3219.000
165.4520, 3329.000
166.6830, 3398.000
167.9140, 3417.000
169.1450, 3644.000
170.3760, 3788.000
171.6060, 4039.000
172.8360, 4202.000
174.0660, 4425.000
175.2960, 4781.000
176.5260, 5455.000
177.7550, 6560.000
178.9840, 7707.000
180.2130, 8454.000
181.4420, 7904.000
182.6710, 6530.000
183.9000, 5389.000
185.1280, 4550.000
186.3560, 4092.000
187.5840, 3859.000
188.8120, 3686.000
190.0400, 3588.000
191.2670, 3623.000
192.4950, 3599.000
193.7220, 3571.000
194.9490, 3620.000
196.1750, 3594.000
197.4020, 3634.698
198.6280, 3726.000
199.8540, 3694.000
201.0800, 3758.000
202.3060, 3756.000
203.5320, 3635.000
204.7570, 3725.000
205.9830, 3602.000
207.2080, 3606.000
208.4330, 3595.000
209.6570, 3574.000
210.8820, 3693.000
212.1060, 3632.000
213.3310, 3654.000
214.5550, 3779.000
215.7780, 3715.000
217.0020, 3737.000
218.2260, 3744.000
219.4490, 3726.000
220.6720, 3838.000
221.8950, 3813.000
223.1180, 3817.000
224.3400, 3977.000
225.5630, 3927.000
226.7850, 4044.471
228.0070, 4165.000
229.2290, 4345.000
230.4500, 4433.000
231.6720, 4857.000
232.8930, 5107.000
234.1140, 5411.000
235.3350, 5963.000
236.5560, 6320.000
237.7770, 6632.000
238.9970, 6846.000
240.2170, 6827.000
241.4370, 6862.000
242.6570, 6932.000
243.8770, 7347.000
245.0960, 7870.000
246.3160, 7729.000
247.5350, 7459.000
248.7540, 6744.000
249.9730, 6149.000
251.1910, 5712.000
252.4100, 5287.000
253.6280, 5146.000
254.8460, 4945.000
256.0640, 4848.000
257.2810, 4894.000
258.4990, 4854.000
259.7160, 4916.594
260.9330, 4938.640
262.1500, 5062.000
263.3670, 5046.000
264.5840, 5077.000
265.8000, 5192.000
267.0170, 5413.000
268.2330, 5598.000
269.4490, 5744.000
270.6640, 5881.000
271.8800, 6227.000
273.0950, 6629.000
274.3100, 7229.000
275.5260, 7837.000
276.7400, 8048.000
277.9550, 7894.000
279.1690, 7487.000
280.3840, 6763.000
281.5980, 6513.000
282.8120, 6222.000
284.0260, 6065.000
285.2390, 5890.000
286.4530, 5728.665
287.6660, 5740.000
288.8790, 5483.000
290.0920, 5482.000
291.3040, 5374.000
292.5170, 5211.000
293.7290, 4900.000
294.9410, 4877.000
296.1530, 4770.000
297.3650, 4614.000
298.5770, 4643.000
299.7880, 4507.000
301.0000, 4565.000
302.2110, 4580.000
303.4220, 4775.000
304.6320, 4798.000
305.8430, 4857.000
307.0530, 4939.000
308.2630, 5029.000
309.4730, 5080.000
310.6830, 5232.000
311.8930, 5257.000
313.1030, 5222.401
314.3120, 5445.003
315.5210, 5586.355
316.7300, 5650.825
317.9390, 5408.138
319.1470, 5667.000
320.3560, 5860.000
321.5640, 5879.000
322.7720, 6138.000
323.9800, 6332.000
325.1880, 6465.000
326.3950, 6649.000
327.6030, 6734.000
328.8100, 6819.000
330.0170, 6581.000
331.2240, 6533.000
332.4300, 6458.000
333.6370, 6249.000
334.8430, 6188.000
336.0490, 6187.000
337.2550, 6307.000
338.4610, 6259.000
339.6660, 6236.262
340.8720, 6593.110
342.0770, 6868.561
343.2820, 7067.134
344.4870, 6958.546
345.6920, 7246.586
346.8960, 7375.538
348.1010, 7498.114
349.3050, 7841.836
350.5090, 7777.785
351.7130, 8118.001
352.9160, 8629.000
354.1200, 9129.000
355.3230, 9731.000
356.5260, 10546.00
357.7290, 11613.00
358.9320, 12938.00
360.1350, 14531.00
361.3370, 16797.23
362.5390, 18897.00
363.7410, 22386.00
364.9430, 25798.00
366.1450, 29622.00
367.3470, 33077.00
368.5480, 35604.00
369.7490, 38274.00
370.9500, 41792.00
372.1510, 45890.00
373.3520, 50192.00
374.5520, 52386.00
375.7530, 51466.00
376.9530, 47917.00
378.1530, 42169.00
379.3520, 35815.00
380.5520, 30221.00
381.7510, 25325.00
382.9510, 21355.00
384.1500, 18513.00
385.3490, 15976.00
386.5480, 14183.00
387.7460, 12792.00
388.9440, 11735.00
390.1430, 10881.00
391.3410, 10118.00
392.5390, 9495.000
393.7360, 9031.000
394.9340, 8699.000
396.1310, 8491.000
397.3280, 8196.000
398.5250, 8070.000
399.7220, 7942.000
400.9190, 7933.000
402.1150, 7958.000
403.3120, 7824.000
404.5080, 7978.000
405.7040, 7905.000
406.8990, 8130.000
408.0950, 8358.000
409.2900, 8772.000
410.4860, 9134.000
411.6810, 9499.000
412.8760, 9526.000
414.0700, 9179.000
415.2650, 8548.000
416.4590, 7901.000
417.6540, 7223.000
418.8480, 6704.000
420.0420, 6041.000
421.2350, 5749.000
422.4290, 5471.000
423.6220, 5357.000
424.8150, 5175.000
426.0080, 5059.000
427.2010, 4865.000
428.3940, 4809.000
429.5860, 4839.000
430.7790, 4676.000
431.9710, 4699.000
433.1630, 4721.000
434.3540, 4636.000
435.5460, 4674.000
436.7370, 4646.000
437.9290, 4585.000
439.1200, 4657.000
440.3110, 4643.000
441.5010, 4655.000
442.6920, 4690.000
443.8820, 4677.000
445.0730, 4784.000
446.2630, 4842.000
447.4530, 4953.000
448.6420, 5142.000
449.8320, 5137.000
451.0210, 5327.000
452.2100, 5364.000
453.3990, 5350.000
454.5880, 5466.000
455.7770, 5470.000
456.9660, 5424.000
458.1540, 5526.000
459.3420, 5507.000
460.5300, 5532.000
461.7180, 5478.000
462.9050, 5483.000
464.0930, 5511.000
465.2800, 5512.000
466.4670, 5597.000
467.6540, 5394.000
468.8410, 5575.000
470.0280, 5528.000
471.2140, 5639.000
472.4000, 5748.000
473.5870, 5765.000
474.7720, 5735.000
475.9580, 5844.000
477.1440, 5706.000
478.3290, 5603.000
479.5140, 5697.000
480.6990, 5490.000
481.8840, 5509.000
483.0690, 5469.000
484.2540, 5544.000
485.4380, 5405.000
486.6220, 5629.000
487.8060, 5529.000
488.9900, 5676.000
490.1740, 5738.000
491.3570, 5830.000
492.5410, 5945.000
493.7240, 6048.000
494.9070, 6121.000
496.0900, 6181.595
497.2720, 6240.000
498.4550, 6232.000
499.6370, 6257.000
500.8190, 6217.000
502.0010, 6143.000
503.1830, 6080.000
504.3650, 6057.000
505.5460, 6031.000
506.7280, 5946.000
507.9090, 5854.000
509.0900, 5815.000
510.2710, 5767.000
511.4510, 5618.000
512.6320, 5486.000
513.8120, 5451.000
514.9920, 5377.000
516.1720, 5385.000
517.3520, 5235.000
518.5310, 5160.000
519.7110, 5148.000
520.8900, 5274.000
522.0690, 5307.000
523.2480, 5393.000
524.4270, 5359.000
525.6050, 5350.000
526.7840, 5435.000
527.9620, 5348.000
529.1400, 5386.000
530.3180, 5503.000
531.4960, 5732.000
532.6730, 6024.000
533.8510, 6357.000
535.0280, 6941.000
536.2050, 7663.000
537.3820, 8616.000
538.5590, 9800.000
539.7350, 11313.00
540.9120, 13130.00
542.0880, 15704.00
543.2640, 17887.00
544.4400, 19720.00
545.6150, 19771.00
546.7910, 18014.00
547.9660, 15371.00
549.1410, 12727.00
550.3170, 10517.00
551.4910, 8738.000
552.6660, 7625.000
553.8410, 6851.000
555.0150, 6355.000
556.1890, 6057.000
557.3630, 5869.000
558.5370, 5814.000
559.7110, 5742.000
560.8840, 5748.000
562.0570, 5732.000
563.2310, 5781.000
564.4040, 5737.000
565.5760, 5778.000
566.7490, 5633.000
567.9220, 5689.000
569.0940, 5546.000
570.2660, 5586.000
571.4380, 5476.000
572.6100, 5551.000
573.7820, 5390.000
574.9530, 5250.000
576.1240, 5362.000
577.2960, 5125.000
578.4670, 5022.000
579.6370, 4957.000
580.8080, 4918.000
581.9790, 4858.000
583.1490, 4752.000
584.3190, 4781.000
585.4890, 4818.000
586.6590, 4671.000
587.8280, 4658.000
588.9980, 4619.000
590.1670, 4539.014
591.3360, 4622.000
592.5050, 4423.000
593.6740, 4413.000
594.8430, 4339.000
596.0110, 4450.000
597.1790, 4421.000
598.3480, 4504.000
599.5160, 4589.000
600.6830, 4695.000
601.8510, 4743.000
603.0180, 4980.000
604.1860, 5051.000
605.3530, 5433.000
606.5200, 5385.064
607.6870, 5477.000
608.8530, 5393.000
610.0200, 5463.000
611.1860, 5504.000
612.3520, 5610.000
613.5180, 5678.768
614.6840, 5761.000
615.8500, 5846.000
617.0150, 5879.000
618.1800, 5945.000
619.3450, 6097.000
620.5100, 6186.000
621.6750, 6223.000
622.8400, 6503.000
624.0040, 6607.000
625.1690, 6728.000
626.3330, 6765.000
627.4970, 6824.000
628.6610, 6869.000
629.8240, 6657.000
630.9880, 6654.000
632.1510, 6323.000
633.3140, 6089.000
634.4770, 5876.000
635.6400, 5565.000
636.8020, 5261.000
637.9650, 5000.000
639.1270, 4751.000
640.2890, 4563.000
641.4510, 4287.000
642.6130, 4203.000
643.7750, 3968.000
644.9360, 3903.000
646.0980, 3829.000
647.2590, 3740.000
648.4200, 3682.000
649.5810, 3625.000
650.7410, 3559.000
651.9020, 3547.000
653.0620, 3466.000
654.2220, 3512.000
655.3820, 3441.000
656.5420, 3446.000
657.7020, 3371.000
658.8610, 3468.000
660.0200, 3458.000
661.1800, 3377.000
662.3390, 3404.000
663.4970, 3378.000
664.6560, 3396.000
665.8150, 3367.000
666.9730, 3415.000
668.1310, 3325.000
669.2890, 3435.000
670.4470, 3426.000
671.6050, 3393.000
672.7620, 3473.000
673.9200, 3481.000
675.0770, 3534.000
676.2340, 3513.000
677.3910, 3544.000
678.5470, 3491.000
679.7040, 3466.000
680.8600, 3532.000
682.0160, 3447.000
683.1720, 3512.000
684.3280, 3481.000
685.4840, 3539.000
686.6390, 3501.000
687.7950, 3492.000
688.9500, 3547.000
690.1050, 3430.000
691.2600, 3395.000
692.4150, 3374.000
693.5690, 3347.000
694.7240, 3433.000
695.8780, 3429.000
697.0320, 3428.000
698.1860, 3354.000
699.3400, 3396.000
700.4930, 3426.000
701.6470, 3474.000
702.8000, 3528.000
703.9530, 3481.000
705.1060, 3552.000
706.2590, 3527.000
707.4110, 3630.000
708.5640, 3514.000
709.7160, 3588.000
710.8680, 3503.000
712.0200, 3556.000
713.1720, 3533.000
714.3230, 3498.000
715.4750, 3400.000
716.6260, 3470.000
717.7770, 3430.000
718.9280, 3463.000
720.0790, 3546.000
721.2300, 3491.000
722.3800, 3527.000
723.5300, 3590.000
724.6810, 3504.000
725.8300, 3589.000
726.9800, 3575.000
728.1300, 3593.000
729.2790, 3612.000
730.4290, 3616.000
731.5780, 3808.000
732.7270, 3756.000
733.8760, 3887.000
735.0240, 3887.000
736.1730, 3874.000
737.3210, 4030.000
738.4700, 4106.000
739.6180, 4282.000
740.7650, 4273.000
741.9130, 4411.000
743.0610, 4532.000
744.2080, 4679.000
745.3550, 4760.000
746.5020, 4853.000
747.6490, 4951.000
748.7960, 5043.000
749.9430, 5159.000
751.0890, 5216.000
752.2350, 5184.000
753.3810, 5270.000
754.5270, 5372.000
755.6730, 5359.000
756.8190, 5610.000
757.9640, 5610.000
759.1090, 5766.000
760.2540, 5926.000
761.3990, 6184.000
762.5440, 6422.000
763.6890, 6772.000
764.8330, 7184.000
765.9780, 7606.000
767.1220, 8080.000
768.2660, 8463.000
769.4100, 8874.000
770.5530, 9203.000
771.6970, 9379.000
772.8400, 9577.000
773.9830, 9490.000
775.1260, 9489.000
776.2690, 9188.000
777.4120, 9004.000
778.5540, 8561.000
779.6970, 8117.000
780.8390, 7870.000
781.9810, 7506.000
783.1230, 7315.000
784.2650, 7099.172
785.4060, 6842.000
786.5480, 6785.000
787.6890, 6601.000
788.8300, 6507.000
789.9710, 6512.000
791.1120, 6515.000
792.2520, 6564.000
793.3930, 6629.000
794.5330, 6726.000
795.6730, 6698.000
796.8130, 6712.000
797.9530, 6924.000
799.0930, 6917.000
800.2320, 7074.000
801.3710, 7153.000
802.5110, 7361.000
803.6500, 7594.000
804.7880, 7834.000
805.9270, 8166.000
807.0660, 8412.000
808.2040, 8861.000
809.3420, 9124.000
810.4800, 9720.000
811.6180, 10091.00
812.7560, 10568.00
813.8930, 10929.00
815.0310, 11591.00
816.1680, 12170.00
817.3050, 12568.00
818.4420, 13423.00
819.5790, 13784.00
820.7150, 14373.00
821.8520, 14440.00
822.9880, 14411.00
824.1240, 14292.00
825.2600, 14003.00
826.3960, 13681.00
827.5320, 13360.00
828.6670, 12851.00
829.8020, 12322.00
830.9380, 12014.00
832.0730, 11599.00
833.2080, 11350.00
834.3420, 11164.00
835.4770, 10906.00
836.6110, 10829.00
837.7450, 10797.00
838.8790, 10509.00
840.0130, 10647.00
841.1470, 10353.00
842.2810, 10437.00
843.4140, 10463.00
844.5470, 10480.00
845.6800, 10585.00
846.8130, 10608.00
847.9460, 10675.00
849.0790, 10742.00
850.2110, 10845.00
851.3440, 11012.00
852.4760, 11092.00
853.6080, 11038.00
854.7400, 11430.00
855.8710, 11540.00
857.0030, 12073.00
858.1340, 12432.00
859.2650, 12933.00
860.3960, 13372.00
861.5270, 14242.00
862.6580, 15105.00
863.7890, 16321.00
864.9190, 17687.00
866.0490, 19489.00
867.1790, 21608.24
868.3090, 24063.22
869.4390, 26844.00
870.5690, 30029.00
871.6980, 33533.00
872.8270, 37357.00
873.9570, 40982.00
875.0860, 44304.00
876.2140, 46864.00
877.3430, 48023.00
878.4720, 48050.00
879.6000, 46255.00
880.7280, 43660.00
881.8560, 40228.00
882.9840, 36553.00
884.1120, 32321.00
885.2390, 28742.00
886.3670, 25145.00
887.4940, 22376.00
888.6210, 19811.00
889.7480, 17865.00
890.8750, 16213.00
892.0020, 14772.00
893.1280, 13594.00
894.2540, 12675.00
895.3810, 12030.00
896.5070, 11455.00
897.6320, 10769.00
898.7580, 10340.00
899.8840, 10014.00
901.0090, 9729.000
902.1340, 9468.000
903.2590, 9290.000
904.3840, 9268.000
905.5090, 8974.000
906.6340, 8972.000
907.7580, 8727.000
908.8820, 8551.000
910.0060, 8595.000
911.1300, 8678.000
912.2540, 8488.000
913.3780, 8683.000
914.5010, 8657.000
915.6250, 8716.000
916.7480, 8738.000
917.8710, 8807.000
918.9940, 8840.000
920.1160, 8814.000
921.2390, 8911.000
922.3610, 8878.000
923.4840, 8987.000
924.6060, 9058.000
925.7280, 8927.000
926.8490, 8910.000
927.9710, 9025.000
929.0930, 8922.000
930.2140, 8791.000
931.3350, 8691.000
932.4560, 8725.576
933.5770, 8800.000
934.6980, 8815.000
935.8180, 8823.000
936.9380, 8808.000
938.0590, 8814.000
939.1790, 8846.000
940.2990, 8805.000
941.4180, 8745.000
942.5380, 8648.000
943.6570, 8553.000
944.7770, 8462.078
945.8960, 8339.000
947.0150, 8262.000
948.1340, 8098.000
949.2520, 8000.000
950.3710, 7810.000
951.4890, 7580.000
952.6070, 7488.000
953.7260, 7159.000
954.8430, 7013.000
955.9610, 6807.000
957.0790, 6689.000
958.1960, 6481.026
959.3130, 6262.000
960.4310, 6124.000
961.5480, 5965.000
962.6640, 5863.000
963.7810, 5913.000
964.8970, 5775.000
966.0140, 5901.000
967.1300, 5965.000
968.2460, 6228.000
969.3620, 6473.000
970.4780, 6633.000
971.5930, 6913.000
972.7090, 7180.733
973.8240, 7432.000
974.9390, 7780.000
976.0540, 8030.000
977.1690, 8335.000
978.2830, 8330.000
979.3980, 8622.000
980.5120, 8618.000
981.6260, 8707.000
982.7400, 8743.000
983.8540, 8737.000
984.9680, 8682.000
986.0820, 8690.000
987.1950, 8644.000
988.3080, 8625.462
989.4210, 8657.000
990.5340, 8571.000
991.6470, 8591.000
992.7600, 8540.000
993.8720, 8415.000
994.9850, 8436.000
996.0970, 8556.000
997.2090, 8472.000
998.3210, 8550.000
999.4320, 8520.000
1000.544, 8507.000
1001.655, 8505.000
1002.767, 8473.000
1003.878, 8476.000
1004.989, 8421.000
1006.100, 8200.000
1007.210, 8061.000
1008.321, 7703.000
1009.431, 7412.000
1010.541, 7054.000
1011.651, 6739.000
1012.761, 6404.000
1013.871, 6096.000
1014.980, 5936.000
1016.090, 5766.000
1017.199, 5693.000
1018.308, 5599.000
1019.417, 5496.000
1020.526, 5435.942
1021.635, 5413.000
1022.743, 5341.000
1023.852, 5331.000
1024.960, 5368.000
1026.068, 5432.000
1027.176, 5543.000
1028.283, 5568.000
1029.391, 5584.000
1030.498, 5620.000
1031.606, 5599.000
1032.713, 5499.380
1033.820, 5349.000
1034.927, 5206.000
1036.033, 5051.000
1037.140, 4836.000
1038.246, 4708.000
1039.353, 4596.000
1040.459, 4531.000
1041.564, 4342.000
1042.670, 4379.000
1043.776, 4252.000
1044.881, 4266.000
1045.987, 4201.000
1047.092, 4124.000
1048.197, 4185.000
1049.302, 4070.000
1050.406, 4104.000
1051.511, 4106.000
1052.615, 4005.000
1053.720, 3980.000
1054.824, 4051.000
1055.928, 4062.000
1057.031, 4028.000
1058.135, 4020.000
1059.238, 4019.561
1060.342, 3976.000
1061.445, 4004.000
1062.548, 4007.000
1063.651, 3973.000
1064.754, 3981.000
1065.856, 3913.000
1066.959, 3918.039
1068.061, 3909.000
1069.163, 3903.000
1070.265, 3908.000
1071.367, 3910.000
1072.469, 3907.199
1073.570, 3907.413
1074.671, 3907.000
1075.773, 3897.000
1076.874, 3901.000
1077.975, 3886.000
1079.075, 3916.000
1080.176, 3884.000
1081.276, 3893.000
1082.377, 3948.000
1083.477, 3919.000
1084.577, 3878.000
1085.677, 3940.000
1086.777, 3963.000
1087.876, 3857.000
1088.975, 3893.000
1090.075, 3913.000
1091.174, 3864.000
1092.273, 3884.000
1093.372, 3861.000
1094.470, 3868.688
1095.569, 3930.000
1096.667, 3909.000
1097.765, 3912.000
1098.863, 3961.000
1099.961, 3857.000
1101.059, 3896.000
1102.157, 3887.000
1103.254, 3968.000
1104.351, 3925.000
1105.449, 3866.000
1106.546, 3925.000
1107.642, 3885.000
1108.739, 3836.000
1109.836, 3928.000
1110.932, 3938.000
1112.028, 3877.000
1113.124, 3876.000
1114.220, 3915.000
1115.316, 3980.000
1116.412, 3975.000
1117.507, 4052.000
1118.603, 4092.000
1119.698, 4113.258
1120.793, 4133.000
1121.888, 4139.000
1122.983, 4170.000
1124.077, 4119.000
1125.172, 4066.000
1126.266, 4135.000
1127.360, 4018.000
1128.454, 4125.000
1129.548, 4053.000
1130.642, 4070.000
1131.735, 4091.000
1132.829, 4147.000
1133.922, 4100.000
1135.015, 4230.000
1136.108, 4139.000
1137.201, 4264.000
1138.294, 4207.000
1139.386, 4301.000
1140.478, 4290.000
1141.571, 4280.000
1142.663, 4267.000
1143.755, 4317.000
1144.846, 4279.000
1145.938, 4320.000
1147.030, 4309.000
1148.121, 4227.000
1149.212, 4216.000
1150.303, 4261.000
1151.394, 4212.000
1152.485, 4285.000
1153.575, 4223.000
1154.666, 4155.000
1155.756, 4199.000
1156.846, 4216.000
1157.936, 4195.000
1159.026, 4247.000
1160.116, 4127.000
1161.205, 4099.000
1162.295, 4146.000
1163.384, 4137.000
1164.473, 4182.000
1165.562, 4146.000
1166.651, 4114.000
1167.739, 4183.000
1168.828, 4155.000
1169.916, 4229.000
1171.005, 4145.000
1172.093, 4152.000
1173.181, 4182.000
1174.268, 4246.000
1175.356, 4154.000
1176.443, 4173.000
1177.531, 4235.000
1178.618, 4187.000
1179.705, 4102.000
1180.792, 4114.000
1181.879, 4097.000
1182.965, 4088.000
1184.052, 4111.000
1185.138, 4048.000
1186.224, 4075.000
1187.310, 4001.000
1188.396, 4050.000
1189.482, 4065.000
1190.567, 4028.000
1191.653, 4004.000
1192.738, 4012.000
1193.823, 3926.000
1194.908, 4098.000
1195.993, 4032.000
1197.077, 4096.000
1198.162, 4008.000
1199.246, 4145.000
1200.331, 4065.000
1201.415, 4100.000
1202.499, 4106.000
1203.582, 4088.414
1204.666, 4092.304
1205.750, 4077.000
1206.833, 4075.000
1207.916, 4030.000
1208.999, 4045.000
1210.082, 4031.000
1211.165, 4029.554
1212.248, 4055.000
1213.330, 4051.000
1214.412, 4068.000
1215.495, 4101.000
1216.577, 4058.000
1217.658, 4103.000
1218.740, 4110.000
1219.822, 4041.000
1220.903, 4091.000
1221.985, 4131.000
1223.066, 4102.000
1224.147, 4110.000
1225.228, 4141.000
1226.308, 4097.000
1227.389, 4114.860
1228.469, 4126.000
1229.550, 4107.000
1230.630, 4140.000
1231.710, 4139.000
1232.790, 4209.000
1233.869, 4146.000
1234.949, 4204.000
1236.028, 4105.000
1237.108, 4173.000
1238.187, 4194.000
1239.266, 4161.000
1240.344, 4176.000
1241.423, 4238.000
1242.502, 4130.000
1243.580, 4214.000
1244.658, 4185.000
1245.736, 4241.000
1246.814, 4288.000
1247.892, 4241.000
1248.970, 4297.000
1250.047, 4213.000
1251.125, 4285.000
1252.202, 4234.000
1253.279, 4256.000
1254.356, 4209.000
1255.433, 4323.000
1256.509, 4248.000
1257.586, 4259.000
1258.662, 4292.000
1259.738, 4240.000
1260.814, 4214.000
1261.890, 4254.000
1262.966, 4227.000
1264.042, 4179.000
1265.117, 4180.000
1266.193, 4190.000
1267.268, 4194.000
1268.343, 4147.000
1269.418, 4182.000
1270.492, 4150.000
1271.567, 4178.000
1272.642, 4111.000
1273.716, 4074.000
1274.790, 4142.000
1275.864, 4103.000
1276.938, 4148.000
1278.012, 4052.000
1279.085, 4156.000
1280.159, 4137.000
1281.232, 4180.000
1282.305, 4059.000
1283.378, 4086.000
1284.451, 4113.000
1285.524, 4142.000
1286.597, 4091.000
1287.669, 4100.000
1288.741, 4069.000
1289.813, 4062.000
1290.885, 4003.000
1291.957, 4073.000
1293.029, 4064.000
1294.101, 4087.000
1295.172, 4182.000
1296.243, 4127.000
1297.315, 4151.000
1298.386, 4067.000
1299.456, 4123.000
1300.527, 4061.000
1301.598, 4092.000
1302.668, 4109.000
1303.738, 4114.000
1304.809, 4171.000
1305.879, 4177.000
1306.948, 4103.000
1308.018, 4189.000
1309.088, 4154.000
1310.157, 4184.000
1311.226, 4220.000
1312.296, 4209.000
1313.365, 4235.000
1314.433, 4318.000
1315.502, 4182.000
1316.571, 4149.000
1317.639, 4269.000
1318.707, 4292.000
1319.776, 4179.000
1320.844, 4319.000
1321.911, 4254.000
1322.979, 4191.000
1324.047, 4213.000
1325.114, 4255.000
1326.181, 4158.000
1327.249, 4227.000
1328.316, 4273.000
1329.382, 4218.000
1330.449, 4250.000
1331.516, 4209.000
1332.582, 4273.000
1333.648, 4292.000
1334.715, 4299.000
1335.781, 4357.000
1336.846, 4354.931
1337.912, 4270.000
1338.978, 4383.000
1340.043, 4321.000
1341.108, 4339.000
1342.174, 4340.000
1343.239, 4323.000
1344.303, 4344.000
1345.368, 4357.000
1346.433, 4314.000
1347.497, 4311.000
1348.561, 4300.000
1349.626, 4332.000
1350.690, 4302.000
1351.753, 4322.000
1352.817, 4343.000
1353.881, 4255.000
1354.944, 4202.000
1356.007, 4364.000
1357.071, 4296.000
1358.134, 4288.000
1359.196, 4236.000
1360.259, 4240.648
1361.322, 4267.000
1362.384, 4263.000
1363.447, 4257.000
1364.509, 4272.000
1365.571, 4326.000
1366.633, 4239.000
1367.694, 4396.000
1368.756, 4361.000
1369.817, 4304.000
1370.879, 4354.000
1371.940, 4254.000
1373.001, 4242.000
1374.062, 4311.000
1375.122, 4315.000
1376.183, 4317.000
1377.244, 4360.000
1378.304, 4332.971
1379.364, 4281.000
1380.424, 4277.000
1381.484, 4302.000
1382.544, 4227.000
1383.603, 4332.000
1384.663, 4328.000
1385.722, 4425.000
1386.781, 4286.000
1387.840, 4321.000
1388.899, 4276.000
1389.958, 4286.000
1391.017, 4294.852
1392.075, 4304.000
1393.134, 4342.000
1394.192, 4334.000
1395.250, 4354.426
1396.308, 4380.000
1397.365, 4366.000
1398.423, 4373.000
1399.481, 4357.000
1400.538, 4326.000
1401.595, 4424.000
1402.652, 4374.000
1403.709, 4397.000
1404.766, 4364.000
1405.823, 4422.000
1406.879, 4435.000
1407.936, 4457.934
1408.992, 4436.000
1410.048, 4482.000
1411.104, 4446.000
1412.160, 4366.000
1413.215, 4417.000
1414.271, 4339.000
1415.326, 4410.000
1416.382, 4413.000
1417.437, 4442.000
1418.492, 4427.000
1419.546, 4466.000
1420.601, 4456.000
1421.656, 4465.000
1422.710, 4464.000
1423.764, 4462.333
1424.819, 4506.000
1425.873, 4469.000
1426.926, 4418.000
1427.980, 4432.976
1429.034, 4514.000
1430.087, 4452.000
1431.140, 4539.000
1432.194, 4544.000
1433.247, 4585.000
1434.299, 4592.000
1435.352, 4561.000
1436.405, 4561.000
1437.457, 4570.000
1438.510, 4580.335
1439.562, 4606.000
1440.614, 4633.000
1441.666, 4638.000
1442.717, 4667.000
1443.769, 4670.000
1444.821, 4624.000
1445.872, 4676.000
1446.923, 4694.000
1447.974, 4599.000
1449.025, 4732.000
1450.076, 4650.000
1451.127, 4661.000
1452.177, 4675.000
1453.227, 4665.000
1454.278, 4714.000
1455.328, 4760.000
1456.378, 4749.000
1457.428, 4750.000
1458.477, 4719.000
1459.527, 4773.000
1460.576, 4690.000
1461.625, 4714.000
1462.675, 4776.000
1463.724, 4716.000
1464.772, 4721.000
1465.821, 4727.000
1466.870, 4734.000
1467.918, 4809.000
1468.966, 4796.000
1470.015, 4756.000
1471.063, 4781.000
1472.110, 4730.000
1473.158, 4771.000
1474.206, 4722.000
1475.253, 4721.000
1476.301, 4745.000
1477.348, 4701.000
1478.395, 4682.000
1479.442, 4696.000
1480.488, 4676.000
1481.535, 4698.000
1482.582, 4772.000
1483.628, 4665.000
1484.674, 4731.000
1485.720, 4756.000
1486.766, 4719.000
1487.812, 4749.000
1488.858, 4711.000
1489.903, 4685.000
1490.949, 4662.000
1491.994, 4665.000
1493.039, 4685.000
1494.084, 4737.000
1495.129, 4640.000
1496.173, 4580.000
1497.218, 4585.000
1498.262, 4670.000
1499.307, 4729.000
1500.351, 4613.000
1501.395, 4666.000
1502.439, 4609.000
1503.483, 4689.000
1504.526, 4697.000
1505.570, 4662.000
1506.613, 4703.000
1507.656, 4782.000
1508.699, 4736.632
1509.742, 4743.637
1510.785, 4680.000
1511.827, 4701.000
1512.870, 4627.000
1513.912, 4663.000
1514.955, 4603.000
1515.997, 4748.000
1517.039, 4646.000
1518.080, 4584.000
1519.122, 4551.000
1520.164, 4699.000
1521.205, 4699.000
1522.246, 4617.000
1523.288, 4657.000
1524.329, 4621.000
1525.369, 4684.000
1526.410, 4642.000
1527.451, 4645.000
1528.491, 4655.000
1529.531, 4698.000
1530.572, 4724.000
1531.612, 4691.000
1532.652, 4656.000
1533.691, 4698.000
1534.731, 4774.000
1535.770, 4712.000
1536.810, 4648.000
1537.849, 4697.000
1538.888, 4589.000
1539.927, 4626.000
1540.966, 4614.000
1542.005, 4678.000
1543.043, 4641.000
1544.082, 4644.000
1545.120, 4693.000
1546.158, 4676.000
1547.196, 4777.000
1548.234, 4694.000
1549.272, 4755.000
1550.309, 4760.000
1551.347, 4705.000
1552.384, 4780.000
1553.421, 4765.000
1554.458, 4785.000
1555.495, 4866.000
1556.532, 4749.000
1557.568, 4775.000
1558.605, 4817.000
1559.641, 4797.000
1560.678, 4711.000
1561.714, 4816.000
1562.750, 4733.000
1563.785, 4863.000
##END=



