##NAMES=Grossular
##RRUFFID=R060444
##IDEAL CHEMISTRY=Ca_3_Al_2_(SiO_4_)_3_
##LOCALITY=Pakistan (?)
##OWNER=RRUFF
##SOURCE=Gemological Institute of America
##DESCRIPTION=Tan colored crystals coating a surface
##STATUS=The identification of this mineral has been confirmed by X-ray diffraction and chemical analysis
##URL=rruff.info/R060444
##MEASURED CHEMISTRY=(Ca_2.98_Mn_0.02_)_Σ=3_(Al_1.84_Fe^3+^_0.13_Ti_0.03_)_Σ=2_((Si_0.99_Al_0.01_)_Σ=1_O_4_)_3_
##PIN_ID=M00607
##ORIENTATION=Laser parallel to a* (1 0 0). Fiducial mark perpendicular to laser is parallel to 0 0 -1
129.0000, 7667.799
130.2340, 7613.000
131.4670, 7601.000
132.7000, 7568.000
133.9330, 7565.000
135.1660, 7522.000
136.3990, 7550.000
137.6310, 7545.000
138.8640, 7642.000
140.0960, 7558.000
141.3280, 7529.000
142.5600, 7490.000
143.7910, 7410.000
145.0230, 7398.000
146.2540, 7471.000
147.4850, 7426.000
148.7160, 7450.000
149.9470, 7471.000
151.1780, 7438.000
152.4080, 7429.000
153.6380, 7410.835
154.8690, 7537.000
156.0980, 7374.000
157.3280, 7402.000
158.5580, 7418.000
159.7870, 7298.000
161.0170, 7388.000
162.2460, 7501.000
163.4750, 7540.000
164.7030, 7615.000
165.9320, 7717.000
167.1600, 7811.000
168.3890, 8009.000
169.6170, 8234.000
170.8450, 8535.000
172.0730, 8886.000
173.3000, 9321.006
174.5280, 9633.000
175.7550, 10291.00
176.9820, 10980.00
178.2090, 11435.00
179.4350, 11555.00
180.6620, 11084.00
181.8880, 10613.00
183.1150, 10107.00
184.3410, 9421.000
185.5670, 8857.000
186.7920, 8497.000
188.0180, 8200.000
189.2430, 7971.000
190.4690, 7876.000
191.6940, 7857.000
192.9180, 7712.000
194.1430, 7522.000
195.3680, 7628.000
196.5920, 7522.000
197.8160, 7601.000
199.0400, 7509.000
200.2640, 7591.000
201.4880, 7607.000
202.7110, 7419.000
203.9350, 7460.000
205.1580, 7473.000
206.3810, 7449.000
207.6040, 7397.000
208.8270, 7529.000
210.0490, 7398.000
211.2710, 7593.000
212.4940, 7473.000
213.7160, 7552.000
214.9370, 7500.000
216.1590, 7517.000
217.3810, 7547.000
218.6020, 7595.000
219.8230, 7629.000
221.0440, 7708.000
222.2650, 7634.000
223.4860, 7613.000
224.7060, 7687.000
225.9260, 7735.000
227.1470, 7834.000
228.3670, 7812.000
229.5860, 7859.000
230.8060, 8001.000
232.0260, 8126.000
233.2450, 8206.000
234.4640, 8287.000
235.6830, 8519.000
236.9020, 8589.000
238.1200, 8661.000
239.3390, 8790.000
240.5570, 8775.000
241.7750, 8798.000
242.9930, 8834.135
244.2110, 8754.000
245.4290, 8819.000
246.6460, 8758.000
247.8630, 8675.000
249.0810, 8525.000
250.2980, 8318.000
251.5140, 8313.000
252.7310, 8195.000
253.9470, 8170.000
255.1640, 8056.000
256.3800, 8024.000
257.5960, 8114.000
258.8120, 8231.000
260.0270, 8186.382
261.2430, 8434.000
262.4580, 8223.000
263.6730, 8155.000
264.8880, 8294.000
266.1030, 8300.000
267.3170, 8388.000
268.5320, 8440.000
269.7460, 8525.000
270.9600, 8587.050
272.1740, 8694.000
273.3880, 8727.000
274.6010, 8867.000
275.8150, 8971.000
277.0280, 8962.000
278.2410, 8878.000
279.4540, 8870.000
280.6670, 8605.000
281.8790, 8584.000
283.0920, 8366.000
284.3040, 8326.000
285.5160, 8327.000
286.7280, 8202.000
287.9400, 8219.000
289.1510, 8183.000
290.3630, 8073.000
291.5740, 8119.000
292.7850, 7924.000
293.9960, 8101.000
295.2070, 7848.000
296.4170, 7961.000
297.6280, 7898.000
298.8380, 7881.000
300.0480, 8075.000
301.2580, 8015.000
302.4680, 8130.000
303.6770, 8154.000
304.8870, 8222.000
306.0960, 8286.000
307.3050, 8424.000
308.5140, 8342.000
309.7230, 8525.000
310.9310, 8557.000
312.1400, 8764.000
313.3480, 8789.000
314.5560, 8795.000
315.7640, 8765.000
316.9720, 8882.000
318.1790, 8762.000
319.3870, 8741.000
320.5940, 8867.000
321.8010, 8784.000
323.0080, 8851.000
324.2150, 8685.000
325.4210, 8712.000
326.6280, 8906.000
327.8340, 8983.000
329.0400, 8897.000
330.2460, 8917.000
331.4510, 8980.000
332.6570, 8994.000
333.8620, 8985.330
335.0680, 8923.000
336.2730, 8957.000
337.4780, 8907.000
338.6820, 8922.000
339.8870, 9059.000
341.0910, 9250.000
342.2950, 9312.000
343.5000, 9417.000
344.7030, 9646.000
345.9070, 9849.000
347.1110, 10140.00
348.3140, 10240.00
349.5170, 10420.00
350.7200, 10800.00
351.9230, 11166.00
353.1260, 11769.00
354.3290, 12134.00
355.5310, 13036.00
356.7330, 14111.00
357.9350, 15344.00
359.1370, 16975.00
360.3390, 18699.00
361.5400, 20913.00
362.7420, 23423.00
363.9430, 26414.00
365.1440, 29974.00
366.3450, 33335.00
367.5460, 36039.00
368.7460, 38098.00
369.9470, 39757.00
371.1470, 41193.00
372.3470, 42263.00
373.5470, 41903.00
374.7460, 39933.00
375.9460, 36241.00
377.1450, 32189.00
378.3450, 27593.00
379.5440, 23779.00
380.7430, 20328.00
381.9410, 17764.00
383.1400, 15712.00
384.3380, 14604.00
385.5370, 13275.00
386.7350, 12634.00
387.9320, 12006.00
389.1300, 11525.00
390.3280, 11143.00
391.5250, 10767.00
392.7220, 10640.00
393.9190, 10244.00
395.1160, 10231.00
396.3130, 10041.00
397.5100, 10028.00
398.7060, 9905.000
399.9020, 9958.000
401.0980, 9887.000
402.2940, 9888.000
403.4900, 10079.00
404.6860, 10330.00
405.8810, 10469.00
407.0760, 10835.00
408.2710, 10979.00
409.4660, 11500.00
410.6610, 11911.00
411.8550, 12555.00
413.0500, 13087.00
414.2440, 13572.00
415.4380, 13469.00
416.6320, 12950.00
417.8260, 12140.00
419.0190, 11357.00
420.2130, 10588.00
421.4060, 10030.97
422.5990, 9336.000
423.7920, 9110.000
424.9850, 8765.000
426.1770, 8549.000
427.3700, 8576.000
428.5620, 8411.000
429.7540, 8357.000
430.9460, 8308.000
432.1380, 8326.000
433.3290, 8300.000
434.5210, 8173.000
435.7120, 8219.000
436.9030, 8145.000
438.0940, 8196.000
439.2850, 8181.000
440.4750, 8189.000
441.6660, 8231.000
442.8560, 8234.000
444.0460, 8164.000
445.2360, 8229.000
446.4260, 8251.000
447.6160, 8322.000
448.8050, 8264.000
449.9940, 8404.000
451.1830, 8414.000
452.3720, 8446.000
453.5610, 8556.000
454.7500, 8598.000
455.9380, 8509.000
457.1260, 8537.000
458.3150, 8531.000
459.5020, 8662.000
460.6900, 8513.000
461.8780, 8603.000
463.0650, 8555.000
464.2530, 8635.000
465.4400, 8443.000
466.6270, 8518.000
467.8130, 8509.000
469.0000, 8438.000
470.1870, 8526.873
471.3730, 8645.000
472.5590, 8626.000
473.7450, 8720.000
474.9310, 8770.000
476.1160, 8676.000
477.3020, 8744.000
478.4870, 8750.000
479.6720, 8632.000
480.8570, 8669.000
482.0420, 8627.000
483.2270, 8652.000
484.4110, 8625.000
485.5960, 8608.000
486.7800, 8710.000
487.9640, 8638.000
489.1480, 8760.000
490.3310, 8630.000
491.5150, 8840.000
492.6980, 8800.000
493.8810, 8880.000
495.0640, 9051.000
496.2470, 8961.000
497.4300, 9014.000
498.6120, 8963.000
499.7950, 9026.000
500.9770, 9083.000
502.1590, 9038.000
503.3410, 9043.000
504.5220, 9173.000
505.7040, 9181.000
506.8850, 9314.000
508.0660, 9184.000
509.2470, 9257.000
510.4280, 9230.000
511.6090, 9148.000
512.7890, 9106.000
513.9700, 9052.000
515.1500, 9010.000
516.3300, 9013.000
517.5100, 9064.000
518.6900, 9089.024
519.8690, 9150.000
521.0490, 9269.000
522.2280, 9437.000
523.4070, 9662.000
524.5860, 9573.000
525.7640, 9671.000
526.9430, 9595.000
528.1210, 9405.000
529.3000, 9393.000
530.4780, 9224.000
531.6560, 9319.000
532.8330, 9153.000
534.0110, 9419.000
535.1880, 9575.000
536.3650, 9821.000
537.5430, 10416.00
538.7190, 10792.00
539.8960, 11463.00
541.0730, 12366.00
542.2490, 13284.00
543.4250, 14203.00
544.6020, 15491.00
545.7780, 16882.00
546.9530, 17772.00
548.1290, 17858.00
549.3040, 17063.00
550.4800, 15430.00
551.6550, 13927.00
552.8300, 12565.00
554.0040, 11637.00
555.1790, 10705.00
556.3540, 10297.00
557.5280, 9946.000
558.7020, 9718.000
559.8760, 9546.000
561.0500, 9523.000
562.2230, 9406.835
563.3970, 9423.000
564.5700, 9349.000
565.7430, 9333.000
566.9160, 9333.000
568.0890, 9302.000
569.2620, 9333.000
570.4340, 9393.000
571.6070, 9432.000
572.7790, 9305.000
573.9510, 9226.000
575.1230, 9335.000
576.2940, 9324.000
577.4660, 9391.000
578.6370, 9252.000
579.8080, 9352.000
580.9790, 9376.000
582.1500, 9525.000
583.3210, 9415.000
584.4910, 9588.000
585.6620, 9606.000
586.8320, 9721.000
588.0020, 9864.000
589.1720, 9984.000
590.3410, 9892.000
591.5110, 9999.000
592.6800, 9750.000
593.8500, 9638.000
595.0190, 9564.000
596.1880, 9504.000
597.3560, 9471.000
598.5250, 9491.000
599.6930, 9422.000
600.8620, 9401.000
602.0300, 9491.000
603.1970, 9460.000
604.3650, 9358.000
605.5330, 9531.000
606.7000, 9508.000
607.8680, 9600.000
609.0350, 9592.000
610.2020, 9640.000
611.3680, 9654.000
612.5350, 9850.000
613.7010, 9780.000
614.8680, 9981.000
616.0340, 10205.00
617.2000, 10233.00
618.3660, 10324.00
619.5310, 10494.00
620.6970, 10805.00
621.8620, 10945.00
623.0270, 11147.00
624.1920, 11313.00
625.3570, 11434.00
626.5220, 11462.00
627.6860, 11247.00
628.8500, 10991.00
630.0140, 10848.00
631.1780, 10617.00
632.3420, 10411.00
633.5060, 10210.00
634.6700, 10141.00
635.8330, 10039.00
636.9960, 10023.00
638.1590, 10024.00
639.3220, 10043.00
640.4850, 10177.00
641.6470, 10118.00
642.8100, 10132.00
643.9720, 10250.00
645.1340, 10248.00
646.2960, 10278.00
647.4570, 10102.00
648.6190, 10104.00
649.7800, 10032.00
650.9420, 10056.00
652.1030, 9981.940
653.2640, 9899.000
654.4240, 9836.000
655.5850, 9698.000
656.7450, 9578.000
657.9060, 9433.000
659.0660, 9449.000
660.2260, 9244.000
661.3850, 9187.000
662.5450, 9204.000
663.7040, 9235.000
664.8640, 9109.000
666.0230, 9126.000
667.1820, 9033.000
668.3410, 8957.000
669.4990, 8979.000
670.6580, 8977.000
671.8160, 9012.000
672.9740, 9039.000
674.1320, 9003.477
675.2900, 9005.599
676.4480, 8943.000
677.6050, 8938.000
678.7630, 8931.000
679.9200, 8869.000
681.0770, 8774.000
682.2340, 8826.000
683.3900, 8847.000
684.5470, 8914.000
685.7030, 8849.000
686.8590, 8849.000
688.0150, 8881.000
689.1710, 8928.000
690.3270, 8828.000
691.4830, 8787.000
692.6380, 8757.000
693.7930, 8763.000
694.9480, 8810.170
696.1030, 8794.000
697.2580, 8949.000
698.4130, 8939.000
699.5670, 8982.000
700.7210, 8871.000
701.8750, 8968.000
703.0290, 9009.000
704.1830, 8941.000
705.3370, 9064.000
706.4900, 9019.000
707.6430, 8938.000
708.7970, 8924.000
709.9490, 9126.000
711.1020, 9027.000
712.2550, 9165.000
713.4070, 9109.000
714.5600, 9091.000
715.7120, 9077.000
716.8640, 9109.000
718.0160, 9157.000
719.1670, 9091.000
720.3190, 9303.000
721.4700, 9413.000
722.6210, 9351.000
723.7720, 9488.000
724.9230, 9349.000
726.0740, 9442.000
727.2250, 9529.000
728.3750, 9500.000
729.5250, 9553.000
730.6750, 9592.000
731.8250, 9628.000
732.9750, 9677.554
734.1240, 9705.249
735.2740, 9727.800
736.4230, 9758.000
737.5720, 9753.000
738.7210, 9758.000
739.8700, 9757.000
741.0190, 9837.000
742.1670, 9776.000
743.3150, 9913.000
744.4630, 9954.000
745.6110, 9827.000
746.7590, 10011.00
747.9070, 10072.00
749.0540, 10154.00
750.2020, 10099.00
751.3490, 10160.00
752.4960, 10195.00
753.6430, 10305.00
754.7890, 10421.00
755.9360, 10473.00
757.0820, 10637.00
758.2280, 10693.00
759.3740, 10676.00
760.5200, 10919.00
761.6660, 11108.00
762.8120, 11106.00
763.9570, 11382.00
765.1020, 11398.00
766.2470, 11563.00
767.3920, 11644.00
768.5370, 11738.00
769.6810, 11884.00
770.8260, 12013.00
771.9700, 12077.00
773.1140, 12118.00
774.2580, 12040.00
775.4020, 12013.25
776.5460, 11941.50
777.6890, 11895.00
778.8320, 11836.60
779.9750, 11812.00
781.1180, 11727.00
782.2610, 11693.00
783.4040, 11673.00
784.5460, 11568.00
785.6890, 11540.00
786.8310, 11664.00
787.9730, 11678.00
789.1150, 11629.00
790.2560, 11744.00
791.3980, 11798.00
792.5390, 11700.00
793.6810, 12016.00
794.8220, 12006.00
795.9630, 12179.00
797.1030, 12351.00
798.2440, 12541.00
799.3840, 12842.00
800.5240, 12984.00
801.6650, 13089.00
802.8040, 13415.00
803.9440, 13702.00
805.0840, 14184.00
806.2230, 14303.00
807.3630, 14675.00
808.5020, 14950.00
809.6410, 15259.00
810.7790, 15619.00
811.9180, 15998.00
813.0570, 16305.00
814.1950, 16650.00
815.3330, 16961.00
816.4710, 17291.00
817.6090, 17662.00
818.7470, 18114.00
819.8840, 18524.00
821.0220, 18684.00
822.1590, 18988.00
823.2960, 19116.00
824.4330, 19295.00
825.5690, 19319.00
826.7060, 19016.00
827.8420, 18814.00
828.9790, 18364.00
830.1150, 18072.00
831.2510, 17786.00
832.3860, 17563.00
833.5220, 17265.00
834.6570, 17072.27
835.7930, 16905.00
836.9280, 16758.00
838.0630, 16743.00
839.1980, 16766.00
840.3320, 16769.00
841.4670, 16764.00
842.6010, 16843.00
843.7350, 16855.00
844.8690, 17023.00
846.0030, 17038.00
847.1370, 17312.00
848.2700, 17354.00
849.4040, 17310.00
850.5370, 17415.00
851.6700, 17701.00
852.8030, 17708.00
853.9360, 18045.00
855.0680, 18172.00
856.2000, 18614.00
857.3330, 18871.00
858.4650, 19230.00
859.5970, 19600.00
860.7290, 20099.00
861.8600, 20577.00
862.9920, 21161.00
864.1230, 22071.00
865.2540, 22773.00
866.3850, 23934.00
867.5160, 25438.00
868.6460, 27456.00
869.7770, 29873.00
870.9070, 32759.17
872.0370, 35941.00
873.1670, 39766.00
874.2970, 43779.00
875.4270, 48148.00
876.5570, 52029.00
877.6860, 55219.00
878.8150, 57990.00
879.9440, 59075.00
881.0730, 57832.00
882.2020, 55805.00
883.3300, 52087.00
884.4590, 48115.00
885.5870, 43583.00
886.7150, 39133.00
887.8430, 35138.00
888.9710, 31641.00
890.0990, 28561.00
891.2260, 26224.00
892.3530, 24251.00
893.4810, 22436.00
894.6080, 21143.00
895.7340, 19959.00
896.8610, 19041.00
897.9880, 18148.00
899.1140, 17501.90
900.2400, 16985.00
901.3660, 16615.00
902.4920, 16271.00
903.6180, 16143.00
904.7430, 15823.00
905.8690, 15595.00
906.9940, 15388.00
908.1190, 15217.00
909.2440, 15115.00
910.3690, 14863.00
911.4930, 14658.00
912.6180, 14755.00
913.7420, 14607.00
914.8660, 14392.00
915.9900, 14316.00
917.1140, 14150.06
918.2380, 13959.00
919.3610, 13861.00
920.4850, 13755.00
921.6080, 13553.00
922.7310, 13540.00
923.8540, 13581.00
924.9760, 13381.00
926.0990, 13443.00
927.2210, 13344.00
928.3440, 13258.00
929.4660, 13317.00
930.5880, 13228.00
931.7090, 13216.47
932.8310, 13426.00
933.9520, 13228.00
935.0740, 13170.00
936.1950, 13313.00
937.3160, 13163.00
938.4360, 13053.00
939.5570, 13016.00
940.6780, 13098.00
941.7980, 13117.00
942.9180, 13045.00
944.0380, 13106.00
945.1580, 13080.00
946.2780, 13237.00
947.3970, 13275.00
948.5170, 13194.00
949.6360, 13258.00
950.7550, 13215.72
951.8740, 13143.00
952.9930, 13163.00
954.1110, 12987.00
955.2300, 12935.00
956.3480, 12904.00
957.4660, 12859.00
958.5840, 12808.00
959.7020, 12715.00
960.8190, 12683.00
961.9370, 12651.56
963.0540, 12625.76
964.1710, 12662.00
965.2880, 12634.00
966.4050, 12725.00
967.5220, 12774.00
968.6380, 12810.00
969.7550, 12668.00
970.8710, 12867.00
971.9870, 12805.00
973.1030, 12874.00
974.2190, 12947.00
975.3340, 12948.00
976.4500, 13118.00
977.5650, 13191.00
978.6800, 13284.00
979.7950, 13363.36
980.9100, 13418.61
982.0250, 13486.00
983.1390, 13513.00
984.2530, 13598.00
985.3680, 13627.00
986.4820, 13771.00
987.5950, 13848.00
988.7090, 13700.00
989.8230, 13946.00
990.9360, 13842.00
992.0490, 14051.00
993.1620, 13950.00
994.2750, 14029.00
995.3880, 14151.00
996.5010, 14403.00
997.6130, 14629.00
998.7250, 15010.00
999.8370, 15223.00
1000.949, 15549.00
1002.061, 15720.00
1003.173, 15676.00
1004.284, 15378.00
1005.396, 15173.00
1006.507, 15075.00
1007.618, 15041.00
1008.729, 14896.00
1009.839, 14670.00
1010.950, 14472.00
1012.060, 14098.00
1013.171, 14140.00
1014.281, 13883.00
1015.391, 13650.00
1016.500, 13758.00
1017.610, 13580.00
1018.719, 13703.00
1019.829, 13595.00
1020.938, 13669.00
1022.047, 13563.00
1023.156, 13499.00
1024.264, 13527.00
1025.373, 13337.00
1026.481, 13461.00
1027.589, 13400.00
1028.697, 13287.00
1029.805, 13360.00
1030.913, 13324.00
1032.020, 13146.00
1033.128, 13990.00
1034.235, 13544.29
1035.342, 13567.45
1036.449, 13289.00
1037.556, 13168.00
1038.663, 13133.00
1039.769, 13024.00
1040.875, 13131.00
1041.981, 13273.00
1043.087, 13173.00
1044.193, 13119.00
1045.299, 13218.00
1046.404, 13099.00
1047.510, 13321.00
1048.615, 13368.00
1049.720, 13188.00
1050.825, 13298.00
1051.930, 13277.00
1053.034, 13314.00
1054.139, 13239.00
1055.243, 13134.00
1056.347, 13321.00
1057.451, 13291.00
1058.555, 13191.00
1059.658, 13336.00
1060.762, 13257.00
1061.865, 13246.00
1062.968, 13332.00
1064.071, 13385.00
1065.174, 13292.00
1066.277, 13309.00
1067.380, 13310.00
1068.482, 13342.41
1069.584, 13499.00
1070.686, 13497.00
1071.788, 13616.00
1072.890, 13750.00
1073.992, 13656.00
1075.093, 13676.00
1076.194, 13825.00
1077.295, 13916.00
1078.396, 13845.00
1079.497, 13936.00
1080.598, 14240.00
1081.698, 14203.00
1082.799, 14264.00
1083.899, 14256.00
1084.999, 14249.00
1086.099, 14296.00
1087.199, 14059.00
1088.298, 14073.00
1089.398, 14029.19
1090.497, 14026.00
1091.596, 13965.00
1092.695, 14015.00
1093.794, 13942.00
1094.892, 13871.00
1095.991, 14010.00
1097.089, 13927.00
1098.187, 14073.00
1099.285, 13958.00
1100.383, 14179.00
1101.481, 14059.00
1102.579, 13970.00
1103.676, 13982.00
1104.773, 14134.00
1105.870, 14141.00
1106.967, 14375.00
1108.064, 14496.16
1109.161, 14563.72
1110.257, 14718.00
1111.353, 14754.00
1112.449, 14595.00
1113.545, 14733.00
1114.641, 14624.00
1115.737, 14708.00
1116.832, 14660.00
1117.928, 14519.00
1119.023, 14521.00
1120.118, 14528.00
1121.213, 14605.00
1122.308, 14639.00
1123.402, 14659.00
1124.497, 14615.00
1125.591, 14668.71
1126.685, 14520.00
1127.779, 14684.00
1128.873, 14613.00
1129.967, 14518.00
1131.060, 14543.00
1132.153, 14615.00
1133.247, 14592.00
1134.340, 14640.00
1135.433, 14622.00
1136.525, 14541.00
1137.618, 14675.00
1138.710, 14623.00
1139.802, 14747.00
1140.895, 14567.00
1141.987, 14621.00
1143.078, 14654.00
1144.170, 14738.00
1145.261, 14732.00
1146.353, 14846.00
1147.444, 14826.00
1148.535, 14876.23
1149.626, 14809.00
1150.716, 14893.00
1151.807, 15035.00
1152.897, 14949.00
1153.988, 15040.00
1155.078, 15061.00
1156.168, 15212.00
1157.257, 15134.00
1158.347, 15184.00
1159.436, 15229.00
1160.526, 15276.00
1161.615, 15321.00
1162.704, 15285.00
1163.793, 15177.00
1164.881, 15416.00
1165.970, 15297.00
1167.058, 15344.00
1168.147, 15590.00
1169.235, 15349.00
1170.323, 15514.19
1171.410, 15492.01
1172.498, 15561.00
1173.585, 15535.00
1174.673, 15477.00
1175.760, 15614.00
1176.847, 15504.00
1177.934, 15508.00
1179.020, 15788.00
1180.107, 15692.00
1181.193, 15508.00
1182.279, 15592.00
1183.365, 15492.00
1184.451, 15634.00
1185.537, 15768.00
1186.623, 15770.00
1187.708, 15739.00
1188.793, 15724.00
1189.878, 15688.00
1190.963, 15647.00
1192.048, 15708.00
1193.133, 15595.00
1194.217, 15584.00
1195.302, 15550.00
1196.386, 15648.00
1197.470, 15630.00
1198.554, 15681.00
1199.638, 15640.00
1200.721, 15772.00
1201.805, 15825.00
1202.888, 15829.00
1203.971, 15797.00
1205.054, 15667.00
1206.137, 15785.00
1207.219, 15760.00
1208.302, 15873.00
1209.384, 15978.00
1210.466, 15947.00
1211.548, 16048.00
1212.630, 16231.00
1213.712, 16164.00
1214.794, 16212.00
1215.875, 16249.00
1216.956, 16448.00
1218.037, 16516.00
1219.118, 16390.00
1220.199, 16470.00
1221.280, 16371.00
1222.360, 16467.00
1223.441, 16518.00
1224.521, 16659.00
1225.601, 16497.00
1226.681, 16559.00
1227.760, 16683.00
1228.840, 16570.00
1229.919, 16916.00
1230.999, 16815.00
1232.078, 16808.00
1233.157, 16785.00
1234.236, 16954.00
1235.314, 17032.00
1236.393, 17018.00
1237.471, 17008.00
1238.549, 17134.00
1239.627, 17096.00
1240.705, 17262.00
1241.783, 17357.00
1242.860, 17126.00
1243.938, 17101.00
1245.015, 17272.00
1246.092, 17215.00
1247.169, 17297.00
1248.246, 17487.00
1249.323, 17396.00
1250.399, 17504.20
1251.475, 17476.00
1252.552, 17600.00
1253.628, 17581.00
1254.703, 17702.00
1255.779, 17661.00
1256.855, 17576.00
1257.930, 17460.00
1259.005, 17494.00
1260.080, 17740.00
1261.155, 17647.00
1262.230, 17730.00
1263.305, 17837.00
1264.379, 17908.00
1265.454, 17921.00
1266.528, 18102.00
1267.602, 17912.00
1268.676, 18083.00
1269.750, 17966.00
1270.823, 18276.00
1271.897, 18374.00
1272.970, 18124.00
1274.043, 18127.00
1275.116, 18149.00
1276.189, 18258.00
1277.261, 17984.00
1278.334, 18097.00
1279.406, 17924.00
1280.478, 18032.00
1281.550, 18068.00
1282.622, 17951.00
1283.694, 18091.00
1284.766, 18168.00
1285.837, 17932.00
1286.908, 18163.00
1287.979, 18165.00
1289.050, 18050.00
1290.121, 18286.00
1291.192, 18243.00
1292.262, 18433.00
1293.333, 18363.00
1294.403, 18552.00
1295.473, 18647.00
1296.543, 18494.00
1297.613, 18610.00
1298.682, 18374.00
1299.752, 18568.00
1300.821, 18635.00
1301.890, 18678.00
1302.959, 18760.47
1304.028, 18781.93
1305.096, 18807.00
1306.165, 18880.00
1307.233, 18864.00
1308.301, 19011.00
1309.370, 18865.00
1310.437, 19014.00
1311.505, 19125.00
1312.573, 18978.00
1313.640, 19056.00
1314.708, 18967.00
1315.775, 19067.00
1316.842, 19124.00
1317.908, 19023.00
1318.975, 19002.00
1320.042, 19030.00
1321.108, 19226.00
1322.174, 19136.00
1323.240, 19116.00
1324.306, 18993.00
1325.372, 18862.00
1326.438, 18910.00
1327.503, 18861.00
1328.568, 18808.00
1329.634, 18849.00
1330.699, 18793.00
1331.763, 18681.00
1332.828, 18695.00
1333.893, 18683.00
1334.957, 18800.00
1336.021, 18882.00
1337.085, 18843.00
1338.149, 18973.00
1339.213, 18821.00
1340.277, 18867.00
1341.340, 18929.00
1342.404, 18965.00
1343.467, 19040.00
1344.530, 19098.00
1345.593, 19114.89
1346.655, 19112.73
1347.718, 19128.00
1348.780, 19097.00
1349.843, 19058.00
1350.905, 19147.00
1351.967, 19143.00
1353.028, 18977.00
1354.090, 19044.00
1355.152, 19164.00
1356.213, 19054.00
1357.274, 19329.00
1358.335, 19211.00
1359.396, 19205.00
1360.457, 19178.00
1361.517, 19356.00
1362.578, 19343.00
1363.638, 19391.00
1364.698, 19399.00
1365.758, 19416.00
1366.818, 19343.00
1367.878, 19418.81
1368.937, 19667.00
1369.997, 19543.00
1371.056, 19629.00
1372.115, 19733.00
1373.174, 19716.00
1374.232, 19881.00
1375.291, 19697.00
1376.350, 19843.00
1377.408, 20067.00
1378.466, 20041.00
1379.524, 19859.00
1380.582, 20000.00
1381.640, 20005.00
1382.697, 19896.00
1383.754, 20032.00
1384.812, 19961.00
1385.869, 20129.00
1386.926, 20087.00
1387.983, 20090.00
1389.039, 20187.00
1390.096, 20058.00
1391.152, 20225.00
1392.208, 20249.00
1393.264, 20376.00
1394.320, 20320.00
1395.376, 20293.00
1396.431, 20332.24
1397.487, 20194.00
1398.542, 20379.00
1399.597, 20332.00
1400.652, 20447.00
1401.707, 20439.00
1402.762, 20428.00
1403.816, 20517.00
1404.871, 20405.00
1405.925, 20627.00
1406.979, 20643.00
1408.033, 20810.00
1409.086, 20610.00
1410.140, 20752.00
1411.194, 20686.00
1412.247, 20650.00
1413.300, 20750.00
1414.353, 20816.00
1415.406, 20853.00
1416.458, 20778.00
1417.511, 20688.00
1418.563, 20913.00
1419.616, 20847.00
1420.668, 20985.00
1421.720, 21002.00
1422.772, 20951.00
1423.823, 21152.00
1424.875, 21200.00
1425.926, 21203.00
1426.977, 21204.00
1428.028, 21328.00
1429.079, 21433.00
1430.130, 21642.00
1431.180, 21561.00
1432.231, 21690.00
1433.281, 21886.00
1434.331, 21918.00
1435.381, 22060.00
1436.431, 22336.00
1437.481, 22482.00
1438.530, 22703.00
1439.580, 22813.00
1440.629, 22985.00
1441.678, 23074.00
1442.727, 23253.00
1443.776, 23404.60
1444.824, 23748.00
1445.873, 23693.00
1446.921, 23925.00
1447.969, 23985.00
1449.017, 23952.00
1450.065, 23960.00
1451.113, 24065.00
1452.160, 24102.00
1453.208, 24417.00
1454.255, 24328.00
1455.302, 24381.00
1456.349, 24264.00
1457.396, 24265.00
1458.443, 24216.00
1459.489, 24094.00
1460.535, 24045.00
1461.582, 23880.00
1462.628, 24007.00
1463.674, 23748.00
1464.719, 23857.00
1465.765, 23486.00
1466.810, 23527.00
1467.856, 23351.00
1468.901, 23408.00
1469.946, 23216.00
1470.991, 23356.00
1472.035, 23148.00
1473.080, 23147.00
1474.124, 23126.00
1475.169, 23245.00
1476.213, 23244.00
1477.257, 23176.00
1478.300, 23265.22
1479.344, 23338.00
1480.388, 23270.00
1481.431, 23388.00
1482.474, 23254.00
1483.517, 23377.00
1484.560, 23416.00
1485.603, 23362.00
1486.645, 23375.00
1487.688, 23278.00
1488.730, 23271.92
1489.772, 22956.00
1490.814, 23202.00
1491.856, 23133.20
1492.898, 23060.00
1493.939, 23245.00
1494.981, 23109.00
1496.022, 22943.00
1497.063, 23162.00
1498.104, 23186.00
1499.145, 23175.00
1500.186, 22987.00
1501.226, 23334.00
1502.266, 23119.00
1503.307, 23252.00
1504.347, 23237.00
1505.387, 23269.00
1506.426, 23326.00
1507.466, 23336.00
1508.505, 23374.89
1509.545, 23408.00
1510.584, 23425.00
1511.623, 23531.00
1512.662, 23552.00
1513.700, 23510.00
1514.739, 23513.00
1515.777, 23762.00
1516.815, 23732.00
1517.854, 23862.00
1518.892, 23886.00
1519.929, 23896.00
1520.967, 24044.00
1522.004, 24009.00
1523.042, 23925.00
1524.079, 24161.00
1525.116, 24143.00
1526.153, 24097.00
1527.190, 24254.00
1528.226, 24212.00
1529.263, 24258.00
1530.299, 24487.00
1531.335, 24118.00
1532.371, 24239.00
1533.407, 24440.00
1534.443, 24400.00
1535.478, 24555.00
1536.514, 24508.00
1537.549, 24514.00
1538.584, 24547.00
1539.619, 24570.00
1540.654, 24473.00
1541.689, 24527.00
1542.723, 24904.00
1543.757, 24664.00
1544.792, 24836.00
1545.826, 24709.00
1546.860, 25042.00
1547.893, 24862.00
1548.927, 24779.00
1549.960, 25023.00
1550.994, 25059.00
1552.027, 25064.00
1553.060, 25001.00
1554.093, 25363.00
1555.126, 25429.00
1556.158, 25075.00
1557.191, 25260.00
1558.223, 25032.00
1559.255, 25165.00
1560.287, 25249.00
1561.319, 25202.00
1562.350, 25561.00
##END=



