##NAMES=Grossular
##RRUFFID=R060444
##IDEAL CHEMISTRY=Ca_3_Al_2_(SiO_4_)_3_
##LOCALITY=Pakistan (?)
##OWNER=RRUFF
##SOURCE=Gemological Institute of America
##DESCRIPTION=Tan colored crystals coating a surface
##STATUS=The identification of this mineral has been confirmed by X-ray diffraction and chemical analysis
##URL=rruff.info/R060444
##MEASURED CHEMISTRY=(Ca_2.98_Mn_0.02_)_Σ=3_(Al_1.84_Fe^3+^_0.13_Ti_0.03_)_Σ=2_((Si_0.99_Al_0.01_)_Σ=1_O_4_)_3_
##PIN_ID=M00607
##ORIENTATION=Laser parallel to a* (1 0 0). Fiducial mark perpendicular to laser is parallel to 0 0 -1
129.0000, 3979.000
130.2340, 4054.000
131.4670, 4036.000
132.7000, 4066.000
133.9330, 3993.000
135.1660, 4120.000
136.3990, 4023.000
137.6310, 4077.000
138.8640, 4153.000
140.0960, 4131.000
141.3280, 4123.000
142.5600, 4102.000
143.7910, 4034.000
145.0230, 4117.000
146.2540, 4112.000
147.4850, 4204.000
148.7160, 4184.000
149.9470, 4258.000
151.1780, 4211.000
152.4080, 4251.000
153.6380, 4304.000
154.8690, 4231.000
156.0980, 4232.000
157.3280, 4309.000
158.5580, 4297.000
159.7870, 4239.000
161.0170, 4287.000
162.2460, 4305.000
163.4750, 4327.000
164.7030, 4478.000
165.9320, 4557.000
167.1600, 4727.000
168.3890, 4890.000
169.6170, 5047.000
170.8450, 5580.000
172.0730, 5713.000
173.3000, 6168.000
174.5280, 6676.000
175.7550, 7380.000
176.9820, 8028.000
178.2090, 8636.000
179.4350, 8606.000
180.6620, 8137.000
181.8880, 7534.000
183.1150, 6691.000
184.3410, 6305.000
185.5670, 5815.000
186.7920, 5320.000
188.0180, 5109.000
189.2430, 4910.000
190.4690, 4803.000
191.6940, 4686.000
192.9180, 4622.373
194.1430, 4665.000
195.3680, 4584.000
196.5920, 4575.000
197.8160, 4609.000
199.0400, 4588.000
200.2640, 4519.000
201.4880, 4548.000
202.7110, 4515.000
203.9350, 4512.000
205.1580, 4474.560
206.3810, 4472.000
207.6040, 4388.000
208.8270, 4387.000
210.0490, 4366.000
211.2710, 4451.000
212.4940, 4515.000
213.7160, 4453.000
214.9370, 4504.000
216.1590, 4411.000
217.3810, 4502.000
218.6020, 4485.000
219.8230, 4448.000
221.0440, 4509.000
222.2650, 4545.000
223.4860, 4557.000
224.7060, 4556.000
225.9260, 4576.000
227.1470, 4631.000
228.3670, 4708.000
229.5860, 4707.000
230.8060, 4797.000
232.0260, 4833.000
233.2450, 4983.000
234.4640, 5041.958
235.6830, 5155.000
236.9020, 5218.000
238.1200, 5275.000
239.3390, 5369.000
240.5570, 5290.000
241.7750, 5461.000
242.9930, 5463.000
244.2110, 5443.000
245.4290, 5515.000
246.6460, 5505.000
247.8630, 5372.000
249.0810, 5205.000
250.2980, 5169.000
251.5140, 5142.000
252.7310, 4863.000
253.9470, 5000.000
255.1640, 4859.000
256.3800, 4960.000
257.5960, 4985.000
258.8120, 5137.000
260.0270, 5311.000
261.2430, 5075.000
262.4580, 5040.000
263.6730, 5074.000
264.8880, 5120.000
266.1030, 5157.000
267.3170, 5280.000
268.5320, 5267.000
269.7460, 5335.000
270.9600, 5442.000
272.1740, 5441.000
273.3880, 5614.000
274.6010, 5609.000
275.8150, 5714.000
277.0280, 5808.000
278.2410, 5622.000
279.4540, 5528.000
280.6670, 5504.000
281.8790, 5361.000
283.0920, 5309.000
284.3040, 5246.000
285.5160, 5230.000
286.7280, 5202.000
287.9400, 5157.000
289.1510, 5163.000
290.3630, 5144.000
291.5740, 5072.000
292.7850, 5095.000
293.9960, 4948.000
295.2070, 4901.000
296.4170, 4874.000
297.6280, 4928.000
298.8380, 4850.000
300.0480, 5039.000
301.2580, 5028.000
302.4680, 5066.000
303.6770, 5105.000
304.8870, 5148.340
306.0960, 5246.000
307.3050, 5281.000
308.5140, 5385.000
309.7230, 5479.000
310.9310, 5624.000
312.1400, 5558.000
313.3480, 5699.000
314.5560, 5780.000
315.7640, 5726.000
316.9720, 5744.000
318.1790, 5640.000
319.3870, 5728.000
320.5940, 5640.000
321.8010, 5640.000
323.0080, 5619.000
324.2150, 5526.000
325.4210, 5686.000
326.6280, 5760.000
327.8340, 5745.000
329.0400, 5776.000
330.2460, 5793.688
331.4510, 5807.420
332.6570, 5835.000
333.8620, 5823.000
335.0680, 5891.000
336.2730, 5842.000
337.4780, 5931.000
338.6820, 5810.000
339.8870, 5993.000
341.0910, 6030.000
342.2950, 6227.000
343.5000, 6381.000
344.7030, 6551.000
345.9070, 6747.000
347.1110, 6911.000
348.3140, 7154.000
349.5170, 7380.000
350.7200, 7781.000
351.9230, 8179.000
353.1260, 8589.000
354.3290, 9299.000
355.5310, 9996.000
356.7330, 10990.00
357.9350, 12352.00
359.1370, 13953.00
360.3390, 15822.00
361.5400, 17984.00
362.7420, 20645.00
363.9430, 23604.00
365.1440, 27062.00
366.3450, 30260.00
367.5460, 33086.00
368.7460, 35159.00
369.9470, 36619.00
371.1470, 37981.00
372.3470, 38465.00
373.5470, 38061.00
374.7460, 36189.00
375.9460, 32980.00
377.1450, 28681.00
378.3450, 24143.00
379.5440, 20192.00
380.7430, 16893.00
381.9410, 14383.00
383.1400, 12546.00
384.3380, 10986.00
385.5370, 10076.00
386.7350, 9287.000
387.9320, 8729.000
389.1300, 8223.000
390.3280, 7855.000
391.5250, 7578.000
392.7220, 7315.000
393.9190, 7166.000
395.1160, 6942.000
396.3130, 6870.000
397.5100, 6803.000
398.7060, 6765.000
399.9020, 6701.000
401.0980, 6762.000
402.2940, 6790.000
403.4900, 6986.000
404.6860, 7117.000
405.8810, 7461.000
407.0760, 7716.000
408.2710, 8104.000
409.4660, 8549.000
410.6610, 8936.000
411.8550, 9607.000
413.0500, 10093.00
414.2440, 10431.00
415.4380, 10395.00
416.6320, 9861.000
417.8260, 9178.000
419.0190, 8308.000
420.2130, 7434.000
421.4060, 6908.000
422.5990, 6329.000
423.7920, 6021.000
424.9850, 5780.000
426.1770, 5546.000
427.3700, 5345.000
428.5620, 5387.000
429.7540, 5300.000
430.9460, 5212.000
432.1380, 5226.000
433.3290, 5263.000
434.5210, 5199.000
435.7120, 5107.000
436.9030, 5176.000
438.0940, 5081.000
439.2850, 4970.000
440.4750, 5057.000
441.6660, 5067.000
442.8560, 5108.000
444.0460, 5076.000
445.2360, 5118.000
446.4260, 5149.000
447.6160, 5213.000
448.8050, 5194.000
449.9940, 5204.000
451.1830, 5189.000
452.3720, 5266.000
453.5610, 5309.000
454.7500, 5310.000
455.9380, 5302.000
457.1260, 5415.000
458.3150, 5356.000
459.5020, 5430.000
460.6900, 5370.000
461.8780, 5391.000
463.0650, 5311.000
464.2530, 5320.326
465.4400, 5363.000
466.6270, 5317.000
467.8130, 5326.000
469.0000, 5329.000
470.1870, 5330.000
471.3730, 5334.000
472.5590, 5375.000
473.7450, 5376.000
474.9310, 5336.000
476.1160, 5455.000
477.3020, 5481.000
478.4870, 5294.000
479.6720, 5387.000
480.8570, 5353.000
482.0420, 5366.000
483.2270, 5260.000
484.4110, 5281.000
485.5960, 5430.000
486.7800, 5509.000
487.9640, 5365.000
489.1480, 5419.000
490.3310, 5431.000
491.5150, 5602.000
492.6980, 5585.000
493.8810, 5634.000
495.0640, 5702.000
496.2470, 5744.000
497.4300, 5691.000
498.6120, 5742.000
499.7950, 5744.000
500.9770, 5763.000
502.1590, 5783.740
503.3410, 5788.902
504.5220, 5814.000
505.7040, 5804.000
506.8850, 5826.000
508.0660, 5825.279
509.2470, 5787.000
510.4280, 5786.000
511.6090, 5688.000
512.7890, 5630.000
513.9700, 5661.000
515.1500, 5620.000
516.3300, 5627.000
517.5100, 5749.000
518.6900, 5697.000
519.8690, 5815.000
521.0490, 5830.000
522.2280, 5993.000
523.4070, 6146.000
524.5860, 6358.000
525.7640, 6380.000
526.9430, 6198.000
528.1210, 6159.000
529.3000, 6005.000
530.4780, 5928.000
531.6560, 5856.000
532.8330, 5938.000
534.0110, 6060.541
535.1880, 6262.576
536.3650, 6594.000
537.5430, 6947.000
538.7190, 7487.000
539.8960, 8102.000
541.0730, 8831.000
542.2490, 9822.000
543.4250, 10799.00
544.6020, 12014.00
545.7780, 13246.00
546.9530, 14167.00
548.1290, 14205.00
549.3040, 13419.00
550.4800, 11900.00
551.6550, 10406.00
552.8300, 9070.000
554.0040, 8136.000
555.1790, 7335.000
556.3540, 6813.000
557.5280, 6571.000
558.7020, 6383.000
559.8760, 6240.000
561.0500, 6119.947
562.2230, 6020.000
563.3970, 6008.000
564.5700, 5988.000
565.7430, 6026.000
566.9160, 6014.000
568.0890, 5923.000
569.2620, 5893.000
570.4340, 5900.000
571.6070, 5812.000
572.7790, 5748.000
573.9510, 5833.000
575.1230, 5784.000
576.2940, 5805.000
577.4660, 5796.000
578.6370, 5789.000
579.8080, 5826.000
580.9790, 5808.000
582.1500, 5826.000
583.3210, 5954.000
584.4910, 5996.000
585.6620, 5967.000
586.8320, 6139.000
588.0020, 6179.000
589.1720, 6310.000
590.3410, 6308.000
591.5110, 6349.000
592.6800, 6204.000
593.8500, 5953.000
595.0190, 5792.000
596.1880, 5788.000
597.3560, 5635.000
598.5250, 5701.000
599.6930, 5716.000
600.8620, 5750.000
602.0300, 5747.000
603.1970, 5767.183
604.3650, 5780.325
605.5330, 5799.000
606.7000, 5803.000
607.8680, 5839.000
609.0350, 5852.000
610.2020, 5913.000
611.3680, 5897.000
612.5350, 5904.000
613.7010, 5972.000
614.8680, 5928.000
616.0340, 6016.000
617.2000, 6061.000
618.3660, 6063.000
619.5310, 6220.000
620.6970, 6321.000
621.8620, 6399.000
623.0270, 6391.000
624.1920, 6524.000
625.3570, 6603.000
626.5220, 6514.000
627.6860, 6557.000
628.8500, 6542.000
630.0140, 6391.000
631.1780, 6311.000
632.3420, 6140.000
633.5060, 6059.000
634.6700, 5991.000
635.8330, 5936.000
636.9960, 5818.000
638.1590, 5782.000
639.3220, 5736.817
640.4850, 5748.000
641.6470, 5699.000
642.8100, 5671.000
643.9720, 5685.000
645.1340, 5632.000
646.2960, 5585.000
647.4570, 5571.000
648.6190, 5577.000
649.7800, 5606.000
650.9420, 5566.000
652.1030, 5576.000
653.2640, 5561.000
654.4240, 5647.000
655.5850, 5505.000
656.7450, 5496.000
657.9060, 5373.000
659.0660, 5485.000
660.2260, 5379.000
661.3850, 5339.000
662.5450, 5387.000
663.7040, 5364.000
664.8640, 5276.000
666.0230, 5365.000
667.1820, 5255.000
668.3410, 5297.000
669.4990, 5261.000
670.6580, 5349.000
671.8160, 5323.000
672.9740, 5286.000
674.1320, 5395.000
675.2900, 5262.000
676.4480, 5295.000
677.6050, 5357.000
678.7630, 5286.000
679.9200, 5301.000
681.0770, 5306.000
682.2340, 5325.000
683.3900, 5314.000
684.5470, 5305.479
685.7030, 5301.701
686.8590, 5261.000
688.0150, 5308.000
689.1710, 5275.000
690.3270, 5341.000
691.4830, 5307.000
692.6380, 5382.000
693.7930, 5325.000
694.9480, 5300.000
696.1030, 5419.000
697.2580, 5458.000
698.4130, 5335.000
699.5670, 5428.000
700.7210, 5385.000
701.8750, 5402.000
703.0290, 5471.000
704.1830, 5411.000
705.3370, 5452.867
706.4900, 5456.000
707.6430, 5446.000
708.7970, 5496.000
709.9490, 5447.000
711.1020, 5546.000
712.2550, 5527.000
713.4070, 5481.000
714.5600, 5497.000
715.7120, 5538.000
716.8640, 5556.000
718.0160, 5631.000
719.1670, 5527.000
720.3190, 5588.000
721.4700, 5522.000
722.6210, 5683.000
723.7720, 5739.000
724.9230, 5630.000
726.0740, 5623.000
727.2250, 5646.000
728.3750, 5678.000
729.5250, 5641.000
730.6750, 5803.000
731.8250, 5810.000
732.9750, 5881.000
734.1240, 5808.000
735.2740, 5811.000
736.4230, 5852.000
737.5720, 5908.000
738.7210, 5942.000
739.8700, 5973.000
741.0190, 6043.000
742.1670, 6031.000
743.3150, 6092.000
744.4630, 6113.649
745.6110, 6107.000
746.7590, 6162.000
747.9070, 6210.000
749.0540, 6230.000
750.2020, 6250.000
751.3490, 6379.000
752.4960, 6294.000
753.6430, 6355.000
754.7890, 6502.000
755.9360, 6565.000
757.0820, 6660.000
758.2280, 6760.045
759.3740, 6846.178
760.5200, 6940.000
761.6660, 7029.000
762.8120, 7125.000
763.9570, 7190.000
765.1020, 7410.000
766.2470, 7516.000
767.3920, 7652.000
768.5370, 7669.000
769.6810, 7785.586
770.8260, 7851.000
771.9700, 7926.000
773.1140, 7996.000
774.2580, 8023.000
775.4020, 7944.000
776.5460, 7934.000
777.6890, 7921.000
778.8320, 7818.000
779.9750, 7757.000
781.1180, 7692.000
782.2610, 7629.229
783.4040, 7526.000
784.5460, 7511.000
785.6890, 7545.000
786.8310, 7456.000
787.9730, 7505.000
789.1150, 7577.000
790.2560, 7414.000
791.3980, 7598.000
792.5390, 7543.000
793.6810, 7667.000
794.8220, 7764.000
795.9630, 7965.000
797.1030, 8059.000
798.2440, 8269.000
799.3840, 8389.000
800.5240, 8527.000
801.6650, 8869.000
802.8040, 9000.000
803.9440, 9350.000
805.0840, 9416.000
806.2230, 9775.000
807.3630, 10042.00
808.5020, 10405.00
809.6410, 10657.00
810.7790, 10818.00
811.9180, 11156.00
813.0570, 11484.00
814.1950, 11932.00
815.3330, 11945.00
816.4710, 12214.00
817.6090, 12428.00
818.7470, 12851.00
819.8840, 13078.00
821.0220, 13358.00
822.1590, 13630.00
823.2960, 13699.12
824.4330, 13762.04
825.5690, 13712.00
826.7060, 13635.00
827.8420, 13413.00
828.9790, 13239.00
830.1150, 12846.00
831.2510, 12615.00
832.3860, 12335.00
833.5220, 12119.00
834.6570, 11961.00
835.7930, 11826.00
836.9280, 11749.00
838.0630, 11725.00
839.1980, 11642.00
840.3320, 11661.00
841.4670, 11568.00
842.6010, 11548.00
843.7350, 11797.00
844.8690, 11766.00
846.0030, 11937.00
847.1370, 11936.00
848.2700, 12102.00
849.4040, 12054.00
850.5370, 12221.00
851.6700, 12282.00
852.8030, 12526.00
853.9360, 12562.00
855.0680, 12786.00
856.2000, 12959.00
857.3330, 13239.00
858.4650, 13566.00
859.5970, 14012.00
860.7290, 14357.00
861.8600, 15073.00
862.9920, 15548.00
864.1230, 16431.00
865.2540, 17255.00
866.3850, 18489.00
867.5160, 20064.00
868.6460, 21846.00
869.7770, 24147.00
870.9070, 27052.00
872.0370, 30163.00
873.1670, 33851.00
874.2970, 37887.00
875.4270, 41862.00
876.5570, 46126.00
877.6860, 49502.00
878.8150, 52074.00
879.9440, 53033.00
881.0730, 52258.00
882.2020, 49893.00
883.3300, 46869.00
884.4590, 42358.00
885.5870, 37997.00
886.7150, 33897.00
887.8430, 29815.00
888.9710, 26426.00
890.0990, 23628.00
891.2260, 21200.00
892.3530, 19092.00
893.4810, 17471.00
894.6080, 16145.00
895.7340, 14916.00
896.8610, 13930.00
897.9880, 13350.00
899.1140, 12689.00
900.2400, 12181.00
901.3660, 11791.83
902.4920, 11238.00
903.6180, 11171.00
904.7430, 10874.00
905.8690, 10629.00
906.9940, 10501.00
908.1190, 10383.00
909.2440, 10200.00
910.3690, 10030.00
911.4930, 9971.000
912.6180, 9793.000
913.7420, 9738.000
914.8660, 9552.000
915.9900, 9404.000
917.1140, 9442.000
918.2380, 9235.000
919.3610, 9130.000
920.4850, 8998.000
921.6080, 8904.000
922.7310, 8980.000
923.8540, 8982.000
924.9760, 8838.000
926.0990, 8718.000
927.2210, 8763.000
928.3440, 8597.000
929.4660, 8652.000
930.5880, 8552.000
931.7090, 8421.000
932.8310, 8577.000
933.9520, 8429.000
935.0740, 8406.000
936.1950, 8435.000
937.3160, 8360.000
938.4360, 8430.000
939.5570, 8353.000
940.6780, 8545.000
941.7980, 8452.000
942.9180, 8534.000
944.0380, 8476.000
945.1580, 8525.000
946.2780, 8517.000
947.3970, 8429.000
948.5170, 8333.000
949.6360, 8396.000
950.7550, 8394.000
951.8740, 8347.000
952.9930, 8440.000
954.1110, 8328.000
955.2300, 8305.000
956.3480, 8178.000
957.4660, 8049.000
958.5840, 8175.000
959.7020, 8073.000
960.8190, 7980.000
961.9370, 7937.000
963.0540, 7875.000
964.1710, 7984.000
965.2880, 7996.000
966.4050, 7980.000
967.5220, 7958.000
968.6380, 8025.000
969.7550, 8118.000
970.8710, 8167.000
971.9870, 8187.000
973.1030, 8346.000
974.2190, 8434.000
975.3340, 8368.000
976.4500, 8528.000
977.5650, 8557.000
978.6800, 8674.000
979.7950, 8682.000
980.9100, 8707.000
982.0250, 8707.000
983.1390, 8842.000
984.2530, 8888.000
985.3680, 8950.000
986.4820, 9019.000
987.5950, 9129.000
988.7090, 9126.000
989.8230, 9057.000
990.9360, 9154.000
992.0490, 9162.000
993.1620, 9251.000
994.2750, 9395.000
995.3880, 9333.000
996.5010, 9548.000
997.6130, 9462.000
998.7250, 9472.000
999.8370, 9761.000
1000.949, 9856.000
1002.061, 9885.000
1003.173, 10096.00
1004.284, 10080.00
1005.396, 10018.00
1006.507, 10118.00
1007.618, 9981.000
1008.729, 9988.000
1009.839, 9714.000
1010.950, 9530.000
1012.060, 9499.000
1013.171, 9195.000
1014.281, 9071.000
1015.391, 8909.000
1016.500, 8765.000
1017.610, 8756.000
1018.719, 8548.000
1019.829, 8641.000
1020.938, 8583.000
1022.047, 8514.000
1023.156, 8463.000
1024.264, 8508.000
1025.373, 8365.000
1026.481, 8476.000
1027.589, 8396.000
1028.697, 8362.000
1029.805, 8392.000
1030.913, 8414.000
1032.020, 8440.000
1033.128, 8398.000
1034.235, 8464.000
1035.342, 8487.000
1036.449, 8412.000
1037.556, 8463.597
1038.663, 8498.000
1039.769, 8460.000
1040.875, 8480.000
1041.981, 8452.000
1043.087, 8461.398
1044.193, 8445.332
1045.299, 8477.000
1046.404, 8416.000
1047.510, 8410.000
1048.615, 8405.000
1049.720, 8477.000
1050.825, 8522.000
1051.930, 8514.000
1053.034, 8454.000
1054.139, 8473.000
1055.243, 8530.000
1056.347, 8453.000
1057.451, 8530.000
1058.555, 8564.000
1059.658, 8505.000
1060.762, 8566.000
1061.865, 8648.000
1062.968, 8476.000
1064.071, 8440.000
1065.174, 8650.000
1066.277, 8649.000
1067.380, 8521.000
1068.482, 8772.000
1069.584, 8785.000
1070.686, 8731.000
1071.788, 8770.000
1072.890, 8724.000
1073.992, 8718.000
1075.093, 8815.000
1076.194, 8753.000
1077.295, 8812.000
1078.396, 8757.000
1079.497, 8863.000
1080.598, 8928.000
1081.698, 8906.000
1082.799, 8916.000
1083.899, 9022.000
1084.999, 9008.000
1086.099, 8992.000
1087.199, 9016.000
1088.298, 8835.000
1089.398, 9076.000
1090.497, 8860.000
1091.596, 9044.000
1092.695, 8990.000
1093.794, 8976.000
1094.892, 8999.000
1095.991, 9091.000
1097.089, 8860.000
1098.187, 9051.000
1099.285, 8993.000
1100.383, 9026.000
1101.481, 9128.000
1102.579, 9067.000
1103.676, 9100.000
1104.773, 9158.000
1105.870, 9077.000
1106.967, 9079.000
1108.064, 9225.000
1109.161, 9239.000
1110.257, 9170.000
1111.353, 9314.000
1112.449, 9430.000
1113.545, 9300.000
1114.641, 9293.000
1115.737, 9410.000
1116.832, 9430.000
1117.928, 9468.000
1119.023, 9471.000
1120.118, 9465.000
1121.213, 9459.128
1122.308, 9466.000
1123.402, 9443.000
1124.497, 9438.000
1125.591, 9491.000
1126.685, 9486.000
1127.779, 9532.000
1128.873, 9494.000
1129.967, 9521.298
1131.060, 9501.000
1132.153, 9519.000
1133.247, 9560.000
1134.340, 9510.000
1135.433, 9676.000
1136.525, 9674.000
1137.618, 9638.000
1138.710, 9602.000
1139.802, 9631.000
1140.895, 9697.000
1141.987, 9716.000
1143.078, 9889.000
1144.170, 9792.000
1145.261, 9806.000
1146.353, 9935.000
1147.444, 9796.000
1148.535, 9805.000
1149.626, 9970.000
1150.716, 9829.000
1151.807, 9914.000
1152.897, 9921.000
1153.988, 9876.000
1155.078, 10008.00
1156.168, 10030.00
1157.257, 10034.00
1158.347, 10085.00
1159.436, 10098.00
1160.526, 10012.00
1161.615, 10109.00
1162.704, 10040.00
1163.793, 10117.00
1164.881, 10113.00
1165.970, 10081.00
1167.058, 10112.18
1168.147, 10106.00
1169.235, 10142.00
1170.323, 10174.00
1171.410, 10263.00
1172.498, 10302.00
1173.585, 10158.00
1174.673, 10241.00
1175.760, 10235.00
1176.847, 10256.00
1177.934, 10275.00
1179.020, 10321.00
1180.107, 10349.00
1181.193, 10433.00
1182.279, 10318.00
1183.365, 10326.00
1184.451, 10386.00
1185.537, 10343.00
1186.623, 10348.00
1187.708, 10340.00
1188.793, 10335.00
1189.878, 10410.00
1190.963, 10312.00
1192.048, 10447.00
1193.133, 10348.00
1194.217, 10321.00
1195.302, 10406.00
1196.386, 10427.00
1197.470, 10426.10
1198.554, 10461.00
1199.638, 10422.00
1200.721, 10494.00
1201.805, 10481.00
1202.888, 10540.00
1203.971, 10572.00
1205.054, 10654.00
1206.137, 10547.00
1207.219, 10672.00
1208.302, 10725.00
1209.384, 10759.00
1210.466, 10862.00
1211.548, 10953.00
1212.630, 10934.95
1213.712, 10819.00
1214.794, 10918.00
1215.875, 10860.00
1216.956, 10875.00
1218.037, 11026.00
1219.118, 11029.00
1220.199, 10982.00
1221.280, 11063.00
1222.360, 11102.00
1223.441, 11130.00
1224.521, 11226.00
1225.601, 11090.00
1226.681, 11276.00
1227.760, 11137.00
1228.840, 11264.00
1229.919, 11140.00
1230.999, 11296.00
1232.078, 11193.00
1233.157, 11328.00
1234.236, 11279.00
1235.314, 11310.00
1236.393, 11483.00
1237.471, 11417.00
1238.549, 11477.00
1239.627, 11436.00
1240.705, 11559.00
1241.783, 11439.00
1242.860, 11493.00
1243.938, 11585.00
1245.015, 11494.00
1246.092, 11591.00
1247.169, 11703.00
1248.246, 11677.00
1249.323, 11759.00
1250.399, 11647.00
1251.475, 11771.00
1252.552, 11669.00
1253.628, 11711.00
1254.703, 11893.00
1255.779, 11818.00
1256.855, 11910.00
1257.930, 11876.06
1259.005, 11894.00
1260.080, 11850.00
1261.155, 11863.00
1262.230, 12025.00
1263.305, 12033.00
1264.379, 12129.00
1265.454, 12193.00
1266.528, 12071.00
1267.602, 12124.00
1268.676, 12104.00
1269.750, 12162.00
1270.823, 12197.00
1271.897, 12214.00
1272.970, 12259.55
1274.043, 12197.00
1275.116, 12250.00
1276.189, 12267.00
1277.261, 12101.00
1278.334, 12063.00
1279.406, 12119.00
1280.478, 12277.00
1281.550, 12092.00
1282.622, 12163.00
1283.694, 12218.00
1284.766, 12228.00
1285.837, 12389.00
1286.908, 12273.00
1287.979, 12491.00
1289.050, 12312.00
1290.121, 12355.00
1291.192, 12462.00
1292.262, 12423.00
1293.333, 12549.00
1294.403, 12501.00
1295.473, 12432.00
1296.543, 12625.00
1297.613, 12527.00
1298.682, 12558.00
1299.752, 12630.00
1300.821, 12528.00
1301.890, 12899.00
1302.959, 12730.00
1304.028, 12654.00
1305.096, 12902.00
1306.165, 12688.00
1307.233, 12867.00
1308.301, 12749.00
1309.370, 12985.00
1310.437, 13012.00
1311.505, 12875.00
1312.573, 12993.00
1313.640, 13157.00
1314.708, 12983.00
1315.775, 13074.00
1316.842, 13039.00
1317.908, 13262.00
1318.975, 13139.00
1320.042, 13115.00
1321.108, 13291.00
1322.174, 13007.00
1323.240, 13084.00
1324.306, 13159.00
1325.372, 13132.00
1326.438, 13180.00
1327.503, 13151.00
1328.568, 13187.00
1329.634, 13092.00
1330.699, 13134.00
1331.763, 13128.44
1332.828, 13089.00
1333.893, 13180.00
1334.957, 13200.00
1336.021, 13282.00
1337.085, 13182.00
1338.149, 13293.00
1339.213, 13299.00
1340.277, 13465.00
1341.340, 13346.00
1342.404, 13410.00
1343.467, 13513.00
1344.530, 13281.00
1345.593, 13543.00
1346.655, 13572.00
1347.718, 13528.00
1348.780, 13621.00
1349.843, 13629.00
1350.905, 13568.00
1351.967, 13743.00
1353.028, 13758.00
1354.090, 13639.00
1355.152, 13843.00
1356.213, 13700.00
1357.274, 13905.00
1358.335, 13624.00
1359.396, 13880.00
1360.457, 13814.00
1361.517, 13697.00
1362.578, 13862.00
1363.638, 13944.00
1364.698, 13879.00
1365.758, 13918.00
1366.818, 14026.00
1367.878, 13952.00
1368.937, 14028.00
1369.997, 14066.00
1371.056, 14117.00
1372.115, 13973.00
1373.174, 14201.00
1374.232, 14094.00
1375.291, 14341.00
1376.350, 14315.00
1377.408, 14348.00
1378.466, 14209.00
1379.524, 14261.00
1380.582, 14345.00
1381.640, 14294.00
1382.697, 14369.52
1383.754, 14462.00
1384.812, 14415.00
1385.869, 14396.00
1386.926, 14361.00
1387.983, 14544.00
1389.039, 14487.00
1390.096, 14537.00
1391.152, 14398.00
1392.208, 14611.00
1393.264, 14642.00
1394.320, 14547.00
1395.376, 14739.00
1396.431, 14727.00
1397.487, 14759.00
1398.542, 14735.00
1399.597, 14745.00
1400.652, 14752.00
1401.707, 14868.00
1402.762, 14799.00
1403.816, 14920.00
1404.871, 14914.00
1405.925, 14799.00
1406.979, 14984.00
1408.033, 15063.00
1409.086, 15009.00
1410.140, 15124.00
1411.194, 15029.00
1412.247, 15086.00
1413.300, 15068.00
1414.353, 15168.00
1415.406, 15338.00
1416.458, 15196.00
1417.511, 15205.00
1418.563, 15267.00
1419.616, 15147.00
1420.668, 15335.00
1421.720, 15406.00
1422.772, 15406.00
1423.823, 15660.00
1424.875, 15613.00
1425.926, 15487.00
1426.977, 15494.00
1428.028, 15616.00
1429.079, 15748.00
1430.130, 15736.00
1431.180, 15623.00
1432.231, 15658.00
1433.281, 15814.00
1434.331, 15875.00
1435.381, 15940.00
1436.431, 16066.00
1437.481, 16200.00
1438.530, 16229.59
1439.580, 16305.00
1440.629, 16337.00
1441.678, 16420.00
1442.727, 16533.00
1443.776, 16497.00
1444.824, 16434.00
1445.873, 16700.00
1446.921, 16679.00
1447.969, 16694.00
1449.017, 16781.00
1450.065, 16783.00
1451.113, 16868.00
1452.160, 16875.00
1453.208, 16950.00
1454.255, 17029.00
1455.302, 17153.00
1456.349, 16962.00
1457.396, 17272.00
1458.443, 17049.00
1459.489, 17070.00
1460.535, 17054.00
1461.582, 17194.00
1462.628, 17197.00
1463.674, 17109.00
1464.719, 17137.00
1465.765, 16959.00
1466.810, 16997.00
1467.856, 17067.00
1468.901, 17151.00
1469.946, 17097.00
1470.991, 16949.00
1472.035, 17033.00
1473.080, 17149.00
1474.124, 17254.00
1475.169, 17010.00
1476.213, 17183.00
1477.257, 17092.00
1478.300, 17117.00
1479.344, 17083.00
1480.388, 17112.42
1481.431, 17224.00
1482.474, 17220.00
1483.517, 17259.00
1484.560, 17342.00
1485.603, 17240.00
1486.645, 17554.00
1487.688, 17310.00
1488.730, 17447.00
1489.772, 17166.00
1490.814, 17611.00
1491.856, 17411.00
1492.898, 17579.00
1493.939, 17359.00
1494.981, 17406.00
1496.022, 17519.00
1497.063, 17527.00
1498.104, 17509.00
1499.145, 17738.00
1500.186, 17733.00
1501.226, 17718.00
1502.266, 17677.00
1503.307, 17734.00
1504.347, 17792.00
1505.387, 17836.00
1506.426, 17868.45
1507.466, 17810.00
1508.505, 17913.00
1509.545, 17934.00
1510.584, 17947.00
1511.623, 18068.00
1512.662, 18163.00
1513.700, 18166.00
1514.739, 18095.00
1515.777, 18254.00
1516.815, 18406.00
1517.854, 18248.00
1518.892, 18338.00
1519.929, 18344.00
1520.967, 18477.00
1522.004, 18539.00
1523.042, 18362.00
1524.079, 18449.00
1525.116, 18665.00
1526.153, 18415.00
1527.190, 18673.00
1528.226, 18621.00
1529.263, 18619.00
1530.299, 18830.00
1531.335, 18715.00
1532.371, 18697.00
1533.407, 19061.00
1534.443, 18964.00
1535.478, 18864.00
1536.514, 19109.00
1537.549, 19088.00
1538.584, 18995.00
1539.619, 19066.00
1540.654, 19109.00
1541.689, 19285.00
1542.723, 19015.00
1543.757, 19184.00
1544.792, 19457.00
1545.826, 19202.00
1546.860, 19253.00
1547.893, 19294.00
1548.927, 19384.00
1549.960, 19358.00
1550.994, 19274.00
1552.027, 19626.00
1553.060, 19558.00
1554.093, 19725.00
1555.126, 19636.00
1556.158, 19500.00
1557.191, 19641.00
1558.223, 19809.00
1559.255, 19582.00
1560.287, 19654.00
1561.319, 19816.00
1562.350, 21018.00
##END=



