##NAMES=Grossular
##RRUFFID=R060452
##IDEAL CHEMISTRY=Ca_3_Al_2_(SiO_4_)_3_
##LOCALITY=unknown
##OWNER=RRUFF
##SOURCE=Gemological Institute of America
##DESCRIPTION=Yellowish-brown colored fragment
##STATUS=The identification of this mineral has been confirmed by X-ray diffraction and chemical analysis
##URL=rruff.info/R060452
##MEASURED CHEMISTRY=(Ca_2.94_Mn_0.03_Mg_0.03_)_Σ=3_(Al_1.91_Fe^3+^_0.06_Ti_0.03_)_Σ=2_((Si_0.99_Al_0.01_)_Σ=1_O_4_)_3_
##PIN_ID=L01823
##ORIENTATION=Laser parallel to a* (1 0 0). Fiducial mark perpendicular to laser is parallel to c [0 0 1]
127.1960, 1293.000
128.4330, 1269.000
129.6700, 1344.000
130.9060, 1319.000
132.1430, 1350.000
133.3790, 1339.000
134.6150, 1325.000
135.8500, 1354.000
137.0860, 1347.000
138.3210, 1366.000
139.5560, 1361.000
140.7910, 1371.419
142.0260, 1377.000
143.2610, 1381.000
144.4950, 1399.000
145.7290, 1386.000
146.9630, 1439.000
148.1970, 1388.000
149.4310, 1509.000
150.6640, 1459.000
151.8980, 1468.000
153.1310, 1484.000
154.3640, 1439.000
155.5970, 1437.000
156.8290, 1475.000
158.0620, 1469.000
159.2940, 1472.000
160.5260, 1488.000
161.7580, 1484.000
162.9890, 1527.000
164.2210, 1502.000
165.4520, 1586.000
166.6830, 1567.000
167.9140, 1602.000
169.1450, 1626.000
170.3760, 1758.000
171.6060, 1867.000
172.8360, 1932.000
174.0660, 1973.000
175.2960, 2183.000
176.5260, 2338.000
177.7550, 2867.000
178.9840, 3220.000
180.2130, 3643.000
181.4420, 3626.000
182.6710, 3188.000
183.9000, 2605.000
185.1280, 2281.000
186.3560, 2006.000
187.5840, 1834.000
188.8120, 1767.000
190.0400, 1732.000
191.2670, 1651.000
192.4950, 1647.000
193.7220, 1617.000
194.9490, 1625.000
196.1750, 1617.000
197.4020, 1627.000
198.6280, 1651.000
199.8540, 1636.000
201.0800, 1585.000
202.3060, 1627.000
203.5320, 1635.000
204.7570, 1589.000
205.9830, 1606.000
207.2080, 1620.000
208.4330, 1621.000
209.6570, 1586.000
210.8820, 1620.000
212.1060, 1620.000
213.3310, 1613.000
214.5550, 1657.000
215.7780, 1639.000
217.0020, 1683.000
218.2260, 1683.000
219.4490, 1639.000
220.6720, 1647.000
221.8950, 1690.000
223.1180, 1657.000
224.3400, 1745.000
225.5630, 1720.000
226.7850, 1725.000
228.0070, 1794.000
229.2290, 1843.000
230.4500, 1860.000
231.6720, 1892.000
232.8930, 1930.000
234.1140, 2021.000
235.3350, 2031.000
236.5560, 2192.000
237.7770, 2231.000
238.9970, 2352.000
240.2170, 2314.000
241.4370, 2371.000
242.6570, 2330.000
243.8770, 2325.000
245.0960, 2397.000
246.3160, 2435.000
247.5350, 2345.000
248.7540, 2166.000
249.9730, 2192.000
251.1910, 2055.000
252.4100, 1998.000
253.6280, 1864.000
254.8460, 1875.000
256.0640, 1828.000
257.2810, 1843.000
258.4990, 1839.000
259.7160, 1890.000
260.9330, 1898.000
262.1500, 1899.000
263.3670, 1885.000
264.5840, 1903.000
265.8000, 1924.000
267.0170, 1978.244
268.2330, 2038.000
269.4490, 2119.000
270.6640, 2185.000
271.8800, 2254.000
273.0950, 2313.000
274.3100, 2431.000
275.5260, 2446.000
276.7400, 2489.000
277.9550, 2570.000
279.1690, 2488.000
280.3840, 2420.000
281.5980, 2273.000
282.8120, 2176.000
284.0260, 2096.000
285.2390, 2023.000
286.4530, 1978.527
287.6660, 1983.000
288.8790, 1933.000
290.0920, 1918.000
291.3040, 1935.000
292.5170, 1883.000
293.7290, 1930.000
294.9410, 1896.000
296.1530, 1890.000
297.3650, 1883.000
298.5770, 1869.000
299.7880, 1864.000
301.0000, 1866.000
302.2110, 1867.000
303.4220, 1944.000
304.6320, 1959.000
305.8430, 1948.000
307.0530, 1999.000
308.2630, 1989.000
309.4730, 2012.000
310.6830, 2052.000
311.8930, 2092.896
313.1030, 2158.000
314.3120, 2198.000
315.5210, 2250.000
316.7300, 2268.000
317.9390, 2264.675
319.1470, 2350.000
320.3560, 2213.000
321.5640, 2212.000
322.7720, 2158.000
323.9800, 2243.000
325.1880, 2234.000
326.3950, 2264.000
327.6030, 2247.000
328.8100, 2298.000
330.0170, 2314.000
331.2240, 2377.000
332.4300, 2366.028
333.6370, 2329.000
334.8430, 2326.000
336.0490, 2325.000
337.2550, 2257.000
338.4610, 2303.000
339.6660, 2359.000
340.8720, 2317.000
342.0770, 2449.000
343.2820, 2407.000
344.4870, 2561.000
345.6920, 2565.000
346.8960, 2683.000
348.1010, 2719.000
349.3050, 2843.000
350.5090, 2890.000
351.7130, 2956.000
352.9160, 3103.000
354.1200, 3295.000
355.3230, 3504.000
356.5260, 3792.000
357.7290, 4069.000
358.9320, 4523.000
360.1350, 5080.000
361.3370, 5697.000
362.5390, 6618.000
363.7410, 7738.000
364.9430, 9128.000
366.1450, 10671.00
367.3470, 12476.00
368.5480, 13869.00
369.7490, 15019.00
370.9500, 15934.00
372.1510, 16971.00
373.3520, 17792.00
374.5520, 18322.00
375.7530, 17532.00
376.9530, 15709.00
378.1530, 12869.00
379.3520, 10477.00
380.5520, 8344.000
381.7510, 6946.000
382.9510, 5715.000
384.1500, 5022.000
385.3490, 4527.000
386.5480, 4062.000
387.7460, 3721.000
388.9440, 3524.000
390.1430, 3256.000
391.3410, 3188.000
392.5390, 3114.000
393.7360, 2976.000
394.9340, 2871.000
396.1310, 2847.000
397.3280, 2823.000
398.5250, 2783.000
399.7220, 2791.000
400.9190, 2718.000
402.1150, 2694.000
403.3120, 2701.000
404.5080, 2811.000
405.7040, 2811.000
406.8990, 2963.000
408.0950, 3007.000
409.2900, 3145.000
410.4860, 3261.000
411.6810, 3343.000
412.8760, 3732.000
414.0700, 4012.000
415.2650, 4422.000
416.4590, 4533.000
417.6540, 4346.000
418.8480, 3956.000
420.0420, 3478.000
421.2350, 3175.000
422.4290, 2902.000
423.6220, 2625.000
424.8150, 2537.000
426.0080, 2463.000
427.2010, 2417.000
428.3940, 2329.000
429.5860, 2314.276
430.7790, 2282.334
431.9710, 2295.000
433.1630, 2257.000
434.3540, 2277.000
435.5460, 2263.000
436.7370, 2236.000
437.9290, 2253.000
439.1200, 2195.000
440.3110, 2240.000
441.5010, 2210.000
442.6920, 2222.000
443.8820, 2252.000
445.0730, 2194.000
446.2630, 2214.000
447.4530, 2236.000
448.6420, 2259.000
449.8320, 2270.420
451.0210, 2280.497
452.2100, 2287.000
453.3990, 2296.000
454.5880, 2292.000
455.7770, 2313.000
456.9660, 2357.000
458.1540, 2291.000
459.3420, 2400.000
460.5300, 2375.000
461.7180, 2333.000
462.9050, 2393.000
464.0930, 2307.000
465.2800, 2287.000
466.4670, 2399.000
467.6540, 2418.000
468.8410, 2403.000
470.0280, 2369.000
471.2140, 2414.000
472.4000, 2434.000
473.5870, 2440.000
474.7720, 2531.000
475.9580, 2492.000
477.1440, 2519.000
478.3290, 2483.000
479.5140, 2537.000
480.6990, 2481.000
481.8840, 2482.000
483.0690, 2426.000
484.2540, 2421.000
485.4380, 2426.000
486.6220, 2447.000
487.8060, 2438.000
488.9900, 2456.316
490.1740, 2461.000
491.3570, 2477.000
492.5410, 2497.000
493.7240, 2500.000
494.9070, 2499.000
496.0900, 2565.000
497.2720, 2547.000
498.4550, 2589.000
499.6370, 2698.000
500.8190, 2686.000
502.0010, 2791.000
503.1830, 2691.000
504.3650, 2707.000
505.5460, 2785.000
506.7280, 2899.000
507.9090, 2918.000
509.0900, 2871.000
510.2710, 2842.000
511.4510, 2796.000
512.6320, 2766.024
513.8120, 2708.000
514.9920, 2702.000
516.1720, 2683.000
517.3520, 2645.000
518.5310, 2640.000
519.7110, 2758.000
520.8900, 2691.000
522.0690, 2813.000
523.2480, 2822.000
524.4270, 2911.000
525.6050, 3002.000
526.7840, 3043.000
527.9620, 2958.000
529.1400, 2982.000
530.3180, 2935.000
531.4960, 2824.000
532.6730, 2866.000
533.8510, 2864.000
535.0280, 2891.000
536.2050, 2940.000
537.3820, 3150.000
538.5590, 3253.000
539.7350, 3580.000
540.9120, 3854.000
542.0880, 4273.000
543.2640, 4672.000
544.4400, 5123.000
545.6150, 5837.000
546.7910, 6703.000
547.9660, 7392.000
549.1410, 7690.000
550.3170, 7249.000
551.4910, 6373.000
552.6660, 5372.000
553.8410, 4574.000
555.0150, 4067.000
556.1890, 3677.000
557.3630, 3426.000
558.5370, 3247.000
559.7110, 3135.000
560.8840, 3058.000
562.0570, 2976.000
563.2310, 2968.000
564.4040, 2977.000
565.5760, 3023.000
566.7490, 3001.000
567.9220, 2968.000
569.0940, 2988.000
570.2660, 3007.000
571.4380, 2960.000
572.6100, 2973.151
573.7820, 2916.000
574.9530, 2950.000
576.1240, 2941.000
577.2960, 2933.000
578.4670, 2990.000
579.6370, 2901.000
580.8080, 2939.000
581.9790, 2905.000
583.1490, 2976.000
584.3190, 2998.000
585.4890, 3068.000
586.6590, 3061.000
587.8280, 3105.000
588.9980, 3141.000
590.1670, 3139.000
591.3360, 3148.754
592.5050, 3136.466
593.6740, 3122.000
594.8430, 3083.000
596.0110, 3054.000
597.1790, 3006.000
598.3480, 2900.000
599.5160, 2940.000
600.6830, 2957.000
601.8510, 2987.000
603.0180, 2909.000
604.1860, 2933.000
605.3530, 2982.000
606.5200, 3009.000
607.6870, 3047.000
608.8530, 3007.000
610.0200, 3105.000
611.1860, 3042.000
612.3520, 3033.000
613.5180, 3091.000
614.6840, 3138.000
615.8500, 3147.000
617.0150, 3170.000
618.1800, 3148.000
619.3450, 3261.000
620.5100, 3213.000
621.6750, 3208.000
622.8400, 3320.000
624.0040, 3346.000
625.1690, 3439.000
626.3330, 3457.000
627.4970, 3438.000
628.6610, 3466.000
629.8240, 3480.000
630.9880, 3513.000
632.1510, 3479.000
633.3140, 3411.000
634.4770, 3327.000
635.6400, 3309.847
636.8020, 3278.000
637.9650, 3261.000
639.1270, 3224.000
640.2890, 3214.000
641.4510, 3181.000
642.6130, 3131.000
643.7750, 3137.000
644.9360, 3207.000
646.0980, 3228.000
647.2590, 3171.000
648.4200, 3137.000
649.5810, 3193.000
650.7410, 3159.000
651.9020, 3163.000
653.0620, 3149.000
654.2220, 3144.594
655.3820, 3169.000
656.5420, 3154.000
657.7020, 3160.000
658.8610, 3183.000
660.0200, 3178.000
661.1800, 3226.000
662.3390, 3154.000
663.4970, 3187.000
664.6560, 3172.000
665.8150, 3228.000
666.9730, 3191.000
668.1310, 3167.000
669.2890, 3259.000
670.4470, 3232.000
671.6050, 3207.000
672.7620, 3239.000
673.9200, 3316.000
675.0770, 3224.000
676.2340, 3267.000
677.3910, 3238.000
678.5470, 3318.000
679.7040, 3308.000
680.8600, 3341.000
682.0160, 3280.000
683.1720, 3333.000
684.3280, 3373.000
685.4840, 3433.000
686.6390, 3417.000
687.7950, 3446.000
688.9500, 3434.000
690.1050, 3449.000
691.2600, 3403.000
692.4150, 3440.000
693.5690, 3415.000
694.7240, 3487.000
695.8780, 3480.000
697.0320, 3451.000
698.1860, 3493.000
699.3400, 3448.000
700.4930, 3455.000
701.6470, 3457.000
702.8000, 3550.000
703.9530, 3536.000
705.1060, 3536.000
706.2590, 3512.000
707.4110, 3579.000
708.5640, 3601.000
709.7160, 3547.000
710.8680, 3667.000
712.0200, 3609.000
713.1720, 3689.000
714.3230, 3663.000
715.4750, 3550.000
716.6260, 3655.000
717.7770, 3698.000
718.9280, 3776.000
720.0790, 3672.000
721.2300, 3690.000
722.3800, 3743.000
723.5300, 3764.000
724.6810, 3738.000
725.8300, 3794.000
726.9800, 3858.000
728.1300, 3834.000
729.2790, 3826.000
730.4290, 3832.000
731.5780, 3894.000
732.7270, 3901.000
733.8760, 3866.000
735.0240, 3902.000
736.1730, 3820.000
737.3210, 3925.000
738.4700, 3907.000
739.6180, 3912.000
740.7650, 3981.000
741.9130, 4015.000
743.0610, 3978.000
744.2080, 4063.000
745.3550, 4030.000
746.5020, 4025.000
747.6490, 4085.000
748.7960, 4096.000
749.9430, 4083.000
751.0890, 4047.000
752.2350, 4192.000
753.3810, 4195.000
754.5270, 4210.000
755.6730, 4189.000
756.8190, 4227.000
757.9640, 4290.000
759.1090, 4275.000
760.2540, 4276.000
761.3990, 4378.000
762.5440, 4364.000
763.6890, 4420.000
764.8330, 4505.000
765.9780, 4516.000
767.1220, 4522.000
768.2660, 4562.000
769.4100, 4600.000
770.5530, 4671.000
771.6970, 4769.000
772.8400, 4769.000
773.9830, 4869.000
775.1260, 4971.000
776.2690, 5021.000
777.4120, 5076.465
778.5540, 5088.000
779.6970, 5118.000
780.8390, 5126.000
781.9810, 5101.000
783.1230, 5069.000
784.2650, 5116.000
785.4060, 5086.000
786.5480, 5145.000
787.6890, 5146.000
788.8300, 5053.000
789.9710, 5115.000
791.1120, 5019.000
792.2520, 5114.000
793.3930, 5216.000
794.5330, 5205.000
795.6730, 5208.000
796.8130, 5233.000
797.9530, 5256.000
799.0930, 5419.000
800.2320, 5409.000
801.3710, 5471.000
802.5110, 5685.000
803.6500, 5740.000
804.7880, 5861.000
805.9270, 5906.000
807.0660, 6048.000
808.2040, 6174.440
809.3420, 6284.000
810.4800, 6475.000
811.6180, 6658.000
812.7560, 6824.000
813.8930, 6925.000
815.0310, 7024.000
816.1680, 7299.000
817.3050, 7567.000
818.4420, 7725.000
819.5790, 8151.000
820.7150, 8193.000
821.8520, 8502.000
822.9880, 8726.000
824.1240, 8726.000
825.2600, 8744.000
826.3960, 8708.000
827.5320, 8553.000
828.6670, 8334.000
829.8020, 8059.000
830.9380, 7948.000
832.0730, 7656.000
833.2080, 7554.000
834.3420, 7527.000
835.4770, 7426.000
836.6110, 7471.000
837.7450, 7293.000
838.8790, 7503.000
840.0130, 7455.000
841.1470, 7467.000
842.2810, 7581.000
843.4140, 7530.000
844.5470, 7579.000
845.6800, 7766.000
846.8130, 7802.000
847.9460, 7947.000
849.0790, 7886.000
850.2110, 7965.000
851.3440, 8005.000
852.4760, 8105.000
853.6080, 8195.000
854.7400, 8326.000
855.8710, 8262.000
857.0030, 8495.000
858.1340, 8537.000
859.2650, 8752.000
860.3960, 8983.000
861.5270, 9378.000
862.6580, 9694.000
863.7890, 9994.000
864.9190, 10488.00
866.0490, 11101.00
867.1790, 11840.00
868.3090, 12685.00
869.4390, 13898.00
870.5690, 15244.00
871.6980, 16813.00
872.8270, 18861.00
873.9570, 20914.00
875.0860, 23257.00
876.2140, 25971.00
877.3430, 28200.00
878.4720, 29954.00
879.6000, 31119.00
880.7280, 31253.00
881.8560, 29820.00
882.9840, 27968.00
884.1120, 25572.00
885.2390, 22963.00
886.3670, 20528.00
887.4940, 18505.00
888.6210, 16671.00
889.7480, 15199.00
890.8750, 13941.00
892.0020, 12867.00
893.1280, 12160.00
894.2540, 11174.00
895.3810, 10816.00
896.5070, 10166.00
897.6320, 9748.000
898.7580, 9393.000
899.8840, 9024.000
901.0090, 8722.000
902.1340, 8564.000
903.2590, 8522.000
904.3840, 8340.000
905.5090, 8181.000
906.6340, 8163.000
907.7580, 8109.000
908.8820, 8099.000
910.0060, 8015.000
911.1300, 7955.000
912.2540, 7884.000
913.3780, 7938.000
914.5010, 7869.000
915.6250, 7866.000
916.7480, 7829.000
917.8710, 7812.000
918.9940, 7895.000
920.1160, 7817.000
921.2390, 7656.000
922.3610, 7692.000
923.4840, 7843.000
924.6060, 7651.000
925.7280, 7766.000
926.8490, 7655.000
927.9710, 7703.000
929.0930, 7784.000
930.2140, 7836.000
931.3350, 7693.000
932.4560, 7798.000
933.5770, 7777.000
934.6980, 7658.000
935.8180, 7794.000
936.9380, 7777.000
938.0590, 7907.000
939.1790, 7771.000
940.2990, 7783.000
941.4180, 7879.000
942.5380, 7881.000
943.6570, 7862.000
944.7770, 7911.000
945.8960, 8019.000
947.0150, 8063.000
948.1340, 8053.000
949.2520, 7961.000
950.3710, 8053.000
951.4890, 8089.000
952.6070, 8183.000
953.7260, 8027.000
954.8430, 7993.000
955.9610, 8136.000
957.0790, 8094.000
958.1960, 8177.000
959.3130, 8091.000
960.4310, 8089.000
961.5480, 8140.000
962.6640, 8171.000
963.7810, 8128.000
964.8970, 8047.000
966.0140, 8279.000
967.1300, 8314.000
968.2460, 8250.000
969.3620, 8293.000
970.4780, 8383.000
971.5930, 8522.000
972.7090, 8502.000
973.8240, 8567.000
974.9390, 8571.000
976.0540, 8654.000
977.1690, 8741.000
978.2830, 8744.000
979.3980, 8827.000
980.5120, 8773.000
981.6260, 8875.000
982.7400, 8886.000
983.8540, 9030.000
984.9680, 9092.000
986.0820, 9165.000
987.1950, 9140.000
988.3080, 9244.000
989.4210, 9235.000
990.5340, 9175.000
991.6470, 9283.000
992.7600, 9389.000
993.8720, 9408.000
994.9850, 9496.000
996.0970, 9628.000
997.2090, 9557.000
998.3210, 9803.000
999.4320, 9748.000
1000.544, 9941.000
1001.655, 10025.00
1002.767, 10061.00
1003.878, 10221.00
1004.989, 10356.00
1006.100, 10489.00
1007.210, 10383.00
1008.321, 10458.00
1009.431, 10325.00
1010.541, 10319.00
1011.651, 10152.00
1012.761, 10185.00
1013.871, 10116.33
1014.980, 10106.00
1016.090, 10084.00
1017.199, 10116.00
1018.308, 10056.65
1019.417, 10006.00
1020.526, 9985.000
1021.635, 9922.000
1022.743, 9937.000
1023.852, 9900.000
1024.960, 10061.00
1026.068, 9950.000
1027.176, 10092.00
1028.283, 10147.00
1029.391, 10117.00
1030.498, 10198.00
1031.606, 10134.00
1032.713, 10219.00
1033.820, 10302.00
1034.927, 10182.00
1036.033, 10213.00
1037.140, 10351.00
1038.246, 10458.00
1039.353, 10375.00
1040.459, 10371.00
1041.564, 10422.00
1042.670, 10493.00
1043.776, 10582.00
1044.881, 10606.00
1045.987, 10626.00
1047.092, 10671.00
1048.197, 10633.00
1049.302, 10787.00
1050.406, 10878.00
1051.511, 10973.00
1052.615, 10807.00
1053.720, 10971.00
1054.824, 10910.00
1055.928, 10938.00
1057.031, 11067.00
1058.135, 11118.00
1059.238, 11070.00
1060.342, 11195.00
1061.445, 11183.43
1062.548, 11269.00
1063.651, 11301.00
1064.754, 11260.00
1065.856, 11462.00
1066.959, 11502.00
1068.061, 11503.00
1069.163, 11487.00
1070.265, 11636.00
1071.367, 11608.00
1072.469, 11661.00
1073.570, 11702.00
1074.671, 11647.00
1075.773, 11934.00
1076.874, 11726.00
1077.975, 12017.00
1079.075, 11864.00
1080.176, 11892.00
1081.276, 11885.00
1082.377, 12005.00
1083.477, 12048.00
1084.577, 12060.00
1085.677, 12292.00
1086.777, 12096.00
1087.876, 12218.00
1088.975, 12094.00
1090.075, 12398.00
1091.174, 12296.00
1092.273, 12440.00
1093.372, 12489.00
1094.470, 12346.00
1095.569, 12578.00
1096.667, 12581.00
1097.765, 12663.00
1098.863, 12718.00
1099.961, 12714.00
1101.059, 12732.00
1102.157, 12843.00
1103.254, 12876.00
1104.351, 12897.00
1105.449, 13004.17
1106.546, 13139.00
1107.642, 13133.00
1108.739, 13166.00
1109.836, 13133.00
1110.932, 13232.00
1112.028, 13269.00
1113.124, 13150.00
1114.220, 13340.00
1115.316, 13452.00
1116.412, 13383.00
1117.507, 13536.00
1118.603, 13599.00
1119.698, 13739.00
1120.793, 13710.00
1121.888, 13773.00
1122.983, 13788.00
1124.077, 13895.00
1125.172, 13965.00
1126.266, 13985.00
1127.360, 13995.00
1128.454, 14133.00
1129.548, 14145.00
1130.642, 14189.00
1131.735, 14355.00
1132.829, 14280.00
1133.922, 14320.00
1135.015, 14469.00
1136.108, 14563.00
1137.201, 14589.00
1138.294, 14609.00
1139.386, 14824.00
1140.478, 14585.00
1141.571, 14731.00
1142.663, 14906.00
1143.755, 14884.00
1144.846, 15046.00
1145.938, 15144.00
1147.030, 15207.00
1148.121, 15118.00
1149.212, 15282.00
1150.303, 15253.00
1151.394, 15407.00
1152.485, 15455.78
1153.575, 15533.52
1154.666, 15576.00
1155.756, 15674.00
1156.846, 15729.00
1157.936, 15711.00
1159.026, 15837.00
1160.116, 15912.00
1161.205, 15803.00
1162.295, 15944.00
1163.384, 15894.00
1164.473, 16148.00
1165.562, 16165.00
1166.651, 16151.00
1167.739, 16406.00
1168.828, 16287.00
1169.916, 16381.00
1171.005, 16465.00
1172.093, 16419.00
1173.181, 16603.00
1174.268, 16572.00
1175.356, 16632.00
1176.443, 16719.00
1177.531, 16730.00
1178.618, 16672.00
1179.705, 16959.00
1180.792, 16993.00
1181.879, 16961.00
1182.965, 17100.00
1184.052, 17208.00
1185.138, 17104.00
1186.224, 17196.00
1187.310, 17332.00
1188.396, 17374.00
1189.482, 17393.00
1190.567, 17418.00
1191.653, 17451.00
1192.738, 17577.00
1193.823, 17562.00
1194.908, 17699.00
1195.993, 17761.00
1197.077, 17797.03
1198.162, 17789.00
1199.246, 17932.00
1200.331, 18052.00
1201.415, 18217.00
1202.499, 18295.10
1203.582, 18238.00
1204.666, 18397.00
1205.750, 18480.00
1206.833, 18399.00
1207.916, 18468.00
1208.999, 18447.00
1210.082, 18495.00
1211.165, 18586.00
1212.248, 18724.00
1213.330, 18738.00
1214.412, 18922.00
1215.495, 18982.00
1216.577, 19082.69
1217.658, 19210.00
1218.740, 19287.00
1219.822, 19324.00
1220.903, 19426.00
1221.985, 19560.00
1223.066, 19619.00
1224.147, 19632.00
1225.228, 19740.18
1226.308, 19695.00
1227.389, 19856.00
1228.469, 20001.00
1229.550, 20003.00
1230.630, 19997.00
1231.710, 20281.00
1232.790, 20170.00
1233.869, 20350.00
1234.949, 20240.00
1236.028, 20268.00
1237.108, 20520.00
1238.187, 20427.00
1239.266, 20649.00
1240.344, 20705.00
1241.423, 20838.00
1242.502, 20868.00
1243.580, 20818.00
1244.658, 21028.00
1245.736, 21074.00
1246.814, 20965.00
1247.892, 21174.00
1248.970, 21252.00
1250.047, 21266.00
1251.125, 21436.00
1252.202, 21556.00
1253.279, 21677.00
1254.356, 21766.00
1255.433, 21715.00
1256.509, 21957.00
1257.586, 22002.00
1258.662, 22054.00
1259.738, 22257.00
1260.814, 21975.00
1261.890, 22271.00
1262.966, 22364.00
1264.042, 22246.00
##END=



