##NAMES=Grossular
##RRUFFID=R040065
##IDEAL CHEMISTRY=Ca_3_Al_2_(SiO_4_)_3_
##LOCALITY=Feng Tien mine, Taiwan
##OWNER=RRUFF
##SOURCE=University of Arizona Mineral Museum
##DESCRIPTION=Orange-brown trapezohedral crystals
##STATUS=The identification of this mineral has been confirmed by X-ray diffraction and chemical analysis
##URL=rruff.info/R040065
##MEASURED CHEMISTRY=(Ca_2.90_Fe^2+^_0.05_Mn_0.05_)_Σ=3_(Al_1.95_Fe^3+^_0.03_Ti_0.02_)_Σ=2_((Si_0.99_Al_0.01_)_Σ=1_O_4_)_3_
##PIN_ID=M00027
##ORIENTATION=Laser parallel to -a* (-1 0 0). Fiducial mark perpendicular to laser is parallel to b [0 1 0]
97.181, 6010.000
98.579, 5936.000
99.976, 5750.000
101.373, 5572.000
102.770, 5384.000
104.166, 5343.000
105.563, 5363.000
106.959, 5277.000
108.355, 5257.000
109.750, 5077.000
111.146, 5024.000
112.541, 5073.000
113.936, 5010.000
115.330, 5168.000
116.725, 6555.000
118.119, 5849.743
119.513, 7001.000
120.907, 5307.000
122.300, 4564.000
123.693, 4317.000
125.086, 4283.000
126.479, 4081.000
127.871, 4152.000
129.264, 4102.000
130.656, 4031.000
132.048, 4036.000
133.439, 4019.000
134.830, 3961.000
136.222, 3953.000
137.612, 3918.000
139.003, 3869.000
140.393, 3965.000
141.783, 3912.000
143.173, 3873.000
144.563, 3834.000
145.952, 3765.000
147.342, 3762.000
148.731, 3656.000
150.119, 3703.000
151.508, 3688.000
152.896, 3578.000
154.284, 3655.000
155.672, 3600.000
157.059, 3542.000
158.446, 3554.000
159.833, 3532.000
161.220, 3599.000
162.607, 3623.000
163.993, 3539.000
165.379, 3441.000
166.765, 3433.000
168.151, 3420.000
169.536, 3390.000
170.921, 3423.000
172.306, 3369.000
173.691, 3459.000
175.075, 3618.000
176.459, 3819.000
177.843, 4134.000
179.227, 4701.000
180.611, 4833.000
181.994, 4705.000
183.377, 4294.000
184.760, 3778.000
186.142, 3596.000
187.525, 3436.000
188.907, 3388.000
190.288, 3393.000
191.670, 3317.000
193.051, 3290.000
194.433, 3239.000
195.813, 3302.000
197.194, 3240.000
198.575, 3261.000
199.955, 3307.000
201.335, 3216.000
202.714, 3285.000
204.094, 3204.000
205.473, 3189.000
206.852, 3190.000
208.231, 3187.000
209.609, 3182.000
210.988, 3225.000
212.366, 3197.000
213.744, 3141.000
215.121, 3200.000
216.499, 3248.000
217.876, 3225.000
219.253, 3187.000
220.629, 3235.000
222.006, 3240.000
223.382, 3206.000
224.758, 3310.000
226.134, 3329.000
227.509, 3315.000
228.884, 3400.000
230.259, 3433.000
231.634, 3527.000
233.009, 3703.000
234.383, 3841.000
235.757, 4114.000
237.131, 4553.000
238.505, 4887.000
239.878, 5003.000
241.251, 5050.000
242.624, 4890.000
243.997, 5127.000
245.369, 5696.000
246.741, 6491.000
248.113, 6427.000
249.485, 5485.000
250.857, 4555.000
252.228, 3906.000
253.599, 3657.000
254.970, 3513.000
256.340, 3410.000
257.711, 3378.000
259.081, 3374.000
260.451, 3386.000
261.820, 3414.000
263.190, 3373.000
264.559, 3395.000
265.928, 3347.000
267.297, 3462.000
268.665, 3492.000
270.033, 3639.000
271.401, 3769.000
272.769, 3958.000
274.137, 4352.000
275.504, 4934.000
276.871, 5787.000
278.238, 6288.000
279.605, 6334.000
280.971, 5604.000
282.337, 4699.000
283.703, 4171.000
285.069, 3808.000
286.434, 3694.000
287.800, 3612.000
289.165, 3505.000
290.529, 3526.000
291.894, 3373.000
293.258, 3437.000
294.622, 3315.000
295.986, 3336.000
297.350, 3336.000
298.713, 3239.000
300.076, 3252.000
301.439, 3236.000
302.802, 3254.000
304.164, 3240.000
305.527, 3286.000
306.889, 3309.000
308.250, 3297.000
309.612, 3326.000
310.973, 3340.000
312.334, 3416.000
313.695, 3451.000
315.056, 3497.000
316.416, 3593.000
317.776, 3550.000
319.136, 3568.000
320.496, 3515.000
321.856, 3432.000
323.215, 3518.000
324.574, 3559.000
325.933, 3682.000
327.291, 3806.000
328.649, 3984.000
330.007, 4109.000
331.365, 4183.000
332.723, 4103.000
334.080, 3916.000
335.438, 3802.000
336.794, 3780.000
338.151, 3723.000
339.508, 3822.000
340.864, 3713.000
342.220, 3901.000
343.576, 3917.000
344.931, 4049.000
346.287, 4148.000
347.642, 4414.000
348.997, 4601.000
350.351, 4563.000
351.706, 4611.000
353.060, 4592.000
354.414, 4703.000
355.768, 4946.000
357.121, 5090.000
358.474, 5432.000
359.827, 5668.000
361.180, 6340.000
362.533, 6920.000
363.885, 7859.000
365.237, 9125.000
366.589, 10870.000
367.941, 13210.000
369.292, 15330.000
370.643, 18450.000
371.994, 21720.000
373.345, 26000.000
374.696, 30670.000
376.046, 30700.000
377.396, 27780.000
378.746, 21520.000
380.096, 15940.000
381.445, 12320.000
382.794, 9830.000
384.143, 8470.000
385.492, 7185.000
386.840, 6552.000
388.188, 5886.000
389.536, 5437.000
390.884, 5169.000
392.232, 4913.000
393.579, 4763.000
394.926, 4532.000
396.273, 4453.000
397.620, 4374.000
398.966, 4227.000
400.312, 4117.000
401.658, 4188.000
403.004, 4103.000
404.350, 4119.000
405.695, 4104.000
407.040, 4089.000
408.385, 4112.000
409.730, 4198.000
411.074, 4265.000
412.418, 4449.000
413.762, 4752.000
415.106, 5190.000
416.449, 5542.000
417.793, 5502.000
419.136, 5068.000
420.478, 4584.000
421.821, 4103.000
423.163, 3939.000
424.505, 3774.000
425.847, 3652.000
427.189, 3643.000
428.530, 3487.000
429.872, 3572.000
431.213, 3497.000
432.553, 3480.000
433.894, 3475.000
435.234, 3415.000
436.574, 3431.000
437.914, 3438.000
439.254, 3459.000
440.593, 3458.000
441.933, 3417.000
443.272, 3422.000
444.610, 3382.000
445.949, 3428.000
447.287, 3425.000
448.625, 3402.000
449.963, 3430.000
451.301, 3399.000
452.638, 3538.000
453.975, 3494.000
455.312, 3586.000
456.649, 3587.000
457.985, 3547.000
459.322, 3608.000
460.658, 3538.000
461.994, 3576.000
463.329, 3551.000
464.665, 3556.000
466.000, 3556.000
467.335, 3540.000
468.669, 3585.000
470.004, 3576.000
471.338, 3649.000
472.672, 3639.000
474.006, 3633.000
475.339, 3863.000
476.673, 3930.000
478.006, 4041.000
479.339, 4128.000
480.672, 3942.000
482.004, 3903.000
483.336, 3772.000
484.668, 3734.000
486.000, 3694.000
487.332, 3601.000
488.663, 3681.000
489.994, 3646.000
491.325, 3652.000
492.656, 3597.000
493.986, 3712.000
495.316, 3712.000
496.646, 3739.000
497.976, 3791.000
499.306, 3782.000
500.635, 3745.000
501.964, 3869.000
503.293, 3877.000
504.622, 4083.000
505.950, 4229.000
507.278, 4626.000
508.606, 5033.000
509.934, 5219.000
511.262, 5245.000
512.589, 4666.000
513.916, 4363.000
515.243, 4118.000
516.570, 3938.000
517.896, 3925.000
519.222, 3786.000
520.548, 3886.000
521.874, 3810.000
523.200, 3943.000
524.525, 4011.000
525.850, 4081.000
527.175, 4070.000
528.500, 4056.000
529.824, 3959.000
531.148, 3901.000
532.473, 3840.000
533.796, 3871.000
535.120, 3868.000
536.443, 3943.000
537.766, 3994.000
539.089, 4140.000
540.412, 4452.000
541.734, 4752.000
543.057, 5301.000
544.379, 6136.000
545.700, 7620.000
547.022, 9708.000
548.343, 11930.000
549.664, 13420.000
550.985, 11860.000
552.306, 9700.000
553.627, 7790.000
554.947, 6226.000
556.267, 5495.000
557.587, 4940.000
558.906, 4669.000
560.226, 4438.000
561.545, 4286.000
562.864, 4260.000
564.182, 4205.000
565.501, 4128.000
566.819, 4145.000
568.137, 4091.000
569.455, 4174.000
570.773, 3981.000
572.090, 4051.000
573.407, 4049.000
574.724, 3978.000
576.041, 4023.000
577.357, 3962.000
578.674, 3974.000
579.990, 3894.000
581.305, 3873.000
582.621, 3925.000
583.937, 3944.000
585.252, 3944.000
586.567, 3937.000
587.881, 3949.000
589.196, 4049.000
590.510, 4074.000
591.824, 4092.000
593.138, 4159.000
594.452, 4043.000
595.765, 3877.000
597.079, 3797.000
598.392, 3866.000
599.704, 3795.000
601.017, 3786.000
602.329, 3812.000
603.641, 3796.000
604.953, 3796.000
606.265, 3855.000
607.576, 3822.000
608.888, 3915.000
610.199, 3912.000
611.509, 3969.000
612.820, 3882.000
614.130, 3900.000
615.441, 4066.000
616.751, 4001.000
618.060, 4082.000
619.370, 4110.000
620.679, 4193.000
621.988, 4311.000
623.297, 4335.000
624.606, 4619.000
625.914, 4706.000
627.222, 4990.000
628.530, 5102.000
629.838, 5108.000
631.145, 5029.000
632.453, 4760.000
633.760, 4616.000
635.067, 4376.000
636.373, 4215.000
637.680, 4168.000
638.986, 4099.000
640.292, 3996.000
641.598, 4039.000
642.904, 3996.000
644.209, 4029.000
645.514, 4014.000
646.819, 4063.000
648.124, 4039.000
649.428, 4034.017
650.733, 4033.000
652.037, 4003.000
653.340, 3938.000
654.644, 3927.000
655.948, 3930.000
657.251, 3865.000
658.554, 3868.000
659.856, 3865.000
661.159, 3824.000
662.461, 3772.000
663.763, 3830.000
665.065, 3771.000
666.367, 3759.000
667.669, 3748.000
668.970, 3725.000
670.271, 3803.000
671.572, 3761.000
672.872, 3739.000
674.173, 3806.000
675.473, 3719.000
676.773, 3770.000
678.073, 3762.000
679.372, 3758.000
680.671, 3799.000
681.971, 3765.000
683.269, 3793.000
684.568, 3835.000
685.867, 3740.000
687.165, 3876.000
688.463, 3776.000
689.761, 3862.000
691.058, 3828.000
692.356, 3901.000
693.653, 3821.000
694.950, 3876.000
696.246, 3891.000
697.543, 3890.000
698.839, 3875.000
700.135, 3864.000
701.431, 3868.000
702.727, 3913.000
704.022, 3905.000
705.317, 3910.000
706.613, 3940.000
707.907, 3931.000
709.202, 3919.000
710.496, 3942.000
711.790, 3939.000
713.084, 3950.005
714.378, 3964.000
715.672, 3988.000
716.965, 3988.000
718.258, 4038.000
719.551, 4069.000
720.844, 4012.000
722.136, 4056.000
723.428, 4049.000
724.720, 4086.000
726.012, 4116.000
727.304, 4083.000
728.595, 4158.000
729.886, 4079.000
731.177, 4104.000
732.468, 4122.000
733.758, 4198.000
735.049, 4193.000
736.339, 4249.000
737.629, 4198.000
738.918, 4247.000
740.208, 4246.000
741.497, 4241.000
742.786, 4310.000
744.075, 4286.000
745.363, 4337.000
746.652, 4334.000
747.940, 4402.000
749.228, 4424.000
750.516, 4394.000
751.803, 4561.000
753.091, 4447.000
754.378, 4531.000
755.665, 4516.000
756.951, 4590.000
758.238, 4679.000
759.524, 4682.000
760.810, 4752.000
762.096, 4795.000
763.382, 4846.000
764.667, 4994.000
765.952, 5008.000
767.237, 5104.000
768.522, 5210.000
769.806, 5219.000
771.091, 5313.000
772.375, 5319.000
773.659, 5392.000
774.943, 5363.000
776.226, 5292.000
777.509, 5291.000
778.793, 5260.002
780.075, 5240.000
781.358, 5240.000
782.641, 5211.000
783.923, 5217.000
785.205, 5116.000
786.487, 5204.000
787.768, 5179.000
789.050, 5120.000
790.331, 5227.000
791.612, 5229.000
792.892, 5314.000
794.173, 5251.000
795.453, 5266.000
796.734, 5385.000
798.013, 5372.000
799.293, 5590.000
800.573, 5685.000
801.852, 5681.000
803.131, 5898.000
804.410, 6001.000
805.688, 6134.000
806.967, 6413.000
808.245, 6597.000
809.523, 6836.000
810.801, 7073.000
812.079, 7527.000
813.356, 7724.000
814.633, 7969.000
815.910, 8522.000
817.187, 8871.000
818.463, 9515.000
819.740, 10290.000
821.016, 10970.000
822.292, 12120.000
823.568, 12980.000
824.843, 13580.000
826.118, 13910.000
827.393, 13110.000
828.668, 12630.000
829.943, 11640.000
831.217, 10740.000
832.492, 10280.000
833.766, 9542.000
835.039, 9265.000
836.313, 8950.000
837.586, 8698.000
838.860, 8788.000
840.133, 8480.000
841.405, 8723.000
842.678, 8807.000
843.950, 8801.000
845.222, 9177.000
846.494, 9018.000
847.766, 9460.000
849.038, 9546.000
850.309, 9487.000
851.580, 9786.000
852.851, 9506.000
854.122, 9578.000
855.392, 9627.000
856.662, 9608.000
857.932, 9921.000
859.202, 10030.000
860.472, 10270.000
861.741, 10760.000
863.011, 10960.000
864.280, 11890.000
865.548, 12340.000
866.817, 13290.000
868.085, 14630.000
869.354, 15550.000
870.622, 18090.000
871.889, 20070.000
873.157, 22930.000
874.424, 27600.000
875.691, 31620.000
876.958, 37630.000
878.225, 43140.000
879.492, 46240.000
880.758, 48330.000
882.024, 45350.000
883.290, 42130.000
884.556, 36870.000
885.821, 31290.000
887.086, 27840.000
888.352, 23380.000
889.616, 20540.000
890.881, 18020.000
892.145, 15620.000
893.410, 14450.000
894.674, 12910.000
895.938, 11690.000
897.201, 11020.000
898.465, 10190.000
899.728, 9677.000
900.991, 9245.000
902.254, 8738.000
903.516, 8650.000
904.779, 8204.000
906.041, 8143.000
907.303, 8058.000
908.565, 7840.000
909.826, 7772.000
911.087, 7595.000
912.349, 7498.000
913.609, 7497.000
914.870, 7267.000
916.131, 7299.000
917.391, 7159.000
918.651, 6998.000
919.911, 7078.000
921.171, 6818.000
922.430, 6943.000
923.690, 6765.000
924.949, 6734.000
926.208, 6724.000
927.466, 6733.000
928.725, 6584.000
929.983, 6581.000
931.241, 6513.000
932.499, 6513.000
933.756, 6440.000
935.014, 6427.000
936.271, 6415.000
937.528, 6367.444
938.785, 6455.000
940.042, 6341.000
941.298, 6353.000
942.554, 6422.000
943.810, 6280.000
945.066, 6497.000
946.322, 6454.000
947.577, 6353.000
948.832, 6384.000
950.087, 6347.000
951.342, 6369.000
952.596, 6382.000
953.851, 6403.000
955.105, 6260.000
956.359, 6274.000
957.613, 6213.000
958.866, 6240.000
960.119, 6156.000
961.373, 6159.000
962.626, 6201.000
963.878, 6153.000
965.131, 6126.000
966.383, 6124.000
967.635, 6208.000
968.887, 6251.000
970.139, 6164.000
971.390, 6277.000
972.642, 6272.000
973.893, 6358.000
975.144, 6386.000
976.394, 6388.000
977.645, 6515.000
978.895, 6521.000
980.145, 6621.000
981.395, 6668.000
982.645, 6620.000
983.894, 6782.000
985.143, 6789.000
986.392, 6858.000
987.641, 6862.000
988.890, 6781.000
990.138, 6921.000
991.387, 7040.000
992.635, 7003.000
993.882, 7133.000
995.130, 7198.000
996.377, 7147.000
997.625, 7406.000
998.872, 7395.000
1000.119, 7811.000
1001.365, 8095.000
1002.612, 8181.000
1003.858, 8429.000
1005.104, 8554.000
1006.350, 8753.000
1007.595, 8921.000
1008.841, 8576.000
1010.086, 8494.000
1011.331, 8084.000
1012.576, 7813.000
1013.820, 7590.000
1015.065, 7230.000
1016.309, 7221.000
1017.553, 7040.000
1018.796, 6903.000
1020.040, 7003.000
1021.283, 6822.000
1022.527, 6859.000
1023.770, 6882.000
1025.012, 6734.000
1026.255, 6834.000
1027.497, 6737.000
1028.739, 6677.000
1029.981, 6766.000
1031.223, 6686.000
1032.465, 6763.000
1033.706, 6807.000
1034.947, 6686.000
1036.188, 6797.000
1037.429, 6713.000
1038.669, 6766.000
1039.910, 6755.000
1041.150, 6769.000
1042.390, 6763.000
1043.630, 6789.000
1044.869, 6810.000
1046.108, 6902.000
1047.348, 6700.000
1048.587, 6770.000
1049.825, 6891.000
1051.064, 6784.000
1052.302, 6967.000
1053.540, 6849.000
1054.778, 6905.000
1056.016, 6961.000
1057.254, 6864.000
1058.491, 6908.000
1059.728, 6914.000
1060.965, 6848.000
1062.202, 7001.000
1063.438, 6914.000
1064.674, 6890.000
1065.911, 6996.000
1067.147, 6921.000
1068.382, 7032.000
1069.618, 6915.000
1070.853, 6897.000
1072.088, 7010.000
1073.323, 6960.000
1074.558, 7014.000
1075.792, 7060.000
1077.027, 6948.000
1078.261, 7170.000
1079.495, 7180.000
1080.729, 7116.000
1081.962, 7233.000
1083.195, 7172.000
1084.428, 7232.000
1085.661, 7149.000
1086.894, 7201.000
1088.127, 7257.000
1089.359, 7226.000
1090.591, 7236.000
1091.823, 7251.000
1093.055, 7173.000
1094.286, 7348.000
1095.518, 7256.000
1096.749, 7292.000
1097.980, 7366.000
1099.210, 7284.000
1100.441, 7273.000
1101.671, 7453.000
1102.901, 7367.000
1104.131, 7468.000
1105.361, 7411.000
1106.591, 7390.000
1107.820, 7604.000
1109.049, 7423.000
1110.278, 7548.000
1111.507, 7425.000
1112.735, 7494.000
1113.964, 7585.000
1115.192, 7498.000
1116.420, 7552.000
1117.648, 7574.000
1118.875, 7478.000
1120.102, 7680.000
1121.330, 7559.000
1122.557, 7554.000
1123.783, 7744.000
1125.010, 7652.000
1126.236, 7755.000
1127.462, 7805.000
1128.688, 7574.000
1129.914, 7927.000
1131.140, 7778.000
1132.365, 7695.000
1133.590, 7883.000
1134.815, 7748.000
1136.040, 7862.000
1137.265, 7981.000
1138.489, 7891.000
1139.713, 7971.000
1140.937, 7908.000
1142.161, 7997.000
1143.385, 8141.000
1144.608, 7968.000
1145.831, 8195.000
1147.054, 8130.000
1148.277, 8097.000
1149.500, 8262.000
1150.722, 8230.000
1151.944, 8116.000
1153.166, 8341.000
1154.388, 8200.000
1155.610, 8345.000
1156.831, 8402.000
1158.052, 8295.000
1159.273, 8402.000
1160.494, 8339.000
1161.715, 8400.000
1162.935, 8504.000
1164.156, 8337.000
1165.376, 8553.000
1166.595, 8563.000
1167.815, 8361.000
1169.035, 8611.000
1170.254, 8477.000
1171.473, 8518.000
1172.692, 8654.000
1173.910, 8554.000
1175.129, 8710.000
1176.347, 8707.000
1177.565, 8553.000
1178.783, 8735.000
1180.001, 8640.000
1181.218, 8791.000
1182.436, 8825.000
1183.653, 8664.000
1184.870, 8776.000
1186.086, 8779.000
1187.303, 8644.000
1188.519, 8922.000
1189.735, 8706.000
1190.951, 8766.000
1192.167, 8873.000
1193.382, 8700.000
1194.598, 8885.000
1195.813, 8934.000
1197.028, 8794.000
1198.243, 9104.000
1199.457, 8944.000
1200.672, 8988.000
1201.886, 9116.000
1203.100, 8999.000
1204.314, 9199.000
1205.527, 9115.000
1206.740, 9054.000
1207.954, 9141.000
1209.167, 9135.000
1210.379, 9190.000
1211.592, 9380.000
1212.805, 9195.000
1214.017, 9282.000
1215.229, 9460.000
1216.441, 9199.000
1217.652, 9491.000
1218.864, 9371.000
1220.075, 9403.000
1221.286, 9647.000
1222.497, 9350.000
1223.707, 9603.000
1224.918, 9720.000
1226.128, 9358.000
1227.338, 9804.000
1228.548, 9696.000
1229.758, 9665.000
1230.967, 9980.000
1232.177, 9620.000
1233.386, 9955.000
1234.595, 9904.000
1235.803, 9809.000
1237.012, 9981.000
1238.220, 9982.000
1239.428, 9873.000
1240.636, 10230.000
1241.844, 9970.000
1243.052, 10020.000
1244.259, 10140.000
1245.466, 9928.000
1246.673, 10370.000
1247.880, 10070.000
1249.087, 10050.000
1250.293, 10330.000
1251.499, 10170.000
1252.705, 10340.000
1253.911, 10350.000
1255.117, 10310.000
1256.322, 10530.000
1257.527, 10470.000
1258.732, 10270.000
1259.937, 10620.000
1261.142, 10370.000
1262.346, 10560.000
1263.551, 10710.000
1264.755, 10390.000
1265.958, 10800.000
1267.162, 10650.000
1268.366, 10700.000
1269.569, 10760.000
1270.772, 10770.000
1271.975, 10770.000
1273.178, 10980.000
1274.380, 10590.000
1275.583, 10840.000
1276.785, 10960.000
1277.987, 10600.000
1279.188, 10980.000
1280.390, 10890.000
1281.591, 10730.000
1282.793, 11280.000
1283.994, 10690.000
1285.194, 10960.000
1286.395, 11500.000
1287.595, 10790.000
1288.796, 11210.000
1289.996, 10970.000
1291.196, 11010.000
1292.395, 11320.000
1293.595, 11050.000
1294.794, 11030.000
1295.993, 11340.000
1297.192, 11020.000
1298.391, 11420.000
1299.589, 11310.000
1300.787, 10890.000
1301.986, 11420.000
1303.183, 11160.000
1304.381, 11050.000
1305.579, 11410.000
1306.776, 11370.000
1307.973, 11570.000
1309.170, 11720.000
1310.367, 11330.000
1311.564, 11920.000
1312.760, 11550.000
1313.956, 11630.000
1315.152, 11990.000
1316.348, 11760.000
1317.544, 11790.000
1318.739, 12070.000
1319.934, 11530.000
1321.129, 12180.000
1322.324, 11960.000
1323.519, 11690.000
1324.713, 12290.000
1325.908, 11920.000
1327.102, 11970.000
1328.296, 12310.000
1329.489, 11940.000
1330.683, 12210.000
1331.876, 12330.000
1333.070, 11930.000
1334.262, 12450.000
1335.455, 12210.000
1336.648, 12010.000
1337.840, 12590.000
1339.032, 12280.000
1340.224, 12210.000
1341.416, 12710.000
1342.608, 12280.000
1343.799, 12620.000
1344.991, 12680.000
1346.182, 12370.000
1347.373, 13100.000
1348.563, 12790.000
1349.754, 12700.000
1350.944, 13030.000
1352.134, 12710.000
1353.324, 12950.000
1354.514, 13310.000
1355.703, 12820.000
1356.893, 13320.000
1358.082, 13090.000
1359.271, 12970.000
1360.460, 13450.000
1361.648, 13160.000
1362.837, 13040.000
1364.025, 13620.000
1365.213, 13050.000
1366.401, 13610.000
1367.588, 13720.000
1368.776, 13230.000
1369.963, 13820.000
1371.150, 13660.000
1372.337, 13370.000
1373.524, 13940.000
1374.710, 13570.000
1375.897, 13840.000
1377.083, 14100.000
1378.269, 13580.000
1379.455, 14160.000
1380.640, 14110.000
1381.825, 13650.000
1383.011, 14350.000
1384.196, 13990.000
1385.381, 13890.000
1386.565, 14660.000
1387.750, 13910.000
1388.934, 14390.000
1390.118, 14560.000
1391.302, 14030.000
1392.485, 14690.000
1393.669, 14350.000
1394.852, 14230.000
##END=



