##NAMES=Grossular
##RRUFFID=R060444
##IDEAL CHEMISTRY=Ca_3_Al_2_(SiO_4_)_3_
##LOCALITY=Pakistan (?)
##OWNER=RRUFF
##SOURCE=Gemological Institute of America
##DESCRIPTION=Tan colored crystals coating a surface
##STATUS=The identification of this mineral has been confirmed by X-ray diffraction and chemical analysis
##URL=rruff.info/R060444
##MEASURED CHEMISTRY=(Ca_2.98_Mn_0.02_)_Σ=3_(Al_1.84_Fe^3+^_0.13_Ti_0.03_)_Σ=2_((Si_0.99_Al_0.01_)_Σ=1_O_4_)_3_
##PIN_ID=M00607
##ORIENTATION=Laser parallel to a* (1 0 0). Fiducial mark perpendicular to laser is parallel to 0 0 -1
129.0000, 6618.000
130.2340, 6548.000
131.4670, 6647.000
132.7000, 6630.000
133.9330, 6669.778
135.1660, 6715.045
136.3990, 6751.000
137.6310, 6763.000
138.8640, 6779.000
140.0960, 6752.000
141.3280, 6730.000
142.5600, 6771.000
143.7910, 6758.000
145.0230, 6802.000
146.2540, 6753.000
147.4850, 6859.000
148.7160, 6925.000
149.9470, 6887.000
151.1780, 6842.000
152.4080, 6927.000
153.6380, 6895.000
154.8690, 7011.000
156.0980, 7041.000
157.3280, 6919.000
158.5580, 6962.000
159.7870, 6981.000
161.0170, 6956.000
162.2460, 7028.000
163.4750, 7218.000
164.7030, 7166.000
165.9320, 7257.000
167.1600, 7235.000
168.3890, 7415.000
169.6170, 7593.000
170.8450, 7723.000
172.0730, 7950.000
173.3000, 8190.000
174.5280, 8391.000
175.7550, 8963.000
176.9820, 9404.000
178.2090, 9707.000
179.4350, 9597.000
180.6620, 9404.000
181.8880, 8985.000
183.1150, 8560.000
184.3410, 8247.000
185.5670, 7938.000
186.7920, 7745.000
188.0180, 7494.000
189.2430, 7554.000
190.4690, 7409.000
191.6940, 7388.000
192.9180, 7362.000
194.1430, 7353.000
195.3680, 7333.000
196.5920, 7375.000
197.8160, 7347.000
199.0400, 7374.000
200.2640, 7331.000
201.4880, 7280.000
202.7110, 7348.000
203.9350, 7358.000
205.1580, 7334.000
206.3810, 7285.000
207.6040, 7216.000
208.8270, 7288.000
210.0490, 7320.000
211.2710, 7372.000
212.4940, 7330.000
213.7160, 7295.000
214.9370, 7373.000
216.1590, 7403.000
217.3810, 7442.000
218.6020, 7475.562
219.8230, 7446.000
221.0440, 7542.000
222.2650, 7527.000
223.4860, 7608.000
224.7060, 7643.000
225.9260, 7695.000
227.1470, 7730.000
228.3670, 7837.000
229.5860, 8133.000
230.8060, 8165.000
232.0260, 8329.000
233.2450, 8485.000
234.4640, 8603.000
235.6830, 8886.000
236.9020, 9020.000
238.1200, 9229.000
239.3390, 9187.000
240.5570, 9362.000
241.7750, 9518.000
242.9930, 9615.000
244.2110, 9792.000
245.4290, 9756.000
246.6460, 9723.000
247.8630, 9367.000
249.0810, 9042.000
250.2980, 8655.000
251.5140, 8478.000
252.7310, 8218.000
253.9470, 8084.000
255.1640, 8036.000
256.3800, 7954.000
257.5960, 7928.000
258.8120, 8127.000
260.0270, 8233.000
261.2430, 8236.000
262.4580, 8133.000
263.6730, 8086.000
264.8880, 8279.000
266.1030, 8426.000
267.3170, 8496.000
268.5320, 8604.000
269.7460, 8861.000
270.9600, 9095.000
272.1740, 9051.000
273.3880, 9242.000
274.6010, 9696.000
275.8150, 9749.000
277.0280, 9782.000
278.2410, 9667.000
279.4540, 9593.000
280.6670, 9188.000
281.8790, 8898.000
283.0920, 8583.000
284.3040, 8533.000
285.5160, 8372.000
286.7280, 8395.000
287.9400, 8265.000
289.1510, 8284.000
290.3630, 8257.000
291.5740, 8170.000
292.7850, 8089.000
293.9960, 8077.000
295.2070, 8099.000
296.4170, 7987.000
297.6280, 8014.000
298.8380, 7949.000
300.0480, 7858.000
301.2580, 8043.000
302.4680, 8057.000
303.6770, 8094.000
304.8870, 8087.000
306.0960, 8168.704
307.3050, 8263.000
308.5140, 8309.000
309.7230, 8396.000
310.9310, 8430.000
312.1400, 8443.000
313.3480, 8522.000
314.5560, 8629.000
315.7640, 8576.000
316.9720, 8639.000
318.1790, 8580.000
319.3870, 8674.000
320.5940, 8703.000
321.8010, 8743.000
323.0080, 8767.000
324.2150, 8772.000
325.4210, 8876.000
326.6280, 8948.000
327.8340, 9010.000
329.0400, 9014.000
330.2460, 9001.000
331.4510, 9018.000
332.6570, 8987.000
333.8620, 8962.695
335.0680, 9002.000
336.2730, 8908.000
337.4780, 8939.000
338.6820, 8960.000
339.8870, 9168.000
341.0910, 9276.000
342.2950, 9445.000
343.5000, 9590.615
344.7030, 9641.000
345.9070, 9873.000
347.1110, 9895.000
348.3140, 10033.00
349.5170, 10293.00
350.7200, 10523.00
351.9230, 10862.00
353.1260, 11105.00
354.3290, 11554.00
355.5310, 12091.00
356.7330, 12941.00
357.9350, 13845.00
359.1370, 14894.00
360.3390, 16548.00
361.5400, 17983.00
362.7420, 19972.00
363.9430, 22439.00
365.1440, 25165.00
366.3450, 28237.00
367.5460, 30486.00
368.7460, 32956.00
369.9470, 35217.00
371.1470, 37223.00
372.3470, 39012.00
373.5470, 39770.00
374.7460, 37950.00
375.9460, 35112.00
377.1450, 30741.00
378.3450, 26666.00
379.5440, 22700.00
380.7430, 19743.00
381.9410, 17353.00
383.1400, 15606.00
384.3380, 14127.00
385.5370, 13227.00
386.7350, 12418.00
387.9320, 11899.00
389.1300, 11407.00
390.3280, 11051.00
391.5250, 10742.00
392.7220, 10624.00
393.9190, 10405.00
395.1160, 10236.00
396.3130, 10144.00
397.5100, 10011.30
398.7060, 9989.000
399.9020, 9888.000
401.0980, 9870.000
402.2940, 9905.000
403.4900, 10018.00
404.6860, 10133.00
405.8810, 10409.00
407.0760, 10408.00
408.2710, 10492.00
409.4660, 10900.00
410.6610, 11043.00
411.8550, 11524.00
413.0500, 11608.00
414.2440, 11966.00
415.4380, 11680.00
416.6320, 11537.00
417.8260, 10866.00
419.0190, 10381.00
420.2130, 9921.000
421.4060, 9477.000
422.5990, 9245.000
423.7920, 9103.000
424.9850, 8928.000
426.1770, 8826.938
427.3700, 8706.000
428.5620, 8690.000
429.7540, 8710.000
430.9460, 8691.000
432.1380, 8667.000
433.3290, 8652.000
434.5210, 8598.000
435.7120, 8552.000
436.9030, 8483.000
438.0940, 8548.000
439.2850, 8559.000
440.4750, 8650.000
441.6660, 8671.000
442.8560, 8544.000
444.0460, 8568.000
445.2360, 8651.000
446.4260, 8547.000
447.6160, 8668.000
448.8050, 8786.000
449.9940, 8745.000
451.1830, 8810.000
452.3720, 8797.000
453.5610, 8922.000
454.7500, 8842.000
455.9380, 9010.000
457.1260, 8991.000
458.3150, 8995.000
459.5020, 8954.000
460.6900, 8952.547
461.8780, 8945.840
463.0650, 8941.000
464.2530, 8940.000
465.4400, 8958.000
466.6270, 8956.000
467.8130, 9045.000
469.0000, 9101.000
470.1870, 9013.000
471.3730, 9123.000
472.5590, 9130.000
473.7450, 9192.560
474.9310, 9277.000
476.1160, 9292.000
477.3020, 9327.733
478.4870, 9393.000
479.6720, 9350.000
480.8570, 9231.000
482.0420, 9231.000
483.2270, 9157.000
484.4110, 9159.000
485.5960, 9036.000
486.7800, 9104.000
487.9640, 9053.000
489.1480, 9264.000
490.3310, 9193.000
491.5150, 9213.000
492.6980, 9334.000
493.8810, 9360.000
495.0640, 9430.085
496.2470, 9502.153
497.4300, 9529.000
498.6120, 9614.000
499.7950, 9611.000
500.9770, 9633.000
502.1590, 9744.000
503.3410, 9770.000
504.5220, 10077.00
505.7040, 10026.00
506.8850, 10152.00
508.0660, 10379.00
509.2470, 10186.00
510.4280, 9989.000
511.6090, 9994.000
512.7890, 9820.000
513.9700, 9499.000
515.1500, 9652.000
516.3300, 9529.000
517.5100, 9598.000
518.6900, 9541.000
519.8690, 9565.000
521.0490, 9722.000
522.2280, 9617.000
523.4070, 9823.000
524.5860, 9782.000
525.7640, 9688.000
526.9430, 9863.000
528.1210, 9646.000
529.3000, 9563.000
530.4780, 9494.000
531.6560, 9653.000
532.8330, 9755.000
534.0110, 9843.000
535.1880, 10119.00
536.3650, 10385.00
537.5430, 10766.00
538.7190, 11315.00
539.8960, 11963.00
541.0730, 12877.00
542.2490, 13800.00
543.4250, 14779.00
544.6020, 16131.00
545.7780, 17308.00
546.9530, 18382.00
548.1290, 18294.00
549.3040, 17449.00
550.4800, 16012.00
551.6550, 14241.00
552.8300, 13173.00
554.0040, 12123.00
555.1790, 11422.00
556.3540, 10785.00
557.5280, 10533.00
558.7020, 10274.00
559.8760, 10186.00
561.0500, 9993.000
562.2230, 10198.00
563.3970, 9968.000
564.5700, 9903.000
565.7430, 10007.00
566.9160, 9914.000
568.0890, 9849.000
569.2620, 9846.000
570.4340, 9796.000
571.6070, 9835.000
572.7790, 9812.000
573.9510, 9758.000
575.1230, 9649.000
576.2940, 9744.000
577.4660, 9765.000
578.6370, 9746.000
579.8080, 9830.000
580.9790, 9780.000
582.1500, 9830.000
583.3210, 9796.000
584.4910, 9778.000
585.6620, 9757.000
586.8320, 9907.000
588.0020, 10036.00
589.1720, 10113.00
590.3410, 10011.00
591.5110, 9954.000
592.6800, 10063.00
593.8500, 9826.000
595.0190, 9752.000
596.1880, 9725.000
597.3560, 9745.000
598.5250, 9702.000
599.6930, 9638.000
600.8620, 9631.000
602.0300, 9811.000
603.1970, 9807.000
604.3650, 9795.000
605.5330, 9821.000
606.7000, 9765.000
607.8680, 9885.000
609.0350, 10003.00
610.2020, 9859.000
611.3680, 9926.000
612.5350, 9999.000
613.7010, 10071.00
614.8680, 10072.00
616.0340, 10220.00
617.2000, 10262.00
618.3660, 10426.00
619.5310, 10567.00
620.6970, 10631.00
621.8620, 10736.00
623.0270, 10907.00
624.1920, 10955.00
625.3570, 11101.00
626.5220, 11097.00
627.6860, 11134.00
628.8500, 11131.00
630.0140, 10932.00
631.1780, 10790.00
632.3420, 10567.00
633.5060, 10437.00
634.6700, 10403.00
635.8330, 10335.00
636.9960, 10212.00
638.1590, 10227.00
639.3220, 10245.00
640.4850, 10207.00
641.6470, 10211.94
642.8100, 10134.00
643.9720, 10175.00
645.1340, 10102.00
646.2960, 10070.00
647.4570, 10071.00
648.6190, 10115.00
649.7800, 10108.00
650.9420, 10090.00
652.1030, 9945.000
653.2640, 9912.000
654.4240, 9872.000
655.5850, 9851.000
656.7450, 9765.000
657.9060, 9757.020
659.0660, 9723.000
660.2260, 9686.000
661.3850, 9752.000
662.5450, 9675.000
663.7040, 9636.000
664.8640, 9565.000
666.0230, 9676.000
667.1820, 9790.000
668.3410, 9565.000
669.4990, 9747.000
670.6580, 9658.000
671.8160, 9640.000
672.9740, 9638.000
674.1320, 9568.000
675.2900, 9651.000
676.4480, 9655.000
677.6050, 9638.000
678.7630, 9645.019
679.9200, 9682.000
681.0770, 9577.000
682.2340, 9637.000
683.3900, 9579.000
684.5470, 9606.000
685.7030, 9671.000
686.8590, 9752.000
688.0150, 9683.000
689.1710, 9614.000
690.3270, 9668.000
691.4830, 9680.000
692.6380, 9707.000
693.7930, 9715.668
694.9480, 9698.000
696.1030, 9742.000
697.2580, 9820.000
698.4130, 9897.000
699.5670, 9755.000
700.7210, 9918.000
701.8750, 9878.000
703.0290, 9815.000
704.1830, 9891.000
705.3370, 9708.000
706.4900, 9928.000
707.6430, 9770.000
708.7970, 9830.000
709.9490, 9856.000
711.1020, 9957.000
712.2550, 9946.762
713.4070, 9910.000
714.5600, 9931.000
715.7120, 9962.000
716.8640, 9916.000
718.0160, 10028.00
719.1670, 10080.00
720.3190, 10014.00
721.4700, 10067.00
722.6210, 10161.00
723.7720, 10129.00
724.9230, 10224.00
726.0740, 10242.54
727.2250, 10225.00
728.3750, 10306.00
729.5250, 10375.00
730.6750, 10417.67
731.8250, 10434.12
732.9750, 10423.00
734.1240, 10437.00
735.2740, 10435.07
736.4230, 10436.21
737.5720, 10428.00
738.7210, 10426.00
739.8700, 10451.68
741.0190, 10463.67
742.1670, 10528.00
743.3150, 10560.00
744.4630, 10637.00
745.6110, 10784.00
746.7590, 10674.00
747.9070, 10925.00
749.0540, 10866.00
750.2020, 10757.00
751.3490, 11150.00
752.4960, 10932.00
753.6430, 10989.00
754.7890, 10995.00
755.9360, 11238.00
757.0820, 11311.00
758.2280, 11254.00
759.3740, 11324.00
760.5200, 11475.90
761.6660, 11588.40
762.8120, 11851.00
763.9570, 11911.00
765.1020, 12112.00
766.2470, 12149.00
767.3920, 12301.00
768.5370, 12361.00
769.6810, 12601.00
770.8260, 12624.36
771.9700, 12497.00
773.1140, 12690.00
774.2580, 12623.00
775.4020, 12552.00
776.5460, 12566.00
777.6890, 12464.00
778.8320, 12383.00
779.9750, 12216.00
781.1180, 12269.00
782.2610, 12149.00
783.4040, 12118.00
784.5460, 12273.00
785.6890, 12019.00
786.8310, 12112.00
787.9730, 12066.00
789.1150, 12166.00
790.2560, 12147.00
791.3980, 12246.00
792.5390, 12292.00
793.6810, 12469.00
794.8220, 12568.00
795.9630, 12658.00
797.1030, 12749.00
798.2440, 12811.00
799.3840, 13083.00
800.5240, 13056.00
801.6650, 13552.00
802.8040, 13684.00
803.9440, 13909.00
805.0840, 14296.00
806.2230, 14528.00
807.3630, 14827.00
808.5020, 15089.00
809.6410, 15521.00
810.7790, 15969.00
811.9180, 16288.00
813.0570, 16761.00
814.1950, 17016.00
815.3330, 17537.00
816.4710, 17915.00
817.6090, 18482.00
818.7470, 19037.00
819.8840, 19789.00
821.0220, 20401.00
822.1590, 20447.00
823.2960, 20843.00
824.4330, 20989.00
825.5690, 21011.00
826.7060, 20534.00
827.8420, 20335.00
828.9790, 19521.00
830.1150, 18971.00
831.2510, 18468.00
832.3860, 18111.00
833.5220, 17866.00
834.6570, 17529.00
835.7930, 17299.00
836.9280, 17188.00
838.0630, 16937.00
839.1980, 17055.00
840.3320, 16789.00
841.4670, 16886.00
842.6010, 16992.00
843.7350, 16963.00
844.8690, 17113.00
846.0030, 17083.00
847.1370, 17308.00
848.2700, 17401.00
849.4040, 17457.00
850.5370, 17479.00
851.6700, 17639.00
852.8030, 17743.00
853.9360, 17594.00
855.0680, 17988.00
856.2000, 18009.00
857.3330, 18319.00
858.4650, 18598.00
859.5970, 19064.00
860.7290, 19427.00
861.8600, 19928.00
862.9920, 20307.00
864.1230, 21275.00
865.2540, 22074.00
866.3850, 23412.00
867.5160, 25091.00
868.6460, 26575.00
869.7770, 28831.00
870.9070, 31862.00
872.0370, 35106.00
873.1670, 38847.00
874.2970, 42808.00
875.4270, 46901.00
876.5570, 50930.00
877.6860, 54374.00
878.8150, 56324.00
879.9440, 57586.00
881.0730, 56697.00
882.2020, 54612.00
883.3300, 50796.00
884.4590, 47047.00
885.5870, 42576.00
886.7150, 38465.00
887.8430, 34536.00
888.9710, 31162.00
890.0990, 28347.00
891.2260, 25859.00
892.3530, 23933.00
893.4810, 22462.00
894.6080, 20917.00
895.7340, 19714.00
896.8610, 18987.00
897.9880, 18126.00
899.1140, 17594.00
900.2400, 17330.00
901.3660, 16729.00
902.4920, 16383.00
903.6180, 16085.00
904.7430, 15832.00
905.8690, 15632.00
906.9940, 15636.00
908.1190, 15368.00
909.2440, 15209.00
910.3690, 15103.00
911.4930, 14916.00
912.6180, 14830.00
913.7420, 14716.00
914.8660, 14580.53
915.9900, 14537.00
917.1140, 14363.00
918.2380, 14344.00
919.3610, 14285.00
920.4850, 14288.00
921.6080, 14304.00
922.7310, 14061.00
923.8540, 13892.00
924.9760, 13996.00
926.0990, 13726.00
927.2210, 13855.00
928.3440, 13822.00
929.4660, 13864.00
930.5880, 13765.00
931.7090, 13692.00
932.8310, 13754.00
933.9520, 13539.00
935.0740, 13590.00
936.1950, 13678.00
937.3160, 13578.92
938.4360, 13576.29
939.5570, 13562.00
940.6780, 13563.00
941.7980, 13587.00
942.9180, 13864.00
944.0380, 13703.00
945.1580, 13805.00
946.2780, 13818.00
947.3970, 13608.00
948.5170, 13743.00
949.6360, 13720.00
950.7550, 13656.00
951.8740, 13608.00
952.9930, 13534.00
954.1110, 13562.00
955.2300, 13623.00
956.3480, 13476.00
957.4660, 13418.00
958.5840, 13325.00
959.7020, 13389.00
960.8190, 13387.00
961.9370, 13264.00
963.0540, 13203.00
964.1710, 13301.00
965.2880, 13247.00
966.4050, 13204.00
967.5220, 13535.00
968.6380, 13502.00
969.7550, 13506.00
970.8710, 13543.00
971.9870, 13551.00
973.1030, 13615.78
974.2190, 13705.00
975.3340, 13753.00
976.4500, 13895.00
977.5650, 13970.00
978.6800, 14017.00
979.7950, 13978.00
980.9100, 14239.00
982.0250, 14235.00
983.1390, 14194.00
984.2530, 14349.00
985.3680, 14394.00
986.4820, 14497.00
987.5950, 14547.00
988.7090, 14662.00
989.8230, 14595.00
990.9360, 14647.00
992.0490, 14557.00
993.1620, 14729.00
994.2750, 14705.00
995.3880, 14984.00
996.5010, 15056.00
997.6130, 15354.00
998.7250, 15382.00
999.8370, 15680.00
1000.949, 15818.00
1002.061, 16082.00
1003.173, 16142.00
1004.284, 16166.00
1005.396, 16119.00
1006.507, 16093.00
1007.618, 15909.00
1008.729, 15963.00
1009.839, 15679.00
1010.950, 15630.00
1012.060, 15186.00
1013.171, 14875.00
1014.281, 14690.00
1015.391, 14486.00
1016.500, 14380.00
1017.610, 14263.12
1018.719, 14087.00
1019.829, 14153.00
1020.938, 14020.00
1022.047, 14049.48
1023.156, 14087.48
1024.264, 14236.00
1025.373, 14063.00
1026.481, 14182.00
1027.589, 13894.00
1028.697, 13958.00
1029.805, 14010.00
1030.913, 13937.00
1032.020, 13964.00
1033.128, 13934.00
1034.235, 14010.00
1035.342, 13928.00
1036.449, 13997.00
1037.556, 13889.00
1038.663, 13818.00
1039.769, 14085.00
1040.875, 13976.00
1041.981, 14019.00
1043.087, 14087.00
1044.193, 14053.00
1045.299, 13863.00
1046.404, 14110.00
1047.510, 14029.00
1048.615, 14171.00
1049.720, 13947.00
1050.825, 14080.00
1051.930, 14106.00
1053.034, 13940.00
1054.139, 14059.00
1055.243, 14241.00
1056.347, 14063.00
1057.451, 14057.00
1058.555, 13983.00
1059.658, 14140.00
1060.762, 14066.00
1061.865, 14175.00
1062.968, 14159.00
1064.071, 14105.00
1065.174, 14151.00
1066.277, 14291.00
1067.380, 14311.00
1068.482, 14318.00
1069.584, 14265.00
1070.686, 14322.00
1071.788, 14371.00
1072.890, 14406.00
1073.992, 14360.00
1075.093, 14304.00
1076.194, 14388.24
1077.295, 14390.20
1078.396, 14530.00
1079.497, 14511.00
1080.598, 14578.00
1081.698, 14650.00
1082.799, 14560.00
1083.899, 14729.00
1084.999, 14723.00
1086.099, 14584.00
1087.199, 14878.00
1088.298, 14666.00
1089.398, 14695.00
1090.497, 14667.00
1091.596, 14717.00
1092.695, 14692.00
1093.794, 14832.00
1094.892, 14681.00
1095.991, 14807.00
1097.089, 14775.00
1098.187, 14658.00
1099.285, 14928.00
1100.383, 14715.00
1101.481, 14962.00
1102.579, 14851.00
1103.676, 14858.00
1104.773, 14713.00
1105.870, 14994.00
1106.967, 14951.00
1108.064, 15097.00
1109.161, 14970.00
1110.257, 15197.00
1111.353, 15241.00
1112.449, 15322.00
1113.545, 15212.00
1114.641, 15058.00
1115.737, 15097.00
1116.832, 15318.00
1117.928, 15452.00
1119.023, 15372.00
1120.118, 15411.00
1121.213, 15477.00
1122.308, 15536.00
1123.402, 15583.00
1124.497, 15326.00
1125.591, 15557.00
1126.685, 15240.00
1127.779, 15315.00
1128.873, 15198.00
1129.967, 15335.00
1131.060, 15179.00
1132.153, 15320.00
1133.247, 15509.00
1134.340, 15541.00
1135.433, 15486.00
1136.525, 15568.00
1137.618, 15549.12
1138.710, 15547.59
1139.802, 15581.00
1140.895, 15547.00
1141.987, 15596.00
1143.078, 15615.00
1144.170, 15610.16
1145.261, 15623.43
1146.353, 15627.00
1147.444, 15615.00
1148.535, 15637.00
1149.626, 15644.00
1150.716, 15642.01
1151.807, 15768.00
1152.897, 15698.00
1153.988, 15727.00
1155.078, 15874.00
1156.168, 15951.00
1157.257, 16076.00
1158.347, 16061.00
1159.436, 15891.00
1160.526, 15941.00
1161.615, 15913.00
1162.704, 15879.00
1163.793, 16034.00
1164.881, 15964.00
1165.970, 15931.00
1167.058, 16131.00
1168.147, 15968.00
1169.235, 16160.00
1170.323, 15984.00
1171.410, 16209.00
1172.498, 16085.00
1173.585, 16380.00
1174.673, 16225.00
1175.760, 16643.00
1176.847, 16288.00
1177.934, 16329.00
1179.020, 16231.00
1180.107, 16267.00
1181.193, 16391.00
1182.279, 16182.00
1183.365, 16364.00
1184.451, 16470.00
1185.537, 16419.00
1186.623, 16480.00
1187.708, 16434.00
1188.793, 16460.00
1189.878, 16393.00
1190.963, 16385.00
1192.048, 16346.00
1193.133, 16359.00
1194.217, 16397.00
1195.302, 16429.00
1196.386, 16418.00
1197.470, 16399.00
1198.554, 16480.00
1199.638, 16580.00
1200.721, 16508.00
1201.805, 16417.00
1202.888, 16679.00
1203.971, 16640.00
1205.054, 16539.00
1206.137, 16786.00
1207.219, 16785.00
1208.302, 16682.00
1209.384, 16837.00
1210.466, 16876.00
1211.548, 16902.00
1212.630, 16818.00
1213.712, 17044.00
1214.794, 16941.00
1215.875, 17186.00
1216.956, 16948.00
1218.037, 17143.00
1219.118, 17104.00
1220.199, 17022.00
1221.280, 17250.00
1222.360, 17104.00
1223.441, 17053.00
1224.521, 17179.00
1225.601, 17196.00
1226.681, 17241.00
1227.760, 17320.00
1228.840, 17275.00
1229.919, 17395.00
1230.999, 17331.00
1232.078, 17491.00
1233.157, 17246.00
1234.236, 17499.00
1235.314, 17501.00
1236.393, 17658.00
1237.471, 17638.00
1238.549, 17463.00
1239.627, 17549.00
1240.705, 17469.00
1241.783, 17745.00
1242.860, 17686.00
1243.938, 17778.00
1245.015, 17869.00
1246.092, 17651.00
1247.169, 17783.00
1248.246, 17788.00
1249.323, 17828.00
1250.399, 17895.00
1251.475, 17965.00
1252.552, 17933.00
1253.628, 17934.00
1254.703, 18008.92
1255.779, 18201.00
1256.855, 18074.00
1257.930, 18101.00
1259.005, 17984.00
1260.080, 18022.01
1261.155, 18025.00
1262.230, 18138.00
1263.305, 18200.00
1264.379, 18348.00
1265.454, 18391.00
1266.528, 18470.00
1267.602, 18338.00
1268.676, 18458.00
1269.750, 18364.00
1270.823, 18471.00
1271.897, 18397.00
1272.970, 18421.00
1274.043, 18527.00
1275.116, 18574.00
1276.189, 18308.00
1277.261, 18427.00
1278.334, 18400.00
1279.406, 18360.00
1280.478, 18529.00
1281.550, 18306.00
1282.622, 18500.00
1283.694, 18483.00
1284.766, 18577.00
1285.837, 18529.00
1286.908, 18681.00
1287.979, 18751.00
1289.050, 18678.00
1290.121, 18677.00
1291.192, 18719.00
1292.262, 18935.00
1293.333, 18878.00
1294.403, 18908.00
1295.473, 18863.00
1296.543, 18810.00
1297.613, 18946.00
1298.682, 19038.00
1299.752, 19107.00
1300.821, 19095.00
1301.890, 19109.00
1302.959, 18941.00
1304.028, 19061.00
1305.096, 19120.00
1306.165, 18938.00
1307.233, 19256.00
1308.301, 19280.00
1309.370, 19317.00
1310.437, 19416.00
1311.505, 19187.00
1312.573, 19214.00
1313.640, 19549.00
1314.708, 19349.00
1315.775, 19397.00
1316.842, 19575.00
1317.908, 19426.00
1318.975, 19655.00
1320.042, 19562.00
1321.108, 19237.00
1322.174, 19379.00
1323.240, 19649.00
1324.306, 19325.00
1325.372, 19485.00
1326.438, 19444.00
1327.503, 19360.00
1328.568, 19587.00
1329.634, 19595.00
1330.699, 19559.00
1331.763, 19708.00
1332.828, 19580.00
1333.893, 19539.00
1334.957, 19711.00
1336.021, 19714.00
1337.085, 19695.00
1338.149, 19734.00
1339.213, 19679.00
1340.277, 19744.00
1341.340, 19737.00
1342.404, 19901.00
1343.467, 19769.00
1344.530, 19903.00
1345.593, 19893.00
1346.655, 19837.37
1347.718, 19922.00
1348.780, 19788.00
1349.843, 19885.00
1350.905, 19956.00
1351.967, 20145.00
1353.028, 19972.00
1354.090, 19978.00
1355.152, 20095.00
1356.213, 20002.00
1357.274, 20106.00
1358.335, 20293.00
1359.396, 20045.00
1360.457, 20237.00
1361.517, 20234.00
1362.578, 20355.00
1363.638, 20222.00
1364.698, 20207.00
1365.758, 20488.00
1366.818, 20226.00
1367.878, 20375.00
1368.937, 20533.00
1369.997, 20445.00
1371.056, 20502.00
1372.115, 20483.00
1373.174, 20623.00
1374.232, 20579.00
1375.291, 20622.00
1376.350, 20702.00
1377.408, 20694.00
1378.466, 20815.00
1379.524, 20847.00
1380.582, 20699.00
1381.640, 20949.00
1382.697, 20804.00
1383.754, 20982.00
1384.812, 20936.00
1385.869, 20978.00
1386.926, 20936.00
1387.983, 20874.00
1389.039, 20960.00
1390.096, 20943.00
1391.152, 21057.00
1392.208, 21154.00
1393.264, 21108.00
1394.320, 21177.00
1395.376, 21172.00
1396.431, 21157.00
1397.487, 21263.00
1398.542, 21434.00
1399.597, 21190.00
1400.652, 21300.00
1401.707, 21256.00
1402.762, 21458.00
1403.816, 21393.00
1404.871, 21328.00
1405.925, 21486.00
1406.979, 21306.00
1408.033, 21435.00
1409.086, 21516.00
1410.140, 21782.00
1411.194, 21494.00
1412.247, 21735.00
1413.300, 21683.00
1414.353, 21716.00
1415.406, 21729.00
1416.458, 21862.00
1417.511, 21972.00
1418.563, 21991.00
1419.616, 21789.00
1420.668, 21809.00
1421.720, 21889.00
1422.772, 22001.00
1423.823, 22109.00
1424.875, 22127.35
1425.926, 22079.00
1426.977, 22170.00
1428.028, 22192.00
1429.079, 22238.00
1430.130, 22354.00
1431.180, 22494.00
1432.231, 22499.00
1433.281, 22448.00
1434.331, 22638.00
1435.381, 22545.00
1436.431, 22745.00
1437.481, 22976.00
1438.530, 22893.00
1439.580, 23069.00
1440.629, 22983.00
1441.678, 23254.00
1442.727, 23054.00
1443.776, 23423.00
1444.824, 23433.00
1445.873, 23200.00
1446.921, 23627.00
1447.969, 23400.00
1449.017, 23679.00
1450.065, 23970.00
1451.113, 24092.00
1452.160, 23709.00
1453.208, 23762.00
1454.255, 23833.00
1455.302, 23802.00
1456.349, 23934.00
1457.396, 23616.00
1458.443, 23819.00
1459.489, 23852.00
1460.535, 24011.00
1461.582, 24079.00
1462.628, 23914.00
1463.674, 23762.00
1464.719, 23839.00
1465.765, 23677.00
1466.810, 23755.00
1467.856, 23730.00
1468.901, 23730.00
1469.946, 23889.00
1470.991, 23822.00
1472.035, 23837.00
1473.080, 23713.00
1474.124, 23879.00
1475.169, 23679.00
1476.213, 23847.00
1477.257, 23950.00
1478.300, 23866.00
1479.344, 23900.00
1480.388, 24220.00
1481.431, 24028.00
1482.474, 24209.00
1483.517, 24206.00
1484.560, 23892.00
1485.603, 24114.00
1486.645, 24241.00
1487.688, 23990.00
1488.730, 23839.00
1489.772, 24076.00
1490.814, 24211.00
1491.856, 24172.00
1492.898, 24220.00
1493.939, 24077.00
1494.981, 24144.00
1496.022, 24145.00
1497.063, 24416.00
1498.104, 24150.00
1499.145, 24407.00
1500.186, 24336.00
1501.226, 24541.00
1502.266, 24527.00
1503.307, 24447.00
1504.347, 24375.00
1505.387, 24496.00
1506.426, 24592.00
1507.466, 24678.00
1508.505, 24661.00
1509.545, 24721.00
1510.584, 24700.92
1511.623, 24765.00
1512.662, 24732.00
1513.700, 24875.00
1514.739, 25084.00
1515.777, 24887.00
1516.815, 25192.00
1517.854, 25039.00
1518.892, 25062.00
1519.929, 25181.00
1520.967, 25014.00
1522.004, 25045.00
1523.042, 25230.00
1524.079, 25086.00
1525.116, 25342.00
1526.153, 25471.00
1527.190, 25111.00
1528.226, 25519.00
1529.263, 25546.00
1530.299, 25474.00
1531.335, 25522.00
1532.371, 25517.32
1533.407, 25537.00
1534.443, 25576.00
1535.478, 25548.00
1536.514, 25634.00
1537.549, 25672.00
1538.584, 25823.00
1539.619, 25738.00
1540.654, 25710.00
1541.689, 25951.00
1542.723, 25936.00
1543.757, 25880.00
1544.792, 26290.00
1545.826, 25901.00
1546.860, 26189.00
1547.893, 26304.00
1548.927, 26262.00
1549.960, 26227.00
1550.994, 26333.00
1552.027, 26445.00
1553.060, 26218.00
1554.093, 26441.00
1555.126, 26435.00
1556.158, 26367.00
1557.191, 26517.00
1558.223, 26522.00
1559.255, 26605.00
1560.287, 26520.00
1561.319, 26472.00
1562.350, 26952.00
##END=



