##NAMES=Groutite
##RRUFFID=R080004
##IDEAL CHEMISTRY=Mn^3+^O(OH)
##LOCALITY=Roberts mine, Crosby, Minnesota, USA
##OWNER=RRUFF
##SOURCE=Michael Scott
##DESCRIPTION=Black crystalline and in some cases striated.
##STATUS=The identification of this mineral has been confirmed by single-crystal X-ray diffraction.
##URL=rruff.info/R080004
##PIN_ID=M01041
##ORIENTATION=Laser parallel to c* (0 0 1). Fiducial mark perpendicular to laser is parallel to -a [-1 0 0]
101.9390, 17912.00
103.1740, 18314.00
104.4090, 17983.00
105.6440, 17815.00
106.8790, 18062.00
108.1140, 18169.00
109.3490, 18242.00
110.5830, 18021.00
111.8180, 17858.00
113.0520, 18327.00
114.2860, 19817.00
115.5200, 21653.00
116.7530, 23083.00
117.9870, 24359.00
119.2200, 27818.00
120.4530, 32479.00
121.6860, 34148.00
122.9190, 30365.00
124.1520, 24924.00
125.3850, 19438.00
126.6170, 16959.00
127.8490, 16496.00
129.0810, 16428.00
130.3130, 16486.00
131.5450, 16193.00
132.7770, 16292.00
134.0080, 16184.00
135.2390, 16126.00
136.4710, 16145.00
137.7020, 16549.00
138.9320, 16793.00
140.1630, 17086.00
141.3930, 17000.00
142.6240, 17107.00
143.8540, 16918.92
145.0840, 17110.71
146.3140, 17211.79
147.5440, 17223.68
148.7730, 17065.96
150.0020, 16984.68
151.2320, 16785.44
152.4610, 16521.85
153.6900, 16634.00
154.9180, 16515.00
156.1470, 16527.00
157.3750, 16255.00
158.6040, 16049.00
159.8320, 15972.00
161.0600, 15878.00
162.2870, 15927.00
163.5150, 15919.00
164.7420, 15970.00
165.9700, 15662.00
167.1970, 15490.00
168.4240, 15478.00
169.6510, 15443.84
170.8770, 15478.32
172.1040, 15484.38
173.3300, 15463.58
174.5560, 15335.41
175.7820, 15345.89
177.0080, 15300.81
178.2340, 15253.45
179.4590, 15283.47
180.6850, 15170.91
181.9100, 15199.71
183.1350, 15172.09
184.3600, 15241.00
185.5850, 15181.00
186.8090, 15411.00
188.0340, 15305.00
189.2580, 15329.00
190.4820, 15477.00
191.7060, 15446.00
192.9300, 15330.00
194.1530, 15334.00
195.3770, 15328.00
196.6000, 15253.00
197.8230, 15343.00
199.0460, 15317.00
200.2690, 15282.00
201.4910, 15259.00
202.7140, 15242.00
203.9360, 15311.00
205.1580, 15259.00
206.3800, 15213.00
207.6020, 15077.00
208.8240, 15211.00
210.0450, 15154.00
211.2670, 15407.00
212.4880, 15331.00
213.7090, 15344.00
214.9300, 15522.00
216.1510, 15489.49
217.3710, 15582.00
218.5920, 15490.00
219.8120, 15641.00
221.0320, 15426.00
222.2520, 15609.00
223.4720, 15463.00
224.6910, 15514.00
225.9110, 15301.00
227.1300, 15338.00
228.3490, 15347.00
229.5680, 15286.45
230.7870, 15370.00
232.0050, 15300.00
233.2240, 15330.00
234.4420, 15368.00
235.6600, 15486.00
236.8780, 15605.00
238.0960, 15607.00
239.3140, 15699.28
240.5310, 15727.00
241.7490, 15717.00
242.9660, 15905.00
244.1830, 15767.00
245.4000, 16076.00
246.6160, 15938.00
247.8330, 16245.00
249.0490, 16309.00
250.2660, 16699.00
251.4820, 16577.00
252.6980, 16608.00
253.9130, 16994.00
255.1290, 17054.00
256.3440, 17118.00
257.5600, 17112.00
258.7750, 17195.00
259.9900, 17089.00
261.2040, 17214.00
262.4190, 17056.00
263.6330, 16956.00
264.8480, 16803.00
266.0620, 16751.00
267.2760, 16728.00
268.4900, 16643.00
269.7030, 16545.00
270.9170, 16457.00
272.1300, 16301.00
273.3430, 16333.00
274.5560, 16201.00
275.7690, 16346.00
276.9820, 16511.00
278.1940, 16436.00
279.4070, 16429.00
280.6190, 16598.00
281.8310, 16685.00
283.0430, 16701.00
284.2550, 16488.00
285.4660, 16483.00
286.6770, 16406.00
287.8890, 16336.13
289.1000, 16240.00
290.3110, 16234.00
291.5210, 16225.00
292.7320, 16109.00
293.9420, 16091.00
295.1530, 16143.00
296.3630, 16046.00
297.5730, 16096.00
298.7830, 16103.00
299.9920, 16085.00
301.2020, 16171.00
302.4110, 16173.00
303.6200, 16260.00
304.8290, 16245.00
306.0380, 16293.74
307.2470, 16216.00
308.4550, 16354.00
309.6630, 16265.00
310.8720, 16266.00
312.0800, 16307.00
313.2880, 16518.00
314.4950, 16422.00
315.7030, 16391.00
316.9100, 16648.00
318.1170, 16629.00
319.3240, 16674.00
320.5310, 16513.00
321.7380, 16830.00
322.9450, 16797.00
324.1510, 16958.00
325.3570, 16757.00
326.5630, 17066.00
327.7690, 16952.00
328.9750, 17176.00
330.1810, 17155.00
331.3860, 17133.00
332.5910, 17234.00
333.7960, 17209.00
335.0010, 17280.00
336.2060, 17286.00
337.4110, 17360.00
338.6150, 17318.00
339.8200, 17688.00
341.0240, 17802.00
342.2280, 17895.00
343.4320, 17882.00
344.6350, 18132.00
345.8390, 18272.00
347.0420, 18630.00
348.2450, 18947.00
349.4480, 19115.00
350.6510, 19640.00
351.8540, 19775.00
353.0560, 20371.00
354.2590, 20577.00
355.4610, 20973.00
356.6630, 21165.00
357.8650, 21380.00
359.0670, 21380.00
360.2680, 21278.00
361.4700, 20986.00
362.6710, 20499.00
363.8720, 20320.00
365.0730, 19857.00
366.2740, 19464.00
367.4740, 19432.00
368.6750, 19088.00
369.8750, 19071.00
371.0750, 18831.00
372.2750, 18925.00
373.4750, 18850.00
374.6740, 18841.00
375.8740, 19123.00
377.0730, 19410.00
378.2720, 19403.00
379.4710, 19843.00
380.6700, 20308.00
381.8690, 20458.00
383.0670, 20871.00
384.2660, 21363.00
385.4640, 21447.00
386.6620, 21668.00
387.8600, 21803.00
389.0570, 21566.00
390.2550, 21329.00
391.4520, 21095.00
392.6490, 20698.00
393.8460, 20169.00
395.0430, 20160.00
396.2400, 19611.00
397.4370, 19511.00
398.6330, 19201.00
399.8290, 18952.00
401.0250, 18761.00
402.2210, 18480.00
403.4170, 18446.00
404.6130, 18269.00
405.8080, 18212.00
407.0030, 18057.00
408.1980, 17912.00
409.3930, 17900.00
410.5880, 17796.00
411.7830, 17856.00
412.9770, 17747.00
414.1720, 17715.00
415.3660, 17655.00
416.5600, 17618.00
417.7530, 17579.00
418.9470, 17653.00
420.1410, 17446.00
421.3340, 17553.00
422.5270, 17551.00
423.7200, 17458.00
424.9130, 17448.00
426.1060, 17316.41
427.2980, 17403.42
428.4900, 17462.02
429.6830, 17493.77
430.8750, 17418.12
432.0670, 17481.12
433.2580, 17488.53
434.4500, 17493.69
435.6410, 17576.19
436.8320, 17516.13
438.0240, 17651.00
439.2140, 17639.14
440.4050, 17719.24
441.5960, 17770.95
442.7860, 17795.76
443.9760, 17713.19
445.1670, 17769.30
446.3560, 17769.81
447.5460, 17768.06
448.7360, 17843.67
449.9250, 17942.00
451.1150, 17954.00
452.3040, 17947.00
453.4930, 18098.00
454.6810, 17968.00
455.8700, 18235.00
457.0590, 18178.00
458.2470, 18241.00
459.4350, 18140.00
460.6230, 18266.30
461.8110, 18275.84
462.9980, 18477.00
464.1860, 18426.00
465.3730, 18482.00
466.5600, 18652.00
467.7470, 18529.00
468.9340, 18563.00
470.1210, 18589.00
471.3080, 18652.00
472.4940, 18691.00
473.6800, 18622.00
474.8660, 18998.00
476.0520, 18888.00
477.2380, 19122.00
478.4230, 19265.00
479.6090, 19264.00
480.7940, 19427.00
481.9790, 19562.00
483.1640, 19734.00
484.3490, 19885.00
485.5330, 19820.04
486.7180, 20014.95
487.9020, 20181.35
489.0860, 20320.87
490.2700, 20353.01
491.4540, 20523.81
492.6370, 20638.93
493.8210, 20751.88
495.0040, 20942.08
496.1870, 21103.00
497.3700, 21049.00
498.5530, 21113.00
499.7360, 21381.00
500.9180, 21392.87
502.1000, 21590.83
503.2830, 21660.00
504.4650, 21979.00
505.6460, 22187.00
506.8280, 22521.00
508.0100, 22824.00
509.1910, 23354.00
510.3720, 23971.00
511.5530, 24645.00
512.7340, 24933.00
513.9150, 25762.00
515.0950, 26441.00
516.2760, 27330.00
517.4560, 28149.76
518.6360, 28824.00
519.8160, 29907.00
520.9950, 30954.00
522.1750, 31905.00
523.3540, 32738.00
524.5340, 33788.00
525.7130, 34418.00
526.8920, 35502.00
528.0700, 35851.00
529.2490, 36379.00
530.4270, 36794.00
531.6060, 36839.00
532.7840, 36976.00
533.9620, 36469.00
535.1390, 36085.00
536.3170, 35891.00
537.4940, 35774.00
538.6720, 35400.00
539.8490, 35668.00
541.0260, 35687.00
542.2030, 35813.00
543.3790, 36365.00
544.5560, 36465.00
545.7320, 36928.00
546.9080, 37897.00
548.0840, 38613.00
549.2600, 39163.00
550.4360, 40182.00
551.6110, 40835.00
552.7860, 41478.00
553.9620, 41596.00
555.1370, 42619.00
556.3110, 42740.00
557.4860, 42643.00
558.6610, 42158.00
559.8350, 41220.00
561.0090, 40259.00
562.1830, 38854.00
563.3570, 37609.00
564.5310, 36137.00
565.7040, 35248.00
566.8780, 33518.00
568.0510, 31998.00
569.2240, 31123.00
570.3970, 29937.00
571.5700, 29511.00
572.7420, 28362.00
573.9150, 27784.00
575.0870, 26610.00
576.2590, 26208.00
577.4310, 25761.00
578.6030, 25360.00
579.7740, 25005.00
580.9460, 24530.00
582.1170, 24236.00
583.2880, 23822.00
584.4590, 23523.00
585.6300, 23307.00
586.8010, 23262.00
587.9710, 22830.00
589.1410, 22844.00
590.3110, 22686.00
591.4810, 22840.00
592.6510, 22671.00
593.8210, 22929.00
594.9900, 23074.00
596.1600, 23155.00
597.3290, 23367.00
598.4980, 23579.00
599.6670, 23651.00
600.8350, 24049.00
602.0040, 24549.00
603.1720, 25274.00
604.3400, 25666.00
605.5080, 26408.00
606.6760, 27399.00
607.8440, 28612.00
609.0120, 30033.00
610.1790, 31824.00
611.3460, 33032.00
612.5130, 34899.00
613.6800, 37199.00
614.8470, 39226.00
616.0130, 40723.00
617.1800, 42429.00
618.3460, 44902.00
619.5120, 46924.00
620.6780, 48257.00
621.8440, 49265.00
623.0090, 49363.00
624.1750, 49139.00
625.3400, 48264.00
626.5050, 47065.00
627.6700, 44968.00
628.8350, 43139.00
629.9990, 41078.00
631.1640, 39245.00
632.3280, 37260.00
633.4920, 35574.00
634.6560, 33767.00
635.8200, 32379.00
636.9840, 31115.00
638.1470, 29717.00
639.3100, 28769.00
640.4730, 27747.00
641.6360, 26723.00
642.7990, 25954.00
643.9620, 25243.00
645.1240, 24814.00
646.2870, 24244.00
647.4490, 23925.00
648.6110, 23180.00
649.7730, 22865.00
650.9340, 22447.00
652.0960, 22214.00
653.2570, 21971.00
654.4180, 21872.00
655.5790, 21470.00
656.7400, 21343.00
657.9010, 21040.00
659.0620, 20875.00
660.2220, 20508.00
661.3820, 20466.00
662.5420, 20516.00
663.7020, 20401.00
664.8620, 20139.00
666.0210, 20002.00
667.1810, 19821.00
668.3400, 19813.00
669.4990, 20089.00
670.6580, 19689.00
671.8170, 19955.00
672.9750, 19918.00
674.1340, 19508.00
675.2920, 19481.00
676.4500, 19338.00
677.6080, 19387.00
678.7660, 19295.00
679.9230, 19207.00
681.0810, 19400.00
682.2380, 18940.00
683.3950, 19006.00
684.5520, 19135.00
685.7090, 19221.00
686.8660, 19124.00
688.0220, 19172.00
689.1780, 19147.00
690.3340, 19125.00
691.4900, 19006.00
692.6460, 19027.00
693.8020, 18781.00
694.9570, 19031.00
696.1130, 19133.00
697.2680, 18979.00
698.4230, 19006.00
699.5780, 19129.00
700.7320, 18909.00
701.8870, 18978.00
703.0410, 19086.00
704.1950, 18991.00
705.3490, 18830.00
706.5030, 18962.00
707.6570, 19161.00
708.8110, 18950.00
709.9640, 18977.00
711.1170, 18899.00
712.2700, 18870.00
713.4230, 18983.00
714.5760, 18927.00
715.7280, 19064.00
716.8810, 18941.00
718.0330, 18929.00
719.1850, 19016.00
720.3370, 18803.00
721.4890, 18915.00
722.6400, 18982.00
723.7920, 18990.00
724.9430, 19022.00
726.0940, 18933.00
727.2450, 18893.00
728.3960, 18904.00
729.5460, 19042.00
730.6970, 18974.00
731.8470, 18742.00
732.9970, 18924.00
734.1470, 18812.00
735.2970, 18971.00
736.4460, 18832.00
737.5960, 18698.00
738.7450, 18809.00
739.8940, 18813.00
741.0430, 18792.00
742.1920, 18800.00
743.3410, 18855.00
744.4890, 18921.00
745.6370, 18743.64
746.7850, 18820.96
747.9330, 18869.86
749.0810, 18891.89
750.2290, 18806.54
751.3760, 18859.84
752.5240, 18857.58
753.6710, 18853.03
754.8180, 18775.00
755.9650, 18814.51
757.1110, 18882.00
758.2580, 18824.00
759.4040, 18863.00
760.5510, 18748.00
761.6970, 18612.00
762.8420, 18671.00
763.9880, 18665.00
765.1340, 18716.00
766.2790, 18704.00
767.4240, 18509.00
768.5690, 18490.00
769.7140, 18728.00
770.8590, 18540.00
772.0030, 18682.00
773.1480, 18699.00
774.2920, 18656.00
775.4360, 18561.00
776.5800, 18623.00
777.7240, 18490.00
778.8670, 18491.00
780.0110, 18650.00
781.1540, 18553.00
782.2970, 18430.00
783.4400, 18764.00
784.5830, 18573.00
785.7250, 18546.00
786.8680, 18743.00
788.0100, 18667.00
789.1520, 18694.62
790.2940, 18696.00
791.4360, 18653.00
792.5780, 18699.00
793.7190, 18681.00
794.8600, 18623.00
796.0010, 18619.80
797.1420, 18640.00
798.2830, 18537.00
799.4240, 18551.00
800.5640, 18497.00
801.7050, 18614.00
802.8450, 18370.00
803.9850, 18343.00
805.1250, 18620.00
806.2640, 18438.22
807.4040, 18700.00
808.5430, 18381.00
809.6820, 18605.00
810.8210, 18545.00
811.9600, 18437.00
813.0990, 18681.00
814.2370, 18542.00
815.3760, 18518.00
816.5140, 18449.00
817.6520, 18508.00
818.7900, 18428.00
819.9270, 18531.00
821.0650, 18605.00
822.2020, 18546.00
823.3390, 18565.00
824.4760, 18447.00
825.6130, 18569.00
826.7500, 18556.00
827.8870, 18672.00
829.0230, 18514.00
830.1590, 18446.00
831.2950, 18360.00
832.4310, 18374.06
833.5670, 18437.23
834.7030, 18472.00
835.8380, 18479.89
836.9730, 18380.40
838.1080, 18419.57
839.2430, 18403.18
840.3780, 18384.50
841.5130, 18443.18
842.6470, 18359.31
843.7810, 18416.77
844.9150, 18417.82
846.0490, 18383.00
847.1830, 18466.00
848.3170, 18376.00
849.4500, 18505.00
850.5830, 18627.00
851.7160, 18385.00
852.8490, 18418.00
853.9820, 18326.00
855.1150, 18511.00
856.2470, 18359.00
857.3800, 18541.00
858.5120, 18394.00
859.6440, 18422.00
860.7760, 18527.00
861.9070, 18373.00
863.0390, 18532.00
864.1700, 18271.00
865.3010, 18604.00
866.4320, 18489.00
867.5630, 18514.00
868.6940, 18529.00
869.8240, 18592.00
870.9540, 18669.00
872.0850, 18660.81
873.2150, 18644.48
874.3450, 18654.00
875.4740, 18564.00
876.6040, 18521.00
877.7330, 18545.00
878.8620, 18493.94
879.9910, 18524.71
881.1200, 18470.00
882.2490, 18618.00
883.3770, 18618.00
884.5060, 18750.00
885.6340, 18661.00
886.7620, 18731.00
887.8900, 18705.00
889.0180, 18668.00
890.1450, 18755.00
891.2730, 18749.00
892.4000, 18892.00
893.5270, 18480.00
894.6540, 18751.00
895.7810, 18536.00
896.9070, 18688.00
898.0340, 18645.00
899.1600, 18635.00
900.2860, 18618.00
901.4120, 18873.00
902.5380, 18664.00
903.6630, 18558.00
904.7890, 18926.00
905.9140, 18690.00
907.0390, 18783.00
908.1640, 18852.00
909.2890, 18699.00
910.4130, 18880.00
911.5380, 18768.00
912.6620, 18763.00
913.7860, 18637.00
914.9100, 18797.00
916.0340, 18860.00
917.1580, 18870.00
918.2810, 18901.92
919.4040, 18898.15
920.5280, 18881.00
921.6510, 18877.00
922.7730, 18867.97
923.8960, 18878.43
925.0180, 18864.00
926.1410, 18904.00
927.2630, 18930.00
928.3850, 18935.00
929.5070, 19073.00
930.6280, 19013.00
931.7500, 19071.00
932.8710, 18951.00
933.9920, 18782.00
935.1130, 18955.00
936.2340, 19116.00
937.3550, 18880.00
938.4760, 19098.00
939.5960, 18996.00
940.7160, 18922.00
941.8360, 19112.00
942.9560, 18895.00
944.0760, 19109.00
945.1950, 18951.00
946.3150, 19123.00
947.4340, 18856.00
948.5530, 19137.00
949.6720, 19228.00
950.7900, 18868.00
951.9090, 19287.00
953.0270, 19031.00
954.1460, 19126.00
955.2640, 18910.00
956.3820, 18998.00
957.4990, 19187.00
958.6170, 18998.00
959.7340, 19200.00
960.8520, 18969.00
961.9690, 19009.00
963.0860, 19103.00
964.2020, 19021.00
965.3190, 19014.00
966.4350, 18999.00
967.5520, 18990.61
968.6680, 18997.00
969.7840, 19049.00
970.8990, 19104.00
972.0150, 19204.00
973.1310, 19184.00
974.2460, 19123.25
975.3610, 19344.00
976.4760, 19024.00
977.5910, 19091.00
978.7050, 19317.00
979.8200, 19141.00
980.9340, 19305.00
982.0480, 19198.00
983.1620, 19166.00
984.2760, 19294.00
985.3900, 19225.00
986.5030, 19333.00
987.6160, 19312.00
988.7300, 19377.00
989.8430, 19175.00
990.9550, 19333.00
992.0680, 19377.00
993.1810, 19200.00
994.2930, 19331.00
995.4050, 19146.00
996.5170, 19330.00
997.6290, 19197.00
998.7410, 19244.00
999.8520, 19242.00
1000.964, 19273.00
1002.075, 19386.00
1003.186, 19243.00
1004.297, 19338.00
1005.407, 19177.00
1006.518, 19032.00
1007.628, 19210.00
1008.738, 19324.00
1009.848, 19304.00
1010.958, 19051.00
1012.068, 19289.00
1013.178, 19319.00
1014.287, 19028.00
1015.396, 19132.00
1016.505, 19026.00
1017.614, 19208.00
1018.723, 19090.00
1019.831, 19095.00
1020.940, 19152.00
1022.048, 19108.48
1023.156, 19079.89
1024.264, 19108.00
1025.372, 19043.00
1026.479, 18990.00
1027.587, 19147.00
1028.694, 19108.00
1029.801, 19071.00
1030.908, 19004.00
1032.015, 19100.00
1033.121, 19018.00
1034.228, 19073.00
1035.334, 19065.00
1036.440, 19250.00
1037.546, 19226.69
1038.652, 19391.00
1039.758, 19194.00
1040.863, 19328.00
1041.968, 19143.00
1043.074, 19415.00
1044.178, 19420.00
1045.283, 19288.00
1046.388, 19417.00
1047.492, 19253.00
1048.597, 19265.00
1049.701, 19455.00
1050.805, 19266.00
1051.909, 19522.00
1053.012, 19282.00
1054.116, 19560.00
1055.219, 19502.00
1056.322, 19525.87
1057.425, 19846.00
1058.528, 19571.00
1059.631, 19437.00
1060.733, 19370.00
1061.836, 19473.00
1062.938, 19454.00
1064.040, 19484.00
1065.142, 19550.00
1066.243, 19466.00
1067.345, 19665.00
1068.446, 19497.00
1069.547, 19640.00
1070.648, 19839.00
1071.749, 19507.00
1072.850, 19578.00
1073.951, 19572.00
1075.051, 19809.00
1076.151, 19744.24
1077.251, 19897.00
1078.351, 19731.00
1079.451, 19593.00
1080.550, 19581.00
1081.650, 19729.00
1082.749, 19536.00
1083.848, 19592.00
1084.947, 19684.00
1086.046, 19603.00
1087.144, 19784.00
1088.243, 19701.09
1089.341, 19612.00
1090.439, 19708.00
1091.537, 19580.00
1092.635, 19779.00
1093.732, 19862.00
1094.830, 19532.00
1095.927, 19646.00
1097.024, 19905.00
1098.121, 19678.00
1099.218, 19902.00
1100.314, 19679.00
1101.411, 19732.00
1102.507, 19751.04
1103.603, 19735.40
1104.699, 19796.00
1105.795, 19814.00
1106.890, 19922.00
1107.986, 19898.00
1109.081, 19951.00
1110.176, 19966.00
1111.271, 19729.00
1112.366, 19940.00
1113.461, 19639.00
1114.555, 19896.00
1115.649, 19661.00
1116.744, 19822.00
1117.838, 20097.00
1118.931, 20016.00
1120.025, 19917.00
1121.119, 19880.00
1122.212, 19834.62
1123.305, 19827.71
1124.398, 19812.00
1125.491, 19827.00
1126.584, 19863.00
1127.676, 19801.00
1128.768, 19867.51
1129.861, 19749.00
1130.953, 19954.00
1132.044, 19884.00
1133.136, 19927.00
1134.228, 19876.00
1135.319, 20078.00
1136.410, 19996.00
1137.501, 19967.00
1138.592, 19828.00
1139.683, 19982.00
1140.773, 19946.00
1141.864, 19959.00
1142.954, 19922.00
1144.044, 19953.31
1145.134, 19783.00
1146.224, 20020.00
1147.313, 19917.00
1148.402, 19947.00
1149.492, 20064.00
1150.581, 20047.00
1151.670, 20107.04
1152.758, 20080.19
1153.847, 20083.00
1154.935, 20087.00
1156.024, 19883.00
1157.112, 20077.00
1158.200, 20095.00
1159.287, 20228.00
1160.375, 20018.00
1161.462, 20023.00
1162.550, 19861.00
1163.637, 19966.00
1164.724, 20127.00
1165.810, 20030.00
1166.897, 20098.00
1167.983, 20263.00
1169.070, 19801.00
1170.156, 19962.00
1171.242, 20106.00
1172.327, 19990.00
1173.413, 20143.00
1174.499, 20174.00
1175.584, 20150.00
1176.669, 20017.00
1177.754, 20275.00
1178.839, 19875.00
1179.923, 20157.00
1181.008, 20147.00
1182.092, 20092.00
1183.176, 19937.00
1184.260, 20145.00
1185.344, 20334.00
1186.428, 20281.00
1187.511, 20186.00
1188.595, 19939.00
1189.678, 20087.00
1190.761, 20104.00
1191.843, 19995.00
1192.926, 20209.00
1194.009, 19943.00
1195.091, 20229.00
1196.173, 20268.00
1197.255, 20064.00
1198.337, 20000.00
1199.419, 20149.00
1200.500, 19919.00
1201.582, 20177.00
1202.663, 20088.00
1203.744, 20190.00
1204.825, 20139.00
1205.905, 19925.00
1206.986, 20078.00
1208.066, 20033.00
1209.146, 20054.00
1210.226, 20095.15
1211.306, 20096.00
1212.386, 20108.00
1213.466, 20023.00
1214.545, 20004.00
1215.624, 19912.00
1216.703, 19999.00
1217.782, 20032.00
1218.861, 19996.43
1219.939, 20142.00
1221.018, 19977.00
1222.096, 19901.00
1223.174, 19893.00
1224.252, 20049.00
1225.330, 19920.00
1226.407, 19964.00
1227.485, 19949.00
1228.562, 19871.00
1229.639, 19989.00
1230.716, 20141.00
1231.793, 20081.39
1232.869, 20079.00
1233.946, 20067.00
1235.022, 20150.00
1236.098, 20137.18
1237.174, 20013.00
1238.250, 20007.00
1239.325, 19851.00
1240.401, 19918.00
1241.476, 20061.00
1242.551, 19745.00
1243.626, 19883.00
1244.701, 19784.00
1245.776, 19988.00
1246.850, 19862.00
1247.924, 19974.00
1248.999, 20037.00
1250.073, 19903.00
1251.146, 19941.00
1252.220, 19844.00
1253.293, 19852.00
1254.367, 19894.00
1255.440, 19909.00
1256.513, 20065.00
1257.586, 19749.00
1258.658, 20074.00
1259.731, 19922.00
1260.803, 19852.00
1261.875, 19953.00
1262.947, 19763.00
1264.019, 19988.00
1265.091, 19802.00
1266.162, 20004.00
1267.234, 19808.00
1268.305, 19801.00
1269.376, 19888.00
1270.447, 19797.00
1271.517, 19739.00
1272.588, 19756.00
1273.658, 19834.00
1274.729, 19842.00
1275.799, 19818.36
1276.868, 19904.00
1277.938, 19754.00
1279.008, 19768.00
1280.077, 19782.93
1281.146, 19805.00
1282.215, 19811.56
1283.284, 19797.47
1284.353, 19807.00
1285.421, 19759.00
1286.490, 19706.00
1287.558, 19696.00
1288.626, 19618.00
1289.694, 19617.00
1290.762, 19583.56
1291.829, 19604.00
1292.897, 19568.00
1293.964, 19499.00
1295.031, 19548.00
1296.098, 19519.00
1297.165, 19551.00
1298.231, 19726.00
1299.298, 19469.00
1300.364, 19652.00
1301.430, 19712.00
1302.496, 19431.00
1303.562, 19695.00
1304.627, 19525.00
1305.693, 19460.00
1306.758, 19341.00
1307.823, 19481.00
1308.888, 19470.00
1309.953, 19463.00
1311.018, 19575.00
1312.082, 19532.50
1313.146, 19515.00
1314.210, 19517.00
1315.274, 19492.00
1316.338, 19456.00
1317.402, 19525.00
1318.465, 19450.76
1319.529, 19465.00
1320.592, 19335.00
1321.655, 19479.00
1322.718, 19377.00
1323.780, 19462.00
1324.843, 19374.00
1325.905, 19201.00
1326.967, 19505.00
1328.029, 19380.00
1329.091, 19396.00
1330.153, 19293.00
1331.214, 19239.93
1332.275, 19244.79
1333.337, 19126.00
1334.398, 19209.00
1335.458, 19172.00
1336.519, 19086.00
1337.580, 19100.00
1338.640, 19209.00
1339.700, 19086.00
1340.760, 19298.00
1341.820, 19172.00
1342.880, 19431.00
1343.939, 19171.00
1344.999, 19202.00
1346.058, 19224.00
1347.117, 19367.00
1348.176, 19306.00
1349.235, 19111.00
1350.293, 19118.00
1351.351, 19106.00
1352.410, 19266.00
1353.468, 19231.00
1354.526, 19154.00
1355.583, 19152.00
1356.641, 19452.00
1357.698, 19244.00
1358.756, 19394.00
1359.813, 19126.00
1360.869, 19191.50
1361.926, 19188.00
1362.983, 19245.00
1364.039, 19182.00
1365.095, 19233.00
1366.152, 19334.00
1367.207, 19287.00
1368.263, 19280.00
1369.319, 19280.00
1370.374, 19177.00
1371.430, 19285.00
1372.485, 19123.00
1373.540, 19117.00
1374.594, 19135.00
1375.649, 19165.00
1376.703, 19335.00
1377.758, 19060.00
1378.812, 19339.00
1379.866, 18993.00
1380.920, 18978.00
1381.973, 19393.00
1383.027, 19151.00
1384.080, 19067.00
1385.133, 19224.00
1386.186, 19196.00
1387.239, 19167.00
1388.291, 19027.00
1389.344, 19351.00
1390.396, 19142.00
1391.448, 19340.00
1392.500, 19184.00
1393.552, 19162.00
1394.604, 19261.76
1395.655, 19180.30
1396.707, 19288.00
1397.758, 19264.00
1398.809, 19053.00
1399.860, 19253.00
1400.910, 19086.00
1401.961, 19079.00
1403.011, 19278.00
1404.061, 19224.00
1405.111, 19259.00
1406.161, 19086.00
1407.211, 19262.00
1408.260, 19005.00
1409.310, 19145.00
1410.359, 19194.00
1411.408, 19395.00
1412.457, 19280.00
1413.506, 19238.00
1414.554, 19158.00
1415.603, 19255.00
1416.651, 19340.00
1417.699, 19410.00
1418.747, 19351.00
1419.794, 19172.00
1420.842, 19297.00
1421.889, 19256.00
1422.937, 19197.00
1423.984, 19225.00
1425.031, 19034.00
1426.077, 19306.00
1427.124, 19221.00
1428.170, 19291.00
1429.217, 19145.00
1430.263, 19287.00
1431.309, 19211.00
1432.354, 19135.00
1433.400, 19123.98
1434.445, 19133.00
1435.491, 19079.00
1436.536, 19047.00
1437.581, 19255.00
1438.625, 19254.00
1439.670, 19325.00
1440.714, 19254.00
1441.759, 19128.00
1442.803, 19248.00
1443.847, 19155.00
1444.890, 19118.00
1445.934, 19198.00
1446.978, 19264.00
1448.021, 19160.00
1449.064, 19233.00
1450.107, 19024.00
1451.150, 18978.00
1452.192, 19366.00
1453.235, 19154.00
1454.277, 19161.00
1455.319, 19300.00
1456.361, 19323.00
1457.403, 19256.00
1458.445, 19184.00
1459.486, 19226.00
1460.528, 19089.00
1461.569, 19122.21
1462.610, 19249.00
1463.651, 19186.00
1464.691, 19120.00
1465.732, 19266.00
1466.772, 19087.00
1467.812, 19315.00
1468.852, 19406.00
1469.892, 19210.00
1470.932, 19179.00
1471.971, 19278.00
1473.011, 19246.00
1474.050, 19257.00
1475.089, 19248.00
1476.128, 19233.52
1477.166, 19147.00
1478.205, 19193.00
1479.243, 19158.00
1480.282, 19095.00
1481.320, 19138.04
1482.357, 19280.00
1483.395, 19064.00
1484.433, 19331.00
1485.470, 19090.00
1486.507, 19259.00
1487.544, 19105.00
1488.581, 19284.00
1489.618, 19280.00
1490.655, 19279.62
1491.691, 19176.00
1492.727, 19254.00
1493.763, 19288.00
1494.799, 19135.00
1495.835, 19232.00
1496.871, 19128.00
1497.906, 19235.00
1498.941, 19192.00
1499.976, 19368.00
1501.011, 19375.00
1502.046, 19287.00
1503.081, 19347.00
1504.115, 19410.00
1505.149, 19267.00
1506.183, 19193.00
1507.217, 19239.00
1508.251, 19089.00
1509.285, 19469.00
1510.318, 19464.00
1511.352, 19722.00
1512.385, 19408.00
1513.418, 19166.00
1514.450, 19350.00
1515.483, 19256.00
1516.516, 19369.00
1517.548, 19431.00
1518.580, 19164.00
1519.612, 19244.00
1520.644, 19148.00
1521.675, 19297.00
1522.707, 19362.00
1523.738, 19392.00
1524.769, 19336.00
1525.800, 19422.09
1526.831, 19251.00
1527.862, 19465.00
1528.892, 19446.31
1529.923, 19341.00
1530.953, 19438.00
1531.983, 19386.00
1533.013, 19308.00
1534.042, 19200.00
1535.072, 19459.00
1536.101, 19200.00
1537.131, 19398.00
1538.160, 19384.00
1539.188, 19307.00
1540.217, 19221.00
1541.246, 19232.00
1542.274, 19114.00
1543.302, 19415.00
1544.330, 19369.00
1545.358, 19392.00
1546.386, 19404.00
1547.413, 19282.00
1548.441, 19420.00
1549.468, 19467.00
1550.495, 19686.00
1551.522, 19647.00
1552.549, 19959.00
1553.575, 20219.00
1554.602, 20253.00
1555.628, 19753.00
1556.654, 19471.00
1557.680, 19302.00
1558.706, 19317.00
1559.731, 19224.00
1560.757, 19286.00
1561.782, 19312.00
1562.807, 19320.00
1563.832, 19257.00
1564.857, 19360.00
1565.881, 18991.00
1566.906, 19410.00
1567.930, 19103.00
1568.954, 19370.00
1569.978, 19300.00
1571.002, 19242.00
1572.025, 19355.00
1573.049, 19336.00
1574.072, 19290.00
1575.095, 19342.00
1576.118, 19211.00
##END=



