##NAMES=Groutite
##RRUFFID=R080004
##IDEAL CHEMISTRY=Mn^3+^O(OH)
##LOCALITY=Roberts mine, Crosby, Minnesota, USA
##OWNER=RRUFF
##SOURCE=Michael Scott
##DESCRIPTION=Black crystalline and in some cases striated.
##STATUS=The identification of this mineral has been confirmed by single-crystal X-ray diffraction.
##URL=rruff.info/R080004
##PIN_ID=M01773
##ORIENTATION=Laser parallel to b* (0 1 0). Fiducial mark perpendicular to laser is parallel to -c [0 0 -1]
109.2180, 11871.00
110.4490, 12050.00
111.6810, 12516.00
112.9120, 13334.00
114.1440, 14259.00
115.3750, 14068.00
116.6060, 13598.00
117.8360, 12844.00
119.0670, 12652.00
120.2980, 12266.00
121.5280, 12149.00
122.7580, 11796.00
123.9880, 11242.00
125.2180, 10915.00
126.4480, 10435.00
127.6780, 10465.00
128.9070, 10472.00
130.1370, 10599.00
131.3660, 10743.00
132.5950, 11048.00
133.8240, 10335.00
135.0530, 10301.00
136.2810, 10428.00
137.5100, 10679.00
138.7380, 10796.00
139.9660, 10790.00
141.1940, 10609.00
142.4220, 10302.00
143.6500, 10127.00
144.8780, 10045.00
146.1050, 10220.00
147.3330, 10002.00
148.5600, 9981.000
149.7870, 9934.000
151.0140, 9948.000
152.2400, 9950.000
153.4670, 9840.000
154.6940, 9912.000
155.9200, 9822.000
157.1460, 9805.000
158.3720, 9801.000
159.5980, 9722.256
160.8240, 9641.000
162.0490, 9635.000
163.2750, 9646.000
164.5000, 9667.172
165.7250, 9673.206
166.9500, 9604.000
168.1750, 9719.000
169.4000, 9587.000
170.6240, 9632.000
171.8490, 9538.000
173.0730, 9437.000
174.2970, 9287.000
175.5210, 9593.000
176.7450, 9390.000
177.9690, 9496.000
179.1920, 9511.000
180.4160, 9461.000
181.6390, 9508.000
182.8620, 9381.000
184.0850, 9363.000
185.3080, 9407.000
186.5300, 9421.000
187.7530, 9359.000
188.9750, 9321.000
190.1970, 9324.654
191.4190, 9316.885
192.6410, 9329.000
193.8630, 9352.000
195.0850, 9385.000
196.3060, 9395.473
197.5280, 9402.540
198.7490, 9519.000
199.9700, 9405.000
201.1910, 9508.000
202.4110, 9528.493
203.6320, 9641.000
204.8530, 9768.000
206.0730, 9618.000
207.2930, 9754.000
208.5130, 9903.000
209.7330, 10079.00
210.9530, 10176.00
212.1720, 10198.00
213.3920, 10532.00
214.6110, 10509.00
215.8300, 10773.00
217.0490, 10901.00
218.2680, 10995.00
219.4860, 10987.00
220.7050, 10895.00
221.9230, 10840.00
223.1420, 10709.00
224.3600, 10621.73
225.5780, 10670.00
226.7950, 10298.00
228.0130, 10324.00
229.2310, 9939.000
230.4480, 9923.000
231.6650, 9747.000
232.8820, 9795.000
234.0990, 9690.000
235.3160, 9622.000
236.5330, 9679.000
237.7490, 9429.000
238.9650, 9376.000
240.1810, 9412.000
241.3980, 9593.000
242.6130, 9590.000
243.8290, 9544.000
245.0450, 9489.000
246.2600, 9501.000
247.4750, 9534.000
248.6910, 9625.000
249.9050, 9681.000
251.1200, 9820.000
252.3350, 9967.000
253.5500, 10208.00
254.7640, 10367.00
255.9780, 10645.00
257.1920, 10895.00
258.4060, 11296.00
259.6200, 11481.00
260.8340, 11873.00
262.0470, 12051.00
263.2600, 12337.00
264.4740, 12624.00
265.6870, 12954.00
266.9000, 13047.00
268.1120, 13107.00
269.3250, 13005.00
270.5370, 12657.00
271.7500, 12350.00
272.9620, 12160.00
274.1740, 11770.00
275.3860, 11509.00
276.5970, 11202.00
277.8090, 10986.00
279.0200, 10741.00
280.2320, 10550.53
281.4430, 10291.00
282.6540, 10248.00
283.8640, 10130.00
285.0750, 10053.00
286.2860, 9811.000
287.4960, 9768.000
288.7060, 9632.000
289.9160, 9836.000
291.1260, 9696.000
292.3360, 9626.000
293.5450, 9646.854
294.7550, 9572.850
295.9640, 9556.000
297.1730, 9560.000
298.3820, 9528.000
299.5910, 9568.000
300.8000, 9461.000
302.0080, 9477.000
303.2170, 9535.000
304.4250, 9471.000
305.6330, 9467.000
306.8410, 9598.000
308.0490, 9647.000
309.2570, 9746.000
310.4640, 9627.000
311.6710, 9725.000
312.8790, 9657.000
314.0860, 9664.000
315.2930, 9651.969
316.4990, 9601.000
317.7060, 9583.000
318.9120, 9561.000
320.1190, 9519.000
321.3250, 9376.000
322.5310, 9327.000
323.7370, 9343.000
324.9420, 9489.000
326.1480, 9504.000
327.3530, 9440.000
328.5580, 9449.000
329.7640, 9460.000
330.9680, 9386.000
332.1730, 9478.000
333.3780, 9318.000
334.5820, 9580.000
335.7870, 9509.000
336.9910, 9512.000
338.1950, 9350.000
339.3990, 9550.000
340.6020, 9563.000
341.8060, 9587.000
343.0090, 9536.000
344.2130, 9684.000
345.4160, 9633.463
346.6190, 9704.000
347.8220, 9652.000
349.0240, 9676.000
350.2270, 9735.000
351.4290, 9771.000
352.6310, 9724.000
353.8330, 9891.000
355.0350, 9713.000
356.2370, 9643.000
357.4390, 9734.000
358.6400, 9696.000
359.8410, 9754.000
361.0430, 9686.000
362.2440, 9708.000
363.4440, 9702.000
364.6450, 9718.703
365.8460, 9722.000
367.0460, 9802.000
368.2460, 9835.000
369.4460, 9902.000
370.6460, 10052.00
371.8460, 10145.00
373.0460, 10081.00
374.2450, 10070.00
375.4440, 10294.00
376.6440, 10468.00
377.8430, 10561.00
379.0410, 10650.00
380.2400, 10750.00
381.4390, 10712.00
382.6370, 10810.00
383.8350, 10672.00
385.0330, 10648.00
386.2310, 10530.00
387.4290, 10406.00
388.6270, 10449.00
389.8240, 10492.00
391.0220, 10283.00
392.2190, 10356.00
393.4160, 10355.00
394.6130, 10256.00
395.8090, 10394.00
397.0060, 10308.00
398.2020, 10448.00
399.3990, 10548.00
400.5950, 10509.00
401.7910, 10423.00
402.9870, 10587.00
404.1820, 10601.00
405.3780, 10712.00
406.5730, 10566.00
407.7680, 10512.00
408.9630, 10346.00
410.1580, 10092.00
411.3530, 10077.00
412.5480, 10080.00
413.7420, 9842.000
414.9360, 9885.000
416.1300, 9912.000
417.3240, 9871.000
418.5180, 9858.505
419.7120, 9754.000
420.9050, 9760.000
422.0990, 9720.000
423.2920, 9666.000
424.4850, 9693.235
425.6780, 9648.000
426.8700, 9714.000
428.0630, 9734.000
429.2550, 9724.000
430.4480, 9832.000
431.6400, 9752.000
432.8320, 9824.000
434.0240, 9763.000
435.2150, 9849.000
436.4070, 9861.000
437.5980, 9920.000
438.7890, 9942.000
439.9800, 9911.000
441.1710, 9943.000
442.3620, 9905.000
443.5530, 9948.905
444.7430, 9940.000
445.9330, 10015.00
447.1230, 9948.000
448.3130, 9940.000
449.5030, 9961.000
450.6930, 10121.00
451.8820, 9936.000
453.0720, 10022.00
454.2610, 10100.00
455.4500, 10017.00
456.6390, 9996.000
457.8270, 9976.000
459.0160, 10008.00
460.2040, 10017.00
461.3930, 10062.00
462.5810, 10208.00
463.7690, 10126.00
464.9560, 10264.00
466.1440, 10096.00
467.3320, 10233.00
468.5190, 10183.00
469.7060, 10178.00
470.8930, 10292.00
472.0800, 10280.00
473.2670, 10385.00
474.4530, 10510.00
475.6400, 10434.00
476.8260, 10426.00
478.0120, 10501.00
479.1980, 10405.00
480.3840, 10335.00
481.5690, 10517.00
482.7550, 10514.00
483.9400, 10621.00
485.1250, 10642.00
486.3100, 10638.00
487.4950, 10566.00
488.6800, 10734.00
489.8640, 10673.00
491.0490, 10736.00
492.2330, 10757.00
493.4170, 10758.00
494.6010, 10716.00
495.7840, 10762.71
496.9680, 10913.00
498.1510, 10798.00
499.3350, 10976.00
500.5180, 10953.55
501.7010, 11157.00
502.8840, 11041.00
504.0660, 11109.64
505.2490, 11153.00
506.4310, 11196.00
507.6130, 11288.00
508.7950, 11341.46
509.9770, 11484.00
511.1590, 11520.00
512.3410, 11666.00
513.5220, 11832.00
514.7030, 11840.00
515.8840, 12061.00
517.0650, 12246.00
518.2460, 12278.00
519.4270, 12441.00
520.6070, 12766.00
521.7870, 12963.60
522.9680, 13402.00
524.1480, 13619.00
525.3280, 13743.00
526.5070, 14150.00
527.6870, 14474.00
528.8660, 14885.00
530.0450, 15370.00
531.2240, 15857.00
532.4030, 16525.00
533.5820, 17050.00
534.7610, 17600.00
535.9390, 18406.00
537.1170, 19212.00
538.2950, 20118.32
539.4730, 21170.84
540.6510, 22230.00
541.8290, 23420.00
543.0060, 24712.00
544.1840, 25867.00
545.3610, 27365.00
546.5380, 28675.00
547.7150, 29774.00
548.8910, 31193.00
550.0680, 32078.72
551.2440, 33115.00
552.4210, 33613.00
553.5970, 33798.00
554.7730, 33906.00
555.9480, 33778.00
557.1240, 33339.61
558.2990, 32791.00
559.4750, 31974.00
560.6500, 31229.00
561.8250, 30269.00
563.0000, 29252.00
564.1740, 28219.00
565.3490, 27313.00
566.5230, 26120.00
567.6970, 25187.00
568.8710, 24232.43
570.0450, 23713.76
571.2190, 23172.71
572.3930, 22610.47
573.5660, 21964.12
574.7390, 21427.02
575.9120, 20846.15
577.0850, 20263.46
578.2580, 19951.46
579.4310, 19405.00
580.6030, 19379.00
581.7750, 18911.89
582.9470, 18691.00
584.1190, 18337.00
585.2910, 17859.00
586.4630, 17666.00
587.6340, 17175.00
588.8060, 16633.00
589.9770, 16548.00
591.1480, 16208.00
592.3190, 15940.00
593.4900, 15666.00
594.6600, 15425.00
595.8310, 15137.00
597.0010, 14949.00
598.1710, 14634.00
599.3410, 14302.00
600.5100, 14261.00
601.6800, 14024.00
602.8500, 13855.00
604.0190, 13597.00
605.1880, 13490.00
606.3570, 13461.00
607.5260, 13245.00
608.6940, 13156.00
609.8630, 13133.00
611.0310, 13167.00
612.1990, 13258.00
613.3670, 13205.00
614.5350, 13121.00
615.7030, 13266.00
616.8700, 13365.00
618.0380, 13398.00
619.2050, 13725.00
620.3720, 13721.39
621.5390, 13772.00
622.7060, 13953.00
623.8720, 13933.00
625.0390, 14200.00
626.2050, 14190.00
627.3710, 14199.00
628.5370, 14256.00
629.7030, 14298.00
630.8680, 14203.68
632.0340, 13995.00
633.1990, 13909.01
634.3640, 13665.00
635.5290, 13471.39
636.6940, 13231.00
637.8590, 12990.00
639.0230, 12795.21
640.1880, 12607.81
641.3520, 12474.00
642.5160, 12288.00
643.6800, 12203.00
644.8440, 12066.00
646.0070, 12035.00
647.1710, 12034.00
648.3340, 11890.00
649.4970, 11676.00
650.6600, 11614.00
651.8220, 11661.00
652.9850, 11386.00
654.1480, 11441.00
655.3100, 11291.00
656.4720, 11316.00
657.6340, 11251.96
658.7960, 11189.77
659.9570, 11151.00
661.1190, 11091.00
662.2800, 11067.00
663.4410, 11013.00
664.6020, 10992.66
665.7630, 11041.00
666.9240, 10982.00
668.0840, 10974.00
669.2450, 11028.00
670.4050, 10946.00
671.5650, 10886.00
672.7250, 10793.00
673.8840, 10812.00
675.0440, 10842.00
676.2030, 10749.00
677.3630, 10764.00
678.5220, 10648.00
679.6810, 10651.96
680.8390, 10756.00
681.9980, 10659.00
683.1560, 10696.91
684.3150, 10762.00
685.4730, 10622.00
686.6310, 10679.00
687.7880, 10629.00
688.9460, 10715.00
690.1030, 10523.00
691.2610, 10497.00
692.4180, 10709.00
693.5750, 10498.00
694.7320, 10417.00
695.8880, 10516.00
697.0450, 10474.00
698.2010, 10629.00
699.3570, 10459.00
700.5130, 10538.00
701.6690, 10807.00
702.8250, 10624.69
703.9800, 10657.00
705.1360, 10509.00
706.2910, 10539.00
707.4460, 10507.00
708.6010, 10475.00
709.7560, 10432.00
710.9100, 10426.80
712.0650, 10477.00
713.2190, 10439.00
714.3730, 10500.00
715.5270, 10563.00
716.6810, 10588.00
717.8340, 10624.00
718.9880, 10605.25
720.1410, 10572.00
721.2940, 10519.00
722.4470, 10451.00
723.6000, 10361.00
724.7520, 10386.26
725.9050, 10493.00
727.0570, 10427.00
728.2090, 10473.00
729.3610, 10480.00
730.5130, 10454.00
731.6650, 10457.00
732.8160, 10506.00
733.9680, 10472.00
735.1190, 10496.74
736.2700, 10465.00
737.4210, 10507.00
738.5710, 10535.00
739.7220, 10537.00
740.8720, 10527.00
742.0220, 10532.00
743.1720, 10579.00
744.3220, 10576.00
745.4720, 10543.00
746.6220, 10506.00
747.7710, 10529.00
748.9200, 10456.00
750.0690, 10532.00
751.2180, 10511.00
752.3670, 10491.00
753.5150, 10618.00
754.6640, 10613.00
755.8120, 10414.00
756.9600, 10464.00
758.1080, 10479.00
759.2560, 10398.00
760.4030, 10447.00
761.5510, 10269.34
762.6980, 10325.24
763.8450, 10358.76
764.9920, 10371.09
766.1390, 10298.81
767.2860, 10335.79
768.4320, 10328.98
769.5780, 10320.37
770.7250, 10381.00
771.8710, 10321.86
773.0160, 10366.93
774.1620, 10389.62
775.3070, 10391.13
776.4530, 10308.01
777.5980, 10334.17
778.7430, 10316.53
779.8880, 10297.10
781.0320, 10338.64
782.1770, 10267.84
783.3210, 10302.00
784.4650, 10353.00
785.6090, 10344.00
786.7530, 10320.26
787.8970, 10329.78
789.0410, 10295.00
790.1840, 10286.00
791.3270, 10349.00
792.4700, 10298.00
793.6130, 10304.00
794.7560, 10415.00
795.8980, 10407.00
797.0410, 10283.00
798.1830, 10328.00
799.3250, 10400.00
800.4670, 10278.00
801.6090, 10347.00
802.7500, 10421.00
803.8920, 10353.00
805.0330, 10314.00
806.1740, 10281.00
807.3150, 10243.00
808.4560, 10353.00
809.5960, 10469.00
810.7370, 10526.00
811.8770, 10368.00
813.0170, 10366.00
814.1570, 10395.00
815.2970, 10327.00
816.4360, 10372.00
817.5760, 10314.00
818.7150, 10335.00
819.8540, 10464.00
820.9930, 10232.00
822.1320, 10462.00
823.2700, 10366.00
824.4090, 10438.00
825.5470, 10345.00
826.6850, 10495.00
827.8230, 10356.00
828.9610, 10376.00
830.0990, 10469.00
831.2360, 10310.00
832.3730, 10390.00
833.5110, 10405.00
834.6480, 10378.00
835.7840, 10415.00
836.9210, 10415.00
838.0580, 10373.00
839.1940, 10385.00
840.3300, 10531.00
841.4660, 10405.00
842.6020, 10488.00
843.7370, 10395.00
844.8730, 10502.00
846.0080, 10479.00
847.1430, 10501.00
848.2780, 10508.00
849.4130, 10481.00
850.5480, 10491.00
851.6830, 10469.17
852.8170, 10424.00
853.9510, 10478.00
855.0850, 10508.00
856.2190, 10616.00
857.3530, 10504.00
858.4860, 10586.00
859.6190, 10469.00
860.7530, 10510.00
861.8860, 10528.00
863.0190, 10535.00
864.1510, 10634.00
865.2840, 10484.00
866.4160, 10512.00
867.5480, 10503.00
868.6800, 10609.00
869.8120, 10530.00
870.9440, 10595.00
872.0760, 10584.00
873.2070, 10523.00
874.3380, 10659.00
875.4690, 10586.00
876.6000, 10663.00
877.7310, 10666.00
878.8610, 10655.00
879.9920, 10591.00
881.1220, 10598.00
882.2520, 10655.00
883.3820, 10699.00
884.5120, 10587.00
885.6410, 10733.00
886.7710, 10606.87
887.9000, 10660.13
889.0290, 10691.00
890.1580, 10700.69
891.2870, 10625.76
892.4150, 10660.10
893.5440, 10650.65
894.6720, 10639.40
895.8000, 10689.12
896.9280, 10626.50
898.0550, 10675.25
899.1830, 10679.54
900.3100, 10677.00
901.4380, 10720.00
902.5650, 10729.00
903.6920, 10732.14
904.8180, 10797.00
905.9450, 10704.00
907.0710, 10658.00
908.1980, 10627.00
909.3240, 10804.00
910.4500, 10877.00
911.5750, 10789.00
912.7010, 10812.00
913.8260, 10812.00
914.9520, 10834.00
916.0770, 10884.00
917.2020, 10887.70
918.3260, 10884.33
919.4510, 10902.00
920.5750, 10874.00
921.7000, 10826.09
922.8240, 10873.00
923.9480, 10763.00
925.0720, 10800.00
926.1950, 11010.00
927.3190, 10819.00
928.4420, 10925.00
929.5650, 10912.00
930.6880, 10929.00
931.8110, 10951.00
932.9330, 10989.00
934.0560, 10986.00
935.1780, 11058.00
936.3000, 10882.00
937.4220, 11039.00
938.5440, 11067.00
939.6650, 10902.00
940.7870, 11015.00
941.9080, 10968.00
943.0290, 10937.00
944.1500, 10953.00
945.2710, 11031.00
946.3910, 10894.00
947.5120, 11011.00
948.6320, 11110.00
949.7520, 11106.00
950.8720, 10898.00
951.9920, 11069.00
953.1110, 10973.31
954.2310, 10974.00
955.3500, 10990.00
956.4690, 10915.00
957.5880, 10993.00
958.7070, 10965.00
959.8250, 11047.00
960.9440, 11021.00
962.0620, 11076.00
963.1800, 10988.00
964.2980, 11148.00
965.4160, 10982.00
966.5330, 11168.00
967.6510, 10994.00
968.7680, 11043.00
969.8850, 10988.00
971.0020, 11067.00
972.1190, 11106.00
973.2360, 11063.00
974.3520, 10912.00
975.4680, 11046.00
976.5840, 11046.00
977.7000, 11132.00
978.8160, 10967.00
979.9320, 11116.00
981.0470, 11089.00
982.1620, 10983.00
983.2770, 11090.00
984.3920, 11155.00
985.5070, 11126.00
986.6220, 11165.00
987.7360, 11071.00
988.8500, 10993.00
989.9640, 11036.00
991.0780, 11132.00
992.1920, 11145.00
993.3050, 11208.00
994.4190, 11203.25
995.5320, 11069.00
996.6450, 11197.00
997.7580, 11137.00
998.8710, 11186.00
999.9830, 11188.00
1001.096, 11061.00
1002.208, 11173.00
1003.320, 11110.00
1004.432, 11143.00
1005.544, 11002.00
1006.655, 11076.00
1007.767, 11121.00
1008.878, 11115.00
1009.989, 11302.00
1011.100, 11017.00
1012.211, 11239.00
1013.321, 11180.00
1014.431, 11004.00
1015.542, 11100.00
1016.652, 11143.00
1017.762, 11180.00
1018.871, 11214.00
1019.981, 11116.00
1021.090, 11191.00
1022.199, 11170.00
1023.308, 11085.00
1024.417, 11098.00
1025.526, 11085.50
1026.635, 11155.00
1027.743, 11124.00
1028.851, 11278.00
1029.959, 11342.00
1031.067, 11173.00
1032.175, 11376.00
1033.282, 11277.00
1034.390, 11250.00
1035.497, 11336.00
1036.604, 11201.00
1037.711, 11318.00
1038.817, 11269.00
1039.924, 11424.00
1041.030, 11409.00
1042.136, 11568.00
1043.242, 11407.00
1044.348, 11309.00
1045.454, 11415.00
1046.559, 11566.00
1047.665, 11387.00
1048.770, 11363.00
1049.875, 11493.00
1050.980, 11483.00
1052.084, 11519.29
1053.189, 11576.00
1054.293, 11564.00
1055.397, 11630.00
1056.501, 11649.00
1057.605, 11545.00
1058.709, 11703.00
1059.812, 11698.00
1060.915, 11732.00
1062.018, 11879.00
1063.121, 11952.00
1064.224, 11997.00
1065.327, 12028.82
1066.429, 12126.55
1067.532, 12190.85
1068.634, 12222.84
1069.736, 12159.14
1070.837, 12193.63
1071.939, 12173.25
1073.041, 12140.00
1074.142, 12156.67
1075.243, 12049.93
1076.344, 12043.52
1077.445, 11981.59
1078.545, 11904.00
1079.646, 11739.00
1080.746, 11825.83
1081.846, 11756.67
1082.946, 11840.00
1084.046, 11779.00
1085.145, 11570.00
1086.245, 11615.00
1087.344, 11555.00
1088.443, 11482.00
1089.542, 11481.00
1090.640, 11461.71
1091.739, 11651.00
1092.837, 11460.00
1093.936, 11619.00
1095.034, 11585.00
1096.132, 11576.18
1097.229, 11589.00
1098.327, 11588.00
1099.424, 11483.00
1100.521, 11439.00
1101.618, 11617.00
1102.715, 11461.00
1103.812, 11270.86
1104.908, 11311.62
1106.005, 11329.99
1107.101, 11327.19
1108.197, 11239.76
1109.293, 11261.61
1110.389, 11239.66
1111.484, 11359.00
1112.579, 11444.00
1113.675, 11495.00
1114.770, 11310.99
1115.864, 11339.79
1116.959, 11346.19
1118.053, 11331.43
1119.148, 11232.03
1120.242, 11241.92
1121.336, 11208.02
1122.430, 11408.00
1123.523, 11476.00
1124.617, 11343.00
1125.710, 11490.00
1126.803, 11288.00
1127.896, 11370.00
1128.989, 11425.00
1130.081, 11277.00
1131.174, 11361.00
1132.266, 11330.00
1133.358, 11367.00
1134.450, 11315.00
1135.542, 11439.00
1136.634, 11340.00
1137.725, 11507.00
1138.816, 11439.00
1139.907, 11260.00
1140.998, 11408.00
1142.089, 11519.00
1143.179, 11402.00
1144.270, 11357.00
1145.360, 11350.00
1146.450, 11365.00
1147.540, 11415.00
1148.630, 11597.00
1149.719, 11528.14
1150.809, 11552.14
1151.898, 11469.00
1152.987, 11482.00
1154.076, 11429.00
1155.164, 11435.00
1156.253, 11411.00
1157.341, 11391.00
1158.429, 11470.00
1159.517, 11452.00
1160.605, 11409.00
1161.693, 11507.00
1162.780, 11373.00
1163.868, 11504.00
1164.955, 11454.00
1166.042, 11543.00
1167.128, 11358.00
1168.215, 11424.00
1169.302, 11415.00
1170.388, 11491.00
1171.474, 11304.00
1172.560, 11458.00
1173.646, 11501.00
1174.731, 11313.00
1175.817, 11508.00
1176.902, 11460.00
1177.987, 11281.00
1179.072, 11536.00
1180.157, 11558.00
1181.241, 11405.00
1182.326, 11513.00
1183.410, 11265.43
1184.494, 11312.64
1185.578, 11337.46
1186.662, 11341.10
1187.745, 11260.13
1188.828, 11288.42
1189.912, 11272.92
1190.995, 11255.63
1192.078, 11299.30
1193.160, 11230.63
1194.243, 11273.34
1195.325, 11202.00
1196.407, 11426.00
1197.489, 11554.00
1198.571, 11263.00
1199.653, 11413.00
1200.734, 11342.00
1201.816, 11349.00
1202.897, 11377.00
1203.978, 11448.00
1205.058, 11428.00
1206.139, 11465.00
1207.220, 11444.00
1208.300, 11453.74
1209.380, 11425.00
1210.460, 11448.00
1211.540, 11352.00
1212.619, 11312.00
1213.699, 11299.00
1214.778, 11394.00
1215.857, 11471.00
1216.936, 11475.00
1218.015, 11373.00
1219.093, 11341.00
1220.172, 11356.00
1221.250, 11276.00
1222.328, 11307.00
1223.406, 11404.00
1224.483, 11252.00
1225.561, 11262.00
1226.638, 11407.00
1227.715, 11337.00
1228.792, 11378.00
1229.869, 11278.00
1230.946, 11360.00
1232.022, 11428.00
1233.099, 11344.00
1234.175, 11393.00
1235.251, 11506.00
1236.327, 11355.00
1237.402, 11217.00
1238.478, 11199.00
1239.553, 11349.00
1240.628, 11390.00
1241.703, 11401.00
1242.778, 11345.00
1243.852, 11360.00
1244.927, 11422.00
1246.001, 11426.00
1247.075, 11417.21
1248.149, 11408.08
1249.223, 11427.00
1250.296, 11418.02
1251.370, 11457.00
1252.443, 11429.00
1253.516, 11426.00
1254.589, 11449.00
1255.662, 11422.00
1256.734, 11401.00
1257.806, 11374.00
1258.879, 11374.24
1259.951, 11362.00
1261.023, 11385.00
1262.094, 11390.00
1263.166, 11407.00
1264.237, 11550.00
1265.308, 11459.20
1266.379, 11494.87
1267.450, 11393.00
1268.521, 11427.00
1269.591, 11490.00
1270.661, 11414.00
1271.731, 11314.00
1272.801, 11415.00
1273.871, 11327.00
1274.941, 11419.00
1276.010, 11361.00
1277.079, 11480.00
1278.148, 11407.00
1279.217, 11520.00
1280.286, 11348.00
1281.354, 11460.00
1282.423, 11386.00
1283.491, 11487.00
1284.559, 11547.00
1285.627, 11437.00
1286.695, 11530.00
1287.762, 11432.00
1288.829, 11500.00
1289.897, 11489.00
1290.964, 11577.00
1292.030, 11527.00
1293.097, 11448.00
1294.163, 11450.00
1295.230, 11522.00
1296.296, 11423.00
1297.362, 11383.00
1298.428, 11518.00
1299.493, 11536.00
1300.559, 11432.00
1301.624, 11391.00
1302.689, 11470.00
1303.754, 11380.00
1304.819, 11427.00
1305.883, 11369.00
1306.948, 11565.00
1308.012, 11566.00
1309.076, 11518.45
1310.140, 11611.00
1311.203, 11473.00
1312.267, 11300.00
1313.330, 11453.00
1314.393, 11425.00
1315.456, 11329.00
1316.519, 11394.00
1317.582, 11497.00
1318.644, 11538.00
1319.707, 11475.00
1320.769, 11366.00
1321.831, 11381.98
1322.892, 11381.00
1323.954, 11347.00
1325.015, 11420.00
1326.077, 11446.00
1327.138, 11384.00
1328.199, 11346.00
1329.259, 11446.00
1330.320, 11339.00
1331.380, 11367.00
1332.441, 11492.00
1333.501, 11465.00
1334.560, 11411.00
1335.620, 11365.07
1336.680, 11410.83
1337.739, 11434.22
1338.798, 11436.43
1339.857, 11354.01
1340.916, 11380.87
1341.975, 11363.94
1343.033, 11345.21
1344.091, 11387.45
1345.149, 11317.35
1346.207, 11358.62
1347.265, 11355.44
1348.323, 11372.60
1349.380, 11345.71
1350.437, 11401.22
1351.495, 11425.00
1352.551, 11406.00
1353.608, 11343.00
1354.665, 11308.00
1355.721, 11264.00
1356.777, 11325.00
1357.833, 11357.00
1358.889, 11355.62
1359.945, 11334.00
1361.000, 11406.00
1362.056, 11399.00
1363.111, 11447.24
1364.166, 11487.99
1365.221, 11506.36
1366.275, 11503.55
1367.330, 11416.12
1368.384, 11437.96
1369.438, 11416.02
1370.492, 11392.28
1371.546, 11429.51
1372.599, 11354.40
1373.653, 11390.66
1374.706, 11382.47
1375.759, 11384.00
1376.812, 11290.00
1377.865, 11430.00
1378.917, 11304.00
1379.969, 11434.00
1381.022, 11513.00
1382.074, 11288.00
1383.125, 11395.00
1384.177, 11401.00
1385.229, 11415.00
1386.280, 11434.00
1387.331, 11346.00
1388.382, 11484.00
1389.433, 11267.00
1390.483, 11433.00
1391.534, 11370.00
1392.584, 11254.00
1393.634, 11365.00
1394.684, 11463.00
1395.734, 11456.00
1396.783, 11451.39
1397.833, 11325.00
1398.882, 11350.00
1399.931, 11295.00
1400.980, 11288.00
1402.028, 11359.00
1403.077, 11424.00
1404.125, 11323.00
1405.173, 11273.00
1406.221, 11301.91
1407.269, 11320.00
1408.317, 11279.00
1409.364, 11390.00
1410.412, 11300.00
1411.459, 11419.00
1412.506, 11506.00
1413.552, 11337.00
1414.599, 11446.00
1415.645, 11437.00
1416.692, 11286.00
1417.738, 11425.00
1418.784, 11425.14
1419.829, 11334.58
1420.875, 11564.00
1421.920, 11272.00
1422.965, 11268.00
1424.010, 11427.00
1425.055, 11539.00
1426.100, 11311.00
1427.144, 11493.89
1428.188, 11416.95
1429.233, 11642.00
1430.277, 11367.00
1431.320, 11515.00
1432.364, 11479.00
1433.407, 11490.00
1434.451, 11469.00
1435.494, 11540.00
1436.536, 11538.00
1437.579, 11500.00
1438.622, 11516.00
1439.664, 11402.00
1440.706, 11432.46
1441.748, 11480.04
1442.790, 11505.24
1443.832, 11509.26
1444.873, 11428.66
1445.915, 11457.32
1446.956, 11442.20
1447.997, 11425.28
1449.037, 11469.33
1450.078, 11460.00
1451.118, 11479.97
1452.159, 11498.85
1453.199, 11465.00
1454.239, 11493.00
1455.278, 11525.00
1456.318, 11523.00
1457.357, 11485.00
1458.396, 11427.00
1459.435, 11458.00
1460.474, 11553.00
1461.513, 11459.00
1462.551, 11578.68
1463.590, 11525.79
1464.628, 11627.00
1465.666, 11561.00
1466.704, 11359.00
1467.741, 11573.00
1468.779, 11445.00
1469.816, 11501.00
1470.853, 11394.00
1471.890, 11444.00
1472.927, 11478.00
1473.963, 11434.00
1474.999, 11612.00
1476.036, 11580.27
1477.072, 11471.00
1478.108, 11613.00
1479.143, 11554.00
1480.179, 11522.00
1481.214, 11444.00
1482.249, 11432.91
1483.284, 11430.29
1484.319, 11407.00
1485.353, 11485.00
1486.388, 11495.00
1487.422, 11569.00
1488.456, 11504.00
1489.490, 11537.75
1490.524, 11557.00
1491.557, 11564.00
1492.591, 11521.00
1493.624, 11593.00
1494.657, 11518.00
1495.690, 11511.00
1496.722, 11521.66
1497.755, 11619.00
1498.787, 11550.00
1499.819, 11550.00
1500.851, 11635.00
1501.883, 11423.00
1502.915, 11496.00
1503.946, 11362.00
1504.977, 11634.00
1506.008, 11391.00
1507.039, 11540.30
1508.070, 11692.00
1509.101, 11684.00
1510.131, 11606.00
1511.161, 11636.00
1512.191, 11588.00
1513.221, 11502.00
1514.251, 11524.00
1515.280, 11531.00
1516.309, 11578.32
1517.339, 11561.09
1518.367, 11657.00
1519.396, 11584.00
1520.425, 11432.00
1521.453, 11525.00
1522.481, 11658.00
1523.510, 11572.00
1524.537, 11647.00
1525.565, 11552.00
1526.593, 11582.00
1527.620, 11611.00
1528.647, 11499.00
1529.674, 11567.58
1530.701, 11536.84
1531.728, 11622.00
1532.754, 11531.00
1533.780, 11575.00
1534.807, 11566.00
1535.832, 11566.00
1536.858, 11562.00
1537.884, 11641.00
1538.909, 11633.00
1539.934, 11626.00
1540.959, 11623.00
1541.984, 11618.78
1543.009, 11643.81
1544.034, 11646.68
1545.058, 11696.00
1546.082, 11683.89
1547.106, 11692.00
1548.130, 11729.00
1549.153, 11830.00
1550.177, 11895.00
1551.200, 12050.00
1552.223, 12167.00
1553.246, 12418.00
1554.269, 12096.00
1555.291, 11822.00
1556.314, 11634.00
1557.336, 11691.00
1558.358, 11591.00
1559.380, 11811.00
1560.402, 11625.00
1561.423, 11578.00
1562.444, 11482.00
1563.466, 11634.00
1564.486, 11716.00
1565.507, 11563.00
1566.528, 11571.00
1567.548, 11636.84
1568.569, 11600.54
1569.589, 11699.00
1570.609, 11692.00
1571.628, 11698.03
1572.648, 11612.00
1573.667, 11701.00
1574.686, 11632.00
1575.705, 11633.00
1576.724, 11576.00
##END=



