##NAMES=Groutite
##RRUFFID=R080004
##IDEAL CHEMISTRY=Mn^3+^O(OH)
##LOCALITY=Roberts mine, Crosby, Minnesota, USA
##OWNER=RRUFF
##SOURCE=Michael Scott
##DESCRIPTION=Black crystalline and in some cases striated.
##STATUS=The identification of this mineral has been confirmed by single-crystal X-ray diffraction.
##URL=rruff.info/R080004
##PIN_ID=M01823
##ORIENTATION=Laser parallel to a* (1 0 0). Fiducial mark perpendicular to laser is parallel to b [0 1 0]
80.91200, 13963.00
82.15000, 14006.00
83.38800, 14034.00
84.62600, 13944.00
85.86300, 13674.00
87.10100, 13412.00
88.33800, 13669.00
89.57500, 13988.00
90.81200, 14448.00
92.04900, 14716.00
93.28600, 14830.00
94.52300, 14471.00
95.75900, 14704.00
96.99500, 14320.00
98.23100, 14408.00
99.46700, 14760.00
100.7030, 14553.00
101.9390, 14843.00
103.1740, 15675.00
104.4090, 15486.00
105.6440, 15748.00
106.8790, 15973.00
108.1140, 15886.00
109.3490, 15801.00
110.5830, 15776.00
111.8180, 16050.00
113.0520, 16946.00
114.2860, 19482.00
115.5200, 21302.00
116.7530, 20887.00
117.9870, 19824.00
119.2200, 20490.00
120.4530, 24598.00
121.6860, 25626.00
122.9190, 22952.00
124.1520, 19109.00
125.3850, 15836.00
126.6170, 14245.00
127.8490, 13663.00
129.0810, 13642.00
130.3130, 13730.00
131.5450, 13627.00
132.7770, 13515.00
134.0080, 13476.00
135.2390, 13415.00
136.4710, 13313.00
137.7020, 13624.00
138.9320, 13795.00
140.1630, 13671.00
141.3930, 13546.00
142.6240, 13459.00
143.8540, 13388.19
145.0840, 13391.00
146.3140, 13329.00
147.5440, 13223.00
148.7730, 13277.00
150.0020, 13073.00
151.2320, 13160.00
152.4610, 13139.00
153.6900, 13284.00
154.9180, 13192.00
156.1470, 13061.00
157.3750, 13060.00
158.6040, 13098.00
159.8320, 12972.00
161.0600, 13095.00
162.2870, 12998.33
163.5150, 13225.00
164.7420, 12913.58
165.9700, 12979.09
167.1970, 13001.29
168.4240, 12982.46
169.6510, 12799.75
170.8770, 12828.69
172.1040, 12772.79
173.3300, 12871.10
174.5560, 12905.64
175.7820, 12899.15
177.0080, 12728.77
178.2340, 12770.02
179.4590, 12726.48
180.6850, 12679.44
181.9100, 12844.00
183.1350, 12605.74
184.3600, 12745.34
185.5850, 12793.00
186.8090, 12818.00
188.0340, 12918.00
189.2580, 12841.00
190.4820, 12849.00
191.7060, 12911.00
192.9300, 12923.39
194.1530, 12957.69
195.3770, 13044.00
196.6000, 13008.00
197.8230, 13056.00
199.0460, 13060.00
200.2690, 13263.00
201.4910, 13068.00
202.7140, 13288.00
203.9360, 13050.00
205.1580, 13077.00
206.3800, 13263.00
207.6020, 13201.00
208.8240, 13476.00
210.0450, 13564.00
211.2670, 13857.00
212.4880, 13976.69
213.7090, 13982.00
214.9300, 14264.00
216.1510, 14269.00
217.3710, 14429.00
218.5920, 14381.98
219.8120, 14379.96
221.0320, 14301.77
222.2520, 14149.75
223.4720, 13801.03
224.6910, 13631.32
225.9110, 13343.81
227.1300, 13147.00
228.3490, 13185.00
229.5680, 12999.00
230.7870, 13117.00
232.0050, 13279.00
233.2240, 12946.00
234.4420, 13065.00
235.6600, 12909.00
236.8780, 12925.00
238.0960, 12995.00
239.3140, 12849.00
240.5310, 13070.00
241.7490, 12893.00
242.9660, 12924.70
244.1830, 13089.00
245.4000, 13014.00
246.6160, 13026.00
247.8330, 13338.00
249.0490, 13180.00
250.2660, 13333.00
251.4820, 13539.00
252.6980, 13625.00
253.9130, 13837.00
255.1290, 14104.00
256.3440, 14296.00
257.5600, 14553.00
258.7750, 14642.00
259.9900, 15396.00
261.2040, 15676.00
262.4190, 16062.00
263.6330, 16113.00
264.8480, 16616.00
266.0620, 16854.00
267.2760, 16868.00
268.4900, 16904.00
269.7030, 16680.00
270.9170, 16376.00
272.1300, 16089.00
273.3430, 15662.00
274.5560, 15240.00
275.7690, 14799.00
276.9820, 14539.00
278.1940, 14279.00
279.4070, 14065.00
280.6190, 13878.00
281.8310, 13707.00
283.0430, 13694.00
284.2550, 13594.00
285.4660, 13328.00
286.6770, 13406.00
287.8890, 13453.00
289.1000, 13283.00
290.3110, 13321.00
291.5210, 13282.00
292.7320, 13265.93
293.9420, 13170.00
295.1530, 13241.00
296.3630, 13184.00
297.5730, 13035.00
298.7830, 13182.00
299.9920, 13114.00
301.2020, 13128.65
302.4110, 13107.00
303.6200, 13157.00
304.8290, 12960.00
306.0380, 12944.00
307.2470, 13048.00
308.4550, 13129.00
309.6630, 13149.00
310.8720, 13041.00
312.0800, 13208.00
313.2880, 13075.00
314.4950, 13068.00
315.7030, 13058.00
316.9100, 12969.00
318.1170, 13068.00
319.3240, 12961.00
320.5310, 13080.00
321.7380, 13198.00
322.9450, 13145.00
324.1510, 13003.00
325.3570, 13069.00
326.5630, 13084.92
327.7690, 13077.95
328.9750, 13253.00
330.1810, 13128.00
331.3860, 13198.00
332.5910, 13185.00
333.7960, 13136.00
335.0010, 13157.00
336.2060, 13200.00
337.4110, 13345.00
338.6150, 13254.00
339.8200, 13258.00
341.0240, 13290.00
342.2280, 13235.00
343.4320, 13337.00
344.6350, 13351.00
345.8390, 13335.00
347.0420, 13337.00
348.2450, 13120.64
349.4480, 13227.82
350.6510, 13291.65
351.8540, 13314.46
353.0560, 13173.37
354.2590, 13243.92
355.4610, 13229.64
356.6630, 13211.90
357.8650, 13264.29
359.0670, 13391.00
360.2680, 13356.00
361.4700, 13403.00
362.6710, 13498.00
363.8720, 13376.00
365.0730, 13634.00
366.2740, 13591.00
367.4740, 13659.00
368.6750, 14006.00
369.8750, 13949.01
371.0750, 14165.00
372.2750, 14082.00
373.4750, 14369.00
374.6740, 14450.00
375.8740, 14573.00
377.0730, 14916.00
378.2720, 15038.00
379.4710, 15237.00
380.6700, 15408.00
381.8690, 15567.00
383.0670, 15611.00
384.2660, 15449.64
385.4640, 15354.00
386.6620, 15198.96
387.8600, 15002.00
389.0570, 14787.00
390.2550, 14524.00
391.4520, 14280.00
392.6490, 14247.00
393.8460, 14007.00
395.0430, 14017.00
396.2400, 14082.00
397.4370, 13950.00
398.6330, 13857.00
399.8290, 14004.00
401.0250, 14086.00
402.2210, 13889.00
403.4170, 13966.00
404.6130, 13764.00
405.8080, 13847.00
407.0030, 13794.00
408.1980, 13760.00
409.3930, 13802.00
410.5880, 13725.00
411.7830, 13775.00
412.9770, 13726.00
414.1720, 13818.00
415.3660, 13617.00
416.5600, 13742.47
417.7530, 13756.67
418.9470, 13838.00
420.1410, 13849.00
421.3340, 13804.00
422.5270, 13762.00
423.7200, 13802.16
424.9130, 13740.00
426.1060, 13790.00
427.2980, 13908.00
428.4900, 13740.00
429.6830, 13849.00
430.8750, 13801.00
432.0670, 13905.00
433.2580, 13838.00
434.4500, 14150.00
435.6410, 13881.00
436.8320, 13838.00
438.0240, 14152.00
439.2140, 14089.00
440.4050, 14001.00
441.5960, 13891.00
442.7860, 13986.00
443.9760, 13986.00
445.1670, 13972.00
446.3560, 14137.00
447.5460, 14100.00
448.7360, 14046.00
449.9250, 14151.00
451.1150, 14169.00
452.3040, 14100.89
453.4930, 14086.00
454.6810, 13992.00
455.8700, 14139.00
457.0590, 14166.00
458.2470, 14091.00
459.4350, 14173.08
460.6230, 14252.37
461.8110, 14288.30
462.9980, 14283.23
464.1860, 14114.26
465.3730, 14156.93
466.5600, 14114.79
467.7470, 14573.00
468.9340, 14292.00
470.1210, 14425.00
471.3080, 14279.00
472.4940, 14467.00
473.6800, 14662.00
474.8660, 14679.00
476.0520, 14540.00
477.2380, 14783.00
478.4230, 14791.00
479.6090, 14742.00
480.7940, 14829.00
481.9790, 15035.00
483.1640, 15021.00
484.3490, 15127.30
485.5330, 15297.00
486.7180, 15235.00
487.9020, 15145.00
489.0860, 15195.00
490.2700, 15078.00
491.4540, 15204.00
492.6370, 15171.00
493.8210, 15197.00
495.0040, 15137.00
496.1870, 15127.95
497.3700, 15171.00
498.5530, 15124.00
499.7360, 15177.00
500.9180, 15283.00
502.1000, 15281.00
503.2830, 15330.00
504.4650, 15385.00
505.6460, 15739.00
506.8280, 15612.23
508.0100, 15733.91
509.1910, 15509.00
510.3720, 15800.00
511.5530, 15714.00
512.7340, 15820.00
513.9150, 15982.00
515.0950, 16112.00
516.2760, 16337.00
517.4560, 16363.00
518.6360, 16556.00
519.8160, 16525.00
520.9950, 17082.00
522.1750, 16916.00
523.3540, 17329.00
524.5340, 17575.00
525.7130, 17786.00
526.8920, 18116.00
528.0700, 18272.00
529.2490, 18688.00
530.4270, 19215.00
531.6060, 19504.00
532.7840, 20114.00
533.9620, 20498.00
535.1390, 21129.94
536.3170, 21604.00
537.4940, 22522.00
538.6720, 23103.00
539.8490, 23955.00
541.0260, 25134.00
542.2030, 26112.00
543.3790, 27158.00
544.5560, 28392.00
545.7320, 29721.00
546.9080, 30813.00
548.0840, 32400.00
549.2600, 33708.00
550.4360, 34549.00
551.6110, 35628.00
552.7860, 36628.00
553.9620, 37679.00
555.1370, 37924.73
556.3110, 38169.24
557.4860, 37915.00
558.6610, 37695.00
559.8350, 37027.00
561.0090, 36323.00
562.1830, 35644.00
563.3570, 35083.00
564.5310, 33893.37
565.7040, 33088.00
566.8780, 31583.00
568.0510, 30459.00
569.2240, 29512.00
570.3970, 28397.00
571.5700, 27772.00
572.7420, 27023.00
573.9150, 26073.01
575.0870, 25073.00
576.2590, 24545.00
577.4310, 23889.00
578.6030, 23613.00
579.7740, 23125.00
580.9460, 22783.00
582.1170, 22507.00
583.2880, 22146.00
584.4590, 21793.00
585.6300, 21482.00
586.8010, 21051.00
587.9710, 20521.00
589.1410, 20111.00
590.3110, 19713.00
591.4810, 19106.00
592.6510, 18898.73
593.8210, 18784.18
594.9900, 18626.46
596.1600, 18427.55
597.3290, 18064.92
598.4980, 17913.93
599.6670, 17678.12
600.8350, 17439.01
602.0040, 17317.80
603.1720, 17092.00
604.3400, 16909.00
605.5080, 16895.00
606.6760, 16720.00
607.8440, 16734.00
609.0120, 16448.00
610.1790, 16530.00
611.3460, 16308.00
612.5130, 16260.00
613.6800, 16245.00
614.8470, 16175.00
616.0130, 16167.00
617.1800, 16060.00
618.3460, 15927.00
619.5120, 15913.39
620.6780, 15883.39
621.8440, 15843.00
623.0090, 15914.00
624.1750, 15928.00
625.3400, 15929.00
626.5050, 15919.59
627.6700, 15991.00
628.8350, 15781.00
629.9990, 15948.00
631.1640, 15754.00
632.3280, 15764.00
633.4920, 15650.00
634.6560, 15748.00
635.8200, 15738.00
636.9840, 15529.00
638.1470, 15464.00
639.3100, 15480.00
640.4730, 15423.00
641.6360, 15311.00
642.7990, 15381.00
643.9620, 15384.00
645.1240, 15270.00
646.2870, 15248.00
647.4490, 15434.00
648.6110, 15208.00
649.7730, 15482.00
650.9340, 15306.00
652.0960, 15034.00
653.2570, 15258.00
654.4180, 15038.00
655.5790, 14979.00
656.7400, 15137.00
657.9010, 15125.00
659.0620, 14959.00
660.2220, 14894.00
661.3820, 14889.00
662.5420, 14880.00
663.7020, 14910.45
664.8620, 15019.00
666.0210, 14920.00
667.1810, 15018.00
668.3400, 14818.00
669.4990, 14851.00
670.6580, 14896.00
671.8170, 14940.00
672.9750, 14992.00
674.1340, 14863.00
675.2920, 15017.00
676.4500, 14627.00
677.6080, 14714.00
678.7660, 14658.00
679.9230, 14733.00
681.0810, 14783.00
682.2380, 14517.00
683.3950, 14636.00
684.5520, 14641.00
685.7090, 14605.00
686.8660, 14683.00
688.0220, 14671.00
689.1780, 14657.00
690.3340, 14664.79
691.4900, 14657.64
692.6460, 14642.00
693.8020, 14673.00
694.9570, 14704.69
696.1130, 14743.00
697.2680, 14615.00
698.4230, 14702.00
699.5780, 14435.00
700.7320, 14495.00
701.8870, 14663.00
703.0410, 14545.88
704.1950, 14840.00
705.3490, 14565.00
706.5030, 14609.00
707.6570, 14622.00
708.8110, 14632.00
709.9640, 14667.00
711.1170, 14883.00
712.2700, 14673.89
713.4230, 14807.00
714.5760, 14361.00
715.7280, 14577.00
716.8810, 14488.00
718.0330, 14563.00
719.1850, 14634.00
720.3370, 14591.00
721.4890, 14470.00
722.6400, 14503.00
723.7920, 14552.00
724.9430, 14655.00
726.0940, 14566.00
727.2450, 14621.00
728.3960, 14441.00
729.5460, 14641.00
730.6970, 14561.00
731.8470, 14552.00
732.9970, 14703.00
734.1470, 14477.00
735.2970, 14620.00
736.4460, 14638.00
737.5960, 14581.00
738.7450, 14512.00
739.8940, 14667.00
741.0430, 14572.00
742.1920, 14647.00
743.3410, 14632.21
744.4890, 14617.00
745.6370, 14635.00
746.7850, 14531.00
747.9330, 14639.00
749.0810, 14555.00
750.2290, 14583.00
751.3760, 14494.00
752.5240, 14674.00
753.6710, 14678.00
754.8180, 14462.00
755.9650, 14636.00
757.1110, 14646.00
758.2580, 14480.00
759.4040, 14587.00
760.5510, 14524.00
761.6970, 14651.00
762.8420, 14560.00
763.9880, 14677.00
765.1340, 14558.00
766.2790, 14587.00
767.4240, 14578.81
768.5690, 14759.00
769.7140, 14547.00
770.8590, 14490.00
772.0030, 14480.00
773.1480, 14717.00
774.2920, 14505.00
775.4360, 14649.00
776.5800, 14577.00
777.7240, 14567.00
778.8670, 14609.00
780.0110, 14540.40
781.1540, 14623.00
782.2970, 14465.00
783.4400, 14625.00
784.5830, 14597.00
785.7250, 14655.00
786.8680, 14688.62
788.0100, 14573.00
789.1520, 14650.00
790.2940, 14665.00
791.4360, 14518.00
792.5780, 14565.00
793.7190, 14528.00
794.8600, 14408.00
796.0010, 14548.00
797.1420, 14618.00
798.2830, 14421.00
799.4240, 14491.00
800.5640, 14418.00
801.7050, 14546.00
802.8450, 14669.00
803.9850, 14330.00
805.1250, 14498.00
806.2640, 14524.00
807.4040, 14542.00
808.5430, 14612.00
809.6820, 14608.00
810.8210, 14618.34
811.9600, 14615.93
813.0990, 14598.00
814.2370, 14575.00
815.3760, 14551.00
816.5140, 14535.00
817.6520, 14545.69
818.7900, 14622.00
819.9270, 14547.00
821.0650, 14522.00
822.2020, 14446.00
823.3390, 14573.00
824.4760, 14498.00
825.6130, 14935.00
826.7500, 14529.00
827.8870, 14663.00
829.0230, 14732.00
830.1590, 14470.00
831.2950, 14571.00
832.4310, 14475.00
833.5670, 14429.00
834.7030, 14558.00
835.8380, 14415.00
836.9730, 14417.00
838.1080, 14498.00
839.2430, 14631.00
840.3780, 14607.00
841.5130, 14576.00
842.6470, 14518.00
843.7810, 14544.00
844.9150, 14746.00
846.0490, 14571.00
847.1830, 14494.00
848.3170, 14642.00
849.4500, 14513.00
850.5830, 14630.00
851.7160, 14434.00
852.8490, 14606.00
853.9820, 14736.00
855.1150, 14540.00
856.2470, 14541.00
857.3800, 14434.81
858.5120, 14540.60
859.6440, 14603.03
860.7760, 14624.43
861.9070, 14481.95
863.0390, 14551.10
864.1700, 14535.43
865.3010, 14516.28
866.4320, 14615.21
867.5630, 14496.56
868.6940, 14593.62
869.8240, 14604.56
870.9540, 14545.44
872.0850, 14784.00
873.2150, 14631.00
874.3450, 14638.00
875.4740, 14841.00
876.6040, 14563.00
877.7330, 14691.00
878.8620, 14721.00
879.9910, 14705.00
881.1200, 14636.00
882.2490, 14733.00
883.3770, 14795.00
884.5060, 14612.00
885.6340, 14447.69
886.7620, 14563.77
887.8900, 14636.49
889.0180, 14668.20
890.1450, 14536.00
891.2730, 14615.45
892.4000, 14610.06
893.5270, 14601.21
894.6540, 14710.42
895.7810, 14602.06
896.9070, 14709.39
898.0340, 14730.62
899.1600, 14791.25
900.2860, 14707.70
901.4120, 14722.00
902.5380, 14710.00
903.6630, 14765.00
904.7890, 14780.00
905.9140, 14848.00
907.0390, 14657.00
908.1640, 14736.00
909.2890, 14781.00
910.4130, 14702.00
911.5380, 14814.00
912.6620, 14850.00
913.7860, 14906.00
914.9100, 14883.00
916.0340, 14927.00
917.1580, 14941.52
918.2810, 14936.09
919.4040, 14956.00
920.5280, 14923.00
921.6510, 14881.00
922.7730, 14844.00
923.8960, 14890.00
925.0180, 14926.00
926.1410, 14929.00
927.2630, 14780.00
928.3850, 14896.00
929.5070, 14757.64
930.6280, 14860.43
931.7500, 14919.87
932.8710, 14938.28
933.9920, 14792.81
935.1130, 14858.97
936.2340, 14840.31
937.3550, 14818.17
938.4760, 14914.11
939.5960, 14792.47
940.7160, 14886.54
941.8360, 14894.50
942.9560, 14941.86
944.0760, 14903.90
945.1950, 14892.28
946.3150, 15059.00
947.4340, 14960.00
948.5530, 14998.00
949.6720, 14935.00
950.7900, 14909.62
951.9090, 14916.14
953.0270, 14916.00
954.1460, 14914.68
955.2640, 14998.00
956.3820, 14919.00
957.4990, 14933.00
958.6170, 14920.00
959.7340, 15020.00
960.8520, 14971.00
961.9690, 15023.00
963.0860, 14992.00
964.2020, 14908.00
965.3190, 14977.00
966.4350, 14927.00
967.5520, 15033.00
968.6680, 14964.00
969.7840, 14916.00
970.8990, 14803.00
972.0150, 14979.00
973.1310, 14862.92
974.2460, 15010.85
975.3610, 14894.64
976.4760, 15030.46
977.5910, 15122.93
978.7050, 15174.35
979.8200, 15061.92
980.9340, 15161.08
982.0480, 14968.00
983.1620, 14913.00
984.2760, 15019.00
985.3900, 14956.00
986.5030, 15010.00
987.6160, 15027.00
988.7300, 14965.00
989.8430, 14976.79
990.9550, 15052.09
992.0680, 15084.01
993.1810, 15074.91
994.2930, 14901.95
995.4050, 14940.61
996.5170, 15072.00
997.6290, 15025.00
998.7410, 15048.00
999.8520, 15187.00
1000.964, 15041.00
1002.075, 15095.00
1003.186, 14936.00
1004.297, 15129.00
1005.407, 15044.00
1006.518, 15331.00
1007.628, 15035.00
1008.738, 15085.00
1009.848, 15103.00
1010.958, 14995.00
1012.068, 14962.00
1013.178, 15181.00
1014.287, 15109.00
1015.396, 15164.00
1016.505, 14913.00
1017.614, 15002.00
1018.723, 14984.60
1019.831, 14940.60
1020.940, 15054.00
1022.048, 14981.00
1023.156, 15001.00
1024.264, 15052.00
1025.372, 15141.00
1026.479, 15163.63
1027.587, 15099.00
1028.694, 15205.00
1029.801, 15210.00
1030.908, 15111.23
1032.015, 15220.84
1033.121, 15287.09
1034.228, 15312.33
1035.334, 15173.67
1036.440, 15246.64
1037.546, 15234.80
1038.652, 15251.00
1039.758, 15484.00
1040.863, 15389.53
1041.968, 15352.00
1043.074, 15301.00
1044.178, 15422.00
1045.283, 15269.00
1046.388, 15300.00
1047.492, 15155.00
1048.597, 15220.14
1049.701, 15355.00
1050.805, 15359.00
1051.909, 15395.00
1053.012, 15478.00
1054.116, 15393.00
1055.219, 15466.08
1056.322, 15386.00
1057.425, 15538.00
1058.528, 15581.00
1059.631, 15664.00
1060.733, 15756.00
1061.836, 15601.00
1062.938, 15647.00
1064.040, 15716.00
1065.142, 15639.00
1066.243, 15706.00
1067.345, 15613.00
1068.446, 15586.00
1069.547, 15650.00
1070.648, 15611.00
1071.749, 15627.29
1072.850, 15463.00
1073.951, 15633.00
1075.051, 15527.00
1076.151, 15522.36
1077.251, 15705.00
1078.351, 15391.00
1079.451, 15437.00
1080.550, 15565.00
1081.650, 15507.00
1082.749, 15371.00
1083.848, 15201.00
1084.947, 15407.00
1086.046, 15472.00
1087.144, 15361.00
1088.243, 15690.00
1089.341, 15485.09
1090.439, 15399.00
1091.537, 15390.00
1092.635, 15310.00
1093.732, 15544.00
1094.830, 15431.00
1095.927, 15414.00
1097.024, 15312.00
1098.121, 15343.00
1099.218, 15381.00
1100.314, 15334.00
1101.411, 15347.00
1102.507, 15327.69
1103.603, 15350.00
1104.699, 15298.00
1105.795, 15282.00
1106.890, 15298.00
1107.986, 15228.00
1109.081, 15394.00
1110.176, 15321.00
1111.271, 15393.00
1112.366, 15426.00
1113.461, 15370.00
1114.555, 15382.03
1115.649, 15233.00
1116.744, 15300.00
1117.838, 15277.00
1118.931, 15218.00
1120.025, 15462.00
1121.119, 15329.00
1122.212, 15357.00
1123.305, 15437.00
1124.398, 15331.00
1125.491, 15382.00
1126.584, 15521.00
1127.676, 15297.00
1128.768, 15232.00
1129.861, 15215.00
1130.953, 15307.00
1132.044, 15392.00
1133.136, 15341.00
1134.228, 15210.34
1135.319, 15296.92
1136.410, 15340.16
1137.501, 15342.37
1138.592, 15180.70
1139.683, 15230.65
1140.773, 15195.80
1141.864, 15157.46
1142.954, 15291.00
1144.044, 15232.00
1145.134, 15130.00
1146.224, 15385.00
1147.313, 15359.00
1148.402, 15296.00
1149.492, 15411.00
1150.581, 15214.00
1151.670, 15338.00
1152.758, 15285.00
1153.847, 15381.00
1154.935, 15325.00
1156.024, 15402.00
1157.112, 15320.00
1158.200, 15341.00
1159.287, 15317.00
1160.375, 15343.00
1161.462, 15161.37
1162.550, 15269.92
1163.637, 15335.11
1164.724, 15359.27
1165.810, 15219.54
1166.897, 15291.44
1167.983, 15278.52
1169.070, 15281.00
1170.156, 15353.00
1171.242, 15293.00
1172.327, 15243.00
1173.413, 15388.00
1174.499, 15277.00
1175.584, 15290.00
1176.669, 15310.00
1177.754, 15312.93
1178.839, 15395.00
1179.923, 15414.00
1181.008, 15484.00
1182.092, 15557.79
1183.176, 15579.98
1184.260, 15347.00
1185.344, 15512.90
1186.428, 15597.00
1187.511, 15276.00
1188.595, 15435.00
1189.678, 15342.00
1190.761, 15304.00
1191.843, 15381.00
1192.926, 15263.00
1194.009, 15357.00
1195.091, 15270.00
1196.173, 15255.00
1197.255, 15126.00
1198.337, 15318.00
1199.419, 15138.00
1200.500, 15340.00
1201.582, 15305.00
1202.663, 15243.00
1203.744, 15455.00
1204.825, 15285.00
1205.905, 15397.00
1206.986, 15216.00
1208.066, 15228.00
1209.146, 15368.00
1210.226, 15342.00
1211.306, 15297.00
1212.386, 15312.00
1213.466, 15305.00
1214.545, 15313.00
1215.624, 15336.00
1216.703, 15267.00
1217.782, 15218.00
1218.861, 15357.00
1219.939, 15244.00
1221.018, 15165.00
1222.096, 15280.00
1223.174, 15155.00
1224.252, 15210.00
1225.330, 15317.00
1226.407, 15363.00
1227.485, 15372.00
1228.562, 15311.00
1229.639, 15275.00
1230.716, 15280.00
1231.793, 15307.00
1232.869, 15392.00
1233.946, 15262.00
1235.022, 15319.00
1236.098, 15237.00
1237.174, 15292.00
1238.250, 15280.00
1239.325, 15263.00
1240.401, 15372.00
1241.476, 15293.00
1242.551, 15297.00
1243.626, 15268.00
1244.701, 15226.00
1245.776, 15275.00
1246.850, 15245.00
1247.924, 15268.00
1248.999, 15282.00
1250.073, 15237.00
1251.146, 15229.00
1252.220, 15217.47
1253.293, 15170.86
1254.367, 15208.87
1255.440, 15254.00
1256.513, 15293.00
1257.586, 15397.00
1258.658, 15288.00
1259.731, 15211.00
1260.803, 15303.00
1261.875, 15253.00
1262.947, 15316.00
1264.019, 15263.00
1265.091, 15302.00
1266.162, 15247.00
1267.234, 15251.00
1268.305, 15286.00
1269.376, 15205.00
1270.447, 15322.00
1271.517, 15216.00
1272.588, 15319.00
1273.658, 15282.00
1274.729, 15280.00
1275.799, 15155.00
1276.868, 15151.00
1277.938, 15226.00
1279.008, 15297.00
1280.077, 15339.00
1281.146, 15211.00
1282.215, 15250.00
1283.284, 15299.00
1284.353, 15150.00
1285.421, 15241.00
1286.490, 15252.46
1287.558, 15318.00
1288.626, 15283.00
1289.694, 15292.00
1290.762, 15135.00
1291.829, 15269.00
1292.897, 15358.00
1293.964, 15219.00
1295.031, 15319.00
1296.098, 15346.00
1297.165, 15115.00
1298.231, 15393.00
1299.298, 15322.00
1300.364, 15339.00
1301.430, 15394.00
1302.496, 15257.00
1303.562, 15392.00
1304.627, 15316.00
1305.693, 15203.00
1306.758, 15346.00
1307.823, 15222.00
1308.888, 15259.00
1309.953, 15349.00
1311.018, 15352.00
1312.082, 15333.00
1313.146, 15322.00
1314.210, 15368.00
1315.274, 15361.00
1316.338, 15331.54
1317.402, 15240.24
1318.465, 15322.00
1319.529, 15075.00
1320.592, 15202.00
1321.655, 15335.00
1322.718, 15075.00
1323.780, 15250.00
1324.843, 15209.00
1325.905, 15184.00
1326.967, 15133.00
1328.029, 15241.00
1329.091, 15348.00
1330.153, 15264.00
1331.214, 15124.00
1332.275, 15157.00
1333.337, 15246.00
1334.398, 15292.00
1335.458, 15369.00
1336.519, 15013.00
1337.580, 15266.20
1338.640, 15186.13
1339.700, 15457.00
1340.760, 15274.00
1341.820, 15214.00
1342.880, 15284.00
1343.939, 15316.00
1344.999, 15365.00
1346.058, 15339.72
1347.117, 15291.62
1348.176, 15307.00
1349.235, 15124.00
1350.293, 15192.00
1351.351, 15114.00
1352.410, 15187.00
1353.468, 15074.00
1354.526, 15282.00
1355.583, 15324.00
1356.641, 15155.00
1357.698, 15253.00
1358.756, 15266.00
1359.813, 15196.00
1360.869, 15148.00
1361.926, 15154.00
1362.983, 15088.00
1364.039, 15331.00
1365.095, 15242.00
1366.152, 15263.77
1367.207, 15198.00
1368.263, 15159.00
1369.319, 15311.00
1370.374, 15161.00
1371.430, 15228.00
1372.485, 15170.00
1373.540, 15238.00
1374.594, 15129.00
1375.649, 15227.00
1376.703, 15065.00
1377.758, 15171.00
1378.812, 15144.04
1379.866, 15143.43
1380.920, 15140.00
1381.973, 15178.00
1383.027, 15159.00
1384.080, 15135.00
1385.133, 15229.37
1386.186, 15220.18
1387.239, 15220.01
1388.291, 15283.00
1389.344, 15202.00
1390.396, 15209.00
1391.448, 15210.00
1392.500, 15162.35
1393.552, 15170.71
1394.604, 15138.00
1395.655, 15155.00
1396.707, 15212.00
1397.758, 15222.00
1398.809, 15211.00
1399.860, 15195.00
1400.910, 15153.00
1401.961, 15218.00
1403.011, 15323.00
1404.061, 15258.00
1405.111, 15243.00
1406.161, 15246.00
1407.211, 15137.00
1408.260, 15049.00
1409.310, 15113.18
1410.359, 15117.29
1411.408, 15242.00
1412.457, 15179.00
1413.506, 15267.00
1414.554, 15260.16
1415.603, 15241.04
1416.651, 15236.00
1417.699, 15210.00
1418.747, 15172.00
1419.794, 15163.00
1420.842, 15257.00
1421.889, 15106.43
1422.937, 15203.72
1423.984, 15257.66
1425.031, 15270.57
1426.077, 15119.60
1427.124, 15180.26
1428.170, 15156.11
1429.217, 15128.47
1430.263, 15218.92
1431.309, 15091.78
1432.354, 15180.36
1433.400, 15182.82
1434.445, 15224.70
1435.491, 15181.24
1436.536, 15164.13
1437.581, 15232.39
1438.625, 15253.39
1439.670, 15200.11
1440.714, 15244.49
1441.759, 15203.00
1442.803, 15130.00
1443.847, 15214.00
1444.890, 15327.00
1445.934, 15001.00
1446.978, 15131.00
1448.021, 15149.00
1449.064, 15199.00
1450.107, 15280.00
1451.150, 15192.00
1452.192, 15164.00
1453.235, 15345.00
1454.277, 15252.00
1455.319, 15138.00
1456.361, 15057.00
1457.403, 15133.00
1458.445, 15170.00
1459.486, 15299.00
1460.528, 15254.00
1461.569, 15088.00
1462.610, 15122.00
1463.651, 15293.00
1464.691, 15106.00
1465.732, 15185.00
1466.772, 15155.00
1467.812, 15096.00
1468.852, 15177.00
1469.892, 15002.00
1470.932, 15078.62
1471.971, 15176.73
1473.011, 15231.48
1474.050, 15245.22
1475.089, 15095.07
1476.128, 15156.54
1477.166, 15133.21
1478.205, 15106.40
1479.243, 15197.66
1480.282, 15071.35
1481.320, 15160.74
1482.357, 15164.02
1483.395, 15206.72
1484.433, 15164.08
1485.470, 15043.00
1486.507, 15261.00
1487.544, 15320.00
1488.581, 15327.00
1489.618, 15281.00
1490.655, 15289.53
1491.691, 15235.09
1492.727, 15237.00
1493.763, 15172.00
1494.799, 15151.00
1495.835, 15214.00
1496.871, 15144.00
1497.906, 15289.00
1498.941, 15316.00
1499.976, 15348.00
1501.011, 15148.00
1502.046, 15043.00
1503.081, 15129.48
1504.115, 15358.00
1505.149, 15260.00
1506.183, 15190.00
1507.217, 15177.00
1508.251, 15127.00
1509.285, 15237.00
1510.318, 15185.00
1511.352, 15198.00
1512.385, 15170.00
1513.418, 15201.00
1514.450, 15170.00
1515.483, 15279.00
1516.516, 15099.00
1517.548, 15406.00
1518.580, 15324.00
1519.612, 15213.00
1520.644, 15593.00
1521.675, 15469.00
1522.707, 15243.00
1523.738, 15211.00
1524.769, 15296.00
1525.800, 15173.00
1526.831, 15424.00
1527.862, 15225.25
1528.892, 15366.00
1529.923, 15240.00
1530.953, 15274.00
1531.983, 15283.83
1533.013, 15432.00
1534.042, 15275.00
1535.072, 15259.00
1536.101, 15246.00
1537.131, 15197.25
1538.160, 15291.00
1539.188, 15194.00
1540.217, 15131.00
1541.246, 15138.00
1542.274, 15231.00
1543.302, 15223.00
1544.330, 15229.00
1545.358, 15175.00
1546.386, 15287.00
1547.413, 15281.00
1548.441, 15265.00
1549.468, 15519.00
1550.495, 15570.86
1551.522, 15681.00
1552.549, 15826.00
1553.575, 15775.75
1554.602, 15712.96
1555.628, 15634.00
1556.654, 15474.00
1557.680, 15253.00
1558.706, 15257.00
1559.731, 15257.00
1560.757, 15343.00
1561.782, 15171.00
1562.807, 15237.00
1563.832, 15266.00
1564.857, 15429.00
1565.881, 15576.00
1566.906, 15309.00
1567.930, 15155.00
1568.954, 15304.00
1569.978, 15326.00
1571.002, 15155.00
1572.025, 15243.00
1573.049, 15255.00
1574.072, 15055.00
1575.095, 15205.00
1576.118, 15203.00
##END=



