##NAMES=Groutite
##RRUFFID=R080004
##IDEAL CHEMISTRY=Mn^3+^O(OH)
##LOCALITY=Roberts mine, Crosby, Minnesota, USA
##OWNER=RRUFF
##SOURCE=Michael Scott
##DESCRIPTION=Black crystalline and in some cases striated.
##STATUS=The identification of this mineral has been confirmed by single-crystal X-ray diffraction.
##URL=rruff.info/R080004
##PIN_ID=M01823
##ORIENTATION=Laser parallel to a* (1 0 0). Fiducial mark perpendicular to laser is parallel to b [0 1 0]
80.91200, 13532.00
82.15000, 13552.00
83.38800, 13926.00
84.62600, 14641.00
85.86300, 15154.00
87.10100, 14198.00
88.33800, 14616.00
89.57500, 14808.00
90.81200, 15385.00
92.04900, 15986.00
93.28600, 16083.00
94.52300, 16023.00
95.75900, 15912.00
96.99500, 15790.00
98.23100, 15672.00
99.46700, 15779.00
100.7030, 15617.87
101.9390, 16034.00
103.1740, 15666.00
104.4090, 15549.59
105.6440, 15819.40
106.8790, 16045.85
108.1140, 16231.28
109.3490, 16252.83
110.5830, 16485.86
111.8180, 16634.23
113.0520, 16778.97
114.2860, 17437.00
115.5200, 18726.00
116.7530, 20633.00
117.9870, 21863.00
119.2200, 21973.00
120.4530, 24787.00
121.6860, 29737.00
122.9190, 32468.00
124.1520, 28442.00
125.3850, 23220.00
126.6170, 18426.00
127.8490, 15700.00
129.0810, 14866.00
130.3130, 14859.00
131.5450, 14469.00
132.7770, 14527.00
134.0080, 14195.79
135.2390, 14363.26
136.4710, 14444.00
137.7020, 14442.72
138.9320, 14113.70
140.1630, 14207.90
141.3930, 14132.51
142.6240, 14050.13
143.8540, 14203.93
145.0840, 13922.58
146.3140, 14072.63
147.5440, 14050.48
148.7730, 14107.16
150.0020, 13993.18
151.2320, 13931.88
152.4610, 14041.34
153.6900, 14056.26
154.9180, 13922.66
156.1470, 13984.35
157.3750, 13697.09
158.6040, 13716.04
159.8320, 13867.14
161.0600, 14032.00
162.2870, 13777.00
163.5150, 13950.00
164.7420, 13871.88
165.9700, 14018.00
167.1970, 13710.00
168.4240, 13648.00
169.6510, 13601.00
170.8770, 13614.00
172.1040, 13748.00
173.3300, 13437.00
174.5560, 13416.00
175.7820, 13595.00
177.0080, 13542.00
178.2340, 13616.00
179.4590, 13485.00
180.6850, 13484.67
181.9100, 13523.00
183.1350, 13435.00
184.3600, 13489.71
185.5850, 13552.00
186.8090, 13496.00
188.0340, 13461.00
189.2580, 13576.00
190.4820, 13455.00
191.7060, 13489.00
192.9300, 13454.00
194.1530, 13447.00
195.3770, 13449.00
196.6000, 13504.00
197.8230, 13513.00
199.0460, 13484.00
200.2690, 13453.00
201.4910, 13618.00
202.7140, 13545.27
203.9360, 13592.00
205.1580, 13532.00
206.3800, 13606.00
207.6020, 13604.00
208.8240, 13787.00
210.0450, 13651.00
211.2670, 13651.00
212.4880, 13849.00
213.7090, 13903.00
214.9300, 14153.00
216.1510, 14048.97
217.3710, 13959.00
218.5920, 13825.00
219.8120, 14004.00
221.0320, 13862.00
222.2520, 13845.00
223.4720, 13701.00
224.6910, 13621.00
225.9110, 13500.00
227.1300, 13455.00
228.3490, 13429.84
229.5680, 13546.00
230.7870, 13338.00
232.0050, 13348.00
233.2240, 13100.00
234.4420, 13140.00
235.6600, 13361.00
236.8780, 13260.00
238.0960, 13218.00
239.3140, 13215.00
240.5310, 13275.00
241.7490, 13252.27
242.9660, 13305.00
244.1830, 13257.00
245.4000, 13256.00
246.6160, 13220.00
247.8330, 13223.00
249.0490, 13260.00
250.2660, 13287.00
251.4820, 13217.00
252.6980, 13404.00
253.9130, 13510.00
255.1290, 13406.00
256.3440, 13501.93
257.5600, 13464.00
258.7750, 13447.00
259.9900, 13722.00
261.2040, 13644.00
262.4190, 13905.00
263.6330, 13938.00
264.8480, 14088.00
266.0620, 14113.38
267.2760, 14294.00
268.4900, 14068.00
269.7030, 14041.00
270.9170, 13955.00
272.1300, 14100.00
273.3430, 13947.57
274.5560, 13839.00
275.7690, 13779.00
276.9820, 13617.00
278.1940, 13573.00
279.4070, 13491.19
280.6190, 13531.00
281.8310, 13410.00
283.0430, 13324.00
284.2550, 13373.00
285.4660, 13609.00
286.6770, 13332.00
287.8890, 13514.00
289.1000, 13429.00
290.3110, 13295.71
291.5210, 13384.45
292.7320, 13429.84
293.9420, 13434.21
295.1530, 13274.68
296.3630, 13326.79
297.5730, 13294.09
298.7830, 13257.91
299.9920, 13403.00
301.2020, 13366.00
302.4110, 13388.00
303.6200, 13486.00
304.8290, 13467.00
306.0380, 13355.00
307.2470, 13526.00
308.4550, 13430.00
309.6630, 13305.00
310.8720, 13514.00
312.0800, 13355.00
313.2880, 13423.00
314.4950, 13515.00
315.7030, 13413.00
316.9100, 13488.00
318.1170, 13272.22
319.3240, 13391.27
320.5310, 13466.96
321.7380, 13501.63
322.9450, 13372.42
324.1510, 13445.00
325.3570, 13466.00
326.5630, 13521.00
327.7690, 13440.00
328.9750, 13497.00
330.1810, 13720.00
331.3860, 13422.20
332.5910, 13535.74
333.7960, 13605.92
335.0010, 13635.09
336.2060, 13500.36
337.4110, 13577.27
338.6150, 13569.35
339.8200, 13557.96
341.0240, 13664.64
342.2280, 13723.00
343.4320, 13697.00
344.6350, 13668.00
345.8390, 13668.00
347.0420, 13654.00
348.2450, 13655.43
349.4480, 13657.15
350.6510, 13689.00
351.8540, 13665.00
353.0560, 13725.00
354.2590, 13730.00
355.4610, 13687.00
356.6630, 13760.99
357.8650, 13770.00
359.0670, 13831.00
360.2680, 13828.00
361.4700, 13809.00
362.6710, 13920.00
363.8720, 14075.00
365.0730, 14096.39
366.2740, 14270.06
367.4740, 14250.00
368.6750, 14505.00
369.8750, 14628.00
371.0750, 14642.00
372.2750, 15024.00
373.4750, 15282.00
374.6740, 15468.00
375.8740, 15876.00
377.0730, 16076.00
378.2720, 16373.00
379.4710, 16824.00
380.6700, 16839.00
381.8690, 16800.00
383.0670, 16585.00
384.2660, 16625.00
385.4640, 16452.00
386.6620, 16295.00
387.8600, 15955.78
389.0570, 15352.00
390.2550, 15185.00
391.4520, 15001.00
392.6490, 14807.00
393.8460, 14677.85
395.0430, 14687.88
396.2400, 14654.55
397.4370, 14580.20
398.6330, 14342.04
399.8290, 14315.50
401.0250, 14176.00
402.2210, 14299.00
403.4170, 14351.00
404.6130, 14250.00
405.8080, 14151.00
407.0030, 14065.00
408.1980, 14189.00
409.3930, 14098.00
410.5880, 14176.00
411.7830, 14334.00
412.9770, 14261.00
414.1720, 14075.00
415.3660, 14119.00
416.5600, 14145.00
417.7530, 14167.00
418.9470, 14268.00
420.1410, 14015.93
421.3340, 14126.41
422.5270, 14193.55
423.7200, 14219.66
424.9130, 14081.89
426.1060, 14155.74
427.2980, 14144.78
428.4900, 14130.33
429.6830, 14233.97
430.8750, 14120.03
432.0670, 14221.78
433.2580, 14237.42
434.4500, 14292.48
435.6410, 14262.20
436.8320, 14325.00
438.0240, 14235.00
439.2140, 14315.00
440.4050, 14314.00
441.5960, 14393.00
442.7860, 14383.00
443.9760, 14352.00
445.1670, 14507.00
446.3560, 14355.00
447.5460, 14559.00
448.7360, 14456.00
449.9250, 14555.00
451.1150, 14453.00
452.3040, 14541.00
453.4930, 14496.13
454.6810, 14560.00
455.8700, 14505.00
457.0590, 14501.00
458.2470, 14674.00
459.4350, 14460.00
460.6230, 14647.00
461.8110, 14637.00
462.9980, 14701.00
464.1860, 14564.00
465.3730, 14835.00
466.5600, 14856.00
467.7470, 14610.00
468.9340, 14829.00
470.1210, 14886.00
471.3080, 14861.00
472.4940, 14863.00
473.6800, 14912.24
474.8660, 15048.00
476.0520, 14997.00
477.2380, 15145.00
478.4230, 15201.00
479.6090, 15459.00
480.7940, 15409.00
481.9790, 15556.00
483.1640, 15641.00
484.3490, 15594.00
485.5330, 15630.00
486.7180, 15694.00
487.9020, 15676.00
489.0860, 15735.00
490.2700, 15741.00
491.4540, 15602.00
492.6370, 15772.00
493.8210, 15572.00
495.0040, 15563.00
496.1870, 15523.00
497.3700, 15521.00
498.5530, 15644.00
499.7360, 15502.00
500.9180, 15644.00
502.1000, 15519.00
503.2830, 15597.00
504.4650, 15625.00
505.6460, 15591.00
506.8280, 15644.00
508.0100, 15738.00
509.1910, 15594.00
510.3720, 15770.00
511.5530, 15796.00
512.7340, 15832.00
513.9150, 15806.00
515.0950, 16085.00
516.2760, 16037.12
517.4560, 16102.00
518.6360, 16193.00
519.8160, 16107.00
520.9950, 16330.00
522.1750, 16460.00
523.3540, 16505.00
524.5340, 16559.00
525.7130, 16779.54
526.8920, 16821.70
528.0700, 16929.10
529.2490, 17021.00
530.4270, 17168.00
531.6060, 17247.00
532.7840, 17524.00
533.9620, 17675.00
535.1390, 17769.00
536.3170, 17974.00
537.4940, 18295.00
538.6720, 18619.00
539.8490, 18915.00
541.0260, 19350.00
542.2030, 19676.18
543.3790, 20069.21
544.5560, 20455.00
545.7320, 20821.00
546.9080, 21284.00
548.0840, 21589.00
549.2600, 21852.00
550.4360, 22457.00
551.6110, 22876.00
552.7860, 22883.00
553.9620, 23049.00
555.1370, 23261.00
556.3110, 23237.00
557.4860, 23288.00
558.6610, 23276.00
559.8350, 23117.00
561.0090, 22896.00
562.1830, 22667.34
563.3570, 22282.00
564.5310, 22093.00
565.7040, 21712.00
566.8780, 21514.00
568.0510, 21149.00
569.2240, 21116.00
570.3970, 20736.00
571.5700, 20508.00
572.7420, 20137.00
573.9150, 20194.00
575.0870, 20213.00
576.2590, 20260.00
577.4310, 20254.12
578.6030, 20224.38
579.7740, 20244.00
580.9460, 20081.00
582.1170, 20090.00
583.2880, 19929.00
584.4590, 19833.00
585.6300, 19682.00
586.8010, 19435.00
587.9710, 19041.00
589.1410, 18770.00
590.3110, 18464.00
591.4810, 18239.19
592.6510, 17930.00
593.8210, 17772.00
594.9900, 17657.00
596.1600, 17247.00
597.3290, 17063.00
598.4980, 16975.00
599.6670, 16997.00
600.8350, 16756.00
602.0040, 16702.00
603.1720, 16431.00
604.3400, 16448.00
605.5080, 16492.00
606.6760, 16305.48
607.8440, 16253.94
609.0120, 16138.00
610.1790, 16046.00
611.3460, 16060.00
612.5130, 15986.37
613.6800, 15935.00
614.8470, 15933.00
616.0130, 15929.43
617.1800, 15893.41
618.3460, 15906.00
619.5120, 15912.00
620.6780, 15829.00
621.8440, 15779.00
623.0090, 15791.00
624.1750, 15839.00
625.3400, 15693.00
626.5050, 15786.00
627.6700, 15712.00
628.8350, 15799.00
629.9990, 15770.13
631.1640, 15701.00
632.3280, 15718.00
633.4920, 15726.00
634.6560, 15673.00
635.8200, 15640.00
636.9840, 15606.03
638.1470, 15555.00
639.3100, 15521.00
640.4730, 15572.00
641.6360, 15546.00
642.7990, 15467.96
643.9620, 15567.00
645.1240, 15373.00
646.2870, 15350.00
647.4490, 15510.00
648.6110, 15350.00
649.7730, 15427.00
650.9340, 15417.00
652.0960, 15299.00
653.2570, 15296.00
654.4180, 15364.00
655.5790, 15379.00
656.7400, 15362.00
657.9010, 15332.00
659.0620, 15351.00
660.2220, 15121.00
661.3820, 15274.00
662.5420, 15227.78
663.7020, 15145.00
664.8620, 15259.00
666.0210, 15209.00
667.1810, 15131.00
668.3400, 15122.00
669.4990, 15083.00
670.6580, 15130.00
671.8170, 15203.00
672.9750, 15017.00
674.1340, 15126.00
675.2920, 15079.00
676.4500, 15027.00
677.6080, 15007.00
678.7660, 15121.00
679.9230, 14990.00
681.0810, 15058.00
682.2380, 14929.71
683.3950, 15019.37
684.5520, 15065.68
685.7090, 15070.96
686.8660, 14912.36
688.0220, 14965.39
689.1780, 14933.61
690.3340, 14898.36
691.4900, 14981.18
692.6460, 14846.42
693.8020, 14927.36
694.9570, 14922.21
696.1130, 14956.46
697.2680, 15011.00
698.4230, 14988.00
699.5780, 14894.00
700.7320, 14959.00
701.8870, 14962.00
703.0410, 14953.13
704.1950, 14974.36
705.3490, 15002.00
706.5030, 14974.00
707.6570, 15049.00
708.8110, 15061.00
709.9640, 15092.00
711.1170, 15078.22
712.2700, 14866.00
713.4230, 15027.00
714.5760, 15014.00
715.7280, 15013.00
716.8810, 15133.00
718.0330, 15032.00
719.1850, 15014.00
720.3370, 14890.00
721.4890, 15009.00
722.6400, 14856.00
723.7920, 14941.00
724.9430, 14880.00
726.0940, 14952.00
727.2450, 14960.00
728.3960, 15045.00
729.5460, 14984.00
730.6970, 14848.42
731.8470, 14946.47
732.9970, 15001.17
734.1470, 15014.85
735.2970, 14864.64
736.4460, 14926.05
737.5960, 14902.66
738.7450, 14875.79
739.8940, 14966.99
741.0430, 14840.61
742.1920, 14929.94
743.3410, 14933.17
744.4890, 14975.80
745.6370, 14933.10
746.7850, 14916.75
747.9330, 14985.77
749.0810, 15007.52
750.2290, 14955.00
751.3760, 15000.14
752.5240, 14870.79
753.6710, 14894.55
754.8180, 14984.38
755.9650, 14936.15
757.1110, 14982.85
758.2580, 14993.39
759.4040, 14839.63
760.5510, 14971.61
761.6970, 14980.02
762.8420, 14990.00
763.9880, 14849.00
765.1340, 14919.86
766.2790, 14882.08
767.4240, 14945.00
768.5690, 14903.00
769.7140, 14891.80
770.8590, 15045.00
772.0030, 14885.00
773.1480, 14852.00
774.2920, 14814.00
775.4360, 14976.00
776.5800, 14958.00
777.7240, 14910.00
778.8670, 14935.00
780.0110, 14940.00
781.1540, 14996.61
782.2970, 15071.00
783.4400, 15091.00
784.5830, 14977.00
785.7250, 14878.00
786.8680, 14917.00
788.0100, 14855.00
789.1520, 14984.00
790.2940, 15023.00
791.4360, 15014.00
792.5780, 15002.00
793.7190, 14895.00
794.8600, 14947.00
796.0010, 14968.00
797.1420, 14906.53
798.2830, 14985.00
799.4240, 14884.00
800.5640, 14928.00
801.7050, 15022.00
802.8450, 14978.00
803.9850, 15062.00
805.1250, 15048.00
806.2640, 15006.00
807.4040, 14971.00
808.5430, 14881.00
809.6820, 14930.00
810.8210, 14862.73
811.9600, 14892.48
813.0990, 14822.00
814.2370, 14899.00
815.3760, 14934.54
816.5140, 14821.00
817.6520, 15112.00
818.7900, 15050.00
819.9270, 15087.00
821.0650, 15027.00
822.2020, 14985.00
823.3390, 14971.00
824.4760, 15064.00
825.6130, 15129.00
826.7500, 15100.46
827.8870, 15171.03
829.0230, 15017.00
830.1590, 15185.00
831.2950, 15060.00
832.4310, 14967.00
833.5670, 15041.00
834.7030, 15045.00
835.8380, 15028.00
836.9730, 15089.00
838.1080, 14955.00
839.2430, 14996.00
840.3780, 15016.00
841.5130, 15104.00
842.6470, 14911.00
843.7810, 15085.00
844.9150, 14972.00
846.0490, 14958.00
847.1830, 15127.00
848.3170, 15081.00
849.4500, 15039.00
850.5830, 15091.00
851.7160, 15149.00
852.8490, 14959.01
853.9820, 15065.37
855.1150, 15080.00
856.2470, 15050.00
857.3800, 15261.00
858.5120, 15139.00
859.6440, 15014.46
860.7760, 15125.24
861.9070, 15192.65
863.0390, 15219.06
864.1700, 15081.57
865.3010, 15155.71
866.4320, 15145.03
867.5630, 15130.88
868.6940, 15119.00
869.8240, 15075.00
870.9540, 15310.00
872.0850, 15194.00
873.2150, 15370.00
874.3450, 15144.00
875.4740, 15154.00
876.6040, 15211.00
877.7330, 15158.00
878.8620, 15339.00
879.9910, 15275.00
881.1200, 15368.00
882.2490, 15318.00
883.3770, 15308.00
884.5060, 15287.00
885.6340, 15237.56
886.7620, 15128.00
887.8900, 15163.00
889.0180, 15266.00
890.1450, 15275.00
891.2730, 15161.00
892.4000, 15302.00
893.5270, 15215.00
894.6540, 15361.00
895.7810, 15412.00
896.9070, 15252.00
898.0340, 15280.00
899.1600, 15274.00
900.2860, 15465.00
901.4120, 15326.00
902.5380, 15380.00
903.6630, 15296.00
904.7890, 15401.00
905.9140, 15388.00
907.0390, 15347.00
908.1640, 15586.00
909.2890, 15454.00
910.4130, 15483.00
911.5380, 15481.00
912.6620, 15420.00
913.7860, 15529.00
914.9100, 15434.00
916.0340, 15515.00
917.1580, 15569.00
918.2810, 15526.00
919.4040, 15477.00
920.5280, 15338.23
921.6510, 15458.31
922.7730, 15535.01
923.8960, 15570.71
925.0180, 15442.51
926.1410, 15525.96
927.2630, 15524.57
928.3850, 15519.71
929.5070, 15613.00
930.6280, 15493.00
931.7500, 15562.00
932.8710, 15561.00
933.9920, 15715.00
935.1130, 15546.00
936.2340, 15640.00
937.3550, 15553.42
938.4760, 15664.43
939.5960, 15732.08
940.7160, 15758.71
941.8360, 15621.46
942.9560, 15695.83
944.0760, 15685.39
945.1950, 15671.46
946.3150, 15775.62
947.4340, 15679.00
948.5530, 15619.00
949.6720, 15595.00
950.7900, 15635.00
951.9090, 15665.00
953.0270, 15585.00
954.1460, 15653.27
955.2640, 15628.98
956.3820, 15702.00
957.4990, 15670.00
958.6170, 15669.00
959.7340, 15665.34
960.8520, 15609.00
961.9690, 15627.00
963.0860, 15618.00
964.2020, 15619.00
965.3190, 15585.00
966.4350, 15585.00
967.5520, 15632.83
968.6680, 15652.10
969.7840, 15744.00
970.8990, 15750.00
972.0150, 15786.00
973.1310, 15826.00
974.2460, 15683.00
975.3610, 15851.00
976.4760, 15664.00
977.5910, 15724.00
978.7050, 15744.00
979.8200, 15766.00
980.9340, 15819.00
982.0480, 15675.00
983.1620, 15893.00
984.2760, 15706.00
985.3900, 15809.00
986.5030, 15828.00
987.6160, 15941.00
988.7300, 15900.00
989.8430, 15756.00
990.9550, 15822.00
992.0680, 15756.63
993.1810, 15853.00
994.2930, 15800.00
995.4050, 15834.00
996.5170, 16004.00
997.6290, 15818.00
998.7410, 15908.00
999.8520, 15911.00
1000.964, 16020.00
1002.075, 16075.00
1003.186, 15900.00
1004.297, 15793.00
1005.407, 15974.00
1006.518, 16034.00
1007.628, 15915.00
1008.738, 15995.00
1009.848, 15917.00
1010.958, 15909.00
1012.068, 15868.00
1013.178, 15962.00
1014.287, 16010.00
1015.396, 15832.00
1016.505, 15980.00
1017.614, 15889.00
1018.723, 15825.00
1019.831, 15890.00
1020.940, 15784.00
1022.048, 15865.00
1023.156, 15954.00
1024.264, 15750.00
1025.372, 15934.00
1026.479, 15880.00
1027.587, 15929.00
1028.694, 15928.00
1029.801, 15961.00
1030.908, 16088.00
1032.015, 16131.00
1033.121, 16185.00
1034.228, 16142.00
1035.334, 16171.00
1036.440, 16245.00
1037.546, 16251.00
1038.652, 16329.20
1039.758, 16276.00
1040.863, 16516.00
1041.968, 16280.00
1043.074, 16454.00
1044.178, 16453.00
1045.283, 16311.00
1046.388, 16355.00
1047.492, 16657.00
1048.597, 16599.00
1049.701, 16492.00
1050.805, 16431.00
1051.909, 16804.00
1053.012, 16699.00
1054.116, 17043.92
1055.219, 17220.23
1056.322, 17353.20
1057.425, 17445.14
1058.528, 17373.18
1059.631, 17512.87
1060.733, 17567.67
1061.836, 17362.00
1062.938, 17651.00
1064.040, 17751.00
1065.142, 17546.00
1066.243, 17213.00
1067.345, 17307.00
1068.446, 17358.00
1069.547, 17069.00
1070.648, 16963.00
1071.749, 17010.00
1072.850, 17120.00
1073.951, 16815.00
1075.051, 16731.00
1076.151, 16782.00
1077.251, 16597.77
1078.351, 16682.00
1079.451, 16722.88
1080.550, 16722.76
1081.650, 16558.73
1082.749, 16606.35
1083.848, 16569.15
1084.947, 16528.47
1086.046, 16605.87
1087.144, 16465.71
1088.243, 16541.23
1089.341, 16530.67
1090.439, 16559.51
1091.537, 16503.02
1092.635, 16464.00
1093.732, 16474.00
1094.830, 16792.00
1095.927, 16591.12
1097.024, 16597.00
1098.121, 16455.00
1099.218, 16374.00
1100.314, 16428.00
1101.411, 16518.00
1102.507, 16398.00
1103.603, 16548.00
1104.699, 16365.00
1105.795, 16353.00
1106.890, 16472.00
1107.986, 16388.00
1109.081, 16231.00
1110.176, 16357.00
1111.271, 16202.00
1112.366, 16457.00
1113.461, 16241.00
1114.555, 16303.00
1115.649, 16326.00
1116.744, 16269.00
1117.838, 16406.00
1118.931, 16339.00
1120.025, 16192.00
1121.119, 16253.00
1122.212, 16274.00
1123.305, 16299.00
1124.398, 16279.00
1125.491, 16416.00
1126.584, 16285.00
1127.676, 16309.00
1128.768, 16111.00
1129.861, 16332.00
1130.953, 16249.00
1132.044, 16275.00
1133.136, 16332.00
1134.228, 16036.00
1135.319, 16193.00
1136.410, 16141.00
1137.501, 16263.00
1138.592, 16203.00
1139.683, 16232.00
1140.773, 16066.00
1141.864, 16280.00
1142.954, 16332.00
1144.044, 16179.00
1145.134, 16122.00
1146.224, 16172.00
1147.313, 16177.00
1148.402, 16314.00
1149.492, 16227.00
1150.581, 16299.00
1151.670, 16390.00
1152.758, 16147.00
1153.847, 16330.00
1154.935, 16214.00
1156.024, 16191.00
1157.112, 16201.00
1158.200, 16310.00
1159.287, 16349.00
1160.375, 16217.00
1161.462, 16162.00
1162.550, 16136.00
1163.637, 16212.00
1164.724, 16175.00
1165.810, 16214.00
1166.897, 16152.00
1167.983, 16185.00
1169.070, 16311.00
1170.156, 16063.00
1171.242, 16283.00
1172.327, 16316.00
1173.413, 16144.00
1174.499, 16207.00
1175.584, 16202.00
1176.669, 16222.00
1177.754, 16236.00
1178.839, 15885.00
1179.923, 16347.00
1181.008, 16258.00
1182.092, 15995.00
1183.176, 16244.00
1184.260, 16197.00
1185.344, 16270.00
1186.428, 16003.00
1187.511, 16338.00
1188.595, 16041.00
1189.678, 16233.00
1190.761, 16086.00
1191.843, 16169.00
1192.926, 16138.00
1194.009, 16131.00
1195.091, 16270.00
1196.173, 16156.00
1197.255, 16123.00
1198.337, 16152.00
1199.419, 16039.00
1200.500, 16190.00
1201.582, 16168.00
1202.663, 16182.00
1203.744, 16103.00
1204.825, 16220.00
1205.905, 16090.00
1206.986, 16107.00
1208.066, 16033.00
1209.146, 16155.00
1210.226, 16152.00
1211.306, 16052.00
1212.386, 16147.00
1213.466, 16127.00
1214.545, 16048.00
1215.624, 16132.00
1216.703, 15999.00
1217.782, 16085.00
1218.861, 16164.00
1219.939, 16088.00
1221.018, 16274.00
1222.096, 16214.14
1223.174, 15973.00
1224.252, 16145.00
1225.330, 16215.00
1226.407, 16093.00
1227.485, 16088.00
1228.562, 15859.00
1229.639, 16157.00
1230.716, 16150.00
1231.793, 16107.00
1232.869, 16294.00
1233.946, 15941.00
1235.022, 16046.00
1236.098, 16169.00
1237.174, 16144.00
1238.250, 16229.00
1239.325, 16038.00
1240.401, 15873.00
1241.476, 16052.00
1242.551, 15998.00
1243.626, 16129.00
1244.701, 15980.00
1245.776, 16049.00
1246.850, 15915.00
1247.924, 16126.00
1248.999, 16058.00
1250.073, 15956.00
1251.146, 16122.00
1252.220, 16103.00
1253.293, 15943.00
1254.367, 15865.00
1255.440, 16131.00
1256.513, 16275.00
1257.586, 16042.00
1258.658, 16070.00
1259.731, 16093.00
1260.803, 16000.00
1261.875, 15986.00
1262.947, 16067.00
1264.019, 15946.00
1265.091, 15912.00
1266.162, 16053.00
1267.234, 16180.00
1268.305, 16215.00
1269.376, 16216.00
1270.447, 15965.00
1271.517, 16013.00
1272.588, 15978.00
1273.658, 15957.00
1274.729, 15988.49
1275.799, 15960.00
1276.868, 16044.00
1277.938, 16059.18
1279.008, 16131.00
1280.077, 16059.00
1281.146, 15994.56
1282.215, 16093.93
1283.284, 16149.95
1284.353, 16164.95
1285.421, 16016.06
1286.490, 16078.79
1287.558, 16056.72
1288.626, 16031.16
1289.694, 16123.68
1290.762, 15998.63
1291.829, 16089.28
1292.897, 16093.82
1293.964, 16137.77
1295.031, 16096.39
1296.098, 16081.36
1297.165, 16151.70
1298.231, 16174.77
1299.298, 16123.56
1300.364, 16170.02
1301.430, 16041.98
1302.496, 16067.07
1303.562, 16158.21
1304.627, 16111.30
1305.693, 16159.31
1306.758, 16171.17
1307.823, 16018.72
1308.888, 16152.03
1309.953, 16161.75
1311.018, 16044.59
1312.082, 16168.10
1313.146, 16098.00
1314.210, 16179.00
1315.274, 16123.00
1316.338, 16145.40
1317.402, 16146.00
1318.465, 16151.00
1319.529, 16081.00
1320.592, 16157.00
1321.655, 15984.00
1322.718, 16033.93
1323.780, 16146.00
1324.843, 16080.00
1325.905, 16022.00
1326.967, 16125.00
1328.029, 16015.00
1329.091, 16023.00
1330.153, 15949.00
1331.214, 16094.00
1332.275, 16073.75
1333.337, 16092.00
1334.398, 16073.00
1335.458, 16154.00
1336.519, 15983.00
1337.580, 16064.00
1338.640, 15997.00
1339.700, 16107.00
1340.760, 16061.00
1341.820, 16123.00
1342.880, 15967.00
1343.939, 16085.00
1344.999, 16008.00
1346.058, 16131.00
1347.117, 16159.00
1348.176, 16203.00
1349.235, 16053.00
1350.293, 16087.00
1351.351, 16092.00
1352.410, 16181.00
1353.468, 16077.00
1354.526, 15968.00
1355.583, 16191.00
1356.641, 16034.00
1357.698, 16085.00
1358.756, 16070.00
1359.813, 15938.00
1360.869, 16070.00
1361.926, 16154.00
1362.983, 16174.00
1364.039, 16093.00
1365.095, 16190.00
1366.152, 16081.00
1367.207, 16141.00
1368.263, 16087.00
1369.319, 16099.00
1370.374, 16043.00
1371.430, 15978.00
1372.485, 16096.00
1373.540, 16023.00
1374.594, 16148.00
1375.649, 16138.00
1376.703, 16147.00
1377.758, 16166.00
1378.812, 16167.00
1379.866, 16189.00
1380.920, 16098.00
1381.973, 16155.00
1383.027, 16132.00
1384.080, 16285.00
1385.133, 16063.00
1386.186, 16017.00
1387.239, 16137.17
1388.291, 16278.00
1389.344, 16199.00
1390.396, 16296.00
1391.448, 16015.00
1392.500, 16183.00
1393.552, 16105.00
1394.604, 16167.00
1395.655, 16134.00
1396.707, 16092.00
1397.758, 16325.00
1398.809, 16146.00
1399.860, 16223.00
1400.910, 16043.00
1401.961, 16069.00
1403.011, 16100.00
1404.061, 15979.00
1405.111, 16020.00
1406.161, 16232.00
1407.211, 15977.00
1408.260, 16086.01
1409.310, 16176.93
1410.359, 16224.50
1411.408, 16231.05
1412.457, 16073.72
1413.506, 16128.01
1414.554, 16097.49
1415.603, 16063.49
1416.651, 16147.58
1417.699, 16187.00
1418.747, 16141.00
1419.794, 16148.00
1420.842, 16039.00
1421.889, 16123.00
1422.937, 16209.00
1423.984, 16132.00
1425.031, 16170.00
1426.077, 16255.00
1427.124, 16188.00
1428.170, 16245.00
1429.217, 16241.00
1430.263, 16184.99
1431.309, 16220.73
1432.354, 16115.00
1433.400, 16183.00
1434.445, 16229.00
1435.491, 16128.00
1436.536, 16116.00
1437.581, 16128.15
1438.625, 16041.60
1439.670, 16145.41
1440.714, 16205.87
1441.759, 16225.31
1442.803, 16080.86
1443.847, 16148.04
1444.890, 16130.40
1445.934, 16109.29
1446.978, 16206.25
1448.021, 16085.63
1449.064, 16180.71
1450.107, 16189.69
1451.150, 16181.00
1452.192, 16165.19
1453.235, 16315.00
1454.277, 16193.00
1455.319, 16163.00
1456.361, 16133.00
1457.403, 16282.00
1458.445, 16271.00
1459.486, 16116.00
1460.528, 16360.00
1461.569, 16085.00
1462.610, 16169.00
1463.651, 16161.00
1464.691, 16192.00
1465.732, 16178.00
1466.772, 16197.00
1467.812, 16150.00
1468.852, 16150.38
1469.892, 16147.00
1470.932, 16120.00
1471.971, 16215.00
1473.011, 16210.00
1474.050, 16141.00
1475.089, 16254.00
1476.128, 16214.00
1477.166, 16243.00
1478.205, 16144.00
1479.243, 16263.00
1480.282, 16317.00
1481.320, 16336.00
1482.357, 16201.00
1483.395, 16222.00
1484.433, 16160.00
1485.470, 16157.00
1486.507, 16266.00
1487.544, 16282.00
1488.581, 16097.00
1489.618, 16221.00
1490.655, 16354.00
1491.691, 16176.00
1492.727, 16195.00
1493.763, 16143.00
1494.799, 16387.00
1495.835, 16129.00
1496.871, 16308.00
1497.906, 16411.00
1498.941, 16385.00
1499.976, 16208.00
1501.011, 16242.00
1502.046, 16328.00
1503.081, 16068.00
1504.115, 16295.00
1505.149, 16511.00
1506.183, 16208.00
1507.217, 16192.00
1508.251, 16144.00
1509.285, 16325.00
1510.318, 16212.00
1511.352, 16267.00
1512.385, 16415.00
1513.418, 16313.00
1514.450, 16436.17
1515.483, 16415.29
1516.516, 16510.00
1517.548, 16386.00
1518.580, 16315.00
1519.612, 16278.00
1520.644, 16375.00
1521.675, 16287.00
1522.707, 16352.00
1523.738, 16280.00
1524.769, 16259.00
1525.800, 16335.00
1526.831, 16423.00
1527.862, 16326.00
1528.892, 16395.00
1529.923, 16394.00
1530.953, 16256.00
1531.983, 16265.00
1533.013, 16484.00
1534.042, 16159.00
1535.072, 16378.00
1536.101, 16243.00
1537.131, 16183.00
1538.160, 16234.00
1539.188, 16408.00
1540.217, 16411.00
1541.246, 16389.00
1542.274, 16245.00
1543.302, 16463.00
1544.330, 16186.00
1545.358, 16362.00
1546.386, 16316.00
1547.413, 16378.00
1548.441, 16536.00
1549.468, 16517.50
1550.495, 16691.67
1551.522, 16699.00
1552.549, 16861.00
1553.575, 17167.00
1554.602, 17016.00
1555.628, 16921.00
1556.654, 16315.00
1557.680, 16504.00
1558.706, 16473.00
1559.731, 16379.00
1560.757, 16392.00
1561.782, 16227.00
1562.807, 16399.00
1563.832, 16394.00
1564.857, 16319.00
1565.881, 16350.94
1566.906, 16435.77
1567.930, 16477.27
1568.954, 16477.74
1569.978, 16314.32
1571.002, 16362.54
1572.025, 16325.95
1573.049, 16285.88
1574.072, 16363.89
1575.095, 16224.32
1576.118, 16300.46
##END=



