##NAMES=Groutite
##RRUFFID=R080004
##IDEAL CHEMISTRY=Mn^3+^O(OH)
##LOCALITY=Roberts mine, Crosby, Minnesota, USA
##OWNER=RRUFF
##SOURCE=Michael Scott
##DESCRIPTION=Black crystalline and in some cases striated.
##STATUS=The identification of this mineral has been confirmed by single-crystal X-ray diffraction.
##URL=rruff.info/R080004
##PIN_ID=M01041
##ORIENTATION=Laser parallel to c* (0 0 1). Fiducial mark perpendicular to laser is parallel to -a [-1 0 0]
101.9390, 15445.00
103.1740, 15579.00
104.4090, 15678.00
105.6440, 16200.00
106.8790, 16436.00
108.1140, 16463.00
109.3490, 16810.00
110.5830, 18097.00
111.8180, 19591.00
113.0520, 19504.96
114.2860, 21099.00
115.5200, 19697.00
116.7530, 18950.00
117.9870, 18826.00
119.2200, 18635.00
120.4530, 17636.00
121.6860, 16203.00
122.9190, 15593.00
124.1520, 15488.00
125.3850, 15272.00
126.6170, 15008.00
127.8490, 14932.00
129.0810, 15007.00
130.3130, 15163.00
131.5450, 15062.00
132.7770, 15068.00
134.0080, 15009.00
135.2390, 15109.00
136.4710, 15576.00
137.7020, 15714.00
138.9320, 15708.00
140.1630, 15875.00
141.3930, 16011.00
142.6240, 16280.00
143.8540, 16138.00
145.0840, 16350.12
146.3140, 16654.00
147.5440, 16465.00
148.7730, 16346.00
150.0020, 16215.00
151.2320, 16063.00
152.4610, 15902.00
153.6900, 15702.00
154.9180, 15622.00
156.1470, 15304.00
157.3750, 15245.00
158.6040, 15067.00
159.8320, 14941.00
161.0600, 14720.00
162.2870, 14640.71
163.5150, 14623.00
164.7420, 14468.00
165.9700, 14432.00
167.1970, 14371.00
168.4240, 14514.00
169.6510, 14537.00
170.8770, 14490.00
172.1040, 14405.00
173.3300, 14377.00
174.5560, 14281.00
175.7820, 14396.00
177.0080, 14221.00
178.2340, 14350.00
179.4590, 14298.00
180.6850, 14208.00
181.9100, 14210.00
183.1350, 14204.00
184.3600, 14324.00
185.5850, 14404.00
186.8090, 14454.00
188.0340, 14352.00
189.2580, 14340.00
190.4820, 14455.00
191.7060, 14248.00
192.9300, 14329.00
194.1530, 14426.00
195.3770, 14377.00
196.6000, 14448.00
197.8230, 14329.09
199.0460, 14405.61
200.2690, 14453.72
201.4910, 14474.95
202.7140, 14388.80
203.9360, 14441.31
205.1580, 14438.24
206.3800, 14432.90
207.6020, 14504.92
208.8240, 14434.38
210.0450, 14505.17
211.2670, 14519.54
212.4880, 14559.73
213.7090, 14544.01
214.9300, 14545.55
216.1510, 14735.00
217.3710, 14698.00
218.5920, 14700.00
219.8120, 14719.00
221.0320, 14716.00
222.2520, 14596.00
223.4720, 14674.00
224.6910, 14578.00
225.9110, 14430.00
227.1300, 14670.00
228.3490, 14500.00
229.5680, 14594.00
230.7870, 14679.00
232.0050, 14596.00
233.2240, 14677.00
234.4420, 14676.00
235.6600, 14843.00
236.8780, 14964.00
238.0960, 14922.00
239.3140, 15001.00
240.5310, 15161.00
241.7490, 15229.67
242.9660, 15322.17
244.1830, 15539.00
245.4000, 15684.00
246.6160, 15912.00
247.8330, 16093.26
249.0490, 16277.00
250.2660, 16503.00
251.4820, 16526.00
252.6980, 16769.00
253.9130, 17051.00
255.1290, 17445.00
256.3440, 17418.00
257.5600, 17417.00
258.7750, 17449.00
259.9900, 17316.05
261.2040, 17277.00
262.4190, 17006.00
263.6330, 16895.00
264.8480, 16629.00
266.0620, 16540.00
267.2760, 16444.00
268.4900, 16244.10
269.7030, 16134.00
270.9170, 15957.00
272.1300, 15737.00
273.3430, 15648.00
274.5560, 15466.00
275.7690, 15477.00
276.9820, 15610.00
278.1940, 15558.00
279.4070, 15642.00
280.6190, 15563.00
281.8310, 15494.00
283.0430, 15553.00
284.2550, 15637.00
285.4660, 15642.00
286.6770, 15600.00
287.8890, 15569.00
289.1000, 15375.00
290.3110, 15414.00
291.5210, 15294.00
292.7320, 15317.00
293.9420, 15316.00
295.1530, 15221.00
296.3630, 15404.00
297.5730, 15426.00
298.7830, 15386.00
299.9920, 15161.00
301.2020, 15247.00
302.4110, 15217.00
303.6200, 15421.00
304.8290, 15270.00
306.0380, 15203.00
307.2470, 15269.00
308.4550, 15368.00
309.6630, 15359.00
310.8720, 15412.00
312.0800, 15428.55
313.2880, 15444.39
314.4950, 15447.51
315.7030, 15463.00
316.9100, 15485.00
318.1170, 15456.00
319.3240, 15582.00
320.5310, 15628.00
321.7380, 15486.00
322.9450, 15771.00
324.1510, 15716.00
325.3570, 15777.00
326.5630, 15909.00
327.7690, 15850.00
328.9750, 15782.00
330.1810, 15867.00
331.3860, 15935.00
332.5910, 16001.00
333.7960, 16069.00
335.0010, 16179.00
336.2060, 16176.91
337.4110, 16361.00
338.6150, 16243.00
339.8200, 16425.00
341.0240, 16592.00
342.2280, 16832.00
343.4320, 17010.91
344.6350, 17282.00
345.8390, 17433.00
347.0420, 17660.00
348.2450, 17910.00
349.4480, 18135.00
350.6510, 18485.91
351.8540, 19141.00
353.0560, 19312.00
354.2590, 19684.00
355.4610, 20316.00
356.6630, 20248.00
357.8650, 20406.00
359.0670, 20368.00
360.2680, 20142.00
361.4700, 19904.00
362.6710, 19594.04
363.8720, 19285.01
365.0730, 18756.00
366.2740, 18572.00
367.4740, 18036.00
368.6750, 17630.00
369.8750, 17648.00
371.0750, 17260.00
372.2750, 17337.00
373.4750, 17193.00
374.6740, 17171.00
375.8740, 17267.00
377.0730, 17048.00
378.2720, 17021.00
379.4710, 17208.00
380.6700, 17201.00
381.8690, 17300.00
383.0670, 17546.00
384.2660, 17530.00
385.4640, 17615.00
386.6620, 17562.00
387.8600, 17658.00
389.0570, 17655.00
390.2550, 17591.00
391.4520, 17538.00
392.6490, 17559.00
393.8460, 17163.00
395.0430, 17091.00
396.2400, 17046.00
397.4370, 16933.00
398.6330, 16883.00
399.8290, 16724.00
401.0250, 16849.00
402.2210, 16570.00
403.4170, 16600.00
404.6130, 16547.00
405.8080, 16690.00
407.0030, 16586.18
408.1980, 16831.00
409.3930, 16478.00
410.5880, 16445.00
411.7830, 16442.00
412.9770, 16490.00
414.1720, 16415.00
415.3660, 16494.00
416.5600, 16282.00
417.7530, 16299.00
418.9470, 16380.00
420.1410, 16480.00
421.3340, 16528.98
422.5270, 16511.42
423.7200, 16646.00
424.9130, 16455.00
426.1060, 16427.88
427.2980, 16473.00
428.4900, 16472.00
429.6830, 16454.00
430.8750, 16553.00
432.0670, 16294.00
433.2580, 16586.00
434.4500, 16525.00
435.6410, 16730.00
436.8320, 16658.00
438.0240, 16602.00
439.2140, 16554.00
440.4050, 16552.00
441.5960, 16631.00
442.7860, 16580.00
443.9760, 16763.00
445.1670, 16797.00
446.3560, 16775.00
447.5460, 16691.00
448.7360, 16621.00
449.9250, 16757.00
451.1150, 16785.00
452.3040, 16735.00
453.4930, 16850.33
454.6810, 16818.00
455.8700, 16949.00
457.0590, 16974.00
458.2470, 16968.00
459.4350, 17041.00
460.6230, 17348.00
461.8110, 17216.72
462.9980, 17256.21
464.1860, 17254.00
465.3730, 17094.00
466.5600, 17372.00
467.7470, 17310.00
468.9340, 17277.00
470.1210, 17534.00
471.3080, 17397.00
472.4940, 17658.00
473.6800, 17620.00
474.8660, 17582.00
476.0520, 17826.00
477.2380, 17796.00
478.4230, 17786.00
479.6090, 17948.00
480.7940, 17881.00
481.9790, 18060.00
483.1640, 18006.00
484.3490, 18267.00
485.5330, 18324.00
486.7180, 18572.00
487.9020, 18449.00
489.0860, 18645.00
490.2700, 18816.00
491.4540, 18718.00
492.6370, 18893.00
493.8210, 18772.00
495.0040, 19106.00
496.1870, 19095.00
497.3700, 19268.00
498.5530, 19626.00
499.7360, 19507.00
500.9180, 19857.00
502.1000, 19840.00
503.2830, 20144.00
504.4650, 20454.00
505.6460, 20767.00
506.8280, 21199.32
508.0100, 21538.00
509.1910, 22130.00
510.3720, 22618.00
511.5530, 23148.18
512.7340, 23693.00
513.9150, 24390.00
515.0950, 25103.00
516.2760, 26135.00
517.4560, 27100.00
518.6360, 28108.00
519.8160, 28834.00
520.9950, 29898.00
522.1750, 30913.00
523.3540, 32218.00
524.5340, 33073.00
525.7130, 33921.00
526.8920, 34793.00
528.0700, 35602.52
529.2490, 35991.40
530.4270, 36252.80
531.6060, 36388.64
532.7840, 36318.20
533.9620, 36287.66
535.1390, 36102.98
536.3170, 35817.16
537.4940, 35510.30
538.6720, 34961.87
539.8490, 34912.91
541.0260, 34991.00
542.2030, 35330.00
543.3790, 35248.00
544.5560, 36370.00
545.7320, 36604.00
546.9080, 37260.00
548.0840, 38288.00
549.2600, 38548.00
550.4360, 39836.00
551.6110, 40572.00
552.7860, 41377.00
553.9620, 42176.00
555.1370, 42785.00
556.3110, 42704.00
557.4860, 42489.00
558.6610, 42787.00
559.8350, 42788.00
561.0090, 41372.00
562.1830, 39515.00
563.3570, 37064.00
564.5310, 35492.00
565.7040, 33614.00
566.8780, 32461.00
568.0510, 30854.00
569.2240, 29483.00
570.3970, 28732.00
571.5700, 27566.00
572.7420, 26767.00
573.9150, 26099.00
575.0870, 25365.00
576.2590, 24689.00
577.4310, 24096.00
578.6030, 23783.00
579.7740, 23288.00
580.9460, 22725.11
582.1170, 22542.90
583.2880, 22332.29
584.4590, 22094.81
585.6300, 21749.95
586.8010, 21543.74
587.9710, 21282.19
589.1410, 21018.36
590.3110, 20965.00
591.4810, 20896.00
592.6510, 20824.46
593.8210, 20758.00
594.9900, 20758.00
596.1600, 20790.00
597.3290, 20809.82
598.4980, 20856.00
599.6670, 20811.00
600.8350, 20978.00
602.0040, 20910.00
603.1720, 21135.00
604.3400, 21275.00
605.5080, 21577.00
606.6760, 22007.00
607.8440, 22237.00
609.0120, 22814.33
610.1790, 23574.43
611.3460, 24306.12
612.5130, 25010.94
613.6800, 25608.38
614.8470, 26344.47
616.0130, 27024.41
617.1800, 27702.66
618.3460, 28528.00
619.5120, 29191.00
620.6780, 29715.00
621.8440, 30173.00
623.0090, 30036.00
624.1750, 30096.00
625.3400, 29335.00
626.5050, 29060.00
627.6700, 28327.00
628.8350, 27604.00
629.9990, 26601.00
631.1640, 26070.00
632.3280, 25594.00
633.4920, 24721.00
634.6560, 24032.00
635.8200, 23394.00
636.9840, 23002.00
638.1470, 22539.00
639.3100, 22148.00
640.4730, 21585.00
641.6360, 21085.00
642.7990, 21037.00
643.9620, 20598.00
645.1240, 20442.00
646.2870, 20151.00
647.4490, 19842.00
648.6110, 19716.00
649.7730, 19668.00
650.9340, 19460.00
652.0960, 19264.00
653.2570, 19244.00
654.4180, 19100.00
655.5790, 19029.00
656.7400, 18891.00
657.9010, 18724.00
659.0620, 18737.00
660.2220, 18583.00
661.3820, 18472.00
662.5420, 18475.01
663.7020, 18370.00
664.8620, 18430.00
666.0210, 18421.00
667.1810, 18375.00
668.3400, 18412.00
669.4990, 18331.64
670.6580, 18344.00
671.8170, 18228.00
672.9750, 18099.00
674.1340, 18104.00
675.2920, 18094.00
676.4500, 18056.00
677.6080, 18008.24
678.7660, 17925.00
679.9230, 17885.00
681.0810, 17850.00
682.2380, 17818.00
683.3950, 17867.00
684.5520, 17860.00
685.7090, 17946.00
686.8660, 17729.00
688.0220, 17866.00
689.1780, 17804.00
690.3340, 17966.00
691.4900, 17842.00
692.6460, 18073.00
693.8020, 17860.00
694.9570, 17843.00
696.1130, 17837.00
697.2680, 17744.00
698.4230, 17762.00
699.5780, 17774.00
700.7320, 17682.00
701.8870, 17870.00
703.0410, 17697.00
704.1950, 17630.00
705.3490, 17603.00
706.5030, 17775.00
707.6570, 17811.00
708.8110, 17872.00
709.9640, 17858.00
711.1170, 17928.00
712.2700, 17767.00
713.4230, 17842.00
714.5760, 17762.00
715.7280, 17949.00
716.8810, 17812.00
718.0330, 17872.00
719.1850, 17770.00
720.3370, 17779.00
721.4890, 17776.00
722.6400, 17893.00
723.7920, 17984.00
724.9430, 17948.00
726.0940, 17886.00
727.2450, 17945.00
728.3960, 17966.00
729.5460, 17866.00
730.6970, 17815.00
731.8470, 17793.00
732.9970, 17699.00
734.1470, 17693.83
735.2970, 17636.00
736.4460, 17617.00
737.5960, 17765.00
738.7450, 17661.97
739.8940, 17948.00
741.0430, 17748.00
742.1920, 17869.00
743.3410, 17870.00
744.4890, 17887.00
745.6370, 17837.00
746.7850, 17840.00
747.9330, 17954.00
749.0810, 17889.00
750.2290, 17860.00
751.3760, 17816.00
752.5240, 17949.00
753.6710, 17821.86
754.8180, 17864.00
755.9650, 17697.00
757.1110, 17802.00
758.2580, 17818.00
759.4040, 17946.00
760.5510, 17786.00
761.6970, 17809.00
762.8420, 17766.00
763.9880, 17684.00
765.1340, 17884.00
766.2790, 17776.00
767.4240, 17634.00
768.5690, 17845.00
769.7140, 17698.00
770.8590, 17788.00
772.0030, 17846.00
773.1480, 17658.00
774.2920, 17806.00
775.4360, 17752.33
776.5800, 18000.00
777.7240, 17710.00
778.8670, 17859.00
780.0110, 17735.00
781.1540, 17679.00
782.2970, 17551.00
783.4400, 17557.00
784.5830, 17722.00
785.7250, 17780.00
786.8680, 17760.00
788.0100, 17772.20
789.1520, 17485.49
790.2940, 17673.00
791.4360, 17639.90
792.5780, 17691.23
793.7190, 17714.17
794.8600, 17710.23
796.0010, 17598.91
797.1420, 17626.25
798.2830, 17598.02
799.4240, 17813.00
800.5640, 17783.00
801.7050, 17598.00
802.8450, 17514.00
803.9850, 17720.00
805.1250, 17761.00
806.2640, 17676.00
807.4040, 17848.00
808.5430, 17863.00
809.6820, 17799.00
810.8210, 17757.00
811.9600, 17824.00
813.0990, 17755.00
814.2370, 17820.00
815.3760, 17893.00
816.5140, 18007.00
817.6520, 17758.00
818.7900, 17775.00
819.9270, 17827.00
821.0650, 17728.00
822.2020, 17690.00
823.3390, 17653.00
824.4760, 17727.00
825.6130, 17794.00
826.7500, 17744.00
827.8870, 17740.00
829.0230, 17734.00
830.1590, 17665.00
831.2950, 17669.00
832.4310, 17630.00
833.5670, 17600.00
834.7030, 17609.00
835.8380, 17611.69
836.9730, 17767.00
838.1080, 17654.00
839.2430, 17763.00
840.3780, 17778.00
841.5130, 17772.00
842.6470, 17777.00
843.7810, 17522.00
844.9150, 17617.00
846.0490, 17654.00
847.1830, 17697.00
848.3170, 17806.00
849.4500, 17775.87
850.5830, 17607.00
851.7160, 17767.00
852.8490, 17623.00
853.9820, 17644.00
855.1150, 17758.00
856.2470, 17620.00
857.3800, 17599.00
858.5120, 17694.00
859.6440, 17720.00
860.7760, 17985.00
861.9070, 17892.32
863.0390, 17942.00
864.1700, 17789.00
865.3010, 17770.00
866.4320, 17680.00
867.5630, 17768.00
868.6940, 17885.00
869.8240, 17703.00
870.9540, 17737.00
872.0850, 18054.00
873.2150, 17756.00
874.3450, 17749.00
875.4740, 17886.00
876.6040, 17678.00
877.7330, 17807.00
878.8620, 17815.00
879.9910, 17831.00
881.1200, 17878.00
882.2490, 17888.00
883.3770, 17914.00
884.5060, 17982.00
885.6340, 17849.00
886.7620, 17938.00
887.8900, 17860.00
889.0180, 17905.00
890.1450, 17841.00
891.2730, 17684.00
892.4000, 18025.00
893.5270, 17940.00
894.6540, 18025.00
895.7810, 17902.00
896.9070, 17862.00
898.0340, 17947.00
899.1600, 18013.00
900.2860, 17909.00
901.4120, 18014.00
902.5380, 17964.00
903.6630, 17994.00
904.7890, 17896.00
905.9140, 17970.00
907.0390, 18075.00
908.1640, 17881.00
909.2890, 18037.00
910.4130, 18153.00
911.5380, 17991.00
912.6620, 18091.00
913.7860, 18093.00
914.9100, 18025.00
916.0340, 18078.19
917.1580, 17838.00
918.2810, 18050.00
919.4040, 18148.00
920.5280, 18077.00
921.6510, 17898.00
922.7730, 18165.00
923.8960, 18092.00
925.0180, 18105.63
926.1410, 18213.00
927.2630, 18112.00
928.3850, 18118.00
929.5070, 18116.00
930.6280, 18075.00
931.7500, 18125.78
932.8710, 18073.00
933.9920, 18203.00
935.1130, 18258.00
936.2340, 18290.33
937.3550, 18325.81
938.4760, 18246.00
939.5960, 18314.00
940.7160, 18190.00
941.8360, 18150.00
942.9560, 18226.00
944.0760, 18303.00
945.1950, 18420.00
946.3150, 18148.00
947.4340, 18299.00
948.5530, 18196.00
949.6720, 18200.00
950.7900, 18171.00
951.9090, 18261.00
953.0270, 18173.94
954.1460, 18264.00
955.2640, 18115.00
956.3820, 18254.00
957.4990, 18378.00
958.6170, 18300.01
959.7340, 18351.00
960.8520, 18359.00
961.9690, 18118.00
963.0860, 18319.00
964.2020, 18287.00
965.3190, 18251.00
966.4350, 18373.00
967.5520, 18383.00
968.6680, 18349.70
969.7840, 18357.00
970.8990, 18276.00
972.0150, 18305.00
973.1310, 18295.00
974.2460, 18330.00
975.3610, 18418.00
976.4760, 18332.00
977.5910, 18225.00
978.7050, 18444.00
979.8200, 18417.00
980.9340, 18275.00
982.0480, 18371.00
983.1620, 18376.00
984.2760, 18410.00
985.3900, 18411.00
986.5030, 18470.00
987.6160, 18330.00
988.7300, 18517.00
989.8430, 18358.00
990.9550, 18571.00
992.0680, 18568.00
993.1810, 18562.00
994.2930, 18308.68
995.4050, 18379.38
996.5170, 18421.67
997.6290, 18437.09
998.7410, 18345.13
999.8520, 18391.81
1000.964, 18382.94
1002.075, 18337.00
1003.186, 18318.51
1004.297, 18384.30
1005.407, 18410.00
1006.518, 18331.00
1007.628, 18447.00
1008.738, 18272.00
1009.848, 18583.00
1010.958, 18344.00
1012.068, 18351.00
1013.178, 18271.00
1014.287, 18302.85
1015.396, 18534.00
1016.505, 18481.00
1017.614, 18360.00
1018.723, 18450.00
1019.831, 18298.00
1020.940, 18419.00
1022.048, 18427.00
1023.156, 18465.00
1024.264, 18381.00
1025.372, 18563.00
1026.479, 18408.00
1027.587, 18284.00
1028.694, 18497.00
1029.801, 18319.00
1030.908, 18485.00
1032.015, 18424.00
1033.121, 18379.00
1034.228, 18424.00
1035.334, 18418.90
1036.440, 18485.00
1037.546, 18497.00
1038.652, 18583.00
1039.758, 18628.00
1040.863, 18666.00
1041.968, 18616.00
1043.074, 18551.00
1044.178, 18603.00
1045.283, 18465.00
1046.388, 18492.00
1047.492, 18695.00
1048.597, 18694.00
1049.701, 18618.00
1050.805, 18555.00
1051.909, 18578.00
1053.012, 18893.00
1054.116, 18734.00
1055.219, 18675.00
1056.322, 18877.00
1057.425, 18717.48
1058.528, 18682.95
1059.631, 18697.00
1060.733, 18546.00
1061.836, 18664.00
1062.938, 18798.00
1064.040, 18862.00
1065.142, 18761.00
1066.243, 18651.82
1067.345, 18723.20
1068.446, 18766.17
1069.547, 18782.26
1070.648, 18690.97
1071.749, 18738.33
1072.850, 18730.13
1073.951, 18719.66
1075.051, 18786.53
1076.151, 18831.00
1077.251, 18919.00
1078.351, 18797.00
1079.451, 18993.00
1080.550, 18887.00
1081.650, 19007.00
1082.749, 19022.00
1083.848, 18962.00
1084.947, 19037.00
1086.046, 19001.71
1087.144, 19064.00
1088.243, 18954.00
1089.341, 18973.00
1090.439, 18880.00
1091.537, 18903.27
1092.635, 18964.00
1093.732, 18917.00
1094.830, 18935.00
1095.927, 18862.00
1097.024, 18883.00
1098.121, 18916.00
1099.218, 18887.53
1100.314, 18944.00
1101.411, 18934.00
1102.507, 18944.00
1103.603, 18969.21
1104.699, 19021.00
1105.795, 19008.00
1106.890, 19076.00
1107.986, 19119.00
1109.081, 19160.78
1110.176, 19165.00
1111.271, 19192.00
1112.366, 19110.00
1113.461, 18940.00
1114.555, 19058.00
1115.649, 18995.69
1116.744, 19054.94
1117.838, 18974.00
1118.931, 19015.93
1120.025, 19050.00
1121.119, 19097.00
1122.212, 19036.00
1123.305, 19121.00
1124.398, 19153.00
1125.491, 19152.28
1126.584, 19039.00
1127.676, 19152.00
1128.768, 19071.00
1129.861, 18987.00
1130.953, 19123.00
1132.044, 19031.00
1133.136, 18971.00
1134.228, 19042.79
1135.319, 19046.00
1136.410, 19107.00
1137.501, 19087.00
1138.592, 19131.00
1139.683, 18949.00
1140.773, 19008.00
1141.864, 19006.00
1142.954, 19120.00
1144.044, 19271.00
1145.134, 19104.00
1146.224, 19310.00
1147.313, 19128.00
1148.402, 19244.00
1149.492, 19185.00
1150.581, 19200.55
1151.670, 19184.00
1152.758, 19287.00
1153.847, 19146.00
1154.935, 19199.00
1156.024, 19315.00
1157.112, 19195.00
1158.200, 19282.04
1159.287, 19190.00
1160.375, 19316.00
1161.462, 19254.00
1162.550, 19264.00
1163.637, 19356.00
1164.724, 19226.22
1165.810, 19367.00
1166.897, 19301.00
1167.983, 19500.00
1169.070, 19407.45
1170.156, 19442.70
1171.242, 19287.00
1172.327, 19365.00
1173.413, 19345.00
1174.499, 19160.00
1175.584, 19402.00
1176.669, 19358.00
1177.754, 19327.66
1178.839, 19267.00
1179.923, 19303.00
1181.008, 19298.00
1182.092, 19356.00
1183.176, 19207.00
1184.260, 19294.00
1185.344, 19227.00
1186.428, 19169.00
1187.511, 19370.00
1188.595, 19138.00
1189.678, 19157.00
1190.761, 19375.00
1191.843, 19229.00
1192.926, 19081.00
1194.009, 19222.00
1195.091, 19266.00
1196.173, 19467.00
1197.255, 19060.00
1198.337, 19219.00
1199.419, 19251.00
1200.500, 19273.00
1201.582, 19353.00
1202.663, 19395.00
1203.744, 19234.00
1204.825, 19286.00
1205.905, 19361.00
1206.986, 19181.00
1208.066, 19421.00
1209.146, 19351.00
1210.226, 19326.00
1211.306, 19277.00
1212.386, 19317.00
1213.466, 19377.00
1214.545, 19123.00
1215.624, 19155.00
1216.703, 19197.00
1217.782, 19181.00
1218.861, 19154.00
1219.939, 19245.00
1221.018, 19099.00
1222.096, 19060.00
1223.174, 19120.00
1224.252, 19122.00
1225.330, 19011.00
1226.407, 19190.00
1227.485, 19048.00
1228.562, 18948.00
1229.639, 19278.00
1230.716, 19029.00
1231.793, 19121.00
1232.869, 19066.00
1233.946, 19338.00
1235.022, 19089.00
1236.098, 18990.00
1237.174, 19062.00
1238.250, 18937.00
1239.325, 19207.00
1240.401, 19259.00
1241.476, 19140.00
1242.551, 19104.00
1243.626, 19250.00
1244.701, 19171.00
1245.776, 19158.00
1246.850, 19163.00
1247.924, 19173.15
1248.999, 19196.75
1250.073, 19284.00
1251.146, 19207.00
1252.220, 19311.00
1253.293, 19199.00
1254.367, 19162.00
1255.440, 19158.00
1256.513, 19181.00
1257.586, 19264.00
1258.658, 19066.00
1259.731, 19270.00
1260.803, 19103.72
1261.875, 19150.16
1262.947, 19168.20
1264.019, 19159.36
1265.091, 19043.15
1266.162, 19065.60
1267.234, 19032.47
1268.305, 18997.08
1269.376, 19039.05
1270.447, 18938.47
1271.517, 18979.23
1272.588, 18963.56
1273.658, 19077.00
1274.729, 19061.00
1275.799, 19074.63
1276.868, 18963.00
1277.938, 19033.00
1279.008, 19010.00
1280.077, 18909.00
1281.146, 18965.00
1282.215, 18916.00
1283.284, 19026.00
1284.353, 19037.00
1285.421, 18941.00
1286.490, 18919.00
1287.558, 18989.00
1288.626, 19020.00
1289.694, 19004.00
1290.762, 18901.00
1291.829, 19004.00
1292.897, 18903.00
1293.964, 18902.00
1295.031, 18922.00
1296.098, 18917.00
1297.165, 18873.00
1298.231, 18828.00
1299.298, 18868.00
1300.364, 18844.00
1301.430, 18836.00
1302.496, 18940.00
1303.562, 18854.27
1304.627, 18903.00
1305.693, 18769.00
1306.758, 18795.00
1307.823, 18785.00
1308.888, 18705.00
1309.953, 18768.00
1311.018, 18769.00
1312.082, 18816.00
1313.146, 18856.10
1314.210, 18795.00
1315.274, 18938.90
1316.338, 18751.00
1317.402, 18773.00
1318.465, 18591.00
1319.529, 18701.00
1320.592, 18803.00
1321.655, 18654.00
1322.718, 18919.25
1323.780, 18758.32
1324.843, 18740.45
1325.905, 18599.00
1326.967, 18617.00
1328.029, 18603.00
1329.091, 18596.00
1330.153, 18750.00
1331.214, 18698.00
1332.275, 18615.00
1333.337, 18579.00
1334.398, 18721.83
1335.458, 18783.37
1336.519, 18816.51
1337.580, 18822.76
1338.640, 18721.64
1339.700, 18759.18
1340.760, 18741.15
1341.820, 18720.84
1342.880, 18777.89
1343.939, 18692.39
1344.999, 18748.21
1346.058, 18747.63
1347.117, 18772.86
1348.176, 18742.18
1349.235, 18728.77
1350.293, 18771.29
1351.351, 18662.00
1352.410, 18678.19
1353.468, 18532.00
1354.526, 18683.00
1355.583, 18572.80
1356.641, 18624.88
1357.698, 18584.00
1358.756, 18573.00
1359.813, 18637.00
1360.869, 18679.00
1361.926, 18481.00
1362.983, 18411.00
1364.039, 18689.00
1365.095, 18696.00
1366.152, 18478.00
1367.207, 18617.00
1368.263, 18527.00
1369.319, 18784.00
1370.374, 18705.27
1371.430, 18683.00
1372.485, 18629.00
1373.540, 18607.97
1374.594, 18612.99
1375.649, 18609.00
1376.703, 18598.00
1377.758, 18660.00
1378.812, 18564.00
1379.866, 18529.00
1380.920, 18588.00
1381.973, 18637.00
1383.027, 18529.00
1384.080, 18604.00
1385.133, 18475.00
1386.186, 18587.72
1387.239, 18545.43
1388.291, 18689.00
1389.344, 18646.00
1390.396, 18460.00
1391.448, 18753.00
1392.500, 18420.00
1393.552, 18297.00
1394.604, 18579.00
1395.655, 18662.00
1396.707, 18621.00
1397.758, 18618.00
1398.809, 18699.00
1399.860, 18558.00
1400.910, 18577.01
1401.961, 18639.80
1403.011, 18674.18
1404.061, 18681.69
1405.111, 18581.82
1406.161, 18620.60
1407.211, 18603.82
1408.260, 18584.76
1409.310, 18643.06
1410.359, 18558.81
1411.408, 18615.89
1412.457, 18616.55
1413.506, 18643.03
1414.554, 18613.61
1415.603, 18601.45
1416.651, 18645.21
1417.699, 18587.00
1418.747, 18687.00
1419.794, 18614.00
1420.842, 18560.00
1421.889, 18476.00
1422.937, 18503.00
1423.984, 18461.73
1425.031, 18667.00
1426.077, 18487.00
1427.124, 18539.00
1428.170, 18631.00
1429.217, 18439.00
1430.263, 18539.15
1431.309, 18717.00
1432.354, 18546.00
1433.400, 18535.00
1434.445, 18511.00
1435.491, 18468.00
1436.536, 18594.00
1437.581, 18492.00
1438.625, 18755.00
1439.670, 18579.00
1440.714, 18720.00
1441.759, 18620.00
1442.803, 18580.95
1443.847, 18647.00
1444.890, 18503.00
1445.934, 18608.00
1446.978, 18609.00
1448.021, 18616.00
1449.064, 18741.00
1450.107, 18730.00
1451.150, 18655.00
1452.192, 18693.00
1453.235, 18624.00
1454.277, 18680.00
1455.319, 18585.00
1456.361, 18610.73
1457.403, 18657.00
1458.445, 18643.00
1459.486, 18612.00
1460.528, 18661.00
1461.569, 18693.00
1462.610, 18678.00
1463.651, 18890.00
1464.691, 18709.25
1465.732, 18718.80
1466.772, 18520.00
1467.812, 18572.00
1468.852, 18659.00
1469.892, 18653.00
1470.932, 18657.00
1471.971, 18684.29
1473.011, 18672.00
1474.050, 18679.00
1475.089, 18672.00
1476.128, 18639.00
1477.166, 18679.00
1478.205, 18429.00
1479.243, 18589.00
1480.282, 18636.00
1481.320, 18814.00
1482.357, 18704.00
1483.395, 18711.00
1484.433, 18676.00
1485.470, 18640.00
1486.507, 18811.00
1487.544, 18495.00
1488.581, 18684.00
1489.618, 18742.00
1490.655, 18619.00
1491.691, 18613.00
1492.727, 18586.00
1493.763, 18686.00
1494.799, 18782.00
1495.835, 18672.00
1496.871, 18391.00
1497.906, 18647.00
1498.941, 18510.00
1499.976, 18504.00
1501.011, 18707.00
1502.046, 18720.00
1503.081, 18812.00
1504.115, 18622.00
1505.149, 18424.00
1506.183, 18520.00
1507.217, 18459.76
1508.251, 18833.00
1509.285, 18567.00
1510.318, 18725.00
1511.352, 18745.00
1512.385, 18699.00
1513.418, 18742.00
1514.450, 18733.00
1515.483, 18581.00
1516.516, 18691.00
1517.548, 18851.00
1518.580, 18816.00
1519.612, 18676.00
1520.644, 18734.00
1521.675, 18667.00
1522.707, 18652.00
1523.738, 18632.27
1524.769, 18958.00
1525.800, 18553.00
1526.831, 18855.00
1527.862, 18829.00
1528.892, 18661.00
1529.923, 18758.00
1530.953, 18717.00
1531.983, 18653.00
1533.013, 18656.00
1534.042, 18637.01
1535.072, 18750.00
1536.101, 18693.00
1537.131, 18668.00
1538.160, 18797.00
1539.188, 18681.00
1540.217, 18558.00
1541.246, 18651.00
1542.274, 18907.00
1543.302, 18698.00
1544.330, 18573.00
1545.358, 18847.00
1546.386, 18678.00
1547.413, 18759.00
1548.441, 18781.00
1549.468, 18737.00
1550.495, 18945.00
1551.522, 19086.00
1552.549, 19332.00
1553.575, 19188.29
1554.602, 19151.74
1555.628, 18891.00
1556.654, 18814.00
1557.680, 18735.00
1558.706, 18629.00
1559.731, 18692.00
1560.757, 18699.00
1561.782, 18638.00
1562.807, 18751.00
1563.832, 18786.00
1564.857, 18835.00
1565.881, 18699.00
1566.906, 18787.00
1567.930, 18630.00
1568.954, 18773.00
1569.978, 18857.00
1571.002, 18681.00
1572.025, 18986.00
1573.049, 18727.00
1574.072, 18633.00
1575.095, 18803.00
1576.118, 18719.00
##END=



