##NAMES=Groutite
##RRUFFID=R080004
##IDEAL CHEMISTRY=Mn^3+^O(OH)
##LOCALITY=Roberts mine, Crosby, Minnesota, USA
##OWNER=RRUFF
##SOURCE=Michael Scott
##DESCRIPTION=Black crystalline and in some cases striated.
##STATUS=The identification of this mineral has been confirmed by single-crystal X-ray diffraction.
##URL=rruff.info/R080004
##PIN_ID=M01823
##ORIENTATION=Laser parallel to a* (1 0 0). Fiducial mark perpendicular to laser is parallel to b [0 1 0]
80.91200, 13865.00
82.15000, 13810.00
83.38800, 13889.00
84.62600, 14587.00
85.86300, 14521.00
87.10100, 14224.00
88.33800, 14952.00
89.57500, 14807.00
90.81200, 15130.00
92.04900, 15942.00
93.28600, 16124.00
94.52300, 16084.00
95.75900, 16156.00
96.99500, 15723.00
98.23100, 15549.00
99.46700, 15712.00
100.7030, 15608.00
101.9390, 15488.00
103.1740, 15351.00
104.4090, 15601.00
105.6440, 15880.00
106.8790, 16537.00
108.1140, 16926.00
109.3490, 17294.00
110.5830, 19699.00
111.8180, 18138.00
113.0520, 16869.00
114.2860, 17729.00
115.5200, 19529.00
116.7530, 21362.00
117.9870, 22435.00
119.2200, 21643.00
120.4530, 23066.00
121.6860, 26332.00
122.9190, 28083.00
124.1520, 25128.00
125.3850, 21141.00
126.6170, 17300.00
127.8490, 15159.00
129.0810, 14812.00
130.3130, 14761.00
131.5450, 14785.00
132.7770, 14648.00
134.0080, 14673.00
135.2390, 14288.00
136.4710, 14398.00
137.7020, 14355.00
138.9320, 14643.00
140.1630, 14614.00
141.3930, 14445.00
142.6240, 14547.00
143.8540, 14309.00
145.0840, 14330.00
146.3140, 14183.00
147.5440, 14219.00
148.7730, 14192.00
150.0020, 13958.00
151.2320, 13883.00
152.4610, 13880.96
153.6900, 14044.00
154.9180, 13923.00
156.1470, 14052.00
157.3750, 14099.00
158.6040, 14032.00
159.8320, 13950.00
161.0600, 13891.00
162.2870, 13879.00
163.5150, 13825.00
164.7420, 13794.66
165.9700, 13737.02
167.1970, 13745.00
168.4240, 13687.00
169.6510, 13693.00
170.8770, 13838.00
172.1040, 13812.00
173.3300, 13873.00
174.5560, 13662.00
175.7820, 13624.00
177.0080, 13729.00
178.2340, 13620.00
179.4590, 13686.00
180.6850, 13719.00
181.9100, 13437.00
183.1350, 13606.00
184.3600, 13545.00
185.5850, 13631.00
186.8090, 13577.00
188.0340, 13649.00
189.2580, 13503.00
190.4820, 13720.00
191.7060, 13625.00
192.9300, 13591.00
194.1530, 13870.00
195.3770, 13818.00
196.6000, 13538.59
197.8230, 13673.94
199.0460, 13765.94
200.2690, 13816.92
201.4910, 13703.98
202.7140, 13802.70
203.9360, 13816.57
205.1580, 13826.97
206.3800, 13876.73
207.6020, 14008.04
208.8240, 14096.00
210.0450, 14142.91
211.2670, 14025.96
212.4880, 14120.61
213.7090, 14130.45
214.9300, 14136.81
216.1510, 14261.24
217.3710, 14168.08
218.5920, 14210.94
219.8120, 14266.02
221.0320, 14277.75
222.2520, 14248.46
223.4720, 14055.28
224.6910, 14073.76
225.9110, 13892.00
227.1300, 13503.00
228.3490, 13663.00
229.5680, 13799.00
230.7870, 13657.00
232.0050, 13516.00
233.2240, 13501.00
234.4420, 13499.00
235.6600, 13702.00
236.8780, 13536.00
238.0960, 13688.00
239.3140, 13436.00
240.5310, 13633.00
241.7490, 13455.00
242.9660, 13498.00
244.1830, 13674.00
245.4000, 13638.00
246.6160, 13694.00
247.8330, 13614.00
249.0490, 13574.00
250.2660, 13796.00
251.4820, 13795.00
252.6980, 13813.00
253.9130, 14092.00
255.1290, 14093.00
256.3440, 14225.00
257.5600, 14452.79
258.7750, 14610.00
259.9900, 14859.00
261.2040, 15158.00
262.4190, 15329.00
263.6330, 15364.00
264.8480, 15584.00
266.0620, 15673.00
267.2760, 15753.00
268.4900, 15846.00
269.7030, 15551.00
270.9170, 15549.00
272.1300, 15436.00
273.3430, 15109.00
274.5560, 15002.74
275.7690, 14693.00
276.9820, 14602.00
278.1940, 14434.00
279.4070, 14329.00
280.6190, 14184.37
281.8310, 13982.00
283.0430, 13919.00
284.2550, 13954.00
285.4660, 13885.00
286.6770, 13729.00
287.8890, 13923.00
289.1000, 13899.00
290.3110, 13764.00
291.5210, 13799.00
292.7320, 13849.00
293.9420, 13739.00
295.1530, 13837.00
296.3630, 13678.00
297.5730, 13773.00
298.7830, 13689.00
299.9920, 13653.00
301.2020, 13814.00
302.4110, 13688.00
303.6200, 13763.00
304.8290, 13756.00
306.0380, 13739.00
307.2470, 13659.00
308.4550, 13732.00
309.6630, 13649.00
310.8720, 13841.00
312.0800, 13770.00
313.2880, 13661.00
314.4950, 13897.00
315.7030, 13674.00
316.9100, 13679.00
318.1170, 13761.00
319.3240, 13739.00
320.5310, 13712.00
321.7380, 13756.00
322.9450, 13801.00
324.1510, 13801.00
325.3570, 13840.00
326.5630, 13866.00
327.7690, 13927.00
328.9750, 13903.58
330.1810, 13708.00
331.3860, 13896.00
332.5910, 13838.00
333.7960, 13905.00
335.0010, 13997.00
336.2060, 13857.00
337.4110, 13805.00
338.6150, 14051.00
339.8200, 14043.00
341.0240, 14059.00
342.2280, 13941.00
343.4320, 13982.00
344.6350, 13961.00
345.8390, 14014.00
347.0420, 14054.11
348.2450, 14040.00
349.4480, 14165.00
350.6510, 14276.00
351.8540, 14340.00
353.0560, 14201.00
354.2590, 14333.00
355.4610, 14340.00
356.6630, 14291.00
357.8650, 14403.00
359.0670, 14411.00
360.2680, 14355.95
361.4700, 14511.25
362.6710, 14652.09
363.8720, 14780.84
365.0730, 14774.64
366.2740, 15008.99
367.4740, 15187.29
368.6750, 15391.19
369.8750, 15741.87
371.0750, 15903.86
372.2750, 16255.00
373.4750, 16916.00
374.6740, 17315.00
375.8740, 17905.00
377.0730, 18459.00
378.2720, 19073.00
379.4710, 19617.00
380.6700, 19995.00
381.8690, 20779.00
383.0670, 21125.00
384.2660, 21341.00
385.4640, 21216.00
386.6620, 20844.00
387.8600, 20220.00
389.0570, 19587.00
390.2550, 18786.00
391.4520, 18116.00
392.6490, 17575.00
393.8460, 17036.30
395.0430, 16608.08
396.2400, 16259.00
397.4370, 15908.00
398.6330, 15706.00
399.8290, 15456.00
401.0250, 15158.00
402.2210, 15007.00
403.4170, 15072.00
404.6130, 14952.00
405.8080, 14793.00
407.0030, 14870.00
408.1980, 14676.00
409.3930, 14602.00
410.5880, 14650.00
411.7830, 14406.00
412.9770, 14427.00
414.1720, 14614.00
415.3660, 14585.00
416.5600, 14530.00
417.7530, 14542.00
418.9470, 14321.00
420.1410, 14430.83
421.3340, 14378.74
422.5270, 14516.00
423.7200, 14407.00
424.9130, 14368.00
426.1060, 14378.00
427.2980, 14332.32
428.4900, 14346.53
429.6830, 14350.00
430.8750, 14365.00
432.0670, 14435.00
433.2580, 14444.00
434.4500, 14429.00
435.6410, 14566.00
436.8320, 14518.00
438.0240, 14495.00
439.2140, 14452.00
440.4050, 14636.00
441.5960, 14474.00
442.7860, 14586.00
443.9760, 14467.00
445.1670, 14742.00
446.3560, 14578.00
447.5460, 14636.90
448.7360, 14702.26
449.9250, 14638.00
451.1150, 14709.00
452.3040, 14716.00
453.4930, 14601.00
454.6810, 14636.00
455.8700, 14729.00
457.0590, 14801.00
458.2470, 14845.72
459.4350, 14831.00
460.6230, 14954.00
461.8110, 14944.00
462.9980, 15010.00
464.1860, 15046.00
465.3730, 15151.00
466.5600, 15177.00
467.7470, 15243.00
468.9340, 15208.00
470.1210, 15153.00
471.3080, 15453.00
472.4940, 15413.00
473.6800, 15702.00
474.8660, 15835.00
476.0520, 16079.00
477.2380, 16540.00
478.4230, 16424.00
479.6090, 16862.00
480.7940, 17731.00
481.9790, 17658.99
483.1640, 18114.65
484.3490, 18065.00
485.5330, 18411.00
486.7180, 18606.00
487.9020, 18537.00
489.0860, 18451.00
490.2700, 18016.00
491.4540, 17603.00
492.6370, 17401.00
493.8210, 17131.00
495.0040, 16987.00
496.1870, 16770.64
497.3700, 16631.24
498.5530, 16463.36
499.7360, 16393.00
500.9180, 16386.00
502.1000, 16295.87
503.2830, 16211.00
504.4650, 16159.00
505.6460, 16137.00
506.8280, 16148.00
508.0100, 16161.00
509.1910, 16221.00
510.3720, 16135.00
511.5530, 16127.00
512.7340, 16244.00
513.9150, 16320.00
515.0950, 16366.42
516.2760, 16549.00
517.4560, 16558.00
518.6360, 16681.00
519.8160, 16918.00
520.9950, 17118.00
522.1750, 17112.00
523.3540, 17220.00
524.5340, 17459.00
525.7130, 17446.00
526.8920, 17807.00
528.0700, 18010.00
529.2490, 18175.64
530.4270, 18482.56
531.6060, 18596.00
532.7840, 19013.00
533.9620, 19254.00
535.1390, 19568.00
536.3170, 19756.00
537.4940, 20394.00
538.6720, 20655.00
539.8490, 21345.00
541.0260, 21701.00
542.2030, 22473.00
543.3790, 23168.00
544.5560, 23750.00
545.7320, 24708.00
546.9080, 25319.00
548.0840, 26178.00
549.2600, 26834.00
550.4360, 27477.00
551.6110, 27955.00
552.7860, 28917.00
553.9620, 29057.00
555.1370, 29336.00
556.3110, 29274.00
557.4860, 29394.00
558.6610, 29298.00
559.8350, 28940.00
561.0090, 28804.00
562.1830, 28308.00
563.3570, 27915.00
564.5310, 27141.00
565.7040, 26295.00
566.8780, 25784.00
568.0510, 25671.00
569.2240, 24728.00
570.3970, 24257.00
571.5700, 23674.76
572.7420, 23465.55
573.9150, 23212.73
575.0870, 22919.15
576.2590, 22461.68
577.4310, 22215.82
578.6030, 21885.17
579.7740, 21551.31
580.9460, 21335.25
582.1170, 20901.88
583.2880, 20684.20
584.4590, 20380.44
585.6300, 20116.07
586.8010, 19766.37
587.9710, 19443.29
589.1410, 19205.58
590.3110, 18777.00
591.4810, 18589.00
592.6510, 18332.00
593.8210, 18101.12
594.9900, 17752.00
596.1600, 17639.00
597.3290, 17695.00
598.4980, 17378.00
599.6670, 17385.00
600.8350, 17245.00
602.0040, 17111.00
603.1720, 17061.00
604.3400, 16770.00
605.5080, 16797.00
606.6760, 16765.00
607.8440, 16746.00
609.0120, 16551.00
610.1790, 16518.00
611.3460, 16418.80
612.5130, 16369.00
613.6800, 16279.00
614.8470, 16346.00
616.0130, 16357.00
617.1800, 16237.00
618.3460, 16336.00
619.5120, 16171.00
620.6780, 16191.00
621.8440, 16290.00
623.0090, 16077.00
624.1750, 16249.00
625.3400, 16125.00
626.5050, 16067.00
627.6700, 16093.00
628.8350, 16023.00
629.9990, 16124.00
631.1640, 16089.00
632.3280, 16173.00
633.4920, 16075.00
634.6560, 16089.00
635.8200, 16013.00
636.9840, 16008.00
638.1470, 16194.00
639.3100, 15953.64
640.4730, 16023.66
641.6360, 16050.32
642.7990, 16035.96
643.9620, 15857.71
645.1240, 15891.11
646.2870, 15839.68
647.4490, 15784.79
648.6110, 15847.98
649.7730, 15824.00
650.9340, 15695.00
652.0960, 15685.00
653.2570, 15615.00
654.4180, 15595.95
655.5790, 15544.00
656.7400, 15556.00
657.9010, 15492.00
659.0620, 15393.00
660.2220, 15512.00
661.3820, 15431.00
662.5420, 15393.00
663.7020, 15292.00
664.8620, 15367.00
666.0210, 15442.00
667.1810, 15575.00
668.3400, 15559.55
669.4990, 15483.22
670.6580, 15545.00
671.8170, 15293.00
672.9750, 15257.00
674.1340, 15356.00
675.2920, 15263.00
676.4500, 15317.00
677.6080, 15417.00
678.7660, 15303.00
679.9230, 15258.00
681.0810, 15368.00
682.2380, 15399.00
683.3950, 15350.00
684.5520, 15248.00
685.7090, 15190.00
686.8660, 15223.00
688.0220, 15150.00
689.1780, 15397.00
690.3340, 15224.00
691.4900, 15273.00
692.6460, 15227.00
693.8020, 15140.00
694.9570, 15200.00
696.1130, 15130.00
697.2680, 15128.00
698.4230, 15350.00
699.5780, 15164.00
700.7320, 15233.00
701.8870, 15373.00
703.0410, 15090.00
704.1950, 15194.00
705.3490, 15231.00
706.5030, 15101.00
707.6570, 15166.00
708.8110, 15175.00
709.9640, 15192.00
711.1170, 15156.00
712.2700, 15265.00
713.4230, 15061.00
714.5760, 14998.00
715.7280, 15179.00
716.8810, 15099.00
718.0330, 15122.00
719.1850, 15191.00
720.3370, 15196.00
721.4890, 15102.00
722.6400, 15219.00
723.7920, 15166.00
724.9430, 15255.00
726.0940, 15060.00
727.2450, 15047.00
728.3960, 15165.00
729.5460, 15210.00
730.6970, 15056.00
731.8470, 15344.00
732.9970, 15247.12
734.1470, 15411.00
735.2970, 15204.00
736.4460, 15109.00
737.5960, 14954.00
738.7450, 15162.00
739.8940, 15293.00
741.0430, 15270.00
742.1920, 15258.98
743.3410, 15154.00
744.4890, 15131.00
745.6370, 15018.00
746.7850, 15158.00
747.9330, 15226.00
749.0810, 15128.00
750.2290, 15369.00
751.3760, 15265.71
752.5240, 15253.81
753.6710, 15291.00
754.8180, 15106.00
755.9650, 15305.00
757.1110, 15186.00
758.2580, 15207.00
759.4040, 15119.00
760.5510, 15211.00
761.6970, 15065.00
762.8420, 15190.00
763.9880, 15129.00
765.1340, 15161.00
766.2790, 15140.00
767.4240, 15115.27
768.5690, 15120.00
769.7140, 15099.00
770.8590, 15056.00
772.0030, 15099.00
773.1480, 15067.76
774.2920, 15145.00
775.4360, 15077.00
776.5800, 15132.00
777.7240, 15184.00
778.8670, 15264.00
780.0110, 15124.00
781.1540, 15184.00
782.2970, 15245.00
783.4400, 15302.00
784.5830, 15035.12
785.7250, 15136.40
786.8680, 15194.33
788.0100, 15211.24
789.1520, 15064.26
790.2940, 15128.91
791.4360, 15108.75
792.5780, 15085.11
793.7190, 15179.54
794.8600, 15056.40
796.0010, 15148.96
797.1420, 15155.41
798.2830, 15201.28
799.4240, 15215.00
800.5640, 15123.00
801.7050, 15167.00
802.8450, 15252.00
803.9850, 15160.00
805.1250, 15207.00
806.2640, 15241.00
807.4040, 15229.00
808.5430, 15144.00
809.6820, 15069.00
810.8210, 15140.00
811.9600, 15076.00
813.0990, 15118.00
814.2370, 15164.00
815.3760, 15247.00
816.5140, 15156.00
817.6520, 15158.00
818.7900, 15328.00
819.9270, 15201.00
821.0650, 15344.00
822.2020, 15191.00
823.3390, 15073.00
824.4760, 15185.00
825.6130, 15122.00
826.7500, 15060.00
827.8870, 15136.00
829.0230, 15235.00
830.1590, 15145.00
831.2950, 15148.00
832.4310, 15213.00
833.5670, 15219.00
834.7030, 15100.00
835.8380, 15267.00
836.9730, 15163.00
838.1080, 15285.00
839.2430, 15106.00
840.3780, 15179.00
841.5130, 15259.00
842.6470, 15247.00
843.7810, 15218.00
844.9150, 15097.00
846.0490, 15189.00
847.1830, 15137.00
848.3170, 15248.00
849.4500, 15324.00
850.5830, 15061.00
851.7160, 15254.00
852.8490, 15188.00
853.9820, 15133.00
855.1150, 15308.00
856.2470, 15195.00
857.3800, 15331.00
858.5120, 15268.00
859.6440, 15203.00
860.7760, 15222.00
861.9070, 15195.00
863.0390, 15237.00
864.1700, 15231.22
865.3010, 15198.00
866.4320, 15270.00
867.5630, 15266.00
868.6940, 15337.00
869.8240, 15213.00
870.9540, 15461.00
872.0850, 15207.00
873.2150, 15364.00
874.3450, 15317.00
875.4740, 15361.00
876.6040, 15324.00
877.7330, 15312.54
878.8620, 15298.96
879.9910, 15287.00
881.1200, 15291.00
882.2490, 15303.00
883.3770, 15406.00
884.5060, 15336.00
885.6340, 15522.00
886.7620, 15243.00
887.8900, 15476.00
889.0180, 15341.00
890.1450, 15354.00
891.2730, 15481.00
892.4000, 15345.00
893.5270, 15456.00
894.6540, 15339.00
895.7810, 15568.00
896.9070, 15503.00
898.0340, 15412.00
899.1600, 15398.00
900.2860, 15419.00
901.4120, 15426.00
902.5380, 15414.00
903.6630, 15430.19
904.7890, 15589.00
905.9140, 15409.00
907.0390, 15488.00
908.1640, 15414.00
909.2890, 15635.00
910.4130, 15432.00
911.5380, 15470.00
912.6620, 15545.00
913.7860, 15492.00
914.9100, 15598.00
916.0340, 15688.00
917.1580, 15421.00
918.2810, 15691.00
919.4040, 15469.00
920.5280, 15525.00
921.6510, 15539.00
922.7730, 15558.00
923.8960, 15553.00
925.0180, 15551.00
926.1410, 15677.00
927.2630, 15488.00
928.3850, 15579.00
929.5070, 15645.00
930.6280, 15578.00
931.7500, 15538.00
932.8710, 15561.06
933.9920, 15552.44
935.1130, 15570.00
936.2340, 15628.00
937.3550, 15656.00
938.4760, 15737.00
939.5960, 15593.00
940.7160, 15662.00
941.8360, 15582.00
942.9560, 15716.00
944.0760, 15622.00
945.1950, 15680.00
946.3150, 15635.00
947.4340, 15603.00
948.5530, 15553.00
949.6720, 15571.32
950.7900, 15573.00
951.9090, 15616.00
953.0270, 15620.25
954.1460, 15617.67
955.2640, 15637.00
956.3820, 15641.00
957.4990, 15623.00
958.6170, 15722.00
959.7340, 15690.00
960.8520, 15650.00
961.9690, 15545.00
963.0860, 15570.86
964.2020, 15565.74
965.3190, 15658.00
966.4350, 15617.00
967.5520, 15811.00
968.6680, 15813.00
969.7840, 15747.00
970.8990, 15742.00
972.0150, 15660.00
973.1310, 15814.00
974.2460, 15733.00
975.3610, 15729.00
976.4760, 15769.00
977.5910, 15643.00
978.7050, 15887.00
979.8200, 15878.00
980.9340, 15772.00
982.0480, 15848.00
983.1620, 15743.00
984.2760, 15777.00
985.3900, 15920.00
986.5030, 15978.00
987.6160, 15806.00
988.7300, 15910.00
989.8430, 15713.00
990.9550, 15885.00
992.0680, 15870.00
993.1810, 15785.00
994.2930, 15874.00
995.4050, 15779.00
996.5170, 15924.00
997.6290, 15897.00
998.7410, 15764.00
999.8520, 15957.00
1000.964, 15859.00
1002.075, 16016.00
1003.186, 15779.00
1004.297, 15845.00
1005.407, 15887.00
1006.518, 15895.00
1007.628, 15806.00
1008.738, 15728.00
1009.848, 15835.00
1010.958, 15740.11
1012.068, 15893.00
1013.178, 15696.00
1014.287, 15741.00
1015.396, 15737.00
1016.505, 15839.00
1017.614, 15875.00
1018.723, 15881.38
1019.831, 15903.00
1020.940, 15876.00
1022.048, 15946.00
1023.156, 15915.00
1024.264, 15779.00
1025.372, 16008.00
1026.479, 15808.00
1027.587, 15893.00
1028.694, 16033.00
1029.801, 15878.00
1030.908, 15919.00
1032.015, 16023.00
1033.121, 16082.00
1034.228, 16085.00
1035.334, 16047.00
1036.440, 16079.00
1037.546, 16091.00
1038.652, 16099.00
1039.758, 16120.00
1040.863, 16204.00
1041.968, 16165.00
1043.074, 16027.00
1044.178, 16125.00
1045.283, 16124.00
1046.388, 16452.00
1047.492, 16112.00
1048.597, 16363.00
1049.701, 16222.00
1050.805, 16315.00
1051.909, 16320.00
1053.012, 16295.00
1054.116, 16394.00
1055.219, 16405.00
1056.322, 16364.00
1057.425, 16437.00
1058.528, 16432.61
1059.631, 16625.00
1060.733, 16487.00
1061.836, 16534.00
1062.938, 16572.00
1064.040, 16510.00
1065.142, 16610.00
1066.243, 16473.00
1067.345, 16439.00
1068.446, 16542.00
1069.547, 16396.00
1070.648, 16441.62
1071.749, 16504.73
1072.850, 16524.50
1073.951, 16503.25
1075.051, 16318.14
1076.151, 16344.66
1077.251, 16286.37
1078.351, 16224.60
1079.451, 16280.90
1080.550, 16267.00
1081.650, 16309.00
1082.749, 16379.00
1083.848, 16261.00
1084.947, 16200.00
1086.046, 16268.00
1087.144, 16297.00
1088.243, 16325.00
1089.341, 16404.00
1090.439, 16262.00
1091.537, 16358.00
1092.635, 16238.00
1093.732, 16129.57
1094.830, 16229.68
1095.927, 16286.44
1097.024, 16302.17
1098.121, 16154.02
1099.218, 16217.50
1100.314, 16196.16
1101.411, 16171.35
1102.507, 16264.61
1103.603, 16140.30
1104.699, 16231.68
1105.795, 16236.97
1106.890, 16329.00
1107.986, 16186.00
1109.081, 16342.00
1110.176, 16236.00
1111.271, 16184.00
1112.366, 16268.00
1113.461, 16230.00
1114.555, 16212.00
1115.649, 16156.00
1116.744, 16074.00
1117.838, 16216.00
1118.931, 16250.00
1120.025, 16230.00
1121.119, 16178.00
1122.212, 16206.00
1123.305, 16225.00
1124.398, 16286.00
1125.491, 16272.00
1126.584, 16187.00
1127.676, 16099.00
1128.768, 16265.00
1129.861, 16112.00
1130.953, 16048.00
1132.044, 16225.00
1133.136, 16086.00
1134.228, 16031.00
1135.319, 16142.00
1136.410, 16175.00
1137.501, 16179.00
1138.592, 15997.00
1139.683, 16046.00
1140.773, 15969.85
1141.864, 15978.83
1142.954, 15902.00
1144.044, 16065.00
1145.134, 16071.00
1146.224, 16148.00
1147.313, 16132.00
1148.402, 16091.00
1149.492, 16132.00
1150.581, 16059.79
1151.670, 16211.00
1152.758, 15955.00
1153.847, 16018.00
1154.935, 15983.00
1156.024, 16136.00
1157.112, 16222.00
1158.200, 16117.00
1159.287, 16195.00
1160.375, 16033.00
1161.462, 16236.00
1162.550, 16033.00
1163.637, 16081.00
1164.724, 16059.00
1165.810, 16111.00
1166.897, 16183.00
1167.983, 16273.00
1169.070, 15869.00
1170.156, 16041.00
1171.242, 16016.00
1172.327, 16171.00
1173.413, 15948.00
1174.499, 16046.00
1175.584, 15901.00
1176.669, 16070.00
1177.754, 16209.00
1178.839, 16105.00
1179.923, 16057.00
1181.008, 16187.00
1182.092, 16106.00
1183.176, 15983.00
1184.260, 16139.00
1185.344, 16106.00
1186.428, 16054.00
1187.511, 16083.00
1188.595, 16111.00
1189.678, 16075.00
1190.761, 16226.00
1191.843, 15966.00
1192.926, 15855.00
1194.009, 16053.00
1195.091, 15908.00
1196.173, 16162.00
1197.255, 16058.00
1198.337, 15927.00
1199.419, 16123.00
1200.500, 16030.00
1201.582, 16063.00
1202.663, 16079.00
1203.744, 16181.00
1204.825, 16133.00
1205.905, 16162.00
1206.986, 16134.00
1208.066, 16088.00
1209.146, 16297.00
1210.226, 16184.00
1211.306, 16414.00
1212.386, 16029.00
1213.466, 16001.00
1214.545, 15956.00
1215.624, 16014.00
1216.703, 16062.00
1217.782, 16064.00
1218.861, 16054.00
1219.939, 16161.00
1221.018, 15863.00
1222.096, 16211.00
1223.174, 16033.95
1224.252, 16176.00
1225.330, 15939.00
1226.407, 16068.00
1227.485, 16080.00
1228.562, 15998.00
1229.639, 16079.07
1230.716, 16094.66
1231.793, 16099.00
1232.869, 16151.00
1233.946, 16138.00
1235.022, 16037.00
1236.098, 16170.00
1237.174, 16020.00
1238.250, 16128.00
1239.325, 16034.56
1240.401, 16221.00
1241.476, 15908.00
1242.551, 15914.00
1243.626, 15952.00
1244.701, 15959.00
1245.776, 15980.41
1246.850, 15997.00
1247.924, 16035.00
1248.999, 16007.00
1250.073, 16068.00
1251.146, 16127.00
1252.220, 16044.00
1253.293, 16205.00
1254.367, 16118.78
1255.440, 16084.78
1256.513, 16036.00
1257.586, 16000.00
1258.658, 15969.00
1259.731, 15951.90
1260.803, 15974.00
1261.875, 15932.00
1262.947, 15917.56
1264.019, 15901.29
1265.091, 15848.00
1266.162, 15923.00
1267.234, 15943.00
1268.305, 15975.00
1269.376, 15959.00
1270.447, 15891.00
1271.517, 16118.00
1272.588, 15971.00
1273.658, 16089.00
1274.729, 16142.00
1275.799, 15944.00
1276.868, 16119.00
1277.938, 15918.00
1279.008, 15970.00
1280.077, 16108.00
1281.146, 16053.00
1282.215, 15990.00
1283.284, 16042.00
1284.353, 16039.00
1285.421, 16131.00
1286.490, 16142.00
1287.558, 16017.00
1288.626, 16155.00
1289.694, 16101.00
1290.762, 15878.00
1291.829, 15921.00
1292.897, 15986.00
1293.964, 15980.00
1295.031, 15949.00
1296.098, 15928.61
1297.165, 15970.53
1298.231, 15845.00
1299.298, 16024.00
1300.364, 16059.00
1301.430, 15999.00
1302.496, 16031.00
1303.562, 16093.00
1304.627, 15959.00
1305.693, 15920.00
1306.758, 15982.00
1307.823, 15865.00
1308.888, 16137.00
1309.953, 15919.00
1311.018, 16142.00
1312.082, 16085.00
1313.146, 15918.00
1314.210, 16094.00
1315.274, 15930.00
1316.338, 15894.00
1317.402, 16050.00
1318.465, 16020.00
1319.529, 16057.00
1320.592, 16057.00
1321.655, 16037.24
1322.718, 16135.47
1323.780, 16190.35
1324.843, 16204.21
1325.905, 16054.18
1326.967, 16115.78
1328.029, 16092.57
1329.091, 16065.88
1330.153, 16157.26
1331.214, 16031.08
1332.275, 16120.59
1333.337, 16124.00
1334.398, 16166.81
1335.458, 16124.30
1336.519, 15927.00
1337.580, 15887.00
1338.640, 16098.00
1339.700, 15901.00
1340.760, 16013.00
1341.820, 15871.00
1342.880, 15902.00
1343.939, 15919.00
1344.999, 15895.00
1346.058, 15988.00
1347.117, 15945.00
1348.176, 16077.00
1349.235, 16094.24
1350.293, 16068.00
1351.351, 16148.00
1352.410, 15976.00
1353.468, 15910.00
1354.526, 16021.00
1355.583, 15968.00
1356.641, 15994.00
1357.698, 16084.00
1358.756, 15922.00
1359.813, 15945.57
1360.869, 15977.00
1361.926, 15891.00
1362.983, 15978.00
1364.039, 16089.00
1365.095, 16006.00
1366.152, 15954.00
1367.207, 15989.00
1368.263, 15961.00
1369.319, 16014.00
1370.374, 15954.00
1371.430, 15865.00
1372.485, 15932.00
1373.540, 15873.05
1374.594, 15882.82
1375.649, 15924.00
1376.703, 15930.00
1377.758, 16096.00
1378.812, 16200.00
1379.866, 15967.00
1380.920, 16065.00
1381.973, 15852.00
1383.027, 16039.00
1384.080, 15973.00
1385.133, 16025.00
1386.186, 16144.00
1387.239, 16021.00
1388.291, 16166.00
1389.344, 15930.00
1390.396, 16041.00
1391.448, 16209.00
1392.500, 16048.28
1393.552, 15895.00
1394.604, 15973.00
1395.655, 16068.00
1396.707, 16132.00
1397.758, 15895.00
1398.809, 15955.00
1399.860, 15969.00
1400.910, 15999.00
1401.961, 15968.00
1403.011, 15963.00
1404.061, 15895.00
1405.111, 16097.00
1406.161, 15872.00
1407.211, 15816.00
1408.260, 16020.00
1409.310, 15967.00
1410.359, 15953.00
1411.408, 16037.00
1412.457, 15888.00
1413.506, 16076.00
1414.554, 16144.00
1415.603, 15982.00
1416.651, 16040.00
1417.699, 15895.00
1418.747, 15945.00
1419.794, 15925.00
1420.842, 16047.00
1421.889, 15960.00
1422.937, 15983.00
1423.984, 16097.00
1425.031, 16061.00
1426.077, 16206.00
1427.124, 16037.00
1428.170, 16039.00
1429.217, 16052.00
1430.263, 15988.00
1431.309, 16082.00
1432.354, 15896.00
1433.400, 15898.00
1434.445, 16143.00
1435.491, 16000.00
1436.536, 15848.12
1437.581, 15955.92
1438.625, 16020.37
1439.670, 16043.79
1440.714, 15903.33
1441.759, 15974.50
1442.803, 15960.85
1443.847, 15943.72
1444.890, 16044.65
1445.934, 15928.02
1446.978, 16027.10
1448.021, 16040.06
1449.064, 16092.42
1450.107, 16059.46
1451.150, 16052.85
1452.192, 16131.59
1453.235, 16163.08
1454.277, 16120.28
1455.319, 16175.15
1456.361, 16055.52
1457.403, 16213.00
1458.445, 16022.96
1459.486, 16195.00
1460.528, 16060.00
1461.569, 16128.00
1462.610, 16139.00
1463.651, 16051.29
1464.691, 16107.63
1465.732, 15954.00
1466.772, 16100.00
1467.812, 16121.00
1468.852, 16074.00
1469.892, 16144.00
1470.932, 16082.76
1471.971, 16056.27
1473.011, 16079.00
1474.050, 15910.00
1475.089, 16071.00
1476.128, 15909.00
1477.166, 16140.00
1478.205, 15928.00
1479.243, 16081.00
1480.282, 16150.00
1481.320, 16030.00
1482.357, 16030.00
1483.395, 15869.00
1484.433, 15981.00
1485.470, 16072.00
1486.507, 16075.00
1487.544, 16138.62
1488.581, 16163.41
1489.618, 16165.00
1490.655, 16180.00
1491.691, 16161.00
1492.727, 16113.00
1493.763, 16082.00
1494.799, 16097.00
1495.835, 16112.42
1496.871, 16139.00
1497.906, 16099.00
1498.941, 16236.00
1499.976, 16020.00
1501.011, 15977.00
1502.046, 16086.00
1503.081, 16024.00
1504.115, 16168.00
1505.149, 16103.00
1506.183, 16028.00
1507.217, 16256.00
1508.251, 15898.00
1509.285, 16058.00
1510.318, 16133.00
1511.352, 15820.00
1512.385, 15945.00
1513.418, 16117.00
1514.450, 15951.00
1515.483, 16078.00
1516.516, 16021.00
1517.548, 16229.00
1518.580, 16052.00
1519.612, 16142.00
1520.644, 16083.00
1521.675, 16056.77
1522.707, 16153.58
1523.738, 16207.04
1524.769, 16219.48
1525.800, 16068.03
1526.831, 16128.21
1527.862, 16103.58
1528.892, 16075.47
1529.923, 16165.43
1530.953, 16037.82
1531.983, 16125.92
1533.013, 16127.90
1534.042, 16169.30
1535.072, 16125.36
1536.101, 16107.79
1537.131, 16175.57
1538.160, 16196.08
1539.188, 16142.33
1540.217, 16067.00
1541.246, 16190.00
1542.274, 16147.00
1543.302, 16149.20
1544.330, 16205.00
1545.358, 16107.00
1546.386, 16150.00
1547.413, 16139.00
1548.441, 16402.00
1549.468, 16208.00
1550.495, 16252.00
1551.522, 16642.00
1552.549, 16618.00
1553.575, 16902.00
1554.602, 16985.00
1555.628, 16591.00
1556.654, 16421.00
1557.680, 16156.00
1558.706, 16087.00
1559.731, 16281.00
1560.757, 16028.00
1561.782, 16058.00
1562.807, 16110.00
1563.832, 16003.00
1564.857, 16095.00
1565.881, 15990.19
1566.906, 16083.09
1567.930, 16132.64
1568.954, 16141.18
1569.978, 15985.82
1571.002, 16042.09
1572.025, 16013.56
1573.049, 15981.54
1574.072, 16067.60
1575.095, 15936.09
1576.118, 16003.00
##END=



