##NAMES=Groutite
##RRUFFID=R080004
##IDEAL CHEMISTRY=Mn^3+^O(OH)
##LOCALITY=Roberts mine, Crosby, Minnesota, USA
##OWNER=RRUFF
##SOURCE=Michael Scott
##DESCRIPTION=Black crystalline and in some cases striated.
##STATUS=The identification of this mineral has been confirmed by single-crystal X-ray diffraction.
##URL=rruff.info/R080004
##PIN_ID=M01773
##ORIENTATION=Laser parallel to b* (0 1 0). Fiducial mark perpendicular to laser is parallel to -c [0 0 -1]
109.2180, 16804.00
110.4490, 16656.00
111.6810, 16938.00
112.9120, 17803.00
114.1440, 18843.00
115.3750, 19304.00
116.6060, 19194.00
117.8360, 18533.00
119.0670, 18497.00
120.2980, 19091.00
121.5280, 19436.00
122.7580, 18771.00
123.9880, 17216.00
125.2180, 15916.00
126.4480, 14926.00
127.6780, 14623.00
128.9070, 14656.00
130.1370, 14553.00
131.3660, 14352.00
132.5950, 14669.00
133.8240, 14892.00
135.0530, 14237.00
136.2810, 14660.00
137.5100, 14668.00
138.7380, 14649.00
139.9660, 14781.00
141.1940, 14858.00
142.4220, 14523.00
143.6500, 14232.00
144.8780, 14645.00
146.1050, 14505.00
147.3330, 14086.00
148.5600, 14141.00
149.7870, 13857.00
151.0140, 13834.00
152.2400, 13983.00
153.4670, 13883.00
154.6940, 13725.00
155.9200, 13834.00
157.1460, 13489.00
158.3720, 13474.00
159.5980, 13553.00
160.8240, 13757.00
162.0490, 13364.00
163.2750, 13290.00
164.5000, 13189.00
165.7250, 13080.00
166.9500, 13121.00
168.1750, 13282.00
169.4000, 13270.00
170.6240, 13434.00
171.8490, 13209.00
173.0730, 13122.00
174.2970, 13283.00
175.5210, 13225.00
176.7450, 13355.00
177.9690, 13261.00
179.1920, 13361.00
180.4160, 13210.00
181.6390, 13437.00
182.8620, 13251.00
184.0850, 13134.00
185.3080, 12988.00
186.5300, 12897.00
187.7530, 12945.00
188.9750, 12780.00
190.1970, 12890.00
191.4190, 12863.00
192.6410, 12819.00
193.8630, 12849.00
195.0850, 12855.00
196.3060, 12924.00
197.5280, 12862.00
198.7490, 12906.00
199.9700, 12849.00
201.1910, 12777.00
202.4110, 12670.00
203.6320, 12680.00
204.8530, 12630.00
206.0730, 12622.55
207.2930, 12702.87
208.5130, 12699.00
209.7330, 12844.00
210.9530, 13027.00
212.1720, 13011.00
213.3920, 13170.00
214.6110, 13106.00
215.8300, 13268.00
217.0490, 13364.00
218.2680, 13492.00
219.4860, 13486.00
220.7050, 13395.00
221.9230, 13330.00
223.1420, 13286.00
224.3600, 13112.00
225.5780, 13065.00
226.7950, 13117.00
228.0130, 13128.00
229.2310, 12962.00
230.4480, 12787.00
231.6650, 12817.00
232.8820, 12773.00
234.0990, 12797.00
235.3160, 12822.00
236.5330, 12661.39
237.7490, 12815.90
238.9650, 12895.80
240.1810, 12905.09
241.3980, 12632.30
242.6130, 12723.77
243.8290, 12669.26
245.0450, 12608.76
246.2600, 12751.50
247.4750, 12697.00
248.6910, 12829.00
249.9050, 12865.00
251.1200, 13151.00
252.3350, 13166.00
253.5500, 13551.00
254.7640, 13747.00
255.9780, 14012.00
257.1920, 14544.00
258.4060, 14900.42
259.6200, 15636.00
260.8340, 15901.00
262.0470, 16282.00
263.2600, 16818.00
264.4740, 17081.00
265.6870, 17546.00
266.9000, 17775.00
268.1120, 17843.00
269.3250, 17801.00
270.5370, 17404.00
271.7500, 17137.00
272.9620, 16806.00
274.1740, 16237.00
275.3860, 15891.00
276.5970, 15505.35
277.8090, 15084.56
279.0200, 14730.00
280.2320, 14425.50
281.4430, 14098.00
282.6540, 13929.88
283.8640, 13616.00
285.0750, 13490.00
286.2860, 13300.00
287.4960, 13126.00
288.7060, 12930.00
289.9160, 12843.00
291.1260, 12828.00
292.3360, 12829.00
293.5450, 12766.00
294.7550, 12660.00
295.9640, 12595.00
297.1730, 12590.00
298.3820, 12506.00
299.5910, 12610.00
300.8000, 12681.00
302.0080, 12579.00
303.2170, 12606.00
304.4250, 12496.00
305.6330, 12332.26
306.8410, 12495.58
308.0490, 12584.29
309.2570, 12602.39
310.4640, 12338.43
311.6710, 12438.70
312.8790, 12393.00
314.0860, 12341.32
315.2930, 12492.86
316.4990, 12269.93
317.7060, 12433.00
318.9120, 12286.00
320.1190, 12207.00
321.3250, 12130.16
322.5310, 12312.03
323.7370, 12419.28
324.9420, 12455.92
326.1480, 12210.49
327.3530, 12329.30
328.5580, 12302.13
329.7640, 12268.99
330.9680, 12200.00
332.1730, 12195.00
333.3780, 12307.00
334.5820, 12167.00
335.7870, 12388.00
336.9910, 12338.00
338.1950, 12311.00
339.3990, 12504.00
340.6020, 12647.00
341.8060, 12673.43
343.0090, 12727.00
344.2130, 12758.00
345.4160, 12828.25
346.6190, 12917.00
347.8220, 12981.00
349.0240, 13107.00
350.2270, 13202.00
351.4290, 13298.00
352.6310, 13307.44
353.8330, 13322.03
355.0350, 13264.00
356.2370, 13278.00
357.4390, 13214.00
358.6400, 13212.00
359.8410, 13351.00
361.0430, 13272.00
362.2440, 12972.00
363.4440, 12879.00
364.6450, 12998.00
365.8460, 12918.00
367.0460, 13044.00
368.2460, 13217.00
369.4460, 13315.00
370.6460, 13605.00
371.8460, 13657.00
373.0460, 14221.00
374.2450, 14498.00
375.4440, 15018.00
376.6440, 15270.00
377.8430, 15870.00
379.0410, 16201.29
380.2400, 16373.00
381.4390, 16820.00
382.6370, 17017.00
383.8350, 17005.00
385.0330, 16958.00
386.2310, 16854.97
387.4290, 16826.00
388.6270, 16424.00
389.8240, 15646.00
391.0220, 15303.00
392.2190, 15201.00
393.4160, 15116.00
394.6130, 14958.00
395.8090, 14973.00
397.0060, 15013.00
398.2020, 15218.00
399.3990, 15151.00
400.5950, 15420.00
401.7910, 15529.89
402.9870, 15943.00
404.1820, 15718.00
405.3780, 15752.00
406.5730, 15527.00
407.7680, 15209.00
408.9630, 14844.00
410.1580, 14515.00
411.3530, 14062.00
412.5480, 13752.00
413.7420, 13482.00
414.9360, 13280.00
416.1300, 13048.00
417.3240, 13106.00
418.5180, 12903.00
419.7120, 12805.00
420.9050, 12773.00
422.0990, 12676.00
423.2920, 12581.00
424.4850, 12531.00
425.6780, 12587.00
426.8700, 12606.00
428.0630, 12506.00
429.2550, 12648.00
430.4480, 12622.00
431.6400, 12680.43
432.8320, 12649.00
434.0240, 12738.00
435.2150, 12711.00
436.4070, 12571.00
437.5980, 12709.00
438.7890, 12709.00
439.9800, 12788.00
441.1710, 12820.00
442.3620, 12676.00
443.5530, 12723.00
444.7430, 12638.00
445.9330, 12766.00
447.1230, 12749.00
448.3130, 12732.00
449.5030, 12780.22
450.6930, 12716.00
451.8820, 12780.00
453.0720, 12770.00
454.2610, 12733.00
455.4500, 12788.00
456.6390, 12910.00
457.8270, 12738.00
459.0160, 12632.00
460.2040, 12763.00
461.3930, 12684.00
462.5810, 12888.00
463.7690, 12803.00
464.9560, 12725.00
466.1440, 12865.00
467.3320, 12869.00
468.5190, 12973.00
469.7060, 12921.00
470.8930, 12929.00
472.0800, 12906.00
473.2670, 13091.00
474.4530, 13006.44
475.6400, 13074.97
476.8260, 13118.62
478.0120, 13138.74
479.1980, 13064.83
480.3840, 13112.34
481.5690, 13111.18
482.7550, 13133.00
483.9400, 13154.00
485.1250, 13151.17
486.3100, 13233.31
487.4950, 13190.00
488.6800, 13352.00
489.8640, 13310.00
491.0490, 13298.00
492.2330, 13380.00
493.4170, 13394.00
494.6010, 13437.00
495.7840, 13430.00
496.9680, 13452.00
498.1510, 13466.00
499.3350, 13459.00
500.5180, 13540.00
501.7010, 13601.00
502.8840, 13589.00
504.0660, 13570.00
505.2490, 13704.00
506.4310, 13736.00
507.6130, 13792.00
508.7950, 13802.10
509.9770, 13769.00
511.1590, 13819.00
512.3410, 13946.00
513.5220, 14079.00
514.7030, 14258.00
515.8840, 14422.00
517.0650, 14356.00
518.2460, 14529.00
519.4270, 14522.00
520.6070, 14823.00
521.7870, 14770.00
522.9680, 15070.00
524.1480, 15277.00
525.3280, 15227.00
526.5070, 15637.00
527.6870, 15789.00
528.8660, 16006.00
530.0450, 16323.00
531.2240, 16538.00
532.4030, 17020.00
533.5820, 17301.00
534.7610, 17766.00
535.9390, 18327.00
537.1170, 18736.00
538.2950, 19367.00
539.4730, 20076.00
540.6510, 20683.00
541.8290, 21686.00
543.0060, 22437.00
544.1840, 23173.00
545.3610, 23923.00
546.5380, 24897.00
547.7150, 26378.00
548.8910, 26870.98
550.0680, 27492.00
551.2440, 28161.00
552.4210, 28458.00
553.5970, 28858.00
554.7730, 28930.00
555.9480, 28854.00
557.1240, 28515.00
558.2990, 28370.00
559.4750, 27798.00
560.6500, 27317.00
561.8250, 26796.00
563.0000, 26085.00
564.1740, 25616.00
565.3490, 24774.00
566.5230, 24387.00
567.6970, 23802.00
568.8710, 23249.00
570.0450, 22739.87
571.2190, 22156.68
572.3930, 21685.00
573.5660, 21156.00
574.7390, 20743.00
575.9120, 20511.00
577.0850, 20116.00
578.2580, 19880.00
579.4310, 19653.00
580.6030, 19309.00
581.7750, 19266.00
582.9470, 19002.00
584.1190, 18764.00
585.2910, 18409.00
586.4630, 18366.00
587.6340, 18064.00
588.8060, 17878.00
589.9770, 17893.00
591.1480, 17604.00
592.3190, 17544.00
593.4900, 17430.00
594.6600, 17298.00
595.8310, 17089.00
597.0010, 16910.40
598.1710, 16708.00
599.3410, 16521.00
600.5100, 16358.00
601.6800, 16272.00
602.8500, 16228.00
604.0190, 16204.00
605.1880, 16167.00
606.3570, 16216.00
607.5260, 16015.00
608.6940, 16141.00
609.8630, 16266.00
611.0310, 16166.00
612.1990, 16431.00
613.3670, 16533.00
614.5350, 16703.49
615.7030, 17086.37
616.8700, 17444.09
618.0380, 17778.57
619.2050, 18018.73
620.3720, 18380.31
621.5390, 18693.24
622.7060, 19004.17
623.8720, 19382.57
625.0390, 19740.00
626.2050, 20064.00
627.3710, 20211.00
628.5370, 20272.00
629.7030, 20357.00
630.8680, 20086.00
632.0340, 19891.00
633.1990, 19745.00
634.3640, 19298.00
635.5290, 18611.00
636.6940, 18492.00
637.8590, 17933.00
639.0230, 17591.00
640.1880, 17219.00
641.3520, 16824.00
642.5160, 16424.00
643.6800, 16135.00
644.8440, 15912.00
646.0070, 15724.00
647.1710, 15429.00
648.3340, 15237.00
649.4970, 15219.00
650.6600, 15144.00
651.8220, 14909.00
652.9850, 14856.43
654.1480, 14846.00
655.3100, 14568.00
656.4720, 14475.00
657.6340, 14264.00
658.7960, 14104.00
659.9570, 14244.00
661.1190, 14008.00
662.2800, 13948.00
663.4410, 14185.00
664.6020, 13806.00
665.7630, 13988.63
666.9240, 13887.47
668.0840, 14167.00
669.2450, 13661.00
670.4050, 13885.00
671.5650, 13583.00
672.7250, 13568.00
673.8840, 13629.00
675.0440, 13490.00
676.2030, 13672.00
677.3630, 13499.00
678.5220, 13454.00
679.6810, 13434.24
680.8390, 13404.07
681.9980, 13224.00
683.1560, 13435.00
684.3150, 13209.00
685.4730, 13168.00
686.6310, 13265.00
687.7880, 13279.00
688.9460, 13312.00
690.1030, 13331.07
691.2610, 13297.00
692.4180, 13303.00
693.5750, 13245.00
694.7320, 13170.00
695.8880, 13218.00
697.0450, 13183.00
698.2010, 13153.00
699.3570, 13251.00
700.5130, 13184.00
701.6690, 13002.00
702.8250, 13153.00
703.9800, 13080.85
705.1360, 13142.34
706.2910, 13178.96
707.4460, 13192.04
708.6010, 13111.09
709.7560, 13151.56
710.9100, 13143.37
712.0650, 13133.19
713.2190, 13190.74
714.3730, 13123.47
715.5270, 13179.95
716.6810, 13131.00
717.8340, 13309.00
718.9880, 13102.00
720.1410, 13121.00
721.2940, 13088.00
722.4470, 13108.00
723.6000, 13018.00
724.7520, 13107.00
725.9050, 13220.00
727.0570, 12986.00
728.2090, 12972.00
729.3610, 13207.00
730.5130, 12956.00
731.6650, 13202.00
732.8160, 13154.00
733.9680, 13101.00
735.1190, 13161.00
736.2700, 13084.00
737.4210, 13137.00
738.5710, 13044.00
739.7220, 13079.00
740.8720, 13064.00
742.0220, 13110.00
743.1720, 13127.89
744.3220, 13110.00
745.4720, 13165.00
746.6220, 13166.00
747.7710, 13142.00
748.9200, 12978.00
750.0690, 13111.00
751.2180, 12998.00
752.3670, 13065.00
753.5150, 13219.00
754.6640, 12989.00
755.8120, 13308.00
756.9600, 13141.86
758.1080, 13067.00
759.2560, 13039.00
760.4030, 13059.00
761.5510, 13151.00
762.6980, 13114.36
763.8450, 13267.00
764.9920, 13131.00
766.1390, 12977.00
767.2860, 13013.00
768.4320, 13087.00
769.5780, 13100.00
770.7250, 12979.00
771.8710, 12887.00
773.0160, 12922.00
774.1620, 12949.00
775.3070, 12954.00
776.4530, 13027.00
777.5980, 13045.00
778.7430, 13043.00
779.8880, 13106.00
781.0320, 13104.00
782.1770, 12900.00
783.3210, 13110.28
784.4650, 13120.00
785.6090, 13154.00
786.7530, 13369.00
787.8970, 12888.00
789.0410, 12962.00
790.1840, 12875.00
791.3270, 12919.00
792.4700, 12927.75
793.6130, 13001.00
794.7560, 12940.00
795.8980, 13013.00
797.0410, 12983.00
798.1830, 12986.00
799.3250, 12887.00
800.4670, 12891.00
801.6090, 12817.00
802.7500, 13024.00
803.8920, 12917.00
805.0330, 13035.00
806.1740, 12842.00
807.3150, 12997.94
808.4560, 13004.00
809.5960, 13080.00
810.7370, 13082.00
811.8770, 13043.96
813.0170, 13050.00
814.1570, 12955.00
815.2970, 12932.00
816.4360, 12942.00
817.5760, 12881.00
818.7150, 13014.00
819.8540, 12918.52
820.9930, 13146.00
822.1320, 12880.00
823.2700, 12891.00
824.4090, 13016.00
825.5470, 12953.68
826.6850, 12969.00
827.8230, 13054.00
828.9610, 12969.00
830.0990, 12952.00
831.2360, 12976.00
832.3730, 12995.00
833.5110, 12956.00
834.6480, 13124.00
835.7840, 12902.00
836.9210, 13115.00
838.0580, 12980.00
839.1940, 13029.00
840.3300, 13068.00
841.4660, 12930.00
842.6020, 13034.00
843.7370, 13066.00
844.8730, 13025.00
846.0080, 13134.00
847.1430, 12995.00
848.2780, 13126.00
849.4130, 13015.75
850.5480, 13083.32
851.6830, 13126.02
852.8170, 13145.18
853.9510, 13070.31
855.0850, 13116.86
856.2190, 13114.75
857.3530, 13110.64
858.4860, 13174.27
859.6190, 13118.00
860.7530, 13270.00
861.8860, 13283.00
863.0190, 13290.00
864.1510, 13279.00
865.2840, 13160.00
866.4160, 13304.00
867.5480, 13129.00
868.6800, 13200.53
869.8120, 13273.00
870.9440, 13231.00
872.0760, 13352.00
873.2070, 13303.00
874.3380, 13213.06
875.4690, 13274.48
876.6000, 13311.04
877.7310, 13324.07
878.8610, 13243.06
879.9920, 13283.47
881.1220, 13275.22
882.2520, 13264.98
883.3820, 13322.47
884.5120, 13255.14
885.6410, 13311.56
886.7710, 13318.58
887.9000, 13348.21
889.0290, 13328.88
890.1580, 13294.00
891.2870, 13322.95
892.4150, 13435.00
893.5440, 13389.00
894.6720, 13389.00
895.8000, 13371.00
896.9280, 13494.00
898.0550, 13526.00
899.1830, 13410.00
900.3100, 13318.00
901.4380, 13474.00
902.5650, 13488.00
903.6920, 13468.00
904.8180, 13641.00
905.9450, 13541.00
907.0710, 13474.00
908.1980, 13567.00
909.3240, 13538.00
910.4500, 13386.00
911.5750, 13544.00
912.7010, 13457.40
913.8260, 13526.60
914.9520, 13570.94
916.0770, 13591.74
917.2020, 13518.51
918.3260, 13566.69
919.4510, 13566.22
920.5750, 13563.74
921.7000, 13629.01
922.8240, 13569.45
923.9480, 13633.64
925.0720, 13603.00
926.1950, 13714.00
927.3190, 13717.00
928.4420, 13654.00
929.5650, 13639.00
930.6880, 13626.00
931.8110, 13752.00
932.9330, 13900.00
934.0560, 13653.00
935.1780, 13811.00
936.3000, 13785.00
937.4220, 13677.00
938.5440, 13686.00
939.6650, 13801.00
940.7870, 13650.00
941.9080, 13730.00
943.0290, 13776.00
944.1500, 13710.00
945.2710, 13803.00
946.3910, 13706.00
947.5120, 13895.00
948.6320, 13792.00
949.7520, 13939.00
950.8720, 13645.00
951.9920, 13794.00
953.1110, 13791.00
954.2310, 13796.00
955.3500, 13723.00
956.4690, 13783.00
957.5880, 13802.00
958.7070, 13911.00
959.8250, 13767.00
960.9440, 13857.00
962.0620, 13746.00
963.1800, 13799.00
964.2980, 13740.00
965.4160, 13853.00
966.5330, 13799.00
967.6510, 13763.00
968.7680, 13718.00
969.8850, 13761.00
971.0020, 13729.00
972.1190, 13617.00
973.2360, 13650.00
974.3520, 13820.00
975.4680, 13674.00
976.5840, 13746.00
977.7000, 13869.00
978.8160, 13821.00
979.9320, 13773.00
981.0470, 13861.00
982.1620, 13804.00
983.2770, 13945.00
984.3920, 13741.00
985.5070, 13778.00
986.6220, 13673.00
987.7360, 13718.00
988.8500, 13755.00
989.9640, 13787.00
991.0780, 13801.00
992.1920, 13827.00
993.3050, 13840.00
994.4190, 13881.22
995.5320, 13885.51
996.6450, 13973.00
997.7580, 13892.15
998.8710, 13942.80
999.9830, 13924.00
1001.096, 13860.00
1002.208, 13868.00
1003.320, 13757.00
1004.432, 13900.00
1005.544, 13989.00
1006.655, 13906.00
1007.767, 13762.00
1008.878, 13824.00
1009.989, 13669.00
1011.100, 13711.00
1012.211, 13788.00
1013.321, 13878.00
1014.431, 13882.00
1015.542, 13824.00
1016.652, 13739.00
1017.762, 13851.00
1018.871, 13914.00
1019.981, 13799.00
1021.090, 13820.00
1022.199, 13803.00
1023.308, 13744.00
1024.417, 13796.45
1025.526, 13792.00
1026.635, 13837.00
1027.743, 13860.94
1028.851, 13905.00
1029.959, 13897.00
1031.067, 13899.00
1032.175, 13877.06
1033.282, 14089.00
1034.390, 13927.00
1035.497, 13848.00
1036.604, 14030.00
1037.711, 13987.00
1038.817, 14143.00
1039.924, 14074.00
1041.030, 14076.92
1042.136, 14062.84
1043.242, 14017.00
1044.348, 14035.00
1045.454, 14024.00
1046.559, 14192.00
1047.665, 14054.00
1048.770, 14295.00
1049.875, 14354.00
1050.980, 14330.00
1052.084, 14194.00
1053.189, 14259.00
1054.293, 14413.00
1055.397, 14419.00
1056.501, 14483.00
1057.605, 14378.00
1058.709, 14608.00
1059.812, 14628.00
1060.915, 14768.00
1062.018, 14851.00
1063.121, 14840.00
1064.224, 14990.00
1065.327, 14995.00
1066.429, 15121.57
1067.532, 15162.00
1068.634, 15291.00
1069.736, 15390.00
1070.837, 15306.00
1071.939, 15284.00
1073.041, 15257.00
1074.142, 15215.32
1075.243, 15161.22
1076.344, 15115.00
1077.445, 15047.00
1078.545, 14887.00
1079.646, 14854.00
1080.746, 14759.00
1081.846, 14728.00
1082.946, 14690.00
1084.046, 14569.00
1085.145, 14444.17
1086.245, 14444.12
1087.344, 14424.88
1088.443, 14387.73
1089.542, 14262.19
1090.640, 14263.71
1091.739, 14222.18
1092.837, 14184.30
1093.936, 14219.77
1095.034, 14136.04
1096.132, 14181.70
1097.229, 14183.56
1098.327, 14213.65
1099.424, 14200.39
1100.521, 14178.00
1101.618, 14303.00
1102.715, 14128.00
1103.812, 14246.00
1104.908, 14260.00
1106.005, 14123.00
1107.101, 14270.00
1108.197, 14162.00
1109.293, 14160.00
1110.389, 14214.00
1111.484, 14309.00
1112.579, 14120.00
1113.675, 14251.00
1114.770, 14254.00
1115.864, 14160.00
1116.959, 14165.00
1118.053, 14061.00
1119.148, 14174.00
1120.242, 14083.00
1121.336, 14111.00
1122.430, 14219.00
1123.523, 14126.00
1124.617, 14054.00
1125.710, 14302.00
1126.803, 14252.00
1127.896, 14057.00
1128.989, 14139.00
1130.081, 14189.00
1131.174, 14159.00
1132.266, 14132.00
1133.358, 14079.00
1134.450, 14110.00
1135.542, 14099.91
1136.634, 14008.00
1137.725, 14127.00
1138.816, 14246.00
1139.907, 14250.00
1140.998, 14190.00
1142.089, 14408.00
1143.179, 14262.00
1144.270, 14169.00
1145.360, 14380.00
1146.450, 14250.00
1147.540, 14285.00
1148.630, 14386.00
1149.719, 14191.00
1150.809, 14314.00
1151.898, 14383.00
1152.987, 14381.29
1154.076, 14474.00
1155.164, 14470.00
1156.253, 14363.00
1157.341, 14289.00
1158.429, 14377.00
1159.517, 14237.00
1160.605, 14228.00
1161.693, 14483.00
1162.780, 14376.00
1163.868, 14478.00
1164.955, 14456.00
1166.042, 14449.00
1167.128, 14469.92
1168.215, 14345.00
1169.302, 14430.00
1170.388, 14422.00
1171.474, 14357.00
1172.560, 14464.00
1173.646, 14408.00
1174.731, 14321.00
1175.817, 14347.00
1176.902, 14329.00
1177.987, 14473.00
1179.072, 14390.00
1180.157, 14454.00
1181.241, 14343.00
1182.326, 14347.00
1183.410, 14472.00
1184.494, 14283.00
1185.578, 14378.00
1186.662, 14424.00
1187.745, 14325.00
1188.828, 14420.00
1189.912, 14432.00
1190.995, 14420.00
1192.078, 14369.00
1193.160, 14318.00
1194.243, 14256.00
1195.325, 14259.71
1196.407, 14441.00
1197.489, 14272.00
1198.571, 14334.00
1199.653, 14343.00
1200.734, 14290.00
1201.816, 14191.00
1202.897, 14238.00
1203.978, 14255.00
1205.058, 14365.00
1206.139, 14334.00
1207.220, 14328.00
1208.300, 14240.00
1209.380, 14242.20
1210.460, 14186.00
1211.540, 14222.00
1212.619, 14203.00
1213.699, 14230.00
1214.778, 14276.00
1215.857, 14282.00
1216.936, 14285.54
1218.015, 14277.41
1219.093, 14273.00
1220.172, 14227.00
1221.250, 14235.00
1222.328, 14208.00
1223.406, 14493.00
1224.483, 14390.00
1225.561, 14310.00
1226.638, 14069.00
1227.715, 14153.00
1228.792, 14151.00
1229.869, 14214.00
1230.946, 14252.00
1232.022, 14130.00
1233.099, 14244.00
1234.175, 14529.00
1235.251, 14186.00
1236.327, 14043.43
1237.402, 14117.83
1238.478, 14167.37
1239.553, 14193.36
1240.628, 14125.33
1241.703, 14178.71
1242.778, 14183.43
1243.852, 14186.15
1244.927, 14256.62
1246.001, 14202.24
1247.075, 14271.62
1248.149, 14291.60
1249.223, 14194.00
1250.296, 14068.00
1251.370, 14106.00
1252.443, 14219.00
1253.516, 13981.00
1254.589, 14114.00
1255.662, 14254.00
1256.734, 14094.00
1257.806, 14369.00
1258.879, 14023.77
1259.951, 14075.38
1261.023, 14102.12
1262.094, 14105.34
1263.166, 14014.52
1264.237, 14045.12
1265.308, 14027.07
1266.379, 14007.02
1267.450, 14054.71
1268.521, 13977.58
1269.591, 14024.20
1270.661, 14268.00
1271.731, 14136.70
1272.801, 14209.00
1273.871, 14195.00
1274.941, 14112.00
1276.010, 14117.00
1277.079, 14001.00
1278.148, 14028.00
1279.217, 14144.00
1280.286, 14078.00
1281.354, 14028.00
1282.423, 13907.00
1283.491, 13961.20
1284.559, 14048.00
1285.627, 14074.00
1286.695, 14144.00
1287.762, 14156.67
1288.829, 14159.19
1289.897, 14152.00
1290.964, 14127.00
1292.030, 14082.00
1293.097, 14048.00
1294.163, 14053.00
1295.230, 14095.00
1296.296, 14043.00
1297.362, 14091.00
1298.428, 14148.00
1299.493, 14088.00
1300.559, 14129.00
1301.624, 14234.00
1302.689, 14242.99
1303.754, 14246.53
1304.819, 14309.00
1305.883, 14199.00
1306.948, 14092.00
1308.012, 14060.00
1309.076, 14059.00
1310.140, 14065.75
1311.203, 14181.78
1312.267, 14241.84
1313.330, 14248.96
1314.393, 14044.52
1315.456, 14113.26
1316.519, 14072.52
1317.582, 14027.30
1318.644, 14134.50
1319.707, 13960.83
1320.769, 14065.62
1321.831, 14059.26
1322.892, 14103.78
1323.954, 14038.13
1325.015, 14056.00
1326.077, 13971.00
1327.138, 13920.00
1328.199, 13888.00
1329.259, 14112.00
1330.320, 14054.00
1331.380, 13968.00
1332.441, 14044.00
1333.501, 13927.00
1334.560, 14048.00
1335.620, 14004.00
1336.680, 13990.00
1337.739, 13903.00
1338.798, 14061.00
1339.857, 13918.00
1340.916, 13897.00
1341.975, 14015.00
1343.033, 13959.00
1344.091, 14000.00
1345.149, 13956.00
1346.207, 13947.00
1347.265, 13957.00
1348.323, 14086.00
1349.380, 13997.00
1350.437, 14064.46
1351.495, 13981.00
1352.551, 14052.00
1353.608, 14010.00
1354.665, 13892.00
1355.721, 14017.00
1356.777, 14007.00
1357.833, 14010.00
1358.889, 14096.00
1359.945, 14058.00
1361.000, 13980.00
1362.056, 14009.00
1363.111, 13863.00
1364.166, 14050.00
1365.221, 13969.00
1366.275, 13813.00
1367.330, 13981.00
1368.384, 13922.28
1369.438, 14014.00
1370.492, 14051.00
1371.546, 13930.00
1372.599, 14048.00
1373.653, 14021.00
1374.706, 13890.00
1375.759, 13955.00
1376.812, 13795.00
1377.865, 13989.00
1378.917, 13934.00
1379.969, 14059.00
1381.022, 13863.00
1382.074, 13876.00
1383.125, 13886.00
1384.177, 14132.00
1385.229, 13892.00
1386.280, 14027.00
1387.331, 14051.00
1388.382, 13980.00
1389.433, 13970.00
1390.483, 14062.00
1391.534, 13953.00
1392.584, 13890.00
1393.634, 13956.00
1394.684, 13872.00
1395.734, 13940.00
1396.783, 14072.00
1397.833, 14038.00
1398.882, 14058.00
1399.931, 13881.00
1400.980, 13954.00
1402.028, 14049.00
1403.077, 14024.00
1404.125, 14120.00
1405.173, 14011.00
1406.221, 14000.00
1407.269, 13935.00
1408.317, 13969.00
1409.364, 13920.00
1410.412, 13922.85
1411.459, 14046.03
1412.506, 14113.24
1413.552, 14127.51
1414.599, 13930.21
1415.645, 14006.10
1416.692, 13972.51
1417.738, 13934.43
1418.784, 14048.78
1419.829, 13882.26
1420.875, 13994.18
1421.920, 13994.96
1422.965, 14046.61
1424.010, 13988.10
1425.055, 13963.62
1426.100, 14099.00
1427.144, 13998.00
1428.188, 14104.00
1429.233, 14053.00
1430.277, 14080.00
1431.320, 14111.00
1432.364, 14109.00
1433.407, 14146.78
1434.451, 14172.00
1435.494, 14203.00
1436.536, 14105.00
1437.579, 14124.00
1438.622, 14230.00
1439.664, 14343.00
1440.706, 14099.00
1441.748, 14176.00
1442.790, 14261.00
1443.832, 14155.00
1444.873, 14425.00
1445.915, 14416.00
1446.956, 14132.00
1447.997, 14205.00
1449.037, 14249.00
1450.078, 14183.00
1451.118, 14275.00
1452.159, 14201.00
1453.199, 14096.00
1454.239, 14019.00
1455.278, 14164.00
1456.318, 14190.00
1457.357, 14353.00
1458.396, 14118.00
1459.435, 14055.00
1460.474, 14175.00
1461.513, 14128.00
1462.551, 14087.00
1463.590, 14158.00
1464.628, 14067.00
1465.666, 14217.00
1466.704, 14153.75
1467.741, 14190.03
1468.779, 14031.00
1469.816, 14221.00
1470.853, 14020.00
1471.890, 13983.00
1472.927, 14049.00
1473.963, 14044.00
1474.999, 14097.00
1476.036, 14018.00
1477.072, 14047.00
1478.108, 14195.00
1479.143, 14125.07
1480.179, 14352.00
1481.214, 14142.00
1482.249, 14210.00
1483.284, 14271.00
1484.319, 14012.00
1485.353, 14137.00
1486.388, 14097.00
1487.422, 14084.00
1488.456, 13913.00
1489.490, 13957.00
1490.524, 14079.00
1491.557, 13912.24
1492.591, 14044.09
1493.624, 14119.97
1494.657, 14142.90
1495.690, 13954.28
1496.722, 14038.83
1497.755, 14013.90
1498.787, 13984.49
1499.819, 14107.49
1500.851, 13949.63
1501.883, 14070.21
1502.915, 14079.64
1503.946, 14139.94
1504.977, 14090.09
1506.008, 14074.26
1507.039, 14168.62
1508.070, 14201.96
1509.101, 14208.00
1510.131, 14101.00
1511.161, 14187.00
1512.191, 14174.00
1513.221, 14109.00
1514.251, 14166.00
1515.280, 13996.00
1516.309, 14088.73
1517.339, 14120.00
1518.367, 14189.00
1519.396, 14102.00
1520.425, 14124.00
1521.453, 14122.71
1522.481, 14095.00
1523.510, 14082.00
1524.537, 14098.00
1525.565, 14001.00
1526.593, 14183.00
1527.620, 14290.00
1528.647, 14132.00
1529.674, 13979.00
1530.701, 14204.00
1531.728, 14113.00
1532.754, 14093.00
1533.780, 14321.00
1534.807, 14176.00
1535.832, 14151.00
1536.858, 14251.00
1537.884, 14111.00
1538.909, 14206.00
1539.934, 14197.00
1540.959, 14163.00
1541.984, 14216.00
1543.009, 14226.00
1544.034, 14215.00
1545.058, 14181.00
1546.082, 14231.00
1547.106, 14216.00
1548.130, 14315.00
1549.153, 14417.00
1550.177, 14565.00
1551.200, 14630.00
1552.223, 14800.00
1553.246, 14884.00
1554.269, 14912.00
1555.291, 14500.00
1556.314, 14710.00
1557.336, 14250.00
1558.358, 14291.00
1559.380, 14166.00
1560.402, 14222.00
1561.423, 14188.00
1562.444, 14283.00
1563.466, 14200.00
1564.486, 14277.00
1565.507, 14360.00
1566.528, 14230.00
1567.548, 14309.00
1568.569, 14246.00
1569.589, 14159.00
1570.609, 14164.00
1571.628, 14142.36
1572.648, 14193.00
1573.667, 14189.00
1574.686, 14156.00
1575.705, 14221.00
1576.724, 14274.00
##END=



