##NAMES=Groutite
##RRUFFID=R080004
##IDEAL CHEMISTRY=Mn^3+^O(OH)
##LOCALITY=Roberts mine, Crosby, Minnesota, USA
##OWNER=RRUFF
##SOURCE=Michael Scott
##DESCRIPTION=Black crystalline and in some cases striated.
##STATUS=The identification of this mineral has been confirmed by single-crystal X-ray diffraction.
##URL=rruff.info/R080004
##PIN_ID=M01041
##ORIENTATION=Laser parallel to c* (0 0 1). Fiducial mark perpendicular to laser is parallel to -a [-1 0 0]
101.9390, 9323.000
103.1740, 9351.000
104.4090, 9709.000
105.6440, 11445.00
106.8790, 10507.00
108.1140, 10476.00
109.3490, 10192.00
110.5830, 10195.00
111.8180, 10273.00
113.0520, 10605.00
114.2860, 11571.00
115.5200, 12051.00
116.7530, 12065.00
117.9870, 11625.00
119.2200, 11655.00
120.4530, 12392.00
121.6860, 12880.00
122.9190, 12193.00
124.1520, 11132.00
125.3850, 9831.000
126.6170, 8993.000
127.8490, 8864.000
129.0810, 8787.000
130.3130, 8855.000
131.5450, 8881.000
132.7770, 8831.000
134.0080, 8911.000
135.2390, 8834.000
136.4710, 9213.000
137.7020, 9405.000
138.9320, 9610.000
140.1630, 9674.523
141.3930, 9821.540
142.6240, 9940.220
143.8540, 10031.96
145.0840, 10016.31
146.3140, 10139.33
147.5440, 10154.87
148.7730, 10094.12
150.0020, 10004.98
151.2320, 9888.855
152.4610, 9665.454
153.6900, 9580.710
154.9180, 9440.501
156.1470, 9330.000
157.3750, 9062.000
158.6040, 8889.000
159.8320, 8639.282
161.0600, 8658.123
162.2870, 8648.598
163.5150, 8612.158
164.7420, 8468.378
165.9700, 8463.217
167.1970, 8402.525
168.4240, 8339.557
169.6510, 8353.948
170.8770, 8323.841
172.1040, 8297.917
173.3300, 8164.644
174.5560, 8170.027
175.7820, 8119.843
177.0080, 8067.381
178.2340, 8092.280
179.4590, 7974.653
180.6850, 7998.325
181.9100, 8040.000
183.1350, 7936.000
184.3600, 8060.000
185.5850, 8033.000
186.8090, 8060.046
188.0340, 7985.220
189.2580, 8086.000
190.4820, 8037.000
191.7060, 7949.000
192.9300, 7984.386
194.1530, 7945.204
195.3770, 7999.000
196.6000, 7958.000
197.8230, 8073.000
199.0460, 8118.000
200.2690, 8152.000
201.4910, 7969.136
202.7140, 8036.699
203.9360, 8075.857
205.1580, 8088.138
206.3800, 7993.040
207.6020, 8036.599
208.8240, 8024.591
210.0450, 8010.302
211.2670, 8073.376
212.4880, 7993.895
213.7090, 8055.740
214.9300, 8061.170
216.1510, 8092.419
217.3710, 8067.757
218.5920, 8060.366
219.8120, 8108.900
221.0320, 8126.467
222.2520, 8095.368
223.4720, 8128.257
224.6910, 8046.818
225.9110, 8165.000
227.1300, 8064.000
228.3490, 8197.000
229.5680, 8169.000
230.7870, 8214.000
232.0050, 8245.000
233.2240, 8307.000
234.4420, 8348.000
235.6600, 8401.000
236.8780, 8389.000
238.0960, 8572.000
239.3140, 8712.000
240.5310, 8713.000
241.7490, 8854.000
242.9660, 9012.000
244.1830, 9195.000
245.4000, 9426.000
246.6160, 9517.000
247.8330, 9741.000
249.0490, 10367.00
250.2660, 10739.00
251.4820, 10731.00
252.6980, 10570.00
253.9130, 10781.00
255.1290, 10941.00
256.3440, 11032.00
257.5600, 11145.00
258.7750, 11132.28
259.9900, 11155.00
261.2040, 10998.00
262.4190, 10784.00
263.6330, 10589.00
264.8480, 10538.00
266.0620, 10333.81
267.2760, 10073.00
268.4900, 10020.00
269.7030, 9907.000
270.9170, 9705.000
272.1300, 9544.000
273.3430, 9472.000
274.5560, 9495.000
275.7690, 9446.000
276.9820, 9439.000
278.1940, 9369.000
279.4070, 9360.000
280.6190, 9308.000
281.8310, 9466.000
283.0430, 9460.000
284.2550, 9324.000
285.4660, 9393.000
286.6770, 9219.000
287.8890, 9293.000
289.1000, 9094.000
290.3110, 9138.000
291.5210, 9108.000
292.7320, 8872.000
293.9420, 8997.000
295.1530, 8816.000
296.3630, 8871.000
297.5730, 8791.000
298.7830, 8777.710
299.9920, 8814.000
301.2020, 8824.000
302.4110, 8757.000
303.6200, 8844.000
304.8290, 8767.000
306.0380, 8874.000
307.2470, 8846.000
308.4550, 8850.000
309.6630, 8954.000
310.8720, 8923.710
312.0800, 8953.760
313.2880, 8914.000
314.4950, 9028.000
315.7030, 8955.000
316.9100, 9126.000
318.1170, 9030.000
319.3240, 9150.000
320.5310, 9101.000
321.7380, 9137.368
322.9450, 9128.000
324.1510, 9227.000
325.3570, 9283.431
326.5630, 9371.000
327.7690, 9335.000
328.9750, 9509.000
330.1810, 9419.000
331.3860, 9535.000
332.5910, 9487.000
333.7960, 9463.000
335.0010, 9543.000
336.2060, 9592.000
337.4110, 9750.000
338.6150, 9843.000
339.8200, 9941.000
341.0240, 9975.000
342.2280, 10073.00
343.4320, 10381.00
344.6350, 10520.47
345.8390, 10798.61
347.0420, 11100.00
348.2450, 11370.00
349.4480, 11859.00
350.6510, 12178.00
351.8540, 12679.09
353.0560, 12918.52
354.2590, 13639.00
355.4610, 13433.00
356.6630, 13712.00
357.8650, 14046.00
359.0670, 13953.00
360.2680, 13768.00
361.4700, 13473.00
362.6710, 13084.00
363.8720, 12767.00
365.0730, 12411.00
366.2740, 12107.58
367.4740, 11652.00
368.6750, 11564.00
369.8750, 11327.00
371.0750, 11147.00
372.2750, 11124.00
373.4750, 10880.00
374.6740, 11079.00
375.8740, 11013.00
377.0730, 10939.00
378.2720, 11295.00
379.4710, 11286.00
380.6700, 11482.00
381.8690, 11803.00
383.0670, 12099.00
384.2660, 12257.00
385.4640, 12335.00
386.6620, 12438.84
387.8600, 12526.00
389.0570, 12409.00
390.2550, 12234.00
391.4520, 12047.00
392.6490, 11614.00
393.8460, 11500.00
395.0430, 11167.00
396.2400, 11031.00
397.4370, 10864.00
398.6330, 10699.00
399.8290, 10606.00
401.0250, 10383.00
402.2210, 10153.00
403.4170, 9938.000
404.6130, 9875.000
405.8080, 9759.084
407.0030, 9842.000
408.1980, 9733.000
409.3930, 9708.958
410.5880, 9822.000
411.7830, 9519.000
412.9770, 9545.000
414.1720, 9349.000
415.3660, 9392.000
416.5600, 9424.000
417.7530, 9345.000
418.9470, 9343.000
420.1410, 9376.000
421.3340, 9324.695
422.5270, 9364.000
423.7200, 9292.000
424.9130, 9265.000
426.1060, 9259.000
427.2980, 9219.000
428.4900, 9231.060
429.6830, 9279.000
430.8750, 9258.000
432.0670, 9225.000
433.2580, 9255.082
434.4500, 9329.000
435.6410, 9215.000
436.8320, 9302.000
438.0240, 9334.000
439.2140, 9255.000
440.4050, 9380.000
441.5960, 9471.000
442.7860, 9519.000
443.9760, 9416.000
445.1670, 9453.295
446.3560, 9435.345
447.5460, 9464.000
448.7360, 9382.000
449.9250, 9553.000
451.1150, 9451.000
452.3040, 9369.000
453.4930, 9545.000
454.6810, 9658.000
455.8700, 9563.000
457.0590, 9652.000
458.2470, 9606.000
459.4350, 9668.000
460.6230, 9728.000
461.8110, 9756.000
462.9980, 9796.000
464.1860, 9906.000
465.3730, 9779.000
466.5600, 9796.000
467.7470, 9906.592
468.9340, 9865.868
470.1210, 9911.537
471.3080, 9969.000
472.4940, 9954.000
473.6800, 10074.00
474.8660, 10141.00
476.0520, 10315.00
477.2380, 10300.00
478.4230, 10449.00
479.6090, 10501.00
480.7940, 10612.00
481.9790, 10647.00
483.1640, 10914.00
484.3490, 10885.00
485.5330, 10886.00
486.7180, 11228.00
487.9020, 11301.00
489.0860, 11281.00
490.2700, 11442.00
491.4540, 11640.00
492.6370, 11648.00
493.8210, 11662.00
495.0040, 11653.00
496.1870, 11645.00
497.3700, 11710.96
498.5530, 11777.61
499.7360, 11875.00
500.9180, 12021.00
502.1000, 12169.00
503.2830, 12371.00
504.4650, 12578.00
505.6460, 12745.00
506.8280, 13080.00
508.0100, 13436.07
509.1910, 13804.91
510.3720, 14333.00
511.5530, 14827.00
512.7340, 15365.00
513.9150, 16202.00
515.0950, 16718.00
516.2760, 17574.00
517.4560, 18196.00
518.6360, 19079.00
519.8160, 20116.00
520.9950, 20922.00
522.1750, 21855.00
523.3540, 22648.00
524.5340, 23635.00
525.7130, 24365.00
526.8920, 24735.00
528.0700, 25634.00
529.2490, 26031.00
530.4270, 26611.00
531.6060, 26499.00
532.7840, 26424.00
533.9620, 26398.00
535.1390, 26256.00
536.3170, 25933.00
537.4940, 26030.00
538.6720, 25769.00
539.8490, 25643.00
541.0260, 25688.00
542.2030, 25807.00
543.3790, 26064.00
544.5560, 26624.00
545.7320, 26817.00
546.9080, 27113.00
548.0840, 27964.00
549.2600, 28607.00
550.4360, 29594.00
551.6110, 30426.00
552.7860, 30519.00
553.9620, 30903.00
555.1370, 31152.00
556.3110, 31309.00
557.4860, 31223.00
558.6610, 30940.00
559.8350, 30004.00
561.0090, 28890.00
562.1830, 27838.00
563.3570, 26489.00
564.5310, 25213.00
565.7040, 23838.00
566.8780, 22536.00
568.0510, 21358.00
569.2240, 20461.00
570.3970, 19504.00
571.5700, 18741.00
572.7420, 17962.00
573.9150, 17246.00
575.0870, 16576.00
576.2590, 16168.00
577.4310, 15751.00
578.6030, 15306.00
579.7740, 14962.00
580.9460, 14776.00
582.1170, 14614.00
583.2880, 14320.00
584.4590, 14068.00
585.6300, 14023.00
586.8010, 13757.00
587.9710, 13763.00
589.1410, 13719.00
590.3110, 13619.00
591.4810, 13510.00
592.6510, 13637.00
593.8210, 13528.00
594.9900, 13691.00
596.1600, 13699.00
597.3290, 13765.00
598.4980, 14006.00
599.6670, 14147.00
600.8350, 14309.00
602.0040, 14696.00
603.1720, 15009.68
604.3400, 15518.50
605.5080, 15989.00
606.6760, 16465.00
607.8440, 17244.00
609.0120, 18062.40
610.1790, 19235.00
611.3460, 20214.00
612.5130, 21350.00
613.6800, 22868.00
614.8470, 24215.00
616.0130, 25557.00
617.1800, 27385.00
618.3460, 28740.00
619.5120, 29760.00
620.6780, 30757.00
621.8440, 31551.00
623.0090, 31874.00
624.1750, 31495.00
625.3400, 30806.00
626.5050, 30060.00
627.6700, 28635.00
628.8350, 27516.30
629.9990, 25919.00
631.1640, 24743.00
632.3280, 23198.00
633.4920, 22014.00
634.6560, 20965.00
635.8200, 19834.00
636.9840, 18895.00
638.1470, 18258.00
639.3100, 17298.00
640.4730, 16646.00
641.6360, 15903.00
642.7990, 15488.00
643.9620, 14881.00
645.1240, 14398.00
646.2870, 14210.00
647.4490, 13664.34
648.6110, 13496.12
649.7730, 13299.51
650.9340, 13076.21
652.0960, 12745.34
653.2570, 12553.33
654.4180, 12305.74
655.5790, 12055.89
656.7400, 11946.00
657.9010, 11797.00
659.0620, 11723.00
660.2220, 11698.00
661.3820, 11507.00
662.5420, 11420.00
663.7020, 11378.00
664.8620, 11258.00
666.0210, 11135.00
667.1810, 10973.00
668.3400, 11048.00
669.4990, 10797.00
670.6580, 10908.00
671.8170, 10731.00
672.9750, 10711.00
674.1340, 10694.00
675.2920, 10611.00
676.4500, 10584.98
677.6080, 10554.23
678.7660, 10483.00
679.9230, 10512.00
681.0810, 10466.00
682.2380, 10459.96
683.3950, 10443.06
684.5520, 10388.00
685.7090, 10366.00
686.8660, 10357.00
688.0220, 10329.21
689.1780, 10283.00
690.3340, 10290.00
691.4900, 10244.00
692.6460, 10192.00
693.8020, 10303.00
694.9570, 10229.00
696.1130, 10181.00
697.2680, 10289.00
698.4230, 10221.00
699.5780, 10157.00
700.7320, 10130.00
701.8870, 10141.00
703.0410, 10159.00
704.1950, 10177.00
705.3490, 10159.00
706.5030, 10227.00
707.6570, 10185.00
708.8110, 10206.00
709.9640, 10123.00
711.1170, 10210.00
712.2700, 10223.00
713.4230, 10306.00
714.5760, 10229.00
715.7280, 10204.00
716.8810, 10140.00
718.0330, 10264.00
719.1850, 10154.00
720.3370, 10227.00
721.4890, 10155.00
722.6400, 10186.54
723.7920, 10127.00
724.9430, 10203.00
726.0940, 10267.00
727.2450, 10169.00
728.3960, 10206.00
729.5460, 10218.00
730.6970, 10200.00
731.8470, 10132.00
732.9970, 10164.00
734.1470, 10065.00
735.2970, 9996.000
736.4460, 10231.00
737.5960, 10104.56
738.7450, 10138.39
739.8940, 10037.00
741.0430, 10126.00
742.1920, 10004.00
743.3410, 10066.00
744.4890, 10076.00
745.6370, 10090.00
746.7850, 10002.00
747.9330, 10045.00
749.0810, 10078.00
750.2290, 9956.000
751.3760, 10046.00
752.5240, 10114.00
753.6710, 9981.000
754.8180, 10016.00
755.9650, 9971.000
757.1110, 10082.00
758.2580, 10030.00
759.4040, 9983.000
760.5510, 9971.000
761.6970, 10040.00
762.8420, 10005.75
763.9880, 10026.49
765.1340, 10023.00
766.2790, 9856.808
767.4240, 9955.388
768.5690, 10008.52
769.7140, 10018.65
770.8590, 9856.980
772.0030, 9917.161
773.1480, 9888.431
774.2920, 9856.059
775.4360, 9947.464
776.5800, 9810.783
777.7240, 9900.226
778.8670, 9899.408
780.0110, 9939.898
781.1540, 9890.937
782.2970, 9869.604
783.4400, 9937.758
784.5830, 9956.363
785.7250, 9897.107
786.8680, 9940.229
788.0100, 9870.000
789.1520, 9816.000
790.2940, 9690.000
791.4360, 9857.000
792.5780, 9999.000
793.7190, 9748.000
794.8600, 9929.000
796.0010, 9906.000
797.1420, 9835.985
798.2830, 9742.000
799.4240, 9759.000
800.5640, 9807.000
801.7050, 9753.000
802.8450, 9881.000
803.9850, 9862.000
805.1250, 9720.000
806.2640, 9743.000
807.4040, 9665.000
808.5430, 9971.000
809.6820, 9826.000
810.8210, 9794.000
811.9600, 9778.000
813.0990, 9715.000
814.2370, 9833.000
815.3760, 9840.000
816.5140, 9802.000
817.6520, 9726.000
818.7900, 9821.000
819.9270, 9666.000
821.0650, 9740.000
822.2020, 9704.000
823.3390, 9757.000
824.4760, 9734.000
825.6130, 9712.000
826.7500, 9797.000
827.8870, 9758.000
829.0230, 9702.000
830.1590, 9760.000
831.2950, 9750.000
832.4310, 9720.000
833.5670, 9745.000
834.7030, 9709.000
835.8380, 9721.000
836.9730, 9678.000
838.1080, 9669.000
839.2430, 9645.422
840.3780, 9696.000
841.5130, 9592.000
842.6470, 9613.000
843.7810, 9591.000
844.9150, 9766.000
846.0490, 9744.000
847.1830, 9634.000
848.3170, 9750.000
849.4500, 9670.000
850.5830, 9672.000
851.7160, 9676.000
852.8490, 9766.000
853.9820, 9699.000
855.1150, 9740.000
856.2470, 9598.000
857.3800, 9742.000
858.5120, 9578.000
859.6440, 9732.000
860.7760, 9741.000
861.9070, 9601.000
863.0390, 9705.000
864.1700, 9668.432
865.3010, 9805.000
866.4320, 9697.000
867.5630, 9633.607
868.6940, 9746.226
869.8240, 9813.390
870.9540, 9837.550
872.0850, 9689.914
873.2150, 9764.119
874.3450, 9749.417
875.4740, 9731.062
876.6040, 9836.492
877.7330, 9713.828
878.8620, 9817.287
879.9910, 9830.482
881.1200, 9884.989
882.2490, 9850.039
883.3770, 9881.000
884.5060, 9727.000
885.6340, 9805.000
886.7620, 9873.000
887.8900, 9853.000
889.0180, 9766.000
890.1450, 9909.000
891.2730, 9769.000
892.4000, 9819.000
893.5270, 9756.000
894.6540, 9889.000
895.7810, 9833.000
896.9070, 9928.000
898.0340, 9901.000
899.1600, 9670.757
900.2860, 9789.123
901.4120, 9862.043
902.5380, 9891.960
903.6630, 9750.060
904.7890, 9830.021
905.9140, 9821.062
907.0390, 9808.459
908.1640, 9919.632
909.2890, 9802.720
910.4130, 9911.918
911.5380, 9930.864
912.6620, 9991.109
913.7860, 9961.898
914.9100, 10015.00
916.0340, 9908.000
917.1580, 9909.000
918.2810, 9901.000
919.4040, 9945.000
920.5280, 9888.000
921.6510, 10019.00
922.7730, 9964.000
923.8960, 9978.000
925.0180, 9942.000
926.1410, 10004.00
927.2630, 9902.000
928.3850, 9907.000
929.5070, 9982.000
930.6280, 10069.00
931.7500, 9980.000
932.8710, 9966.000
933.9920, 10015.00
935.1130, 10090.00
936.2340, 10030.00
937.3550, 9968.000
938.4760, 10011.00
939.5960, 10060.00
940.7160, 10045.04
941.8360, 10010.00
942.9560, 10065.00
944.0760, 10082.00
945.1950, 10071.00
946.3150, 10150.00
947.4340, 10064.00
948.5530, 9989.000
949.6720, 10074.00
950.7900, 10037.00
951.9090, 10044.00
953.0270, 9988.000
954.1460, 10170.00
955.2640, 10011.00
956.3820, 10143.00
957.4990, 10174.00
958.6170, 10193.00
959.7340, 10034.00
960.8520, 10075.00
961.9690, 10136.00
963.0860, 10113.00
964.2020, 10141.00
965.3190, 10086.00
966.4350, 10043.00
967.5520, 10139.00
968.6680, 10100.00
969.7840, 10194.00
970.8990, 10072.00
972.0150, 10233.00
973.1310, 10199.00
974.2460, 10014.00
975.3610, 10240.00
976.4760, 10145.00
977.5910, 10252.00
978.7050, 10224.00
979.8200, 10094.00
980.9340, 10238.00
982.0480, 10221.00
983.1620, 10121.00
984.2760, 10050.00
985.3900, 10206.00
986.5030, 10213.00
987.6160, 10317.00
988.7300, 10283.00
989.8430, 10237.00
990.9550, 10220.00
992.0680, 10244.00
993.1810, 10286.00
994.2930, 10177.00
995.4050, 10176.00
996.5170, 10287.00
997.6290, 10352.00
998.7410, 10182.00
999.8520, 10336.00
1000.964, 10174.00
1002.075, 10190.00
1003.186, 10122.00
1004.297, 10113.00
1005.407, 10261.00
1006.518, 10099.00
1007.628, 10165.00
1008.738, 10185.89
1009.848, 10371.00
1010.958, 10161.00
1012.068, 10235.00
1013.178, 10066.00
1014.287, 10203.00
1015.396, 10028.94
1016.505, 10130.21
1017.614, 10186.03
1018.723, 10198.85
1019.831, 10039.87
1020.940, 10102.74
1022.048, 10076.70
1023.156, 10047.01
1024.264, 10141.11
1025.372, 10007.11
1026.479, 10099.24
1027.587, 10101.11
1028.694, 10144.29
1029.801, 10098.01
1030.908, 10079.37
1032.015, 10020.00
1033.121, 10104.00
1034.228, 10113.00
1035.334, 10142.00
1036.440, 10155.61
1037.546, 10274.00
1038.652, 10227.00
1039.758, 10127.00
1040.863, 10322.00
1041.968, 10115.00
1043.074, 10186.00
1044.178, 10202.00
1045.283, 10253.00
1046.388, 10264.00
1047.492, 10268.00
1048.597, 10348.00
1049.701, 10374.00
1050.805, 10319.00
1051.909, 10228.00
1053.012, 10390.00
1054.116, 10479.00
1055.219, 10356.00
1056.322, 10317.00
1057.425, 10392.00
1058.528, 10336.00
1059.631, 10392.00
1060.733, 10437.00
1061.836, 10298.00
1062.938, 10374.00
1064.040, 10503.00
1065.142, 10399.00
1066.243, 10483.00
1067.345, 10526.00
1068.446, 10448.00
1069.547, 10475.00
1070.648, 10373.00
1071.749, 10502.00
1072.850, 10450.00
1073.951, 10390.00
1075.051, 10420.00
1076.151, 10514.00
1077.251, 10508.00
1078.351, 10529.00
1079.451, 10474.00
1080.550, 10539.00
1081.650, 10544.00
1082.749, 10551.00
1083.848, 10502.00
1084.947, 10554.00
1086.046, 10419.00
1087.144, 10689.00
1088.243, 10601.00
1089.341, 10527.00
1090.439, 10613.00
1091.537, 10423.48
1092.635, 10537.98
1093.732, 10607.04
1094.830, 10633.09
1095.927, 10487.33
1097.024, 10563.43
1098.121, 10550.61
1099.218, 10534.15
1100.314, 10641.46
1101.411, 10520.69
1102.507, 10626.04
1103.603, 10586.00
1104.699, 10640.00
1105.795, 10631.00
1106.890, 10663.00
1107.986, 10685.00
1109.081, 10649.00
1110.176, 10652.00
1111.271, 10737.00
1112.366, 10693.31
1113.461, 10710.00
1114.555, 10702.00
1115.649, 10640.00
1116.744, 10685.00
1117.838, 10696.00
1118.931, 10687.18
1120.025, 10665.00
1121.119, 10711.00
1122.212, 10666.00
1123.305, 10692.53
1124.398, 10702.91
1125.491, 10793.00
1126.584, 10699.00
1127.676, 10716.00
1128.768, 10648.00
1129.861, 10674.00
1130.953, 10656.00
1132.044, 10662.01
1133.136, 10699.87
1134.228, 10717.00
1135.319, 10773.00
1136.410, 10842.00
1137.501, 10870.00
1138.592, 10884.00
1139.683, 10808.00
1140.773, 10809.00
1141.864, 10849.00
1142.954, 10932.00
1144.044, 10844.00
1145.134, 10793.00
1146.224, 10836.00
1147.313, 10789.00
1148.402, 10968.00
1149.492, 10876.00
1150.581, 10939.00
1151.670, 10819.00
1152.758, 10951.00
1153.847, 10978.00
1154.935, 10848.00
1156.024, 10920.00
1157.112, 11030.00
1158.200, 11050.00
1159.287, 10852.00
1160.375, 10984.00
1161.462, 10951.69
1162.550, 10980.84
1163.637, 10986.00
1164.724, 11091.00
1165.810, 11024.00
1166.897, 11024.00
1167.983, 10921.00
1169.070, 10900.00
1170.156, 11030.00
1171.242, 10995.00
1172.327, 11097.00
1173.413, 11058.88
1174.499, 11030.00
1175.584, 11017.00
1176.669, 11001.00
1177.754, 11076.00
1178.839, 10986.00
1179.923, 10926.55
1181.008, 11032.60
1182.092, 11093.20
1183.176, 11110.80
1184.260, 10956.59
1185.344, 11024.24
1186.428, 11002.97
1187.511, 10978.06
1188.595, 11076.93
1189.678, 10954.00
1190.761, 10951.00
1191.843, 10885.05
1192.926, 10925.00
1194.009, 10864.00
1195.091, 10911.00
1196.173, 11018.00
1197.255, 11014.00
1198.337, 11047.00
1199.419, 11021.00
1200.500, 11037.00
1201.582, 11031.00
1202.663, 11051.00
1203.744, 11122.00
1204.825, 10963.00
1205.905, 11038.00
1206.986, 10896.00
1208.066, 11120.00
1209.146, 10849.00
1210.226, 11012.00
1211.306, 10938.00
1212.386, 11043.00
1213.466, 11038.00
1214.545, 11119.00
1215.624, 10960.00
1216.703, 10856.00
1217.782, 10908.00
1218.861, 10901.58
1219.939, 10830.00
1221.018, 11001.00
1222.096, 10924.00
1223.174, 10822.00
1224.252, 10952.00
1225.330, 10994.00
1226.407, 10853.00
1227.485, 10731.00
1228.562, 10887.00
1229.639, 10797.00
1230.716, 10939.00
1231.793, 10872.00
1232.869, 10959.00
1233.946, 10814.00
1235.022, 10853.00
1236.098, 10880.00
1237.174, 10830.00
1238.250, 10865.00
1239.325, 10870.00
1240.401, 10810.83
1241.476, 10913.22
1242.551, 10970.17
1243.626, 10984.12
1244.701, 10826.26
1245.776, 10890.26
1246.850, 10865.34
1247.924, 10836.78
1248.999, 10932.00
1250.073, 10799.13
1251.146, 10860.00
1252.220, 10844.19
1253.293, 10889.00
1254.367, 10821.00
1255.440, 10791.00
1256.513, 10799.00
1257.586, 10835.00
1258.658, 10855.00
1259.731, 10794.00
1260.803, 10847.00
1261.875, 10778.00
1262.947, 10778.00
1264.019, 10621.00
1265.091, 10786.00
1266.162, 10688.00
1267.234, 10899.00
1268.305, 10785.00
1269.376, 10745.00
1270.447, 10617.00
1271.517, 10825.00
1272.588, 10791.00
1273.658, 10748.00
1274.729, 10713.00
1275.799, 10689.00
1276.868, 10677.00
1277.938, 10565.00
1279.008, 10490.00
1280.077, 10511.00
1281.146, 10634.00
1282.215, 10634.00
1283.284, 10613.00
1284.353, 10555.00
1285.421, 10576.00
1286.490, 10567.30
1287.558, 10515.00
1288.626, 10597.00
1289.694, 10486.00
1290.762, 10492.00
1291.829, 10470.10
1292.897, 10535.00
1293.964, 10437.00
1295.031, 10380.00
1296.098, 10426.00
1297.165, 10305.00
1298.231, 10365.00
1299.298, 10394.00
1300.364, 10388.00
1301.430, 10274.00
1302.496, 10432.00
1303.562, 10290.00
1304.627, 10292.00
1305.693, 10467.00
1306.758, 10342.00
1307.823, 10386.98
1308.888, 10276.00
1309.953, 10306.00
1311.018, 10324.00
1312.082, 10220.00
1313.146, 10243.00
1314.210, 10320.00
1315.274, 10273.00
1316.338, 10224.84
1317.402, 10238.00
1318.465, 10209.88
1319.529, 10200.00
1320.592, 10216.00
1321.655, 10199.00
1322.718, 10228.00
1323.780, 10178.00
1324.843, 10149.00
1325.905, 10138.00
1326.967, 10170.00
1328.029, 10094.00
1329.091, 10186.00
1330.153, 10205.00
1331.214, 10045.00
1332.275, 10065.00
1333.337, 10115.00
1334.398, 10162.00
1335.458, 10123.00
1336.519, 10109.00
1337.580, 9980.000
1338.640, 9981.181
1339.700, 9954.299
1340.760, 9946.000
1341.820, 9982.000
1342.880, 10028.00
1343.939, 10123.00
1344.999, 10042.00
1346.058, 10016.00
1347.117, 9930.000
1348.176, 10054.00
1349.235, 10073.00
1350.293, 9959.000
1351.351, 10031.00
1352.410, 9885.000
1353.468, 10047.00
1354.526, 9931.000
1355.583, 9987.000
1356.641, 10060.00
1357.698, 9992.076
1358.756, 10026.85
1359.813, 9957.000
1360.869, 9938.000
1361.926, 9931.000
1362.983, 9768.000
1364.039, 9929.000
1365.095, 9885.000
1366.152, 10003.00
1367.207, 9953.000
1368.263, 9916.000
1369.319, 9996.000
1370.374, 9924.000
1371.430, 9967.000
1372.485, 10044.00
1373.540, 9942.000
1374.594, 9846.000
1375.649, 10062.00
1376.703, 9961.000
1377.758, 9944.000
1378.812, 9966.000
1379.866, 9931.037
1380.920, 9944.786
1381.973, 9974.000
1383.027, 9953.000
1384.080, 10042.00
1385.133, 10051.00
1386.186, 9948.000
1387.239, 10008.00
1388.291, 9846.000
1389.344, 9890.763
1390.396, 10018.00
1391.448, 9843.000
1392.500, 10089.00
1393.552, 9918.000
1394.604, 9865.000
1395.655, 9979.000
1396.707, 9816.000
1397.758, 9895.000
1398.809, 9896.110
1399.860, 9738.083
1400.910, 9926.000
1401.961, 9908.000
1403.011, 9902.000
1404.061, 9950.312
1405.111, 9902.579
1406.161, 9910.000
1407.211, 9872.000
1408.260, 9795.000
1409.310, 9834.000
1410.359, 10178.00
1411.408, 10034.77
1412.457, 9893.000
1413.506, 10061.00
1414.554, 9863.000
1415.603, 9980.000
1416.651, 9867.000
1417.699, 9886.000
1418.747, 9907.000
1419.794, 10005.00
1420.842, 10028.00
1421.889, 9822.000
1422.937, 9849.000
1423.984, 9929.000
1425.031, 9909.000
1426.077, 9958.000
1427.124, 10065.00
1428.170, 9940.000
1429.217, 10104.67
1430.263, 10054.89
1431.309, 10154.00
1432.354, 10098.00
1433.400, 10084.51
1434.445, 10061.17
1435.491, 10028.00
1436.536, 9948.000
1437.581, 9947.000
1438.625, 9889.000
1439.670, 10025.00
1440.714, 9936.000
1441.759, 9944.000
1442.803, 9953.000
1443.847, 9923.000
1444.890, 9825.000
1445.934, 10034.00
1446.978, 10102.00
1448.021, 9726.000
1449.064, 9965.000
1450.107, 9837.669
1451.150, 10010.00
1452.192, 9861.000
1453.235, 9841.000
1454.277, 9972.000
1455.319, 10039.00
1456.361, 10057.00
1457.403, 10011.00
1458.445, 9901.000
1459.486, 9851.000
1460.528, 9825.000
1461.569, 9849.000
1462.610, 10005.00
1463.651, 10003.00
1464.691, 9892.000
1465.732, 9972.000
1466.772, 9868.000
1467.812, 9858.000
1468.852, 9893.000
1469.892, 9860.000
1470.932, 9871.081
1471.971, 9847.000
1473.011, 9871.000
1474.050, 9846.642
1475.089, 9853.570
1476.128, 9831.000
1477.166, 9896.000
1478.205, 10001.00
1479.243, 9990.000
1480.282, 10013.43
1481.320, 10060.00
1482.357, 9944.000
1483.395, 9949.000
1484.433, 9838.000
1485.470, 9968.000
1486.507, 9801.000
1487.544, 9912.000
1488.581, 9961.000
1489.618, 9946.000
1490.655, 9968.000
1491.691, 9974.000
1492.727, 9965.000
1493.763, 9959.000
1494.799, 9898.000
1495.835, 9836.000
1496.871, 9949.000
1497.906, 9868.000
1498.941, 9930.000
1499.976, 9969.000
1501.011, 9940.000
1502.046, 9982.055
1503.081, 9983.777
1504.115, 9996.000
1505.149, 9986.000
1506.183, 9980.000
1507.217, 9981.026
1508.251, 9968.604
1509.285, 9971.000
1510.318, 9945.332
1511.352, 9931.980
1512.385, 9910.000
1513.418, 9973.000
1514.450, 9895.000
1515.483, 9948.800
1516.516, 10050.00
1517.548, 9977.000
1518.580, 9956.000
1519.612, 9903.000
1520.644, 9907.491
1521.675, 9921.710
1522.707, 9951.000
1523.738, 9903.562
1524.769, 10005.19
1525.800, 10061.37
1526.831, 10074.55
1527.862, 9915.927
1528.892, 9979.153
1529.923, 9953.471
1530.953, 9924.145
1531.983, 10018.59
1533.013, 9884.960
1534.042, 9977.450
1535.072, 9979.674
1536.101, 10023.21
1537.131, 9977.290
1538.160, 9959.001
1539.188, 10030.20
1540.217, 10051.85
1541.246, 9995.630
1542.274, 9988.000
1543.302, 9971.000
1544.330, 9902.000
1545.358, 10044.00
1546.386, 10077.00
1547.413, 10026.00
1548.441, 9954.000
1549.468, 10146.00
1550.495, 10157.00
1551.522, 10228.00
1552.549, 10510.00
1553.575, 10630.00
1554.602, 10549.00
1555.628, 10043.00
1556.654, 10117.00
1557.680, 10094.00
1558.706, 9953.000
1559.731, 9997.000
1560.757, 9965.000
1561.782, 9998.000
1562.807, 9988.000
1563.832, 9986.000
1564.857, 9978.528
1565.881, 9965.693
1566.906, 9961.000
1567.930, 9966.000
1568.954, 9945.542
1569.978, 10047.58
1571.002, 10104.18
1572.025, 10117.77
1573.049, 9959.555
1574.072, 10023.19
1575.095, 9997.923
1576.118, 9969.007
##END=



