##NAMES=Groutite
##RRUFFID=R080004
##IDEAL CHEMISTRY=Mn^3+^O(OH)
##LOCALITY=Roberts mine, Crosby, Minnesota, USA
##OWNER=RRUFF
##SOURCE=Michael Scott
##DESCRIPTION=Black crystalline and in some cases striated.
##STATUS=The identification of this mineral has been confirmed by single-crystal X-ray diffraction.
##URL=rruff.info/R080004
##PIN_ID=M01773
##ORIENTATION=Laser parallel to b* (0 1 0). Fiducial mark perpendicular to laser is parallel to -c [0 0 -1]
109.2180, 18330.00
110.4490, 16620.00
111.6810, 17114.58
112.9120, 18466.09
114.1440, 19123.36
115.3750, 19525.00
116.6060, 19216.00
117.8360, 18182.00
119.0670, 17650.00
120.2980, 17231.00
121.5280, 16756.77
122.7580, 16335.14
123.9880, 15891.14
125.2180, 15425.94
126.4480, 14876.13
127.6780, 14612.00
128.9070, 14641.00
130.1370, 14486.12
131.3660, 14452.67
132.5950, 14482.00
133.8240, 14502.00
135.0530, 14488.00
136.2810, 14629.00
137.5100, 14813.00
138.7380, 15584.00
139.9660, 15413.00
141.1940, 15110.00
142.4220, 14733.00
143.6500, 14413.00
144.8780, 14553.00
146.1050, 14710.00
147.3330, 14332.00
148.5600, 13957.00
149.7870, 13936.00
151.0140, 14073.00
152.2400, 14249.00
153.4670, 14056.00
154.6940, 13746.00
155.9200, 13808.00
157.1460, 13755.00
158.3720, 13975.00
159.5980, 13406.94
160.8240, 13674.43
162.0490, 13818.81
163.2750, 13846.69
164.5000, 13409.15
165.7250, 13572.61
166.9500, 13495.21
168.1750, 13407.95
169.4000, 13656.00
170.6240, 13286.16
171.8490, 13528.90
173.0730, 13538.00
174.2970, 13501.84
175.5210, 13744.00
176.7450, 13603.00
177.9690, 13639.00
179.1920, 13838.00
180.4160, 14345.00
181.6390, 14477.00
182.8620, 14423.00
184.0850, 13695.00
185.3080, 13408.00
186.5300, 13415.00
187.7530, 13268.00
188.9750, 13120.00
190.1970, 13146.00
191.4190, 12851.31
192.6410, 12963.47
193.8630, 13019.68
195.0850, 13022.93
196.3060, 12814.64
197.5280, 12879.51
198.7490, 12834.92
199.9700, 12785.84
201.1910, 12889.18
202.4110, 12711.67
203.6320, 12812.59
204.8530, 12802.36
206.0730, 12884.00
207.2930, 12831.00
208.5130, 12697.00
209.7330, 12839.00
210.9530, 12730.00
212.1720, 12773.00
213.3920, 12664.00
214.6110, 12896.00
215.8300, 13005.00
217.0490, 13164.00
218.2680, 13337.00
219.4860, 13119.00
220.7050, 13245.00
221.9230, 13334.00
223.1420, 13339.00
224.3600, 13391.33
225.5780, 13386.00
226.7950, 13313.00
228.0130, 13344.00
229.2310, 13121.00
230.4480, 12979.00
231.6650, 12993.00
232.8820, 13033.00
234.0990, 12861.00
235.3160, 12775.00
236.5330, 12796.00
237.7490, 12624.00
238.9650, 12557.00
240.1810, 12556.10
241.3980, 12584.00
242.6130, 12612.00
243.8290, 12526.00
245.0450, 12687.00
246.2600, 12415.00
247.4750, 12461.00
248.6910, 12672.00
249.9050, 12925.00
251.1200, 13255.00
252.3350, 13335.36
253.5500, 13201.00
254.7640, 13565.00
255.9780, 13832.00
257.1920, 14020.00
258.4060, 14505.00
259.6200, 14742.00
260.8340, 15067.00
262.0470, 15353.00
263.2600, 15685.49
264.4740, 16031.96
265.6870, 16266.00
266.9000, 16668.00
268.1120, 16714.00
269.3250, 16833.00
270.5370, 16818.00
271.7500, 16429.00
272.9620, 16134.00
274.1740, 15785.00
275.3860, 15557.00
276.5970, 15235.00
277.8090, 14945.00
279.0200, 14679.16
280.2320, 14416.00
281.4430, 14133.00
282.6540, 13820.00
283.8640, 13566.00
285.0750, 13324.00
286.2860, 13115.00
287.4960, 13064.00
288.7060, 13009.00
289.9160, 12845.97
291.1260, 12773.00
292.3360, 12654.00
293.5450, 12592.00
294.7550, 12630.00
295.9640, 12523.00
297.1730, 12460.00
298.3820, 12490.59
299.5910, 12673.00
300.8000, 12527.00
302.0080, 12569.00
303.2170, 12599.00
304.4250, 12500.00
305.6330, 12435.00
306.8410, 12670.00
308.0490, 12594.00
309.2570, 12723.00
310.4640, 12716.00
311.6710, 12650.00
312.8790, 12429.00
314.0860, 12637.00
315.2930, 12716.00
316.4990, 12680.00
317.7060, 12398.00
318.9120, 12528.00
320.1190, 12444.00
321.3250, 12480.00
322.5310, 12371.00
323.7370, 12342.00
324.9420, 12379.00
326.1480, 12533.00
327.3530, 12448.00
328.5580, 12540.00
329.7640, 12371.00
330.9680, 12379.74
332.1730, 12311.00
333.3780, 12341.00
334.5820, 12452.00
335.7870, 12531.00
336.9910, 12691.00
338.1950, 12688.00
339.3990, 12713.00
340.6020, 12797.00
341.8060, 13137.00
343.0090, 12978.46
344.2130, 13334.66
345.4160, 13220.00
346.6190, 13459.00
347.8220, 13636.71
349.0240, 13724.00
350.2270, 13933.00
351.4290, 13900.00
352.6310, 13856.00
353.8330, 13885.00
355.0350, 13900.00
356.2370, 13779.00
357.4390, 13628.00
358.6400, 13571.00
359.8410, 13589.00
361.0430, 13424.00
362.2440, 13409.00
363.4440, 13223.00
364.6450, 13405.00
365.8460, 13445.00
367.0460, 13457.39
368.2460, 13746.00
369.4460, 13661.00
370.6460, 13659.00
371.8460, 13930.00
373.0460, 14405.00
374.2450, 14639.00
375.4440, 15169.00
376.6440, 15536.00
377.8430, 15972.00
379.0410, 16323.00
380.2400, 16570.00
381.4390, 17021.00
382.6370, 17194.04
383.8350, 17791.00
385.0330, 17274.00
386.2310, 17143.00
387.4290, 16450.00
388.6270, 16295.00
389.8240, 16294.00
391.0220, 15908.00
392.2190, 15805.00
393.4160, 15720.00
394.6130, 15850.00
395.8090, 16063.00
397.0060, 16184.00
398.2020, 16391.00
399.3990, 16617.00
400.5950, 17061.00
401.7910, 17278.00
402.9870, 17523.00
404.1820, 17805.00
405.3780, 17813.00
406.5730, 17491.00
407.7680, 16941.00
408.9630, 16508.00
410.1580, 15761.00
411.3530, 15176.00
412.5480, 14678.64
413.7420, 14310.00
414.9360, 13805.00
416.1300, 13512.00
417.3240, 13409.00
418.5180, 13158.83
419.7120, 13059.00
420.9050, 12970.00
422.0990, 12859.00
423.2920, 12804.00
424.4850, 12787.00
425.6780, 12712.84
426.8700, 12682.00
428.0630, 12673.00
429.2550, 12646.00
430.4480, 12730.00
431.6400, 12707.00
432.8320, 12766.00
434.0240, 12725.00
435.2150, 12726.00
436.4070, 12688.00
437.5980, 12698.00
438.7890, 12782.00
439.9800, 12694.00
441.1710, 12703.00
442.3620, 12611.00
443.5530, 12805.00
444.7430, 12676.00
445.9330, 12659.00
447.1230, 12765.00
448.3130, 12708.00
449.5030, 12858.00
450.6930, 12713.00
451.8820, 12808.00
453.0720, 12782.04
454.2610, 12684.00
455.4500, 12733.00
456.6390, 12750.00
457.8270, 12711.00
459.0160, 12780.00
460.2040, 12852.00
461.3930, 12878.03
462.5810, 12878.28
463.7690, 13103.00
464.9560, 12733.00
466.1440, 13044.00
467.3320, 12795.00
468.5190, 12850.00
469.7060, 13031.00
470.8930, 12833.00
472.0800, 13055.00
473.2670, 12936.00
474.4530, 13114.00
475.6400, 12835.00
476.8260, 12961.00
478.0120, 13101.00
479.1980, 13169.00
480.3840, 13113.00
481.5690, 13183.00
482.7550, 12989.00
483.9400, 13061.00
485.1250, 13121.00
486.3100, 13138.00
487.4950, 13250.00
488.6800, 13190.00
489.8640, 13367.00
491.0490, 13374.00
492.2330, 13349.00
493.4170, 13348.00
494.6010, 13335.00
495.7840, 13385.00
496.9680, 13490.00
498.1510, 13525.00
499.3350, 13509.00
500.5180, 13486.00
501.7010, 13479.00
502.8840, 13619.00
504.0660, 13712.00
505.2490, 13702.00
506.4310, 13578.00
507.6130, 13727.00
508.7950, 13673.00
509.9770, 13874.00
511.1590, 13700.00
512.3410, 13720.00
513.5220, 13931.00
514.7030, 13991.00
515.8840, 14028.00
517.0650, 14070.00
518.2460, 14172.00
519.4270, 14404.00
520.6070, 14327.00
521.7870, 14388.00
522.9680, 14622.00
524.1480, 14644.00
525.3280, 14867.21
526.5070, 15004.87
527.6870, 15294.00
528.8660, 15351.00
530.0450, 15605.00
531.2240, 15859.00
532.4030, 16097.33
533.5820, 16464.00
534.7610, 16782.00
535.9390, 17060.00
537.1170, 17573.00
538.2950, 17829.00
539.4730, 18330.00
540.6510, 19116.00
541.8290, 20043.00
543.0060, 20282.00
544.1840, 21025.00
545.3610, 21504.00
546.5380, 22118.00
547.7150, 22947.00
548.8910, 23514.00
550.0680, 23937.00
551.2440, 24664.00
552.4210, 24768.45
553.5970, 24911.67
554.7730, 24961.19
555.9480, 24918.29
557.1240, 24719.43
558.2990, 24558.72
559.4750, 24476.00
560.6500, 24250.00
561.8250, 23516.67
563.0000, 23191.59
564.1740, 22844.43
565.3490, 22475.78
566.5230, 22022.82
567.6970, 21679.13
568.8710, 21291.66
570.0450, 20902.38
571.2190, 20598.00
572.3930, 20045.00
573.5660, 19684.00
574.7390, 19506.00
575.9120, 19247.00
577.0850, 18975.00
578.2580, 18709.00
579.4310, 18483.00
580.6030, 18458.00
581.7750, 18392.00
582.9470, 18130.00
584.1190, 18000.00
585.2910, 17839.20
586.4630, 17546.00
587.6340, 17532.00
588.8060, 17356.00
589.9770, 17248.00
591.1480, 17002.00
592.3190, 16936.00
593.4900, 16981.00
594.6600, 16731.00
595.8310, 16706.00
597.0010, 16708.00
598.1710, 16344.00
599.3410, 16402.00
600.5100, 16322.00
601.6800, 16291.00
602.8500, 16262.00
604.0190, 16203.00
605.1880, 16324.00
606.3570, 16264.00
607.5260, 16506.00
608.6940, 16414.00
609.8630, 16542.00
611.0310, 16850.00
612.1990, 17066.00
613.3670, 17404.00
614.5350, 17678.00
615.7030, 18100.00
616.8700, 18639.00
618.0380, 19105.00
619.2050, 19678.20
620.3720, 20301.00
621.5390, 20857.00
622.7060, 21436.00
623.8720, 22024.00
625.0390, 22475.85
626.2050, 23127.00
627.3710, 23231.00
628.5370, 23592.00
629.7030, 23666.00
630.8680, 23432.00
632.0340, 22974.00
633.1990, 22710.00
634.3640, 21876.00
635.5290, 21247.00
636.6940, 20712.00
637.8590, 19937.00
639.0230, 19411.00
640.1880, 18911.00
641.3520, 18238.00
642.5160, 17846.00
643.6800, 17446.00
644.8440, 17029.00
646.0070, 16525.00
647.1710, 16446.00
648.3340, 15926.00
649.4970, 15830.00
650.6600, 15473.00
651.8220, 15504.00
652.9850, 15241.00
654.1480, 15055.00
655.3100, 15011.00
656.4720, 14775.00
657.6340, 14722.00
658.7960, 14602.00
659.9570, 14470.00
661.1190, 14382.00
662.2800, 14283.00
663.4410, 14202.00
664.6020, 14118.00
665.7630, 14119.00
666.9240, 14130.00
668.0840, 13966.00
669.2450, 14004.00
670.4050, 13933.00
671.5650, 13712.00
672.7250, 13727.00
673.8840, 13615.00
675.0440, 13606.00
676.2030, 13437.00
677.3630, 13538.00
678.5220, 13497.00
679.6810, 13527.00
680.8390, 13538.00
681.9980, 13406.00
683.1560, 13617.00
684.3150, 13429.00
685.4730, 13362.00
686.6310, 13352.00
687.7880, 13473.00
688.9460, 13374.00
690.1030, 13218.00
691.2610, 13340.00
692.4180, 13229.00
693.5750, 13430.00
694.7320, 13280.00
695.8880, 13300.00
697.0450, 13249.00
698.2010, 13264.00
699.3570, 13129.00
700.5130, 13213.00
701.6690, 13124.00
702.8250, 13296.00
703.9800, 13158.00
705.1360, 13280.00
706.2910, 13181.00
707.4460, 13071.00
708.6010, 13118.00
709.7560, 13129.00
710.9100, 12983.00
712.0650, 13222.00
713.2190, 13228.00
714.3730, 13218.00
715.5270, 13278.00
716.6810, 13075.00
717.8340, 13153.00
718.9880, 13189.00
720.1410, 13025.00
721.2940, 13120.00
722.4470, 13093.00
723.6000, 13118.76
724.7520, 13165.00
725.9050, 13212.00
727.0570, 13139.00
728.2090, 13125.00
729.3610, 13214.00
730.5130, 13042.00
731.6650, 13247.00
732.8160, 13135.00
733.9680, 13176.00
735.1190, 13304.00
736.2700, 13101.00
737.4210, 13006.00
738.5710, 13035.00
739.7220, 13143.00
740.8720, 13203.00
742.0220, 13166.00
743.1720, 13197.17
744.3220, 13424.00
745.4720, 13117.00
746.6220, 13097.00
747.7710, 12990.00
748.9200, 13192.00
750.0690, 13206.00
751.2180, 13063.00
752.3670, 13149.23
753.5150, 13039.26
754.6640, 13251.00
755.8120, 13053.00
756.9600, 13416.00
758.1080, 13285.38
759.2560, 13206.00
760.4030, 13201.00
761.5510, 13163.06
762.6980, 13160.00
763.8450, 13134.68
764.9920, 13083.00
766.1390, 13053.00
767.2860, 13048.00
768.4320, 12927.00
769.5780, 13040.00
770.7250, 13103.00
771.8710, 13055.00
773.0160, 13318.00
774.1620, 13155.93
775.3070, 13259.00
776.4530, 12904.86
777.5980, 13035.50
778.7430, 13110.18
779.8880, 13131.90
781.0320, 12942.06
782.1770, 13025.41
783.3210, 12999.28
784.4650, 12968.65
785.6090, 13090.45
786.7530, 12931.38
787.8970, 13050.76
789.0410, 13058.99
790.1840, 13118.08
791.3270, 13067.02
792.4700, 13049.99
793.6130, 12890.00
794.7560, 12962.00
795.8980, 12962.00
797.0410, 13271.00
798.1830, 13173.63
799.3250, 13182.21
800.4670, 13020.00
801.6090, 13142.00
802.7500, 12831.00
803.8920, 13034.00
805.0330, 12979.00
806.1740, 13047.00
807.3150, 12926.00
808.4560, 13043.00
809.5960, 12814.00
810.7370, 13003.00
811.8770, 12888.00
813.0170, 13029.00
814.1570, 13021.00
815.2970, 12934.00
816.4360, 13100.00
817.5760, 13027.00
818.7150, 13105.00
819.8540, 13061.00
820.9930, 13005.00
822.1320, 12962.00
823.2700, 12931.15
824.4090, 13004.00
825.5470, 12946.00
826.6850, 12917.00
827.8230, 13071.00
828.9610, 12974.00
830.0990, 13116.00
831.2360, 12902.00
832.3730, 13012.00
833.5110, 12980.00
834.6480, 13216.00
835.7840, 13012.00
836.9210, 13017.00
838.0580, 13031.00
839.1940, 13033.00
840.3300, 13001.15
841.4660, 13012.57
842.6020, 12967.00
843.7370, 12997.00
844.8730, 13080.00
846.0080, 13063.00
847.1430, 13182.00
848.2780, 13021.00
849.4130, 13129.00
850.5480, 13004.00
851.6830, 13205.00
852.8170, 13154.00
853.9510, 13228.00
855.0850, 13334.00
856.2190, 13257.29
857.3530, 13176.00
858.4860, 13129.00
859.6190, 13227.00
860.7530, 13081.00
861.8860, 13184.00
863.0190, 13103.00
864.1510, 13202.00
865.2840, 13164.00
866.4160, 13234.00
867.5480, 13197.00
868.6800, 13201.52
869.8120, 13274.00
870.9440, 13243.00
872.0760, 13199.00
873.2070, 13337.00
874.3380, 13351.00
875.4690, 13400.00
876.6000, 13339.00
877.7310, 13357.00
878.8610, 13362.76
879.9920, 13332.00
881.1220, 13359.00
882.2520, 13401.00
883.3820, 13365.00
884.5120, 13437.00
885.6410, 13457.56
886.7710, 13542.00
887.9000, 13459.00
889.0290, 13485.10
890.1580, 13467.74
891.2870, 13355.00
892.4150, 13424.00
893.5440, 13420.00
894.6720, 13411.00
895.8000, 13436.00
896.9280, 13456.00
898.0550, 13565.00
899.1830, 13593.00
900.3100, 13536.00
901.4380, 13579.00
902.5650, 13552.00
903.6920, 13532.00
904.8180, 13574.00
905.9450, 13532.00
907.0710, 13446.00
908.1980, 13551.72
909.3240, 13721.00
910.4500, 13660.00
911.5750, 13648.00
912.7010, 13583.00
913.8260, 13482.00
914.9520, 13579.00
916.0770, 13696.00
917.2020, 13541.00
918.3260, 13625.00
919.4510, 13624.00
920.5750, 13857.00
921.7000, 13686.00
922.8240, 13881.00
923.9480, 13609.00
925.0720, 13665.00
926.1950, 13840.00
927.3190, 13688.00
928.4420, 13829.00
929.5650, 13745.00
930.6880, 13787.00
931.8110, 13861.00
932.9330, 13826.00
934.0560, 13637.01
935.1780, 13768.04
936.3000, 13843.12
937.4220, 13865.23
938.5440, 13675.79
939.6650, 13759.53
940.7870, 13733.80
941.9080, 13703.57
943.0290, 13825.76
944.1500, 13667.08
945.2710, 13786.86
946.3910, 13795.47
947.5120, 13854.97
948.6320, 13804.30
949.7520, 13787.66
950.8720, 13881.20
951.9920, 13913.74
953.1110, 13850.39
954.2310, 13860.00
955.3500, 13752.00
956.4690, 13826.43
957.5880, 13912.00
958.7070, 13914.00
959.8250, 13934.00
960.9440, 14014.00
962.0620, 14026.00
963.1800, 13867.00
964.2980, 14064.00
965.4160, 13901.00
966.5330, 13743.00
967.6510, 13705.00
968.7680, 13841.00
969.8850, 13802.00
971.0020, 13961.00
972.1190, 13847.00
973.2360, 13826.29
974.3520, 13841.72
975.4680, 13759.00
976.5840, 13748.00
977.7000, 13912.00
978.8160, 13786.00
979.9320, 13925.00
981.0470, 13911.17
982.1620, 14029.00
983.2770, 13946.00
984.3920, 13836.00
985.5070, 13911.00
986.6220, 13902.81
987.7360, 13689.00
988.8500, 13998.00
989.9640, 13877.00
991.0780, 13838.00
992.1920, 13983.00
993.3050, 13794.00
994.4190, 13990.00
995.5320, 14086.00
996.6450, 13953.04
997.7580, 13788.00
998.8710, 13904.00
999.9830, 13678.00
1001.096, 13893.00
1002.208, 13849.00
1003.320, 13891.00
1004.432, 14019.00
1005.544, 13694.08
1006.655, 13827.18
1007.767, 13904.32
1008.878, 13928.49
1009.989, 13741.12
1011.100, 13826.92
1012.211, 13803.25
1013.321, 13775.08
1014.431, 13899.33
1015.542, 13742.72
1016.652, 13974.00
1017.762, 13843.00
1018.871, 13859.00
1019.981, 13822.00
1021.090, 13802.48
1022.199, 13905.00
1023.308, 13851.00
1024.417, 13843.00
1025.526, 13947.00
1026.635, 13970.00
1027.743, 13996.66
1028.851, 13987.00
1029.959, 14044.00
1031.067, 14133.01
1032.175, 14159.69
1033.282, 14174.17
1034.390, 14160.00
1035.497, 14127.00
1036.604, 14122.00
1037.711, 14029.00
1038.817, 14062.47
1039.924, 14129.94
1041.030, 14094.00
1042.136, 14233.00
1043.242, 14262.00
1044.348, 14077.00
1045.454, 14141.00
1046.559, 14134.00
1047.665, 14265.00
1048.770, 14226.00
1049.875, 14338.00
1050.980, 14258.00
1052.084, 14257.00
1053.189, 14432.00
1054.293, 14402.00
1055.397, 14459.00
1056.501, 14537.00
1057.605, 14669.00
1058.709, 14425.79
1059.812, 14690.54
1060.915, 14889.81
1062.018, 14964.87
1063.121, 15144.09
1064.224, 15291.33
1065.327, 15408.32
1066.429, 15404.30
1067.532, 15556.49
1068.634, 15646.03
1069.736, 15769.87
1070.837, 15723.52
1071.939, 15800.27
1073.041, 15781.39
1074.142, 15726.92
1075.243, 15726.52
1076.344, 15532.64
1077.445, 15464.85
1078.545, 15300.68
1079.646, 15132.46
1080.746, 15012.00
1081.846, 14914.00
1082.946, 14821.00
1084.046, 14929.00
1085.145, 14875.00
1086.245, 14697.00
1087.344, 14648.00
1088.443, 14785.00
1089.542, 14617.00
1090.640, 14608.00
1091.739, 14342.00
1092.837, 14596.00
1093.936, 14379.00
1095.034, 14529.00
1096.132, 14262.00
1097.229, 14406.00
1098.327, 14396.00
1099.424, 14207.00
1100.521, 14483.00
1101.618, 14373.00
1102.715, 14432.00
1103.812, 14336.00
1104.908, 14340.00
1106.005, 14373.00
1107.101, 14310.00
1108.197, 14329.20
1109.293, 14236.00
1110.389, 14309.00
1111.484, 14187.00
1112.579, 14160.00
1113.675, 14237.00
1114.770, 14235.00
1115.864, 14262.00
1116.959, 14246.00
1118.053, 14305.00
1119.148, 14251.00
1120.242, 14277.00
1121.336, 14254.32
1122.430, 14132.00
1123.523, 14207.00
1124.617, 14208.00
1125.710, 14200.00
1126.803, 14262.00
1127.896, 14308.00
1128.989, 14253.00
1130.081, 14375.00
1131.174, 14291.00
1132.266, 14325.00
1133.358, 14292.00
1134.450, 14307.00
1135.542, 14311.00
1136.634, 14240.00
1137.725, 14170.00
1138.816, 14289.00
1139.907, 14215.12
1140.998, 14300.00
1142.089, 14241.00
1143.179, 14286.00
1144.270, 14376.00
1145.360, 14379.00
1146.450, 14431.00
1147.540, 14430.00
1148.630, 14423.00
1149.719, 14449.19
1150.809, 14458.58
1151.898, 14446.00
1152.987, 14470.00
1154.076, 14421.00
1155.164, 14352.00
1156.253, 14299.00
1157.341, 14358.00
1158.429, 14391.00
1159.517, 14471.00
1160.605, 14436.00
1161.693, 14441.00
1162.780, 14273.00
1163.868, 14474.00
1164.955, 14369.00
1166.042, 14374.00
1167.128, 14446.00
1168.215, 14406.00
1169.302, 14385.00
1170.388, 14423.00
1171.474, 14428.00
1172.560, 14517.00
1173.646, 14466.00
1174.731, 14593.00
1175.817, 14427.00
1176.902, 14491.00
1177.987, 14564.00
1179.072, 14550.00
1180.157, 14555.86
1181.241, 14512.00
1182.326, 14502.00
1183.410, 14458.00
1184.494, 14451.00
1185.578, 14501.00
1186.662, 14323.00
1187.745, 14440.00
1188.828, 14430.00
1189.912, 14534.00
1190.995, 14383.00
1192.078, 14472.00
1193.160, 14483.00
1194.243, 14526.00
1195.325, 14270.00
1196.407, 14316.67
1197.489, 14438.00
1198.571, 14503.38
1199.653, 14515.81
1200.734, 14316.68
1201.816, 14390.73
1202.897, 14355.31
1203.978, 14315.39
1205.058, 14427.90
1206.139, 14259.55
1207.220, 14369.63
1208.300, 14368.57
1209.380, 14418.39
1210.460, 14358.05
1211.540, 14331.73
1212.619, 14475.00
1213.699, 14428.00
1214.778, 14299.00
1215.857, 14302.00
1216.936, 14182.00
1218.015, 14233.00
1219.093, 14315.00
1220.172, 14221.00
1221.250, 14165.00
1222.328, 14311.00
1223.406, 14238.00
1224.483, 14323.00
1225.561, 14330.00
1226.638, 14374.00
1227.715, 14321.00
1228.792, 14228.27
1229.869, 14334.58
1230.946, 14384.93
1232.022, 14382.34
1233.099, 14168.18
1234.175, 14227.22
1235.251, 14176.79
1236.327, 14121.86
1237.402, 14219.37
1238.478, 14036.00
1239.553, 14293.00
1240.628, 14272.00
1241.703, 14013.00
1242.778, 14240.00
1243.852, 14153.00
1244.927, 14221.00
1246.001, 14277.00
1247.075, 14166.00
1248.149, 14287.00
1249.223, 14239.71
1250.296, 14132.00
1251.370, 14243.00
1252.443, 14123.00
1253.516, 14161.00
1254.589, 14028.00
1255.662, 14294.00
1256.734, 14157.00
1257.806, 14192.00
1258.879, 14124.00
1259.951, 14162.00
1261.023, 14188.00
1262.094, 14051.00
1263.166, 14057.00
1264.237, 14183.00
1265.308, 14145.00
1266.379, 14148.00
1267.450, 14258.00
1268.521, 14105.00
1269.591, 14349.00
1270.661, 14193.00
1271.731, 14072.00
1272.801, 14129.00
1273.871, 14181.00
1274.941, 14109.00
1276.010, 14132.37
1277.079, 14175.00
1278.148, 14031.00
1279.217, 14177.00
1280.286, 14043.00
1281.354, 14154.00
1282.423, 13888.32
1283.491, 14032.41
1284.559, 14120.55
1285.627, 14155.73
1286.695, 13979.35
1287.762, 14076.14
1288.829, 14063.45
1289.897, 14046.29
1290.964, 14181.53
1292.030, 14035.89
1293.097, 14168.72
1294.163, 14190.37
1295.230, 14262.92
1296.296, 14225.29
1297.362, 14221.69
1298.428, 14328.28
1299.493, 14121.00
1300.559, 14211.00
1301.624, 14174.00
1302.689, 14075.00
1303.754, 14200.00
1304.819, 14141.00
1305.883, 14198.00
1306.948, 14194.00
1308.012, 14090.00
1309.076, 14002.00
1310.140, 14095.00
1311.203, 14046.00
1312.267, 13913.00
1313.330, 14160.00
1314.393, 14073.00
1315.456, 14064.00
1316.519, 13942.00
1317.582, 14025.00
1318.644, 13943.00
1319.707, 14048.00
1320.769, 14155.00
1321.831, 14026.00
1322.892, 14098.00
1323.954, 14151.00
1325.015, 13892.00
1326.077, 14124.00
1327.138, 14024.00
1328.199, 14051.00
1329.259, 14002.00
1330.320, 13860.00
1331.380, 14102.00
1332.441, 14221.00
1333.501, 13943.00
1334.560, 14062.00
1335.620, 14119.00
1336.680, 14074.12
1337.739, 14202.57
1338.798, 14275.05
1339.857, 14294.57
1340.916, 14102.54
1341.975, 14183.70
1343.033, 14155.37
1344.091, 14122.55
1345.149, 14242.16
1346.207, 14080.90
1347.265, 14122.00
1348.323, 14030.00
1349.380, 13912.00
1350.437, 13992.18
1351.495, 13911.05
1352.551, 14146.00
1353.608, 13860.00
1354.665, 14031.00
1355.721, 13962.00
1356.777, 14027.00
1357.833, 14096.00
1358.889, 13971.00
1359.945, 13876.00
1361.000, 14114.00
1362.056, 14245.00
1363.111, 14066.00
1364.166, 14012.00
1365.221, 13948.00
1366.275, 14055.00
1367.330, 14225.00
1368.384, 14069.00
1369.438, 13910.00
1370.492, 14097.00
1371.546, 13990.00
1372.599, 14013.00
1373.653, 14203.00
1374.706, 13954.00
1375.759, 13899.00
1376.812, 13969.00
1377.865, 14029.00
1378.917, 14084.00
1379.969, 14080.31
1381.022, 14028.33
1382.074, 14057.00
1383.125, 13946.00
1384.177, 13949.00
1385.229, 14120.00
1386.280, 13916.00
1387.331, 13985.00
1388.382, 14033.00
1389.433, 13958.66
1390.483, 14083.00
1391.534, 13902.00
1392.584, 13932.56
1393.634, 14053.88
1394.684, 14119.24
1395.734, 14131.65
1396.783, 13932.51
1397.833, 14006.54
1398.882, 13971.10
1399.931, 13931.17
1400.980, 14043.66
1402.028, 13884.00
1403.077, 13925.00
1404.125, 14074.00
1405.173, 14154.00
1406.221, 14039.00
1407.269, 14109.00
1408.317, 14149.99
1409.364, 13985.00
1410.412, 14143.00
1411.459, 14283.00
1412.506, 13996.00
1413.552, 14126.00
1414.599, 14003.00
1415.645, 14129.00
1416.692, 13937.00
1417.738, 14034.00
1418.784, 14075.00
1419.829, 14015.00
1420.875, 14074.00
1421.920, 14108.00
1422.965, 13993.00
1424.010, 13967.00
1425.055, 14075.00
1426.100, 14165.00
1427.144, 14182.00
1428.188, 14160.00
1429.233, 14098.00
1430.277, 14079.00
1431.320, 14055.91
1432.364, 14024.45
1433.407, 14089.00
1434.451, 13885.93
1435.494, 14023.59
1436.536, 14105.27
1437.579, 14134.02
1438.622, 13951.20
1439.664, 14041.56
1440.706, 14022.44
1441.748, 13998.83
1442.790, 14127.64
1443.832, 13975.59
1444.873, 14101.97
1445.915, 14117.21
1446.956, 14183.31
1447.997, 14139.26
1449.037, 14129.22
1450.078, 14229.38
1451.118, 14268.52
1452.159, 14149.72
1453.199, 14157.00
1454.239, 14174.00
1455.278, 14157.00
1456.318, 14147.00
1457.357, 14103.00
1458.396, 14172.00
1459.435, 14152.00
1460.474, 14054.00
1461.513, 14172.00
1462.551, 14126.00
1463.590, 14115.00
1464.628, 14187.00
1465.666, 14121.00
1466.704, 14067.00
1467.741, 14234.00
1468.779, 14116.61
1469.816, 14172.70
1470.853, 14082.00
1471.890, 14146.00
1472.927, 14233.00
1473.963, 14124.00
1474.999, 14219.00
1476.036, 14238.00
1477.072, 14203.23
1478.108, 14227.14
1479.143, 14185.00
1480.179, 14194.00
1481.214, 14196.00
1482.249, 14199.00
1483.284, 14199.00
1484.319, 14134.00
1485.353, 14183.31
1486.388, 14180.13
1487.422, 14180.00
1488.456, 14203.00
1489.490, 14063.00
1490.524, 14001.17
1491.557, 14102.00
1492.591, 14092.00
1493.624, 14223.00
1494.657, 14274.00
1495.690, 14176.00
1496.722, 14061.00
1497.755, 13930.00
1498.787, 14348.00
1499.819, 14103.00
1500.851, 14160.00
1501.883, 14174.00
1502.915, 14093.00
1503.946, 14083.00
1504.977, 14070.68
1506.008, 14080.99
1507.039, 14063.00
1508.070, 14169.00
1509.101, 14197.00
1510.131, 14276.00
1511.161, 14280.00
1512.191, 14118.00
1513.221, 14173.00
1514.251, 14124.00
1515.280, 14186.00
1516.309, 14225.00
1517.339, 14129.00
1518.367, 14103.00
1519.396, 14198.00
1520.425, 14129.51
1521.453, 14231.00
1522.481, 14145.00
1523.510, 14180.00
1524.537, 14249.00
1525.565, 14156.00
1526.593, 14229.00
1527.620, 14181.39
1528.647, 14172.07
1529.674, 14135.00
1530.701, 14220.00
1531.728, 14255.00
1532.754, 14424.00
1533.780, 14412.00
1534.807, 14304.00
1535.832, 14144.00
1536.858, 14223.00
1537.884, 14337.00
1538.909, 14138.00
1539.934, 14373.00
1540.959, 14467.00
1541.984, 14230.00
1543.009, 14428.00
1544.034, 14281.00
1545.058, 14438.00
1546.082, 14421.00
1547.106, 14435.00
1548.130, 14421.00
1549.153, 14409.00
1550.177, 14491.00
1551.200, 14674.00
1552.223, 14864.00
1553.246, 15109.00
1554.269, 14807.00
1555.291, 14486.00
1556.314, 14364.00
1557.336, 14395.00
1558.358, 14233.00
1559.380, 14398.00
1560.402, 14372.00
1561.423, 14251.00
1562.444, 14225.00
1563.466, 14229.00
1564.486, 14222.43
1565.507, 14281.25
1566.528, 14307.00
1567.548, 14372.00
1568.569, 14432.00
1569.589, 14363.00
1570.609, 14292.00
1571.628, 14356.16
1572.648, 14560.00
1573.667, 14434.00
1574.686, 14377.00
1575.705, 14415.00
1576.724, 14346.00
##END=



